##TITLE=octarelline 6 front
##JCAMP-DX=4.24
##DATA TYPE=INFRARED SPECTRUM
##DATE=31/1/2005
##TIME=22:39:19
##SAMPLING PROCEDURE=film
##ORIGIN=Vincent
##DATA PROCESSING=no operation
##XUNITS=1/CM
##YUNITS=ABSORBANCE
##RESOLUTION=2
##FIRSTX=4000.283
##LASTX=800.31372
##DELTAX=-0.64282227
##MAXY=0.18817285
##MINY=-0.0023233562
##XFACTOR=1
##YFACTOR=1.7524962e-010
##NPOINTS=4979
##FIRSTY=0.019378172
##XYDATA=(X++(Y..Y))
4000.28+110574689+110443112+109671624+108696672+107927440+107416360+107093688
3995.78+107083960+107398472+107565688+107214152+106810696+107087520+107874376
3991.28+108286344+107993024+107558440+107582816+108039464+108452240+108381088
3986.78+107812672+107183304+106924504+107073792+107412040+107697120+107711160
3982.28+107444128+107277232+107503512+107775808+107577560+107052352+106782008
3977.78+106931752+107238976+107618448+108246840+109092416+109755928+109820464
3973.28+109231800+108347760+107611352+107198104+107031528+107040776+107201184
3968.78+107458936+107797552+108249616+108653464+108639264+108109208+107546240
3964.28+107497496+107781664+107622304+106794344+106193600+106764256+108123096
3959.79+108949952+108645296+107869912+107463400+107565688+107861112+108010152
3955.29+107732752+106975392+106139328+105827152+106194216+106645368+106327736
3950.79+105043712+103567984+102817888+102838984+102944456+102724584+102488424
3946.29+102783872+103704280+104576208+104320600+102542464+100285360+99250296
3941.79+100163856+102223656+104084904+105032000+105287048+105525328+106147192
3937.29+106978016+107620760+107909712+107856032+107250088+105582984+102671784
3932.79+99476160+97790600+98506128+100528544+102098048+102779880+103474024
3928.29+104882360+106594952+107383664+106234912+103490200+100835592+99671896
3923.79+100005760+101267000+102982944+104134952+103531328+101581848+100145552
3919.29+99899936+99380048+97256696+94344528+92909672+94482952+98390552
3914.79+102370360+104855096+106186656+107250864+108046872+108272760+108090696
3910.29+107662560+107068552+106728960+106711848+106193896+104602392+101908568
3905.79+97198176+89601920+81331072+76297008+74863720+73999152+72902288+73647472
3900.65+76114536+77505272+77497192+79292976+84748992+91999536+98350440
3896.15+102622376+104668800+104940456+104474056+103548424+100484552+93639416
3891.65+85016640+80093336+82453360+89860592+97326144+101952128+102457952
3887.15+96821072+84864536+72327488+67588080+73038592+83301792+92162480+97185896
3882.00+97914152+94097192+87495504+82741992+83751696+89796728+96890048
3877.50+102265368+105625208+106614384+103788536+97194344+90212752+87196216
3873.00+89322136+92981896+92016240+82558424+67442824+55619304+54991116+65450692
3867.86+80086776+91403136+94962832+90209984+81166232+75031344+76394352+82585912
3862.72+87345552+88500120+89311112+92752168+97864968+102239200+104536752
3858.22+104184872+101866104+99365144+94616152+79401728+48873612+12731795
3853.72-10575531-13257410-2500044+14553002+36741144+61054568+80938664+93228968
3848.58+99994984+103911912+106107264+107379488+107835040+106101720+101383944
3844.08+95634528+92113280+91891448+92541800+91055400+87701008+84623200+80086936
3838.93+68970088+52215500+40770244+43765636+56473248+67713624+73998240+79380208
3833.79+85714712+89743280+88977616+85756296+84816096+88546648+95119232
3829.29+100825448+103448936+102996352+100484096+97619136+96634768+98357488
3824.79+101016840+102158384+100117264+92976976+79587648+63751904+53925420
3820.29+55510088+65967764+78976080+88665744+89210352+77252600+58343844+46301372
3815.15+50643796+67030156+84235472+95846104+102138544+105386768+107009936
3810.65+107833200+108396056+107939792+103524232+92161568+75964056+63860276
3806.15+64117032+75131992+87924904+95833512+96676864+88495072+70668664+50151924
3801.01+39969880+46922396+64748448+82296528+93171000+96585936+94615992+91182752
3795.87+90532768+93947776+98997384+102909664+105199968+106698424+107859408
3791.37+108752400+109399920+109582088+109144904+108544824+108301000+108218600
3786.87+107801104+106913248+105624600+104174712+103316168+103741248+105118760
3782.37+106447544+106846464+105372432+101389184+96205240+92943552+93560576
3777.87+97101864+101453360+105240816+107793088+108909976+109022648+108774928
3773.37+108607944+108777384+108548072+105601944+98375168+89350000+83997552
3768.87+85516104+91791832+97732072+99550408+97287128+94288992+93943016+96648600
3763.72+100382888+103415960+105210288+105189952+102280912+96451864+90274936
3759.22+87599864+89586616+93163784+94869512+94850032+95543048+97870200+99703888
3754.08+96208160+82306144+59284660+38641452+31545282+33719792+31982756+24710154
3748.94+24092286+37787776+58947616+75467728+77890576+60511280+27488122-1424687
3743.80-4384851+18753176+48997452+71619496+84731720+91688352+95110160+96409024
3738.65+95184768+89466384+79044696+67114680+57660992+53387760+55640304+62482320
3733.51+67747472+66728476+62648348+63594892+72749712+85427112+95783912
3729.01+101898568+104115408+102578032+98077488+93140312+90550840+91266416
3724.51+94040432+96357576+96054600+93392160+91356392+92527080+95991808+98822144
3719.37+99852888+100323504+101563400+103723072+106136400+107631232+107286184
3714.87+105311096+101562920+93635112+80031232+65598268+58940204+62259808
3710.37+68990288+73458496+77058160+83209680+91420760+98841048+103979544
3705.87+106845840+107926216+108064776+107519400+105052648+99724944+93460576
3701.37+90152096+91934080+97264232+102780176+106322336+107946736+108624600
3696.87+108872304+108810728+108494664+107768544+106662024+105555232+103598784
3692.37+98396680+89867496+82286608+78174704+72644912+60212512+45778916+41885128
3687.23+53630920+73060640+89790608+100042808+105216320+107525568+108585560
3682.73+109411496+110107672+110068760+108634952+105635848+102018320+99560720
3678.23+98192448+93630056+80390240+58889076+38487676+30962654+40239492+59982480
3673.09+79385248+88907640+84198184+69350264+55326268+51066860+56566488+66953976
3667.94+79223896+91757184+101881184+107772872+110389816+111533704+112029408
3663.44+112428920+113138176+113714464+113786520+113908552+114337920+114546296
3658.94+114312712+112814440+107333680+96784976+86105120+82745512+88479600
3654.44+98426952+106996976+110924232+108568736+100105408+87645920+73689472
3649.94+60791916+52567468+51788464+57236192+65498928+75211312+86638768+98464320
3644.80+108052888+114128952+117259752+118557880+119155424+119997296+121196176
3640.30+122109648+122301600+121936176+121452296+121401864+122219048+123588088
3635.80+124278168+123084160+120055912+116919704+116050088+118234064+120963520
3631.30+119237568+108892832+90443000+70645560+59256976+61854972+75516464
3626.80+92508976+106945016+117095760+123540576+127272240+129226792+130220128
3622.30+130495224+129161432+124623904+116662048+108161984+103329880+103801176
3617.80+107927912+113565384+119303752+123523176+124984280+124235152+122449656
3613.30+119859784+117398376+117732456+121403264+124080312+121457712+115309056
3608.80+111481784+112895440+117662600+123301176+129315808+135666000+141248928
3604.30+144679920+145626064+144879728+143497328+142225504+141538544+141575456
3599.80+141894976+142036544+142371616+143432064+144505024+144260928+142752112
3595.30+141402640+141212800+142215328+144227584+146894608+149526720+151562336
3590.81+152306432+150275216+144654864+137470864+132256296+130536016+131547344
3586.31+134813792+140381984+146994464+152503888+156012816+158160976+159701728
3581.81+160815184+161433232+161610304+161736112+162291648+163208416+163941024
3577.31+164324864+164735568+165329040+165882992+166371088+166988032+167700704
3572.81+168274672+168605728+168823472+169081200+169033280+167521328+163553776
3568.31+157845648+152604736+149705760+149893728+153208656+158719472+164332576
3563.81+168424544+171305488+174008480+176416400+177715600+177946032+178025360
3559.31+178684608+179943664+181364192+182564832+183595712+184629872+185377760
3554.81+185336032+184527072+183413408+182354000+181785520+182481840+184812704
3550.31+187980304+190480960+191183232+190011264+188014880+186631008+186456592
3545.81+186952400+187513792+188274032+189648176+191695952+194137568+196536064
3541.31+198425680+199659456+200553264+201472944+202495648+203504064+204317664
3536.81+204788144+205105536+205763952+206972160+208420160+209758592+210857760
3532.31+211529632+211583984+211197296+210735840+210299248+209816928+209379536
3527.81+209137808+209208224+209864688+211322752+213167504+214576784+215276224
3523.31+215797024+216652208+217723168+218672784+219573360+220802976+222444272
3518.81+224032464+225034144+225436432+225730592+226388368+227504976+228871072
3514.31+230153504+231096512+231761728+232496224+233416144+234079696+234034240
3509.81+233622592+233831168+235224144+237339856+239227040+240286144+240490720
3505.31+240160320+239742432+239631152+239971248+240691264+241672480+242807424
3500.81+244048000+245530880+247385616+249303840+250664032+251264688+251485408
3496.31+251624848+251627312+251664256+252313456+253775920+255368128+256198768
3491.81+256199728+256256912+257269920+259063920+260472304+260701040+260301680
3487.31+260396656+261338640+262693792+264034560+265060608+265423296+265174368
3482.81+265030176+265600848+266727728+267967952+269240320+270625504+271990688
3478.31+273123424+273928032+274397600+274642464+274943680+275589536+276663808
3473.81+277935360+278883168+279157888+279229344+280046176+281754016+283415296
3469.31+284345344+284891616+285492384+285940768+286086944+286368640+287127328
3464.81+288118816+289002176+289694080+290142080+290352160+290637120+291287936
3460.31+292093312+292606688+292733728+292824480+293309280+294302752+295451392
3455.81+296305728+296915264+297672992+298551264+299105344+299269504+299412224
3451.31+299623840+299770528+300078976+300721952+301061696+300444480+299582208
3446.81+300011648+302163712+304882912+306870432+307848768+308303392+308703072
3442.31+309135264+309428608+309509920+309583392+309943936+310764448+312036640
3437.81+313489248+314571840+314877728+314665056+314682688+315486496+317003200
3433.31+318577568+319331072+318873056+317890880+317626752+318571744+320008800
3428.81+320968640+321194976+321043520+320833184+320592928+320304288+320175360
3424.31+320599616+321772960+323397344+324802592+325392032+325060384+324356864
3419.81+324138016+324798016+325933600+326898624+327460576+327733568+327798784
3415.31+327773440+327982912+328753760+330149504+331898080+333402912+333973312
3410.81+333459360+332541952+332038784+332079968+332308512+332604096+333162464
3406.32+333999712+334785728+335206272+335274240+335287104+335526592+335984448
3401.82+336403968+336611552+336755552+337094496+337572992+337719232+337131104
3397.32+336079680+335470240+336026016+337487520+338750816+338928000+338304640
3392.82+338064768+338903616+340207008+340968544+341121472+341356736+341937440
3388.32+342514176+342873248+343086656+343107840+342891072+342650400+342482272
3383.82+342196384+341922496+342170944+342876960+343228448+342871904+342545568
3379.32+343050688+344241984+345329312+345749728+345575840+345347648+345544416
3374.82+346135456+346797952+347427712+348103488+348687904+348924800+348816320
3370.32+348594944+348470464+348570944+348871392+349096544+348984320+348593920
3365.82+348138816+347731200+347516032+347653568+347990624+348221920+348469824
3361.32+349136864+350124704+350869504+351103840+351005120+350724992+350359712
3356.82+350197888+350443904+350904352+351349600+351873376+352573824+353250016
3352.32+353726336+354164256+354796320+355537728+356003008+355860448+355219744
3347.82+354679232+354756256+355254528+355458240+354965568+354049728+353274720
3343.32+353074944+353591072+354567936+355440160+355816480+355870880+356084864
3338.82+356684032+357404992+357790624+357673408+357402432+357460288+357895424
3334.32+358354528+358638048+358839712+358970144+358901824+358700224+358560608
3329.82+358485632+358437856+358633984+359232352+359926112+360343040+360534880
3325.32+360606976+360257632+359300512+358333920+358220896+359035680+359995072
3320.82+360387808+360251808+360173408+360616352+361447680+362048608+361953952
3316.32+361303264+360591744+360149824+360076384+360534176+361698208+363344928
3311.82+364743008+365175840+364549760+363448736+362658624+362653856+363404736
3307.32+364565216+365863616+367312448+368901728+370104832+370079776+368647872
3302.82+366826688+365927520+366175424+366666592+366673600+366451808+366582272
3298.32+367032096+367337344+367400864+367556224+367836736+367729824+366889408
3293.82+365822720+365499648+366304192+367624320+368540896+368715904+368498720
3289.32+368353088+368392672+368401888+368157056+367681664+367202464+366839712
3284.82+366458144+365949600+365538336+365560640+366000448+366401120+366253696
3280.32+365461472+364537952+364258368+364834240+365522784+365353152+364193888
3275.82+362801248+361899904+361599136+361553632+361328224+360750272+360188288
3271.32+360206880+360650208+360538816+359323200+357776416+357050656+357130112
3266.82+356921120+355741120+354048032+352660544+351846656+351372064+351029952
3262.32+350812448+350750016+350768576+350651008+350135456+349127488+347798016
3257.82+346388864+345026080+343827424+342999488+342623744+342463296+342209920
3253.32+341833824+341519136+341353504+341207872+340875200+340229664+339380896
3248.82+338675328+338354432+338190208+337728736+336954560+336357632+336215168
3244.32+336209408+335984096+335640096+335359488+334920000+334030624+332834368
3239.82+331706112+330791200+330024608+329351904+328711904+328060992+327548768
3235.32+327377664+327420512+327269440+326718496+325906144+325036160+324227936
3230.82+323589568+323150496+322709440+322041248+321314528+321069056+321520256
3226.32+322044608+321736800+320492544+319126080+318315072+317900096+317378592
3221.83+316590624+315677760+314772416+313940160+313196736+312605152+312432384
3217.33+312914016+313710208+314038944+313550592+312611680+311698624+311018304
3212.83+310673184+310497184+309908608+308647648+307476384+307398560+308319104
3208.33+309140960+309047072+308136128+306966720+305988704+305383456+305065184
3203.83+304714560+304057376+303185632+302463776+302031232+301621632+301065504
3199.33+300619584+300469984+300244384+299494720+298376000+297427808+296961216
3194.83+296911424+296932928+296509856+295437280+294211104+293438144+293040256
3190.33+292662048+292469920+292790592+293231296+293041440+292148000+291155872
3185.83+290479328+290007392+289525248+289007808+288474432+287863488+287103936
3181.33+286226560+285360448+284618880+284013056+283432192+282720512+281892352
3176.83+281281216+281241504+281668960+282065984+282123744+281880768+281370592
3172.33+280576288+279709632+279084192+278705152+278343488+277921280+277551520
3167.83+277307328+277144128+276921472+276485920+275875328+275346560+275059360
3163.33+274933760+274907200+275019904+275182816+275192192+274996800+274658624
3158.83+274165088+273497856+272701920+271809536+270917312+270235552+269800704
3154.33+269361984+268872160+268657952+268823872+268981632+268817312+268375488
3149.83+267744496+267059680+266716032+266952240+267351536+267302672+266650368
3145.33+265570752+264320832+263360320+263048544+263074816+262821232+262266512
3140.83+261844416+261579584+261143840+260529424+259976992+259460960+258854208
3136.33+258362000+258286896+258536752+258711376+258486752+257727808+256446928
3131.83+254913296+253676576+253217152+253471568+253812416+253690496+253211744
3127.33+252862176+252739648+252491520+252004352+251625024+251501104+251175600
3122.83+250243888+249046256+248303904+248246912+248527264+248812560+249010480
3118.33+248974560+248493600+247701648+247123024+247136912+247575936+247898192
3113.83+247667024+246881680+245911248+245083248+244410368+243810352+243422992
3109.33+243440592+243747120+243979712+243845888+243251568+242294816+241282832
3104.83+240585936+240361184+240478032+240626960+240457024+239824640+239014592
3100.33+238481280+238326464+238321904+238348720+238434096+238512624+238518192
3095.83+238547296+238605344+238482400+238124480+237724336+237315808+236759792
3091.33+236243840+236144080+236333376+236287200+235950096+235798336+235967952
3086.83+235997680+235577408+234975808+234596144+234496928+234448384+234194944
3082.33+233644480+232963520+232425008+232095520+231812496+231476288+231142896
3077.83+230880224+230801424+231115664+231740640+232050752+231512768+230409440
3073.33+229461968+228927456+228560688+228185904+227798048+227407184+227166768
3068.83+227275552+227490880+227337248+226974448+227021248+227362160+227139888
3064.33+226172016+225314640+225155312+225352512+225439024+225312208+224838112
3059.83+223918640+222978032+222561072+222508752+222243264+221673792+221142912
3055.33+220752464+220341696+219938624+219725856+219750880+219955216+220240176
3050.83+220380448+220164288+219720528+219403232+219298816+219102256+218563216
3046.33+217867008+217485792+217665264+218084128+218148304+217664624+217089280
3041.83+216929824+217104288+217069280+216448464+215357760+214204592+213338128
3037.34+212838976+212580000+212450784+212491184+212705872+212896896+212840416
3032.84+212571472+212352608+212384464+212621712+212828000+212794064+212538160
3028.34+212264272+212111392+211990720+211741984+211369872+211085328+211138896
3023.84+211574528+212110896+212326064+212030928+211413136+210786672+210344928
3019.34+210150848+210169200+210274816+210352304+210422288+210580032+210834416
3014.84+211113328+211333360+211390144+211211744+210896512+210648992+210500736
3010.34+210277712+209922720+209648784+209638832+209758432+209759872+209683520
3005.84+209845536+210363408+210865968+210865792+210367616+209905984+209940384
3001.34+210384144+210830256+211050288+211136304+211289760+211655424+212272960
2996.84+213027296+213663680+213999904+214066080+213968496+213759488+213577728
2992.34+213728096+214319408+214961104+215162816+214983200+214937776+215324080
2987.84+215988288+216725728+217538528+218448672+219408400+220395600+221326848
2983.34+221947296+222144576+222333264+223070464+224300880+225373360+225851920
2978.84+225952240+226110832+226509280+227116256+227866560+228672320+229497472
2974.34+230471856+231731536+233127728+234324496+235224944+236138208+237420160
2969.84+239022048+240455584+241285808+241618432+241998016+242779232+243802864
2965.34+244685888+245219552+245444464+245593200+245999024+246816064+247821104
2960.84+248683680+249383712+250080784+250683312+250853776+250497168+250001728
2956.34+249826912+249952528+249880000+249249584+248240704+247242816+246372608
2951.84+245555520+244797056+244042144+243113392+242166272+241835168+242415632
2947.34+243276656+243581536+243289392+242999504+243092032+243445472+243828448
2942.84+244204144+244708720+245447696+246300000+246926720+247134960+247179344
2938.34+247527632+248380304+249507216+250484720+251024416+251200448+251421168
2933.84+252036720+252890976+253489248+253641744+253660384+253826816+254034144
2929.34+254179968+254492576+255152336+255899360+256341920+256392720+256195504
2924.84+255937200+255824176+255869072+255697424+254991568+254022544+253279328
2920.34+252763696+252137136+251291056+250292400+249073200+247640912+246302768
2915.84+245294896+244481920+243616416+242622192+241543376+240451824+239363040
2911.34+238087232+236451984+234781264+233696592+233246192+232722256+231605696
2906.84+230233392+229247296+228727072+228191904+227293856+226190128+225216272
2902.34+224458704+223851872+223501232+223510768+223610672+223395360+222893328
2897.84+222451696+222142288+221780400+221388704+221139200+220910208+220361872
2893.34+219418240+218358352+217467232+216825360+216396880+216198320+216289520
2888.84+216544224+216579520+216186560+215668608+215416736+215292832+214891840
2884.34+214253056+213830016+213867072+214234544+214718848+215132672+215322800
2879.84+215366800+215555136+215949456+216218288+216040032+215484416+214921312
2875.34+214738512+215110288+215802320+216223632+215902736+214955968+213965616
2870.84+213412192+213297744+213286944+213039712+212346976+211133760+209627072
2866.34+208437168+208030752+208140784+208111712+207806160+207633968+207702224
2861.84+207637648+207373296+207345056+207655488+207712672+207124256+206359632
2857.34+206100384+206341360+206563040+206534624+206512480+206741744+207116368
2852.85+207344064+207292688+207147184+207208224+207470928+207448960+206669008
2848.35+205318464+204079936+203306848+202766400+202178480+201474368+200456400
2843.85+198799984+196616928+194565584+193192528+192474992+192077552+191778128
2839.35+191569568+191490704+191394016+190980576+190254800+189674768+189477520
2834.85+189207760+188448528+187624816+187363888+187466944+187282624+186757296
2830.35+186336384+186120944+185799936+185210288+184441952+183596672+182833568
2825.85+182407120+182389808+182551488+182670880+182717184+182622912+182228592
2821.35+181613728+181209264+181313808+181692400+181884880+181751520+181458768
2816.85+181109120+180725712+180464064+180468336+180543824+180308992+179672704
2812.35+178940352+178482496+178461216+178754096+179008144+178865408+178292352
2807.85+177626896+177246064+177226720+177324144+177239728+176930048+176640368
2803.35+176627040+176878800+177096768+176959056+176440368+175884352+175627776
2798.85+175596400+175514752+175352544+175186240+174823552+174124640+173462672
2794.35+173247392+173286032+173223312+173226784+173578640+174034624+174188016
2789.85+174020544+173601936+172840000+171900832+171312288+171327632+171655776
2785.35+171924896+171973664+171734272+171280288+170917264+170871984+171003968
2780.85+171069024+171059200+171083568+171029440+170615632+169829952+169170864
2776.35+169202960+169847664+170405824+170374800+169923440+169505680+169399728
2771.85+169657360+170132896+170472896+170426704+170143968+169927712+169809712
2767.35+169579872+169140336+168655520+168381392+168366368+168382016+168255536
2762.85+168168592+168348800+168657904+168830400+168900608+168982864+168958336
2758.35+168758320+168596688+168596544+168578208+168463424+168407936+168385488
2753.85+168135568+167649968+167276848+167310352+167751776+168397200+168927824
2749.35+169081536+168907584+168705648+168651904+168665168+168611248+168469584
2744.85+168311344+168229136+168244784+168297120+168376784+168593536+169020000
2740.35+169530352+169888960+169915856+169616736+169270048+169222112+169486384
2735.85+169743104+169873776+170157888+170757392+171318624+171376384+170954112
2731.35+170552640+170612144+171070448+171456160+171421344+171140080+171054288
2726.85+171369424+171985696+172801856+173766064+174678528+175275328+175568160
2722.35+175869440+176411504+177064576+177541200+177766832+177949664+178309952
2717.85+178872736+179538192+180197968+180760336+181211328+181693840+182340656
2713.35+183033312+183545584+183943776+184571632+185613024+186865264+187993536
2708.85+188897536+189820368+191093712+192694688+194118080+194917088+195280336
2704.35+195785280+196694848+197846944+199147152+200675472+202269184+203484832
2699.85+204175072+204777552+205840048+207414736+209092976+210554928+211922160
2695.35+213494304+215261264+216906112+218317520+219781232+221477072+223093424
2690.85+224266112+225192832+226427696+228215568+230352048+232577168+234782720
2686.35+236874032+238732368+240370448+241964320+243709824+245682080+247752096
2681.85+249629392+251127392+252456848+254090112+256227760+258516256+260432112
2677.35+261887248+263332240+265267248+267737248+270338336+272652128+274632384
2672.85+276554336+278629120+280744704+282629120+284207360+285722080+287498528
2668.36+289659360+292103616+294647616+297079456+299123040+300594176+301730944
2663.86+303167776+305350880+308045440+310649376+312863232+314794208+316563072
2659.36+318233984+320029504+322169120+324528288+326826016+329081664+331498048
2654.86+333994272+336267424+338231872+340058336+341850944+343605248+345446464
2650.36+347643328+350305600+353157344+355703296+357731456+359599008+361791360
2645.86+364242816+366415488+368084576+369649376+371571104+373869088+376263552
2641.36+378554560+380774592+383095840+385636928+388284672+390764736+392880320
2636.86+394659584+396344800+398294944+400720992+403439680+406071552+408451904
2632.36+410624128+412577920+414380480+416383680+418890432+421737024+424547424
2627.86+427173568+429582528+431671968+433521536+435489728+437768128+440157440
2623.36+442424992+444555232+446565312+448450464+450385248+452640448+455230688
2618.86+457880160+460380608+462784512+465226240+467725120+470187680+472510176
2614.36+474627968+476548832+478428608+480529664+482964160+485525408+487889088
2609.86+490009600+492171104+494665984+497446048+500124608+502393376+504433760
2605.36+506684352+509152000+511369504+513177024+515013024+517197440+519520896
2600.86+521783776+524087648+526355808+528274688+529920832+531805696+534152608
2596.36+536668896+539030656+541099776+542838208+544454592+546399744+548834240
2591.86+551380736+553626048+555548608+557303296+558945536+560511808+562129024
2587.36+563986688+566187904+568557632+570705792+572469184+574085760+575765632
2582.86+577459328+579171840+581015936+582847552+584400384+585817856+587468416
2578.36+589334656+591172288+593032640+595048128+597034176+598839744+600645376
2573.86+602505920+604104000+605343936+606649600+608356224+610247360+611903104
2569.36+613171008+614233664+615422080+616913792+618533120+620002432+621337728
2564.86+622746624+624243136+625699904+627131904+628637760+630186752+631664384
2560.36+633035712+634308672+635483584+636578368+637620736+638669440+639860032
2555.86+641322752+642976000+644564352+645914752+647053760+648093504+649109952
2551.36+650122688+651155136+652316288+653696448+655172352+656482816+657572032
2546.86+658633088+659763776+660830272+661749376+662644416+663656320+664788096
2542.36+665975936+667195072+668479040+669845056+671171136+672222144+672896000
2537.86+673393728+674056128+675088768+676421312+677736256+678705600+679349056
2533.36+680065024+681194624+682690176+684242112+685563712+686563520+687415040
2528.86+688365696+689354176+690113920+690750784+691728256+693097216+694288384
2524.36+694957376+695467904+696299200+697466304+698699136+699812672+700744768
2519.86+701516288+702212928+702885056+703507648+704086848+704663168+705256256
2515.36+705931904+706796160+707803392+708768064+709650752+710579968+711624896
2510.86+712800896+714165184+715579264+716631360+717145536+717497792+718102656
2506.36+718895744+719604864+720197056+720792128+721424960+722109696+722894336
2501.86+723738368+724522752+725250816+726105920+727216000+728427584+729398848
2497.36+729994880+730475648+731159872+732008768+732757312+733319744+733812544
2492.86+734298496+734746112+735155264+735558080+735978048+736467712+737059776
2488.36+737710336+738397120+739166272+739959232+740545600+740785472+740803264
2483.87+740803392+740855936+740935296+741073280+741402432+741985216+742613568
2479.37+742912192+742775488+742526016+742538816+742886272+743403776+743815936
2474.87+743815936+743314624+742594368+741962240+741428480+740945088+740663296
2470.37+740690944+740887104+741039424+741003008+740673984+740117184+739586496
2465.87+739196736+738832960+738476352+738196032+737808448+737118656+736427072
2461.37+736151104+736115456+735860224+735399296+735052352+734828416+734504128
2456.87+733977536+733224256+732305472+731522432+731095424+730750592+730123520
2452.37+729351296+728753920+728278144+727755776+727314560+727088896+726912000
2447.87+726635648+726364032+726145408+725802176+725261056+724758592+724573760
2443.37+724674048+724672064+724170112+723227648+722379584+722057216+722083264
2438.87+721923072+721341632+720642176+720285184+720358656+720496320+720387520
2434.37+720233216+720449984+721004352+721400896+721323520+720938048+720534144
2429.87+720212928+719965376+719783936+719655936+719584256+719600000+719673728
2425.37+719715712+719703488+719721088+719861120+720145728+720506688+720778496
2420.87+720812672+720667008+720567296+720632256+720764736+720827392+720810368
2416.37+720783424+720784192+720773760+720658176+720381184+720029312+719764544
2411.87+719636608+719568064+719549824+719677632+719922944+720040320+719830080
2407.37+719362432+718835328+718349248+717937472+717645376+717439616+717177216
2402.87+716741824+716122048+715320896+714371008+713435136+712700544+712171840
2398.37+711719616+711307136+710995520+710764928+710480832+709984384+709169536
2393.87+708069312+706878144+705777216+704759168+703766080+702891840+702271552
2389.37+701823296+701269568+700383680+699174912+697884096+696764480+695787264
2384.87+694643264+693214656+691850624+690926272+690274880+689370816+687972736
2380.37+686316672+684748288+683416000+682264448+681084800+679600704+677704192
2375.87+675590592+673540736+671624320+669733504+667805760+665802368+663563840
2371.37+660967360+658212480+655658816+653371840+651121472+648813632+646575552
2366.87+644409664+642171520+639949568+638075520+636619008+635200960+633436992
2362.37+631329920+629190272+627358656+626034048+625180928+624577280+624039424
2357.87+623575488+623263296+623065856+622849728+622546112+622286144+622351104
2353.37+622897408+623702208+624318656+624539840+624529536+624445376+624126848
2348.87+623276928+621781632+619719232+617194816+614324800+611348800+608580416
2344.37+606181696+604034944+601920384+599799296+597856064+596218048+594736448
2339.87+593095488+591125440+588969856+586934528+585167936+583495744+581642880
2335.37+579608896+577719040+576252032+575116800+573976768+572623232+571128000
2330.87+569668160+568327040+567115840+566059840+565132352+564159936+562974976
2326.37+561670080+560503424+559551168+558661248+557749248+556890048+556094848
2321.87+555253312+554348224+553468480+552593536+551576896+550361088+549044800
2317.37+547765504+546635968+545654464+544606784+543231872+541591552+540069184
2312.87+538891520+537871488+536725376+535413088+534072000+532782176+531505344
2308.37+530165984+528767072+527416800+526193408+524995200+523646400+522125120
2303.88+520521312+518862432+517139680+515447808+513889376+512414432+510944480
2299.38+509555936+508343808+507175328+505790432+504106272+502306720+500633920
2294.88+499189984+497919104+496695648+495405472+493975168+492393088+490747136
2290.38+489201248+487871840+486712800+485571776+484337632+483003072+481566656
2285.88+479958944+478158944+476351328+474804448+473527520+472197056+470567712
2281.38+468779520+467109376+465590368+464097184+462627520+461272896+460038752
2276.88+458882688+457759744+456541312+455113568+453632032+452382336+451312416
2272.38+450046688+448444480+446800960+445409728+444221920+443033184+441752960
2267.88+440428992+439119968+437812704+436462080+435143072+434027584+433066912
2263.38+431894016+430287616+428513312+426950016+425615456+424354560+423168992
2258.88+422063264+420908384+419730880+418774336+418011840+416994272+415440256
2254.38+413639584+412090016+411013824+410316832+409709792+408838272+407557376
2249.88+406092608+404743360+403578912+402546368+401636384+400737632+399616928
2245.38+398248832+396890464+395715552+394634848+393559744+392521664+391485312
2240.88+390360480+389209472+388127296+387003808+385708064+384386880+383230752
2236.38+382118976+380873984+379662848+378759680+378059360+377211072+376100896
2231.88+374936480+373938144+373135232+372389792+371569024+370739648+370090432
2227.38+369576672+368895232+367939552+366981888+366200768+365385344+364311776
2222.88+363074752+361857184+360701440+359642880+358771200+358066752+357390816
2218.38+356655872+355810304+354762912+353556800+352504032+351863552+351450336
2213.88+350824736+349844352+348816480+348057344+347504672+346883776+346072832
2209.38+345112672+344016832+342834080+341806016+341179104+340882464+340573824
2204.88+339970784+339033472+337898848+336742752+335639008+334593664+333720608
2200.38+333189504+332886368+332424384+331679072+330936896+330376320+329801216
2195.88+329035424+328196736+327447296+326825696+326356704+325997952+325539744
2191.38+324813856+323918496+323038560+322234048+321485408+320758688+319984768
2186.88+319191264+318549216+318110496+317671232+317057600+316314528+315485632
2182.38+314554240+313679648+313135392+312908320+312673376+312212768+311612512
2177.88+311024128+310443296+309759840+308949664+308162560+307591232+307257632
2173.38+306992448+306618144+306033792+305210848+304276288+303486112+302950432
2168.88+302504320+301979520+301414784+300906592+300483680+300190208+300049792
2164.38+299917440+299591040+299028352+298299520+297479136+296702304+296113632
2159.88+295646912+295103456+294492704+294005376+293633024+293117536+292331456
2155.38+291446752+290689600+290116480+289685120+289412192+289342624+289361696
2150.88+289173312+288610656+287892000+287353696+287000768+286546880+285857536
2146.38+285135200+284676192+284572320+284611424+284421920+283825696+283044192
2141.88+282425664+282029920+281640640+281114112+280552320+280126720+279852544
2137.38+279562336+279140896+278705632+278424640+278203552+277806944+277234976
2132.88+276656352+276064384+275386336+274804544+274535360+274394784+274024896
2128.38+273463840+273104448+273145536+273381536+273438272+273062272+272282464
2123.88+271385792+270658592+270177056+269876960+269667968+269407424+268970112
2119.39+268459424+268144576+268104736+268102608+267842896+267271568+266633120
2114.89+266269136+266267168+266327520+266100736+265573888+264980224+264479408
2110.39+264114096+263898352+263751152+263513904+263163360+262846048+262616608
2105.89+262373904+262055360+261679248+261204864+260607680+260050832+259752272
2101.39+259693552+259640400+259402592+258967328+258482496+258148560+258024128
2096.89+257920384+257641744+257284160+257090480+257069504+257008560+256780320
2092.39+256411696+255919184+255316384+254724704+254256560+253866080+253456512
2087.89+253078768+252872656+252898320+253091344+253294384+253314832+253084480
2083.39+252727728+252362336+251908400+251264880+250603408+250257120+250302208
2078.89+250413008+250179984+249529584+248810768+248467184+248612688+248894848
2074.39+248806848+248156144+247259312+246610304+246375696+246327744+246262784
2069.89+246236032+246287584+246233280+245905872+245353280+244669728+243886976
2065.39+243143536+242670736+242505552+242485040+242512240+242566960+242515968
2060.89+242230928+241863680+241726880+241916112+242197728+242245264+241900496
2056.39+241277008+240639824+240183744+239930560+239828720+239805568+239760848
2051.89+239607408+239309360+238843792+238252448+237782384+237697008+237914064
2047.39+238058960+237924336+237592032+237135040+236522528+235823696+235220736
2042.89+234813872+234619696+234666144+234886496+235036032+234956496+234799616
2038.39+234737728+234597776+234113952+233442096+232996288+232796240+232431008
2033.89+231745680+231118400+230917328+231063920+231244080+231215360+230894496
2029.39+230466464+230323680+230572496+230780816+230540400+229989776+229459040
2024.89+228982864+228517120+228249248+228319376+228528640+228599744+228485376
2020.39+228276128+228005344+227606336+226952592+226051616+225270624+225122960
2015.89+225675904+226375920+226580496+226117616+225319664+224693008+224524528
2011.39+224663616+224712128+224485072+224172656+224014528+223994464+223941456
2006.89+223791728+223617472+223459216+223236608+222883152+222495968+222280912
2002.39+222334880+222535056+222646256+222512128+222172496+221824992+221624048
1997.89+221510032+221311840+220984336+220654400+220450016+220327984+219956368
1993.39+218850064+216964976+215188288+214697264+215604768+216740880+217046704
1988.89+216680416+216499744+216983840+217951680+218906224+219354496+219115184
1984.39+218487872+217908800+217517248+217322096+217476752+217923792+218095904
1979.89+217533184+216570480+215925776+215809760+215874208+215827312+215706768
1975.39+215656000+215720800+215854720+215991200+216087264+216081440+215869360
1970.89+215436400+214929536+214407024+213627632+212399616+211082928+210418416
1966.39+210793072+211873264+212939104+213476768+213439248+213089440+212715520
1961.89+212526080+212625696+212899664+213023440+212816448+212498752+212412944
1957.39+212575808+212675424+212430992+211844960+211174928+210697248+210470176
1952.89+210395728+210433040+210573584+210672496+210590640+210429504+210361984
1948.39+210339792+210162608+209700368+209021952+208476384+208406032+208366192
1943.89+207152624+204406192+201766624+201393136+203517840+206376496+208321488
1939.39+209080928+209195984+209117712+208949472+208600128+208084560+207710592
1934.90+207806496+208300640+208798736+209015680+208893376+208456480+207863504
1930.40+207416352+207253984+207198416+207104320+207090320+207213344+207257200
1925.90+207066064+206602368+205513776+203417632+200995200+199856528+200763744
1921.40+202839808+204748368+205293600+202971264+197341104+191437904+190097392
1916.90+194432320+200384624+203868560+204722368+204809488+204945232+205013104
1912.40+205051280+204925648+204234560+203198608+202615712+202743648+203135920
1907.90+203526192+204039536+204645056+205004432+204878992+204446480+204206832
1903.40+204473712+204979728+205251520+205237904+205162976+204998352+204578160
1898.90+204052368+203768192+203834080+203959504+203648384+202754688+201988720
1894.40+202278000+203450528+204403136+204620368+204287504+202938096+199831232
1889.90+196057344+194409648+196300688+200106144+203212544+204551360+204697200
1885.40+204498448+204297760+204156448+204240176+204707616+205364992+205774848
1880.90+205736352+205364992+204861792+204495536+204563088+205034768+205547440
1876.40+205911296+206235216+206563216+206805168+206899248+206729216+206217072
1871.90+205386016+203582976+199254864+192171872+185532016+183587440+186980752
1867.40+192511584+197277936+200818192+203556176+205440736+206410208+206759072
1862.90+206744784+206504912+206287408+206328000+206615552+206950624+207174976
1858.40+207320944+207549504+207880032+208141744+208246640+208284560+208376480
1853.90+208648176+209132176+209519072+209466496+209204192+209169824+209158720
1849.40+208585184+207345536+205958000+205276912+205502704+204069216+196308176
1844.90+181911280+169600752+169772512+181891728+195658960+203829600+207168240
1840.40+208733328+209532256+209696368+209428752+208505008+207227936+206916912
1835.90+207991056+209227808+209693936+209674368+209647648+209592704+208450544
1831.40+203925024+195292176+186795168+184801408+190651184+199560336+206167328
1826.90+207701744+203745568+197114624+193446144+196019312+202147056+207170640
1822.40+209601696+210584192+211058608+211325648+211543760+211441296+210652560
1817.90+209574992+208983216+209087504+209624672+210321760+210853568+210945392
1813.40+210571808+209587696+207543872+204589712+202172896+201999456+204187888
1808.90+206974064+208576656+209040576+209631568+210717040+211423440+211312784
1804.40+210693248+209237600+206306512+202829712+200595728+199482528+197861024
1799.90+195948640+196164144+199596016+204159680+206877248+206848704+205825920
1795.40+205857056+205620480+200290960+187623568+173502288+167724736+173352096
1790.90+184450352+194599104+202132160+207271184+209768720+210320144+210115136
1786.40+208345920+203816928+198876032+197801648+201208272+205546976+207622896
1781.90+206662912+203483392+200365760+200011840+202568432+205582112+207455840
1777.40+208094016+206860720+203818528+201417984+199883424+193228944+176533936
1772.90+156008560+145514368+151864944+168819808+185345120+193708352+192061760
1768.40+185502384+183107072+189218944+199103920+205836960+207958608+207970816
1763.90+206339568+200454304+189709392+179558192+177956816+186546432+198291568
1759.40+205553696+206638976+203230048+196852672+190976784+190996256+197541216
1754.90+204879440+208859632+209775600+205862352+193145440+175479216+165748944
1750.41+170667056+182215232+189943792+192766544+195169904+199282400+204211936
1745.91+208593200+211034832+210610400+208279568+206813344+208574720+212259920
1741.41+211966736+202932016+189700464+184084096+191421152+204471152+214039504
1736.91+216923872+210652384+190182064+156601504+124846640+114938312+132870104
1732.41+165159616+192907856+206233600+207553648+205845168+207673488+212728560
1727.91+217217296+219162784+219426960+219339152+218970768+217744448+215865488
1723.41+214519616+214735104+216381248+218140256+218012032+213437152+201063296
1718.91+178577920+150382432+130714472+132878672+152305648+171110176+180203680
1714.41+186008832+195966704+207688416+215781696+219654688+220692368+219462144
1709.91+218157824+219421792+221548144+220098576+214009728+206465280+201171264
1705.41+199982208+202472576+207236144+213925856+220010432+215002048+187155968
1700.91+142048896+109063400+116006592+156847936+200055232+219030320+205659648
1696.41+172526272+149746064+162261504+202324672+241338560+263167632+271872352
1691.91+276414304+279398496+280772640+282859392+287152512+292224256+297887040
1687.41+304793056+306659936+291189760+255728560+219142288+209248880+233517408
1682.91+273774112+309642944+332884192+344741216+350631456+356326848+364355264
1678.41+373397280+380465440+381331136+371807264+354687776+343966240+353164160
1673.91+377912416+400308640+409754240+410423008+409801824+407811744+401736992
1669.41+396559008+402380480+421461408+444593056+461873856+471577664+477523232
1664.91+481558784+481378496+475838304+470338048+473646272+487955840+505973376
1660.41+519973600+529107168+536221376+542529600+548072384+553191360+556588288
1655.91+554407232+541627072+512903808+467367104+420502272+405319552+441482496
1651.41+507428192+565209152+596398464+604422144+599911424+590666240+579569728
1646.91+567362688+558560768+562791360+583832768+610672128+628560512+634521024
1642.41+635453056+635992320+635739904+634995776+634473664+631688000+624447424
1637.91+614025792+599248640+574682688+543252288+523718624+531922304+558664960
1633.41+581568128+589994432+587950784+582153792+575411776+567674944+557247808
1628.91+542511616+525405248+511024192+502345280+497279936+490568896+476933376
1624.41+455209088+431939200+417342304+414649184+417052128+416501312+411098880
1619.91+403781824+396221024+383621856+357502240+318888544+287469152+285616672
1615.41+309786080+335200704+346349152+346454976+343523712+340034144+335987648
1610.91+332200928+328548320+324570720+321485760+320008160+318549024+316257472
1606.41+314633920+314411200+314236672+313247200+311895776+310364768+308702720
1601.91+307653280+307463328+307294592+306854016+306722112+306799328+306430112
1597.41+305789664+305318144+304652768+303646752+303118368+303508672+304329888
1592.91+305346016+306600928+307510464+307587232+307408480+307594560+308088128
1588.41+309107456+310980128+312889568+313932640+314817248+316342720+317683648
1583.91+318230272+318893248+320005120+320835168+321812512+323747328+325564192
1579.41+326408608+326607744+321805440+302768192+269904320+243944480+248503104
1574.91+280145888+313604576+332391776+338926976+341613056+341707360+334375968
1570.41+319187744+305544032+304893952+317957344+334586752+345456352+348429504
1565.92+345878816+341601216+339615008+341803136+346391808+348868032+342133792
1561.42+318340096+277057920+231481312+199392704+187809184+195390960+222604720
1556.92+263977872+299918944+312085952+302220448+289878880+291951072+307326880
1552.42+323255008+329896896+326434368+318884704+314349984+315655904+320532064
1547.92+324876992+325067488+318268384+304617376+290371552+283843744+284088736
1543.42+279447744+262760800+241748544+226952592+214619936+195233504+176084608
1538.92+179189296+211691280+254283568+285040416+297782272+296714784+285828544
1534.42+268627040+253470752+250544864+260960336+275158880+284561216+288587904
1529.92+289215488+285937568+279464608+273852000+270417088+265265600+257031472
1525.42+251376368+253231568+258426768+257050016+242728896+218140256+195206656
1520.92+188926400+205088672+233098352+254358848+257885808+248421936+240567872
1516.42+243508688+253713424+263816560+270867680+273542176+270149248+263382976
1511.92+259866128+261239824+262148304+258545616+250453056+236242688+212347616
1507.42+181033664+154055408+146032752+163439232+198804768+235769104+260883360
1502.92+271285248+272900128+272965600+273573696+271254432+263445424+254601936
1498.42+251191792+250327216+242900272+230589056+228487824+244363888+266752704
1493.92+281558560+286925152+286875232+281606400+270611328+259242016+255467680
1489.42+261234416+270595520+276606496+278550784+281680192+289807136+300335264
1484.92+308476864+313290624+316728928+319415744+320707264+321471424+323757600
1480.42+328189952+333715904+339313600+343845056+344919616+341185536+336311616
1475.92+336548992+341818912+343799392+336302976+323841696+317372192+324017664
1471.42+342814048+367022432+388109312+400882496+406757088+410548672+414231712
1466.92+415372736+410662688+400451072+391564704+393443072+407261696+423108704
1462.42+432363712+436236960+438390912+437107776+430157632+419062592+402936704
1457.92+377947168+350387968+340379616+360104416+396595104+428131616+445500928
1453.42+451822848+452759264+452095488+452289280+454198272+456109120+454939264
1448.92+449421568+442428288+439334432+442731008+449547296+454776352+456693184
1444.42+456967904+457030816+456571520+455395392+454377152+453758816+452604288
1439.92+450866016+448845088+442740704+425780000+399161216+378396224+379389152
1435.42+398241856+416455200+423037600+421135776+417500672+414006336+409237568
1430.92+402344640+394389216+388544512+387545856+389595264+390089664+387770080
1426.42+384765696+381137376+374934400+367253376+361715264+359561632+359522304
1421.92+359607040+354734464+338240160+312320992+292420224+292286752+307355968
1417.42+322605152+330615296+333889824+335930656+337207744+337513088+337070304
1412.92+335769952+333725696+331814816+330629120+329971488+329690176+329916096
1408.42+330517056+331039200+330753536+328479840+323691264+318494656+316786496
1403.92+319942944+324777856+327408864+327362816+325809312+321782944+313835424
1399.42+304634528+299675360+300715968+303946816+304708224+300770656+292382176
1394.92+283088928+279111456+283464160+291786208+297392512+298315040+296986176
1390.42+295474016+293228640+288055456+278644480+267774912+261973424+264894928
1385.92+272562944+278407968+280352320+280184576+279206848+277704544+276392768
1381.43+275580448+274412608+272396576+270270176+268839072+268258944+268289232
1376.93+268114448+266456640+262770976+257974960+253938256+252651984+255014144
1372.43+259604320+263650112+265699968+266134112+265362944+263602624+262162416
1367.93+262444832+263776608+264414000+264023744+262959696+260345664+255521712
1363.43+250417888+247885440+248297376+250010064+252276464+255420528+258865344
1358.93+261168112+261863456+261772016+261551696+261079648+260261968+259534256
1354.43+259338944+259624176+259993408+260068064+259704208+259086560+258601520
1349.93+258481504+258619568+258800080+258954240+259073424+259084416+258964208
1345.43+258863536+258957632+259246784+259546736+259531008+258720880+256706896
1340.93+253676096+250650128+248898752+248942208+250202192+251680288+252858736
1336.43+253869680+254973680+256088528+256879440+257136352+256928096+256486576
1331.93+256026128+255632592+255261008+254910336+254746320+254882656+255096656
1327.43+255033120+254661520+254274880+254068688+254014160+254056896+254161984
1322.93+254263104+254295344+254085392+253234160+251546880+249597696+248335888
1318.43+248051152+248261456+248581472+249075632+249711104+250080304+249871008
1313.93+249273600+248796384+248816640+249325584+250013648+250549648+250722704
1309.43+250419696+249780816+249340608+249594784+250312176+250653888+250130800
1304.93+249125120+248342448+248059152+248089984+248199408+248262576+248172464
1300.43+247910896+247729904+247944064+248454416+248776128+248678640+248504912
1295.93+248678976+249203856+249779200+250145680+250197632+250019200+249896336
1291.43+250101552+250597168+251066912+251246720+251178560+251172992+251476256
1286.93+251932080+252096592+251796688+251377504+251306240+251713152+252398800
1282.43+253072880+253498384+253598368+253536512+253599200+253956560+254519280
1277.93+255005312+255215360+255294928+255613104+256282944+256959728+257274976
1273.43+257299248+257401152+257780720+258347712+258951584+259473584+259744576
1268.93+259682720+259582336+259963888+261026464+262487696+264017504+265464544
1264.43+266639536+267337088+267675680+268032320+268597376+269382752+270523008
1259.93+272119808+273928864+275607040+277086816+278435552+279633760+280680992
1255.43+281667616+282672864+283878560+285606912+287878784+290161152+291914016
1250.93+293140352+294148096+295109440+296061856+297061632+298193216+299603872
1246.43+301412960+303450752+305361216+307089952+308926048+310951968+312891360
1241.93+314609920+316328960+318273632+320386816+322431392+324216800+325848704
1237.43+327752256+330172128+332732032+334860608+336555744+338290752+340291712
1232.93+342367136+344331616+346191296+347993472+349803552+351712160+353685792
1228.43+355588352+357399872+359164032+360722656+361888640+362888672+364230528
1223.93+366077312+368095840+369934400+371533888+372976800+374304896+375494464
1219.43+376466944+377186944+377784256+378421344+379071872+379672160+380363872
1214.93+381225600+381939072+382142944+381985920+381881664+381877024+381737472
1210.43+381498432+381461024+381695616+381954080+382055040+382056960+381992832
1205.93+381718368+381119296+380323168+379520992+378695648+377739168+376799392
1201.43+376153184+375752320+375229952+374428064+373563328+372786208+371922048
1196.94+370806400+369589568+368569024+367902400+367564704+367412384+367182784
1192.44+366602336+365655136+364705888+364196608+364221600+364507904+364725920
1187.94+364666528+364239744+363568960+363007840+362837504+363039296+363474944
1183.44+364060128+364676576+365265696+366034656+367167904+368369824+369205312
1178.94+369797888+370659552+371944704+373329472+374507776+375468320+376416096
1174.44+377587776+378993568+380393280+381694400+383079584+384590272+386011264
1169.94+387343488+388846400+390544608+392243808+393932896+395597184+396992064
1165.44+398193856+399830048+402160672+404592896+406630144+408523552+410577408
1160.94+412683520+414812288+417123264+419418048+421298240+422821568+424328864
1156.44+425872288+427467552+429482400+432143360+435046752+437667520+439993376
1151.94+442401440+445275712+448850720+453009632+457197088+460907488+464252480
1147.44+467784160+471832448+476243040+480703744+485207232+490119552+495709312
1142.94+501676032+507402688+512712352+518034144+523735072+529682880+535573888
1138.44+541361856+547242496+553452672+560117888+567075328+573938880+580504320
1133.94+586972480+593639744+600588544+607814080+615387776+623336128+631512384
1129.44+639658048+647498176+654892032+662086144+669615744+677691200+685881216
1124.94+693620160+700820608+707840192+715078144+722772864+730928832+739340480
1120.44+747796672+756221504+764528768+772545920+780247936+787794112+795185920
1115.94+802236800+809028544+816045888+823620224+831469504+838949696+845672896
1111.44+851888704+858368768+865744320+873816704+881672384+888572672+894529664
1106.94+899959296+905138624+910233152+915608128+921688064+928398272+935002048
1102.44+940766208+945735360+950590848+955754496+960981760+965933120+970713728
1097.94+975566528+980373376+984867008+989156544+993624320+998295104+1002690368
1093.44+1006463104+1009931904+1013759424+1018267264+1023239744+1028219008
1089.58+1032740864+1036435456+1039285952+1041773504+1044461696+1047445120
1085.73+1050427776+1053245184+1055994368+1058696320+1061182912+1063356416
1081.87+1065318784+1067216704+1069114176+1070986048+1072635008+1073658944
1078.01+1073741824+1073032832+1072011904+1070962432+1069833920+1068591744
1074.16+1067292096+1065705984+1063336384+1060056896+1056315264+1052439616
1070.30+1048157248+1043082176+1037302720+1031143872+1024704896+1017970880
1066.44+1011154432+1004562112+998168896+991584768+984490624+976893696+968856576
1061.94+960234432+950981312+941464384+932002688+922283264+911853952+901024000
1057.44+890534080+880429504+870017920+859000256+847955200+837540864+827653760
1052.94+817555136+806671552+795190208+783820992+772924096+762053696+750547136
1048.44+738381056+726260800+714961408+704619968+694663104+684557184+674503104
1043.94+664912000+655383168+645110080+634259136+623890752+614450944+605480448
1039.44+596754560+588487104+580447040+572118592+563758784+556154304+549340992
1034.94+542514176+535177152+527603168+520245568+513315552+506928768+501204032
1030.44+496064736+491129600+485998208+480699104+475655616+471108352+466867584
1025.94+462765856+459003072+455810688+453142112+450831840+448727648+446617664
1021.44+444434144+442516096+441291680+440738656+440417856+439971840+439435104
1016.94+439120480+439253984+439747808+440479072+441669472+443607424+446097184
1012.45+448664832+451214432+454015520+457256576+461035584+465491424+470528384
1007.95+475766208+481081088+486809152+493209952+500139616+507383968+514935424
1003.45+522825824+530946368+539124096+547278848+555497856+563868416+572224704
998.95+580332416+588358848+596703552+605243392+613289024+620562688+627669376
994.45+635250688+643066112+650351232+656843200+663007872+669224320+675205568
989.95+680486592+685076544+689187328+692629760+695006464+696262272+696612992
985.45+696248768+695456000+694560128+693353664+691087296+687334336+682444288
980.95+677049280+671608832+666351104+661038528+654942976+647635520+639645888
976.45+631821248+624257408+616389056+607932160+599202432+590491136+581564096
971.95+572062976+562243648+552927680+544611008+536922880+529180096+521210784
967.45+513360960+505920320+498835360+491982816+485509792+479752096+474763296
962.95+470093024+465248384+460282592+455702016+451847840+448570080+445472640
958.45+442307328+439200416+436529216+434520256+432996032+431546272+429827616
953.95+427692576+425289120+423117312+421706912+421136512+421010400+420878624
949.45+420552704+420075968+419560288+419064384+418623424+418356224+418378080
944.95+418528480+418462144+418103904+417764672+417708352+417898432+418268256
940.45+418931040+419921088+420884960+421292992+421017984+420555680+420478432
935.95+420814368+421209632+421476992+421618336+421615360+421683616+422367328
931.45+423737088+424863008+424739232+423515392+422309568+422039680+422733312
926.95+423697120+424181088+424080960+423925696+423983680+423802304+422978912
922.45+421890976+421213504+421103904+421198272+421065216+420468160+419505248
917.95+418570400+417949280+417579872+417331808+417187232+416974560+416350656
913.45+415260032+414049152+412995104+412067840+411160608+410238016+409247520
908.95+408137184+406898784+405473248+403814816+402147104+400879904+400141632
904.45+399594688+398786432+397549728+396062848+394679168+393672992+393047360
899.95+392589952+392058464+391240000+390034336+388699872+387797536+387569696
895.45+387545056+387042272+385861280+384251488+382524320+380982816+379909280
890.95+379287936+378817504+378362016+378050720+377804704+377205536+376069312
886.45+374794912+373914272+373510976+373232480+372710272+371851488+370810176
881.95+369800416+368929824+368204160+367616960+367212256+367077696+367202848
877.45+367296896+366901024+365888992+364742816+364071872+363928384+363844384
872.95+363447712+362774592+362022144+361276896+360606976+360196448+360117024
868.45+359992352+359213568+357690304+356152928+355437792+355612576+355978304
863.95+355764128+354726432+353279648+352189056+351902304+352132128+352226496
859.45+351851424+351103968+350180384+349236832+348441248+347898944+347490560
854.95+346807680+345363296+343188416+341208576+340363552+340378784+340263232
850.45+339910624+340029408+340490624+340205760+338701728+336333952+332992512
845.95+328337024+323415072+320489504+320709920+322716672+324069312+323777952
841.45+323073248+323323680+323907872+323348576+321982368+321306112+320965344
836.95+319060224+315525248+312450464+310754048+309258240+307381728+306325792
832.45+306986624+308341376+308524544+306594592+303186144+300066816+298756224
827.96+298969184+298742752+296797888+294454304+294247200+296558784+298698560
823.46+297937344+294485920+290663040+288145536+287167264+287443776+288370720
818.96+288794240+287841920+285858528+283988704+283141248+283412992+284064544
814.46+284095392+283224864+281948128+280636672+279502464+279213152+280206784
809.96+281675712+282605760+283230016+284038240+284473088+284112928+283836640
805.46+284404320+285334080+286117472+286916224+287467008+287030976+285791040
800.96+284950432+285581888
##END=
