##TITLE=octarelline 6 front
##JCAMP-DX=4.24
##DATA TYPE=INFRARED SPECTRUM
##DATE=31/1/2005
##TIME=16:58:6
##SAMPLING PROCEDURE=film
##ORIGIN=Vincent
##DATA PROCESSING=no operation
##XUNITS=1/CM
##YUNITS=ABSORBANCE
##RESOLUTION=2
##FIRSTX=4000.283
##LASTX=800.31372
##DELTAX=-0.64282227
##MAXY=0.23781592
##MINY=-0.0035349547
##XFACTOR=1
##YFACTOR=2.2148333e-010
##NPOINTS=4979
##FIRSTY=0.0053870878
##XYDATA=(X++(Y..Y))
4000.28+24322769+24189292+23484668+22751918+22295330+22039534+21905268+21990128
3995.14+22309396+22624812+22725786+22708406+22811748+23054042+23195248+23031456
3990.00+22644442+22343798+22307980+22343798+22157852+21808596+21628728+21739102
3984.86+21968856+22194262+22386828+22439198+22309044+22195442+22215774+22144734
3979.71+21819112+21480548+21391452+21444506+21465776+21569762+21920042+22382808
3974.57+22633446+22526566+22255376+22145916+22247100+22203718+21737094+21137786
3969.43+20986568+21440372+22096980+22529406+22670924+22678374+22654492+22579178
3964.28+22431042+22251830+22090950+21992256+22070148+22429742+22894164+23035476
3959.14+22669742+22134332+21922170+22189888+22663950+22844026+22362358+21394526
3954.00+20663384+20772758+21574960+22316018+22332922+21551092+20469214+19718938
3948.86+19551306+19758606+20104430+20571846+21120418+21480784+21397478+20872458
3943.71+20120136+19466078+19295042+19811140+20732482+21428792+21487754+21091474
3938.57+20811386+21073990+21810486+22549620+22837878+22593010+22019206+21217178
3933.43+20138202+19063596+18733174+19512232+20706258+21257232+21003344+20742638
3928.29+21148772+22008334+22497128+22006322+20752680+19591086+19143612+19331398
3923.14+19857778+20592162+21186108+21055914+20214366+19500898+19495588+19766162
3918.00+19583888+18897672+18328958+18486224+19423936+20618500+21501460+21967200
3912.86+22243200+22472776+22634392+22666078+22516990+22277480+22169202+22133032
3907.72+21781178+21024608+20086010+18684206+16301107+13554389+11885956+11502662
3902.57+11286477+10955366+11359594+12439277+12954870+12638417+12820283+14507997
3897.43+17181652+19714688+21404686+22112936+22212226+22279962+22270858+21281452
3892.29+18744858+15730317+14365061+15644433+18397150+20813276+22101470+21976894
3887.15+19734286+15376782+11183975+10274631+13170299+17371132+20459648+21892860
3882.00+21896524+20426346+17917630+15975276+16251609+18766450+21968738+24331880
3876.86+25360480+25154832+23735918+21319378+18914310+17944170+18927644+20592636
3871.72+20535826+17196862+11650916+7321056+7172192+11101109+16496513+20597952
3866.58+21767820+19780684+16192097+13829442+14460429+16949868+18784154+19140780
3861.43+19385810+20760238+22831138+24450690+24984484+24398738+23249178+22307152
3856.29+20738270+15490575+4829276-7668845-15285548-15425633-11130890-5082398
3851.15+2645624+11203841+18036290+21765338+23308314+24072508+24699224+25309686
3846.01+25600482+24860906+22867086+20531928+19131104+19021700+19390652+19284302
3840.86+18700610+18090784+16660115+12698645+6748771+2899135+4493982+9651331
3835.72+14052148+16359090+18170528+20208226+21184690+20244952+18578132+18196834
3830.58+19858840+22506468+24515544+25115650+24534596+23320024+22124050+21729886
3825.44+22439316+23568530+24069548+23164382+20191458+15050634+9497474+6612380
3820.29+7880835+11907710+16442062+19697688+19734520+15379019+8742227+4798462
3815.15+6661752+12529845+18561144+22635102+24643480+25248952+25199346+25010292
3810.01+24784208+24263836+22708406+19193066+14187996+10561796+11166226+15311053
3804.86+19662154+21968382+21708260+18237414+11291296+3603775+265793+3640425
3799.72+10802347+17284704+20982908+21970276+21005708+19370348+18745682+19882100
3794.58+21843576+23263252+23831386+24118176+24512112+24883280+24993718+24857000
3789.44+24725378+24802552+24961522+24890498+24489390+23859660+23059600+22274878
3784.29+21962592+22290718+22771664+22950332+22900078+22567234+21474756+19710084
3779.15+18395970+18493538+19781390+21410004+22747424+23514592+23782766+23915030
3774.01+24143618+24375190+24465602+24091436+22484478+19290910+15800775+14269581
3768.87+15601313+18421804+20588266+20989052+20029806+18993022+18917024+19845734
3763.72+21123016+22191546+22857508+22964642+22150996+20192166+17714416+16131763
3758.58+16203293+17075306+17560514+17798270+18684090+20248260+21284524+19896976
3753.44+14410743+5523711-2304597-4721222-3357527-3433598-5809912-5923642
3748.30-785712+6988737+12718525+12966988+6089777-5912921-15770235-15960364
3743.15-7094581+3595696+10954543+14724186+16605892+17799922+18538372+18176542
3738.01+15931207+12088096+7968963+4743866+3137460+3765133+6175949+8123170
3732.87+7685110+5947102+6021193+9220564+13735282+17280458+19236498+19958252
3727.73+19567596+18202616+16616383+15758478+15985762+16879842+17563462+17276922
3722.58+16183967+15466427+16067893+17533746+18681964+19038460+19025596+19193304
3717.44+19805002+20728348+21362270+21173228+20294904+18827460+15898924+10936678
3712.30+5775366+3537269+4831151+7177119+8662985+9884017+11965094+14671783
3707.16+17116334+18883274+19908076+20237630+20183312+19974786+19243936+17499548
3702.01+15160051+13611232+14013772+16166289+18687158+20292070+20788826+20830166
3696.87+20960698+21158696+21077532+20516218+19754708+19247948+18683382+17019188
3691.73+14192588+11745916+10355113+8028343+3039247-2253932-3074451+2001930
3686.59+9465882+15272418+18147762+18962694+18966236+18907230+18980160+19116706
3681.44+19212186+18985706+18091258+16818894+16111140+16039260+14747736+10080665
3676.30+2445858-4469129-6434645-2313703+5290253+12238982+15028845+12335657
3671.16+6128466+838644-225556+2460135+6524781+10715618+14754566+17984860
3666.02+19797800+20508070+20787288+20873636+20842924+20867260+20948294+21007242
3660.87+21147472+21407640+21649644+21799966+21417686+19336000+15185255+11080304
3655.73+10052940+12637710+16616972+19727676+20925494+19817754+16545191+11904770
3650.59+6797324+2061364-1002534-1221435+1033919+4294380+7777689+11591073
3645.45+15563734+19060056+21649290+23172424+23544638+23060664+22485306+22405504
3640.30+22748962+23070008+23061610+22795550+22704384+23207902+24163732+24796042
3635.16+24373770+22976940+21625418+21499334+22746006+24001398+23213694+19089798
3630.02+12196055+5197204+1621733+3253238+8613211+14619621+19250074+22225348
3624.87+24047896+25168922+25773016+25862426+25453896+24564302+22964288+20461186
3619.73+17739418+16192922+16526097+18217830+20506180+22872880+24618626+25174364
3614.59+24808472+24078188+23021168+21909170+21862840+23220438+24257208+23192292
3609.45+20733662+19242048+19817162+21554872+23371828+25188694+27263564+29305404
3604.30+30626022+30887570+30377802+29620284+29050708+28994484+29463670+29917656
3599.16+29872680+29715804+30140774+30878190+30944206+30113474+29209432+29007414
3594.02+29582078+30596580+31586900+32208418+32472792+32404944+31557208+29639390
3588.88+27418586+26087688+25904704+26387364+27470378+29351432+31563504+33278014
3583.73+34287408+34946908+35405380+35510468+35352068+35393004+35993592+36957344
3578.59+37711980+37939208+37867828+37878316+38072428+38369296+38759188+39225476
3573.45+39618396+39760800+39597404+39263268+39003104+38839060+38315784+36964256
3568.31+35016392+33281344+32361458+32436910+33547998+35449176+37399844+38742980
3563.16+39546008+40245808+40941444+41476288+41906680+42442976+43107132+43728016
3558.02+44190820+44509656+44785736+45122132+45466120+45523544+45021912+44125076
3552.88+43465108+43604684+44529864+45751068+46815632+47512520+47705556+47348600
3547.74+46702040+46233256+46220096+46616572+47251740+47980888+48717616+49481468
3542.59+50340352+51242560+52010880+52497604+52639984+52486204+52293656+52402296
3537.45+52824164+53179708+53212500+53130480+53345080+54071816+55196196+56291872
3532.31+56828636+56647932+56123732+55673496+55348992+55105800+55114208+55480276
3527.17+55948148+56193372+56204676+56225364+56518252+57231480+58251844+59141436
3522.02+59458736+59222740+58916800+59043272+59724644+60620088+61222308+61359048
3516.88+61400776+61780808+62456860+63088116+63547656+63887172+64019148+63874616
3511.74+63714268+63851428+64246548+64741516+65408196+66251840+66893160+67044444
3506.60+67014452+67285744+67870408+68478360+69021856+69523000+69819704+69794392
3501.45+69720152+70005856+70700376+71501328+72181592+72750016+73225544+73501576
3496.31+73555576+73626912+74010536+74714616+75444456+75895736+75983928+75894760
3491.17+75974696+76378832+76805640+76864344+76679112+76717520+77073296+77474008
3486.03+77957488+78805096+79778920+80175680+79803024+79275760+79259456+79876672
3480.88+80810840+81616432+82022208+82183320+82456472+82895952+83306144+83691168
3475.74+84164104+84564560+84707824+84760664+84877224+84853040+84662552+84847928
3470.60+85783120+87029208+87940632+88452752+88841112+89167040+89355296+89431024
3465.45+89420256+89291568+89103200+88963040+88870576+88846240+89106752+89801344
3460.31+90692768+91372368+91710840+91868600+91957648+91915384+91727504+91594504
3455.17+91779552+92290104+92808872+93004944+92896488+92786936+92895880+93221136
3450.03+93704976+94265072+94671512+94711864+94534760+94565040+94987248+95542072
3444.88+95913432+96105760+96376808+96908448+97576088+98047240+98157072+98094904
3439.74+98085072+98090112+98007424+97930632+97994264+98216664+98626152+99236968
3434.60+99835656+100149032+100200328+100141160+99916336+99530568+99307648
3430.10+99463552+99782408+100073152+100417808+100725000+100628176+100095896
3425.60+99557616+99342320+99464896+99859640+100334152+100543160+100439944
3421.10+100407728+100688096+101136232+101652552+102259864+102695800+102572520
3416.60+101994400+101426560+101049360+100760312+100658928+100993112+101692304
3412.10+102346928+102625480+102547768+102371552+102267744+102132792+101793872
3407.60+101361696+101174016+101338560+101571800+101566384+101334624+101100904
3403.10+100974048+100865264+100725136+100696456+100917072+101248592+101370184
3398.60+101065600+100352368+99466264+98816904+98717232+99005096+99201304
3394.10+99142912+99167616+99543728+100086544+100486456+100707656+100834384
3389.60+100786168+100411040+99800728+99299896+99164168+99270032+99225888
3385.10+98786424+98116784+97646112+97660232+98016152+98261152+98077816+97580880
3379.96+97204536+97348480+98106576+99136752+99829512+99806752+99285640+98825264
3374.82+98767864+99031160+99281336+99235488+98985192+99038288+99710224
3370.32+100535176+100712824+100091712+99231056+98575760+98107928+97753472
3365.82+97606056+97658640+97705072+97585048+97380168+97319376+97487528+97645864
3360.67+97494768+97122496+96854048+96649240+96167136+95514960+95315312+95772176
3355.53+96243120+96088832+95491888+95112504+95269552+95764688+96284136+96684976
3350.39+96937064+96981640+96757176+96351520+96028072+95987080+96123576+96105272
3345.25+95701368+94980624+94250104+93852216+93955688+94451104+95017200+95336792
3340.10+95326608+95189304+95218640+95478880+95749104+95823600+95756344+95640992
3334.96+95350280+94795024+94300744+94311296+94761664+95142080+95140112+94830728
3329.82+94312888+93640368+93069160+92927976+93188904+93538976+93826824+94109328
3324.68+94323928+94274752+93971760+93726416+93836640+94257832+94626616+94609816
3319.53+94229376+93789800+93553328+93583960+93804392+94027056+94051448+93910696
3314.39+93862272+94021040+94238336+94443264+94744376+95080864+95141472+94788408
3309.25+94248632+93852320+93820824+94251216+95016208+95762960+96184584+96175128
3304.11+95726032+94977560+94367224+94294992+94597056+94737248+94494040+94112032
3298.96+93870608+93844000+94018096+94354464+94723880+94894024+94611528+93817384
3293.82+92894904+92517240+93009112+93964272+94629688+94552536+93867408+93164880
3288.68+92998200+93271640+93299344+92745264+92136368+92018152+92052088+91546992
3283.54+90544168+89703944+89350160+89200928+88943464+88639952+88601056+89024808
3278.39+89664192+89876592+89257800+88173624+87344704+87014304+86864632+86568880
3273.25+86044936+85418440+85053320+85274392+85737096+85563720+84465104+83181392
3268.11+82455256+82194408+82023912+81931536+81848192+81307944+80141224+78945384
3262.97+78323464+78091272+77663936+76851344+75955864+75351896+75121408+74887512
3257.82+74086880+72667296+71347032+70883240+71258072+71795920+71861504+71278192
3252.68+70330744+69530144+69141600+68922344+68505960+67976280+67753176+67996008
3247.54+68389888+68517688+68255560+67812816+67460048+67244976+67012764+66675252
3242.40+66308540+65958212+65577628+65153240+64686920+64094020+63347748+62645448
3237.25+62202636+62001540+61948580+62046536+62187792+62009020+61260524+60159544
3232.11+59181192+58627288+58518668+58720856+58999788+59140232+59180708+59418144
3226.97+59972144+60468572+60394568+59708136+58856828+58225116+57793296+57333048
3221.83+56708448+55985312+55400204+55139092+55114452+55140664+55292608+55721472
3216.68+56161132+56119644+55584160+55037764+54786440+54704344+54617460+54456428
3211.54+54123960+53616524+53200724+53161576+53454492+53773036+53830100+53546980
3206.40+53088444+52685968+52346352+51919664+51446396+51138072+51011272+50918664
3201.25+50885916+51026144+51222160+51255156+51140708+51007552+50803876+50395632
3196.11+49838580+49378988+49209760+49243320+49110296+48536344+47751900+47299872
3190.97+47443196+48040416+48885488+49756576+50195384+49756096+48568448+47371356
3185.83+46874040+47185296+47827472+48218644+48148456+47804832+47427028+47112864
3180.68+46958908+47064500+47341780+47556588+47622932+47626280+47601016+47507852
3175.54+47428464+47554668+47953104+48442300+48720492+48627636+48331008+48195892
3170.40+48378568+48667532+48798740+48781960+48776212+48812152+48833000+48881888
3165.26+49027844+49185552+49224384+49225704+49403440+49778152+50139864+50326204
3160.11+50328720+50132792+49733796+49273520+48915320+48656512+48487584+48554912
3154.97+48907416+49278312+49410392+49368440+49338484+49355616+49367008+49278676
3149.83+48951152+48437988+48114916+48233744+48542456+48688504+48700004+48712584
3144.69+48578152+48118748+47471576+46910552+46544644+46339396+46202144+46034504
3139.54+45875492+45858264+45914620+45755372+45301536+44817068+44482280+44169420
3134.40+43761244+43368324+43084916+42792592+42357108+41900588+41768180+42145616
3129.26+42686880+42745876+42125552+41364436+41022716+40999804+40893948+40712800
3124.12+40747052+40934764+40879744+40445768+39971440+39890452+40354968+41149824
3118.97+41769372+41742272+41098028+40391480+40080584+40055296+39963688+39752688
3113.83+39620064+39621376+39605632+39468372+39267800+39128296+39108500+39125196
3108.69+39030048+38819156+38630808+38437352+37988060+37257020+36689744+36732144
3103.55+37266668+37723300+37683984+37287396+37085500+37455004+38095784+38302196
3098.40+37810400+37118608+36867184+37146480+37552572+37701256+37594864+37571156
3093.26+37854480+38166336+37993304+37304548+36655572+36522916+36856228+37348500
3088.12+37761548+37955408+37912752+37793596+37763336+37798244+37759040+37543996
3082.98+37139100+36685464+36425760+36380040+36226332+35785996+35383724+35414304
3077.83+35825276+36327884+36815736+37214736+37247016+36734048+35942404+35349568
3072.69+35190828+35354920+35550932+35526292+35334696+35341476+35748024+36198352
3067.55+36216208+35909076+35769336+35860036+35738860+35246160+34788680+34698856
3062.41+34781300+34674468+34274444+33722188+33298936+33320692+33778544+34161344
3057.26+34013396+33571068+33460616+33858212+34293000+34270996+33824324+33403788
3052.12+33339950+33492836+33521370+33406642+33432796+33622784+33604116+33137504
3046.98+32473862+32078208+32211746+32775352+33367170+33623616+33631228+33788056
3041.83+34167052+34384464+34166692+33664992+33141786+32713670+32420630+32201884
3036.69+31846556+31310650+30979466+31229546+31833490+32157928+31968436+31694750
3031.55+31814956+32226600+32437980+32241450+31893122+31651630+31514570+31454000
3026.41+31562792+31831588+32081420+32234562+32399480+32630840+32794246+32730902
3021.26+32463764+32230640+32267586+32495254+32568572+32381534+32262006+32489310
3016.12+32944000+33404502+33813620+34042536+33827416+33162350+32469822+32219708
3010.98+32555740+33269814+33956312+34267428+34130064+33662136+33023398+32522942
3005.84+32575226+33205144+33866060+34122100+34175020+34382084+34651868+34710752
3000.69+34643660+34769164+35136924+35467144+35565092+35609484+35921692+36541020
2995.55+37219024+37778228+38189812+38339736+38125220+37780732+37684340+37849956
2990.41+38035492+38198512+38452724+38786964+39204604+39824012+40552792+41070456
2985.27+41369208+41810088+42471404+42990292+43174520+43265324+43493904+43814664
2980.12+44104752+44323872+44511688+44805588+45327732+46000644+46645540+47279640
2974.98+48050600+48914000+49641132+50156768+50650956+51312984+52097892+52797628
2969.84+53313616+53796344+54477460+55348868+56082724+56328320+56118320+55896312
2964.70+56064080+56556024+56992744+57173960+57229076+57372884+57719272+58268096
2959.55+58833336+59120356+59019300+58684004+58278332+57917168+57803164+57995888
2954.41+58119048+57756224+57040152+56404100+55953200+55556984+55290684+55314728
2949.27+55532696+55705364+55685884+55408144+54928020+54537784+54530216+54838112
2944.13+55137896+55259672+55296936+55440364+55830540+56458108+57099240+57476380
2938.98+57504784+57369992+57411276+57858420+58526740+58903440+58732180+58333600
2933.84+58123620+58067884+57930164+57755384+57777404+58048020+58457860+58960404
2928.70+59525000+59953468+59975400+59610904+59262500+59264428+59405616+59177452
2923.56+58500120+57863952+57676416+57806656+57876472+57678104+57205612+56579724
2918.41+56012732+55613984+55239712+54727668+54167692+53746732+53413420+52950116
2913.27+52364480+51984840+52046040+52252848+51997320+51078808+49976808+49230256
2908.13+48811076+48371384+47849148+47471576+47299032+47122800+46782592+46329828
2902.99+45908756+45651300+45652496+45870232+46040608+45869156+45383708+44986632
2897.84+45026700+45396384+45690060+45683360+45474616+45217576+44912616+44477376
2892.70+43909084+43318496+42855068+42577224+42434500+42397356+42512248+42768816
2887.56+43038084+43204988+43250156+43171412+43006780+42917780+43043696+43271536
2882.42+43353628+43239160+43152536+43351236+43888888+44528668+44867052+44686016
2877.27+44186036+43769852+43620456+43613172+43566444+43455912+43391024+43446352
2872.13+43538724+43494624+43244772+42837024+42296676+41645088+41008160+40478572
2866.99+39994940+39603728+39583812+40013308+40478216+40550048+40257976+39823776
2861.84+39350320+39041732+39179324+39593592+39679104+39220820+38648452+38288136
2856.70+37989848+37711744+37795028+38344624+38877808+38906772+38472992+37934320
2851.56+37590336+37587240+37849840+38029528+37820048+37346120+36984620+36881720
2846.42+36914348+36990452+37043456+36843848+36182404+35235328+34484500+34231152
2841.27+34327256+34381016+34151588+33751788+33479638+33460020+33549542+33606492
2836.13+33617552+33491524+33060836+32469822+32209964+32512840+32992492+33138102
2830.99+32907988+32595784+32363238+32144976+31867938+31553284+31276930+31137510
2825.85+31205438+31426800+31642608+31781338+31951334+32220538+32395796+32221132
2820.70+31784910+31468842+31460172+31552100+31493190+31297352+31144278+31164826
2815.56+31363618+31608278+31693918+31545330+31301272+31124808+31047626+31058192
2810.42+31150812+31220400+31110202+30879138+30828086+31137748+31614690+31931016
2805.28+31995166+31954896+31922106+31908804+31980198+32181450+32326642+32178006
2800.13+31858080+31746776+31956442+32246202+32378090+32207110+31611484+30762074
2794.99+30207000+30248660+30518942+30593256+30634094+31012712+31691900+32360506
2789.85+32808392+32886712+32505710+31906664+31598780+31839786+32385814+32809108
2784.71+32936392+32954694+33126216+33420550+33545858+33373358+33127640+33043130
2779.56+33089484+33135250+33161042+33243658+33501394+34017084+34669588+35163340
2774.42+35339096+35306372+35241756+35266148+35454884+35729936+35832416+35661616
2769.28+35478452+35556052+35829796+36065728+36195136+36327528+36613060+37133500
2764.14+37793720+38362148+38717468+38953868+39180996+39383228+39543380+39708916
2758.99+39909052+40165280+40536564+41024628+41500400+41885544+42280076+42768696
2753.85+43217176+43441208+43508964+43721684+44299364+45187312+46136688+46892476
2748.71+47346808+47614308+47938256+48436548+48965172+49338240+49627108+50098256
2743.57+50883164+51848264+52817436+53818808+55017208+56366088+57482040+58041880
2738.42+58290492+58866944+60063612+61541992+62839616+63877272+64850116+65903944
2733.28+67051332+68268264+69568528+70993016+72499928+73920720+75158320+76358168
2728.14+77733976+79309960+81002200+82790240+84672440+86631432+88700840+90880176
2723.00+92998464+94901248+96703024+98610056+100656480+102811192+105127376
2718.50+107589744+110073256+112571064+115189808+117892344+120554120+123264688
2714.00+126235024+129438960+132617632+135612800+138503584+141506272+144819824
2709.50+148439024+152119088+155682304+159248208+162975424+166752000+170411408
2705.00+174049328+177807744+181560944+185150112+188782304+192809856+197159696
2700.50+201364432+205211472+209023536+213177728+217587552+221870656+225886544
2696.00+229898592+234227680+238882224+243582800+248095568+252432752+256686176
2691.50+260820160+264815280+268885312+273280224+277950944+282684128+287461792
2687.00+292391520+297369856+302133568+306605664+310956288+315388928+319995904
2682.50+324680096+329176288+333354592+337510272+342088768+347135904+352257728
2678.00+357070784+361462848+365546208+369605568+373963488+378675488+383473120
2673.50+388137088+392739456+397395072+401981088+406265312+410219552+414140192
2669.00+418438592+423227680+428131392+432693152+436938432+441243264+445710432
2664.50+450102912+454388192+458845888+463544192+468211232+472733888+477304320
2660.00+481933824+486312672+490299680+494148480+498153760+502427584+507045920
2655.50+512007008+516990240+521504832+525402272+529074464+533076672+537626432
2651.00+542445696+547090048+551436096+555754816+560259648+564834752+569327488
2646.50+573795072+578228672+582366720+586122048+589918336+594242624+598990208
2642.00+603584768+607711360+611689728+616036800+620851200+625783040+630515776
2637.50+635038848+639440704+643690496+647747776+651706368+655714368+659864384
2633.00+664159872+668494976+672716672+676838400+681059584+685505664+690101120
2628.50+694767104+699474176+704030144+708137088+711812096+715487168+719553408
2624.00+723985536+728465344+732715584+736682688+740542784+744514816+748632000
2619.50+752758592+756825984+760900288+764981824+768932928+772707008+776475648
2615.00+780438080+784630592+788976768+793370624+797626112+801519488+805026816
2610.50+808410240+811966976+815755072+819662720+823616704+827578624+831429696
2606.00+835019392+838333248+841516096+844747904+848145216+851704576+855284224
2601.50+858707584+861968256+865249984+868644352+871963584+874978304+877795712
2597.00+880788096+884101632+887437696+890400384+892940736+895373952+898057344
2592.50+901098176+904298432+907361216+910159680+912775296+915293312+917764224
2588.00+920356736+923273024+926397760+929317312+931780544+933925632+936004928
2583.50+938159936+940477952+942942272+945324992+947446528+949496000+951756352
2579.00+954084928+956075648+957729408+959538816+961817280+964302016+966546048
2574.50+968404800+969990272+971396288+972723648+974219264+976156032+978537856
2570.00+981009920+983095360+984565760+985665216+986875328+988373568+989882752
2565.50+991192128+992545152+994221888+996028800+997575872+998846016+1000091136
2561.00+1001360192+1002552448+1003756160+1005137344+1006583488+1007792320
2557.15+1008678208+1009443456+1010315136+1011366592+1012556352+1013807552
2553.29+1015046208+1016237120+1017371008+1018399936+1019229120+1019860864
2549.43+1020513664+1021479488+1022774464+1024061056+1025015360+1025698688
2545.58+1026438720+1027448384+1028663488+1029871616+1030905280+1031739072
2541.72+1032456448+1033119488+1033762048+1034517632+1035552448+1036775104
2537.86+1037852416+1038626240+1039284544+1040022016+1040780992+1041450368
2534.01+1042122944+1043038400+1044341248+1045880448+1047198272+1047897152
2530.15+1048101248+1048351232+1048977920+1049852160+1050783104+1051801152
2526.29+1052905216+1053872448+1054526144+1055018048+1055657088+1056548864
2522.43+1057536000+1058424832+1059191360+1059922880+1060634432+1061248448
2518.58+1061767872+1062292160+1062834112+1063273664+1063587712+1063994816
2514.72+1064749248+1065840832+1066991744+1067931584+1068603648+1069142080
2510.86+1069716480+1070427264+1071235840+1071908416+1072159616+1072011264
2507.01+1071874624+1072078016+1072438016+1072564800+1072443264+1072442304
2503.15+1072799744+1073353472+1073741824+1073706880+1073301824+1072903104
2499.29+1072875968+1073154880+1073317376+1073130880+1072831744+1072736960
2495.44+1072750080+1072432640+1071563392+1070479616+1069721856+1069407040
2491.58+1069156224+1068641216+1067921600+1067184384+1066463424+1065752448
2487.72+1065115648+1064568192+1064038272+1063474304+1062782912+1061727616
2483.87+1060158592+1058286016+1056493248+1054979008+1053754752+1052759424
2480.01+1051780032+1050495680+1048850176+1047192896+1045846848+1044712896
2476.15+1043451584+1041867840+1040008640+1038032000+1036093952+1034248576
2472.29+1032408128+1030504320+1028658048+1027036032+1025542784+1023819904
2468.44+1021644736+1019201408+1016859392+1014745920+1012647040+1010341312
2464.58+1007900800+1005599360+1003577280+1001705792+999776384+997730048
2460.72+995653376+993632576+991682496+989774080+987827008+985714304+983377920
2456.22+980932352+978548672+976259328+973987584+971771136+969784768+968097024
2451.72+966521984+964798528+962850432+960825152+958917632+957174400+955477568
2447.22+953703232+951859648+950022592+948231232+946547136+945091328+943836480
2442.72+942462016+940682624+938663680+936839744+935361472+933990464+932512576
2438.22+930971392+929502976+928176512+926983616+925827136+924595840+923365376
2433.73+922375040+921680960+921017600+920111360+918959872+917720384+916501888
2429.23+915345728+914253056+913229952+912347712+911695552+911191872+910593984
2424.73+909740608+908690176+907646208+906842560+906378112+906039168+905466880
2420.23+904596864+903684608+902873856+902106304+901448768+901050816+900728640
2415.73+900078912+899045440+897961728+897029440+896161152+895326208+894661248
2411.23+894215616+893837504+893355264+892730176+892013632+891235008+890334848
2406.73+889254592+888080576+886993024+886066176+885200512+884274496+883252992
2402.23+882162752+881014464+879780352+878463296+877201536+876183296+875391680
2397.73+874572736+873523072+872226688+870724288+869089600+867524544+866184320
2393.23+864926720+863517504+862006336+860620224+859375616+858073536+856556800
2388.73+854779392+852772672+850700864+848790848+847073920+845361280+843519232
2384.23+841632640+839839168+838124544+836330176+834350272+832268736+830225088
2379.73+828176448+825960640+823621696+821414144+819405760+817338176+815009088
2375.23+812560384+810223872+807966720+805552448+802866112+800059136+797389632
2370.73+794979968+792722112+790387136+787798336+784920000+781839424+778711232
2366.23+775713344+772986304+770545984+768220928+765778432+763162496+760508096
2361.73+757884032+755220160+752569152+750180800+748114496+746048384+743716096
2357.23+741307200+739204992+737476160+735847488+734077120+732163008+730203520
2352.73+728188416+726025984+723779904+721720768+719980544+718265216+716113728
2348.23+713382272+710278656+707039168+703780736+700616192+697685888+695056576
2343.73+692640128+690226752+687633984+684908928+682255616+679703552+677032704
2339.23+674142720+671246272+668564608+666063680+663614080+661194368+658826880
2334.73+656504448+654230976+651973440+649584832+646961920+644247104+641715904
2330.23+639503360+637512256+635507584+633269888+630772608+628228864+625864576
2325.73+623669568+621479872+619248640+617094144+615108800+613236416+611340608
2321.23+609339520+607226560+604987456+602562304+599966272+597410624+595158656
2316.73+593232704+591344448+589186432+586752064+584328192+582178752+580248192
2312.23+578232704+575930944+573419776+570881408+568407616+566024064+563764608
2307.73+561645888+559665280+557815168+555985984+553928640+551498176+548886656
2303.23+546440832+544261696+542148160+539898240+537522624+535156384+532865952
2298.73+530609632+528342144+526090688+523879424+521655680+519356416+517012160
2294.23+514703744+512442528+510159872+507796608+505375456+503010784+500825664
2289.73+498814272+496824480+494718752+492504768+490280000+488118720+486036352
2285.23+483990624+481886624+479646560+477283872+474901024+472631968+470548800
2280.73+468566176+466503872+464325120+462187136+460176704+458186688+456146624
2276.23+454133408+452155168+450118112+448091104+446286208+444679552+442975904
2271.73+441029440+438982400+436953312+434887392+432748928+430611136+428539648
2267.23+426539072+424593184+422670240+420740352+418816416+416869504+414797024
2262.73+412607840+410511648+408631520+406804416+404862624+402903648+401077920
2258.23+399357824+397677152+396040896+394335136+392337952+390076320+387877120
2253.73+385954112+384193504+382422976+380601088+378710624+376719104+374694240
2249.24+372748384+370920352+369227680+367709728+366271072+364679232+362859264
2244.74+360998272+359256160+357585728+355919456+354278016+352639904+350937088
2240.24+349228576+347620160+346052480+344377344+342583328+340718688+338729824
2235.74+336637088+334705568+333153728+331823552+330417600+328912512+327481888
2231.24+326127680+324662016+323007264+321313216+319749920+318282528+316711424
2226.74+314955104+313222624+311772704+310535328+309190976+307622112+306025600
2222.24+304562016+303176064+301809632+300489120+299156160+297660864+296004480
2217.74+294368704+292878080+291489920+290138656+288812416+287452864+285944544
2213.24+284267904+282594752+281133056+279897696+278707136+277419968+276050400
2208.74+274644512+273203104+271789760+270558368+269560288+268608640+267418944
2204.24+265881216+264181296+262642272+261379824+260176512+258797680+257332816
2199.74+256022880+254907008+253862960+252810176+251661360+250310688+248870864
2195.24+247660704+246776528+245961248+245008432+243969520+242914640+241817728
2190.74+240689072+239537952+238281120+236907856+235600528+234477792+233395328
2186.24+232165200+230814768+229525280+228429536+227482992+226480336+225295952
2181.74+224092384+223104432+222274464+221366064+220355152+219385040+218416720
2177.24+217258592+215902592+214555344+213376976+212364688+211455936+210614624
2172.74+209800560+208897408+207764672+206432848+205138672+204055040+203126000
2168.24+202286704+201609776+201072784+200444336+199581312+198595040+197603296
2163.74+196608448+195652208+194795312+193953344+193003408+191986656+190988096
2159.24+189978560+188967888+188098448+187396048+186649824+185703296+184688528
2154.74+183836928+183179296+182534480+181741104+180835648+179973040+179213472
2150.24+178508496+177867632+177334944+176786960+176012384+175031520+174092352
2145.74+173321040+172614736+171874624+171106848+170287488+169334688+168256400
2141.24+167217136+166411232+165875952+165438960+164898960+164243216+163597600
2136.74+162991680+162311552+161487376+160583856+159720480+158982288+158363984
2132.24+157757920+157088960+156446080+155954896+155552592+155027968+154260848
2127.74+153332352+152463792+151870400+151532224+151148672+150477312+149621008
2123.24+148815232+148112160+147495264+147052672+146792416+146490000+145960864
2118.74+145288992+144643920+144052400+143452496+142814192+142171168+141614304
2114.24+141207088+140860576+140414800+139859312+139288928+138715072+138127968
2109.74+137629152+137245808+136780048+136108960+135446880+135033008+134772240
2105.24+134418576+133920336+133352944+132719040+131998200+131249752+130540328
2100.74+129913696+129456176+129231704+129121608+128861856+128298168+127525296
2096.24+126788528+126273048+125965432+125705352+125376256+124985464+124556880
2091.74+124058024+123496704+122974240+122544840+122135432+121681984+121248768
2087.24+120926400+120679288+120383344+119988080+119565792+119194896+118831896
2082.74+118343936+117671544+116925696+116309120+115949120+115776152+115554120
2078.24+115076024+114369936+113675016+113197368+112951976+112800200+112541232
2073.74+112006464+111256936+110626432+110364160+110306920+110118520+109756440
2069.24+109440656+109253928+109045592+108661736+108073304+107351088+106679136
2064.75+106268840+106108936+105934000+105535832+104960664+104360632+103835488
2060.25+103497976+103469400+103686624+103834744+103620944+103055576+102400120
2055.75+101849264+101390856+100962488+100617352+100402672+100205368+99854584
2051.25+99339976+98795760+98329848+97995144+97812328+97710472+97537272+97248504
2046.10+96958672+96724640+96422480+95937376+95323168+94696904+94124912+93669672
2040.96+93389184+93232424+93097592+92971376+92860456+92624208+92134032+91542216
2035.82+91114504+90820312+90384560+89740528+89150904+88857992+88840256+88916072
2030.68+88899320+88699984+88422432+88292944+88360912+88403960+88234144+87907992
2025.53+87527032+87065368+86536152+86123456+85954320+85883624+85679704+85338728
2020.39+85063824+84923472+84678288+84065664+83224080+82654192+82656752+82968128
2015.25+83070176+82740384+82152608+81607656+81325128+81355944+81514936+81498128
2010.11+81192336+80746912+80297920+79822504+79330528+78963152+78778320+78651672
2004.96+78472480+78267152+78066704+77865064+77732512+77750272+77796720+77617600
1999.82+77152928+76624064+76263144+76099344+76017952+75906664+75723224+75498144
1994.68+75265432+74937056+74350640+73538344+72866704+72690336+72870104+72889640
1989.53+72510112+72047608+71897032+72074408+72377688+72682696+72859544+72719816
1984.39+72299944+71930616+71834952+71907216+71958488+71885032+71577952+71007688
1979.25+70409360+70083504+70040496+70060608+70004776+69881352+69733472+69604368
1974.11+69524936+69465120+69375752+69236760+69014952+68684608+68321152+67996360
1968.96+67597224+66974664+66249788+65763624+65739692+66128412+66674036+67063072
1963.82+67138424+67013728+66868728+66729424+66571148+66449504+66359920+66175200
1958.68+65859104+65557804+65382212+65283740+65176192+65016592+64809292+64637996
1953.54+64594268+64604532+64461652+64091244+63643524+63319740+63208092+63251912
1948.39+63294152+63175988+62833344+62352728+61975484+61948704+62141840+61967404
1943.25+61069052+59986004+59640784+60194732+60953788+61380996+61616168+61930860
1938.11+62187680+62082124+61635948+61215672+61131992+61326124+61496288+61457100
1932.97+61290316+61146460+61048432+60930036+60740400+60470020+60155572+59875868
1927.82+59699820+59644640+59724644+59956236+60193044+60065784+59330560+58316140
1922.68+57726728+57903800+58550820+59191908+59407420+58639328+56653468+54485512
1917.54+53929932+55438920+57459656+58435464+58439912+58364780+58507344+58630420
1912.40+58636320+58539740+58269304+57888632+57631044+57567368+57591440+57712052
1907.25+57989268+58231136+58120852+57658000+57233284+57225704+57616240+58061144
1902.11+58299280+58362736+58374536+58322880+58117484+57745508+57355436+57232444
1896.97+57499132+57782704+57574712+57033300+56852096+57199228+57528860+57542460
1891.83+57431372+57060732+55998052+54567948+53865292+54414012+55621192+56700384
1886.68+57357720+57581456+57452312+57214992+57103328+57116564+57156876+57218248
1881.54+57313072+57397316+57433296+57421020+57386356+57400080+57536200+57771392
1876.40+57997100+58108212+58057408+57864560+57602276+57339308+57121016+56889392
1871.26+56245568+54579848+51930948+49523784+48793464+49908592+51858216+53738324
1866.11+55256540+56309192+56825028+56970484+57038712+57143876+57223300+57230520
1860.97+57219212+57277568+57379864+57369756+57205968+57076256+57086844+57093580
1855.83+57055436+57212712+57674008+58152516+58305180+58079316+57681836+57404412
1850.69+57389852+57421264+57148568+56567216+56086088+56102088+56422144+55822600
1845.54+52706740+47318432+43013828+43438584+48094552+53055780+55775468+56730100
1840.40+57128352+57324144+57405612+57533792+57528256+57206936+56911892+56985048
1835.26+57231240+57355800+57361088+57308260+57100688+56367776+54486232+51463440
1830.11+48882968+48801968+51366732+54667452+56826352+57044004+55374716+52931744
1824.97+51704980+52729192+54899652+56536420+57236056+57543904+57806296+58017680
1819.83+58108816+57927276+57378060+56711816+56330252+56373188+56727700+57211024
1814.69+57570616+57595412+57322100+56884584+56212492+55227448+54316924+54173696
1809.54+54955064+55945380+56379800+56374868+56607996+57266860+57913796+58249192
1804.40+58241248+57622732+56163056+54408608+53235072+52697256+52241324+51903824
1799.26+52307824+53536888+54858552+55543400+55484844+55181652+55157012+54902536
1794.12+52794504+48177684+43300336+41657744+44096508+48280700+51975112+54688244
1788.97+56443316+57137260+57177932+57089128+56467852+54754108+52801828+52249128
1783.83+53440804+55163016+56116160+55792536+54554848+53527640+53671176+54661204
1778.69+55481120+55851460+55966428+55564560+54656280+54100648+53708168+51118756
1773.55+44861196+37647408+34463208+37231888+43271420+48679400+51032388+49992028
1768.40+47551560+46936408+49483508+53195804+55449380+55897156+55779192+55357768
1763.26+53444048+49649764+46095172+45760044+48999208+53058908+55346592+55514184
1758.12+54220316+51976792+50051140+50359656+52976532+55663272+56859800+56776780
1752.98+55044856+50477540+44458248+41390460+43371308+47305380+49585876+50251504
1747.83+51159540+52843132+54611328+55922296+56487812+56156088+55367628+55119020
1742.69+56045196+57384916+57043404+53666492+49124908+47542820+50537980+55305112
1737.55+58556720+59284060+56754644+49276160+37286684+26155554+23038314+29882174
1732.41+41576560+51289468+55605560+55614340+54855184+55841720+58174548+60005168
1727.26+60462420+60143272+59902252+59866584+59655964+59172272+58857188+59178060
1722.12+60061320+60899656+60909300+59233944+54807828+47007876+37604160+31588326
1716.98+33133350+39994104+45954340+48562584+50545056+54293132+58587664+61530176
1711.84+63058788+63600176+63241408+62819580+63362364+64229636+63815568+61816744
1706.69+59413320+57852880+57690984+58736876+60547760+63080516+65386684+63602592
1701.55+53621684+37785020+26943018+30819774+46310440+61720500+68201952+63639176
1696.41+52759804+46084524+51894104+66639580+80179816+87704728+91300128+93936080
1691.27+96052256+97636768+99896896+103437856+107351720+111163424+115047512
1686.77+117007344+113031584+102433120+91863704+90817376+101374496+116891464
1682.27+130593672+140028144+145693200+149354224+152996336+157608688+162814384
1677.77+167474512+169885472+168475200+164371456+162739088+168355488+179317088
1673.27+188986160+193771168+195607904+197413808+198889936+198636800+198452384
1668.77+202312864+211073488+221156448+229049856+234530880+239104544+243060160
1664.27+245205904+245301664+245770448+249872544+257930464+266888048+274049184
1659.77+279386816+284039200+288497888+292818112+296956832+300223232+301331744
1655.27+298783040+290771712+277005120+263234672+261305472+277224256+301906688
1650.77+322070944+332566336+335478624+334557568+332179456+329120000+325790976
1646.27+324138720+327496832+336459488+346532192+352839040+355076832+355952128
1641.77+356817408+357189504+357064992+356744896+355418976+352321952+347826176
1637.27+341424960+331252736+318654528+310672768+312797760+320885664+326428896
1632.77+326024768+321742912+316221632+310417536+304359840+297481664+288966432
1628.27+279217856+270128096+263130832+257750272+252116928+244195072+233439856
1623.77+222222624+214309168+210754496+208889088+205860032+201208128+195976880
1619.27+190564672+183351760+171786064+156614064+144768400+143633584+151121152
1614.77+158249328+160208416+158776848+156795616+154878096+152971792+151394992
1610.27+149969072+148398176+147146256+146475264+145682864+144356432+143115520
1605.77+142470416+142191536+141999280+141791584+141361328+140728576+140258256
1601.27+139973168+139533872+139048768+138911264+138956800+138770256+138471728
1596.77+138270176+137868128+137156192+136719152+136948992+137455408+137838304
1592.27+138194288+138649216+139137472+139660512+140220720+140753200+141437424
1587.77+142560768+143954544+145200272+146245920+147167680+147793680+148195488
1583.27+148842224+149825728+150850896+152011840+153443072+154657264+155416864
1578.77+155887552+154487552+148159184+137579888+130305368+133925624+146018768
1574.27+157630240+164061728+166779728+168267488+168385264+165608736+160322320
1569.77+155980032+156351792+161478864+167811488+172098800+173478592+172717360
1565.27+171275840+170715616+171660800+173290656+173854672+170868240+161797184
1560.77+146806000+130750728+119831912+116145424+118904416+128276192+142274112
1556.27+153822624+156681264+152098112+147517072+148763408+154613008+159901152
1551.77+161206672+158721824+155111728+153248064+154019984+156049536+157416704
1547.27+156925744+153908992+148482144+142690368+139407632+138328880+135339552
1542.77+128001696+119235880+112816536+107197160+98903680+90823736+91084384
1538.27+101828576+115444280+124166360+126561000+124750672+120103512+113398584
1533.77+107369368+105725280+108802688+112988864+115325784+115908576+115461136
1529.27+113594256+110583512+108116784+106688384+104695336+101583360+99474008
1524.77+100086792+101759896+101000256+95814872+87317328+79632008+77879416
1520.27+83950984+93933256+101191616+102063112+98656504+96410944+98299112
1515.77+102497648+106199008+108514360+108998640+106959800+103517816+101414744
1511.28+101462240+101689224+100465040+97618336+92513696+83985264+72940696
1506.78+63573376+61078456+67600608+80034568+92331512+100218288+103492072
1502.28+104497600+105281272+105948680+105128848+102239664+99223680+98408864
1497.78+98502392+96164192+92251392+92307864+98769952+107169752+112671336
1493.28+114992856+115587472+114350232+111086120+107795328+107281712+110076720
1488.78+113998536+116756864+118398064+120905880+125390344+130544944+134513232
1484.28+137086240+139168592+141166496+142939152+144694256+146920256+149720160
1479.78+152859472+156170272+159244288+161100592+161254624+161094880+162715712
1475.28+165788944+167401584+165892864+163277840+163193504+167495008+175395984
1470.78+184560768+192349408+197354480+200265936+202639696+204931056+206186032
1466.28+205272320+202410960+200149056+201772192+207309424+213015104+216166576
1461.78+217610256+218614000+218404816+216344832+213130944+208194816+199893456
1457.28+190696832+188212048+196557408+210328080+221622016+227716752+230088096
1452.78+230528960+230038544+229579280+229872816+230538832+230361216+228692576
1448.28+226425760+225399936+226614288+229207200+231439632+232345872+232170352
1443.78+231544592+230793584+230113600+229753632+229523952+228774272+227370752
1439.28+225619824+222428272+215450400+205102208+196933408+196376144+201505504
1434.78+205735152+205944160+203833664+201537632+199170256+196104880+192203344
1430.28+187888016+184263264+182344224+181488912+180019776+177592256+175141536
1425.78+172703072+169446176+165629712+162425952+160181680+158482560+156800800
1421.28+153500320+146336080+136201168+128594016+128165640+132949296+137591664
1416.78+139674304+140106480+140001168+139576160+138972240+138379040+137742384
1412.28+137109056+136745216+136595104+136281968+135787152+135527888+135739808
1407.78+136185008+136332224+135541920+133553240+131252632+130340336+131483592
1403.28+133329040+134124600+133586776+132278624+130001992+126331024+122328872
1398.78+119989576+119808552+120325952+119970176+118003672+114352344+110111464
1394.28+107591960+108106512+110215800+111508072+111176416+109930352+108440248
1389.78+106672472+104090088+100260216+95961784+93303744+93511160+95245128
1385.28+96398664+96486192+96192312+95851216+95484640+95283176+95108592+94430264
1380.14+93264520+92305536+91951528+92013016+92241344+92362624+91897624+90647224
1375.00+89135128+88205416+88452008+90000048+92375608+94700456+96381352+97372688
1369.85+97724848+97500168+97177752+97305864+97690448+97741568+97401536+96841040
1364.71+95672776+93578208+91360856+90230480+90298648+90802200+91442168+92454880
1359.57+93678368+94498688+94625760+94302592+93867168+93523416+93390040+93411008
1354.43+93328384+92978840+92509520+92108920+91708160+91173152+90649192+90403776
1349.28+90400952+90349072+90152528+89948792+89756568+89477016+89245456+89352248
1344.14+89767216+90109696+90091224+89666640+88828152+87665384+86600032+86173896
1339.00+86516120+87211632+87702408+87735160+87487432+87352880+87548784+87912632
1333.86+88096000+87906776+87474480+87125608+87092984+87296920+87477536+87498792
1328.71+87402128+87256960+87148704+87186824+87328208+87389792+87414592+87673808
1323.57+88128032+88347360+88151744+87780264+87317328+86587088+85728424+85173928
1318.43+84951424+84679752+84288184+84107984+84218160+84277208+84037112+83626896
1313.29+83349680+83456992+84004408+84730032+85181984+85073224+84495496+83834608
1308.14+83525296+83749712+84265000+84622040+84618488+84468280+84521968+84893816
1303.00+85348496+85533688+85349216+85057488+84978392+85165624+85436264+85604864
1297.86+85611456+85551752+85630624+85989976+86578168+87222624+87755088+88029384
1292.72+88011768+87937944+88181448+88815672+89478976+89833032+89995768+90341728
1287.57+90981424+91666264+92157800+92485144+92804216+93226160+93832720+94663536
1282.43+95597672+96414488+97052744+97650288+98316696+99035952+99782528
1277.93+100561616+101370800+102256536+103325984+104573904+105800408+106810576
1273.43+107596656+108292392+109086496+110189720+111703792+113461880+115120888
1268.93+116469600+117618560+118886664+120516208+122448048+124404328+126212848
1264.43+127995208+129947048+131997568+133887320+135606176+137561968+140128688
1259.93+143151488+146153120+148960640+151823936+154933872+158155824+161287008
1255.43+164302944+167323168+170547056+174170784+178139072+182095568+185781312
1250.93+189350560+193093568+197019744+200907856+204636032+208288400+212048624
1246.43+216073008+220437952+225163008+230236208+235553744+240889792+246096896
1241.93+251302256+256740656+262439696+268215856+273915680+279540480+285219712
1237.43+291156896+297448896+303883552+310061312+315806144+321354976+327131936
1232.93+333422816+340214176+347179104+353865184+360041824+365891264+371770944
1228.43+377865664+384114304+390353248+396425696+402277792+408057472+414015040
1223.93+420189728+426315008+432124576+437597344+442803296+447699552+452251808
1219.43+456605376+460914176+465112000+469051456+472772000+476406144+479892992
1214.93+483002912+485613696+487788448+489650528+491313216+492868960+494291872
1210.43+495428480+496189568+496641120+496818176+496584256+495798272+494503360
1205.93+492907616+491179872+489245728+486787360+483600320+479944352+476289952
1201.43+472690304+468764480+464338912+459699264+455103456+450390432+445208768
1196.94+439432352+433291168+427194912+421384896+415725184+409962240+404057632
1192.44+398061472+391848960+385347296+378866848+372825568+367260416+361891840
1187.94+356528864+351211488+346041024+340971968+335789696+330394112+325078592
1183.44+320230144+315778944+311355424+306920512+302747776+298879008+295127168
1178.94+291507296+288185920+285149280+282297280+279652896+277235296+274974240
1174.44+272845600+270834656+268792032+266638784+264523376+262540720+260560224
1169.94+258559792+256806768+255516176+254597296+253764816+252714736+251334656
1165.44+249922064+248929920+248367248+247816896+247078784+246363152+245835376
1160.94+245425376+245072272+244815632+244662688+244582592+244504480+244262208
1156.44+243769680+243281904+243209664+243657040+244334736+244901168+245252640
1151.94+245570720+246173232+247284688+248890528+250781648+252660864+254290432
1147.44+255726960+257331632+259411808+261970880+264900464+268112528+271363104
1142.94+274323104+277000288+279789184+283006784+286639008+290534400+294567360
1138.44+298640000+302757600+307052000+311614208+316433952+321590176+327265632
1133.94+333426720+339693856+345725120+351649376+357927936+364788480+371982432
1129.44+379210976+386544032+394178944+402022272+409899840+417992064+426634368
1124.94+435787616+445102720+454422240+463833216+473330560+482803360+492385952
1120.44+502502240+513399008+524688576+535591264+545771584+555768768+566329664
1115.94+577475968+588597824+599323648+609806848+620222848+630481728+640491712
1111.44+650360256+660278272+670337728+680395520+690097088+699197376+707829568
1106.94+716260288+724523392+732527168+740324544+747995904+755471552+762718400
1102.44+769840576+776842176+783555200+789897024+795910080+801550272+806735616
1097.94+811594112+816399744+821288000+826159872+830787712+835031872+839114688
1093.44+843490176+848231808+852837120+856989056+861065152+865440640+869749248
1088.94+873374016+876356672+879291584+882515264+885779584+888658752+890991808
1084.44+892889984+894376320+895232384+895384448+895257152+895403264+895804864
1079.94+895840256+894895296+892763136+889597504+885770944+881704960+877575168
1075.44+873177344+868181440+862484416+856298752+849916736+843432320+836638592
1070.94+829144320+820611328+810983488+800522816+789492608+777824192+765366784
1066.44+752454464+739725248+727240896+714371776+700766272+686839488+673072064
1061.94+659479488+646048192+633009728+620313280+607412672+594012736+580639360
1057.44+568048256+556282432+544653376+532628064+520456928+508767392+497718912
1052.94+486917504+476173824+465873280+456362848+447312512+438004992+428100544
1048.44+417918432+408081088+399026336+390757312+382992384+375535744+368392960
1043.94+361472000+354430656+347061248+339650624+332736672+326589440+321104576
1039.44+316041760+311164608+306245184+301178592+296068352+291111648+286394048
1034.94+281842432+277339488+272847264+268445120+264233184+260253360+256578800
1030.44+253360320+250618528+248127008+245714128+243483824+241483792+239427952
1025.94+237090912+234769056+232983584+231880144+231181616+230574832+229877952
1021.44+228981664+227856544+226606416+225449104+224619824+224244784+224283424
1016.94+224590992+224955248+225146896+225170624+225450000+226435360+228001488
1012.45+229591744+230939936+232266144+233852480+235869792+238556048+242066304
1007.95+246144208+250337280+254564864+259215840+264646224+270784704+277336800
1003.45+284272736+291917024+300498944+309820224+319493504+329327808+339377280
998.95+349877952+361183200+373416768+386103552+398537856+410635808+423020384
994.45+436137504+449616320+462692096+475005760+486744992+497992224+508154112
989.95+516275008+521845056+524993280+525898592+524433952+520447296+514031200
985.45+505458784+495146208+483616864+471248864+458136928+444371488+430297888
980.95+416367840+402859456+389792896+376976608+364206464+351561536+339419520
976.45+328052832+317328576+306938688+296874016+287502528+279092384+271385664
971.95+263890176+256553376+249764336+243686688+238007552+232458112+227143856
967.45+222266992+217898768+214051808+210653888+207503392+204474000+201619216
962.95+198945408+196369296+193979920+192004848+190456080+189102640+187802080
958.45+186583888+185514576+184661440+184067072+183621696+183111152+182454304
953.95+181750336+181133024+180725184+180625472+180787216+180960880+180891648
949.45+180570240+180260784+180232352+180411088+180424800+180106784+179765632
944.95+179752672+180011840+180271920+180415568+180400560+180127392+179696832
940.45+179559632+180056304+180885264+181332624+181078672+180556160+180367008
935.95+180577280+180854624+181064192+181300576+181574544+181954208+182760384
931.45+184027152+185065888+185180576+184611104+184218464+184498736+185305040
926.95+186265120+187106480+187788320+188445280+189056176+189349120+189271760
922.45+189221056+189503472+189973552+190446032+191005104+191672048+192253504
917.95+192703344+193235184+194009088+194979136+195972736+196726272+197060448
913.45+197180128+197526512+198259440+199180752+200088720+200863296+201356144
908.95+201586976+201883616+202462272+203066512+203372192+203531008+203976464
904.45+204767936+205433264+205546048+205274416+205155424+205357856+205526816
899.95+205471280+205571088+206183952+207054032+207714000+208112144+208471648
895.45+208827472+209079184+209227936+209293232+209179056+208834080+208409024
890.95+208119808+208037024+208055360+208029760+207916192+207738432+207464256
886.45+207042848+206556224+206145648+205864192+205785152+206050352+206521152
881.95+206635824+206019968+204992032+204114560+203534000+203097744+202775120
877.45+202591584+202419376+202105824+201681136+201285840+201006880+200766432
872.95+200306960+199414528+198220000+197083456+196204352+195564640+195153152
868.45+194968272+194893136+194810912+194727024+194600000+194246880+193577520
863.95+192723696+191840880+190966960+190167360+189612768+189413360+189493312
859.45+189705984+190011792+190475520+191112400+191775920+192212880+192182208
854.95+191631200+190876256+190441648+190584256+191095152+191575152+191724896
850.45+191510448+191450400+192270768+193716464+194430800+193803792+192796816
845.95+192081664+190978576+189526256+189564624+192061312+195237968+197000496
841.45+197534784+197980912+198313600+198009104+197428272+197180640+197014576
836.95+196430560+195881968+196214688+196988336+196573056+194285616+191416752
832.45+189461520+188237648+186686976+184721024+183308656+183171104+184017152
827.96+184783456+184373296+182648368+180808736+180297280+181197888+182134784
823.46+181776112+180046304+177817472+175833280+174237456+172920688+171883824
818.96+171197520+170907264+170934944+170794160+169683712+167415200+165038944
814.46+163777632+163589104+163528992+163213968+162931616+162552032+161513376
809.96+160033280+159219440+159564768+160121040+159746464+158609824+157856464
805.46+158172032+159243904+160303296+160661872+159976096+158546560+157164688
800.96+156444304+156487088
##END=
