##TITLE=octarelline 6 front
##JCAMP-DX=4.24
##DATA TYPE=INFRARED SPECTRUM
##DATE=31/1/2005
##TIME=16:47:0
##SAMPLING PROCEDURE=film
##ORIGIN=Vincent
##DATA PROCESSING=no operation
##XUNITS=1/CM
##YUNITS=ABSORBANCE
##RESOLUTION=2
##FIRSTX=4000.283
##LASTX=800.31372
##DELTAX=-0.64282227
##MAXY=0.15000868
##MINY=0.0052016717
##XFACTOR=1
##YFACTOR=1.3970647e-010
##NPOINTS=4979
##FIRSTY=0.0057165292
##XYDATA=(X++(Y..Y))
4000.28+40918143+40311600+39698612+39429320+39291396+38976920+38734328+39135284
3995.14+40085424+40568212+39881036+38751964+38515024+39345816+40111704+39924576
3990.00+39111824+38580304+38772788+39414684+39972436+40168388+40061964+39787760
3984.86+39502132+39546604+40121276+40783536+40886600+40538360+40357220+40296964
3979.71+39714944+38615576+37844616+37846492+38148660+38277904+38450108+39037336
3974.57+39841808+40283632+40120896+39706684+39484868+39496128+39600840+39859076
3969.43+40356468+40926964+41409504+41829392+41992976+41414956+40113576+38972604
3964.28+38811060+39437952+40006968+40123148+40236520+40937100+42028464+42641732
3959.14+42348324+41631460+41034360+40519776+40007912+39685292+39441704+38843524
3954.00+37961280+37398448+37464460+38078884+39221404+40654748+41744140+42229432
3948.86+42480932+42529396+41951652+40992676+40509264+40513580+40219816+39622044
3943.71+39691108+40863888+42428340+43424776+43397528+42433980+41076412+40054644
3938.57+39797516+40164072+40603124+40599560+40238772+40216252+41001124+42341936
3933.43+43860532+45461280+46764140+47019964+46067700+44583552+43255484+42403172
3928.29+42175712+42388144+42558888+42663520+43138248+43850008+44035868+43415380
3923.14+42325600+41039428+40051264+40341828+42039920+43709260+44284700+44757048
3918.00+46474300+48783828+49723744+48408728+45630316+42573544+39994396+38402840
3912.86+38064628+38537532+38796428+38290848+37532160+37232864+37360004+37550536
3907.72+37890944+38824572+40912700+44794264+50305956+55674440+59051924+60748184
3902.57+62091108+62726696+61616508+59961712+60024800+61265368+60545836+56380592
3897.43+50671484+45923464+42879740+41090308+40125028+39824168+40458208+42973108
3892.29+48039696+54320324+58528688+58318732+54545656+49762912+45842984+44168740
3887.15+46331928+52495648+59608864+63270108+61793980+57010844+51583900+47526216
3882.00+46472608+48988428+53241228+55760836+54502284+50652844+46790664+44114240
3876.86+42393216+41806484+43233692+46551788+49879080+51142920+50022744+48310868
3871.72+48970172+54229056+63125828+70880024+72457000+67270024+59128408+52418576
3866.58+49756316+51592572+55915524+58988668+58527936+56040040+54465516+54300524
3861.43+53607664+51145556+47658856+44417772+42423456+42539164+44445588+46586396
3856.29+49684400+58575892+76768840+99485472+115736560+119577000+114235328
3851.79+104056256+90525008+75815576+63293184+54277332+47865268+43359580
3847.29+40764572+39667272+39528212+40525404+42856072+45724520+47916824+49195864
3842.15+50543044+52735732+55057660+56574172+58906900+65388536+75690640+83414048
3837.01+82613064+75518448+68898224+65311340+62245744+57827908+53722100+52221476
3831.86+53123988+54114052+53185616+50315368+47159360+45471436+45685404+46790664
3826.72+47412764+46985916+45924780+44848216+44212528+45084704+49472976+58360092
3821.58+69084072+76040576+75420304+68448336+59419616+52767024+52189636+59261740
3816.44+70747336+78911312+77887096+69351784+59190728+50981496+44932808+40581164
3811.29+38114520+37520344+38080192+39517144+43085080+50327980+59994204+67106056
3806.15+67283472+61677932+55042756+50515928+49295444+53114184+62859984+74730888
3801.01+81328952+78719360+69901096+60282092+53427080+50880540+52235796+54784580
3795.87+55244188+52588176+48334580+44355932+41525924+39972248+39446400+39431572
3790.72+39420500+39207332+38879168+38663788+38685172+38790048+38854780+39248428
3785.58+40447692+42138524+43360896+43606288+43082072+42077488+41119976+41508840
3780.44+44236960+48177068+50599164+49983768+47404300+44870776+43348680+42574480
3775.30+41957096+41307356+40894864+40863136+40979724+41413636+43314484+47600536
3770.15+53146796+57029900+57033860+53754892+50026128+48482128+49494248+51142160
3765.01+51289656+49564844+47097464+44912880+43325192+42722880+44109732+48066796
3759.87+53102876+56084188+55404132+52865400+51215628+51034420+51051936+50359052
3754.72+49590452+51265168+58703336+71947816+84767760+90343600+90702416+93260608
3749.58+98709968+99670664+91617128+78792144+68346808+65752448+74607520+93267288
3744.44+110795272+113872224+101546024+84316912+70200896+60414144+54025060
3739.94+50631556+49882844+51671316+56401716+63595376+71166848+76908048+79596712
3734.80+78794048+75620016+73240776+73990200+76082920+75218320+69683744+61854840
3729.65+54779108+49912404+47989080+49451328+53295132+56970452+58364236+57358660
3724.51+55254752+53612000+53517372+54750068+55551632+54454388+52287620+51076616
3719.37+51262536+51384784+50279400+48356788+46778248+46217956+46374056+46612544
3714.23+47739768+52361672+61570780+71657704+76842336+75935184+72908808+70616736
3709.08+68008736+63547144+57957212+52928352+49390140+47431960+46447968+45628992
3703.94+45252400+46753420+50643608+55134416+57582516+56930072+54261680+51307364
3698.80+48966784+47310988+46501008+46813428+47694984+47922276+47129448+46171696
3693.66+45999248+47409196+51242940+56963464+61964468+64915884+68631304+76165504
3688.51+84951512+88217240+82926272+72829904+63115616+55989476+51218076+48073384
3683.37+46212504+45603616+46104932+47400164+49361336+51934708+54473436+56071548
3678.23+57367156+61283700+70636824+84536800+97438896+102875872+98852088
3673.73+88686024+77725232+71030928+71932456+79544248+88164640+91939640+90089904
3668.59+85254864+79063544+72134224+65839692+61384044+58545872+56663996+55586536
3663.44+55201944+55368864+56320960+57972692+59425476+60089592+60330828+60699436
3658.30+62029500+65971416+73094512+80569192+84139472+82637416+78448752+74415840
3653.16+72572320+74420968+80300704+89018336+98801400+107740512+113615464
3648.66+115166392+113342952+109677192+104466120+97940808+91549960+86587480
3644.16+83021040+80656288+79981864+81032632+82723992+83986224+84657512+84998352
3639.02+85256208+85777864+86742368+87808960+88674960+89787984+91844800+94671344
3633.87+97204504+98598472+99036680+99708728+102539960+109589096+121430120
3629.37+135309360+145613008+147759952+141929360+132266984+123160768+116817392
3624.87+113351792+112098712+112451984+113736912+115345032+117694192+122161184
3620.38+128950232+135762048+139802144+140583696+139443808+137281488+134463936
3615.88+132005200+131180600+132460520+135705168+140398944+144885104+146860416
3611.38+146102368+145401344+147296352+151070784+154025888+154767776+153916864
3606.88+152310080+150251568+148269264+147183680+147158800+147492208+147697584
3602.38+148398112+150597552+154029984+156933328+157933248+157657600+157830704
3597.88+159266560+161480144+163749616+165705664+167225136+168525088+170058656
3593.38+171819936+173070880+173185488+172510288+172322064+174004672+178013168
3588.88+183383712+188580832+192816768+195839872+196900144+195348928+192126432
3584.38+189162656+187394672+186508224+186240464+186759072+188025888+189714064
3579.88+191573808+193294880+194434368+194910384+195189936+195784608+196916720
3575.38+198587232+200600688+202598496+204386016+206034192+207469520+208323968
3570.88+208575600+209183184+211628352+216573760+223027088+228957072+232699424
3566.38+233733808+232534896+230247984+228209456+227064272+226495456+226121184
3561.88+226201312+227095584+228598480+230186336+231490528+232319440+232806640
3557.38+233570624+235139808+237198704+238904016+239906608+240695328+241959488
3552.88+243812448+245686032+247039712+248066800+249348192+250973616+252578928
3548.38+254136256+256017856+258291568+260571776+262491584+263898752+264813616
3543.88+265540048+266484496+267727840+269101664+270517856+271737824+272156224
3539.38+271531360+270683648+270856928+272554880+275339712+278356448+280751008
3534.88+282056704+282561984+283068256+284133120+285701856+287477696+289342592
3530.38+291309920+293279136+295050944+296585824+298043808+299514112+300843808
3525.88+301834560+302568320+303481312+305011008+306994016+308480640+308629600
3521.38+307875008+307697056+309047488+311471552+313879456+315678208+316942048
3516.88+317974464+318993888+320137888+321636544+323678304+325949632+327653248
3512.38+328381120+328678528+329413440+330994912+333370560+336156960+338561792
3507.88+339888704+340283936+340502432+341111584+342412896+344577440+347169216
3503.38+349100480+349801088+349881568+350256288+351247136+352762112+354488384
3498.88+355848320+356582208+357409184+359294464+362085280+364557536+365860800
3494.38+366399808+367155008+368463680+369775488+370640864+371484320+372936544
3489.88+374763072+376225152+377225984+378310048+379754688+381404512+383193312
3485.38+385048544+386520960+387123808+386950720+386693216+387235456+389098816
3480.88+391844864+394207776+395376416+395897280+396821952+398341184+399784864
3476.38+400561056+400676992+400694720+401378752+402971488+404788384+406069792
3471.88+407095456+408745504+411138624+413491456+415191264+416285440+417083744
3467.38+417941632+419217984+420865568+422359072+423425376+424385248+425455680
3462.88+426398944+427217056+428432640+430188128+431808512+432775392+433479808
3458.38+434540768+435925056+437185440+438213504+439369824+440961280+442764000
3453.88+444136992+444692352+444724416+444806112+445239680+446230048+448078400
3449.38+450607360+452873280+454171424+454971584+456231104+458134976+460078304
3444.88+461576384+462700256+463870880+465483936+467432384+468975264+469493888
3440.38+469379712+469703584+471026656+472824064+474104832+474402048+474215968
3435.89+474539360+475882176+477874208+479851968+481529152+482941440+484146816
3431.39+485241888+486310528+487260288+487983392+488656800+489543520+490642272
3426.89+491799872+492891328+493700384+494201696+495063296+497074656+499858752
3422.39+502038528+502970208+503497056+504709824+506703648+508705984+509875456
3417.89+509925856+509435168+509480128+510556960+512061376+513085728+513550080
3413.39+514313024+516134240+518634304+520469504+520865344+520633568+521103520
3408.89+522512000+524237408+526041632+527979808+529615712+530498816+531060800
3404.39+532003296+533312672+534613184+535861792+537022208+537786944+538132352
3399.89+538488832+539070976+539692736+540313408+541140608+542320768+543947520
3395.39+545973504+547845184+548871232+549244224+549873280+550967936+551761280
3390.89+551888256+552043712+552894656+554177024+555343168+556462336+557950272
3386.39+559710336+561050304+561559040+561733568+562528128+564355904+566707776
3381.89+568656512+569587584+569630720+569590592+570286272+571786624+573472128
3377.39+574904320+576249984+577747968+579227648+580357696+581120000+581911232
3372.89+583284096+585419328+587714496+589251328+589800576+589988736+590363968
3368.39+590926592+591661632+592788352+594187520+595294784+595851776+596207552
3363.89+596735936+597535936+598752576+600490752+602341760+603649856+604305152
3359.39+604705984+605045184+605311744+605864000+607240320+609336576+611393664
3354.89+612927232+614175424+615575040+617140224+618515392+619489856+620304384
3350.39+621364736+622639232+623611008+623957056+624004160+624327104+625175296
3345.89+626356992+627334464+627487744+626851136+626558976+627806848+630398144
3341.39+632982720+634725312+635967552+637310528+638831616+640229184+641205568
3336.89+641765568+642444416+643781568+645417152+646417088+646790656+647697536
3332.39+649769152+652209984+653984384+654938432+655417920+655780928+656537664
3327.89+658066816+659904000+661168000+661693824+662047168+662560640+663211776
3323.39+664222976+665922560+668083584+670081792+671611904+672745216+673534208
3318.89+674056064+674681280+675752768+677098880+678263616+679256576+680661632
3314.39+682827136+685320000+687459456+689089600+690420928+691483328+692282368
3309.89+693142592+694281152+695308224+695846592+696374400+697731456+699985152
3305.39+702353984+704011776+704581376+704260928+703878656+704404544+705956672
3300.89+707744512+709204544+710581632+712121088+713406528+714025472+714351360
3296.39+715079872+716230528+717151680+717437376+717438336+717792128+718695296
3291.89+719826048+720828416+721618048+722244608+722729216+723213888+723958720
3287.39+725003648+726007424+726620928+726778240+726557568+726092864+725780224
3282.89+726050304+726703616+726935104+726390592+725724544+725712128+726241280
3278.39+726574208+726291648+725574976+724819072+724287616+724041024+723967424
3273.89+723776448+722996224+721297856+719099968+717500160+717050624+717000512
3269.39+716453952+715686976+715412928+715345728+714757824+713914688+713516800
3264.89+713134016+711739520+709579584+708052032+707722560+707694656+707019072
3260.39+705798336+704705024+704042752+703531968+702785536+701770048+700695808
3255.89+699599232+698366720+697168704+696357248+695914304+695459776+694861312
3251.40+694256576+693585088+692647424+691588096+690809664+690427392+690194880
3246.90+689832128+689185216+688286336+687507008+687390144+688069760+688921344
3242.40+689003392+687916416+686193024+684744384+683976320+683647296+683402240
3237.90+683019456+682273536+681185728+680320512+680126144+680097728+679338432
3233.40+677874624+676608896+676080448+675992320+675931264+675835648+675637376
3228.90+675113408+674348864+673936000+674273600+674853248+674748992+673780160
3224.40+672626048+671812288+671315968+671124928+671245120+671112448+670024576
3219.90+668249920+666852800+666537536+667343296+668937280+670418880+670580160
3215.40+669186880+667295104+665856832+664992064+664832832+665590592+666552192
3210.90+666511680+665529344+664876416+665086400+665347456+664895488+663870144
3206.40+662713664+661595264+660554112+659682176+659045440+658604480+658247488
3201.90+657931264+657762368+657799168+657873216+657803072+657561536+657000704
3197.40+655764928+653836224+651793856+650282560+649549568+649548416+650001728
3192.90+650321280+650019776+649247168+648514368+647979776+647373952+646472000
3188.40+645264640+643836800+642359872+641109440+640332480+640113728+640305216
3183.90+640469376+640073920+638974848+637545088+636191232+635040960+634219648
3179.40+633978816+634258048+634477376+634129728+633266880+632202560+631074880
3174.90+629880704+628613952+627268800+625962240+624963712+624244928+623361024
3170.40+622205952+621400512+621329984+621359296+620678144+619433600+618390976
3165.90+617865280+617500160+616740672+615302912+613511680+612168576+611761536
3161.40+611940928+612023936+611681280+610946880+610023936+609134144+608173184
3156.90+606734208+604929344+603689280+603615936+604092032+604112064+603347328
3152.40+601976576+600320640+599031872+598755264+599218816+599381632+598721408
3147.90+597662400+596643264+595530368+594104832+592567552+591370816+590809408
3143.40+590769792+590779776+590368960+589456960+588284032+587059136+585914624
3138.90+585036864+584469056+583857088+582826816+581540160+580514496+579997504
3134.40+579880960+579939200+579714368+578629888+576792256+575169152+574394304
3129.90+574049088+573581952+573098688+572750208+572357504+572001856+571909376
3125.40+571605824+570394816+568677696+567451840+566748480+565871488+564852864
3120.90+564350080+564509824+564948672+565340224+565271360+564195200+562116288
3116.40+559737600+557753216+556486016+556023296+556084224+556004032+555348480
3111.90+554328448+553355904+552575296+551934336+551367680+550842560+550347392
3107.40+549722944+548653056+547069376+545347840+543842880+542637632+541878912
3102.90+541625280+541376512+540642240+539874304+539822592+540198464+540048512
3098.40+539136448+538036992+537243968+536873536+536759232+536408064+535427104
3093.90+534127968+533061952+532191488+531205472+530237600+529477312+528662112
3089.40+527682912+527110144+527415712+528183776+528545696+528047424+526843424
3084.90+525414496+524257984+523576416+523217472+522928256+522505248+521725856
3080.40+520439968+518833120+517414432+516658496+516691968+517248576+517816960
3075.90+517866624+517149760+515923872+514809536+514234080+514001088+513552480
3071.40+512580640+511244672+509956032+509083552+508669728+508318272+507672608
3066.91+506975264+506648768+506476032+505870464+504869408+504083040+503784128
3062.41+503678688+503414432+502737408+501537216+500179392+499286944+498876832
3057.91+498364384+497618208+497152896+497018720+496409152+494773728+492636672
3053.41+490922624+489982144+489535456+489235360+488966656+488675872+488140992
3048.91+487143936+485787744+484353728+482878240+481267264+479805888+478998912
3044.41+478799616+478494880+477517024+476083648+474904640+474396032+474209536
3039.91+473583040+472256672+470780064+469663488+468607008+467102208+465481376
3035.41+464660416+464907712+465446080+465359584+464481184+463300064+462284256
3030.91+461420704+460382528+459013984+457542688+456286240+455308736+454419680
3026.41+453432960+452370464+451388832+450511008+449548448+448405216+447271392
3021.91+446290592+445306144+444224608+443317824+442750528+442135040+441039840
3017.41+439682112+438680320+438332128+438415136+438436512+437822976+436226080
3012.91+433973792+431994752+430995520+430791360+430640128+430098720+429311520
3008.41+428451584+427300224+425726752+424259328+423605824+423633664+423406464
3003.91+422325728+420746560+419356256+418389248+417601248+416768672+416037824
2999.41+415774688+416103232+416686432+417059136+416990080+416453600+415568640
2994.91+414674624+414055296+413514944+412707424+411897536+411753696+412289568
2990.41+412673568+412285504+411428576+410839392+410867264+411229312+411306784
2985.91+410724320+409836160+409484352+410041632+410876992+411052512+410444800
2981.41+409793184+409646688+409760224+409745440+409779616+410190880+410771680
2976.91+411154880+411522496+412308576+413451264+414540192+415431808+416205984
2972.41+416768032+416997504+417086112+417380800+418030848+418921984+419761760
2967.91+420275008+420549280+421031904+421947936+422962336+423654080+424001056
2963.41+424147552+423988576+423399488+422682080+422396000+422735168+423355936
2958.91+423916928+424483552+425130144+425410400+424704928+423049184+421210112
2954.41+419903648+419188576+418569056+417546336+416126784+414817952+413961536
2949.91+413339904+412719648+412351296+412380896+412307744+411665504+410770816
2945.41+410179904+409942496+409878208+410032096+410368480+410613536+410675872
2940.91+410711040+410664480+410381600+410111328+410294272+410932160+411661024
2936.41+412207072+412402880+412140800+411687904+411566496+411777536+411695712
2931.91+410986528+410072480+409370656+408660288+407648448+406669472+406300576
2927.41+406522688+406793024+406745280+406359648+405600896+404446080+403157792
2922.91+401983424+400714912+399086016+397401728+396083552+394891264+393370080
2918.41+391789376+390785952+390308256+389752832+388906912+387947872+386747744
2913.91+385053408+383244032+382095424+381718144+381297280+380084288+378232992
2909.41+376441216+375029600+373700768+372155296+370609536+369489600+368771264
2904.91+367915136+366563264+365080320+364156544+363945728+363896960+363498080
2900.41+362779200+361937696+360962368+359982976+359461696+359512896+359442528
2895.91+358557632+357159328+356148320+355799488+355446496+354359648+352534400
2891.41+350582720+349158144+348589952+348826240+349518080+350226816+350690784
2886.91+350845120+350616128+350026304+349510592+349621120+350251104+350704480
2882.42+350715296+350696384+350805888+350637088+350173120+350151968+351010432
2877.92+352177472+352777472+352532736+351773056+351044000+350767328+350949024
2873.42+351232224+351394016+351530304+351669696+351627840+351354368+351032192
2868.92+350686656+350041248+348888896+347444096+346218816+345516768+345166432
2864.42+344830144+344422112+343935552+343185792+342202496+341567744+341634112
2859.92+341695360+340719104+338750240+336822016+335660704+335172384+335002304
2855.42+334936896+334763968+334254944+333441920+332687904+332378592+332524800
2850.92+332698816+332448288+331736960+330889152+330164000+329502848+328708800
2846.42+327855424+327373664+327438272+327395872+326330496+324307552+322430848
2841.92+321528672+321390400+321367552+321085056+320467552+319648704+318890816
2837.42+318254240+317517856+316618496+315748160+314976704+314300320+313977632
2832.92+314086496+313954304+312913184+311385536+310350400+310019552+309832032
2828.42+309412416+308784896+307992832+307135168+306504640+306245952+306092608
2823.92+305717888+305124864+304556256+304159232+303814144+303282976+302531104
2819.42+301774144+301116352+300423200+299704864+299266624+299201984+299130976
2814.92+298729088+298103168+297437376+296645760+295626112+294558720+293765984
2810.42+293394784+293260608+292921952+292123168+291216736+290834016+291083040
2805.92+291445824+291463968+291083840+290355904+289362112+288412928+287752864
2801.42+287138912+286247296+285313920+284804000+284640128+284350592+283784608
2796.92+283135424+282473856+281727872+280949952+280224576+279517408+278875264
2792.42+278498496+278414400+278337824+278020896+277482560+276799328+275952576
2787.92+275014176+274286144+274076288+274341792+274643776+274504096+273789120
2783.42+272705344+271556640+270615712+270118880+270144384+270465728+270667872
2778.92+270408320+269626176+268648096+268013008+267931648+267948608+267413840
2774.42+266293104+265192336+264599952+264418992+264277776+263994352+263524640
2769.92+262753712+261647136+260553856+259952080+259781056+259412464+258498560
2765.42+257501424+257035872+257019152+256878288+256355888+255697760+255174352
2760.92+254776144+254361072+253864224+253367072+253051072+252961840+252816496
2756.42+252240496+251264848+250328896+249668032+249007728+248110736+247312512
2751.92+247128960+247518768+247927904+247915312+247424880+246588528+245606224
2747.42+244656880+243721280+242633696+241451392+240480112+239882608+239547360
2742.92+239381024+239375056+239400256+239258192+238893200+238360608+237683696
2738.42+236932352+236296512+235932512+235807552+235712816+235450160+235057648
2733.92+234769296+234570080+234055600+233048912+232012368+231403920+231007296
2729.42+230400432+229660016+229096880+228681248+228216016+227751408+227497456
2724.92+227537312+227718960+227680848+227162544+226414128+225927888+225682432
2720.42+225197936+224391424+223695056+223266624+222838992+222357488+222025744
2715.92+221743760+221217488+220588032+220265424+220208160+219924736+219168144
2711.42+218185504+217392144+217018992+216983440+216983232+216886080+216899568
2706.92+217108592+217057344+216283920+215051632+214052048+213564176+213400272
2702.42+213427824+213531824+213293472+212384912+211176176+210377648+210184992
2697.93+210185584+209987520+209552976+209048432+208660400+208427600+208157936
2693.43+207717536+207318416+207193632+207062320+206388640+205155072+203946976
2688.93+203272192+203124208+203208064+203276304+203177808+202812320+202212080
2684.43+201610032+201299264+201355984+201502864+201315040+200588464+199578320
2679.93+198907808+199035008+199644464+199787136+198896128+197453328+196357728
2675.43+195896512+195721264+195545664+195376768+195189328+194838944+194325280
2670.93+193831424+193434288+193018848+192542944+192219264+192255728+192526784
2666.43+192684096+192501536+191947664+191096352+190219072+189753456+189805856
2661.93+189907680+189582304+188924000+188280816+187711760+187117216+186612704
2657.43+186378560+186321312+186146624+185680432+185011936+184373872+183878272
2652.93+183420064+182897472+182439232+182225472+182229808+182320176+182440800
2648.43+182493280+182297584+181878128+181523552+181386240+181239728+180785248
2643.93+180042608+179327248+178913696+178767488+178660128+178565536+178724704
2639.43+179240304+179842960+180187728+180140000+179716128+179032624+178314544
2634.93+177679632+177049728+176487824+176297792+176513120+176704544+176603712
2630.43+176449584+176488992+176617840+176709824+176810640+176836128+176516640
2625.93+175766784+174827392+174065808+173796368+174123408+174741136+175082784
2621.43+174836400+174198864+173592000+173260704+173138256+173004464+172749040
2616.93+172465040+172258016+172125232+172098400+172278176+172572544+172715136
2612.43+172706144+172872624+173284208+173477392+173088688+172417840+172068048
2607.93+172225504+172594880+172889680+173071264+173147664+173014464+172612912
2603.43+172109760+171779984+171763136+171978160+172223136+172332448+172310496
2598.93+172330096+172466016+172545536+172419216+172256048+172289744+172395696
2594.43+172259968+171909424+171706752+171824240+172037904+172082928+171978736
2589.93+171920400+171978944+172031040+171979328+171971312+172207104+172563744
2585.43+172675392+172462672+172260944+172311664+172461696+172474032+172308736
2580.93+172036320+171774720+171733568+172002656+172317344+172374544+172292864
2576.43+172404320+172716896+172934160+172927872+172853840+172836992+172797424
2571.93+172643264+172499312+172603104+172939632+173098896+172745904+172138528
2567.43+171858912+172099968+172550032+172905936+173120832+173228000+173334384
2562.93+173669392+174303696+174912064+175094944+174848960+174510064+174356816
2558.43+174395232+174465392+174477728+174555744+174855616+175286480+175604464
2553.93+175754064+175875440+176068368+176355840+176747680+177116800+177280016
2549.43+177330240+177572704+177995696+178249792+178252160+178319472+178597152
2544.93+178890720+179114880+179407120+179759904+180005920+180176720+180478720
2540.43+180918800+181305120+181559888+181772224+182022704+182346688+182769760
2535.93+183202288+183413376+183284656+183052736+183152960+183762672+184597824
2531.43+185218624+185481568+185592112+185745920+185928272+186104128+186436992
2526.93+187138256+188131200+189012816+189402896+189324528+189168368+189300688
2522.43+189794416+190484032+191125920+191479216+191414976+191091232+190898336
2517.93+191100096+191586032+192022752+192186352+192153824+192220064+192631456
2513.44+193330768+194036752+194575024+195057520+195650832+196284880+196718144
2508.94+196834016+196758416+196714800+196840704+197154224+197623904+198235472
2504.44+198935072+199566448+199959424+200131568+200313152+200691008+201202592
2499.94+201642832+201900864+202044800+202241952+202645968+203276304+203974864
2495.44+204521600+204818240+204906304+204885712+204871840+204977936+205216032
2490.94+205485056+205726944+206014816+206439904+206973008+207537312+208078880
2486.44+208521312+208707968+208541328+208194176+208075328+208453136+209139952
2481.94+209697120+209953424+210111600+210310656+210412176+210386608+210595376
2477.44+211392320+212621616+213741408+214317632+214236656+213633424+212853760
2472.94+212359744+212410512+212864464+213442336+214099680+214893584+215562976
2468.44+215638624+215062960+214392272+214177088+214427040+214872544+215414816
2463.94+216071408+216718992+217202592+217530672+217797552+218057872+218383680
2459.44+218839888+219342896+219679536+219704608+219403328+218873680+218386464
2454.94+218238960+218411488+218597168+218703312+218984624+219514304+219940656
2450.44+220000704+219931520+220071888+220382368+220625456+220779024+220978560
2445.94+221224224+221392352+221454448+221494240+221526848+221440704+221166944
2441.44+220868544+220846048+221179680+221578000+221719088+221669120+221756096
2436.94+222088592+222435312+222560896+222465568+222314512+222301952+222533440
2432.44+222871840+222988256+222751792+222450240+222451440+222771680+223130608
2427.94+223304624+223249472+222990864+222634736+222439504+222630384+223121648
2423.44+223561632+223691264+223573232+223421280+223378880+223518848+223867904
2418.94+224295024+224513120+224384240+224094288+223909680+223839392+223681104
2414.44+223320128+222906880+222747232+223010784+223483600+223732464+223589728
2409.94+223345008+223333872+223536768+223711344+223719936+223584336+223396192
2405.44+223301024+223400176+223588912+223652032+223520048+223295056+223058560
2400.94+222844944+222742224+222837600+223031264+223091184+222922160+222687104
2396.44+222574656+222561504+222469136+222229936+221990688+221931808+222060176
2391.94+222218160+222261760+222213200+222212992+222288816+222251008+221976176
2387.44+221705344+221793904+222167856+222376400+222223552+222062560+222334400
2382.94+223074288+223996512+224889328+225811360+226982544+228562992+230514768
2378.44+232691424+235028880+237572496+240372416+243461568+246929920+250899056
2373.94+255392000+260293952+265382272+270404480+275245344+280048800+285043840
2369.44+290206976+295235328+299863040+304090592+308074112+311947968+315724160
2364.94+319261216+322319040+324720768+326396768+327301184+327465280+327154624
2360.44+326691328+326033952+324695840+322214624+318619392+314398304+310042272
2355.94+305588480+300620128+294814784+288361280+281628864+274623328+267111744
2351.44+259130688+251040704+243374640+237078128+233544432+233757360+237401712
2346.94+243116544+249489760+255645072+261240224+266307264+270942176+275009344
2342.44+278298080+280941248+283335968+285624672+287494368+288553632+288795776
2337.94+288701632+288843968+289256352+289362688+288690272+287451648+286207872
2333.44+285180704+284179840+282983840+281545472+279930176+278218848+276419936
2328.95+274459808+272274912+269844832+267162032+264352016+261708624+259364112
2324.45+257072112+254561168+251908384+249278080+246602768+243860192+241307424
2319.95+239086672+236891952+234383056+231699376+229278416+227335760+225694384
2315.45+224022208+222142144+220172560+218366176+216804800+215348656+213877776
2310.95+212412704+210993136+209596432+208178352+206732384+205357376+204296192
2306.45+203749136+203554256+203232416+202440880+201277312+200116560+199255664
2301.95+198715008+198251856+197592736+196743808+195995952+195557280+195297232
2297.45+194955936+194457824+193890816+193302160+192671472+192036752+191485728
2292.95+191039632+190637104+190232672+189847008+189483648+189075616+188566464
2288.45+188014672+187586960+187431872+187505504+187507264+187066048+186115936
2283.95+185067392+184459216+184403360+184491840+184290528+183778800+183242768
2279.45+182888240+182687024+182533952+182421168+182424128+182530032+182556160
2274.95+182337872+181971632+181719776+181627856+181445968+181026608+180588880
2270.45+180412928+180472032+180547840+180532512+180405872+180059328+179422272
2265.95+178738640+178418752+178539248+178659136+178296704+177476384+176654336
2261.45+176171312+175969744+175823664+175600528+175239232+174753504+174332320
2256.95+174182608+174190432+174007792+173535568+173033856+172732384+172646800
2252.45+172778416+173071264+173206064+172868336+172208080+171642336+171314576
2247.95+171125840+171093344+171222752+171234688+170859600+170222864+169635376
2243.45+169221728+168984016+168907728+168842960+168611744+168295056+168074624
2238.95+167865936+167493024+167050736+166691008+166293776+165772704+165383616
2234.45+165341776+165467840+165566128+165737712+166027184+166145024+165879808
2229.95+165457664+165242928+165283952+165292752+164983248+164403376+163944336
2225.45+163888480+163981840+163722272+163030368+162319872+161936464+161870320
2220.95+161988608+162187712+162298000+162154528+161817232+161504544+161335328
2216.45+161274256+161272304+161241872+160977040+160343312+159579024+159174304
2211.95+159340496+159744624+159897728+159665424+159252336+158857808+158556160
2207.45+158400752+158413056+158464896+158332336+157903424+157296624+156768080
2202.95+156493712+156411104+156332768+156208288+156160912+156225408+156231648
2198.45+156006048+155553696+155017648+154583744+154370528+154311520+154216688
2193.95+154034464+153917248+153947424+153983840+153868576+153601280+153265664
2189.45+152931680+152654736+152435408+152203440+151912176+151572656+151202464
2184.95+150855648+150638976+150553600+150418256+150134320+149849056+149711792
2180.45+149666112+149617120+149579968+149549056+149444080+149240736+148983360
2175.95+148721136+148540768+148538448+148626080+148562336+148260704+147833200
2171.45+147311328+146651024+146012432+145718048+145861168+146207232+146483792
2166.95+146604224+146615280+146571184+146492720+146395616+146298304+146160816
2162.45+145880000+145479408+145147408+144943360+144676816+144271552+143998080
2157.95+144048144+144151024+143902016+143284368+142656544+142352960+142407872
2153.45+142596416+142734928+142900016+143173376+143301056+143015840+142585152
2148.95+142489536+142654416+142569264+142104320+141632848+141410032+141335184
2144.46+141247152+141050528+140689344+140254528+139946928+139807952+139693408
2139.96+139556000+139498656+139556208+139677136+139834896+139972336+139938016
2135.46+139665888+139286656+138955680+138717376+138566656+138500208+138472496
2130.96+138425808+138341728+138189856+137935520+137656224+137529584+137613808
2126.46+137758480+137791424+137687408+137482320+137145152+136684320+136260896
2121.96+136051840+136040016+136081264+136094800+136058208+135949440+135863280
2117.46+136011952+136382864+136624288+136503488+136245232+136150368+136163712
2112.96+136094432+135984080+135947888+135894640+135650000+135172144+134539392
2108.46+133921456+133584696+133684904+134046248+134371072+134554688+134591632
2103.96+134355792+133783168+133122632+132707632+132576344+132544248+132554120
2099.46+132731616+133123016+133509648+133549304+133137728+132594328+132359592
2094.96+132471736+132556808+132398664+132188688+132112888+132012560+131708088
2090.46+131361704+131225432+131267568+131305640+131313376+131354736+131386824
2085.96+131370784+131371360+131394168+131293848+131029456+130790976+130715040
2081.46+130682960+130582656+130509808+130502264+130329328+129807480+129163064
2076.96+128845344+129053744+129570840+129951216+129829888+129210968+128524392
2072.46+128215624+128261392+128295568+128165608+128088392+128259072+128600080
2067.96+128942112+129228160+129477160+129687336+129784888+129596328+128972832
2063.46+128037216+127204184+126807728+126813520+126983944+127239904+127679464
2058.96+128298272+128857720+129109960+129012816+128664784+128140896+127520584
2054.46+126998816+126797504+126948816+127252248+127430040+127319432+126969856
2049.96+126617624+126534656+126807344+127229856+127446064+127305928+127054984
2045.46+127032600+127162880+126998056+126369832+125708392+125525696+125826080
2040.96+126220288+126423672+126463640+126494896+126518256+126321984+125795032
2036.46+125221088+124996152+125079112+125086240+124899904+124783608+124914376
2031.96+125197160+125492496+125722856+125838056+125910784+126077696+126229160
2027.46+126065344+125573352+125079296+124733264+124378392+124023760+124006600
2022.96+124493544+125136216+125413408+125185200+124792104+124626216+124737888
2018.46+124940608+125179408+125555216+126003392+126217408+125927192+125129464
2013.96+124098952+123323664+123198736+123591664+123928696+123883968+123724112
2009.46+123807224+124072744+124268664+124388616+124607896+124933664+125155104
2004.96+125109776+124872912+124652272+124585336+124710504+125044776+125514496
2000.46+125809696+125563312+124789208+123956456+123531696+123613448+124039768
1995.96+124588216+124953544+124873680+124568368+124810808+126140008+127974464
1991.46+128941152+128304056+126787264+125725368+125664800+126085984+126321984
1986.96+126294976+126274904+126268736+126005152+125439464+124957200+124970504
1982.46+125478232+126135952+126598728+126691552+126431592+126019040+125713792
1977.96+125598816+125578160+125612320+125799840+126132488+126415776+126525184
1973.46+126593904+126808888+127136248+127339496+127240304+126887456+126542560
1968.96+126521336+126960416+127657456+128188968+128307552+128154800+127951104
1964.46+127674440+127281208+127047464+127280824+127784472+128029096+127838536
1959.97+127568272+127607072+128013664+128609160+129176592+129560008+129697936
1955.47+129573344+129190872+128734696+128558576+128790320+129097400+129103784
1950.97+128860224+128698192+128829904+129234152+129692736+129886496+129737936
1946.47+129616808+129840512+130234856+130688944+131752536+133790696+135800576
1941.97+136102160+134338944+131895800+130232336+129656416+129739296+130082992
1937.47+130445840+130703808+130961224+131416784+132034600+132586784+132934656
1932.97+133038720+132852864+132475416+132237216+132341040+132554488+132500360
1928.47+132144408+131837216+131927688+132405616+132923640+133259368+133719120
1923.97+134769264+136212688+137166064+137035744+136089760+135027408+134638640
1919.47+135847792+139016352+142761296+144487392+142913392+139429088+136420224
1914.97+135052928+134981344+135340336+135548176+135590976+135922544+136868256
1910.47+138070352+138816960+138859392+138554640+138263088+138011456+137708896
1905.97+137335504+136923424+136592544+136600880+137069040+137710448+138067808
1901.47+138014752+137792768+137615744+137476112+137344432+137314224+137558240
1896.97+138261152+139458528+140741872+141386560+141098032+140417376+140031440
1892.47+140011456+140196960+140944080+142744992+145111104+146571968+146136128
1887.97+144334816+142503104+141458496+141208384+141482528+141972416+142294000
1883.47+142299616+142354336+142778384+143231984+143195888+142775280+142448400
1878.97+142382848+142572544+143172224+144115888+144914240+145310880+145561744
1874.47+145790288+145798816+145654928+145683280+146033216+147112576+149959504
1869.97+154851712+159825760+161997584+160538224+157222752+154150880+152025984
1865.47+150456928+149023984+147856320+147404384+147769456+148486736+149042832
1860.97+149381680+149747584+150293568+150932864+151424432+151593280+151510608
1856.47+151340192+151121536+150935792+151077376+151690352+152486592+153084464
1851.97+153350336+153322512+153191312+153316672+153922320+154933920+156148256
1847.47+157097232+157338928+158127216+162642016+171968768+181178048+182900032
1842.97+175985424+166445280+159754368+156677472+155680320+155761328+156559200
1838.47+157773008+159058096+159851120+159682208+158935232+158473280+158517952
1833.97+158718976+158855856+158893680+159408944+162121360+168018112+174553200
1829.47+177174496+174502432+169537936+165730112+164711856+166882416+170943184
1824.97+173472496+171973664+167962944+164761680+163515264+163212560+163038768
1820.47+162946992+162880400+162771648+162772416+162869472+162818496+162575632
1815.97+162329440+162253888+162507296+163127024+163876352+164662816+165941376
1811.47+168030832+170214256+171252912+170765056+169575504+168699584+168389920
1806.97+168226016+167909360+167629696+167599024+167782640+168400880+169961408
1802.47+172260752+174179056+175147104+175847392+176658256+176564896+174685680
1797.97+172003616+170505888+170962576+172144432+172436048+172405104+175116128
1793.47+182616272+192115200+197406928+195343984+188731040+181880496+176581568
1788.97+172941392+171059680+170724320+171350000+172979984+175850512+178703104
1784.47+179315072+177199792+174303696+172915152+174000352+176918128+179628176
1779.97+180037312+178150304+175944640+174882064+174993216+176125808+177973520
1775.48+179274048+179874160+183142160+192738896+206443456+215949472+214951744
1770.98+205349264+194017008+187033568+186851360+191136176+194124096+191919104
1766.48+186281968+181394288+178859328+177748096+177940960+181118528+188007808
1761.98+195661488+198907024+195637248+189307008+184824752+184061680+186344720
1757.48+190570928+194664368+195402416+191952000+187477744+185080368+185270352
1752.98+188755664+197251744+208764240+216117088+214826064+209031552+205177440
1748.48+204509904+204291840+202607792+199711056+196717952+194915472+195314208
1743.98+197747536+200504464+201439392+200486848+201038720+206679728+215567536
1739.48+220500144+217265584+209745088+203829648+201755520+204907488+216608128
1734.98+237350480+258709008+267186032+257595024+238294800+221360320+212920032
1730.48+211745968+212755952+212011168+209522688+207465760+206967664+207451728
1725.98+208127616+209010368+210511520+212601984+214600144+215799888+216177088
1721.48+216399168+217512784+221191808+229973648+245557104+265069648+279522272
1716.98+280564832+270762464+260756800+256390496+254468272+250172832+244152160
1712.48+240080752+239385824+241128400+244059776+246755216+248197248+249726864
1707.98+254164416+262263760+271737824+279800832+285246080+288309664+289681184
1703.48+289914720+290927392+298539424+319972736+354406976+385435552+392264416
1698.98+374793376+353078848+345255232+357682336+385020032+410587520+416515936
1694.48+403225280+387269664+380717312+383392224+389996864+398038080+407627552
1689.98+417861472+427202016+435340960+442166016+447517536+454569440+470438816
1685.48+499271552+533470400+555249280+554424128+539070144+523273824+514923264
1680.98+514918208+520142240+526284160+530855264+534489088+539361664+547932096
1676.48+562639168+582846080+600917120+607034624+601547200+595369472+596949632
1671.98+605529280+616472256+628449472+642396800+655884608+663284288+662521792
1667.48+658268352+656730880+659949120+666026304+673502656+683807808+698451200
1662.98+714769216+726686976+731093568+731372864+732843776+737341248+743602816
1658.48+750362368+756904128+762354432+767029952+773662016+785988736+807078144
1653.98+837811456+871481600+889208576+874635392+836616192+798749376+775381952
1649.48+767097024+768094848+773157312+779953728+787601600+793671360+792822592
1644.98+781520064+764154560+749386304+741162624+736878336+733176000+729649280
1640.48+726325056+722300480+718029632+715019712+713467904+713976704+719352960
1635.98+728768192+731626112+716488704+686686016+655740480+631943744+615022848
1631.48+601608896+589146368+576703424+565148224+555764544+547638144+537835584
1626.98+524721760+509725696+496175936+487546848+485104992+485339616+481436576
1622.48+469859840+453883808+439275712+428874592+421636192+415648672+412298400
1617.98+416331616+428977568+440797312+437613024+418193568+395599296+380365056
1613.48+372785248+368348800+364338784+360610272+357662560+355846208+354747584
1608.98+353043168+350083744+346777472+343854432+340837984+337656544+335443360
1604.48+334784992+334767232+334336992+333272992+331669952+329729248+327980192
1599.98+326803456+326058240+325683168+325858240+326315936+326473504+326414880
1595.48+326729792+327407232+327827232+327752256+327579744+327803104+328585824
1590.99+329581344+330158816+330176960+330225376+330826720+331971776+333574528
1586.49+335526976+337358304+338768416+340119584+341585920+342746144+343687616
1581.99+345135360+347134624+349326496+352121056+355550592+358758112+363776352
1577.49+376683584+399453472+421182976+425462048+411144704+393177696+383337728
1572.99+381996544+384323456+388522240+396983232+410531296+423761536+428658688
1568.49+423684192+415382528+410575264+411294496+416163232+422547328+427458176
1563.99+429315136+429234944+430070048+435813984+451349632+478636192+511603264
1559.49+538843840+553780032+555906304+544179712+521080256+498824896+490528352
1554.99+497945760+510278048+515026240+510119488+502842176+500304704+504274464
1550.49+511766592+518086784+520195648+518314016+515020288+513508160+516255264
1545.99+523439168+531379136+534674784+532904896+532633088+539128768+549088128
1541.49+555902848+560521728+568657472+577276032+573329792+550933632+520407072
1536.99+494979200+479928928+474544768+476787936+483824448+490133152+489266080
1532.49+479890208+467136000+456212448+448162912+442460416+439674400+439475072
1527.99+439377728+438234688+438054816+439733696+439961696+435358048+427958688
1523.49+423906112+427827648+438993376+450650240+453199968+441645024+421024256
1518.99+402617600+394879872+397152512+400714496+397854080+389062304+378871936
1514.49+369716864+362892512+359937248+359523072+357191360+351346720+345613056
1509.99+343399168+344838464+350054880+360811488+376571296+390897536+394010912
1505.49+380524416+354778112+327340544+306823872+295592672+290945920+288711616
1500.99+286870080+286851968+290355296+294913376+295948512+294408576+296315744
1496.49+302097376+302861344+292357888+276488800+264482544+258784928+257250608
1491.99+259110336+264737568+271832832+275585696+273395584+267724832+263081744
1487.49+260921632+258649968+253859792+247824944+243303664+240950560+239753920
1482.99+239403888+240217280+241516672+241828272+240631680+238789152+237420896
1478.49+237501296+240354784+246591728+253756864+257501616+257421728+259032800
1473.99+267187872+279755616+289491232+290822976+283337568+270779648+258911392
1469.49+252130432+250382896+250387936+250105952+250791376+254964768+263196880
1464.99+271704000+273817056+267205664+257721440+252300016+251698832+253174896
1460.49+256434368+262844016+272216320+284763776+302244608+321672512+331574752
1455.99+323288064+303105888+284003200+272492960+267646464+266347024+266447360
1451.49+266606208+265879920+264655616+264981904+268357008+273023360+274967616
1446.99+272391008+267590512+263732768+261725552+260728144+259973840+259338736
1442.49+258906320+258639120+258400096+258041552+257301760+256472208+258118032
1437.99+266383568+281312416+293954816+292921760+278614400+262704880+253761872
1433.49+251050736+250204160+249561216+250049136+252219040+255134144+256724112
1428.99+255367488+252011040+249348592+248413792+248149056+248424832+250511824
1424.49+254073936+256624112+256530544+254318464+251872624+252817104+261333712
1419.99+276610784+289525984+290479584+280893600+270089184+263648448+260669536
1415.49+258876544+257880288+257990384+258940752+260324384+261911600+263420976
1410.99+264527520+265071888+265209296+265501488+266541616+268291760+270368320
1406.50+272935552+276344800+279718912+281172640+280093600+278047424+276696416
1402.00+276096128+276010496+277601888+281911840+287063296+289129248+286492160
1397.50+281666368+278419456+278788896+282400800+286526496+287196608+282577152
1393.00+275127968+268868320+265478512+263912272+262533904+260980048+260692112
1388.50+263416736+268112416+270265216+266533536+259116176+252889472+249893120
1384.00+248730496+247701376+246386736+244942368+243511264+242175808+240885136
1379.50+239718480+239030272+238836368+238565872+238010336+237908320+239081872
1375.00+241387520+243576416+243966176+241815056+238387200+235828336+234899984
1370.50+234784704+234841424+235065040+235059680+234299744+233280576+232802272
1366.00+232562224+232101216+232457984+234902784+238432816+240409056+239723280
1361.50+237676512+235753984+234223216+233017936+232468784+232618544+232838400
1357.00+232735392+232763520+233394416+234219840+234456016+233992496+233410784
1352.50+233132784+233058672+233033136+233264400+234044800+235222768+236259312
1348.00+236815952+236992528+237034336+237154304+237647072+238675312+239827344
1343.50+240391024+240263328+240214080+241128816+243229120+245971376+248397552
1339.00+249688112+249760992+249300400+249011328+248923808+248683936+248399152
1334.50+248784272+250255168+252244368+253880112+255116656+256654112+258798816
1330.00+261027184+262703072+263698080+264284064+264841232+265630288+266577536
1325.50+267396080+267997664+268450560+268611328+268332560+267938688+267879920
1321.00+268105744+268372176+268817184+269578304+270232672+270314720+269984896
1316.50+269668832+269465920+269343904+269460896+269904064+270448128+270768320
1312.00+270675168+270184000+269633248+269530624+270000448+270614304+271020864
1307.50+271390624+271968352+272497632+272501056+271997824+271599296+271850816
1303.00+272679264+273569408+274139008+274367104+274408576+274458976+274753280
1298.50+275378976+276088032+276566176+276848512+277210080+277766208+278413600
1294.00+279013248+279394784+279411808+279203808+279159648+279429632+279777312
1289.50+280072928+280549408+281332704+282092224+282415232+282272576+281923424
1285.00+281557440+281226400+280983840+280940832+281176704+281605312+281975168
1280.50+282103584+282099488+282239520+282620576+283058528+283337216+283480896
1276.00+283717792+284158304+284540416+284419808+283737888+283019936+282850112
1271.50+283280960+283950240+284534944+284870176+284848864+284580640+284519296
1267.00+285115520+286305824+287574432+288508096+289173600+289881952+290732864
1262.50+291550048+292240384+292951104+293781888+294594784+295312928+296107680
1258.00+297064256+297920640+298346880+298237344+297639648+296708544+295781600
1253.50+295147488+294697024+294124864+293394784+292670336+291917184+290974752
1249.00+289912064+289017824+288481664+288228928+287937632+287258816+286240800
1244.50+285430944+285265216+285457120+285326304+284635040+283822720+283442144
1240.00+283571232+283766272+283539744+282884192+282273600+282092608+282184928
1235.50+282010464+281191712+279879488+278654560+277957472+277600864+277009536
1231.00+275919808+274581824+273347424+272392256+271737184+271145152+270172448
1226.50+268683264+267129744+265972160+265110816+264184576+263162032+262276848
1222.01+261622352+261065296+260421312+259583456+258576912+257501232+256358896
1217.51+255081056+253760096+252658720+251933904+251535072+251339008+251165408
1213.01+250824320+250386128+250211184+250457408+250770752+250791008+250701840
1208.51+250946096+251570624+252224848+252650688+252934880+253299712+253879280
1204.01+254673984+255610896+256662960+257910656+259401552+260976816+262403264
1199.51+263672032+265004912+266497776+267974656+269326304+270791200+272658592
1195.01+274818464+276915360+278902816+281083232+283595392+286200992+288649600
1190.51+290933056+293122752+295293760+297640032+300322784+303192672+305941088
1186.01+308480224+310950112+313458272+316066112+318877472+321978080+325410528
1181.51+329189504+333167776+336976864+340380032+343522720+346675744+349956640
1177.01+353412832+357034432+360665824+364267104+368128288+372392992+376605184
1172.51+380238592+383393248+386571136+390096864+394090848+398569440+403297664
1168.01+407922080+412286112+416348096+420067360+423745792+428043904+433182656
1163.51+438567072+443544704+448099584+452570400+457210176+462147072+467326624
1159.01+472419808+477180928+481797664+486637504+491824128+497289408+502957408
1154.51+508655520+514067552+519010944+523725600+528790592+534718976+541588736
1150.01+549029312+556463168+563358464+569536192+575456768+581912384+589216192
1145.51+596982656+604819008+612679232+620414976+627686848+634569408+641614336
1141.01+649156544+657050880+665033344+672816768+680078656+686898048+693900544
1136.51+701519360+709462656+717182528+724426752+731215104+737851264+744971968
1132.01+752972992+761377856+769335872+776628352+783667328+790682496+797463232
1127.51+803894208+810298688+817071616+824149760+831055296+837504832+843726720
1123.01+849953856+855968896+861550464+867063488+872998528+879120256+884693376
1118.51+889438912+893830016+898485632+903589824+908824192+913678784+917919296
1114.01+921733440+925309568+928459968+931005632+933371840+936445120+940781440
1109.51+946065664+951320000+955636736+958866560+961603456+964482624+967637888
1105.01+970902784+974231616+977757504+981600064+985672896+989571968+992869696
1100.51+995713280+998830080+1002648000+1006785088+1010615360+1013916352
1096.65+1016754752+1019246080+1021600064+1023960704+1026132864+1027872704
1092.80+1029393536+1031178112+1033425216+1036037952+1038892288+1041760448
1088.94+1044173696+1045735040+1046557696+1047230080+1048298624+1049823552
1085.08+1051470592+1052999744+1054438272+1055787648+1057001536+1058299008
1081.23+1059978752+1061794752+1063092416+1063689472+1064050240+1064569344
1077.37+1065194496+1065736640+1066102080+1066403584+1067082880+1068551616
1073.51+1070478208+1071866752+1072068544+1071422720+1070890816+1071280000
1069.66+1072561856+1073741312+1073741824+1072513728+1070735488+1068553088
1065.80+1065419968+1061087168+1055837696+1049749376+1042530496+1034056640
1061.94+1024377856+1013387904+1001102848+988090880+975064960+962330880
1058.09+950063872+938620480+927867712+916652864+903955712+890489408+878148800
1053.59+867702912+857980736+847600384+836486720+825247744+814026944+802651520
1049.09+791279040+780311680+769931072+759987712+750094272+739882112+729373504
1044.59+718965504+708842816+698687616+688163328+677433600+667087040+657672128
1040.09+649248832+641291456+633213504+624949632+616721024+608488704+600114304
1035.59+591775808+583665472+575628224+567552128+559664000+552068480+544659008
1031.09+537748352+531962784+527208000+522608864+517701632+512872832+508405888
1026.59+503931424+499099392+494238816+490038304+486800256+484155456+481522848
1022.09+478768448+476226432+474091712+472179296+470383392+468933024+468089440
1017.59+467976128+468629088+469820032+471029440+472044480+473331872+475463040
1013.09+478506080+482238752+486404192+490503200+494040960+497375744+501753472
1008.59+507946400+515164480+521825056+527327456+532674784+539124992+546626816
1004.09+554123456+561149376+568239936+575765568+583342656+590610688+597670720
999.59+604536704+611059200+617575680+624692096+632203328+639088576+644894528
995.09+650406656+656620800+663526336+670274880+676203264+681368448+686184384
990.59+690874240+695377344+699543232+703264128+706506240+709307456+711674688
986.09+713588096+715200640+716775296+718243776+719227904+719704128+720067584
981.59+720288064+719717184+718069184+715868480+713609088+711205824+708524416
977.09+705713280+702829440+699734720+696440256+693011456+689235584+684842112
972.59+679901440+674696704+669431872+664258944+659242368+654125376+648470336
968.09+642171776+635573120+629070720+622848256+616976064+611467648+606111296
963.59+600429120+593993728+586872896+579678912+573118528+567457152+562380288
959.09+557302080+551842880+546190144+540950016+536470560+532363008+527878112
954.59+522687616+517115776+511721856+506896480+502733888+499045088+495456192
950.09+491673728+487748832+484025344+480762112+477799872+474679424+471192096
945.59+467721952+464782912+462301472+459724000+456887104+454250080+452111136
941.09+450200032+448384448+447075648+446394944+445626304+444142976+442283776
936.59+440715488+439559808+438684896+438171136+437967584+437727808+437356032
932.09+437107136+436931680+436308416+434843392+432651904+430216416+428120064
927.59+426591776+425247072+423678048+422160576+421142688+420309152+418931776
923.09+416901696+414696416+412632928+410775072+409260320+408235808+407674720
918.59+407424096+407224736+406773120+406050336+405361056+404840960+404240960
914.09+403322944+402136544+400938560+400110464+399921632+400077984+399855072
909.59+398915168+397604064+396369760+395379168+394678592+394252992+393984416
905.09+393865376+394006464+394265216+394351872+394405280+394860288+395649760
900.59+396282176+396724864+397529152+398960288+400672160+402324064+403986496
896.09+405804160+407626720+409131008+410214944+411115616+412110784+413211680
891.59+414321696+415529888+416977760+418571968+420185504+421998464+424248032
887.09+426768576+429083520+430791616+431671168+431804256+431834016+432609984
882.59+434356032+436625792+439112256+441820416+444443488+446391936+447611712
878.10+448609824+449605280+450386304+450992992+451846720+453214752+454965792
873.60+456673632+457682848+457589696+456889952+456517632+456631968+456649152
869.10+456480672+456744896+457634048+458517696+458840384+458688768+458373152
864.60+457957888+457226080+455992128+454584576+453860512+454215360+454866528
860.10+454736960+453684672+452250848+450815744+449692288+449225248+448994944
855.60+447748160+444923680+441487040+438614400+436483424+434767872+433315552
851.10+431807456+429727232+427141376+424672000+422509344+420406688+418598528
846.60+417579808+416820192+414845024+411154656+407299488+405293952+405234368
842.10+405231872+403936480+402282080+401965984+402724128+402370656+399416608
837.60+394795552+390945856+389666688+390468096+390716864+388223680+383762848
833.10+379999040+378043616+376394976+373424736+369323488+365505664+363322720
828.60+363291264+364410688+364491488+362263456+359001024+357240192+357969216
824.10+359763328+360680800+360376000+359948416+359996704+359811584+358776000
819.60+357424960+356401632+355493280+354418432+353395008+352254272+350435872
815.10+348523008+348186432+349835296+351764128+352347840+351726400+350784320
810.60+349861216+349179936+349374624+350661536+352189504+353038976+353420768
806.10+354090752+355024672+355742784+356612352+358474240+360914688+362297440
801.60+361878976+360889088+361208352
##END=
