##TITLE=octarelline 6 front
##JCAMP-DX=4.24
##DATA TYPE=INFRARED SPECTRUM
##DATE=31/1/2005
##TIME=16:46:0
##SAMPLING PROCEDURE=film
##ORIGIN=Vincent
##DATA PROCESSING=no operation
##XUNITS=1/CM
##YUNITS=ABSORBANCE
##RESOLUTION=2
##FIRSTX=4000.283
##LASTX=800.31372
##DELTAX=-0.64282227
##MAXY=0.15086256
##MINY=0.0035556648
##XFACTOR=1
##YFACTOR=1.4050171e-010
##NPOINTS=4979
##FIRSTY=0.0041322559
##XYDATA=(X++(Y..Y))
4000.28+29410717+29863292+29822548+29443270+28848862+28163092+27844802+28326150
3995.14+29156276+29254854+28361662+27515948+27638264+28264234+28312204+27588634
3990.00+26851100+26723242+27054426+27248840+26898122+26201822+25833014+26200520
3984.86+27002944+27755194+28439760+29235508+29934542+30143834+29790742+29023672
3979.71+28010820+27117060+26817092+27095500+27429514+27576552+27864508+28517484
3974.57+29220074+29562126+29492374+29209472+28936452+28850350+29007492+29291678
3969.43+29477864+29363476+28883634+28213846+27694404+27550152+27716342+28004872
3964.28+28404988+29078352+29973236+30639870+30717462+30490830+30438168+30355932
3959.14+29694754+28682794+28184844+28429350+28801624+28837142+28585914+28158998
3954.00+27691802+27466876+27561860+27865994+28655646+30262722+32149680+33376008
3948.86+33887652+34206376+34196504+33328704+31769182+30156114+28909858+28544816
3943.71+29802646+32520544+35086536+35815964+34424716+31773832+28857786+26477942
3938.57+25306916+25559364+26670650+27773602+28531058+29161670+29816786+30651406
3933.43+32255612+34941192+37660816+38825900+38132316+36470996+34565564+32829998
3928.29+31707566+31113836+30570654+30530086+31981388+34323556+35521488+34742380
3923.14+33001130+31367508+30454730+31014276+33048988+35136660+36365484+37904200
3918.00+40992156+44442788+45629136+43378720+38928892+34387456+30997900+28895350
3912.86+27857814+27664476+27755010+27464274+26794978+26234710+25983690+26124340
3907.72+26957224+28603764+31369186+36617348+45050116+54010992+59560900+61517716
3902.57+62731124+63748268+62961076+61338796+61578236+62648772+60241092+53028532
3897.43+44340740+37389100+32586452+29464100+28127576+28519158+30493434+34989264
3892.29+43060540+52771580+58739472+56926664+49049200+40149884+33747020+31680760
3887.15+36040944+47112612+59824812+66366872+63851908+56226948+48476460+43019068
3882.00+41272780+44261120+50329628+54704024+53550936+47724384+41017548+35860328
3876.86+32479208+31250438+33405622+38813028+44605028+47122152+45177984+41649968
3871.72+42167088+50947280+66044060+78988752+81613672+73433496+60611208+49996316
3866.58+46049116+49824616+57612852+62479000+60639580+55434724+52393220+52232436
3861.43+51230312+47003736+41007652+35799196+32971338+33248436+35675060+38134372
3856.29+42483868+56766596+86515520+123786208+150361360+156301280+147147184
3851.79+130299536+108092368+83975408+63701260+49717148+40508828+34654808
3847.29+31722274+30434636+29622950+30290998+33986004+39611828+43919120+45374476
3842.15+46055288+48616076+52442872+55326316+59058324+68869576+84588272+96442960
3837.01+95386296+84995024+75208248+69133704+62960884+55096172+49237136+48599416
3831.86+51379420+52758084+49782304+43602004+37646828+34652760+35239712+38023016
3826.72+40526376+40843176+39119388+36961340+35791176+37231336+44176084+58278152
3821.58+75482168+86916472+86663120+76681248+63142340+52256804+49933780+59578376
3816.44+76868984+89552496+87773280+73891432+57488592+44692320+36064804+30615868
3811.29+27913960+27151076+27046808+27936084+32800396+44420736+60558596+72975632
3806.15+74158072+65220152+53714784+45641848+43788680+50717104+67184312+86745544
3801.01+97107736+91597472+75862240+60016600+49787736+46057532+47156384+49622972
3795.87+49675212+46023312+40358752+34932432+30981336+28983690+28738026+29231790
3790.72+29472658+29346736+29213190+29218956+29395094+29793904+30378256+31306092
3785.58+32941726+34899640+35779624+34774052+32708414+30865402+30140672+31770670
3780.44+36722684+43293148+47296132+46183764+41580132+36814792+33660040+32021968
3775.30+31178048+30578466+30089324+29741446+29547246+30299370+34016556+41801416
3770.15+51059108+56610104+55488932+49691496+43863056+41516828+43094544+46044816
3765.01+46868304+44141140+39481944+35443028+33338202+33647928+37215488+44119640
3759.87+51446292+54696900+52831740+49652176+48637412+49008764+48099556+45260808
3754.72+42707092+45104888+57649260+79818792+100969568+109751216+109461816
3750.23+112466224+120556616+122237312+109752928+89335728+72705888+69154048
3745.73+84275104+114836920+142919072+146875520+125258752+95847496+72695328
3741.23+58042156+49391768+44980572+44000412+46559868+53628736+64916836+77498960
3736.08+87608008+92523736+90935016+84550784+78970416+78956616+82440264+82217368
3730.94+74545704+62821752+52214268+45152932+42485928+44627272+49973664+54752408
3725.80+56114372+54205608+50954776+48592496+48894580+51450980+52970800+50775160
3720.66+46490108+43772796+43397220+43147232+41573780+39461232+38073932+37804608
3715.51+38163092+38589340+40467580+47633824+61800212+77423776+85302968+83138368
3710.37+77420184+73475944+69880640+63515812+55067856+47536352+42637788+40206816
3705.23+39066772+38080832+37647760+39749364+45238368+51690776+55189948+54006688
3700.08+49679144+44865976+41185584+39024604+38340860+38740268+39089904+38329296
3694.94+36813852+35814660+36166952+38855376+45418976+55144560+63741500+68894624
3689.80+75149544+87506032+101495760+105567448+94960888+76939816+60832176
3685.30+50144236+43950324+40465340+38365856+37012988+36513876+37357212+39968464
3680.16+44189916+48541768+50969388+52063808+56844656+70814376+93221464
3675.66+114799256+123988336+116693008+98632104+79822192+69427064+72372600
3671.16+86004192+100470112+106465304+102879248+93990584+82846736+71027960
3666.66+60804552+53781144+49475444+46923672+45820980+45609312+45573040+45930372
3661.52+47074072+48396360+49260532+49808328+50352100+52106340+58060176+69516760
3656.37+81793776+87332432+83911408+76048800+69025752+65787152+67995568+76205344
3651.23+89182120+104526536+119150448+129229520+132265712+129365168+123077520
3646.73+114119384+102672016+90957408+81848072+76239704+73419528+72644584
3642.23+73203136+74134488+74816560+75197112+75387784+75752160+76954168+79068888
3637.09+81125664+82337512+83328960+85470960+89168656+93196968+95689952+95946880
3631.95+95711424+98884904+109436056+128137984+149938944+165234576+166626688
3627.45+155189104+138505808+123664640+113539808+107794360+105173216+104602576
3622.95+105268712+106904312+110428408+117414408+127766016+138246080+144672800
3618.45+145650832+142819312+138182496+133238864+129759992+129077008+131050264
3613.95+135034848+140503408+145403648+146479280+143830560+142504624+146532208
3609.45+153673376+158486512+158852880+156653616+153640448+150092912+146517136
3604.95+143896176+142428416+141573872+141258720+142215248+145013184+148956832
3600.45+152255744+153690224+153816672+154001008+154840416+156328416+158704704
3595.95+162003744+165387920+167949952+169622000+170682528+171017424+170400208
3591.45+169128432+168470752+170455136+176284416+184587424+192321424+197606784
3586.95+200229104+199782720+195828688+189841760+184516432+181109680+179143632
3582.45+178190480+178375888+179648928+181765360+184489824+187176192+188949920
3577.95+189724608+190190304+190770896+191433952+192339232+193722224+195292464
3573.45+196571152+197664352+199055024+200757120+202350192+204131104+207617920
3568.95+214054416+222428736+229852816+234132048+235139792+233677600+230457792
3564.45+226559696+223405760+221702832+221142320+221296080+222111776+223520240
3559.95+225115184+226371184+227015104+227262592+227629632+228422432+229550160
3555.45+230878656+232457520+234392576+236753696+239456016+241977360+243634128
3550.95+244289872+244410512+244514192+245197824+247265824+250880560+255004160
3546.45+258494384+261147200+262965104+263515008+262922992+262369408+262666624
3541.95+263317792+263634368+263780464+264187408+264842896+265731216+267237232
3537.45+269577120+272221408+274267264+275252352+275457376+275566336+276193440
3532.95+277616672+279598560+281506656+283009280+284635648+287190944+290542016
3528.45+293497600+295008480+295163776+294977472+295443072+296779104+298536320
3523.95+300355808+302233280+303866144+304562208+304398368+304678720+306371648
3519.45+308733664+310240416+310392192+309983776+309996192+310745984+311954336
3514.95+313427200+315407680+317964000+320360224+321842624+322864448+324542400
3510.45+327072544+329651072+331741696+333407040+334635968+335285216+335534304
3505.95+335873568+336907456+339225888+342796512+346385728+348442720+348683584
3501.45+348173408+347984128+348469120+349506400+350870944+352430144+354262496
3496.95+356353920+358218752+359364032+359977504+360631040+361426624+362035936
3492.45+362412320+362984096+364197088+366076416+368159872+369951520+371532640
3487.95+373407072+375587872+377372768+378315680+378811296+379481152+380572832
3483.45+382122752+384073312+386123232+387913152+389282240+390126336+390452448
3478.95+390761440+391701760+393192832+394610656+395786080+396972768+398080512
3474.45+398864384+399582848+400626112+401942272+403459008+405353376+407438016
3469.95+409081344+410153504+411200960+412601248+414331840+416367520+418417056
3465.45+419688032+419873312+419842976+420571104+421950304+423265216+424199008
3460.96+424896896+425619520+426570080+427666656+428631616+429618496+431239360
3456.46+433645760+436247936+438536608+440376288+441442752+441395360+440784000
3451.96+440785056+441850816+443424288+445002432+446709952+448775840+451041792
3447.46+453168352+455010560+456672256+458207776+459401184+460115232+460816320
3442.96+462198656+464117280+465537760+465845312+465655040+465947488+466929376
3438.46+468083520+469006880+469798048+470740352+471845536+472920160+474043392
3433.96+475628640+477704256+479568480+480675456+481483392+482747424+484367328
3429.46+485656416+486435648+487089120+487799232+488409216+488822624+489101856
3424.96+489511360+490622368+492801888+495404576+497217440+497920384+498414720
3420.46+499594400+501475104+503531520+505198784+506057760+506193888+506377024
3415.96+507297184+508700832+509814400+510425024+511073600+512209728+513675232
3411.46+515024128+516105248+517167520+518455008+519850592+521028160+521959264
3406.96+522987232+524285792+525504800+526265760+526814080+527796480+529450848
3402.46+531347488+532956416+534100032+534812032+535137152+535228320+535315648
3397.96+535458496+535582944+535894080+536885312+538683648+540691264+542260992
3393.46+543537344+545153600+547130432+548706112+549405696+549684288+550206592
3388.96+551068160+552180736+553719296+555645376+557296640+558090880+558226112
3384.46+558304512+558681984+559429440+560457856+561499392+562439488+563611264
3379.96+565371136+567487552+569367808+570697984+571544576+572140672+572768512
3375.46+573630720+574712256+575969920+577500800+579268224+580989312+582511808
3370.96+583931264+585152704+585861888+586073408+586223104+586632512+587321344
3366.46+588318144+589669312+591163520+592451840+593440320+594349952+595400256
3361.96+596550912+597532544+598139456+598529344+599099392+600035456+601223616
3357.46+602601600+604276864+606178688+607893760+609102848+609988992+611022400
3352.96+612348480+613513920+614018624+614069184+614545920+616032832+618116736
3348.46+619839168+620681792+620898432+621049600+621435840+621953536+622353024
3343.96+622652032+623275712+624655488+626725120+628925312+630668736+631733184
3339.46+632401408+633339008+635005888+637045568+638644032+639616576+640552064
3334.96+641793792+643022592+644022912+644971584+645834496+646379712+646978624
3330.46+648321728+650219712+651689792+652374592+652931840+653890752+655050816
3325.96+656098112+657080768+658085696+658983936+659681984+660441088+661781632
3321.46+663877888+666119168+667614464+668187264+668511296+669247040+670439808
3316.96+671706176+672670016+673355072+674359808+676226880+678583808+680555072
3312.46+682007488+683550272+685347392+686891840+687918656+688720832+689609408
3307.96+690722368+692204288+694015936+695800768+697189312+698023680+698355520
3303.46+698553920+699170624+700365120+701886784+703672192+705715840+707356928
3298.96+707803776+707469184+707672192+708996928+710907520+712711616+713901824
3294.46+714037440+713387264+713195392+714320576+716143872+717542720+718254336
3289.96+718653568+718968448+719271168+719603904+719809216+719761408+719762048
3285.46+720100672+720443008+720343680+720076992+720221632+720704256+720931520
3280.96+720743296+720691072+721370752+722723648+723974912+724207808+723095488
3276.47+721106176+719044928+717493504+716672320+716549696+716901184+717375680
3271.97+717598272+717287168+716352512+714939520+713382656+712077120+711264128
3267.47+710735360+709956032+708733952+707451840+706353216+705203392+704083904
3262.97+703705024+704241856+704674560+704118720+703049536+702373504+701985344
3258.47+701080448+699388672+697389632+695600640+694125440+692829888+691722880
3253.97+690986688+690576384+690026688+689007744+687752256+686651648+685861952
3249.47+685566336+685989312+686699008+686655360+685357248+683432128+681871936
3244.97+681218240+681440128+682013888+682164672+681489088+680267584+679006208
3240.47+677951616+677125376+676444864+675768960+675109952+674686848+674625600
3235.97+674855104+675260480+675557440+675197952+674073856+673031424+672943296
3231.47+673435136+673304896+672092608+670535936+669617408+669753280+670727936
3226.97+671788864+671925952+670731456+668981440+667913472+667947328+668488640
3222.47+668831104+668647360+667794624+666326464+664720384+663554752+663006784
3217.97+663029376+663598144+664341312+664535744+664027904+663514752+663446336
3213.47+663399488+662965184+662399488+662027456+661832896+661835712+662076032
3208.97+662178496+661624384+660465920+659205568+658129664+657202752+656407936
3204.47+655794176+655319808+654866176+654335808+653766464+653349696+653214976
3199.97+653207424+653094144+652874752+652565696+651892288+650591936+648935168
3195.47+647590528+646892032+646490752+645808128+644801344+644027072+643861888
3190.97+643939392+643736960+643360000+643210240+643089984+642311296+640779648
3186.47+639363712+638923776+639254528+639324352+638446912+636892992+635338688
3181.97+634114112+633149568+632292608+631438528+630606272+629978240+629557440
3177.47+628880448+627540224+625852416+624536384+623840192+623433728+622934016
3172.97+622168704+621164032+620128256+619289984+618625792+617976128+617309952
3168.47+616615616+615755136+614687296+613687616+613085248+612911552+612877440
3163.97+612641152+612085056+611333952+610494208+609521536+608475584+607584640
3159.47+606828096+605881728+604674688+603520192+602590656+601778496+601068288
3154.97+600491072+599793216+598713344+597369984+596063616+595042560+594574784
3150.47+594602304+594365120+593221824+591759808+591102400+591242304+591132480
3145.97+590274304+589142208+588172480+587311232+586488768+585748288+584927680
3141.47+583785792+582356992+580862144+579465344+578291520+577406912+576624576
3136.97+575702400+574793024+574362304+574549632+574917696+574939392+574466752
3132.47+573664384+572712064+571690240+570666560+569802176+569196160+568653824
3127.97+567850624+566863872+566160768+565852352+565421568+564475392+563296384
3123.47+562391040+561989248+562016640+562078144+561612032+560657728+560030080
3118.97+560020352+559662592+558200128+556399232+555337792+554847424+554222720
3114.47+553550336+553296832+553332928+553142592+552411648+551097344+549439360
3109.97+547953024+546940928+546209856+545519936+544787904+543712640+542009088
3105.47+540094784+538808576+538462784+538708608+538945728+538456384+536842112
3100.97+534783552+533541216+533399552+533473120+533132448+532636864+532353152
3096.47+532229984+532043104+531546336+530617216+529561312+528785088+528079968
3091.98+526890272+525313696+524069920+523553952+523598016+523936128+524265536
3087.48+524190432+523595456+522760896+521885248+520947648+520078144+519446528
3082.98+518819712+517831648+516567968+515343616+514133344+512809504+511605056
3078.48+510852256+510525600+510403264+510365248+510233312+509755104+508971456
3073.98+508252544+507804832+507427488+506821408+505857504+504596832+503331392
3069.48+502447104+502029184+501761600+501385376+500968096+500525024+499809792
3064.98+498740992+497689248+497031360+496754816+496658560+496575488+496238208
3060.48+495355072+494099904+493145664+492904736+493026592+492894720+492366720
3055.98+491678400+490871104+489738432+488285984+486827072+485567008+484425920
3051.48+483400096+482779072+482737280+482894592+482595136+481549728+479975008
3046.98+478166208+476303200+474656416+473544704+472931456+472408960+471718464
3042.48+470932160+470063552+468978816+467787264+466811264+466056992+465231872
3037.98+464270208+463270464+462032416+460442144+459146112+458861248+459081792
3033.48+458538752+457014560+455628224+455129696+454929728+454197248+453016512
3028.98+451914208+450902976+449655968+448256704+447124000+446336736+445525888
3024.48+444445920+443194400+441875008+440480800+439157056+438158464+437445408
3019.98+436604576+435269152+433488672+431775744+430796064+430796864+431265216
3015.48+431379360+430762816+429565568+428044800+426449728+425129440+424296000
3010.98+423758336+423168224+422406720+421562368+420709376+419791008+418664256
3006.48+417380416+416383968+416074528+416116256+415730144+414732128+413624480
3001.98+412694944+411753664+410859232+410435840+410516288+410551168+410211808
2997.48+409855424+409920032+410227136+410166144+409407552+408186240+406919104
2992.98+405827680+405005504+404509696+404208128+403855840+403487136+403367072
2988.48+403489504+403565696+403557056+403668128+403853536+403844672+403580160
2983.98+403157600+402585792+401986752+401675392+401666944+401577792+401296032
2979.48+401237088+401705600+402492672+403293440+404060096+404769440+405265408
2974.98+405464512+405560320+405883168+406569856+407404416+408049568+408420448
2970.48+408660352+408874464+409131264+409564320+410171840+410749376+411243744
2965.98+411838336+412508992+412995616+413364992+413969472+414688288+414896480
2961.48+414385344+413757568+413729760+414431456+415458016+416265504+416480576
2956.98+416021152+415046496+413820384+412597472+411475040+410299488+408929728
2952.48+407526752+406343552+405347104+404372128+403493056+402931104+402714272
2947.98+402631200+402448832+402096288+401763520+401727840+401949408+402017568
2943.48+401702656+401308224+401326464+401933472+402832448+403395872+403166624
2938.98+402462880+402186528+402815520+403928928+404799936+404965824+404256864
2934.48+402930688+401734976+401214880+401107488+400903392+400582240+400235840
2929.98+399578432+398489824+397493856+397090112+397109376+397145632+396997440
2925.48+396412448+395135072+393502496+392303456+391811360+391493888+390800992
2920.98+389689312+388290624+386612384+384725312+382890496+381310624+380035488
2916.48+379108288+378526208+377959424+376809152+374833216+372608480+371056256
2911.98+370474624+370259488+369690944+368705536+367686080+366683136+365296288
2907.49+363409760+361628544+360614912+360164192+359410592+357953760+356274752
2902.99+354954272+354086464+353651392+353778208+354170944+353928416+352599072
2898.49+351023040+350415456+350748576+350734912+349460416+347526784+346249696
2893.99+345981184+345749984+344631168+342930944+341606336+341018112+340851264
2889.49+340872032+341059648+341234720+341209216+341089056+341008224+340876736
2884.99+340697824+340683392+340793632+340717312+340473568+340478112+340896928
2880.49+341503232+342169984+342904384+343446816+343442720+343006912+342655936
2875.99+342677376+342845120+342709632+342053312+341137216+340536320+340596576
2871.49+341081856+341424608+341250976+340625600+339865184+339169760+338406848
2866.99+337379040+336296928+335671104+335707232+336040352+336148800+335787328
2862.49+335039424+334124608+333189728+332166112+330980000+329830848+328978848
2857.99+328269856+327258944+325880000+324610336+323931648+323891968+324228320
2853.49+324629600+324822976+324650880+324211520+323806432+323627808+323492608
2848.99+322977536+321889024+320579936+319698592+319547232+319707776+319403584
2844.49+318259104+316618848+315089632+313929408+313023872+312204000+311366816
2839.99+310450240+309569536+309070208+309143968+309490720+309533504+308904256
2835.49+307649920+306153216+304951808+304461216+304692576+305179392+305260928
2830.99+304633184+303702912+303153984+303005216+302491712+301126880+299442048
2826.49+298273280+297786368+297598752+297427712+297176032+296758400+296197888
2821.99+295646848+295124640+294504032+293751040+292920096+292016800+291157344
2817.49+290641600+290570752+290623584+290510240+290314720+290037088+289245536
2812.99+287692768+285958496+284910784+284717440+284811392+284664928+284132256
2808.49+283308320+282493056+282069920+282051776+282001120+281681632+281362560
2803.99+281214656+280961440+280403584+279705440+278932256+277939584+276876256
2799.49+276202272+276064480+276186560+276284704+276122496+275416896+274228608
2794.99+273131744+272542336+272234272+271809536+271246528+270746720+270404256
2790.49+270154752+269774144+269024736+268029392+267255104+266926272+266784288
2785.99+266567184+266300288+266023936+265614592+264969552+264162320+263445408
2781.49+263141024+263285072+263380768+262832320+261567264+259997264+258579520
2776.99+257695856+257521808+257696224+257542448+256920544+256384032+256323376
2772.49+256490944+256471712+256116608+255411152+254427952+253452288+252811008
2767.99+252565088+252494144+252283008+251659760+250643792+249669520+249185008
2763.49+249112704+248922192+248219568+247143248+246217376+245816400+245718432
2758.99+245372928+244665152+244018688+243619168+243110864+242318128+241632736
2754.49+241323152+241103248+240661488+240061472+239408048+238711712+238206240
2749.99+238131824+238180368+237775632+236936272+236236800+235973456+235874848
2745.49+235604864+235085920+234394960+233664656+233006016+232394976+231770752
2740.99+231269968+231031904+230817872+230221392+229281888+228502000+228168736
2736.49+227998544+227536640+226712944+225874624+225362688+225104672+224710784
2731.99+224015824+223340208+223036624+222988688+222811488+222386976+221877600
2727.49+221325168+220586240+219694800+218992016+218777072+218917664+218946944
2723.00+218565264+217957280+217506976+217257504+216918160+216393888+215935680
2718.50+215647840+215237744+214500672+213702752+213182576+212904464+212656160
2714.00+212368048+211969424+211294688+210439824+209851936+209786704+209961008
2709.50+209977552+209815472+209729120+209863584+210103760+210134512+209715904
2705.00+208962416+208186624+207459488+206637984+205817664+205261424+204848368
2700.50+204203712+203407664+202972432+203066096+203313408+203351392+203118224
2696.00+202646448+202011120+201385136+200861520+200406592+200090320+199971408
2691.50+199715312+198856752+197543536+196467856+196012592+195984544+196151392
2687.00+196460992+196698352+196481200+195737600+194840720+194180512+193825616
2682.50+193568064+193133616+192413552+191669344+191343968+191507056+191647600
2678.00+191245376+190392896+189569648+189004960+188623440+188427024+188473632
2673.50+188563504+188423904+188109024+187765232+187159552+185993376+184593296
2669.00+183693376+183570800+183888112+184297392+184655488+184691664+184030656
2664.50+182728448+181412496+180732464+180773296+181073920+181136640+180889520
2660.00+180637920+180596320+180566240+180209408+179554048+179015968+178871104
2655.50+178909184+178740512+178290976+177766192+177301392+176862608+176425632
2651.00+175980928+175463936+174898288+174492608+174388496+174481296+174650704
2646.50+174879200+174964992+174523984+173572032+172726368+172496480+172670848
2642.00+172680592+172286080+171700384+171279536+171288672+171735040+172268368
2637.50+172435888+172132784+171655200+171245648+170772464+170000384+169070240
2633.00+168462208+168424064+168648592+168700144+168561040+168524256+168689456
2628.50+168852496+168820000+168584976+168240784+167950544+167861248+167894144
2624.00+167781312+167468352+167216096+167112832+166823856+166119808+165370256
2619.50+165154512+165557424+166140992+166465312+166411248+166124848+165851920
2615.00+165745584+165735680+165666272+165575888+165664928+165940368+166059728
2610.50+165666864+164822384+164040112+163842144+164257136+164814992+165096192
2606.00+165140512+165152576+165044512+164626304+164098976+163928784+164253232
2601.50+164742128+165018272+164956272+164653712+164373328+164373712+164625904
2597.00+164806240+164715696+164474944+164242752+164023392+163873792+163968224
2592.50+164296768+164535568+164410224+164035056+163734912+163626688+163550560
2588.00+163414576+163439840+163845840+164398944+164594032+164346512+164122880
2583.50+164281408+164635632+164829376+164812672+164766416+164785840+164804688
2579.00+164706752+164477264+164309008+164435488+164806240+165127088+165255376
2574.50+165269184+165160528+164838896+164494560+164554976+165156064+165943296
2570.00+166445664+166456736+166085008+165612048+165263936+165045088+164869600
2565.50+164808400+164974160+165256928+165482576+165740144+166206320+166728768
2561.00+166921088+166706976+166447216+166512928+166889200+167230672+167237296
2556.50+166990496+166906896+167276208+167889264+168301488+168390800+168451872
2552.00+168715904+169051760+169224368+169231568+169217184+169253760+169403808
2547.50+169796000+170394576+170846272+170859120+170652944+170704336+171123552
2543.00+171617408+172014944+172434720+172908736+173237456+173330784+173382432
2538.51+173574000+173869248+174226512+174728880+175327456+175693264+175617808
2534.01+175397072+175510560+175988736+176436752+176609392+176644304+176750048
2529.51+176995456+177450672+178195728+179123744+179956320+180526800+180849872
2525.01+180921744+180714896+180404528+180386352+180938352+181904304+182784928
2520.51+183158672+183029856+182747200+182618784+182683680+182869184+183187216
2516.01+183660144+184201776+184704192+185181248+185675424+186121312+186398400
2511.51+186536768+186739504+187166016+187753856+188280160+188589760+188728608
2507.01+188869216+189134816+189482288+189774960+189920320+189939520+189916800
2502.51+189966752+190227536+190730144+191313808+191807952+192284736+192928688
2498.01+193661616+194153024+194235808+194114160+194127904+194431616+194916080
2493.51+195352320+195648496+195961776+196454128+196991920+197279200+197295680
2489.01+197351472+197699680+198286816+198886016+199319520+199530752+199590720
2484.51+199638256+199735920+199808672+199780944+199769744+200019536+200594528
2480.01+201216816+201561712+201678720+201953472+202642320+203633376+204620016
2475.51+205319296+205537088+205263392+204706624+204145664+203764064+203685920
2471.01+204023040+204782416+205784016+206659248+207012848+206774496+206384496
2466.51+206364000+206709472+207023712+207159024+207322944+207622640+207926480
2462.01+208118608+208197056+208232944+208391376+208799968+209341504+209814288
2457.51+210189360+210416960+210294080+209913472+209806016+210169648+210493456
2453.01+210413984+210344752+210708448+211210656+211397664+211385616+211533392
2448.51+211856944+212185696+212503984+212833008+213031200+213005520+212918672
2444.01+212965840+213036512+212824320+212339424+212073216+212417952+213093376
2439.51+213480656+213419840+213306928+213468816+213793184+213988448+213927040
2435.01+213741840+213673344+213786480+213850832+213693680+213540672+213699984
2430.51+214018848+214073952+213831280+213653008+213699376+213758624+213677696
2426.01+213606000+213783888+214279296+214903552+215324272+215349728+215153216
2421.51+215046128+215080528+215092560+215031136+214984528+214975648+214994800
2417.01+215101840+215273872+215345600+215285936+215287120+215420080+215466880
2412.51+215244480+214849232+214504416+214339312+214345264+214422480+214512112
2408.01+214676048+214891696+214901584+214592304+214337936+214553984+215073792
2403.51+215383520+215243296+214751104+214073360+213486384+213292720+213447104
2399.01+213561984+213423808+213185152+213069472+213191072+213552112+213918544
2394.51+213942832+213623776+213316992+213194016+213108368+213029792+213083472
2390.01+213167600+213076976+212941952+213088432+213525280+213970272+214246352
2385.51+214377824+214477568+214756992+215439616+216534160+217863392+219372960
2381.01+221224224+223598256+226534720+229909376+233509440+237257168+241387264
2376.51+246261680+251977344+258296688+264964960+271969088+279428160+287337728
2372.01+295479200+303627104+311786624+320093152+328488448+336674080+344408512
2367.51+351668704+358467456+364736896+370445184+375676928+380491808+384752256
2363.01+388094688+390141632+390825440+390486976+389532576+388025312+385669632
2358.51+382113792+377175616+370930176+363687200+355772800+347262912+338057024
2354.02+328132384+317536864+306235584+294156928+281320800+267927504+254823088
2349.52+244089664+238470144+239479296+246138368+255869840+266404304+276626592
2345.02+286154720+294807040+302467776+309080192+314672864+319451392+323679808
2340.52+327354144+330101440+331556480+331874816+331800576+332077664+332723520
2336.02+333041344+332473856+331246176+329957312+328734368+327134816+324840608
2331.52+322126592+319490816+317017472+314309344+310996000+307104928+302920480
2327.02+298715296+294720288+291082880+287686528+284188640+280403808+276468224
2322.52+272518752+268476512+264323872+260295856+256550784+252876400+249022032
2318.02+245156144+241669776+238647648+235811424+232950768+230097120+227324640
2313.52+224655680+222138512+219814832+217646320+215608128+213711456+211824032
2309.02+209704272+207398224+205352000+203920512+202975792+202127952+201146416
2304.52+200054144+198958528+197901616+196830128+195730160+194695696+193745184
2300.02+192720032+191572336+190567104+189926192+189482672+188951696+188313648
2295.52+187716672+187228240+186873008+186638912+186348128+185784768+184990160
2291.02+184229344+183693376+183378800+183138928+182763232+182195856+181698544
2286.52+181510000+181397856+180877216+179874672+178847504+178270688+178223456
2282.02+178454752+178629248+178521888+178106928+177521296+176974000+176661280
2277.52+176632592+176704976+176618960+176335536+176080784+176040032+176096992
2273.02+175910528+175282608+174446208+173883488+173814672+174003136+174108800
2268.52+174051872+173893216+173606736+173164384+172716048+172432976+172241856
2264.02+171866128+171202032+170510624+170125920+170033264+169931088+169687568
2259.52+169469776+169373648+169267968+169085232+168936368+168800544+168465504
2255.02+167917680+167467376+167330080+167375968+167380240+167251312+166951808
2250.52+166487072+166023184+165750832+165621760+165416688+165070752+164731824
2246.02+164507392+164342416+164136080+163889728+163714912+163694880+163699936
2241.52+163458288+162942224+162513824+162430528+162418080+162044512+161338064
2237.02+160682032+160275104+160030608+159851136+159709904+159590976+159545760
2232.52+159634624+159715712+159540336+159139760+158855808+158913008+159177968
2228.02+159336448+159167104+158737680+158428736+158553616+158855584+158700816
2223.52+157906320+157035280+156692576+156857904+157108544+157190928+157106816
2219.02+156826320+156258064+155493072+154861136+154663568+154890976+155223968
2214.52+155266784+154843104+154175120+153713264+153659424+153712496+153449744
2210.02+152872992+152351360+152101488+152010336+151955376+152020416+152278976
2205.52+152559424+152563680+152214720+151762832+151494832+151408528+151288768
2201.02+151026816+150694448+150357680+150004512+149641712+149294032+148953360
2196.52+148627008+148358528+148156912+148008864+147951456+147975040+147924784
2192.02+147715104+147512768+147480112+147496528+147378464+147174416+146990464
2187.52+146744720+146348496+145910592+145583056+145383744+145287376+145288144
2183.02+145288736+145138112+144816256+144476640+144296512+144316016+144371056
2178.52+144196720+143721888+143201584+142930464+142932576+143042960+143129600
2174.02+143070944+142731536+142161216+141622288+141310416+141214944+141246384
2169.53+141272240+141084992+140622176+140161184+140039936+140246416+140513248
2165.03+140660544+140624880+140328528+139770640+139146160+138724320+138616592
2160.53+138709664+138768048+138625264+138358784+138163808+138050144+137824544
2156.03+137420400+136985920+136617136+136284384+136078368+136218160+136694160
2151.53+137157504+137301376+137187552+137098560+137151344+137184272+137012096
2147.03+136693184+136439776+136305376+136156336+135943024+135767264+135592656
2142.53+135221328+134660512+134236592+134149616+134194832+134103240+133914880
2138.03+133830224+133868328+133858512+133649384+133250808+132820328+132543968
2133.53+132488008+132554728+132585504+132483008+132289552+132139376+132070344
2129.03+131883448+131396856+130845944+130726592+131154056+131677536+131859040
2124.53+131726576+131514128+131290160+131053920+130934352+131012600+131096016
2120.03+130889760+130401592+129990744+129962680+130215384+130376416+130235360
2115.53+129927336+129701952+129628760+129575912+129387240+129051648+128699936
2111.03+128471584+128408192+128461392+128546288+128561272+128460248+128339824
2106.53+128347696+128476552+128542432+128360968+127882968+127239008+126722216
2102.03+126560616+126626248+126587272+126410128+126413392+126751208+127150104
2097.53+127273936+127070056+126691128+126322808+126115728+126119936+126259096
2093.03+126416088+126502640+126453112+126293816+126153512+126050480+125816160
2088.53+125394032+125061328+125124472+125539072+126014968+126327424+126373464
2084.03+126116104+125656904+125225368+124959088+124794120+124656592+124627040
2079.53+124765920+124910752+124833240+124545704+124274112+124155376+124132944
2075.03+124081944+123895712+123522736+123076368+122788600+122727256+122731472
2070.53+122734736+122893656+123284016+123723888+124027272+124183192+124251848
2066.03+124308632+124459392+124638928+124460928+123628584+122435888+121554464
2061.53+121358432+121645096+121993712+122211624+122414800+122752576+123146536
2057.03+123338088+123191232+122797040+122313224+121849768+121555424+121558856
2052.53+121776192+121936408+121915128+121847288+121842304+121810304+121672120
2048.03+121538744+121522064+121562504+121587992+121647584+121716400+121539328
2043.53+120964488+120316216+120174456+120737072+121562696+122014784+121892896
2039.03+121516528+121211664+120908928+120417920+119885808+119645656+119686064
2034.53+119623640+119206936+118607096+118215784+118293128+118757552+119227432
2030.03+119404752+119417968+119592416+119936016+120148608+120097472+119958792
2025.53+119882192+119826056+119752536+119768232+119983688+120309504+120475576
2021.03+120300104+119919720+119640304+119627072+119926616+120634016+121674600
2016.53+122489560+122426304+121442552+120104168+118950760+118218280+117996608
2012.03+118211968+118530680+118662208+118693224+118824952+118968168+118895608
2007.53+118635800+118447032+118502936+118811344+119274152+119672848+119753488
2003.03+119495704+119170944+119033832+119095872+119239872+119394776+119526928
1998.53+119594896+119568304+119465072+119375056+119443232+119696992+119953992
1994.03+120188640+120890152+122528864+124521912+125344896+124153656+121910528
1989.53+120360656+120159144+120508720+120522320+120298584+120415432+120863904
1985.04+121064712+120780744+120445696+120492072+120837088+121213392+121545840
1980.54+121728072+121446776+120627304+119780664+119526928+119939848+120616768
1976.04+121205528+121584160+121743040+121785760+121943480+122303240+122625656
1971.54+122624896+122317256+121950576+121756640+121960744+122740672+123880184
1967.04+124687848+124632976+123961880+123356488+123151712+123189680+123246432
1962.54+123233200+123109536+122932208+122878520+122985304+123070616+123104752
1958.04+123350936+123887848+124357352+124465528+124341240+124142144+123752840
1953.54+123173000+122788040+122893472+123281320+123534240+123544600+123564352
1949.04+123846616+124326656+124688800+124843048+125095488+125552504+125841680
1944.54+126072536+127428104+130584368+133926248+134802336+132651864+129518456
1940.04+127435008+126679424+126563672+126584608+126464264+126045680+125556352
1935.54+125485928+125996168+126791152+127499152+127892768+127859928+127486864
1931.04+127070240+126848728+126796328+126779424+126749272+126743536+126841040
1926.54+127113432+127549064+128193096+129425688+131584096+134040904+135286592
1922.04+134500416+132467432+130634504+130239976+132497040+137791040+143723040
1917.54+145882784+142368624+136106864+131287672+129319432+129149032+129594352
1913.04+130088936+130417352+130935704+132252072+134096888+135285632+135138768
1908.54+134182328+133287728+132778216+132471848+132147456+131831360+131701568
1904.04+131792128+131967664+132191872+132504552+132748216+132703408+132447032
1899.54+132193608+131991120+131902880+132209368+133153472+134670896+136336752
1895.04+137386912+137189088+136038912+134891840+134209072+134078792+135359920
1890.54+138963840+143572880+145886256+144194592+140321024+137214512+136005216
1886.04+136026016+136421104+136826256+137083360+137092416+136975696+136989760
1881.54+137202960+137466848+137680640+137822432+137808560+137686048+137802208
1877.04+138313504+138817008+138989856+139128224+139489792+139778352+139766208
1872.54+139741712+140215568+142169536+147148336+155209440+162954272+165871952
1868.04+163098368+157775456+152902048+149099904+146004848+143686352+142452736
1863.54+142384432+143205264+144301536+145062048+145352464+145442640+145582080
1859.04+145814992+146012400+146012960+145890512+145916016+146148560+146401616
1854.54+146616048+146784704+146748576+146536272+146541088+146970000+147602240
1850.04+148294944+149223472+150620752+152371680+153516928+153206176+153827312
1845.54+161016432+176444560+191407280+193560384+181770832+166679360+156910048
1841.04+152774096+151332288+151046352+151401568+152110576+153243344+154366272
1836.54+154512288+153842992+153502976+153650528+153608128+153363568+153381584
1832.04+154549680+159124624+168486144+178805712+182916672+178343488+169631904
1827.54+162527024+160269856+163835152+170755344+175000272+172628960+166421152
1823.04+161561296+159526752+158808272+158444640+158310432+158090528+157850672
1818.54+158193696+159055760+159625888+159549632+159154704+158780544+158641856
1814.04+158892064+159492608+160556096+162673648+166015408+169239168+170313200
1809.54+168708512+166089472+164473968+164206608+164180560+163673712+162972736
1805.04+162348960+161926080+162702576+165797104+170218976+173423936+174743504
1800.55+176012128+177954512+178406144+175454592+170590432+167309248+167363136
1796.05+169064032+169626256+169713856+174340560+186889040+202591568+211113584
1791.55+207492416+196606864+185443792+176684688+170453376+166966384+165799248
1787.05+165995760+168059872+172937376+178493008+180341248+177207328+172566032
1782.55+170496608+172353104+176710432+180319936+180219168+176699504+172824768
1778.05+170644560+170261808+171947920+175463936+178272256+179515984+184698128
1773.55+200048448+221893216+236648848+234473072+218872368+200805680+189723040
1769.05+189450560+196058736+200039984+195440048+185887104+178370416+174908640
1764.55+173447136+173895184+179421872+191257920+204016128+208592624+201640976
1760.05+189612544+181190768+179587232+183532080+190772096+197307680+197736416
1755.55+191391216+184109280+180626992+180997152+186335008+200133360+219402048
1751.05+231745312+229221168+218965136+212072624+210471168+209356288+205827936
1746.55+200861136+196338464+193827952+194574272+198364416+202521344+203454096
1742.05+201089600+201316912+210249680+224676896+232386224+226395360+213431120
1737.55+203491504+200331712+206021296+225481200+259034880+292965824+305714656
1733.05+289226304+257209472+229265424+215378384+213473728+215000144+213364576
1728.55+208624352+204379072+202591200+202679904+203596768+205124400+207528624
1724.05+210606864+213270624+214389680+214084400+213721120+215050096+220503536
1719.55+233877664+257863872+288047264+310244288+311151040+294809088+278047008
1715.05+270020416+265715152+257697232+247069808+239470544+236985024+238283456
1710.55+241758832+245284800+246896400+248118560+253108336+263331824+275795360
1706.05+286546240+293683776+297204608+297545824+295079456+293306784+302757120
1701.55+335473696+389069312+435559744+441411712+408500832+370286272+355086976
1697.05+372067680+412025472+447573536+450359008+423140544+393727680+380342784
1692.55+381281216+388041248+397182080+408513632+419928352+429499936+437797984
1688.05+444579904+448933856+456245536+478485792+521543040+571835648+600973440
1683.55+594550016+566541440+538586880+522278976+518804256+523193184+528757984
1679.05+532061024+534427200+539055360+549515200+569554304+597862848+621898112
1674.55+626330432+612865088+599604672+599508032+610307648+623981952+638778752
1670.05+657015872+674897600+682646848+676539200+664533376+657023104+657322176
1665.55+662542400+670569152+683395776+702697984+723825216+737447936+739292160
1661.05+735024064+732803392+735241600+740456512+746793472+753448256+759365632
1656.55+765206464+775103296+794887552+829779456+881024064+936074816+962392128
1652.05+934793856+871564544+811986624+777474944+767657600+772739328+783653440
1647.55+796084416+808895552+818606208+816604864+797762496+770398208+748637760
1643.05+737784512+733081728+729587840+726866368+724454976+720705152+716804736
1638.55+715428800+716681280+721442176+734384448+754235456+763974848+745510336
1634.05+704584576+662578688+631966976+611997696+597610496+584995072+572558464
1629.55+561636800+554545856+549876672+542350272+528692608+511297440+496140224
1625.05+489054048+491567584+497247296+494915008+479688576+457929344+439138752
1620.55+427211232+419855776+414174624+413112704+424587008+449706496+471647456
1616.06+467121600+436266624+402096096+380899584+371458688+366153152+361569504
1611.56+358020160+355849280+355059072+354887328+353356832+349711456+345788288
1607.06+342899456+339954848+336284800+333295424+331958080+331406368+330760576
1602.56+330015520+329029248+327598112+326154784+325054848+324053568+323246944
1598.06+323173920+323703296+324221984+324743584+325467296+325882656+325569248
1593.56+325009632+324769792+324916512+325473664+326233568+326464128+326029248
1589.06+325955744+326908320+328407552+330126432+332185376+334071424+335254816
1584.56+336389184+338022656+339473216+340553376+342229024+344496224+346446528
1580.06+348465216+351166912+354383136+361891136+382588096+418419584+451454528
1575.56+455793888+430424992+399691680+382241152+378517472+380776032+386025952
1571.06+397971808+417988640+437543040+443759008+434084416+419007936+409480800
1566.56+408822304+414991712+423908160+430565632+431829792+429224736+427998080
1562.06+435481664+459488736+502298784+553561280+595001600+616157632+616045632
1557.56+593140352+552489856+514661728+500330144+511042688+528327200+532022528
1553.06+520039168+505274048+499246400+504206176+514636736+522434976+522979584
1548.56+517863456+512106400+510329408+515558208+527839328+541311680+547045568
1544.06+544542208+545155968+557485120+575297344+587400832+595980160+610733504
1539.56+626070080+620263552+584796736+537848576+500630080+480232768+474368128
1535.06+479773312+492718880+504846912+505520320+492302560+473679136+458283200
1530.56+447757760+441230880+439637024+442131424+444175744+443878528+445090944
1526.06+449676896+451978240+446105792+435688544+431430240+441008960+462567744
1521.56+484165664+489789184+471979840+440120704+412981120+403583104+409766880
1517.06+416857920+412846592+399544896+384848000+372553376+364307968+362197312
1512.56+363986496+362722240+356045664+349654720+348724032+353429952+364287264
1508.06+384420864+412850304+438559264+444969248+423398080+381994304+338914592
1503.56+308170592+292958752+288102272+286250336+284167008+284846144+291678464
1499.06+300668960+304001344+303087328+307734400+318332224+320164448+303708832
1494.56+279532992+262336688+254846080+253198704+257153216+268129456+281720992
1490.06+288914368+285454464+276375520+269657920+267400560+264696560+257156400
1485.56+247084608+239731952+236537104+235307184+234835648+235738032+237549808
1481.06+238262528+237015840+234989888+233556960+233833552+237924880+247159424
1476.56+257891712+263276448+262704944+264850528+277266368+296631872+311478304
1472.06+312638784+299444672+278610688+259815696+249449216+246576720+246028432
1467.56+245218384+246435856+253446112+266734496+279966656+282724608+272023616
1463.06+257363232+248857104+246974016+247951824+252358752+262404688+277195264
1458.56+297048224+325155776+356357632+371080352+355240736+320573152+289277696
1454.06+271674784+265312800+264141248+263986528+262799648+260237344+258228976
1449.56+260071424+266914416+274906368+277700512+273095104+265288720+259525552
1445.06+257074912+256173248+255433760+254892288+254718624+254471360+253838480
1440.56+253102528+252365968+252146480+256298976+271011392+295696096+315627200
1436.06+313121344+290001440+265276688+251857824+247880592+246464784+245512000
1431.57+246824560+251069424+256183056+258476160+255574672+249682304+245589760
1427.07+244744912+244778832+245012544+247610336+252514928+256174256+256154448
1422.57+253196528+249977536+252011952+266022560+290751104+311135968+311280032
1418.07+293981824+275225120+264239584+259121600+255842032+253778704+253451088
1413.57+254324944+255732736+257365616+258718528+259417344+259825104+260629616
1409.07+262107040+263918704+265397328+266526800+268671808+273132992+278510080
1404.57+281056448+278947200+274684864+271739744+270760800+271120640+274165600
1400.07+281359968+289728256+293106656+289110592+281814624+277134592+278528416
1395.57+285742656+293935264+295506336+287212576+274297696+264335904+259711088
1391.07+257981040+256601424+255584016+257200640+263444960+271981376+275822176
1386.57+270524736+259982656+251206688+246560560+244177008+242546064+241426336
1382.07+240379264+239049104+237675168+236322096+234926288+233992128+233779488
1377.57+233494752+232708816+232621776+234706640+238773040+242709888+243681984
1373.07+240337488+234638864+230290864+228927120+229322800+230157696+231177040
1368.57+231683376+230694432+228824560+227531280+226874928+226517888+227951328
1364.07+232683184+238768672+242126816+241321744+238425360+235389888+232342896
1359.57+229397776+227579456+227303232+227633232+227729008+227923376+228731904
1355.07+229710304+230005248+229503920+228829280+228479360+228492816+228848160
1350.57+229710720+231065264+232361184+232909232+232690544+232363584+232417216
1346.07+232696704+232916208+233178656+233713152+234507072+235534864+237131040
1341.57+239749696+243318368+246906192+249208576+249518320+248295648+246683904
1337.07+245525328+244876688+244422656+244157680+244509808+245747152+247526096
1332.57+249281280+250834832+252339216+253885664+255524016+257270912+258784240
1328.07+259536368+259648176+259889632+260604176+261378176+261928208+262403104
1323.57+262733632+262676464+262559904+263011264+263960864+264746144+265068928
1319.07+265121104+265041024+264903136+264919568+265147808+265284320+265126720
1314.57+264895680+264898096+265165280+265536864+265827200+265896240+265805904
1310.07+265809728+266036208+266289424+266376368+266450896+266786080+267264352
1305.57+267436688+267203072+267131568+267781424+268901536+269707584+269838656
1301.07+269625376+269508160+269666784+270150528+270878848+271524320+271837088
1296.57+272027232+272465824+273148864+273763968+274110432+274139040+273843872
1292.07+273427808+273307456+273679040+274350816+275162944+276210336+277431040
1287.57+278338688+278474816+277932512+277300672+277144288+277536864+278011936
1283.07+278093344+277874656+277841408+278187072+278632672+278859296+278770976
1278.57+278446144+278156448+278271168+278787296+279204928+279185120+279001248
1274.07+279072832+279435008+279932992+280502016+280999808+281167648+280999968
1269.57+280822592+280876896+281148288+281632192+282427040+283458144+284405344
1265.07+284999072+285242336+285318304+285456928+285930560+286964320+288496480
1260.57+290109344+291382272+292278016+293032096+293717472+294164608+294302208
1256.07+294260032+294106272+293738112+293151200+292579840+292184512+291735584
1251.57+290802304+289304416+287671328+286333216+285228608+284097920+283102752
1247.08+282716544+282969280+283261632+283096704+282580448+282080864+281726400
1242.58+281441280+281180768+280945664+280712832+280397312+279819840+278828640
1238.08+277635232+276852480+276898592+277419776+277562656+276865184+275693056
1233.58+274723328+274189344+273789920+273191712+272347904+271368416+270354016
1229.08+269384960+268429232+267254512+265712128+264055568+262722416+261828752
1224.58+261133760+260384080+259507120+258574720+257760912+257155808+256533360
1220.08+255510000+253979696+252164064+250367904+248954368+248336368+248553776
1215.58+248993072+248877264+247968832+246641984+245507600+245040464+245211584
1211.08+245441968+245278192+245013552+245217184+245836528+246341888+246624432
1206.58+247045072+247683376+248190400+248432368+248727712+249347936+250237440
1202.08+251317776+252675264+254315744+256032144+257669424+259314352+261047168
1197.58+262673280+263960864+265088992+266567984+268633408+270953664+273100160
1193.08+275102720+277285120+279690144+281984544+283972288+285937888+288350048
1188.58+291311616+294450144+297345408+299934528+302407808+304864576+307307456
1184.08+309909408+312929280+316293728+319589280+322584064+325506432+328668384
1179.58+332040352+335346816+338492352+341748512+345410848+349349408+353194496
1175.08+356977920+361125696+365643392+369864704+373312704+376257216+379212032
1170.58+382460480+386236384+390676320+395436576+399949568+404070848+408027712
1166.08+411964864+415991072+420228544+424485568+428454688+432418368+436968960
1161.58+441956640+446668448+451030016+455636768+460661376+465706688+470576672
1157.08+475383904+480165856+485098752+490656672+496927904+503186304+508702976
1152.58+513639488+518814912+524854944+531781504+539149696+546356608+552957056
1148.08+558925184+564724608+570928000+577648512+584528768+591444416+598733952
1143.58+606457088+614111680+621516480+629258240+637702912+646282688+654294848
1139.08+661749632+668967680+676019840+682953408+690070080+697631104+705546880
1134.58+713441344+720944768+728065792+735208512+742632576+750174592+757747392
1130.08+765594752+773654976+781332928+788358336+795203776+802278976+809384064
1125.58+816255040+822926976+829350016+835338816+841031616+846802304+852668928
1121.08+858331584+863828928+869658304+876051776+882404672+887756160+891921472
1116.58+895848832+900559040+905956864+911123136+915534656+919457920+923274048
1112.08+927021440+930632384+934238720+938071936+942127040+946045632+949534656
1107.58+952862336+956593088+960754240+964742400+968158336+971214784+974292992
1103.08+977617792+981351424+985461632+989569344+993295616+996564288+999404096
1098.58+1001942848+1004681344+1008063808+1011723520+1014951040+1017822208
1094.73+1020902080+1024048832+1026621952+1028669888+1030745472+1032799552
1090.87+1034427328+1035956032+1038155008+1041010240+1043721408+1045762432
1087.01+1047190848+1048118080+1048557376+1048746688+1049194880+1050320128
1083.16+1052101440+1054073152+1055790784+1057361472+1059261696+1061543296
1079.30+1063623168+1064945280+1065458816+1065408640+1065164160+1065276992
1075.44+1066169920+1067701568+1069400896+1071013504+1072406976+1073280576
1071.58+1073514432+1073527296+1073698368+1073741824+1073226304+1072417088
1067.73+1071951808+1071830336+1071214272+1069152768+1065164672+1059335808
1063.87+1052176000+1044195328+1035405568+1025333184+1013717824+1001048704
1060.01+988236480+975742272+963240896+950360448+937569536+925756736+914864192
1055.51+903748480+891802368+879873024+868933888+858627456+847983040+836917760
1051.01+826143552+815888768+805494144+794263808+782304768+770440512+759366976
1046.51+748982080+738785152+728729728+719079808+709442624+698853696+687161728
1042.01+675572992+665372544+656606144+648404672+640074560+631409600+622367232
1037.52+613147008+604475776+597034944+590408064+583322432+575258112+567078784
1033.02+559708416+553049216+546681664+540611328+534663488+528207136+521271776
1028.52+514952736+509919808+505399232+500410432+495173632+490562912+486874528
1024.02+483803840+481135904+478826880+476621120+474130368+471375488+468909568
1019.52+467221728+466188096+465409856+464912960+465013184+465612896+466316576
1015.02+467269920+469203328+472465600+476536256+480648416+484438016+487923328
1010.52+491322688+495046656+499571168+505033888+511053600+517071232+522894496
1006.02+528824640+535223200+542105728+549303552+556775616+564467392+572110208
1001.52+579476416+586677440+593898240+601073216+608079872+614961024+621708800
997.02+628158144+634297152+640375744+646540672+652655360+658573504+664364608
992.52+670246912+676408704+682674752+688329088+692703552+696068928+699412224
988.02+703132608+706585920+709058816+710577728+711563584+712350592+713217984
983.52+714343104+715523072+716338048+716603328+716349056+715502400+713980544
979.02+711932608+709610624+707145600+704603264+701957568+698840256+694704448
974.52+689505088+683983488+678994688+674661376+670395200+665662976+660517760
970.02+655343168+650266688+644994496+639146944+632624128+625750208+619084992
965.52+612984000+607245376+601307776+594831424+587912448+580823744+573893120
961.02+567603392+562282112+557534784+552430144+546518656+540393408+534988416
956.52+530562496+526628736+522611264+518214400+513277344+507767648+502076000
952.02+496962944+492933024+489706432+486477984+482708448+478586656+474738912
947.52+471564096+468884480+466229440+463349952+460374112+457577920+455130112
943.02+453021184+451070592+449039552+446925408+445085024+443832608+442949472
938.52+441905184+440514976+439012640+437448192+435572896+433504992+431926368
934.02+431282528+431282176+431440800+431604992+431611072+430966144+429332480
929.52+427020000+424714048+422910720+421665600+420673312+419582976+418386240
925.02+417289088+416130112+414352256+411783552+409070208+407032576+405831104
920.52+404959776+403967328+403002912+402522528+402508800+402391776+401903232
916.02+401433888+401181728+400574272+399081632+397048000+395290208+394297568
911.52+394095552+394370976+394550976+394164992+393207840+391938272+390581696
907.02+389404672+388713664+388586656+388913632+389535296+390017472+389813472
902.52+389160416+389171648+390401856+392040128+393105760+393700000+394488448
898.02+395644736+396852096+397950848+399213792+401063392+403461952+405670560
893.52+407040384+407916512+409084544+410523808+411581728+412256416+413356992
889.02+415348672+417781760+419894016+421317856+422295392+423479264+425343392
884.52+427699296+429997056+432006688+433875808+435682976+437342912+438829824
880.02+440120512+441079552+441739840+442538880+443862016+445426944+446598400
875.52+447460832+448986720+451708032+454669952+456413152+456744160+456790976
871.02+457381568+458183808+458491008+458204064+457830848+457887296+458388288
866.52+458790720+458538112+457637888+456456896+455145504+453799072+452946368
862.02+453088384+453717120+453492672+451633440+448787072+446587264+446440640
857.52+448240160+450041056+449580768+446353568+441728192+437179040+433391840
853.03+430954272+430265952+430389216+429583168+427756832+426958208+428447936
848.53+430410176+429750816+425566656+419883040+415350336+413000736+412080832
844.03+411083936+408871744+405720320+403544512+403936000+405514240+405064928
839.53+402089568+399590176+399056832+397860704+393853408+389371456+387412128
835.03+386731808+384458656+381278720+380235296+381443136+381567584+378628256
830.53+374358176+371178400+369272736+367891296+367492896+368438816+368968960
826.03+367075232+363564544+360689664+358675776+356564160+355371392+356685760
821.53+358996512+359082400+356639008+354201728+353287616+353517760+354459200
817.03+355629120+355727712+354172832+352180704+350833568+349773568+348985760
812.53+349801024+352711616+355821792+356871488+355854848+354617888+354421568
808.03+354737536+354498016+353756960+353360960+353543136+354040160+355230016
803.53+357686112+360678688+362515872+362255328+360466912+358832800
##END=
