##TITLE=octarelline 6 front
##JCAMP-DX=4.24
##DATA TYPE=INFRARED SPECTRUM
##DATE=31/1/2005
##TIME=16:46:15
##SAMPLING PROCEDURE=film
##ORIGIN=Vincent
##DATA PROCESSING=no operation
##XUNITS=1/CM
##YUNITS=ABSORBANCE
##RESOLUTION=2
##FIRSTX=4000.283
##LASTX=800.31372
##DELTAX=-0.64282227
##MAXY=0.15018679
##MINY=0.0052275034
##XFACTOR=1
##YFACTOR=1.3987235e-010
##NPOINTS=4979
##FIRSTY=0.0058546201
##XYDATA=(X++(Y..Y))
4000.28+41856880+41957992+41445544+40562472+39771688+39317148+39295212+39772252
3995.14+40520472+40924936+40561720+39707208+39027024+38858356+39012404+39196256
3990.00+39380312+39732324+40227988+40485784+40135372+39304772+38500636+38005248
3984.86+37754776+37779128+38251052+39005280+39532884+39609732+39471028+39262040
3979.71+38863980+38323564+37967032+37950356+38143328+38473276+39034896+39811804
3974.57+40578784+41112840+41354392+41399784+41368460+41294004+41214860+41303568
3969.43+41626920+41894588+41808488+41475928+41068396+40427284+39531760+38954684
3964.28+39208816+39988392+40612348+40887616+41074772+41311448+41458864+41358708
3959.14+41089960+40930376+41009508+41115468+41039516+40855740+40618348+40223296
3954.00+39850984+39924468+40391664+40787672+41137220+41921220+43164964+44415404
3948.86+45396100+45840824+45197608+43386224+41306760+39871228+39270852+39639160
3943.71+41387400+44196512+46541480+46981300+45552724+43478000+41813364+40766672
3938.57+40153936+39947528+40101064+40278792+40289104+40434224+41065768+42327744
3933.43+44425728+47212792+49442132+49717624+48263540+46476476+45065040+43901428
3928.29+42962488+42247256+41726328+42144640+44343316+47253376+48469560+47253940
3923.14+45050768+43243600+42449320+43281316+45525116+47407084+47808504+48210528
3918.00+50483100+53816932+55460132+53815988+49694492+45045316+41414224+39414236
3912.86+38857980+39013152+38965556+38332188+37609220+37373388+37532228+37922256
3907.72+38884220+40691664+43612004+48754920+56751908+65240120+70465968+71973672
3902.57+72416928+72746928+71791848+70323608+70744280+72280904+70759608+64123524
3897.43+55004796+47143264+42090052+39652468+39190076+39963276+41748084+45557608
3892.29+52388788+60527052+65399448+63761932+57194124+49824252+44541752+43248664
3887.15+48084220+58909840+70500992+75856704+73036808+65870868+58550176+53103340
3882.00+51040124+53515660+59115632+63509760+62943884+57762724+51459888+46832872
3876.86+44430612+44221664+46741376+51663664+56536112+58336136+56316924+53212156
3871.72+53919748+62016348+75721872+87427848+89619016+81703480+69348632+59001692
3866.58+54893656+58106076+65410220+70482056+69420928+64599096+60953568+59933240
3861.43+59019992+55967924+51234284+46656644+44011804+44398136+46902384+49399076
3856.29+53671568+67206896+94862440+129043848+153151568+158437456+149978976
3851.79+134349104+113874064+92028680+73763912+60610092+51116320+44775312
3847.29+41846376+41055080+40909372+41992876+45376380+49902864+53044604+54087348
3842.15+55078644+58084016+62148700+64910716+67862256+76267696+90710320
3837.65+102094728+101073416+90643440+81058104+76082392+71670256+65161116
3833.15+59584396+58461160+60775220+62295032+60130980+55053016+49928064+47012868
3828.01+46825916+48552268+50623432+51382928+50175008+47764712+45695460+46249744
3822.86+52574752+66154248+82929624+94204216+94035192+84229456+70976784+60512712
3817.72+58508872+68032304+84749200+96908024+95284160+82329032+67146560+55478216
3812.58+47896648+43395608+41223860+40404412+39996644+40651536+45113480+55825660
3807.44+70777976+82347088+83393256+74957152+64235376+56663324+54443480+60009464
3802.29+74645296+92827352+103037376+98538656+83991584+68655880+58460408
3797.79+55103320+57172444+60624248+61127212+57539868+52010864+46907276+43191992
3792.65+41113220+40617972+41031260+41382340+41229676+40788424+40399536+40134996
3787.51+39943776+40107624+41276188+43554948+45730768+46205412+44724432+42404664
3782.37+40387352+39632040+41472740+46491504+52716116+56548928+56108504+52606184
3777.22+48387788+44913508+42559076+41138908+40344788+40041260+40108752+40368416
3772.08+41417972+45013208+52148252+60628020+65897904+65100260+59804188+54379068
3766.94+52372980+54190552+57205056+58090420+55679632+51581624+48083844+46183056
3761.80+46020200+48340608+53750272+60261172+63735300+62418520+59133728+57272168
3756.65+56914012+56178408+54319752+52777484+55422076+67016072+87221520
3752.15+106401528+114357888+114319680+117532120+125294544+126809064+115011768
3747.65+95835528+80259032+76957792+91001320+119119408+144666368+148039856
3743.15+128325296+101820680+81051648+67746680+59614964+55285492+54244600
3738.65+56667472+63396792+73987360+85518424+94541120+98970424+97974584+92944624
3733.51+88507336+88761176+91858632+91297480+83713976+72300424+61837936+54599060
3728.37+51556036+53355992+58578460+63557168+65499436+64494228+62175700+60231168
3723.23+59989844+61294824+61872480+59786824+56122440+53383484+52217700+51489240
3718.08+50512820+49522616+48804368+48571256+48855880+49386656+51198916+57660908
3712.94+70561960+85040392+92539432+90768632+85811584+82623608+79419728+72863264
3707.80+64042288+56668224+52488920+50674404+49824064+49283428+49598392+52144300
3702.66+57307224+62889304+65418344+63534876+59177116+55097292+52323476+50553264
3697.51+49811280+50321528+51244820+51178404+49935208+48577272+48231020+50259080
3692.37+56144300+64935852+72598408+77296064+83306376+94886096+107707584
3687.87+111372584+101712616+85272648+70471272+60520820+54627880+51344916
3683.37+49745828+49231344+49466576+50524296+52818140+56472588+60407788+62875704
3678.23+64232540+68727584+81381248+101807664+121560344+129739216+122582472
3673.73+105724576+88524856+79252264+82317056+95097904+108203880+113137128
3669.23+109464496+101339368+91070112+79823016+70031328+63401716+59276152
3664.73+56742488+55869752+56238156+56851624+57633004+58831760+59814948+60237588
3659.59+60835232+62076192+64440568+70022240+80159520+91163120+96412960+93659032
3654.44+86590592+79792248+76209656+77915616+85629152+97927416+112350680
3649.94+126128232+135752832+138741728+136136240+130551320+122630024+112166856
3645.45+101081624+92389952+87280896+85001216+84488464+84951952+85777160
3640.95+86680800+87506456+87964304+88136048+88645400+89734840+90866384+91801824
3635.80+93281976+96112104+100061984+103935920+106380080+106891288+106843584
3631.30+109696840+119320560+136732816+157330448+172031408+173766592+163497472
3626.80+148326752+134822416+125553904+120160344+117504648+116600256+116758392
3622.30+117961928+121246280+127892696+137452928+146990304+153171984+154942160
3617.80+153234000+149150528+144061104+140217344+139264880+140949488+144439712
3613.30+149323360+154002288+155658144+154194256+153750064+157618592+163816832
3608.80+167817872+168014768+166064544+163340432+159906480+156133552+153086240
3604.30+151405344+150916480+151366672+152980688+156009584+159760528+162672608
3599.80+163892336+164249200+165014352+166490976+168498928+171109648+174001664
3595.30+176213296+177465984+178594880+179971280+180693440+180043456+178818352
3590.81+178850896+181677152+187474192+194764336+201514288+206635552+209699680
3586.31+209847376+206652768+201681568+197339824+194528064+192767104+191886576
3581.81+192199040+193581472+195509648+197601568+199496320+200877872+201957248
3577.31+203246672+204743184+206031712+207066032+208184944+209476736+210732016
3572.81+211849904+212862336+213750208+214676016+216445712+220315920+226862880
3568.31+234931184+242040832+246170464+246998576+245391248+242402784+239069968
3563.81+236414112+234984688+234530400+234459744+234617248+235358032+236791552
3559.31+238280736+239077184+239339856+239987760+241577696+243778928+245912832
3554.81+247534496+248607136+249557040+250996960+253062944+255282240+257181984
3550.31+258627456+259644000+260545952+262090048+264748880+267948784+270670752
3545.81+272545376+273788224+274546912+274968896+275447296+276193280+276912896
3541.31+277274304+277366560+277435968+277637504+278304448+279988672+282772480
3536.81+285738208+287644096+288195168+288330016+289093504+290567104+292118112
3532.31+293351936+294511744+296092384+298313088+300947808+303537728+305732064
3527.81+307415072+308601856+309384448+309972896+310649248+311713056+313386400
3523.31+315447040+316973216+317115648+316347520+316304896+318000640+320673280
3518.81+322727840+323403104+323210432+323080032+323492864+324422784+325817088
3514.31+327736672+330017536+332212608+334085824+335849056+337780800+339932384
3509.81+342199744+344264096+345599680+346080896+346376736+347168480+348325824
3505.31+349536832+351286272+354301984+358144032+361221536+362352544+361902688
3500.81+361302848+361752544+363413600+365645696+367754432+369411808+370576384
3496.31+371375840+372103424+373043872+374253504+375613760+376998848+378278976
3491.81+379305408+380097408+380882304+381862432+383103808+384670272+386599968
3487.31+388749216+390941664+393200576+395443072+397088160+397603712+397424704
3482.81+397683456+398923104+400671968+402309728+403704000+404954304+406144608
3478.31+407423136+408750656+409645472+409752928+409608960+410256896+412093856
3473.81+414433632+416239936+417209920+418139072+419971296+422386560+423933056
3469.31+423966592+423663424+424514432+426576672+428912256+430912992+432435744
3464.81+433351648+433804960+434521536+436177504+438639680+441142016+443066304
3460.31+444412896+445556608+446612544+447314848+447648096+448172928+449363680
3455.81+450992576+452524384+453692160+454416576+454690432+454833504+455352736
3451.31+456405088+457802240+459417216+461163360+462902688+464775904+467124928
3446.81+469738720+471800896+472911520+473559616+474385376+475622592+477212992
3442.31+478806304+479751168+479716736+479213152+479123264+480017664+481925632
3437.81+484202432+485688288+485872992+485755424+486762752+489050464+491642176
3433.31+493781152+495263008+496003712+496223232+496581152+497439904+498490880
3428.81+499526016+500871744+502692736+504511264+505748160+506284896+506442976
3424.31+506832576+508047072+510080064+512242368+513965792+515396064+516954976
3419.81+518647328+520049408+520815104+521017312+521055616+521283488+521761632
3415.31+522444128+523410176+524772544+526536512+528592640+530603424+531980512
3410.81+532485536+532776224+533738272+535352704+536823296+537728512+538433408
3406.32+539423680+540754304+542215488+543614336+544893376+546035328+546924672
3401.82+547447104+547765696+548255616+549050432+549967552+550827584+551559168
3397.32+552173056+553025536+554684800+557006720+558876160+559580800+559878656
3392.82+560876992+562421248+563581184+564281728+565340288+566981888+568373312
3388.32+568894272+569052736+569737472+571053824+572409408+573467072+574480640
3383.82+575691328+576868224+577669440+578207680+578941440+580082560+581503232
3379.32+583206656+585342208+587518144+588795968+588895744+588823040+589727168
3374.82+591643776+593870016+595843712+597208640+597766528+597919552+598431168
3370.32+599425856+600331648+600932992+601657600+602769728+604045952+605223360
3365.82+606201408+606982784+607801472+608927104+610179968+611165504+611981440
3361.32+613021120+614122688+614728768+614755712+614710784+615145920+616401472
3356.82+618542656+621119040+623358464+624905088+626066560+627225728+628339904
3352.32+629103808+629447616+629827520+630918336+632832512+634822080+636052672
3347.82+636468864+636617664+636908288+637369792+637877632+638302016+638645056
3343.32+639201280+640343168+642079232+643951936+645368192+646027776+646229248
3338.82+646784832+648271808+650338496+652127808+653379712+654544576+655847104
3334.32+656984832+657946304+659333568+661445888+663651328+665119680+665731712
3329.82+665937216+666196224+666869376+668271872+670312448+672339840+673671680
3325.32+674235968+674522944+675048000+676040256+677546688+679529600+681731392
3320.82+683647424+684939584+685833920+686797504+687936384+688957440+689616832
3316.32+689934656+690213632+691053440+692917696+695487232+697932416+699906112
3311.82+701595200+702872384+703360704+703351360+703683584+704753088+706445696
3307.32+708737024+711389184+713490880+714255808+713963968+713487168+713459008
3302.82+714282816+716103744+718282176+719828864+720668096+721628096+723090560
3298.32+724626176+725977344+727341696+728629056+729393664+729596864+729680448
3293.82+729902080+730181184+730552128+731301504+732670080+734547584+736371008
3289.32+737413824+737498304+737227712+737206592+737373632+737407936+737265728
3284.82+736917952+736257984+735673216+735916928+736985088+737919616+738127552
3280.32+738098176+738451968+739054208+739324672+738934208+737991168+736917824
3275.82+736074496+735456960+734995456+734905216+735149056+735029440+734123008
3271.32+732996096+732090752+730869888+729118656+727898752+727900160+728039104
3266.82+727045824+725319232+723925120+722904704+721829824+720917888+720470720
3262.32+720030272+719014144+717564800+716210752+715274112+714814208+714535104
3257.82+713799232+712440576+711398080+711690624+712853568+713227072+711820928
3253.32+709243328+706779840+705156224+704157440+703111488+701670848+700238592
3248.82+699398592+699036288+698615808+698203264+698403840+699290368+700220032
3244.32+700725568+700764160+700173248+698813120+697212096+696187648+695799296
3239.82+695343424+694357312+693040192+691803136+690908992+690484800+690498240
3235.32+690651648+690507712+689799936+688709312+687736832+687161600+686718976
3230.82+686045120+685314112+685053184+685419840+686025920+686472384+686679232
3226.32+686682432+686393856+685724672+684830208+684086400+683764352+683817920
3221.83+684009664+684078080+683736576+682795776+681530560+680667968+680615168
3217.33+680887488+680724864+680121024+679733696+679799744+679813248+679404480
3212.83+678919936+678683200+678368832+677652160+676991104+677083328+677780160
3208.33+678144384+677457920+675888384+674220096+673103104+672445312+671648960
3203.83+670452544+669250624+668416896+667818816+667244288+666812480+666756288
3199.33+667144896+667863040+668509888+668503488+667729792+666780096+666161984
3194.83+665627392+664675456+663308224+661962752+660982400+660330304+659588928
3190.33+658336064+656717056+655382400+654641280+654046272+653083456+651874816
3185.83+650969728+650697664+650836672+650760384+649976640+648704576+647635392
3181.33+646960448+646115776+644768128+643514624+643107328+643371008+643406912
3176.83+642649536+641304384+639907904+638848064+638201984+637720128+637012736
3172.33+635947072+634759424+633679744+632676544+631702784+630876352+630214272
3167.83+629500864+628696576+628209792+628391104+628847936+628619200+627161408
3163.33+625027264+623345792+622714496+622800192+622920320+622624640+621731008
3158.83+620356928+619000064+618078336+617370176+616376256+615156736+614225280
3154.33+613683840+613083136+612137216+611132288+610541760+610410880+610163776
3149.83+609197376+607746368+606774784+606814208+607330368+607429248+606605760
3145.33+604773952+602319040+600243968+599406080+599500416+599464256+598737024
3140.83+597482048+595952896+594470656+593620224+593612416+593732288+593110080
3136.33+591801856+590604288+590067328+590065792+590050368+589471232+588184192
3131.83+586641472+585481024+584896256+584548736+584014208+583103936+581849216
3127.33+580503168+579472192+578961536+578653312+578055808+577209920+576717056
3122.83+576899648+577203136+576764800+575447168+574025280+573269632+573066880
3118.33+572632000+571498304+570047936+568978304+568531072+568418176+568233728
3113.83+567703424+566728896+565407296+563960384+562564288+561371584+560562112
3109.33+560142528+559773184+559037952+557801536+556102720+554009280+551872448
3104.83+550425792+550166464+550665152+550860672+550104064+548747584+547620608
3100.33+547095936+546864576+546485440+545859264+545143360+544592320+544499520
3095.83+544898880+545263104+544937280+543916928+542697280+541450304+539982784
3091.33+538508480+537622272+537335488+536904448+535950048+535068256+534907488
3086.83+535157888+535005344+534187264+533064512+531911968+530738592+529704640
3082.33+529090528+528828544+528528768+527982688+527275776+526451456+525539488
3077.83+524850080+524743392+525039520+525000672+524059776+522392192+520681632
3073.33+519476352+518845024+518570400+518428864+518172128+517506752+516394496
3068.83+515244672+514493920+514185024+514112960+514064064+513722304+512761632
3064.33+511308512+509912384+508914528+508250720+507827200+507552768+507164704
3059.83+506555648+506020224+505673440+505107200+504134624+503276384+502866176
3055.33+502335456+501008576+499137568+497550272+496621472+495995680+495126464
3050.83+493916736+492858304+492457312+492533152+492351040+491373696+489611840
3046.33+487456224+485534048+484462624+484280032+484346240+484016608+483155296
3041.83+481922816+480540896+479243520+478109792+477033152+476068224+475381472
3037.34+474665376+473307392+471450880+470104576+469772160+469730144+469106336
3032.84+468025120+467236128+467026848+466896224+466173792+464759968+463188224
3028.34+461941568+460936416+459828832+458588864+457487264+456667328+455981344
3023.84+455176736+454135104+452995200+452045024+451414880+450925408+450269792
3019.34+449211808+447719904+446109280+444887424+444195968+443630304+442773280
3014.84+441657824+440492960+439258240+437805504+436217312+434918144+434353600
3010.34+434474080+434612032+434137568+433059744+431707872+430233984+428903520
3005.84+428302080+428543776+428724416+427918592+426350528+424971456+424228160
3001.34+423821664+423388576+422852800+422166048+421195488+420018304+419127520
2996.84+418979040+419366240+419615168+419355040+418682144+417694464+416490464
2992.34+415523488+415203584+415212256+414922880+414295328+413744064+413496640
2987.84+413626016+414173088+414757856+414759136+414265312+414021664+414166144
2983.34+414020160+413373824+412919296+413108704+413514176+413615648+413527936
2978.84+413709984+414406784+415464032+416417248+416817728+416734048+416788480
2974.34+417538432+418896864+420279776+421194432+421601632+421773376+421946144
2969.84+422165152+422403680+422705440+423148032+423740832+424409536+425123392
2965.34+425928320+426769440+427345568+427402688+427144448+427031904+427197152
2960.84+427329248+427205664+426957792+426847808+427002208+427306528+427334720
2956.34+426602144+425101984+423387072+422008640+421064928+420323232+419527424
2951.84+418580416+417601952+416748896+416011808+415376160+414983392+414775200
2947.34+414362784+413689664+413337248+413597504+413906432+413766432+413554144
2942.84+413696448+413819520+413459424+413002752+413129440+413776576+414272704
2938.34+414251552+414033472+414131424+414567072+414823456+414578336+414226400
2933.84+414301472+414589536+414431712+413731136+412977152+412306944+411323008
2929.34+409973664+408933088+408774528+409195296+409396928+408918688+407805280
2924.84+406310816+404766208+403463136+402387264+401315488+400325824+399694048
2920.34+399118816+397803584+395633568+393504960+392093632+391131232+390259552
2915.84+389622304+389188864+388363488+386808544+384999616+383596672+382720864
2911.34+382027584+381140704+379967104+378773216+377830432+376948064+375662016
2906.84+373915104+372153920+370719680+369549152+368502016+367526080+366515232
2902.34+365400672+364440672+364030272+364085856+363919808+362979648+361600128
2897.84+360710336+360724256+360980544+360516800+359223616+357877152+357043040
2893.34+356399456+355377728+354057408+352987488+352403680+352140576+352097472
2888.84+352187456+352071744+351621760+351349856+351682080+352137056+352020768
2884.34+351511744+351231936+351229056+351224928+351337024+351728736+352089824
2879.84+352194272+352423360+353082880+353791520+354043904+353885248+353609600
2875.34+353274080+352843808+352484128+352423552+352661568+352938560+352936064
2870.84+352512928+351738272+350801760+349953152+349365568+348858976+348047776
2866.34+347011648+346350496+346296256+346319648+345975392+345454304+344968416
2861.84+344337696+343525376+342798208+342114208+341110592+339851872+338819872
2857.34+338143776+337556288+337044672+336860448+336972448+337026720+336787232
2852.85+336228512+335467968+334876064+334858944+335245312+335233568+334257088
2848.35+332596768+330891136+329433536+328298176+327718336+327725344+327648832
2843.85+326668384+324855104+323105312+322038816+321472480+320995040+320484288
2839.35+319934240+319262432+318474496+317787232+317429920+317353856+317198080
2834.85+316631968+315809888+315205920+314914240+314466976+313547136+312435840
2830.35+311536480+310916800+310478880+310108704+309547808+308559328+307306208
2825.85+306202848+305478432+305157248+305216096+305446784+305430656+304960640
2821.35+304255744+303598080+303027168+302487712+301994656+301517632+300925632
2816.85+300147008+299291168+298546560+298005664+297570368+297070368+296468416
2812.35+295855008+295267808+294704864+294228736+293821600+293165792+292035328
2807.85+290859520+290404320+290777248+291234592+291141472+290668128+290304352
2803.35+290147712+289945696+289426624+288418560+287016768+285778784+285303424
2798.85+285488832+285630464+285219200+284240480+282877920+281459200+280405088
2794.35+279708544+278836672+277655744+276895072+277141344+277939712+278428704
2789.85+278290432+277621536+276532736+275337536+274576640+274490112+274722624
2785.35+274684384+274060288+273036000+272133216+271682144+271494112+271242464
2780.85+270929632+270691328+270436096+269949344+269146176+268102912+267116464
2776.35+266578784+266420928+266021056+265089888+264182784+263871488+263982288
2771.85+264053424+263980464+263759248+263198800+262250352+261226304+260444320
2767.35+259889696+259335344+258664848+258091824+257913072+257947456+257564192
2762.85+256491632+255207056+254328144+254022016+254111424+254238144+253961216
2758.35+253226416+252532304+252168992+251716352+250813808+249799696+249083760
2753.85+248522336+247876816+247251680+246759328+246344352+246086144+246095936
2749.35+246096736+245671664+244894992+244242016+243974736+243897456+243654448
2744.85+243022144+242000800+240762640+239539520+238592080+238190000+238391856
2740.35+238805760+238821536+238172240+237157120+236301440+235840976+235527104
2735.85+234951952+234077360+233279824+232821200+232473728+231876608+231072656
2731.35+230475024+230335488+230422400+230265920+229676368+228911840+228303488
2726.85+227904736+227625504+227492704+227526352+227498464+227084096+226219472
2722.35+225140352+224133072+223340672+222801184+222534768+222499552+222500544
2717.85+222342080+222067952+221815696+221472032+220822576+220062800+219628352
2713.35+219509168+219217600+218539248+217775072+217252816+217024368+216980512
2708.85+216925360+216665584+216293312+216117536+216178448+216182400+215944128
2704.35+215489632+214785104+213858688+213073824+212769968+212670880+212149296
2699.85+211034064+209812944+209065552+208891536+208899472+208688064+208268096
2695.35+207894464+207599200+207227456+206881648+206811840+206810832+206272032
2690.85+205047408+203787904+203151040+203090560+203130080+203017072+202816160
2686.35+202590752+202280016+201859312+201414576+201068016+200890512+200784480
2681.85+200423616+199505600+198199616+197128448+196721424+196750048+196652816
2677.35+196089952+195124176+194151760+193737280+194112576+194732016+194774976
2672.85+194154528+193560592+193423312+193377616+192924640+192186800+191686768
2668.36+191633216+191725760+191608224+191250368+190740240+189950400+188800048
2663.86+187738016+187448256+187925600+188375680+188199472+187622608+187141584
2659.36+186837696+186467840+185877536+185125264+184444672+184154240+184327840
2654.86+184595712+184538960+184205680+183963760+183902480+183735392+183297760
2650.36+182816208+182543184+182363600+181992272+181443440+181044784+180948848
2645.86+180868240+180423552+179633984+178924224+178655056+178746592+178776000
2641.36+178428848+177842224+177424432+177407184+177682128+178015264+178202464
2636.86+178049568+177461856+176655984+176047792+175830944+175816080+175746944
2632.36+175583232+175415392+175281056+175164544+175052544+174913728+174731248
2627.86+174600080+174639632+174761408+174674672+174229120+173626064+173208256
2623.36+173105904+173143280+173022368+172615376+172126288+171889808+171970576
2618.86+172083648+172011856+171861440+171811360+171836016+171849104+171899984
2614.36+172051184+172203552+172194368+171995040+171734320+171521904+171264720
2609.86+170802848+170277296+170147680+170612960+171258656+171567088+171494912
2605.36+171268048+170976480+170702912+170663408+170892784+171130368+171248288
2600.86+171374832+171492352+171384400+171089120+170898272+170878112+170822000
2596.36+170651120+170460480+170261840+169982288+169609712+169162144+168731264
2591.86+168555600+168758816+169063856+169123648+169000128+168972576+169069696
2587.36+169217072+169502208+169874384+169926000+169427152+168780496+168580992
2582.86+168972400+169653504+170188720+170218432+169721920+169151792+169001696
2578.36+169262608+169619104+170000656+170535360+171130944+171504688+171527568
2573.86+171246144+170740464+170179712+169845648+169919152+170335744+170884368
2569.36+171288768+171303232+170961616+170621392+170582464+170790336+171064080
2564.86+171348816+171580768+171607760+171420384+171238128+171231680+171321248
2560.36+171404736+171567264+171952784+172477840+172819840+172801456+172685232
2555.86+172891648+173379088+173624896+173339376+172900832+172888128+173411968
2551.36+174122032+174651584+174886912+174892384+174793904+174765136+175035712
2546.86+175694656+176474208+176920672+176907744+176772576+176838592+177091328
2542.36+177406592+177769520+178141504+178428656+178660528+178928336+179167920
2537.86+179328288+179623008+180246816+180941600+181200160+180865680+180315472
2533.36+180114048+180578112+181545280+182467824+182886688+182837008+182698832
2528.86+182774608+183145808+183805104+184650912+185409520+185778512+185679488
2524.36+185341152+185128624+185306784+185905040+186684992+187267184+187396352
2519.86+187149056+186866208+186873296+187245760+187805648+188278336+188516864
2515.36+188671440+189036080+189653936+190229200+190562336+190841776+191352320
2510.86+192100784+192894096+193569248+194000448+194114928+194043600+194058784
2506.36+194255792+194452992+194513312+194578736+194919600+195618656+196483456
2501.86+197245568+197780256+198130000+198364720+198514864+198618640+198722624
2497.36+198866832+199133408+199604864+200189088+200617872+200726272+200613520
2492.86+200460528+200398960+200579152+201118352+201862480+202438432+202658288
2488.36+202714208+202918880+203396048+204043040+204634400+204976448+205106144
2483.87+205287024+205663712+206020848+206103536+206051888+206223568+206648416
2479.37+207020128+207209056+207436176+207886336+208477680+209053872+209509408
2474.87+209703040+209564640+209305088+209260544+209506240+209841456+210124416
2470.37+210415888+210777360+211093504+211221856+211236512+211395792+211808896
2465.87+212245600+212436432+212430272+212479072+212658400+212850432+213009616
2461.37+213236176+213630080+214200880+214849360+215390032+215644160+215557856
2456.87+215190896+214728368+214508256+214752592+215209120+215434080+215468592
2452.37+215775488+216399280+216792176+216650096+216378448+216469296+216863824
2447.87+217200416+217332208+217333632+217218896+216913248+216512176+216375840
2443.37+216795168+217520192+217904704+217663888+217242496+217216128+217609312
2438.87+218070288+218395888+218575600+218569856+218352992+218034160+217740912
2434.37+217551536+217590832+217960496+218496784+218834528+218787472+218529328
2429.87+218381968+218532112+218895504+219200336+219239456+219048992+218806544
2425.37+218628416+218531104+218504896+218551168+218720752+219096864+219614672
2420.87+219982768+219967456+219681008+219443232+219442432+219616080+219774176
2416.37+219783120+219706048+219710192+219800800+219840112+219846480+219971248
2411.87+220152608+220162736+220028240+219997824+220120224+220225104+220257920
2407.37+220235632+220019520+219509792+218936384+218671504+218851824+219324480
2402.87+219791440+219983152+219870512+219692128+219606320+219479984+219148320
2398.37+218707040+218399456+218385376+218637936+218953696+219067872+218926272
2393.87+218762864+218793424+218933824+218931248+218724736+218558720+218685008
2389.37+218999760+219129248+218938400+218721536+218775376+219003936+219120112
2384.87+219002544+218806128+218892128+219634128+221057872+222807744+224648736
2380.37+226718128+229157920+231885776+234948352+238624880+243007152+247875440
2375.87+253078016+258650208+264577760+270810464+277417120+284426880+291663680
2371.37+299006656+306556640+314314368+321931232+329037760+335641824+342017312
2366.87+348291072+354294912+359775296+364629440+368856096+372381760+375070944
2362.37+376873888+377825792+377917600+377106272+375423904+372927616+369570848
2357.87+365246432+359936544+353752320+346833856+339208160+330768672+321417664
2353.37+311237568+300489280+289412608+278027744+266270096+254706400+245183184
2348.87+240203712+241121232+247024032+255610944+264856496+273725184+281915936
2344.37+289531040+296737216+303371776+309021344+313530560+317106624+319933184
2339.87+321975360+323173280+323636640+323725568+323916384+324338752+324523840
2335.37+323946752+322722528+321423584+320337376+319241696+317793984+315846144
2330.87+313453792+310744576+307762272+304435360+300750464+296855968+292955520
2326.37+289255168+285942336+282970560+279929920+276450592+272664608+268988544
2321.87+265554512+262158528+258651584+255096144+251585536+248155856+244847920
2317.37+241718144+238766560+235908288+233044192+230175824+227431536+224937600
2312.87+222656640+220464944+218367120+216498512+214896336+213387632+211774608
2308.37+210032128+208292224+206706784+205353856+204183376+203050480+201875312
2303.88+200707504+199592432+198506784+197551280+196952352+196675888+196292048
2299.38+195470256+194405520+193507808+192906112+192461872+192056096+191628896
2294.88+191102352+190457472+189794000+189230416+188751488+188197120+187445696
2290.38+186660816+186204880+186182496+186242816+186002288+185465136+184848688
2285.88+184242016+183647232+183148368+182839568+182692944+182558496+182260960
2281.38+181736992+181135216+180664816+180335664+179990880+179585744+179268880
2276.88+179200080+179368096+179574160+179598896+179437696+179273984+179120064
2272.38+178753472+178173840+177742864+177661328+177686240+177576096+177413264
2267.88+177284720+177043920+176600368+176129264+175817648+175622400+175361552
2263.38+174950544+174487328+174132416+173884032+173571264+173154048+172813792
2258.88+172633776+172469632+172256576+172118272+172007952+171629472+170903920
2254.38+170197120+169899808+170016480+170255776+170290576+169923232+169251056
2249.88+168675744+168498144+168586272+168637264+168644112+168753904+168795936
2245.38+168391248+167549856+166786224+166535104+166705376+166856144+166653632
2240.88+166143040+165662016+165434208+165295600+164961872+164451344+163952032
2236.38+163469376+162971216+162673584+162750816+162947200+162931008+162791584
2231.88+162760960+162713168+162394320+161944480+161745408+161849712+161903728
2227.38+161612656+161095664+160721056+160665888+160715200+160547984+160110688
2222.88+159587120+159145680+158884272+158894592+159128528+159336016+159292176
2218.38+159060160+158879584+158871616+158952048+159007184+159010688+158866720
2213.88+158318656+157298352+156282624+155873168+155997520+156017936+155660288
2209.38+155278336+155140800+155089824+155014736+155061232+155210048+155149744
2204.88+154749776+154279648+154019024+153934240+153814624+153575056+153316432
2200.38+153133696+152976416+152769552+152559808+152360352+152027424+151542144
2195.88+151183248+151120096+151103776+150894720+150673616+150666048+150712288
2191.38+150550064+150208976+149863632+149572688+149322592+149057712+148646688
2186.88+148056160+147510368+147254800+147271680+147378224+147442256+147370640
2182.38+147104400+146711664+146368272+146185920+146138192+146105216+145953920
2177.88+145658112+145323552+145046816+144830800+144699344+144717744+144810256
2173.38+144767200+144498464+144106848+143709056+143391200+143239824+143240592
2168.88+143228192+143114240+143010176+143048160+143204944+143366000+143428000
2164.38+143352432+143209008+143075280+142854176+142431568+141950320+141638624
2159.88+141432336+141127664+140832720+140800976+140916368+140793024+140359840
2155.38+139962544+139878144+140014624+140110080+140046560+139923056+139882576
2150.88+139909312+139889168+139813472+139748240+139621440+139285216+138794960
2146.38+138382176+138124256+137884736+137594928+137379024+137339760+137392976
2141.88+137379632+137259872+137104176+136907456+136565152+136120768+135871328
2137.38+136028928+136383952+136534592+136370224+136084992+135818160+135539568
2132.88+135220400+134923312+134751856+134786480+134988256+135109456+134866496
2128.38+134262928+133644000+133375256+133501632+133733480+133750856+133543728
2123.88+133373728+133369848+133358848+133179384+132952784+132863352+132858912
2119.39+132759240+132535200+132350744+132395168+132721008+133158112+133421256
2114.89+133370840+133104424+132784152+132494632+132276968+132101048+131846152
2110.39+131466168+131099520+130869816+130733336+130678320+130831784+131193736
2105.89+131492232+131464240+131105136+130547256+129914048+129352144+129004288
2101.39+128883728+128891824+128961264+129124872+129429904+129763728+129840312
2096.89+129514608+129082040+128965336+129100952+129026104+128616944+128241968
2092.39+128144384+128149008+128075920+127994920+127952088+127843136+127639880
2087.89+127449368+127325192+127238808+127213160+127278912+127356416+127340616
2083.39+127244584+127129872+126959064+126671432+126382856+126343520+126610312
2078.89+126887920+126816016+126371872+125919304+125859176+126220744+126569456
2074.39+126452440+125960360+125628880+125669736+125700000+125421152+125107064
2069.89+125100136+125279328+125399560+125538120+125855888+126252944+126515664
2065.39+126561544+126381112+125962664+125363912+124728280+124199480+123844312
2060.89+123610696+123452416+123541944+124136512+125082784+125795776+125879608
2056.39+125493608+124973144+124510392+124254976+124317392+124503080+124436432
2051.89+123987616+123382688+122886680+122604416+122580928+122852776+123357664
2047.39+123862808+124132072+124154816+124056384+123789808+123171056+122332392
2042.89+121813256+122018616+122818496+123717408+124226648+124156920+123756688
2038.39+123432760+123207640+122798680+122236152+121882344+121782064+121623864
2033.89+121329808+121121200+121096576+121222032+121513000+121841152+121927968
2029.39+121828648+121932584+122279464+122434816+122170688+121716816+121338464
2024.89+121146016+121226840+121562464+121944336+122199760+122322192+122325472
2020.39+122233456+122145864+122119112+122162032+122440568+123089600+123747264
2015.89+123788848+123067280+121979944+120917608+120152072+119993560+120475472
2011.39+121104832+121365216+121265712+121104648+121026712+121043064+121160656
2006.89+121309400+121348272+121218184+120932232+120524528+120137080+120009528
2002.39+120247488+120704608+121169296+121513200+121672936+121629632+121449880
1997.89+121260904+121201440+121348272+121599600+121655240+121370792+121227208
1993.39+122128344+124351464+126764344+127559672+126072152+123541568+121814800
1988.89+121573632+122127384+122611744+122839896+122997008+123067280+122896880
1984.39+122571312+122364160+122379552+122527408+122800616+123207840+123441232
1979.89+123085176+122258864+121619056+121549184+121766672+121906416+122056752
1975.39+122484104+123166624+123836992+124268448+124394424+124282888+124060232
1970.89+123807920+123573160+123531352+123985296+125043104+126274696+126907768
1966.39+126565976+125759544+125303800+125309568+125211120+124787432+124522352
1961.89+124759880+125160824+125266032+125069304+124838672+124831920+125249440
1957.39+126012976+126637864+126710944+126358168+125950144+125633312+125411704
1952.89+125334232+125363152+125345792+125214392+125007264+124805544+124816512
1948.39+125251184+125973272+126620352+127107888+127517448+127763288+128092304
1943.89+129490112+132409264+135308560+135804816+133415648+130003976+127494872
1939.39+126339472+126125336+126454752+126940352+127191568+127176152+127247488
1934.90+127649520+128273408+128842248+129153424+129212272+129210936+129227128
1930.40+129009504+128362896+127642968+127451304+127919688+128670768+129309880
1925.90+129650256+129827008+130488768+132256704+134542752+135697728+134878464
1921.40+132974424+131396472+131164984+133266496+137977808+143127824+144944416
1916.90+141991184+136800704+132752672+131017672+130887000+131338552+131650552
1912.40+131673136+132011632+133220144+134811600+135785888+135898016+135637184
1907.90+135259664+134606928+133689416+132872632+132512216+132637936+132970560
1903.40+133212024+133333160+133489632+133702744+133844752+133904280+133999720
1898.90+134174992+134372864+134623728+135140000+136164080+137559920+138615760
1894.40+138613056+137628976+136327280+135163184+134604976+135775056+139448000
1889.90+144138240+146583040+145025888+141095504+137774640+136511200+136849840
1885.40+137786832+138571056+138730512+138268400+137795536+137860160+138255440
1880.90+138468096+138499840+138645168+138809856+138760512+138727216+139071136
1876.40+139698096+140338544+140928384+141320384+141286864+141044960+141108112
1871.90+141786032+143712176+148166400+155230864+162011744+164619744+162144736
1867.40+157117472+152322848+148764528+146237328+144398992+143194288+142856880
1862.90+143472784+144556240+145357680+145578000+145529904+145717664+146359152
1858.40+147140304+147484960+147218896+146756096+146537248+146650944+147001744
1853.90+147406752+147632256+147652432+147664864+147758016+147995600+148676576
1849.40+149996672+151746784+153526640+154664768+154717488+155742784+162378720
1844.90+175908720+188786096+190359456+179662608+165972992+156921632+152952880
1840.40+151625504+151605296+152337216+153413680+154775456+155966176+156021840
1835.90+154991984+154061040+153841472+154077952+154582096+155255776+156540896
1831.40+160448976+168383264+177142864+180572224+176583312+169047616+162724688
1826.90+160347632+163065008+169108016+173184576+171445616+166076256+161751456
1822.40+159989856+159522624+159433216+159483472+159270736+158863408+158956928
1817.90+159603088+159984784+159647328+158977568+158581376+158778496+159428528
1813.40+160108336+160896656+162637312+165661792+168662880+169725616+168394784
1808.90+166102640+164584032+164257392+164296384+164046256+163746000+163732144
1804.40+164017392+165093024+167696960+171136416+173513536+174466960+175638064
1799.90+177434032+177629392+174601056+170154896+167645584+168316432+170227616
1795.40+170803216+170840384+175036880+186436400+200528640+207842192+204091856
1790.90+193973872+183822176+176004096+170754720+168258032+167723904+167929408
1786.40+169471152+173558752+178433552+180167984+177527296+173372640+171236752
1781.90+172643936+176681664+180316848+180498080+177397776+173988752+172226064
1777.40+172029472+173325664+175758688+177375840+178006864+182803648+197009152
1772.90+216956528+230430544+228657472+214712912+198507392+188759936+188912544
1768.40+195126720+198601680+194036896+184935136+177857712+174846976+174028080
1763.90+174932336+179994032+190354736+201649344+206051312+200310688+189697600
1759.40+181854320+179997184+183442640+190370480+196966928+197870608+192126768
1754.90+185110928+181489376+181574704+186344416+198762480+216023088+227120720
1750.41+225211232+216673296+211017056+209659296+208526320+205364544+200937904
1745.91+196703136+194264080+195029376+198638560+202345568+202984464+200749376
1741.41+200870000+208607504+221130816+227772096+222372320+210816784+202033488
1736.91+199530656+205240576+223476080+254339376+285333248+296954080+281895456
1732.41+252507456+226588768+213433024+211558864+213471472+212945776+209461888
1727.91+206001264+204498640+204587984+205309152+206533488+208675008+211541792
1723.41+213946896+214765056+214195728+213646304+214887824+220187584+232756336
1718.91+254700592+281984832+302007744+302872672+288212832+273320512+266477152
1714.41+262852752+255466240+245501616+238457408+236421504+238153456+241988816
1709.91+245700144+247368112+248602736+253478992+263341824+275318336+285696800
1705.41+292587008+295826912+296032128+294105024+293418208+303032672+333324000
1700.91+382109664+424379488+429905792+400156128+365497248+352058304+368371392
1696.41+405881792+439507520+443399968+419703296+393352640+381148032+382062752
1691.91+388601920+397598848+408993472+420880992+430932384+439079424+445424160
1687.41+449888576+457352800+478091904+517313664+563116288+589946752+584438720
1682.91+559150720+534055232+519966880+517999104+523516032+530058912+533870592
1678.41+535799168+539201984+548297856+567106752+594194560+617409280+622358080
1673.91+610732864+599259136+599757952+610139008+623179520+637351552+654743872
1669.41+671912640+679941696+675260288+664916352+658369984+658752256+663609856
1664.91+671284032+683755008+702369536+722579264+735835968+738350592+735195712
1660.41+733697344+736390080+741759360+748196608+754707840+760246080+765507392
1655.91+774318144+792010368+823407424+869792576+919982016+944634560+920749952
1651.41+864326080+810593856+778910336+769017216+772410112+781466752+792587200
1646.91+804520576+813689280+812027264+794888832+770017728+750377088+740564352
1642.41+735799872+731484480+727698688+724596288+720834560+717208960+715708672
1637.91+716169792+719573632+730623744+748289408+756654144+738855040+700342464
1633.41+661078528+632492288+613499328+599190400+586337664+573934208+563149824
1628.91+555558016+549593344+540814400+526759488+509765152+495211104+488332800
1624.41+490307456+495014656+492366880+478191392+458109856+440244032+428000608
1619.91+419792928+413571712+412138720+422377824+444909408+464291648+459571904
1615.41+431053728+399496416+379550272+370279904+365070496+360799520+357428224
1610.91+355204480+354439104+354557344+353376928+349845248+345795584+342805472
1606.41+340020768+336790912+334362208+333393664+332723840+331586528+330464224
1601.91+329365376+327625760+325456384+323832352+323125184+323085600+323460384
1597.41+323911648+324173792+324539712+325340288+326168576+326456160+326306720
1592.91+326176608+326418560+327291808+328540544+329268064+329094976+328756736
1588.41+328895392+329440448+330475968+332173472+333895424+335056672+336268928
1583.91+338036256+339681504+340949088+342638464+344754400+346633312+348817792
1579.41+351884384+355525472+363018336+382379872+415365408+445777728+450275776
1574.91+427855968+400245184+384172800+380235424+381829184+386550080+397777440
1570.41+416590816+435004160+441050656+432215552+418137184+409186880+408743328
1565.92+414886048+423536384+429989696+431603008+429844960+429211840+436181536
1561.42+458052576+497086048+543759424+581388736+600715136+601037376+580816768
1556.92+544352448+510148608+496946400+506359584+522195360+526580192+517151040
1552.42+504784320+499698368+504216704+513583904+520601248+521238016+516898784
1547.92+511836800+510088160+514591232+525645888+538053120+543699712+541908608
1543.42+542587520+553403200+569019136+579615680+587059264+599948288+613421120
1538.92+608092608+576109312+533627424+499815776+481025056+474958464+478724864
1534.42+489439584+499886560+500215328+487836256+470484256+456288288+446767296
1529.92+440863424+439262176+441250112+442759840+442094016+442854176+446786080
1525.42+448538624+442565216+432372352+428003808+436342752+455419584+474570304
1520.92+479778336+464227776+435723872+410881088+401699872+406525376+412196416
1516.42+407938016+395535584+382161312+370991616+363133568+360458624+361445440
1511.92+360208608+354317952+348372832+347098944+351100352+360822208+378572096
1507.42+403313536+425702432+431430336+412474112+375374208+336060416+307427776
1502.92+292886752+288089984+286354496+284453440+284783072+290383616+298019328
1498.42+301010656+300397536+304441696+313477088+314841568+300136416+278360736
1493.92+262639440+255969856+255005136+258789760+267986304+279008160+284634368
1489.42+281419040+273557792+267712912+265498896+262585680+255347696+246072528
1484.92+239380992+236333200+234909840+234282512+235334832+237626176+238820928
1480.42+237610208+235142784+233287200+233535184+237715872+246632688+256713152
1475.92+261829120+261632384+263904544+275066304+291874496+304433088+305280160
1471.42+293930496+275697120+258687808+248845536+245948288+245708320+245675296
1466.92+247556128+254429808+266548368+278175072+280128416+270099328+256965440
1462.42+249855104+248792192+249828784+253380016+261979520+275309440+293492704
1457.92+319016896+347403424+361488288+348316096+317566016+288972384+272297280
1453.42+265765584+264080208+263617184+262647696+260656656+258942640+260346512
1448.92+266299136+273800736+277072544+273512320+266377936+260497424+257566384
1444.42+256409024+255715248+255203248+254958720+254870320+254792576+254548144
1439.92+253651328+252642928+255710608+268941344+291654752+310106656+308019968
1435.42+286932960+264099360+251411776+247378368+245827312+244822704+245899232
1430.92+249556832+254010400+256164816+253832256+248540976+244344304+242867216
1426.42+242463216+242745552+245726928+251293152+255761664+256295456+253518784
1421.92+250417168+252305680+264989088+287017984+304968992+304966560+289654144
1417.42+273110176+263303952+258495088+255336272+253532816+253579856+254884016
1412.92+256690208+258500336+259719024+260152096+260341856+260819904+261620720
1408.42+262607616+263705472+265210640+268122064+273060032+278324064+280541600
1403.92+278476896+274714528+272290816+271544416+271884960+274608384+280981216
1399.42+288269888+290992064+287028160+280021248+275461920+276665824+283277920
1394.92+290671968+292065856+284726272+273235648+264217056+259957296+258433536
1390.42+257217744+256136048+257275680+262465632+269563392+272426368+267281248
1385.92+257594336+249606560+245624816+244003344+243004512+242145472+241185440
1381.43+239888416+238290944+236555696+235086512+234469328+234567520+234396480
1376.93+233630768+233379984+234921216+238259360+241797936+242997728+240335488
1372.43+235308896+231255648+229821280+230029312+230705856+231627744+232203648
1367.93+231454048+229702912+228205472+227248192+226753568+228071248+232429808
1363.43+237946464+240902832+240176720+237862544+235605776+233148576+230492736
1358.93+228731968+228167840+227767920+227121520+227177472+228388528+229683184
1354.43+230003824+229694736+229643920+229900624+229893024+229573184+229648720
1349.93+230589232+231810400+232280448+231840928+231340000+231475616+232155600
1345.43+233093872+234259184+235446864+236167072+236395520+236949168+238747968
1340.93+241866992+245345600+247801072+248391024+247434272+246010608+244907792
1336.43+244163888+243688464+243846800+245013136+246795792+248320272+249346048
1331.93+250522480+252370128+254561168+256462048+257855568+258878480+259735328
1327.43+260657040+261702672+262617104+263234656+263827968+264597120+265188464
1322.93+265209632+264843616+264543104+264499776+264677520+264972784+265185632
1318.43+265186624+265110848+265084448+265001600+264821616+264794416+265173728
1313.93+265984368+267054352+267952192+268066800+267223184+266078496+265508352
1309.43+265766624+266478352+267158592+267507968+267472096+267230608+267064048
1304.93+267195536+267755104+268681856+269614432+270130848+270189792+270128992
1300.43+270222336+270477888+270809472+271167520+271500960+271796480+272124960
1295.93+272541536+272995392+273405408+273747808+274000064+274147648+274302112
1291.43+274644128+275122368+275482304+275787104+276544064+277901440+279070464
1286.93+279138304+278235008+277329504+277084480+277437984+278088672+278818848
1282.43+279450144+279882336+280143776+280220960+280044960+279749664+279636096
1277.93+279761440+279863104+279770912+279642528+279688896+279869152+279984416
1273.43+279981152+280007296+280156768+280304608+280331968+280361152+280577248
1268.93+280984640+281539424+282309120+283262880+284074592+284443520+284483456
1264.43+284599872+285018176+285586848+286077088+286588288+287490816+288887104
1259.93+290396608+291669600+292729120+293543552+293759360+293280704+292623008
1255.43+292262016+292093280+291910688+291855008+291921088+291583808+290447616
1250.93+288897888+287630496+286766720+285874784+284759104+283788256+283348064
1246.43+283262688+283040480+282536128+282017888+281654912+281283712+280758336
1241.93+280211840+279883744+279850944+279973440+280010112+279814048+279474272
1237.43+279200320+279035264+278762528+278101216+276962464+275544832+274207296
1232.93+273179648+272396480+271610656+270621664+269416448+268261488+267556976
1228.43+267365968+267159424+266348912+264982880+263623664+262597152+261722000
1223.93+260690864+259490272+258376832+257589312+257085856+256516544+255488560
1219.43+253927648+252149920+250553344+249286128+248354144+247941776+248186720
1214.93+248564864+248160096+246902192+245898432+246015216+246745696+247038656
1210.43+246620896+245937312+245408688+245313984+245825104+246678144+247234048
1205.93+247286352+247385568+248106560+249333648+250555568+251594368+252725632
1201.43+254128688+255555888+256726016+257798256+259184048+260995808+262945792
1196.94+264734544+266344064+267996800+269904320+272007776+274081728+276140480
1192.44+278422240+280859040+283051616+284928320+286881760+289124800+291528512
1187.94+294100928+296954496+299864864+302516096+305056192+307820704+310762592
1183.44+313642112+316454912+319331520+322344896+325624096+329232000+332866624
1178.94+336116512+339065312+342202464+345730816+349357280+352886560+356643584
1174.44+361003264+365677984+369918144+373474848+376868288+380598208+384607456
1169.94+388694240+392891168+397227008+401582528+405861728+409981888+413874944
1165.44+417771776+422069952+426704032+431212384+435575488+440267040+445388096
1160.94+450522272+455451072+460278944+464977088+469487584+474074880+478952256
1156.44+483844192+488454336+493061152+498205472+503945888+509773664+515199456
1151.94+520294208+525640960+531796480+538842240+546373568+553775232+560595776
1147.44+566907776+573237568+579985024+587110272+594504128+602211328+610068032
1142.94+617696960+625109696+632744832+640716544+648600832+656142464+663584128
1138.44+671134272+678581440+685639936+692379008+699161664+706316992+713962240
1133.94+722061248+730434560+738677184+746373504+753607360+760934080+768598272
1129.44+776179648+783243840+789915264+796553216+803340416+810345216+817546432
1124.94+824675008+831334976+837351744+842805184+847954816+853238336+859046528
1120.44+865363456+871825984+878051840+883713408+888631680+893035840+897369984
1115.94+901676864+905671040+909487360+913723200+918578560+923470208+927636224
1111.44+930916928+934019840+937988928+943056960+948144192+952034624+954818368
1106.94+957533888+960759296+964289728+967831552+971248960+974487296+977811904
1102.44+981650560+985848832+989700160+992950400+996050176+999314688+1002638976
1097.94+1005989824+1009365376+1012409344+1014931648+1017496576+1020615040
1094.08+1023767872+1026163520+1028048512+1030265856+1032908096+1035397248
1090.23+1037594816+1039821056+1041904128+1043246592+1043916864+1044767424
1086.37+1046208960+1047705664+1048868032+1050177856+1052042432+1053948992
1082.51+1055346048+1056673472+1058658176+1061134272+1063346112+1064922816
1078.66+1065879936+1066254528+1066343552+1066662656+1067181440+1067341696
1074.80+1067251648+1067963712+1070010880+1072411648+1073741824+1073700160
1070.94+1073153088+1072983424+1073301184+1073666496+1073681344+1073168000
1067.08+1071940864+1069784000+1066702912+1062779584+1057708160+1050997248
1063.23+1042732096+1033563456+1023767552+1012981248+1001019392+988316992
1059.37+975345664+962264192+949374016+937229824+925920448+914767616+903138624
1054.87+891282048+879992128+869616576+859631168+849246528+838283776+827309248
1050.37+816766336+806217408+794851072+782661824+770501952+758969728+747912896
1045.87+737210048+727234368+718118848+709116992+699263488+688461632+677537152
1041.37+667318784+657876480+648705088+639472384+630304704+621375616+612703488
1036.87+604489536+597024448+589927744+582231616+573718336+565385728+558087744
1032.37+551519808+545124352+539056000+533491232+527824800+521476160+514963328
1027.87+509352320+504865952+500700640+496109024+491228512+486783296+483231136
1023.37+480319424+477459040+474393504+471414880+468944192+467049440+465500384
1018.87+464227392+463536096+463740864+464693760+465932736+467308192+469133440
1014.37+471566688+474215008+476627488+478958720+481768640+485300576+489341024
1009.87+493743456+498714432+504410432+510522240+516576992+522565408+528967648
1005.37+536038016+543385536+550521600+557562560+564991872+572870144+580676608
1000.87+587880192+594368960+600444992+606690432+613638528+621217600+628677952
996.37+635367744+641476608+647677760+654188608+660544128+666344960+671811072
991.87+677355904+682851072+687749120+691863744+695573312+699248384+702898368
987.38+706363968+709387264+711555776+712737344+713445248+714279040+715187200
982.88+715798464+716101440+716263616+716142208+715535296+714541184+713190784
978.38+711144640+708229120+704902656+701711936+698532224+694790592+690324864
973.88+685646464+681269504+677092352+672668288+667851136+662786304+657419712
969.38+651482176+645037312+638555648+632322752+626173440+619938816+613808768
964.88+608031552+602458304+596675840+590481920+584041280+577595904+571279872
960.38+565187520+559290944+553339712+547222208+541388352+536391040+532061536
955.88+527659168+522758368+517527040+512324640+507456448+503064160+498949536
951.38+494786560+490577568+486533984+482664064+479000000+475880608+473330528
946.88+470612576+467145728+463447296+460429184+458222016+456307776+454366464
942.38+452378752+450242848+447828736+445360736+443341088+441992448+440989696
937.88+439899264+438744768+437833216+437212960+436708672+436282880+435878240
933.38+435199808+434201440+433402112+433108672+432733376+431437120+429144704
928.88+426480512+424063552+422110240+420477472+418948544+417578912+416575968
924.38+415725280+414402144+412404608+410346176+408894880+407935296+406761632
919.88+404952416+402846944+401150592+400161120+399566496+399047904+398738976
915.38+398828160+399006848+398689984+397775360+396900992+396795424+397396768
910.88+397808608+397211648+395629120+393666720+391821696+390278432+389080352
906.38+388216256+387702688+387699968+388317728+389330688+390346208+391167712
901.88+391796512+392217888+392426400+392565440+393002112+394183360+396194496
897.38+398456608+400263232+401629280+403104704+404861792+406563296+407980896
892.88+409139360+410086432+411049664+412397376+414077280+415664608+417163744
888.38+419020128+421181120+423048160+424476640+425987712+427920544+430043744
883.88+431925632+433197792+433815136+434399520+435807328+438066976+440351520
879.38+442134752+443673472+445221280+446500800+447197952+447485888+447977088
874.88+449329632+451714496+454420832+456242848+456568672+455957696+455453632
870.38+455481056+455650816+455591072+455567264+455940544+456290880+455828256
865.88+454733024+454220768+454896992+455793536+455594624+454196800+452481184
861.38+451016544+449664832+448223872+446824128+445593344+444447456+443549216
856.88+443515520+444442976+444880576+442836640+438156064+433028000+429863648
852.38+429248384+429958048+430159968+428768832+426368608+424464960+423349760
847.88+421589312+418101248+413324576+407947936+402210464+397190784+394749664
843.38+395030112+395681280+394650272+392686240+391917248+392874208+394089024
838.88+394113408+392587936+389563776+385444160+381769984+380026272+379473536
834.38+378111584+375671424+373474432+371782560+369623584+366736864+363498272
829.88+359961088+356750720+355456384+356401760+357540512+356975360+355142432
825.38+353644256+353316192+353884832+354416320+353952448+352316160+350027520
820.88+347567328+345493984+344623872+344864992+344827168+343714336+342350624
816.38+341397120+340354048+339220128+338973632+339773024+340694816+341547680
811.88+342804448+343868960+343831552+343702560+345528320+349184128+352070720
807.38+352198464+350140032+347875936+346987584+348131008+351056000+354680192
802.89+357716224+359571232+360342624+360267008+359941120
##END=
