##TITLE=octarelline 6 front
##JCAMP-DX=4.24
##DATA TYPE=INFRARED SPECTRUM
##DATE=31/1/2005
##TIME=16:53:35
##SAMPLING PROCEDURE=film
##ORIGIN=Vincent
##DATA PROCESSING=no operation
##XUNITS=1/CM
##YUNITS=ABSORBANCE
##RESOLUTION=2
##FIRSTX=4000.283
##LASTX=800.31372
##DELTAX=-0.64282227
##MAXY=0.23129998
##MINY=-0.0013328403
##XFACTOR=1
##YFACTOR=2.1541489e-010
##NPOINTS=4979
##FIRSTY=0.0036632572
##XYDATA=(X++(Y..Y))
4000.28+17005589+17337546+17551242+17405060+16762868+15905643+15426065+15557938
3995.14+15803420+15510468+14771796+14435060+15087644+16252197+16863928+16478257
3990.00+15707016+15446771+15912788+16528415+16633341+16150564+15535657+15196006
3984.86+15179782+15369880+15652519+15857924+15881179+15905522+16115797+16246382
3979.71+15906733+15279430+14948418+15067548+15256545+15294444+15370486+15592573
3974.57+15736446+15627330+15449074+15480314+15658089+15650944+15381867+15265263
3969.43+15717554+16581484+17272700+17401058+16991652+16246382+15462515+15119001
3964.28+15569926+16491705+17017224+16714037+16152864+16152016+16702285+17084118
3959.14+16893618+16378066+15858286+15425096+15190678+15223249+15256304+15010040
3954.00+14736328+14896726+15408750+15717674+15499085+14930139+14451640+14516395
3948.86+15220221+15977347+16018409+15396278+14967909+15142976+15298077+14763444
3943.71+13826606+13313894+13595759+14406495+15304978+15896074+15880450+15325685
3938.57+14782933+14771433+15234266+15739594+16072794+16321611+16465415+16223486
3933.43+15424249+14377933+13718680+13824063+14444378+14993697+15190437+15308612
3928.29+15709681+16224577+16227484+15431636+14332668+13623221+13404740+13385626
3923.14+13579063+14176188+14866582+15005441+14485529+13892548+13737311+13938648
3918.00+14069335+13886981+13657583+13929695+14815739+15713678+16073158+16087693
3912.86+16224577+16503822+16669933+16644123+16460812+16142327+15826433+15649614
3907.72+15517612+15261025+14754849+13720737+12017454+10288794+9484783+9585478
3902.57+9784346+9888439+10343872+10996705+11141700+10807743+10891831+11909384
3897.43+13432684+14742139+15460819+15661722+15723002+15922963+16000967+15324351
3892.29+13677302+11843384+11211061+12491384+14886072+16860654+17558878+16993592
3887.15+15276766+12644468+10255217+9799562+11676946+14433607+16412956+17108116
3882.00+16769290+15622848+14074175+13138382+13795387+15818438+17893230+19036232
3876.86+19348504+19219540+18482900+16934818+15238989+14557667+15233419+16230635
3871.72+15960026+13609310+10020553+7411507+7709316+10813060+14771070+17440572
3866.58+17703622+15778472+13146366+11872032+12971715+15291295+16743966+16670418
3861.43+16269155+16713675+17734170+18411230+18388916+17884984+17325182+17059396
3856.29+16429068+13446717+6997976-547170-4725949-3941978-543085+3434681+8023215
3850.51+12935552+16654179+18334832+18729226+18934702+19328848+19756080+19888600
3845.36+19358694+18126264+16738149+15918361+15859134+16010778+15721792+15058467
3840.22+14520630+13765503+11687702+8537842+6805891+8367210+11690603+13987413
3835.08+14798912+15635443+17089934+18028658+17458754+15973716+15153266+15938709
3829.94+17711864+19034896+19154754+18469804+17717684+17317546+17466270+18124808
3824.79+18812190+18928998+18133176+16146444+12948735+9711294+8476779+9979613
3819.65+12786438+15200728+16473896+15927323+12987317+8892304+6723902+8340906
3814.51+12315944+15983526+18020532+18603450+18498182+18413410+18604786+18890426
3809.36+18947316+18216722+15986069+12603595+10241689+10915754+13881780+16655997
3804.22+17915658+17687374+15700477+11648784+7052120+4987968+6991223+11398368
3799.08+15445198+17621428+17864618+16875560+15774960+15658332+16743844+18185194
3793.94+19076992+19348746+19456608+19620900+19716156+19579888+19146988+18525106
3788.79+18058122+18004774+18194046+18319914+18365876+18384066+18193562+17721318
3783.65+17299002+17262034+17542030+17805696+17676102+16916278+15807658+15130141
3778.51+15339488+16093994+16901616+17695864+18468712+18912382+18777864+18236000
3773.37+17673434+17286154+16840904+15838299+14171106+12620161+12279189+13347401
3768.22+14886315+15762727+15524273+14585143+13863629+14016938+14874450+15794821
3763.08+16417317+16735847+16640975+15867491+14474515+13119029+12605530+13036662
3757.94+13670770+13878512+13931753+14430097+15294566+15677225+14492065+11014828
3752.80+5927458+1853962+1015074+2073483+1956803+515827+654902+3868070+8272125
3747.01+11279456+11243929+7132193-180003-6187317-5881324+204296+6939372
3741.87+10918654+12412307+12916323+13249178+13511680+13348489+12245217+10151831
3736.73+7597014+5200843+3682664+3916230+5827428+7687362+7821263+6772493+6736201
3730.94+8848128+11994364+14362562+15138980+14660675+13601446+12387158+11288397
3725.80+10737431+11121280+12154543+12869399+12539992+11479702+10724263+10960459
3720.66+11913977+12804820+13228374+13427119+13810754+14461080+15134016+15509740
3715.51+15379688+14708730+13456273+11366465+8422960+5678837+4774997+6010861
3710.37+7860348+9021698+9804997+11021354+12574575+13821886+14524019+14835108
3705.23+14915369+14871304+14634407+13847295+12343873+10718102+9963553+10505853
3700.08+11871548+13234059+14085792+14475604+14774822+15211141+15633263+15694904
3694.94+15240563+14536486+13974466+13388529+12073181+9962828+8169687+7380510
3689.80+6434678+4054576+1449506+1433152+4746450+9121163+12199517+13471999
3684.66+13580032+13246759+13021302+13195956+13649355+14000966+13889160+13164146
3679.51+12137376+11514386+11517893+11091192+8707401+4286619+12257-1278661
3674.37+1308693+6070161+10268624+11807001+10173329+6785877+4184021+3977877
3669.23+5670281+7980387+10361023+12645556+14345738+15083528+15081472+14779301
3664.09+14441111+14310399+14569167+15069606+15513737+15774233+15841328+15785375
3658.94+15791187+15664993+14571466+12177149+9824921+9462930+11393172+14119434
3653.80+16113495+16705919+15799181+13669802+10851721+7868069+5342651+4169691
3648.66+4802581+6534859+8323046+9994226+11960396+14254729+16475835+18232242
3643.52+19244166+19463162+19324844+19419118+19806562+20048074+19870276+19457700
3638.37+19153782+19169918+19517152+20012878+20339016+20173936+19415476+18473078
3633.23+18176950+18959810+20112522+20180128+18166398+14392697+10516844+8673006
3628.09+9938916+13453127+17350028+20311824+22035376+22821682+23159946+23393954
3622.95+23500210+23288800+22739766+21883642+20670304+19381626+18757728+19249016
3617.80+20547084+22146662+23743866+24943844+25359004+25114788+24634354+24070970
3612.66+23607930+23823388+24815494+25515378+24878876+23327822+22248234+22389668
3607.52+23438694+24854058+26391312+27956670+29360820+30264654+30393598+29875558
3602.38+29247430+29008716+29224632+29577386+29721162+29659330+29754574+30233182
3597.23+30826722+31131058+31146680+31166574+31390284+31867816+32564054+33316234
3592.09+34021036+34748700+35325348+35106700+33766844+32006872+30912746+30865522
3586.95+31545664+32642456+33981928+35271176+36147320+36456500+36391404+36388348
3581.81+36743948+37353848+38009732+38736268+39494676+39940796+39942752+39896424
3576.66+40114604+40415200+40659436+41063748+41676060+42213832+42637228+43227428
3571.52+43930176+44210220+43691560+42542104+41254948+40315040+39956360+40077588
3566.38+40516596+41327688+42529220+43763036+44557368+44852360+45037536+45514872
3561.24+46321584+47162812+47786328+48248432+48665836+48914400+48915016+49052916
3556.09+49791812+50943436+51754420+51741968+51157276+50661232+50737508+51364484
3550.95+52146404+52758396+53167228+53390188+53341700+53075932+52927392+53214116
3545.81+53928248+54814152+55655968+56455872+57350544+58307336+59023776+59286616
3540.67+59282532+59323372+59445648+59533268+59629564+59899040+60433524+61195068
3535.52+61985024+62550180+62923072+63488352+64437524+65405644+65946044+66085116
3530.38+66119884+66180728+66219480+66185568+66052584+65911784+66039044+66605964
3525.24+67405128+68155376+68904432+69781256+70517712+70661448+70266600+70006680
3520.09+70467072+71499712+72428976+72834112+72946232+73253520+73908968+74701936
3514.95+75436576+76046936+76473752+76710920+76938112+77334152+77800096+78161568
3509.81+78545992+79210904+80022592+80500776+80480640+80371968+80646352+81364144
3504.67+82303992+83295992+84219576+84919464+85310312+85489336+85632392+85884680
3499.52+86376672+87220104+88367064+89532656+90337192+90586040+90413480+90175448
3494.38+90191912+90552232+91116784+91673936+92132376+92590160+93154904+93688840
3489.24+93902472+93795328+93785888+94254512+95135880+96130824+97021976+97634888
3484.10+97834936+97819784+98064792+98730368+99459800+99956384+100345736
3479.60+100768384+101052264+101045312+100908992+100886248+101071088+101495520
3475.10+102153784+102923160+103665752+104345208+104907296+105263056+105525272
3470.60+105944824+106481776+106801680+106805600+106790016+107005048+107449496
3466.10+108092072+108905200+109679184+110143392+110256608+110193136+110169792
3461.60+110411072+111026792+111812640+112448984+112911152+113345088+113619816
3457.10+113479704+113103832+112998344+113320048+113745936+114008752+114134136
3452.60+114183728+114176104+114300344+114851352+115832784+116813672+117296072
3448.10+117165288+116813800+116841056+117526632+118523880+119179176+119229168
3443.60+119093008+119379344+120184400+121020416+121372864+121176336+120766112
3439.10+120570024+120824800+121393048+121797528+121645504+121100040+120803744
3434.60+121271168+122401272+123586592+124213240+124110760+123660184+123405048
3430.10+123564112+123968648+124427968+124879736+125178272+125071896+124547880
3425.60+123921368+123478760+123251240+123224160+123472376+123916512+124229216
3421.10+124212216+124159568+124602576+125642736+126700832+127051488+126547664
3416.60+125701320+125079192+124848664+124913224+125196952+125645032+126128808
3412.10+126506208+126676768+126574288+126234856+125855944+125653472+125712184
3407.60+126052416+126644792+127259976+127552600+127481176+127354320+127336776
3403.10+127216456+126843264+126444408+126290504+126320440+126274760+125999208
3398.60+125478904+124785512+124068064+123506104+123215856+123211128+123410424
3394.10+123676152+123977208+124420560+124968072+125258064+124986864+124364064
3389.60+123916512+123901296+124123656+124200848+123899376+123352024+123005600
3385.10+123126552+123390224+123290336+122862432+122586568+122675960+122899208
3380.60+123035096+123110600+123242800+123536776+123986536+124320088+124190120
3376.10+123670536+123234888+123132056+123162208+123176008+123388568+123981296
3371.60+124729000+125206152+125181984+124736552+124135680+123649960+123354848
3367.10+123076360+122599728+121955576+121405304+121104640+120891656+120582016
3362.60+120362608+120553568+121018368+121212208+120959160+120678720+120685096
3358.10+120769432+120703848+120662384+120818680+120949592+120784352+120428544
3353.60+120178664+120160936+120332376+120617864+120930328+121206728+121447400
3349.10+121623928+121611808+121312632+120731920+119909056+118955072+118152040
3344.60+117755424+117704336+117758992+117851096+118061704+118382168+118747176
3340.10+119117736+119339696+119198048+118786704+118489352+118447288+118417728
3335.60+118216896+117904728+117537200+117184128+117102480+117463448+118016712
3331.10+118394928+118534088+118514576+118353760+118198808+118313480+118621256
3326.61+118681672+118265712+117580888+116893904+116362440+116202032+116595304
3322.11+117423200+118297552+118801600+118681672+118060048+117428304+117147704
3317.61+117013096+116611856+115947840+115405696+115305944+115710992+116481872
3313.11+117374536+118235112+119058584+119696344+119781016+119254912+118662800
3308.61+118555248+118883184+119266264+119532728+119736496+119933920+120066048
3304.11+119874096+119056672+117766248+116694232+116318912+116400640+116505416
3299.61+116587664+116729112+116766552+116589320+116455392+116643184+117012200
3295.11+117141200+116798016+116204200+115866784+116090784+116640880+117007232
3290.61+116948408+116608040+116225216+115930032+115678792+115293216+114720080
3286.11+114225952+114010024+113808232+113321568+112775816+112499424+112315824
3281.61+111923776+111476816+111204424+110968512+110689320+110574816+110522016
3277.11+110036280+109082520+108196936+107565728+106891512+106224368+105925688
3272.61+105826016+105384464+104598080+103893472+103369488+102909736+102641416
3268.11+102565048+102187024+101204256+100086576+99380656+98900240+98129120
3263.61+97051240+96130952+95666432+95466976+95113464+94418600+93558048+92726312
3258.47+91832400+90753472+89693832+88979112+88646824+88518232+88437512+88204232
3253.32+87595200+86701304+85932576+85461504+85082912+84736856+84666928+84857800
3248.18+84836240+84285232+83414472+82595032+82018488+81784208+81877192+82004336
3243.04+81798848+81228776+80556424+79980816+79472264+78825240+77818952+76547016
3237.90+75554960+75299096+75585280+75922776+76194064+76489736+76554768+76072400
3232.75+75269160+74656672+74322872+73984512+73524824+73043176+72623944+72423128
3227.61+72682984+73256256+73458640+72823392+71742880+70969512+70667056+70378464
3222.47+69779512+69018088+68332888+67739024+67184960+66737872+66529584+66643224
3217.33+67048428+67525032+67728712+67467248+66841956+66104728+65512508+65299624
3212.18+65491908+65758320+65748884+65544540+65497368+65665332+65692888+65248740
3207.04+64412340+63630236+63332352+63522220+63797676+63820372+63615724+63346496
3201.90+63046432+62670540+62234488+61876716+61830376+62161860+62457584+62161492
3196.76+61324392+60531844+60050196+59658160+59318048+59274112+59434752+59387724
3191.61+59100128+58969580+59179568+59458644+59444036+58957828+58082972+57188832
3186.47+56689204+56667572+56902540+57188832+57431400+57562836+57574212+57479744
3181.33+57186120+56656452+56167084+56088496+56455376+56984368+57387388+57473564
3176.18+57205520+56829360+56678824+56738020+56683144+56370228+55955676+55582836
3171.04+55307268+55241316+55445232+55751212+55960992+56095292+56254932+56396552
3165.90+56417060+56312888+56159792+56063044+56151016+56464520+56857544+57117876
3160.76+57162132+57035424+56805136+56517412+56163624+55701176+55221060+54991724
3155.61+55173884+55596300+55969512+56156336+56081452+55693888+55230444+55154120
3150.47+55536636+55847324+55649792+55172892+54868360+54736728+54447816+53906160
3145.33+53382168+53156500+53254832+53490512+53626748+53496800+53049528+52394040
3140.19+51783640+51443496+51348704+51235792+50880340+50337420+49881368+49726776
3135.04+49826552+49970300+50045072+50052956+49875080+49313224+48470848+47819308
3129.90+47720868+48070592+48493008+48670020+48493748+48091268+47681244+47297508
3124.76+46847304+46442324+46308544+46344568+46210796+45899864+45746204+45890524
3119.62+46136780+46261696+46141080+45749772+45306912+45156860+45346488+45599316
3114.47+45722232+45702564+45478860+44990720+44376044+43822716+43383108+43109572
3109.33+43104288+43271136+43292132+42964464+42381092+41788928+41435996+41479908
3104.19+41879720+42403304+42769784+42804032+42568616+42386368+42541124+42937336
3099.05+43273712+43430872+43426944+43191212+42707064+42174812+41720960+41216684
3093.90+40650740+40318960+40379896+40527016+40394360+40045600+39868356+40117548
3088.76+40704196+41332464+41759116+41901924+41785368+41489968+41139908+40817128
3083.62+40508996+40235108+40113012+40158124+40183128+40062392+39918480+39915668
3078.48+40066432+40320316+40645584+40951288+41074660+40900764+40460448+39948396
3073.33+39631568+39580588+39560856+39344564+39033716+38894416+38955060+38978832
3068.19+38763216+38400160+38211064+38371984+38626876+38604824+38351780+38182404
3063.05+38120188+37945444+37685620+37496344+37228012+36708824+36247640+36255596
3057.91+36599792+36864864+37005976+37230088+37492548+37542988+37299980+36898880
3052.76+36521720+36284712+36167016+36048960+35893596+35755860+35578876+35244392
3047.62+34845528+34618620+34612020+34695764+34813252+34951292+35022700+34990540
3042.48+34948236+34904952+34750168+34513000+34346144+34235288+34025192+33706972
3037.34+33359852+32970766+32658698+32851920+33743752+34787332+35197556+34846508
3032.19+34270976+33932800+33821468+33701348+33446224+33133476+32955984+33058594
3027.05+33368890+33630116+33661268+33565108+33611416+33896748+34215120+34308744
3021.91+34167332+33963228+33792388+33644044+33534320+33500598+33561812+33750716
3016.76+34088740+34477184+34797848+35101684+35456204+35669260+35456448+34848588
3011.62+34188596+33771124+33717480+34041200+34581584+34965352+34865088+34299820
3006.48+33670192+33508294+34033500+34845284+35253684+35039816+34624984+34427068
3001.34+34454940+34641972+35090436+35748520+36287280+36552192+36790328+37225684
2996.19+37717212+38027240+38160968+38249268+38306952+38316504+38397460+38685672
2991.05+39120460+39519924+39804128+39986632+40053444+40059324+40229348+40740736
2985.91+41478068+42224752+42933780+43581656+43963832+43977216+43937792+44269912
2980.77+44987768+45737352+46252720+46548452+46765392+47044224+47500256+48162652
2975.62+48962544+49789472+50554400+51215944+51845040+52584104+53443372+54199932
2970.48+54618072+54746120+54891328+55315792+55993852+56660772+57064220+57230744
2965.34+57459100+57973516+58609420+58994700+59026128+58979356+59130076+59442056
2960.20+59742332+60011696+60383248+60878224+61267528+61259108+60781252+60027296
2955.05+59218180+58462456+57857140+57518324+57380092+57162752+56708488+56188704
2949.91+55889696+55910952+56142124+56379620+56466372+56415336+56365412+56371216
2944.77+56359720+56314868+56314004+56350332+56366520+56449072+56726404+57063724
2939.63+57198976+57205404+57474796+58170912+58940624+59308152+59215452+59041100
2934.48+59132792+59404428+59468168+59166704+58815660+58810216+59125240+59383268
2929.34+59344528+59106680+58859212+58683152+58637012+58794128+59055448+59139472
2924.20+58901652+58494744+58104736+57715924+57264124+56826400+56495040+56192040
2919.06+55751956+55121512+54432632+53931336+53771264+53775828+53497052+52634180
2913.91+51397520+50343212+49876188+49931620+50069832+49888876+49371100+48831668
2908.77+48527844+48367212+48078840+47597336+47136112+46838448+46538124+46025020
2903.63+45399092+44933088+44705416+44620028+44630836+44655412+44485872+44115516
2898.49+43933252+44232324+44753944+45025864+44893156+44506016+44070560+43750752
2893.34+43529716+43155608+42496696+41839476+41547988+41621344+41825240+41979220
2888.20+41958360+41749180+41599264+41763284+42121552+42393364+42538056+42592796
2883.06+42420364+42016644+41743904+41879224+42232360+42493504+42632436+42718236
2877.92+42669380+42395448+42027444+41857872+42083272+42610712+43113128+43309564
2872.77+43179056+42849324+42386860+41785856+41109248+40560492+40324484+40257424
2867.63+39888576+39011296+38135988+37919244+38283196+38586700+38531092+38331812
2862.49+38156436+37980100+37881896+37908584+37772184+37173660+36335732+35767480
2857.34+35587924+35462680+35180560+34978432+35165764+35603948+35788276+35453024
2852.20+34915956+34703464+34944936+35288048+35324984+34995552+34569600+34287720
2847.06+34125900+33998184+34044376+34386364+34705540+34465696+33591012+32563078
2841.92+31842906+31488054+31300700+31068574+30703118+30338578+30195978+30266486
2836.77+30314182+30203176+29962274+29587260+29106368+28787708+28905584+29321314
2831.63+29625672+29654330+29585798+29561284+29472638+29157698+28635098+28098014
2826.49+27752100+27677540+27808754+28022346+28242418+28448378+28582202+28541250
2821.35+28333450+28188312+28341010+28706650+28936792+28821228+28478358+28152240
2816.20+28018078+28180268+28631808+29146724+29405816+29311808+29028708+28699334
2811.06+28324676+27923040+27594210+27328896+27017698+26761592+26887022+27451680
2805.92+28038796+28270690+28242540+28184654+28055366+27795838+27608098+27658898
2800.78+27838116+28051346+28383298+28785512+29009206+28975802+28824398+28578544
2795.63+28191602+27818380+27632950+27531228+27398936+27424272+27757098+28168448
2790.49+28374156+28390122+28323212+28161868+27962764+27919384+28100088+28365870
2785.35+28566480+28616330+28469948+28224260+28119220+28257286+28475068+28611942
2780.21+28701650+28795752+28790756+28608652+28409742+28485062+28941304+29568602
2775.06+30041554+30254774+30383108+30599654+30841852+30957652+30980228+31077732
2769.92+31294354+31506730+31635142+31727056+31809462+31850846+31894060+32072802
2764.78+32437044+32877692+33279096+33615572+33892960+34131888+34421932+34839052
2759.64+35293308+35628412+35877448+36243480+36788364+37313944+37634684+37810020
2754.49+38002144+38215220+38334020+38380808+38596992+39211984+40189872+41223060
2749.35+41973460+42351640+42603844+43066968+43815836+44596804+45152192+45488324
2744.21+45805332+46271164+46932416+47749660+48647372+49558044+50414800+51130900
2739.07+51652948+52091528+52702884+53668584+54926032+56232572+57390228+58414336
2733.92+59497752+60770596+62133360+63405156+64572764+65771980+67077740+68452608
2728.78+69867352+71346072+72903872+74502664+76070768+77580160+79125544+80854360
2723.64+82792608+84841128+86935160+89048056+91068632+92933680+94837352+97034328
2718.50+99492896+102025344+104644520+107435304+110224864+112782304+115260768
2714.00+118033160+121141896+124263856+127182544+129994456+132909640+136088720
2709.50+139581248+143233472+146784528+150170720+153586032+157124896+160627120
2705.00+163995344+167386800+170957696+174677856+178518880+182541904+186672800
2700.50+190701600+194623728+198679984+202948688+207169840+211111888+214896544
2696.00+218841952+223133584+227715440+232398192+237024928+241544848+245944768
2691.50+250183008+254299680+258494208+262919120+267463824+271933312+276368128
2687.00+280972960+285767680+290534400+295120224+299601600+304122656+308705568
2682.50+313235008+317567328+321705504+325899712+330456256+335357344+340221376
2678.00+344758656+349095872+353526944+358126432+362756256+367292288+371696896
2673.50+376027904+380470304+385191296+390074816+394763264+399060256+403182624
2669.00+407527200+412244672+417125024+421906880+426553088+431089984+435321440
2664.50+439080576+442716864+446872608+451658624+456502496+460938432+465141728
2660.00+469548320+474305824+479205824+483919936+488280544+492463072+496803104
2655.50+501373248+505942112+510351104+514664288+518968352+523276384+527585664
2651.00+531881312+536211328+540764864+545589696+550325056+554644224+558822528
2646.50+563339072+568073664+572491200+576475392+580454272+584805568+589529600
2642.00+594345664+598874304+602984384+607063232+611644544+616694720+621628800
2637.50+626040384+630098880+634204672+638533952+642952576+647260416+651471104
2633.00+655788288+660271040+664697280+668907392+673069760+677452480+682091968
2628.50+686816832+691412864+695696896+699648384+703510400+707565696+711813120
2624.00+716025920+720069568+724014400+728013440+732205440+736640320+741179520
2619.50+745583232+749800192+754055232+758523904+763020288+767141376+770701056
2615.00+773933824+777267968+780956608+784960320+789145536+793459264+797822336
2610.50+801981376+805719808+809180224+812758656+816613760+820535040+824344704
2606.00+828133504+831970240+835658496+839042816+842348224+845952576+849925760
2601.50+853998912+857897216+861517824+864859904+868009920+871148544+874408256
2597.00+877718016+880881344+883796544+886544832+889317760+892270656+895364032
2592.50+898375168+901172992+903905728+906752768+909635136+912374144+915015488
2588.00+917723456+920511744+923292608+926038592+928700480+931192896+933614144
2583.50+936237248+939118720+941915264+944225792+946030528+947752320+949885696
2579.00+952468416+954975168+956976384+958755520+960886400+963377920+965751360
2574.50+967823680+969842944+971921664+973900352+975729152+977552320+979420864
2570.00+981222208+982863168+984324480+985635904+986912064+988308224+989874048
2565.50+991526016+993164544+994754048+996308800+997851136+999364160+1000806720
2561.00+1002163840+1003476224+1004775808+1006053184+1007272576+1008400512
2557.15+1009455744+1010541184+1011758400+1013064128+1014296640+1015352704
2553.29+1016277248+1017218112+1018312320+1019585664+1020925632+1022177408
2549.43+1023212352+1023939776+1024433536+1025033408+1026051520+1027377088
2545.58+1028627392+1029652608+1030576704+1031473728+1032356800+1033354752
2541.72+1034516864+1035614592+1036467136+1037254656+1038158016+1038963584
2537.86+1039407488+1039707904+1040375616+1041573568+1042955392+1044105408
2534.01+1044921664+1045592000+1046349184+1047284160+1048275008+1049081216
2530.15+1049645056+1050259776+1051256256+1052522944+1053608640+1054316672
2526.29+1054907072+1055647936+1056476480+1057208896+1057827072+1058451776
2522.43+1059182528+1059997248+1060758528+1061380736+1061979904+1062708032
2518.58+1063485504+1064107840+1064563968+1065022976+1065562944+1066139136
2514.72+1066731520+1067360768+1068023680+1068730368+1069475392+1070146560
2510.86+1070608896+1070900992+1071212864+1071648512+1072124608+1072515904
2507.01+1072807104+1073072000+1073308160+1073389696+1073255744+1073083904
2503.15+1073129728+1073411840+1073692736+1073741824+1073521600+1073180288
2499.29+1072943552+1072919744+1072952128+1072788416+1072416192+1072037504
2495.44+1071737920+1071398336+1070949376+1070480576+1070024192+1069425536
2491.58+1068527616+1067398784+1066300544+1065476992+1064992320+1064683584
2487.72+1064239232+1063424064+1062317376+1061228416+1060293440+1059291712
2483.87+1057980096+1056422400+1054833024+1053327936+1051988352+1050890432
2480.01+1049851456+1048464896+1046634880+1044789888+1043303744+1042005376
2476.15+1040501760+1038712128+1036821696+1034901760+1032856960+1030694912
2472.29+1028627392+1026853184+1025289152+1023607488+1021568256+1019259520
2468.44+1016986048+1014965184+1013154240+1011323328+1009295808+1007151360
2464.58+1005119296+1003262272+1001396480+999359232+997160064+994845568
2460.72+992457856+990152704+988090816+986169856+984101952+981765632+979282752
2456.22+976829888+974577024+972641728+970890240+968980544+966786880+964568192
2451.72+962547904+960641920+958744448+956941632+955254144+953472128+951456832
2447.22+949360448+947401728+945606272+943879488+942157440+940416000+938632768
2442.72+936809408+935013760+933361152+931907264+930548608+929127104+927651200
2438.22+926251136+924922304+923542848+922158976+920955520+919929408+918908032
2433.73+917871552+916900864+915862848+914542144+913050944+911732352+910712576
2429.23+909848448+908989568+908041216+906939904+905789824+904834240+904144384
2424.73+903537920+902877440+902199360+901509568+900730560+899876736+899078848
2420.23+898415104+897814144+897105472+896151744+895034048+894041152+893354304
2415.73+892831296+892221376+891427264+890458432+889359040+888286720+887420864
2411.23+886709952+885951744+885156160+884537856+884114752+883595648+882719296
2406.73+881533888+880300480+879256448+878456448+877759936+876982400+876079744
2402.23+875142080+874213248+873207872+872036416+870742400+869445056+868185344
2397.73+866927808+865715264+864658624+863715008+862622720+861198976+859557056
2393.23+857905792+856291072+854673152+853094720+851624384+850250560+848921216
2388.73+847563840+846056384+844345792+842603392+841043712+839580480+837860864
2384.23+835721024+833413184+831306048+829500416+827835904+826131520+824282560
2379.73+822226240+819982784+817707392+815550528+813487872+811405120+809294784
2375.23+807242944+805245312+803194048+801010688+798683456+796219648+793659968
2370.73+791096192+788575040+786039168+783451840+780899328+778492352+776195200
2366.23+773837440+771305216+768696192+766244224+764054912+761933120+759564032
2361.73+756868864+754095744+751510592+749106560+746686400+744164864+741682112
2357.23+739408000+737318592+735226944+733012608+730773312+728688768+726781760
2352.73+724882944+722833472+720656192+718469440+716298496+714039872+711603072
2348.23+709044032+706488576+703928832+701185408+698164608+695069312+692198656
2343.73+689571200+686964096+684293504+681705152+679274624+676892608+674488320
2339.23+672106880+669735104+667306112+664890176+662620992+660416256+658018752
2334.73+655353728+652649728+650164032+647923584+645763584+643532352+641223872
2330.23+638924736+636655616+634312128+631777472+629062144+626328704+623820288
2325.73+621681024+619760384+617702720+615344704+612904448+610642752+608520384
2321.23+606356352+604111360+601817024+599437056+596977344+594589056+592381696
2316.73+590282304+588141120+585841920+583317888+580655104+578162944+576079872
2312.23+574232000+572208128+569868032+567448896+565180928+563007488+560741312
2307.73+558350656+555996480+553820160+551749248+549572608+547195264+544731904
2303.23+542368320+540198784+538193728+536203040+534015680+531550848+528992672
2298.73+526626080+524549728+522610336+520555168+518215520+515642720+513110784
2294.23+510868000+508847456+506760256+504468768+502103616+499797696+497514048
2289.73+495195552+492912768+490753472+488699904+486720128+484835520+482973408
2285.23+480891136+478454176+475887840+473537088+471426240+469286240+466966912
2280.73+464612064+462409856+460374464+458367104+456242240+454015136+451908064
2276.23+450096480+448420800+446550592+444416576+442248896+440200032+438197952
2271.73+436151520+434073440+432008256+430005440+428107968+426263680+424351680
2267.23+422352864+420372320+418485120+416676768+414899456+413055104+411032416
2262.73+408876320+406786752+404835520+402855392+400731296+398588544+396591648
2258.23+394755424+393035808+391392704+389681760+387706624+385479456+383265152
2253.73+381294912+379555296+377882016+376138240+374299648+372477760+370810720
2249.24+369214240+367416832+365385024+363493728+362001376+360592288+358795520
2244.74+356651552+354611104+352917984+351425856+349892736+348180064+346292672
2240.24+344404416+342693600+341101568+339424192+337611648+335773728+333985472
2235.74+332308576+330821120+329436224+327919808+326247520+324646816+323174528
2231.24+321598528+319800704+317972928+316339968+314914240+313555968+312099936
2226.74+310524704+309038240+307823328+306677504+305198816+303327232+301411136
2222.24+299733408+298266464+296874464+295505568+294168096+292841056+291439360
2217.74+289875712+288204512+286632288+285283744+284024832+282622208+281023392
2213.24+279440512+278153792+277185056+276168992+274718816+272904608+271147552
2208.74+269677184+268386512+267173456+266086064+265120928+264137792+262989600
2204.24+261622752+260098464+258571088+257110160+255606592+254013408+252534112
2199.74+251338624+250287616+249166736+247955936+246708688+245437632+244231824
2195.24+243196144+242216864+241089344+239847408+238665872+237544960+236368304
2190.74+235142880+233932960+232735328+231579248+230551856+229607488+228561456
2186.24+227338624+226065488+224886768+223810768+222731472+221552944+220331584
2181.74+219227760+218268864+217301232+216266080+215297344+214428288+213475968
2177.24+212327440+211110560+209975200+208932368+207965168+207100320+206320640
2172.74+205514784+204517856+203229776+201786576+200521248+199584464+198751728
2168.24+197813152+196909712+196228800+195624368+194859040+193967920+193078096
2163.74+192108432+190940432+189673808+188504832+187484208+186539664+185618592
2159.24+184723760+183890672+183134928+182388000+181538784+180579408+179619792
2154.74+178749552+177984288+177346480+176849776+176385552+175736304+174779280
2150.24+173657136+172696016+172104080+171737136+171227008+170372416+169329184
2145.74+168380560+167628352+166976208+166309344+165587824+164819824+164032080
2141.24+163245568+162424032+161495568+160478272+159533904+158797360+158213040
2136.74+157630416+156994976+156331968+155629424+154888736+154204976+153631952
2132.24+153081392+152492096+151957520+151514960+150986352+150223376+149356176
2127.74+148623328+148086560+147618576+147057632+146318000+145460112+144649008
2123.24+143972864+143371520+142797440+142305792+141920912+141554880+141106736
2118.74+140520672+139795024+139039024+138412224+137926304+137434288+136887872
2114.24+136379936+135928016+135442320+134910432+134384240+133854312+133323248
2109.74+132870240+132466848+131935264+131238872+130585544+130124688+129799784
2105.24+129518472+129186360+128610680+127691512+126672936+125905712+125434912
2100.74+125067288+124715456+124429384+124189864+123870888+123378872+122736632
2096.24+122074680+121527568+121096712+120674512+120243080+119882008+119566144
2091.74+119150888+118628008+118173320+117875552+117604968+117214560+116705192
2087.24+116157224+115624824+115151344+114760400+114414304+114045752+113652736
2082.74+113301104+113011944+112715832+112348224+111940808+111542104+111101192
2078.24+110514136+109782096+109041552+108437352+108015376+107700088+107333648
2073.74+106799144+106163184+105616568+105248600+104996176+104817312+104702368
2069.24+104512768+104057456+103406416+102870672+102576296+102312056+101896040
2064.75+101420456+101019272+100665808+100318456+100018272+99736808+99372320
2060.25+98992744+98813408+98841680+98790944+98451744+97904192+97331936+96836376
2055.10+96484512+96287872+96113560+95800128+95381424+94985864+94572104+93975240
2049.96+93212800+92552424+92229992+92227720+92342072+92386856+92280312+91978680
2044.82+91434128+90667368+89839328+89158824+88738112+88589056+88657112+88780184
2039.68+88731088+88410768+87921912+87404688+86932392+86571592+86346568+86122560
2034.53+85721288+85182688+84748640+84585720+84632464+84687488+84572184+84268064
2029.39+83942696+83762440+83680008+83505400+83146968+82660896+82122128+81590368
2024.25+81174472+80985200+80999336+81013968+80806696+80370208+79936688+79679520
2019.10+79478392+79104424+78575840+78151576+78012928+78102600+78192928+78014672
2013.96+77453160+76727768+76237496+76134160+76205176+76215408+76132544+75961832
2008.82+75622584+75142688+74770032+74706168+74803320+74680736+74145704+73407424
2003.68+72833976+72595032+72583328+72607256+72548688+72385016+72141640+71838640
1998.53+71464720+71044312+70706384+70560904+70527168+70402232+70106840+69733744
1993.39+69385584+69104392+68925312+68842248+68710080+68348552+67780280+67277392
1988.25+67129056+67396056+67885304+68291616+68360488+68021144+67452592+66954136
1983.11+66708676+66680356+66749548+66817616+66743220+66357696+65676996+64996292
1977.96+64628360+64621908+64806296+65012924+65118916+65015040+64709760+64400184
1972.82+64271152+64253412+64125512+63813664+63437140+63082504+62697068+62234488
1967.68+61801140+61603760+61771396+62207100+62593316+62629384+62295844+61845616
1962.54+61519384+61356352+61274096+61202496+61115044+61015088+60941640+60939156
1957.39+60992548+61006412+60848128+60444916+59877380+59382648+59195032+59327696
1952.25+59532284+59533148+59289832+58990988+58796732+58700848+58642200+58571692
1947.11+58385512+58029044+57675728+57544288+57485432+57117256+56424108+55856464
1941.97+55744912+55962108+56259876+56587484+56951736+57241868+57327796+57197616
1936.82+56948768+56705760+56550036+56475644+56429916+56380112+56328832+56285456
1931.68+56241840+56169920+56046856+55884520+55688952+55415220+55085204+54877624
1926.54+54954920+55225504+55391504+55189072+54568688+53797056+53353912+53532592
1921.40+54158584+54783288+54934176+54203144+52644292+51210768+51083452+52250120
1916.25+53497052+53993544+54022924+54091800+54201908+54207708+54137844+53990832
1911.11+53734364+53504948+53403020+53278276+53047312+52945284+53147000+53449912
1905.97+53554060+53416840+53207084+53110356+53192280+53338732+53399196+53395988
1900.83+53442016+53474716+53303940+52900008+52489872+52363456+52587184+52860040
1895.68+52786028+52408716+52208556+52437208+52820068+53037068+53023376+52664396
1890.54+51809776+50771396+50256724+50583604+51349812+51971424+52174520+52021612
1885.40+51772048+51671192+51748128+51900896+52146896+52510468+52779612+52713000
1880.26+52416112+52203868+52172548+52176988+52164904+52276008+52613212+53042252
1875.11+53294068+53216460+52903464+52575836+52393544+52311652+51962420+50883912
1869.97+49170256+47751132+47547628+48453616+49623936+50526676+51153952+51506492
1864.83+51513640+51351780+51361156+51632728+51980676+52240620+52413644+52541916
1859.68+52585460+52483700+52323740+52317328+52518116+52729032+52781216+52725456
1854.54+52700668+52793304+53025472+53276796+53328492+53173772+53063472+53064216
1849.40+52910252+52485180+52118288+52163792+52397120+51906936+49794648+46460648
1844.26+44077192+44731340+47845024+50829316+52145784+52279096+52177968+52104600
1839.11+52024820+52005088+52009772+51967848+52011500+52240492+52474452+52502328
1833.97+52338664+52138512+52001512+51734320+50835108+49187496+47718036+47681988
1828.83+49192420+51157032+52475932+52620732+51582676+50058256+49264336+49811156
1823.69+51084316+52168852+52804040+53176364+53388216+53430168+53319612+53070260
1818.54+52702516+52277864+51875740+51640252+51752940+52164904+52491228+52409704
1813.40+52004104+51509332+50952808+50329164+49932488+50154960+50930124+51691048
1808.26+52046272+52255916+52753704+53411908+53712644+53488164+52967732+52255664
1803.12+51323932+50388800+49732688+49282804+48857024+48621640+48879068+49598072
1797.97+50454472+51121160+51416628+51439556+51423036+51073216+49476640+46397324
1792.83+43363340+42508476+44210952+46895396+49081108+50447944+51160240+51341676
1787.69+51230744+51026996+50546884+49678988+49000584+49223820+50195616+51102676
1782.55+51385312+50954404+50020556+49167796+48993444+49374176+49697220+49796740
1777.40+49854508+49715820+49290440+49029640+48809260+47207704+43471024+39503872
1772.26+38315284+40562204+44165996+46916676+47829888+46996380+45643928+45584440
1767.12+47386208+49663104+50860128+50866536+50472212+49939996+48725420+46600344
1761.98+44679124+44683420+46821720+49285764+50402600+50167768+49302756+48186532
1756.83+47442804+48063208+49885796+51413544+51849108+51601420+50509792+47775620
1751.69+44294480+42761072+44183556+46488072+47729480+48229724+48996152+50033000
1746.55+50844480+51262664+51288176+50958840+50580032+50642992+51387904+52336820
1741.41+52292664+50492916+48067884+47368124+49134300+51664908+53282720+53554432
1736.26+51879440+47203156+40172348+34283812+33402490+37931488+44576292+49652632
1731.12+51632480+51441400+51105268+51754544+52920608+53727208+54024776+54158452
1725.98+54291652+54310908+54140552+53913436+53848396+54020576+54309052+54544740
1720.84+54564612+53937388+51777844+47434684+41997748+38697188+40053560+44431200
1715.69+47988140+49497452+50784336+53142924+55629904+57135056+57771564+57878284
1710.55+57585460+57488156+58135908+58928996+58825308+57801864+56724920+56299048
1705.41+56680544+57649264+59002740+60827452+62506920+61611316+55833116+46998348
1700.26+41809784+45604600+55723912+64969740+68571080+65983548+60513892+58322428
1695.12+63557068+73356072+81737024+86365000+88852632+91113384+93489320+95950232
1689.98+98995040+102716272+106543080+110348368+114194152+116615936+115271080
1685.48+110371720+106368400+108381296+116542088+126658472+135396688+141870224
1680.98+146474896+150221072+154189152+158684624+163221952+167126448+169575568
1676.48+169912048+169117984+170304432+175843280+184085280+191173488+195465216
1671.98+198365728+201466672+204375264+206231712+208192720+212626384+219931888
1667.48+227942656+234649008+239925920+244555632+248697664+251828720+254014912
1662.98+256770816+261928304+269370080+276982528+283199744+288289216+293057984
1658.48+297681920+302093216+306263712+309755712+311795200+311586816+308164640
1653.98+301497280+295283680+296584480+308109728+323457568+334911648+340353280
1649.48+341622400+340958112+339608640+338004224+336486144+336316608+339340416
1644.98+345402720+351455136+354881632+356078496+356843712+357765664+358376064
1640.48+358592544+358429888+357324032+354980320+351727008+347121024+340028608
1635.98+331555424+326032064+326201600+328893696+329060576+325362176+319685216
1631.48+313730720+307707648+301219872+293856512+285389280+276336576+267884256
1626.98+260700096+254221872+247201888+238672112+228868352+219592448+212822544
1622.48+208508144+204766160+200234416+195046992+189899040+184923184+179062240
1617.98+170697008+160240416+151963632+150319840+153759840+156692464+156449728
1613.48+154373488+152177184+150145472+148298672+146888048+145709248+144417792
1608.98+143182768+142180976+141177488+140109056+139266528+138708032+138249424
1604.48+137895152+137658656+137330608+136862032+136442160+136028576+135455808
1599.98+134943712+134791216+134817664+134710528+134500480+134222272+133722048
1595.48+133174840+133072408+133476552+133980688+134431120+134992288+135644208
1590.99+136235936+136792464+137348752+137867872+138527312+139562176+140813936
1586.49+141980080+143100080+144255520+145236896+145989600+146799408+147739744
1581.99+148656464+149700816+151040480+152362624+153462880+154408896+154233520
1577.49+151149536+145708736+142477072+145682016+153423680+160306880+163895472
1572.99+165488672+166799040+167670544+166914704+164581728+162743312+163571472
1568.49+166832736+170393456+172737632+173734560+173753024+173334432+173326592
1563.99+174307424+175892720+176812384+175253984+169672160+160516000+151106656
1559.49+145265472+143984736+146370480+152116912+159868064+165721024+166556656
1554.99+163504224+160960944+162088144+165838960+169047696+169836096+168484272
1550.49+166496240+165349360+165508096+166258464+166498176+165511360+163018320
1545.99+159227488+155318160+152845712+151513424+148826192+143396160+137162096
1541.49+132490096+128302008+122431928+116868680+116664440+122700232+129912800
1536.99+133706256+133551664+130913536+126808072+122014816+118236520+117251240
1532.49+118741576+120512744+121095312+120694536+119678096+117832240+115520224
1527.99+113884144+113095576+111965576+110040208+108569480+108587872+109187808
1523.49+108464984+105348256+100447408+96114320+95329640+99069992+104790208
1518.99+108573920+108623760+106570072+105614288+107122016+109688688+111641168
1514.49+112585200+112417096+110956328+108964048+107745600+107309448+106528648
1509.99+105056432+103279296+100678440+96108392+89890720+84614920+83447656
1505.49+87471208+94575000+101236088+105330400+107074992+107842456+108612352
1500.99+109273320+108992848+107526696+106163680+106259576+106841080+105876936
1496.49+104060232+104628960+108587368+113142984+115962992+117414024+118283664
1491.99+118157760+116872504+115789504+116541952+119174720+122208856+124390648
1487.49+126012512+128369392+131938856+135727392+138713808+141032112+143270512
1482.99+145468112+147389504+149230784+151459520+154251664+157428368+160714560
1478.49+163697632+165801360+166938208+168180544+170849392+174520976+177095744
1473.99+177478240+177170528+178689024+183002544+189086240+195231808+200131712
1469.49+203419968+205726624+207906704+210069616+211506752+211485680+210249680
1464.99+209525168+211307632+215421600+219491136+221949344+223403424+224660000
1460.49+225287552+224836656+223530288+220955264+216362912+211486336+210803424
1455.99+216456288+225021104+231827728+235348832+236570592+236720976+236483264
1451.49+236326272+236508432+236765296+236468416+235320464+233889904+233277184
1446.99+233979232+235261728+236002560+235895584+235442416+235013104+234509024
1442.49+233900032+233369872+232760288+231640848+230098144+228437216+225833584
1437.99+220786048+213846592+208589040+207930128+210186592+211393984+209995360
1433.49+207215792+204499104+202082512+199473440+196198448+192362240+188886304
1428.99+186600688+185050944+183152032+180725424+178242512+175567312+172291120
1424.49+168821360+165868432+163425648+161228048+159158176+156278960+151131024
1419.99+144314000+139289200+138672624+140875136+142668848+143006032+142659296
1415.49+142142048+141413360+140587296+139835600+139119600+138488960+138122672
1410.99+137908032+137552272+137118096+136938304+137082080+137257424+137081584
1406.50+136215104+134609184+132917736+132211120+132812488+133792288+134044384
1402.00+133405544+132257312+130568992+128166664+125639416+123948072+123110600
1397.50+122215368+120658440+118453160+115681336+112691552+110507040+109858856
1393.00+110081576+109972432+109237792+108310280+107298928+105796648+103380104
1388.50+100030016+96536064+94350464+94169144+94953352+95252424+94892016
1384.00+94531672+94313824+93892280+93235712+92528016+91711160+90744040+89944248
1378.85+89654528+89843480+90160248+90174064+89628640+88682480+87829528+87506096
1373.71+87866928+88827024+90117648+91411872+92532296+93390272+93836504+93892528
1368.57+93961272+94332832+94710784+94684440+94292664+93652456+92572424+91078816
1363.43+89788568+89184832+89041400+89070288+89495088+90461104+91466560+91893896
1358.28+91668272+91081704+90360320+89645224+89080080+88731208+88549632+88417912
1353.14+88168584+87687816+87092616+86642472+86425216+86299656+86142384+85965928
1348.00+85831256+85773696+85798528+85884920+86057976+86416304+86926872+87285352
1342.86+87165512+86528320+85544624+84416552+83432760+82942600+83048920+83489240
1337.71+83913144+84106072+84003584+83771952+83786480+84209048+84658776+84602896
1332.57+84010352+83342832+82986816+82953752+83079232+83237136+83332304+83298000
1327.43+83201320+83198944+83316408+83397944+83384536+83425872+83580056+83665352
1322.29+83613368+83612232+83637040+83285480+82452448+81698232+81498904+81594632
1317.14+81507648+81243032+81041112+80866232+80583064+80308304+80261288+80469008
1312.00+80776304+80974064+80909528+80620576+80304928+80095488+80021472+80141992
1306.86+80420736+80538784+80251040+79868440+79941944+80500024+81027488+81161712
1301.72+81013216+80863240+80880248+81109920+81484632+81854416+82104480+82213488
1296.57+82230640+82317496+82704336+83388048+84006464+84227352+84128744+84021744
1291.43+84081752+84303272+84617800+84939784+85274704+85780224+86530072+87305800
1286.29+87847968+88194944+88568584+89095648+89819864+90770184+91829248+92736376
1281.14+93361064+93816368+94264328+94773248+95380160+96130064+97055896+98176936
1276.00+99443136+100674024+101672832+102453024+103259192+104348496+105774616
1271.50+107360648+108865368+110159760+111252304+112252944+113417040+115013312
1267.00+116942672+118697984+119995640+121175072+122702016+124583656+126573008
1262.50+128609520+130763248+133070096+135616080+138461008+141415168+144221840
1258.00+146926064+149741840+152672928+155581136+158502384+161620416+165023936
1253.50+168641728+172323440+175968784+179622560+183375728+187139504+190719424
1249.00+194137392+197656336+201445936+205459840+209632240+213984752+218558688
1244.50+223362848+228363344+233448256+238497760+243541632+248769584+254368928
1240.00+260334464+266412736+272290784+277947648+283714080+289851168+296207552
1235.50+302441664+308415424+314206432+319933920+325763840+331903648+338373696
1231.00+344884864+351128896+357149728+363262848+369603616+375913792+381856608
1226.50+387425984+392931008+398642688+404581888+410551424+416298976+421676256
1222.01+426736864+431660448+436564512+441396384+445976480+450144832+453958112
1217.51+457681664+461466624+465106304+468281888+470917856+473146848+475128864
1213.01+477109152+479350784+481719392+483588448+484443072+484421248+484061696
1208.51+483706720+483307712+482639680+481522016+479919104+477909824+475540768
1204.01+472745280+469519488+466096672+462730144+459291424+455351424+450766592
1199.51+445895872+441079008+436194464+430956064+425365856+419608192+413759392
1195.01+407863616+402028096+396242944+390346208+384315616+378343680+372540064
1190.51+366812768+361061984+355287328+349540704+343977504+338814080+334028160
1186.01+329235040+324122144+318891424+314025472+309640768+305353600+300881088
1181.51+296515168+292754784+289585248+286454304+282992480+279492384+276522528
1177.01+274205472+272053376+269567552+266834464+264323008+262230160+260354976
1172.51+258548848+256818192+255051088+253148784+251372944+250038912+249016736
1168.01+248013024+247037232+246121120+245043520+243806864+242861600+242450784
1163.51+242282464+242076080+241799408+241333152+240606736+239995344+239891408
1159.01+240061808+240066976+239960016+239994816+240072928+240034064+240085504
1154.51+240466720+241021376+241447200+241737360+242189088+243112912+244613408
1150.01+246547216+248653616+250707920+252605920+254440400+256446416+258700352
1145.51+261009328+263336976+266047824+269398912+273133376+276915648+280780960
1141.01+284798336+288734848+292430752+296121120+300139904+304611552+309527840
1136.51+314803136+320269120+325887456+331831264+338121504+344453888+350636064
1132.01+356894208+363517376+370500416+377748224+385356672+393485504+402066208
1127.51+410801376+419447520+428046464+436828768+445908736+455224768+464795456
1123.01+474757440+485055776+495395584+505693472+516268704+527363936+538706688
1118.51+549786496+560443136+571011584+581913664+593216256+604590592+615691904
1114.01+626480064+637133248+647739072+658204288+668443264+678587520+688896576
1109.51+699354432+709476096+718809280+727562048+736288384+745014208+753244928
1105.01+760848832+768296832+775985856+783860800+791659392+799071424+805845696
1100.51+812110400+818244480+824218880+829641984+834571392+839524672+844630848
1096.01+849592000+854450176+859495936+864577536+869336832+873876288+878400768
1091.51+882652864+886426624+890175872+894406080+898871296+902903872+906226048
1087.01+909106496+911919488+914709824+917140416+918920448+920202688+921330624
1082.51+922365056+923170496+923726528+923985024+923656000+922467712+920372928
1078.01+917441152+913874048+910073728+906262336+902162880+897405888+891977600
1073.51+885955136+879243648+871902080+864240896+856308544+847759488+838409664
1069.01+828390272+817626432+805762816+792828288+779490624+766409856+753631680
1064.51+740748928+727414528+713564928+699315712+684803648+670194688+655796032
1060.01+641937152+628543168+615075456+601276096+587731840+575098176+562995328
1055.51+550513024+537709184+525599904+514562400+503755264+492409504+480773088
1051.01+469464416+458630176+448058592+437668576+427676608+418419296+409918208
1046.51+401617824+392975520+384322880+376540608+369782912+363166368+355939296
1042.01+348397984+341375840+335137088+329108832+322670368+315987392+309812416
1037.52+304516480+299726176+294988032+290288128+285739840+281223744+276582464
1033.02+271887264+267370048+263287136+259757936+256552592+253268800+249880192
1028.52+246785552+244170368+241723264+239175936+236709904+234663856+233142000
1024.02+232005136+230985600+229804272+228390640+227018112+226057664+225603232
1019.52+225420736+225225072+224959824+224804416+224901536+225143648+225345872
1015.02+225587104+226198016+227404112+229116176+231041232+232872224+234437440
1010.52+235862736+237584304+240075888+243518976+247753888+252496256+257565104
1006.02+262988528+268943104+275552256+282736800+290322688+298324704+307003808
1001.52+316532000+326688640+337095360+347750656+359051136+371160192+383655584
997.02+396055712+408462496+421377664+435013792+449024288+462796544+475848896
992.52+488050304+499544000+510319040+519857728+527415328+532624640+535596544
988.02+536472992+535172288+531528800+525465280+517094400+506826944+495249984
983.52+482746400+469397664+455346432+441043552+426993344+413414304+400242752
979.02+387320128+374531424+361876160+349466016+337408480+325726400+314474528
974.52+303866272+294145280+285290112+276937152+268703616+260596032+253020576
970.02+246379920+240685536+235566000+230577456+225481856+220342304+215440848
965.52+211117072+207594448+204861952+202623792+200407632+197866560+195070688
961.02+192451216+190373376+188792608+187403888+186021664+184719264+183661248
956.52+182944112+182537584+182207008+181598080+180595568+179515376+178781600
952.02+178490768+178448112+178436016+178316560+178062144+177824048+177798176
947.52+177953744+178077776+178096016+178141040+178274528+178357504+178248672
943.02+177994160+177750672+177587280+177489536+177573120+178035760+178744288
938.52+179151136+178941664+178489600+178332960+178522912+178843712+179286032
934.02+179889648+180507376+181089936+181847552+182775296+183394464+183289936
929.52+182708336+182366416+182686368+183343376+183723760+183834320+184412464
925.02+185871856+187524048+188312048+188038320+187411808+187140576+187426592
920.52+188149792+189097088+190028720+190791280+191406944+191974688+192520368
916.02+192992528+193385568+193780576+194224992+194693584+195264112+196129040
911.52+197281936+198375136+199130400+199661568+200191952+200689152+200966464
907.02+200937264+200689152+200480368+200639632+201240512+201974000+202534624
902.52+202944960+203332240+203617264+203666048+203577920+203655920+204147872
898.02+205042192+206074784+206968624+207692208+208386480+209014480+209260816
893.52+208866112+208003664+207217776+206920928+206999376+207021760+206814560
889.02+206626576+206711760+206972608+207084224+206791808+206068272+205126800
884.52+204322864+203944048+204015040+204270752+204358528+204163696+203908288
880.02+203788480+203652352+203293568+202872928+202637216+202432176+201952224
875.52+201351280+201078528+201193648+201254736+200854304+200021280+199136752
871.02+198548720+198245344+197935888+197488160+197068976+196786096+196543376
866.52+196363744+196423776+196593744+196381632+195562000+194555136+193960880
862.02+193952416+194156720+193977312+193142096+192130640+191852272+192690512
857.52+194140320+195554592+196720896+197363696+196814720+194953264+193012368
853.03+192569168+193767216+195122848+195148128+193966576+193286656+194540080
848.53+197041424+198641392+198371952+197286832+196335424+195111728+193513376
844.03+192668848+193108384+193859552+194309024+195185072+196811648+198193600
839.53+198613280+198605200+198815536+199083984+199103472+199046688+199042432
835.03+198570848+197014784+194697968+192777648+191916928+191590208+190978336
830.53+189779152+187976448+185810560+184154256+183786176+184038400+183436432
826.03+181851344+180753008+181038016+181851616+181918976+181071392+179947200
821.53+178894144+177814736+176816432+176278672+176085360+175451824+173974288
817.03+172307200+171148784+170094816+168326848+166008304+164188640+163582816
812.53+164074848+165063184+165729472+165397216+164195296+163027696+162484992
808.03+162119664+161219728+159865984+158707792+158073968+157885616+158146352
803.53+158923232+159820832+160024176+159029200+157330400+156286112
##END=
