##TITLE=octarelline 6 front
##JCAMP-DX=4.24
##DATA TYPE=INFRARED SPECTRUM
##DATE=1/2/2005
##TIME=2:41:33
##SAMPLING PROCEDURE=film
##ORIGIN=Vincent
##DATA PROCESSING=no operation
##XUNITS=1/CM
##YUNITS=ABSORBANCE
##RESOLUTION=2
##FIRSTX=4000.283
##LASTX=800.31372
##DELTAX=-0.64282227
##MAXY=0.18885788
##MINY=-0.0015152034
##XFACTOR=1
##YFACTOR=1.7588761e-010
##NPOINTS=4979
##FIRSTY=0.020401459
##XYDATA=(X++(Y..Y))
4000.28+115991451+116687224+116963728+116943832+116737688+116296584+115788312
3995.78+115506992+115374520+115061640+114573360+114284944+114418880+114784272
3991.28+114968824+114696848+114172104+114015192+114484856+115013984+115008288
3986.78+114777936+114966816+115419856+115489872+115149536+114898504+114874160
3982.28+114878624+114997952+115364800+115597672+115267648+114653984+114389144
3977.78+114558872+114731688+114717816+114788272+115168960+115659056+115886408
3973.28+115757760+115497280+115281384+114990096+114452656+113831784+113569952
3968.78+113923040+114658464+115302976+115589496+115547712+115295256+114981144
3964.28+114811240+114769616+114486560+113869696+113561488+114113384+115026024
3959.79+115379464+115086768+114686056+114332256+113887264+113612032+113862616
3955.29+114369552+114552080+114351840+114236856+114477784+114684360+114142816
3950.79+112710688+111233048+110645616+110741056+110501408+109665360+109173688
3946.29+109860608+111236288+111905472+110953472+108834984+106999536+106688024
3941.79+108041936+110182224+111944416+112688352+112698360+112792496+113416168
3937.29+114318704+115070736+115482160+115486328+114924720+113454848+110764456
3932.79+107428688+105243008+105579984+107547200+109115072+109784152+110644552
3928.29+112154184+113436368+113559176+112332848+110148976+107909392+106677112
3923.79+106891632+108220448+109922624+110858048+109976936+107675720+105811936
3919.29+105433448+105339160+103793304+101061440+99461888+100907816+104755584
3914.79+108544456+110782776+112073936+113332048+114374048+114834528+114943064
3910.29+114826664+114416880+114077928+113929808+113130816+111048920+107777488
3905.79+102704840+95116336+87076752+82279968+81045336+80436920+79704312
3901.29+80780112+83289752+84385688+84075032+85933904+91771528+99352800
3896.79+105744512+109808920+111556688+111578400+110929624+109738896+106276976
3892.29+99193920+90796128+86382560+89105856+96668224+104403216+109595056
3887.79+110771832+105541128+93459496+80320304+74860976+79789296+89758528
3883.29+98461392+103395184+104035224+100212952+93990704+90048536+91770752
3878.79+97931832+104665144+109500744+112111360+112245512+109038328+102901680
3874.29+96856496+94739632+97598024+101735376+100713880+90584504+74485384
3869.79+61736380+60485440+70769584+85564688+97005272+100523336+95939208
3865.29+87620160+82491624+84492440+90622376+94817024+95349752+95862864+99416384
3860.15+104767096+109095696+110966728+110088656+107466800+104994984+100569328
3855.65+85786392+55382492+18724452-5455865-8614611+2380204+19969540+42483968
3850.51+66791248+86447800+98491104+105310424+109724136+112516904+114053256
3846.01+114529880+112981368+108617968+102918112+98869152+97870576+98034576
3841.51+96474632+93107504+89821104+85085864+74029176+57341572+45547500+47960936
3836.36+60543204+72379448+79547456+85644536+92514592+97057152+96712296+93576568
3831.22+92290760+95454848+101573280+107029040+109403352+108607200+105914248
3826.72+103285000+102843536+105129816+108171392+109266288+106509008+98245136
3822.22+84105648+68341328+58987616+60798268+71169296+84118584+93930312+94678472
3817.08+82870416+63914064+51511956+55311744+71358200+88792024+101288976
3812.58+108838360+113131272+115092176+115585648+115667080+115029720+110800016
3808.08+99828112+84027072+72123184+72214104+82687936+94782152+102169280
3803.58+102836632+94626784+76616360+55819312+45602220+52825564+70967688
3799.08+88784080+100006504+103780728+101993808+98654544+98249120+102030624
3794.58+107399016+111592408+114120168+115543080+116121024+116158056+116063192
3790.08+115813920+115363264+115259176+115826408+116338696+115936080+114696232
3785.58+113184888+111802440+110972272+111077864+111993088+113248376+114172568
3781.08+113441760+109863384+104557056+100900304+101175664+104543080+108890504
3776.58+112941776+116091096+117928992+118524952+118327152+117762128+117139976
3772.08+115973096+112393984+105069928+96274160+91242472+93187736+99884824
3767.58+105821000+107022584+103960312+100617608+100602896+104017728+108379600
3763.08+111788272+113903448+114242080+111344664+104858624+97802120+94773136
3758.58+96961336+100729200+102444640+102590528+103716424+106420184+108268728
3754.08+104338736+89605464+65637492+44450976+37535200+40374764+39241808
3749.58+32156884+31370488+44909400+66191184+82975736+85447536+67704568+34013308
3744.44+4490956+1435357+25104272+56022400+78922392+91999736+99058176+102727704
3739.30+103978272+102275744+96036064+85392992+73500416+64165244+60050960
3734.80+62605256+70004864+75970944+75357560+71002536+71188840+79710088+92204760
3729.65+102639624+108820056+111034296+109477504+105005888+100287136+98218184
3725.16+99566232+102634560+104667152+103806360+100889736+99153160+100897232
3720.66+104734864+107479400+108070688+108120816+109292288+111692800+114339048
3716.16+115962616+115871136+114343208+110936856+103004960+89140344+74345544
3711.66+67328552+70541512+77636440+82706352+86623848+92596192+100315192
3707.16+107155224+111836168+114643040+116105440+116623344+115959048+112928528
3702.66+107127256+100871640+97906560+99901056+105098792+110436912+114187992
3698.16+116427872+117743448+118325920+118280832+117820784+116936416+115712600
3693.66+114484248+112400624+107259744+99156072+92133552+88189776+82195360
3689.16+69017296+54189220+50574412+62953680+82746680+99339928+109295520
3684.66+114319320+116435424+116992752+117221920+117671680+117809064+116708824
3680.16+114067912+110916232+108990016+107884336+102960152+88739688+66131160
3675.66+45162552+37925832+48139364+69039992+89423696+99379616+94392832+78877104
3670.52+64429596+60275652+66092772+76595864+88777832+101319792+111753928
3666.02+118178320+121227536+122361784+122425200+122446376+123266192+124286536
3661.52+124628616+124670560+124950280+125183288+125065616+123579648+117936568
3657.02+107107272+96115320+92470592+97973472+107834984+116598048+120914824
3652.52+118787472+110156984+97305000+83037376+70058312+62055404+61789796
3648.02+67729224+76098736+85680344+97286464+109797528+120214016+126856456
3643.52+130165696+131264504+131375160+131737288+132836024+134162544+135047968
3639.02+135241040+134895168+134619296+135146368+136408656+137236544+136344112
3634.52+133554120+130291992+128858832+130372976+132788792+131321448+121665800
3630.02+103889096+84240712+72416720+74576096+88404696+106102760+121200016
3625.52+131558312+137860992+141517760+143745136+145171344+145586736+143969488
3621.02+139037952+130816448+122119456+117141056+117748696+122422264+128864728
3616.52+135472224+140491040+142513712+141940768+139912960+136690192+133329936
3612.02+132840512+136096528+138763312+136302272+130372352+126846544+128651688
3607.52+133817144+139628736+145317296+150919968+155852896+159158400+160496320
3603.02+160493328+159977472+159184784+158238560+157792496+158220512+158952144
3598.52+159598592+160623536+161950960+162379232+161424416+160280368+160181120
3594.02+161160128+162798112+164854720+167072736+169110688+170197456+168708368
3589.52+163663856+156866576+151697472+149619744+149895584+152369264+157661328
3585.02+164740352+170988640+174946976+177300256+179168160+180687168+181416624
3580.52+181393808+181412352+182148368+183302064+184142672+184632224+185192928
3576.02+185782320+186187456+186820288+188184544+189941520+191289376+191916832
3571.52+192121392+192230384+191926368+190025760+185567840+179400320+173885088
3567.02+170886448+170989776+174234592+179907280+185960528+190466080+193444528
3562.52+195977696+198186208+199450528+199948384+200587760+201790064+203159616
3558.02+204154704+204701600+205314752+206583040+208386592+209853504+210204944
3553.52+209404768+208117408+207345136+207860448+209584832+211725856+213522416
3549.02+214548848+214577408+213806464+212981888+212764192+213241152+214334688
3544.52+216129312+218508176+221019088+223307984+225291312+226938368+228280624
3540.02+229425232+230311760+230747504+230764800+230612752+230512080+230735088
3535.52+231597936+233022608+234540832+235925616+237248752+238291392+238703568
3531.02+238718352+238893776+239265200+239458976+239444880+239567632+240133024
3526.52+241281056+242811024+244006272+244334336+244299696+244840976+246027968
3522.02+247201984+248207840+249581872+251556624+253621008+255044096+255521136
3517.52+255435760+255635904+256696432+258410016+260228944+261870688+263162640
3513.02+263815664+263850400+263782432+263945200+264158784+264410560+265208928
3508.52+266843312+268849472+270561664+271737760+272465504+272895648+273219808
3504.02+273615360+274132032+274738752+275353888+275859392+276376704+277426752
3499.52+279377088+281816256+283903648+285206016+285816000+285909024+285681984
3495.02+285553920+286020896+287302368+289204128+291186336+292641024+293373792
3490.52+293732480+294056576+294293984+294359488+294527776+295184512+296458016
3486.03+298231648+300153120+301619744+302181216+302013728+301684768+301610272
3481.53+302023200+303145984+304935904+306937920+308675616+309974592+310817536
3477.03+311254048+311517024+311859456+312306560+312875424+313788736+315055328
3472.53+316183040+316771584+317107264+317805312+319107104+320758304+322271968
3468.03+323239584+323696768+324157056+324966368+325842016+326367904+326611968
3463.53+326892160+327289216+327724448+328221312+328842336+329643104+330764576
3459.03+332255392+333835552+335095072+335865216+336284416+336706080+337550464
3454.53+338836192+339905760+340096096+339641760+339354016+339620320+340311264
3450.03+341381088+342717376+343605600+343311520+342282336+341996864+343381472
3445.53+345839360+348052064+349335488+350017824+350749696+351765344+352853248
3441.03+353813056+354687392+355525536+356203008+356612352+356894816+357290624
3436.53+357848352+358432160+358991552+359678400+360619264+361615104+362192640
3432.03+362085952+361667936+361710560+362613280+363990048+365142752+365819040
3427.53+366349216+367085760+367883232+368245536+368008448+367712864+368088352
3423.03+369178624+370239712+370629760+370515232+370563648+371164032+372138368
3418.53+373093216+373818048+374300800+374517984+374366592+373946784+373759680
3414.03+374359552+375780928+377478208+378869856+379761792+380283200+380612032
3409.53+380807456+380872352+380949632+381322464+382057344+382815776+383273472
3405.03+383571552+384036928+384703616+385437120+386278816+387234496+387980928
3400.53+388263040+388359168+388669024+388967456+388630816+387597088+386665216
3396.03+386668832+387587648+388662144+389282176+389618912+390325920+391684224
3391.53+393231488+394256320+394479744+394156544+393716832+393488128+393599680
3387.03+393927104+394181728+394183808+394030016+393952832+394151712+394739456
3382.53+395660384+396616064+397251424+397496224+397680000+398246976+399268192
3378.03+400235968+400528640+400182464+399943520+400351200+401066656+401429760
3373.53+401411968+401657632+402641120+404055488+405018080+404907424+404041120
3369.03+403413024+403650432+404409504+404898080+404684448+403922048+403132480
3364.53+402840352+403121376+403534624+403749280+404006784+404677152+405657184
3360.03+406601248+407298400+407567424+407319008+407008192+407449056+408800064
3355.53+410217088+410833696+410675872+410406176+410519808+411017088+411669920
3351.03+412371808+413117152+413698816+413779712+413446848+413281888+413544320
3346.53+413787712+413650976+413441760+413405088+413120800+412330368+411725536
3342.03+412120768+413256128+414190272+414583648+414919488+415589376+416312928
3337.53+416594944+416475616+416577824+417255168+418045600+418349952+418394976
3333.03+418814144+419483840+419676576+419259712+418810784+418590240+418371104
3328.53+418170944+418278720+418604512+418838208+419089856+419647648+420317568
3324.03+420659584+420697792+420859744+421392800+422166912+422860576+423162816
3319.53+423004352+422701312+422682080+422969216+423122784+422781472+422216320
3315.03+422148960+422902464+424018912+425041376+426217792+427791264+429083488
3310.53+429202944+428373920+427649088+427580736+427996352+428744576+429801408
3306.03+430895296+431631392+431750944+431046912+429567232+428070080+427599200
3301.54+428364256+429576704+430391904+430543584+430207104+429805088+429788096
3297.04+430205312+430627712+430715360+430562176+430388384+430329888+430599328
3292.54+431350080+432288096+432831168+432749120+432341600+431990240+431816544
3288.04+431694304+431415648+430933856+430494400+430314304+430184864+429773024
3283.54+429226240+428999168+429110528+429173152+429086496+429161280+429543552
3279.04+430005952+430195232+429794368+428710400+427368608+426396384+425855840
3274.54+425384000+425035424+425139456+425451168+425482464+425432960+425646656
3270.04+425546656+424423296+422817632+421760384+421126944+420073664+418637888
3265.54+417608736+417208608+416950912+416473504+415807776+415113792+414512000
3261.04+413923168+413122880+412198720+411536384+411052864+410130528+408673216
3256.54+407438816+406966048+406925088+406734880+406134016+405158208+404184128
3252.04+403807456+404055328+404167104+403615968+402780064+402150176+401597888
3247.54+400848928+399984160+399139456+398370624+397928480+398003488+398193888
3243.04+397859968+397006688+396226240+395825760+395491808+394753120+393453312
3238.54+391815712+390290944+389301152+389041984+389463488+390278656+390943264
3234.04+390915520+390191968+389321472+388724736+388222080+387453024+386426016
3229.54+385374304+384426624+383718336+383485280+383650816+383644928+383025824
3225.04+381988832+380945824+380000032+379148544+378564320+378311648+378139040
3220.54+377826400+377356800+376653536+375693024+374873760+374671104+374874592
3216.04+374758784+374051136+373218304+372795712+372833536+372959296+372630848
3211.54+371513216+369891776+368584992+368180768+368386176+368361856+367647968
3207.04+366607360+365815296+365270528+364552768+363671296+363132192+363066016
3202.54+362905760+362195680+361160896+360266368+359692064+359377920+359127680
3198.04+358624064+357687104+356550848+355647584+355264160+355409088+355710944
3193.54+355515360+354515648+353193024+352188480+351500672+350833024+350367872
3189.04+350497824+350964000+350943104+350014112+348654400+347673184+347339296
3184.54+347164160+346560480+345538016+344564864+343878464+343260384+342510784
3180.04+341787392+341375200+341317568+341329248+341035584+340343360+339587200
3175.54+339190208+339154272+339030176+338439328+337552768+336908320+336718720
3171.04+336516480+335734688+334504864+333429920+332650464+331750144+330661952
3166.54+330031872+330366464+331293984+331970176+331916672+331323328+330660256
3162.04+330142560+329576352+328820128+328178784+327939744+327654208+326527616
3157.54+324579296+322840544+322192992+322502048+323063392+323393408+323365728
3153.04+323019776+322574848+322314720+322180064+321694144+320554208+319079328
3148.54+317866432+317211328+316999008+316891040+316464960+315521376+314472192
3144.04+314110304+314672096+315441440+315556992+314939328+314101760+313321696
3139.54+312461376+311457408+310512608+309761856+309147776+308660064+308355456
3135.04+308131328+307770688+307240288+306625984+305889216+305037312+304376448
3130.54+304200480+304307392+304147584+303406880+302267552+301286016+300967296
3126.04+301212512+301283680+300631168+299531936+298555808+297859488+297391296
3121.54+297273120+297524128+297904352+298285792+298611136+298475936+297511488
3117.05+296206144+295480608+295479968+295522080+295155328+294562112+294036192
3112.55+293603200+293123360+292460384+291663936+291056032+290930816+291207200
3108.05+291529312+291570048+291122720+290176576+289022624+288081056+287604480
3103.55+287619520+287866432+287772480+286961312+285911840+285541056+285976768
3099.05+286353408+285942400+284948352+284064768+283695456+283717728+283749120
3094.55+283575104+283353248+283302880+283316768+283118528+282705120+282265344
3090.05+281802912+281175776+280521760+280309920+280787552+281479072+281520320
3085.55+280599424+279339200+278508256+278164608+277914080+277630272+277434144
3081.05+277237568+276810464+276229056+275865792+275936096+276243712+276359392
3076.55+276036000+275397504+274701088+274029920+273395392+272949888+272806080
3072.05+272779936+272577760+272130624+271606656+271198432+270950400+270641824
3067.55+270057888+269467552+269358912+269582784+269387136+268549504+267729744
3063.05+267496160+267702496+267931664+267853744+267269344+266388672+265820688
3058.55+265741520+265562224+264859600+263976336+263296592+262718336+262145776
3054.05+261783632+261680384+261613312+261472928+261306048+261146688+261091888
3049.55+261195280+261111360+260340656+258953744+257633760+256983200+257123648
3045.05+257786192+258490736+258915152+259157728+259344432+259171152+258403808
3040.55+257464208+256872640+256469952+255824752+254972464+254166624+253392688
3036.05+252666432+252317408+252482576+252737360+252617072+252190272+251867712
3031.55+251872272+252092624+252286448+252269008+251966160+251392864+250670768
3027.05+249976288+249422464+249046224+248883616+248894672+248919408+248925280
3022.55+249120960+249511872+249675344+249369536+248955392+248781040+248661904
3018.05+248429008+248340960+248482528+248469184+248163216+247951680+247959312
3013.55+247772704+247276640+247012000+247347088+247873920+247976608+247617664
3009.05+247256992+247096592+246683296+245544608+244156400+243702016+244581632
3004.55+245751232+246026016+245513888+245183584+245454384+245894640+246107616
3000.05+246282272+246761040+247480816+248097808+248531216+249031744+249672400
2995.55+250120896+250080336+249695696+249345952+249284736+249594752+250172016
2991.05+250679424+250832864+250769648+250870656+251308928+252034960+252949168
2986.55+253820640+254352112+254638288+255168608+256083184+256931920+257393984
2982.05+257732768+258235168+258765456+259166880+259600112+260205584+260860256
2977.55+261464080+262125312+262914464+263786032+264781600+265981824+267241792
2973.05+268296512+269157504+270155104+271499200+272978816+274181216+274953760
2968.55+275537376+276235296+277089504+277985088+278920960+279946240+280959424
2964.05+281867232+282813856+283899008+284782528+284997888+284610752+284215392
2959.55+284242816+284587104+284904384+285009952+284924224+284703040+284316288
2955.05+283653536+282677056+281555968+280560192+279797728+279131392+278436608
2950.55+277835040+277599840+277821504+278260480+278517120+278342496+277806528
2946.05+277238208+276990080+277160992+277518304+277776064+277916544+278187168
2941.55+278794272+279690432+280608320+281276544+281679840+282149504+283080736
2937.05+284480416+285849024+286641120+286825120+286897024+287295104+287883616
2932.56+288214880+288241344+288453056+289155168+289968672+290354688+290354688
2928.06+290442912+290828512+291348608+291882432+292417824+292769728+292624128
2923.56+291882432+290754176+289586048+288742208+288413824+288291776+287696256
2919.06+286312704+284613024+283281952+282486784+281947104+281409984+280734656
2914.56+279712032+278172864+276253216+274340576+272749376+271474720+270268384
2910.06+268982080+267786000+266896928+266134912+265065552+263652384+262417328
2905.56+261727520+261273968+260534128+259467680+258431104+257653696+257128240
2901.06+256792608+256434688+255685504+254553104+253712688+253757344+254369072
2896.56+254725568+254511504+254007248+253428080+252705568+251743376+250527936
2892.06+249186720+248132976+247782144+247976256+248140112+248045584+247950864
2887.56+247992048+247933952+247559568+246923984+246256064+245802112+245623136
2883.06+245500560+245313600+245344672+245836096+246477088+246798432+246791936
2878.56+246690448+246532192+246349280+246369424+246629472+246840544+246916528
2874.06+247172064+247722096+248136064+247949728+247200528+246279024+245469664
2869.56+244809952+244234544+243653312+242938016+242045344+241226528+240803328
2865.06+240670304+240394016+239890368+239469360+239118640+238464016+237676352
2860.56+237521120+238160736+238726128+238570496+238138048+238103376+238347312
2856.06+238356544+238123136+238060768+238277312+238443104+238311472+238042416
2851.56+237933520+238005824+238002560+237712672+237177792+236558320+235852592
2847.06+234845600+233448512+232012272+231001856+230318032+229323968+227731808
2842.56+226094880+225102336+224680304+224146976+223105136+221863120+220990624
2838.06+220656656+220502016+220121136+219456560+218629744+217683968+216790736
2833.56+216367232+216565008+216882976+216742384+216204016+215726928+215456000
2829.06+215155568+214639360+213949952+213249984+212732720+212513296+212507200
2824.56+212493088+212341680+212137504+212083792+212251552+212425728+212315520
2820.06+211910928+211427632+210930016+210341776+209795360+209520432+209386336
2815.56+209029920+208454160+207996848+207747088+207494816+207255344+207314400
2811.06+207701328+208015120+207884608+207359536+206851376+206776016+207148400
2806.56+207468064+207200432+206393104+205631744+205355056+205458656+205559456
2802.06+205399344+204966880+204438608+204043888+203881504+203881984+203945440
2797.56+203938432+203588048+202702176+201566000+200768144+200533328+200549152
2793.06+200540528+200597680+200807584+200957664+200822272+200474272+200109408
2788.56+199784656+199490256+199333744+199474288+199863328+200169104+200076048
2784.06+199629552+199155216+198877920+198800576+198884656+199074160+199123776
2779.56+198775520+198141712+197649168+197550784+197703392+197801280+197616144
2775.06+197119728+196564736+196325232+196513104+196879520+197140128+197216800
2770.56+197106016+196793456+196338784+195863152+195440816+195111584+194934128
2766.06+194887616+194841296+194710096+194532032+194354496+194192096+194120288
2761.56+194253712+194596352+195007584+195286320+195291712+195074944+194851792
2757.06+194735376+194600352+194379808+194251776+194273616+194108496+193510912
2752.56+192845328+192722336+193236992+193925888+194315632+194219312+193697776
2748.07+193078304+192857264+193259600+193866368+193980048+193421296+192760832
2743.57+192631936+192974256+193207840+193078624+192918368+192973616+192964528
2739.07+192580096+192050640+191879312+192190288+192681280+193039456+193197344
2734.57+193261488+193357472+193497200+193582192+193600368+193738704+194147040
2730.07+194680288+195060288+195210000+195245360+195201264+194994992+194673920
2725.57+194484096+194629824+195061088+195572560+196018944+196343696+196512656
2721.07+196544832+196578752+196775440+197134080+197505040+197784064+198008240
2716.57+198240288+198476784+198728624+199095696+199631616+200199424+200583632
2712.07+200770400+200979712+201425984+202142240+203012752+203900368+204770224
2707.57+205723248+206830896+207902400+208641536+209056816+209447552+209953984
2703.07+210453488+210958544+211707104+212720688+213686608+214428608+215183184
2698.57+216251072+217607136+218962656+220075776+220948432+221771984+222691488
2694.07+223656288+224594864+225602016+226767040+227932912+228888784+229722096
2689.57+230724880+232038144+233585232+235231328+236852976+238343248+239728512
2685.07+241175248+242750320+244319696+245764080+247099808+248321904+249368080
2680.57+250377744+251711264+253519392+255477888+257130688+258298736+259095952
2676.07+259798592+260795824+262347744+264279344+266181952+267920336+269637472
2671.57+271319648+272759360+273918912+275021728+276306912+277906848+279824416
2667.07+281879104+283819936+285538912+287011424+288191232+289236064+290597536
2662.57+292492032+294513536+296161120+297487424+298895136+300595904+302508896
2658.07+304428224+306132480+307602976+309156928+311087136+313229632+315132576
2653.57+316566624+317733888+319046496+320734688+322595968+324244160+325663680
2649.07+327212768+329020192+330841984+332576640+334375232+336186944+337760704
2644.57+339163040+340744288+342602432+344523072+346352032+348088512+349798400
2640.07+351639424+353752448+356027040+358224704+360267232+362147616+363782336
2635.57+365244928+366831008+368652192+370512640+372304544+374088096+375756448
2631.07+377155360+378514592+380269856+382502688+384949088+387353984+389469504
2626.57+391043424+392180576+393407232+395091232+397091520+399137024+401185472
2622.07+403266624+405306464+407263648+409217536+411223616+413198912+414998912
2617.57+416560416+417993120+419552928+421436416+423584704+425787968+427952768
2613.07+430167488+432461312+434655936+436528128+438048384+439419168+440916544
2608.57+442725760+444827616+447022432+449155104+451262368+453390240+455399744
2604.07+457209536+459033760+461068064+463108032+464867296+466477056+468260160
2599.57+470188192+471964992+473490592+474939904+476511168+478308960+480310592
2595.07+482328576+484164448+485825216+487486176+489283200+491202912+493070944
2590.57+494674240+496080992+497681568+499662560+501691744+503486880+505283648
2586.07+507319456+509290144+510828160+512110528+513523232+515120704+516782400
2581.57+518507424+520275584+521928800+523396256+524787328+526231744+527850880
2577.07+529750848+531807264+533666304+535173504+536550496+538005504+539484608
2572.57+540912896+542369536+543911616+545481664+547004352+548385792+549527488
2568.07+550506688+551571136+552827392+554175040+555616320+557284544+559095104
2563.58+560734016+562076800+563308544+564607936+565958464+567318144+568709824
2559.08+570155776+571625152+573033728+574275456+575359104+576472256+577749760
2554.58+579100480+580396800+581648576+582828672+583776832+584502016+585297984
2550.08+586379008+587614976+588783552+589842048+590853504+591842176+592824128
2545.58+593834560+594921408+596165568+597621632+599164672+600529344+601582720
2541.08+602475008+603464064+604688704+606090176+607461120+608607296+609521344
2536.58+610371456+611286144+612229312+613125312+614009280+614992448+616101376
2532.08+617248768+618361408+619485696+620690432+621922624+623040832+623979776
2527.58+624846912+625857856+627134528+628510272+629591040+630181568+630560384
2523.08+631163456+632127488+633282368+634438720+635457664+636233536+636877888
2518.58+637745984+638988096+640244288+641082688+641601152+642307584+643422208
2514.08+644636672+645614848+646464000+647528704+648902272+650355584+651632384
2509.58+652608384+653252928+653680384+654147008+654833024+655680192+656532224
2505.08+657329856+658076864+658790848+659555072+660478080+661553216+662642176
2500.58+663626112+664498752+665339392+666232256+667193344+668222784+669398720
2496.08+670745344+671992512+672745600+672948992+672958784+673115904+673517760
2491.58+674135936+674875648+675569472+676193536+676965824+678005696+679059968
2487.08+679795392+680192704+680467968+680798848+681283520+681965760+682733440
2482.58+683321536+683584768+683696640+683931392+684277184+684440896+684321536
2478.08+684277952+684728576+685617024+686487104+686997952+687135744+687029184
2473.58+686822592+686682944+686704000+686791616+686854272+687070720+687691008
2469.08+688487296+688721792+687983808+686822976+686157952+686217984+686519616
2464.58+686692608+686782336+686812544+686652160+686331840+686027904+685761472
2460.08+685438144+685068608+684683072+684176448+683487296+682773056+682256000
2455.58+681983552+681784512+681425600+680909504+680558336+680568448+680596864
2451.08+680194304+679516992+679120256+679137856+679204864+679106048+678977024
2446.58+678906496+678775808+678502592+678130304+677697216+677184832+676574656
2442.08+675923328+675414592+675270656+675462592+675635712+675498432+675192384
2437.58+675086016+675291200+675577408+675696256+675584768+675274240+674832960
2433.08+674435712+674301632+674471488+674761152+674995264+675184000+675431680
2428.58+675727232+675898816+675768192+675353408+674905472+674695872+674776256
2424.08+674989760+675142144+675121152+674991360+675002624+675364416+675953792
2419.58+676427776+676614656+676618240+676578816+676560320+676601408+676658880
2415.08+676559744+676177728+675622848+675138624+674864896+674747648+674652864
2410.58+674542848+674473792+674426560+674294912+674107328+674013696+673937344
2406.08+673600192+673008768+672525824+672327040+672212224+671979264+671596736
2401.58+671031936+670315072+669620224+668959680+668073664+666937088+666007104
2397.08+665644032+665613376+665422720+664843264+663980800+663073088+662249792
2392.58+661401024+660361216+659233344+658266048+657485760+656746368+656034240
2388.08+655376512+654621824+653641280+652538560+651449216+650340096+649174208
2383.58+648005440+646848320+645687232+644620608+643735680+642882112+641789120
2379.09+640358656+638730688+637089536+635460224+633691264+631674112+629556096
2374.59+627592512+625808576+623968896+621877376+619552256+617163328+614888128
2370.09+612751936+610583488+608259136+605896768+603615680+601271232+598745408
2365.59+596326336+594435648+593065664+591800448+590333824+588726976+587226304
2361.09+586003072+585039808+584193408+583379008+582674944+582198144+581927424
2356.59+581735808+581577408+581567744+581884160+582612160+583640960+584710848
2352.09+585595968+586263936+586785920+587087424+586891200+585962944+584307712
2347.59+582059712+579337536+576343296+573436160+570898048+568722688+566774720
2343.09+565011968+563414144+561880512+560344000+558833728+557281536+555480448
2338.59+553354432+551097024+548963072+547064448+545413440+543977280+542649152
2334.09+541310144+539942400+538591296+537272256+535999872+534826016+533765792
2329.59+532782080+531875200+531047648+530147424+529011360+527838464+527087008
2325.09+526840160+526579648+525828352+524724896+523705408+522908800+522194656
2320.59+521483200+520761664+519909280+518807392+517538016+516318368+515287648
2316.09+514396416+513453472+512298304+511029824+509973280+509279296+508672992
2311.59+507762112+506495936+505132704+503849312+502574464+501198432+499804608
2307.09+498614720+497739744+497010432+496091808+494784288+493187936+491595456
2302.59+490240832+489150976+488151808+486974528+485450944+483684448+482014208
2298.09+480723392+479782912+478911872+477879712+476665376+475344896+473967520
2293.59+472573152+471230432+469952800+468646240+467238816+465825792+464574720
2289.09+463479968+462328544+460993088+459648864+458513632+457463744+456171872
2284.59+454616768+453133824+451900352+450700032+449339072+447968000+446800512
2280.09+445751392+444575936+443195808+441731520+440368384+439249856+438345920
2275.59+437434368+436356736+435199680+434056256+432798720+431362880+429995840
2271.09+428914400+427950816+426872224+425786016+424891168+424066752+423034528
2266.59+421755008+420424160+419197952+418072288+416921088+415666464+414454656
2262.09+413534368+412856224+412047616+410903776+409590752+408271232+406941888
2257.59+405737824+404924256+404399616+403641248+402335520+400747808+399355872
2253.09+398384096+397738944+397136960+396289152+395136320+393906016+392818944
2248.59+391876256+390997216+390173568+389343904+388337312+387100000+385826912
2244.09+384741152+383852448+383051264+382272096+381485952+380656864+379766400
2239.59+378804672+377772192+376766176+375913280+375105056+374040000+372688864
2235.09+371417920+370478272+369706880+368941632+368308096+367860640+367340544
2230.59+366552032+365643392+364815200+364029824+363160832+362230752+361416096
2226.09+360873696+360521120+359987232+358983200+357704608+356630752+355938752
2221.59+355376992+354703360+353946944+353229696+352553600+351855648+351130944
2217.09+350411008+349665792+348854560+348057024+347398048+346818784+346147488
2212.59+345414784+344810208+344292064+343601728+342703520+341835296+341082528
2208.09+340290880+339409056+338603904+338005408+337545216+336997376+336165024
2203.59+335137216+334281696+333771872+333328320+332668448+331933632+331357632
2199.09+330836736+330159040+329368800+328660576+328149696+327830848+327583648
2194.60+327225024+326720992+326223776+325772672+325199776+324433664+323639168
2190.10+322949344+322299296+321568768+320737760+319903232+319247808+318917248
2185.60+318851744+318789952+318433952+317632928+316527136+315531712+314983424
2181.10+314803712+314663776+314384768+313977792+313411424+312648928+311815072
2176.60+311109792+310606048+310242560+309943904+309657600+309333568+308913920
2172.10+308346400+307639680+306890944+306191968+305572256+305076800+304768896
2167.60+304598400+304419936+304199328+304030208+303904704+303642880+303103712
2163.10+302354720+301583840+300941536+300447648+300020000+299568192+299060608
2158.60+298547840+298140320+297901536+297727168+297412544+296897824+296310336
2154.10+295762272+295312736+295057344+294990336+294852800+294439904+293922656
2149.60+293552480+293257440+292876960+292492032+292180096+291776256+291194912
2145.10+290660448+290331488+290048448+289644768+289189760+288782560+288390688
2140.60+287966624+287519968+287110272+286857216+286815360+286772864+286414208
2136.10+285756512+285156800+284838656+284670208+284448928+284143744+283810208
2131.60+283484640+283198912+282971296+282734304+282364352+281839360+281325376
2127.10+281029824+280941120+280797472+280415744+279941792+279615936+279406784
2122.60+279084768+278601504+278143520+277823168+277532000+277182400+276898240
2118.10+276864768+277023680+277062208+276749696+276237920+275916992+275952544
2113.60+276058848+275788640+274998848+274003232+273319072+273265952+273693120
2109.10+274035680+273773888+272945248+272114336+271748608+271780288+271864928
2104.60+271815616+271574592+271035968+270224544+269475808+269077600+268901024
2100.10+268660928+268372320+268244352+268256000+268159552+267855536+267526016
2095.60+267365936+267296880+267074368+266685744+266415392+266374880+266218016
2091.10+265643840+264924336+264514736+264389088+264208080+263921136+263761472
2086.60+263844688+264105888+264422832+264590432+264440688+264064608+263650784
2082.10+263164448+262555456+262078384+261990656+262107168+262024688+261613312
2077.60+261013712+260433376+260086336+260028768+259960928+259539600+258885904
2073.10+258447120+258384336+258428976+258339744+258202496+258259360+258563952
2068.60+258839968+258705968+258088288+257302816+256673264+256252160+255987024
2064.10+255858048+255740688+255419136+254873552+254352112+254055520+254002368
2059.60+254229776+254800144+255504480+255868816+255626240+255024192+254511360
2055.10+254292880+254264992+254249664+254139376+253928608+253658496+253331040
2050.60+252904992+252427776+252076992+251938624+251874736+251739936+251584160
2046.10+251481168+251300960+250876512+250263568+249673568+249242256+249032864
2041.60+249126000+249501120+249903632+250049552+249907712+249597840+249104672
2037.10+248380992+247678832+247385664+247464064+247449440+247106832+246722960
2032.60+246592048+246597408+246481808+246215936+245948288+245831872+245970080
2028.10+246276416+246406144+246089920+245492112+245007072+244797760+244775648
2023.60+244847008+244932976+244860016+244536768+244139360+243897920+243743760
2019.10+243377488+242671552+241839536+241225872+241069312+241406496+242002352
2014.60+242408208+242318064+241894416+241549168+241415936+241295664+241047712
2010.11+240753872+240488448+240204720+239910816+239745712+239840288+240167088
2005.61+240485360+240462480+240003120+239443440+239226784+239423632+239739728
2001.11+239933024+239966448+239820624+239425600+238808992+238151040+237666144
1996.61+237446736+237416592+237410928+237274352+236781680+235621488+233835952
1992.11+232253200+231943248+233000304+234333216+234916032+234801088+234677440
1987.61+234945008+235519008+236143232+236530640+236481072+236121696+235827440
1983.11+235814528+236003952+236253200+236434928+236345680+235821648+234971232
1978.61+234115552+233527472+233313456+233454512+233846000+234317680+234657840
1974.11+234702528+234481456+234202928+233969632+233636336+233110432+232589664
1969.61+232204336+231643856+230535824+229123424+228223312+228458688+229684160
1965.11+231165088+232215984+232633808+232596144+232330800+232014208+231808912
1960.61+231749888+231685248+231518576+231380384+231418368+231550432+231558176
1956.11+231304720+230826704+230342256+230127728+230253584+230514208+230645536
1951.61+230511440+230127072+229696416+229519568+229650880+229762800+229477744
1947.11+228724576+227838672+227419392+227755040+228048352+226836560+223865632
1942.61+221035840+220609680+222737392+225561232+227437616+228217808+228557984
1938.11+228839552+228991008+228886688+228597040+228334528+228275760+228430576
1933.61+228610272+228587360+228319024+227946784+227591248+227270112+226995168
1929.11+226776096+226576992+226425344+226459232+226710896+226997584+226985152
1924.61+226161808+224141008+221509744+219892016+220416240+222542528+224770736
1920.11+225504960+223156208+217509264+211720896+210498544+214812912+220663600
1915.61+224156800+225226336+225622176+225962288+226029216+225911328+225633296
1911.11+224946624+224051888+223553984+223608608+223899280+224245760+224636624
1906.61+224961120+225109120+225107200+225070272+225189872+225562688+225930688
1902.11+225984064+225861984+225892144+225998592+225866352+225484320+225120240
1897.61+224982112+224997392+224733840+223838528+222853056+222879152+224062704
1893.11+225354048+225982448+225858768+224415472+220970640+216763424+214754336
1888.61+216440992+220177776+223336656+224902768+225443680+225611536+225484496
1884.11+225106704+224963376+225529776+226532480+227141824+226924976+226208416
1879.61+225565760+225364672+225705888+226385536+227005168+227315264+227347424
1875.11+227276400+227320448+227558624+227741984+227614816+227071152+225298896
1870.61+220695776+213270528+206450048+204350208+207401008+212573280+217270400
1866.11+220955504+223778912+225721984+226966288+227799264+228222496+228228160
1861.61+228115808+228217024+228562976+228917216+229061728+229120032+229439136
1857.11+229993648+230325472+230267152+230142112+230154720+230241440+230452624
1852.61+230797296+231011088+230993136+230929472+230680784+229782512+228227344
1848.11+226745248+226345360+227064240+226004880+218309936+203650864+190898848
1843.61+190809024+203082752+217163872+225376768+228490800+229906096+230751248
1839.11+230995584+230760128+229847600+228501648+228016512+228978544+230292016
1834.61+230870000+230777728+230517424+230273456+229135856+224825392+216571248
1830.11+208520608+206892496+212895888+221718352+228083360+229353216+225242784
1825.62+218666576+215236992+218043088+224223520+229148928+231477680+232420368
1821.12+232930096+233326224+233663680+233445760+232295872+230905248+230259392
1816.62+230481888+231204512+232157632+232912624+233031504+232576096+231605376
1812.12+229599040+226505856+223905888+223842256+226440848+229584336+231238304
1807.62+231525696+231970240+233152000+234204240+234457824+233966208+232343584
1803.12+229024112+224986896+222116096+220549792+218944928+217544128+218460752
1798.62+222389216+227097280+229759744+229632656+228416224+228101600+227511856
1794.12+221976480+209176016+194866928+188917184+194526464+205748848+216098480
1789.62+223910736+229369696+232123840+232865584+232870096+231261264+226619584
1785.12+221267776+219824304+223266080+227989088+230364240+229300224+225769424
1780.62+222468768+222236864+224962912+228004272+229923712+230794688+229828080
1776.12+226883680+224518800+223139952+216609360+199696720+178623184+167591376
1771.62+173671136+190589760+207137216+215399472+213480880+206726880+204595008
1767.12+211453920+222123824+229271168+231446336+231391056+229700784+223749120
1762.62+212899904+202645776+201038912+209735600+221523104+228602528+229420736
1758.12+225946976+219730032+214034240+214208672+220985136+228486144+232217920
1753.62+232459184+227899344+215026784+197725568+188519872+193711632+205162016
1749.12+212675648+215546128+218364912+222955520+228043792+232242656+234508944
1744.62+234224624+232287616+231146016+232958256+236537136+236269392+227551696
1740.12+214792192+209495120+216874784+229888016+239552240+242581600+236304064
1735.62+215678752+181920864+149969088+139818896+157632144+190072800+218084224
1731.12+231565136+232988944+231470384+233446272+238434512+242844640+245043968
1726.62+245814496+246012816+245453088+243801904+241674464+240435248+240989616
1722.12+242935440+244788960+244612160+239950080+227343696+204322064+175468816
1717.62+155489536+157880816+177739104+196790128+205956160+211948912+222382288
1713.12+234727904+243259232+247145376+247873920+246385712+245151088+246733744
1708.62+249163104+247898320+241971328+234580960+229268592+227835760+230134704
1704.12+235081760+242287072+248883904+244134160+216265376+170950816+137778336
1699.62+144817056+186072736+229719040+248850400+235318768+201931904+179126688
1695.12+192022144+232679264+272152768+294264512+303382464+308603200+312222048
1690.62+313837536+315809536+319874112+324718976+330174848+336950656+338772704
1686.12+323212736+287493856+250569280+240548960+265176304+306279904+343173312
1681.62+367155104+379150784+384648768+389832608+397599072+406609952+413591616
1677.12+414161024+404223328+386723584+375784576+385100448+410361312+433383136
1672.62+443152256+443756928+442986048+440986240+434910912+429553216+435126080
1668.12+454135392+477388608+494853888+504838752+511243040+515684448+515470048
1663.62+509464352+503521504+506726496+521133504+539170240+553002112+561804160
1659.12+568538304+574642624+580326848+585815168+589446080+587011264+573404800
1654.62+543553024+497024160+449551616+434117152+470346784+536680544+594941056
1650.12+626356928+634313088+629654016+620163968+608533376+595709760+586784640
1645.63+591539904+613181312+640100480+657548160+662964416+663632896+664247808
1641.13+664037888+662811840+661292672+657616128+650099776+639827328+625097280
1636.63+600273024+568463616+548644160+556771648+583697472+607002624+615918208
1632.13+614277120+608588480+601563392+593412224+582886400+568436928+551637056
1627.63+537415040+528986944+524296448+517671584+503637152+481453760+458169312
1623.13+444034720+441995168+445013728+444892288+439633216+432199712+424385344
1618.63+411500032+385152544+346441632+314992448+313025504+337016128+362380096
1614.13+373641536+373799552+370658016+366766496+362383872+358513312+355036992
1609.63+351347456+348444224+346921728+345300736+342891712+341102656+340423104
1605.13+339565984+338080128+336643328+335244096+333736992+332903872+332976800
1600.63+332958464+332561824+332545024+332805856+332533696+331884992+331336608
1596.13+330453760+329143488+328490592+328983584+329847360+330772160+332109568
1591.63+333392992+333872608+333936160+334223264+334587584+335177184+336624288
1587.13+338470240+339642112+340397600+341497728+342501344+343055264+343974720
1582.63+345340448+346199168+346879744+348307776+349714464+350534944+351115456
1578.13+346778272+327926784+295027616+269283584+274587104+307207616+341485088
1573.63+360886976+367891904+370742496+370507680+362404960+346203552+331557920
1569.13+330322912+343641792+361340608+373483840+377241600+374794784+370255968
1564.63+367997472+370013728+374583424+377348288+371237952+348074432+306965600
1560.13+260946992+228101600+215973344+223645328+251668592+294256032+331301888
1555.63+344083488+334279008+321736256+323855296+339813504+356574944+363754528
1551.13+360391360+352897920+348742688+350610272+355840320+360241856+360461536
1546.63+353831936+340286272+325853120+319045984+319312576+314970400+298512800
1542.13+277627680+263127760+251179728+231778352+212105424+214774064+247520528
1537.63+290921536+322466016+335543648+334435392+323588160+306751136+291887872
1533.13+288636160+298261856+311933760+321430272+325838816+326650752+323229024
1528.63+316507872+310863584+307657984+302612736+294028224+287850208+289637184
1524.13+295323008+294453824+280152960+255041152+231292944+224319264+240324576
1519.63+268717856+290353856+293716736+283660960+275426464+278631648+289504640
1515.13+300073696+307025792+309118592+304956064+297507680+293620128+295028608
1510.63+296195808+292762432+284628384+270233568+245928288+213778384+185742848
1506.13+177158416+194946560+231229088+268964192+294553984+305347776+307217280
1501.63+307147264+307343584+304741408+296848544+287821760+284073728+282982368
1497.13+275498368+263114848+260985248+277091008+299764096+314475200+319490720
1492.63+319431072+314623840+303911200+292078688+287342400+292352064+301537600
1488.13+307811712+310150816+313610944+321891200+332291232+340007904+344273312
1483.63+347291392+349764672+350909888+351437536+353357408+357346048+362451872
1479.13+367735104+371964864+372519648+368025120+362516064+362609504+368120672
1474.63+370322304+362876128+350495104+344255392+351079520+369813152+393863616
1470.13+414973824+427962944+434018560+437827808+441458720+442563968+437775840
1465.63+427359712+418134688+419551712+432816256+448132480+457010848+460708768
1461.14+462906528+461917760+455365600+444356608+427698624+401834272+373768032
1456.64+364049248+384499712+421418816+452896576+470270912+477163840+478872384
1452.14+478314496+477728832+478671392+480073184+478781600+473212128+466182176
1447.64+463043968+466222880+472662432+477595392+479337376+479388832+479253696
1443.14+478876672+477970080+477048480+476305120+475031616+473132224+470635296
1438.64+463763584+446051808+418883904+397878944+399169728+418872352+437997920
1434.14+445070272+443316064+439873280+436759456+432473984+426121984+418654752
1429.64+412957792+411662720+413317600+413735200+411695808+409111776+405882848
1425.14+399972416+392464160+387189376+385643040+386354400+386772960+381678528
1420.64+364918368+339111392+319512928+319520000+334565504+349766720+357733376
1416.14+361090400+363529824+365396480+366088192+365700032+364392576+362504000
1411.64+360825824+359733792+358909344+358335648+358530368+359608608+360828224
1407.14+360933152+358623392+353668384+348336416+346393856+349154432+353635872
1402.64+356182592+356247680+354640032+350172160+341699872+332410432+327888320
1398.14+329597056+333579136+335090880+331474784+322642304+312574112+308261664
1393.64+312882112+321704512+327803744+329095072+327802912+326012544+323525280
1389.14+318287456+308728448+297492256+291350752+294209280+302092736+308287040
1384.64+310489056+310317664+309195296+307641184+306289920+305238816+303820800
1380.14+301915424+300132000+298762944+297832256+297468512+297107968+295360512
1375.64+291549184+286619488+282444544+280985120+283246272+287911552+292018560
1371.14+293816704+293745088+292548064+290529984+288833856+288920032+290365952
1366.64+291368160+291226240+290130048+287303392+282124608+276563232+273735072
1362.14+274225760+276254400+278881248+282459872+286368448+288864960+289321120
1357.64+288776608+288195680+287576352+286854560+286505312+286963008+288060384
1353.14+289174688+289632544+289140928+288049664+287061024+286580832+286479680
1348.64+286456704+286430400+286520640+286827744+287283520+287721568+288040864
1344.14+288251936+288338400+288081440+286995712+284618016+281189472+277999872
1339.64+276525664+277038656+278459648+279626656+280288992+280836064+281619328
1335.14+282672736+283744480+284421472+284421472+283848992+283103680+282573568
1330.64+282419616+282564352+282811552+282961376+282885824+282594720+282260864
1326.14+282096064+282177888+282437088+282670272+282546816+281928128+281205280
1321.64+280821568+280465376+279449952+277965472+277060736+277181248+277654208
1317.14+277858880+277989504+278348448+278664576+278541376+278084864+277789568
1312.64+277990016+278546112+279022336+279123968+278885056+278449248+277935808
1308.14+277600832+277760256+278351072+278817344+278692960+278126880+277663104
1303.64+277592928+277703104+277651232+277394336+277142720+277035200+277093824
1299.14+277355968+277764672+278032672+277955904+277761376+277866144+278395744
1294.64+279095648+279567296+279521472+279064800+278753728+279083136+279899584
1290.14+280594656+280808032+280707104+280673152+280938304+281437856+281825152
1285.64+281775168+281403232+281227904+281584160+282223776+282650976+282700640
1281.14+282610528+282650304+282906432+283356544+283893728+284292192+284410912
1276.65+284431392+284651520+285082464+285481600+285693888+285752192+285742464
1272.15+285801120+286104192+286665952+287232960+287536672+287588608+287672928
1267.65+288102592+288992544+290181696+291366976+292334464+293083424+293753376
1263.15+294431296+295021792+295364480+295540800+295939808+296893312+298365504
1258.65+300081184+301776736+303267296+304472352+305427872+306169792+306689312
1254.15+307168608+308023264+309442368+311097280+312525824+313626976+314563296
1249.65+315413984+316150752+316822112+317600096+318645120+319924928+321181344
1245.15+322190144+323056416+324131744+325569984+327157504+328656192+330138528
1240.65+331812096+333596800+335142624+336306016+337379712+338747904+340502528
1236.15+342458528+344286976+345623488+346382208+347052704+348308864+350247616
1231.65+352285632+353813760+354718688+355376480+356347456+357885824+359587168
1227.15+360789376+361368224+361816320+362552064+363586080+364823136+366240288
1222.65+367716672+369025920+370030272+370733600+371223904+371618944+371969184
1218.15+372263968+372613952+373235616+374116864+374941056+375434976+375532000
1213.65+375191872+374494112+373887616+373884320+374447584+375045408+375280480
1209.15+375162400+374844448+374446400+374092736+373867232+373749728+373648576
1204.65+373440384+373029312+372509856+372154944+372062528+371941216+371461536
1200.15+370685728+369934368+369401920+369064896+368792832+368407648+367828192
1195.65+367250752+366944032+366840416+366652032+366389504+366373088+366679008
1191.15+367001760+367180864+367427808+367877888+368293920+368419968+368374720
1186.65+368478560+368862848+369425184+370094720+370976320+372171904+373577504
1182.15+374984448+376297856+377511552+378542848+379338880+380099072+381169280
1177.65+382640864+384215936+385555808+386758720+388312000+390395872+392445856
1173.15+393812768+394735680+396018368+397878944+399872032+401835328+404020992
1168.65+406325248+408312224+409932448+411465920+412973568+414482720+416268992
1164.15+418323200+420148864+421625152+423344096+425668352+428260256+430809120
1159.65+433346304+435724928+437706752+439579776+441828480+444294048+446451232
1155.15+448330272+450461216+453082560+455948992+458782432+461583136+464601024
1150.65+468076192+471902048+475668736+479191520+482762336+486681248+490787104
1146.15+494731808+498593408+502948768+508184416+513874432+519169312+523830048
1141.65+528498720+533809344+539668032+545610368+551393728+557037760+562673024
1137.15+568520448+574708224+581092096+587512128+594036864+600692864+607269696
1132.65+613725248+620454336+627833664+635739712+643721024+651432064+658765888
1128.15+665779264+672668096+679727552+687151104+694820928+702373376+709624576
1123.65+716817152+724233216+731715392+738878528+745739072+752804480+760504384
1119.15+768725824+776919104+784650432+792041472+799508800+807076544+814286208
1114.65+820926208+827388224+834061568+840818176+847339200+853627264+860036992
1110.15+866987136+874546176+882090496+888687680+894107264+899135360+904647168
1105.65+910739072+916944896+922836992+928241088+933293760+938423040+943971456
1101.15+949784640+955392960+960495616+965098944+969428480+973869760+978667072
1096.65+983501504+987831104+991777536+996065920+1000878592+1005485632
1092.80+1009404544+1013160960+1017407424+1021972160+1026307328+1030240640
1088.94+1033747200+1036633088+1039052480+1041801024+1045481024+1049705024
1085.08+1053560576+1056611072+1059116480+1061519040+1064015808+1066530048
1081.23+1068867968+1070841920+1072310144+1073230400+1073664704+1073741824
1077.37+1073618112+1073465920+1073340608+1073088320+1072561984+1071798848
1073.51+1070734336+1068954880+1066171712+1062696000+1059086656+1055582656
1069.66+1052116416+1048433536+1043993472+1038328192+1031748480+1025216960
1065.80+1019396352+1014137920+1008759360+1002538752+995208384+987162752
1061.94+978896512+970374976+961433024+952356736+943347072+933957056+923930496
1057.44+913965952+904699520+895573376+885643584+874990016+864418816+854201664
1052.94+843908224+833275264+822545472+811926848+801151424+789786240+777867136
1048.44+766060736+755063936+744907584+734975616+724790144+714534144+704569536
1043.94+694589184+683814016+672200640+660872576+650923264+642191104+633724672
1039.44+625071680+616556224+608479488+600642752+592729792+584750912+576899968
1034.94+569198528+561566208+554159168+547290176+540977024+534947232+529079520
1030.44+523378272+517611552+511590432+505741888+500763392+496781216+493391744
1025.94+490280320+487283776+484202976+481093952+478376256+476270880+474437856
1021.44+472440000+470226752+468054304+466256672+465064000+464437408+464182336
1016.94+464240032+464653760+465328576+466197824+467460064+469295776+471510496
1012.45+473773504+475986400+478252832+480799424+484043040+488378528+493724064
1007.95+499472896+505014400+510266560+515742144+522042784+529192064+536612672
1003.45+543879168+551234752+559168832+567700608+576303168+584374656+591704448
998.95+598594048+605531072+612744576+620177600+627739968+635314944+642646400
994.45+649567872+656236608+662903424+669609664+676240832+682559488+688134144
989.95+692678976+696530688+700316736+704045056+706986560+708570048+709032576
985.45+709058752+709037056+708800704+707911552+706012672+702977856+699023040
980.95+694732288+690652928+686666112+682041984+676279744+669601792+662554240
976.45+655482240+648463168+641387456+634035712+626302528+618283392+610059840
971.95+601685888+593380224+585292416+577177920+568815680+560579968+552962496
967.45+545775936+538502784+531158208+524195264+517854784+512102752+506840320
962.95+501793152+496597440+491273824+486266560+481823840+477716256+473664288
958.45+469759072+466387136+463831072+461962272+460324928+458521088+456416800
953.95+454056736+451691424+449797056+448618656+447758016+446648160+445345280
949.45+444400480+444070464+444069056+443982752+443609856+443004192+442373472
944.95+441881088+441578208+441569792+441987968+442642464+443081664+443173952
940.45+443265344+443571584+443855008+443874816+443781920+443857856+444074688
935.95+444140064+443933760+443726080+443869664+444395168+445132128+446042240
931.45+447027872+447598720+447300960+446398304+445613216+445282496+445185536
926.95+445028000+444719040+444361728+444196096+444309600+444383040+444049216
922.45+443404448+442780352+442205856+441508864+440739552+440098368+439652032
917.95+439346752+439060128+438563840+437688992+436561280+435456672+434462816
913.45+433507744+432622816+431968000+431588832+431197600+430307808+428719712
908.95+426827840+425226368+424097888+423184064+422209696+421065472+419756320
904.45+418396160+417090304+415775168+414408032+413228320+412427232+411754528
899.95+410915200+410132640+409775904+409651872+409264640+408600320+408078528
895.45+407737376+407004032+405453184+403483712+401977024+401332480+401128320
890.95+400774784+400236320+399940384+400158080+400628896+400677504+399750752
886.45+398048800+396503232+395794432+395631552+395352224+394866400+394489088
881.95+394244768+393943840+393608608+393269120+392707936+391951968+391518016
877.45+391626176+391676192+391113984+390394336+390388448+391080640+391519232
872.95+391041056+390094720+389557952+389462624+388912800+387468672+386064320
868.45+385922624+386923744+387762592+387530624+386509472+385580768+385334752
863.95+385546048+385356768+384300704+383022528+382355776+382162336+381930368
859.45+381785536+381783840+381231968+379982656+379207392+379469120+379370272
854.95+377586304+374855616+372638944+371210720+370151872+369396256+368879456
850.45+368257152+367454848+366721088+366037152+364944992+362775840+359077504
845.95+354332480+350037696+347379488+346036608+344708832+342640448+340586464
841.45+340312608+342422208+345026496+345944320+345476576+344918368+343580736
836.95+340176480+336026400+333567552+332634592+331091552+328192736+324966080
832.45+322239104+320098784+318548480+317332960+315937472+314592672+314433408
827.96+315779872+316918144+315737760+312507808+309919168+309996928+312079200
823.46+314213120+315157344+314355168+311739584+308645600+307181600+307708672
818.96+308487616+308425760+308234848+308413760+308216512+307368768+306909792
814.46+307449120+308071968+307691648+306544000+305771968+306064480+307223776
809.96+308781504+310525280+312154240+312930048+312365856+311069408+310252768
805.46+310625216+312085568+313899712+314968896+314658080+313560960+312740000
800.96+312488384+312744320
##END=
