##TITLE=octarelline 6 front
##JCAMP-DX=4.24
##DATA TYPE=INFRARED SPECTRUM
##DATE=31/1/2005
##TIME=17:0:36
##SAMPLING PROCEDURE=film
##ORIGIN=Vincent
##DATA PROCESSING=no operation
##XUNITS=1/CM
##YUNITS=ABSORBANCE
##RESOLUTION=2
##FIRSTX=4000.283
##LASTX=800.31372
##DELTAX=-0.64282227
##MAXY=0.2357015
##MINY=-0.0039033534
##XFACTOR=1
##YFACTOR=2.1951413e-010
##NPOINTS=4979
##FIRSTY=0.005945595
##XYDATA=(X++(Y..Y))
4000.28+27085250+27225846+27374338+27329982+27002642+26574958+26396164+26604360
3995.14+26843414+26561452+25730142+25021348+25053354+25663838+26151788+26070774
3990.00+25630628+25409756+25705530+26156208+26162780+25684626+25247314+25157258
3984.86+25248386+25411428+25719748+25993826+25887248+25452280+25055622+24809616
3979.71+24620360+24543708+24629792+24719228+24788962+25082136+25613546+26014374
3974.57+26087142+26063604+26171622+26374056+26559538+26629336+26464404+26084396
3969.43+25717836+25533986+25520248+25679010+26045202+26458788+26651212+26615716
3964.28+26574120+26522730+26158478+25456580+24976086+25266422+26108652+26703804
3959.14+26567188+25900030+25160244+24674448+24614746+24907422+25188072+25187952
3954.00+25082254+25168484+25385150+25435676+25192134+24732482+24197368+23745466
3948.86+23433280+23104312+22661132+22360322+22566780+23235200+23894778+24093516
3943.71+23761338+23239140+23034638+23433396+24282246+25181980+25799672+25989402
3938.57+25846028+25704696+25858454+26214164+26424726+26365094+26143780+25687612
3933.43+24762690+23566930+22818948+22934426+23474564+23760384+23765636+24024642
3928.29+24784662+25592520+25747584+25020392+23843692+22850562+22363184+22418644
3923.14+23005528+23882840+24393872+24056752+23257870+22825150+22956854+23035114
3918.00+22475178+21434692+20732440+21117384+22461462+23834500+24610688+25096228
3912.86+25749494+26395328+26654440+26588224+26494762+26558822+26842936+27101744
3907.72+26751134+25514750+23669564+21283062+18156670+14968079+13148245+12957249
3902.57+13185401+13233006+13761477+14890728+15663768+15836007+16519638+18479456
3897.43+21107014+23452608+25134924+26107936+26481734+26596470+26474442+25293416
3892.29+22333250+18597300+16574933+17766830+21124058+24522570+26756274+27240070
3887.15+25048456+20015786+14523149+12298937+14657984+19314632+23268612+25225812
3882.00+25118202+23139154+20243920+18451486+19254378+22030704+24990296+27175390
3876.86+28599442+28982332+27638838+24765078+21946876+20936940+22045850+23646410
3871.72+23187952+19240444+13198816+8768178+8941001+13405863+19301414+23689136
3866.58+24877326+22732106+18950040+16436518+16958354+19376318+21243490+21876528
3861.43+22636438+24435178+26488906+27780192+28142108+27733432+26919558+26269134
3856.29+24750034+18913014+6772511-7629570-16574165-16872104-11832410-4788751
3851.15+3719041+12775055+20067724+24414164+26646192+27961142+28910414+29667766
3846.01+30027398+29338122+27301166+24745018+23139752+23151800+23831636+23679824
3840.86+22496528+21129064+19122090+14653589+8157319+3972362+5676976+11172113
3835.72+15745786+18024930+19963490+22514658+24095186+23328748+21316560+20529988
3830.58+22176546+25217454+27751130+28692284+28068308+26519858+25060996+24703702
3825.44+25585590+26764764+27224768+26391386+23564424+18274380+12009429+8210605
3820.29+9144404+13684412+18980042+22547218+22310350+17256320+9687308+5083150
3815.15+7201498+14110744+21086396+25535894+27726256+28730336+29224068+29587444
3810.01+29964060+29900128+28149646+23572418+17103824+12438840+12960216+17795030
3804.86+22916054+25515470+25054906+21168874+13720393+5434316+1614566+5054303
3799.72+12968288+20468862+24863834+26061572+25127996+23599152+23056116+24124434
3794.58+26035166+27619706+28460904+28889714+29262366+29587564+29703916+29572006
3789.44+29366968+29288216+29262484+28981134+28309814+27486020+26888362+26793330
3784.29+27288850+28138520+28839580+29022418+28605304+27447160+25418000+23074128
3779.15+21648206+21918976+23540916+25660852+27601530+28906224+29373314+29207554
3774.01+28860996+28705928+28804162+28613204+27135338+24050424+20678698+19118636
3768.87+20189116+22638942+24378824+24195816+22588844+21250522+21488694+23079022
3763.72+24854280+26036718+26559420+26379434+25106260+22614612+19913460+18736818
3758.58+19675836+21326930+22056580+21890598+21891550+22489610+22944804+21437792
3753.44+15849677+6532438-1749217-4207059-2748311-3179973-6222718-6554662
3748.30-871972+7805669+14350076+14999804+7642890-5871201-17333194-17781786
3743.15-7604900+4806754+13299012+17511500+19408946+20375570+20835760+20330056
3738.01+18003154+13899704+9341667+5835100+4413624+5621275+8606623+10747125
3732.87+10103179+8090299+8189883+11833728+17017114+21098910+23192486+23691402
3727.73+22974630+21328956+19472896+18421726+18770150+20167794+21455790+21531968
3722.58+20451106+19510292+19817694+21018698+21952840+22194434+22262528+22680096
3717.44+23510128+24521498+25238592+25172782+24269592+22490564+19057436+13527442
3712.30+7855039+5397423+6874276+9513710+11110209+12426975+14896668+18205468
3707.16+21205706+23462514+24987908+25714488+25740536+25148658+23558220+20822652
3702.01+18036234+16861778+17822634+19935380+21934000+23260854+23994202+24393512
3696.87+24665136+24889270+24903836+24410106+23454996+22453470+21292244+19130306
3691.73+16026093+13673370+12788110+10953679+5793706-357512-1885412+3298368
3686.59+11369104+17679616+20948498+22315242+22908656+23137122+23128892+22977016
3681.44+22719340+22271472+21465210+20402378+19574960+18953136+17001054+11724590
3676.30+3411531-4164695-6415732-2082147+6016065+13545607+16869272+14447837
3671.16+8186567+2761701+1665787+4303003+8267089+12567600+17078606+20947904
3666.02+23312878+24354712+24662388+24553020+24408434+24607582+25010240+25310256
3660.87+25557878+25768132+25745910+25502090+24755526+22348992+17826324+13308984
3655.73+11875013+14141979+18159052+21879390+23929746+23213484+19566742+14107538
3650.59+8178515+2845781-455369-505592+2137110+5755978+9558974+13778221+18185828
3644.80+21870686+24214916+25271078+25481186+25471392+25763474+26385646+26925538
3639.66+26978136+26462972+25710070+25298670+25561938+26238660+26739302+26642608
3634.52+25912336+25030780+24838398+25651414+26426998+25242892+20770574+13505001
3629.37+6094961+2220692+3929824+9818378+16559949+21831456+25242296+27317190
3624.23+28560920+29248242+29489532+29292642+28492008+26656354+23592708+20206034
3619.09+18156436+18251764+19860932+22032018+24172658+25714968+26269610+26082724
3613.95+25480590+24368560+23171844+23226134+24841620+26088814+25073298+22537318
3608.80+20907860+21360068+23083672+25022304+26999054+29172846+31249470+32584148
3603.66+32911810+32671900+32466906+32434540+32369692+32164242+31850126+31547678
3598.52+31540126+31953306+32320304+32050624+31301702+30792000+30920042+31595846
3593.38+32644090+33819316+34816056+35544212+35921120+35365812+33339550+30434870
3588.23+28093426+27189736+27625446+29104632+31332134+33665300+35435680+36570408
3583.09+37409652+38069160+38376816+38321504+38260796+38597820+39295860+39891380
3577.95+40087396+40087396+40178136+40338680+40504292+40799444+41231176+41560280
3572.81+41695160+41822344+42037224+42179612+42025784+41330636+39836628+37631504
3567.66+35421516+34145628+34319968+35715188+37528984+39014276+40114596+41279824
3562.52+42611644+43615832+43959800+43994404+44277416+44927156+45599800+45908384
3557.38+45799884+45668464+45996128+46795188+47561232+47801260+47426432+46717064
3552.24+46174648+46304532+47172072+48236220+48856560+48866952+48494580+47987676
3547.09+47571620+47539368+48021748+48751760+49349656+49817240+50489004+51507004
3541.95+52616716+53496356+54040180+54226092+54031212+53640660+53466432+53736744
3536.81+54263180+54795816+55366072+56079516+56796488+57273608+57491876+57606476
3531.67+57706040+57817864+58043600+58463680+58906704+59037308+58708932+58163940
3526.52+57812400+57841052+58083788+58317452+58591588+59115304+59818068+60298224
3521.38+60350872+60303816+60630512+61404244+62277096+62838552+62883224+62536800
3516.24+62248256+62477896+63296188+64347488+65206148+65685060+65850364+65837432
3511.10+65661404+65301208+65035156+65406884+66576744+67956704+68838072+69131616
3505.95+69166664+69115992+69025384+69106456+69488960+69899152+69986744+69883264
3500.81+70088272+70830880+71790800+72514224+72915744+73247456+73664424+74036552
3495.67+74219704+74353280+74749160+75476008+76141464+76258624+75943552+75955816
3490.52+76723176+77639488+77885016+77615936+77610664+78041920+78446392+78746896
3485.38+79329984+80178368+80747760+80740872+80411816+80159448+80214952+80623320
3480.24+81256856+81958920+82701560+83417304+83855368+83885752+83736896+83677352
3475.10+83759040+84019616+84478848+84824224+84679104+84313216+84466432+85361952
3469.95+86435384+87121672+87411408+87586424+87851336+88272496+88756664+89087720
3464.81+89153224+89067976+88988904+88945856+88921448+88983856+89260672+89810712
3459.67+90536192+91219952+91726560+92092840+92316216+92240848+91896536+91765352
3454.53+92278400+93116168+93466368+93053856+92472144+92374896+92769224+93267832
3449.38+93590616+93542776+92961040+92099880+91747568+92485744+93956608+95243584
3444.24+95842824+95983560+96111928+96363128+96545632+96438280+96051512+95640696
3439.10+95498264+95710880+96143888+96620056+97058432+97454192+97840856+98303568
3433.96+98874232+99323040+99234872+98508928+97683760+97423840+97749784+98112096
3428.81+98223496+98347320+98701552+99020752+98922320+98395024+97756848+97380120
3423.67+97551936+98306544+99222224+99628592+99232648+98444728+97952248+98050752
3418.53+98538176+99093416+99515488+99665160+99458312+99014184+98642664+98620600
3413.39+99059192+99886424+100779400+101229384+100950152+100218728+99624360
3408.89+99523168+99850840+100312280+100585216+100488560+100106464+99705712
3404.39+99449016+99326384+99289312+99291912+99276040+99289560+99479776+99777904
3399.24+99818704+99393096+98763896+98307904+98125600+98160792+98342352+98477696
3394.10+98380520+98256584+98534088+99181816+99629208+99489320+98974136+98515128
3388.96+98320416+98376312+98550456+98619240+98389328+97861424+97242376+96851864
3383.82+96953168+97482928+97981864+97995992+97531616+96989952+96767048+96994656
3378.67+97488880+97833048+97690072+97122608+96512208+96199704+96276960+96632928
3373.53+97060552+97407736+97663688+97876040+98041712+98150272+98192528+98040968
3368.39+97536944+96780168+96126912+95800984+95745296+95808176+95826608+95596160
3363.25+95069000+94557328+94434128+94686840+94983256+95136184+95217360+95264864
3358.10+95185432+95039176+95141376+95606304+95994584+95828472+95326504+95167984
3352.96+95571400+96097824+96395320+96591200+96827600+96905984+96596656+96005096
3347.82+95450856+95157584+95099808+95052304+94768728+94171672+93409384+92759344
3342.68+92449904+92492904+92667640+92741664+92731280+92847328+93201328+93613736
3337.53+93783256+93673208+93646880+93983320+94411360+94455160+94148176+93907768
3332.39+93812064+93587032+93218376+92975256+92896400+92805688+92720536+92791224
3327.25+92969816+93082912+93021608+92708664+92185608+91795000+91910240+92460784
3322.11+93020488+93289592+93242120+92978224+92671232+92520096+92640816+93028160
3316.96+93492208+93594696+93052512+92310048+92197104+92881448+93722288+94211128
3311.82+94386624+94278408+93694224+92734872+91880848+91435456+91351352+91622192
3306.68+92354144+93407768+94359168+94860032+94853856+94482248+94000520+93716232
3301.54+93781768+94066312+94322184+94431408+94421008+94356080+94341240+94513152
3296.39+94850128+95061448+94835536+94186896+93522368+93343360+93786096+94383656
3291.25+94451680+93854096+93184888+93022464+93277976+93446968+93241376+92777872
3286.11+92360936+92190072+92121376+91780424+91083376+90427432+90156008+90119360
3280.96+90004832+89817864+89767152+89877104+89901288+89557136+88814504+87982512
3275.82+87371592+86911688+86362456+85772232+85386576+85279824+85414520+85755608
3270.68+85957344+85401352+84031800+82719760+82276552+82440296+82299656+81424080
3265.54+80158088+78996136+78125824+77590176+77535488+77970032+78418304+78244568
3260.39+77417016+76542736+75997848+75502096+74765080+74033000+73678256+73660512
3255.25+73666632+73446448+72867288+71989888+71188288+70830136+70740680+70393000
3250.11+69714088+69300384+69616112+70315048+70639608+70294760+69638096+69150056
3244.97+68995464+69045288+69061640+68836848+68311656+67603656+66915816+66429056
3239.82+66229676+66212960+66070060+65511828+64520112+63352796+62390752+61961560
3234.68+62120480+62548976+62859368+62968076+62991080+62892968+62520136+61943188
3229.54+61445968+61220940+61293556+61639392+62074480+62148216+61542068+60545408
3224.40+59787688+59483980+59268400+58822032+58280532+57906864+57721700+57613036
3219.25+57526840+57442224+57371084+57435792+57718420+58033760+58059868+57660384
3214.11+56952444+56177540+55642224+55518520+55603776+55548108+55377956+55446112
3208.97+55812156+56076360+55936976+55581824+55368376+55366676+55364616+55208548
3203.83+54964948+54736412+54425232+53823384+52933428+52082004+51681784+51879100
3198.68+52397532+52754412+52709240+52443184+52186488+51916140+51606616+51465848
3193.54+51575752+51626348+51362500+51005624+50933024+51247164+51834672+52493200
3188.40+52843308+52538968+51745576+51067456+50899268+51089600+51234816+51082464
3183.26+50650632+50158660+49834412+49757384+49926328+50357152+50946940+51365760
3178.11+51346760+51035024+50838888+50942340+51164748+51277052+51227676+51042648
3172.97+50715960+50345656+50187568+50414124+50893576+51321468+51505188+51469852
3167.83+51363704+51327760+51426764+51705148+52209252+52822116+53178836+53065084
3162.69+52804436+52872384+53218932+53393252+53218932+52853004+52347284+51667024
3157.54+51015060+50693704+50703864+50793156+50810452+50839488+51061648+51522256
3152.40+51990964+52170744+52082848+51961660+51801628+51392148+50805860+50407956
3147.26+50363680+50498080+50582280+50465532+50104596+49709856+49585428+49671284
3142.12+49594740+49248948+48883512+48587756+48203104+47764780+47513032+47413384
3136.97+47158308+46691592+46329884+46305864+46523892+46771156+46886952+46735060
3131.83+46275808+45684392+45234796+45060340+45100152+45194016+45138396+44805928
3126.69+44299608+43882996+43702148+43703840+43807280+43961856+44078324+44063620
3121.54+43935204+43802216+43821388+44116188+44535740+44592792+43993804+43142240
3116.40+42703344+42816968+43124036+43359796+43479856+43397284+43015212+42420912
3111.26+41829572+41461292+41503192+41940140+42449472+42683340+42536104+41996152
3106.12+41059964+40016160+39477376+39812692+40693868+41359416+41294392+40658964
3100.97+40088600+40001836+40214716+40375748+40500920+40759956+41039856+41095120
3095.83+40891896+40529812+40133848+39967784+40236020+40697244+40877332+40695192
3090.69+40423408+40141312+39718836+39263256+39099068+39322560+39702356+40003644
3085.55+40185836+40311716+40418352+40476364+40441344+40313524+40142996+39960564
3080.40+39746752+39499876+39333988+39455844+39951896+40593720+40979060+40883712
3075.26+40396932+39765276+39237756+38991304+39005740+39035084+38815600+38318020
3070.12+37816244+37703020+38113404+38685116+38966648+39066592+39413980+39867432
3064.98+39748196+38898336+37964816+37450148+37216420+37090132+37170880+37395712
3059.83+37474304+37409888+37493776+37757712+37922144+37871656+37747492+37622492
3054.69+37409528+37083284+36754448+36554432+36522596+36584700+36628904+36602840
3049.55+36497132+36271684+35935416+35620092+35462692+35470376+35573988+35700180
3044.41+35758892+35772824+35987772+36582300+37266412+37504832+37154172+36602360
3039.26+36283092+36261112+36270476+35977684+35312868+34658960+34547232+35022372
3034.12+35554060+35721552+35711104+35927732+36374612+36681164+36595748+36225564
3028.98+35847032+35634264+35595720+35671240+35823024+36019836+36191088+36289096
3023.84+36345068+36374976+36286936+36042652+35839948+35926524+36248980+36499896
3018.69+36541096+36578936+36814152+37117284+37242972+37249944+37462172+37958204
3013.55+38333168+38143576+37488004+36911472+36759128+36866532+36936696+36969740
3008.41+37092416+37160420+36890204+36409688+36298344+36871096+37669248+37967700
3003.27+37658788+37309788+37370588+37695084+37964212+38236632+38771944+39487968
2998.12+40001476+40196788+40399940+40863964+41394456+41633016+41503436+41233584
2992.98+41093916+41212756+41506088+41747548+41835716+41949896+42291768+42777568
2987.84+43165504+43393792+43626568+44057708+44790968+45766576+46707284+47294416
2982.70+47471964+47463148+47485616+47615952+47905280+48432940+49182696+49956800
2977.55+50511020+50794604+51010464+51411392+52048104+52810728+53643448+54568396
2972.41+55497772+56211992+56597468+56788844+57022476+57392936+57787148+58079180
2967.27+58381212+58996240+60052304+61262048+62159296+62522688+62494452+62371040
2962.13+62361668+62519164+62815300+63266476+63877664+64459316+64641336+64210564
2956.98+63379220+62603140+62171220+62045156+62060124+62116704+62094808+61749980
2951.84+60918960+59837636+58981172+58568144+58479716+58637264+59032444+59378616
2946.70+59264756+58834900+58785824+59437676+60262116+60639996+60619572+60624916
2941.55+60813036+61058448+61260712+61376760+61385264+61430768+61792200+62512228
2936.41+63245896+63620456+63616068+63492704+63456304+63477376+63417824+63262092
2931.27+63131820+63060228+62923524+62711468+62656448+62914996+63316152+63647732
2926.13+63927724+64153068+64095808+63644204+63100536+62829296+62828564+62856936
2920.98+62754920+62431044+61792072+60929536+60178844+59775656+59593104+59376428
2915.84+59075824+58768452+58380728+57734452+56844428+55961840+55297432+54830492
2910.70+54426448+54020552+53637384+53290276+52931004+52549140+52269428+52212760
2905.56+52186488+51763856+50871196+50001908+49610940+49606348+49712400+49938048
2900.41+50294856+50482472+50301868+50051736+50100360+50331628+50375536+50144988
2895.27+49866704+49714936+49582408+49195632+48463640+47674056+47193452+47058912
2890.13+47106380+47349732+47834964+48275608+48316092+48036244+47762480+47530668
2884.99+47163016+46710184+46414268+46364652+46516040+46889132+47494916+48191876
2879.84+48778596+49114752+49085016+48690484+48207700+48034192+48261228+48597544
2874.70+48774484+48820056+48846400+48784400+48485632+47958800+47376180+46914852
2869.56+46653436+46505900+46214968+45574824+44722332+44062048+43817168+43847308
2864.42+43948948+44108472+44310584+44333612+43984760+43465628+43200212+43278560
2859.27+43310616+42962792+42395732+41983864+41806564+41690104+41614104+41758752
2854.13+42162624+42599840+42823604+42811552+42772512+42905184+43121028+43092100
2848.99+42676836+42137812+41786572+41626876+41531372+41491756+41442864+41126184
2843.85+40386696+39438160+38649884+38202964+38023240+37922864+37801336+37761556
2838.70+37944024+38227972+38315376+38131192+37854468+37546532+37107316+36627824
2833.56+36418700+36588544+36867372+36933572+36747236+36518392+36423980+36404880
2828.42+36260388+35934936+35575312+35288380+35069908+35008572+35243120+35670520
2823.28+36021036+36223644+36379780+36444880+36349628+36299304+36496652+36704348
2818.13+36543860+36100060+35793956+35782196+35861920+35861320+35768624+35574948
2812.99+35274096+34976040+34841256+34945316+35253088+35640868+35902752+35914880
2807.85+35823256+35893500+36128756+36233372+36038688+35743524+35612532+35681804
2802.71+35892904+36206584+36442480+36329692+35926644+35668364+35799000+36082400
2797.56+36193252+36061628+35751092+35373856+35148292+35188984+35290900+35246484
2792.42+35215872+35447928+35874052+36286812+36648248+36900292+36835660+36457132
2787.28+36158184+36275764+36725128+37233480+37661076+37924304+37878388+37488004
2782.13+36998336+36769580+36946308+37338268+37626460+37631384+37402676+37154532
2776.99+37145768+37482360+37953276+38199836+38123980+37968424+37960364+38090676
2771.85+38286880+38574608+38957152+39352752+39725816+40115552+40469868+40620564
2766.71+40546056+40525592+40869024+41500908+41993144+42072036+41919548+41897496
2761.56+42177560+42736956+43454664+44045408+44231228+44168164+44369672+45040920
2756.42+45821492+46345340+46647276+46874400+47021720+47143208+47439472+47973904
2751.28+48598756+49241692+49965024+50699388+51224768+51508820+51799928+52316160
2746.14+53002828+53683068+54308392+54949552+55602200+56159464+56656328+57404344
2740.99+58664344+60203396+61439400+62079592+62427028+62997660+63998976+65240032
2735.85+66376256+67208832+67872624+68725624+69962688+71411888+72809912+74130696
2730.71+75503208+76953408+78386280+79743072+81074024+82496112+84080288+85751296
2725.57+87383064+89030976+90870888+92867360+94788024+96599744+98523680
2721.07+100648736+102863280+105189000+107776584+110530896+113148328+115522312
2716.57+117787000+120041624+122375960+125019160+128109592+131419608+134591392
2712.07+137556480+140517440+143649568+146944400+150256224+153491984+156819344
2707.57+160531616+164599664+168591616+172218256+175653840+179148704+182682784
2703.07+186241552+190063232+194270288+198519984+202395168+205990768+209792480
2698.57+214048752+218529488+222924576+227238720+231641040+236094880+240385120
2694.07+244491616+248707840+253274160+258044128+262640144+266875696+270943360
2689.57+275197600+279836960+284754784+289644576+294240448+298520128+302744096
2685.07+307263456+312200288+317331584+322358176+327171776+331772032+336090912
2680.57+340141600+344192800+348523264+353107232+357744064+362310304+366720384
2676.07+370894240+374974400+379305632+384010368+388840576+393548544+398131264
2671.57+402649952+407100128+411496800+415893760+420341952+424933056+429721856
2667.07+434528544+439072160+443321408+447454848+451568736+455719520+460110208
2662.57+464854080+469713952+474387584+478869344+483280320+487615392+491845408
2658.07+496037344+500263808+504569376+509001600+513509248+517945632+522312864
2653.57+526786048+531416256+536048768+540563904+544950720+549226752+553492160
2649.07+557901312+562418304+566868672+571311296+575964480+580717568+585167680
2644.57+589203264+593160256+597375040+601879616+606476864+610907584+615097984
2640.07+619325376+623941824+628921024+633908672+638639360+643084992+647320384
2635.57+651448256+655553408+659667840+663888576+668359808+672949312+677252352
2631.07+681198336+685246016+689688768+694202048+698405504+702406336+706478720
2626.57+710632256+714753344+718834944+722903104+726961216+731072832+735286272
2622.07+739503616+743597952+747594944+751635840+755807296+760068416+764306560
2617.57+768424064+772388608+776216704+779952768+783700928+787593088+791655808
2613.07+795798208+799956416+804140736+808312192+812327040+816071040+819581696
2608.57+823035584+826598272+830299520+834073664+837870080+841612736+845131840
2604.07+848383808+851661312+855287040+859133440+862763264+865972928+868891520
2599.57+871680704+874510208+877660992+881280448+885086656+888573184+891488192
2595.07+893995648+896496320+899366784+902705472+906241664+909549056+912399232
2590.57+914882176+917217536+919532032+921887936+924442496+927374272+930534848
2586.07+933404352+935646720+937538944+939595392+941948480+944370304+946707264
2581.57+948968640+951156032+953289920+955476224+957742720+959946176+962011200
2577.07+964083392+966267200+968393984+970254144+971916608+973611520+975405504
2572.57+977186432+978932224+980779008+982794944+984817216+986546432+987780672
2568.07+988640640+989552640+990865472+992459008+993928832+995124224+996277440
2563.58+997628864+999183104+1000825792+1002461312+1003989952+1005335104
2559.72+1006489728+1007494464+1008421440+1009349248+1010283776+1011225664
2555.86+1012344384+1013816320+1015425472+1016690816+1017478336+1018136384
2552.00+1018959424+1019904704+1020833152+1021691008+1022502400+1023439936
2548.15+1024739840+1026325440+1027753920+1028687488+1029166400+1029402432
2544.29+1029628544+1030075008+1030774464+1031524224+1032286528+1033343808
2540.43+1034770688+1036108416+1036905728+1037297536+1037787328+1038650688
2536.58+1039754752+1040839296+1041816576+1042765952+1043689664+1044479616
2532.72+1045152512+1045872064+1046643072+1047320640+1047990656+1048898176
2528.86+1049947584+1050766272+1051335744+1052044224+1053052800+1054088960
2525.01+1054875648+1055407744+1055841216+1056407360+1057322240+1058551232
2521.15+1059785536+1060738880+1061311616+1061521280+1061528000+1061635328
2517.29+1062023296+1062569280+1063114560+1063758592+1064678720+1065804032
2513.44+1066848704+1067598848+1068091648+1068567360+1069229120+1069998592
2509.58+1070579840+1070823040+1070909312+1071111680+1071492480+1071927296
2505.72+1072293632+1072533568+1072594368+1072479808+1072369920+1072533376
2501.86+1073028672+1073560128+1073741824+1073468416+1072948224+1072468800
2498.01+1072212864+1072208960+1072315328+1072283392+1071950592+1071387584
2494.15+1070819968+1070430208+1070194880+1069868224+1069212864+1068295616
2490.29+1067435136+1066814144+1066301248+1065721984+1065084096+1064423552
2486.44+1063663744+1062749824+1061728256+1060586496+1059231680+1057703360
2482.58+1056181888+1054753728+1053392576+1052151424+1051097728+1050057792
2478.72+1048712128+1046976896+1045110464+1043456896+1042187200+1041142976
2474.87+1039857024+1037938176+1035521408+1033116224+1030989888+1029044864
2471.01+1027277824+1025883456+1024746816+1023290432+1021118016+1018512640
2467.15+1016045440+1013916928+1011924480+1009910464+1007913408+1005933568
2463.29+1003858880+1001691392+999585088+997547904+995383872+993059840+990829952
2458.80+988830912+986830976+984585664+982185728+979879872+977789440+975896320
2454.30+974096128+972236800+970313984+968540224+966984064+965331840+963300928
2449.80+961083904+959036480+957156032+955203136+953138816+951149760+949357824
2445.30+947748224+946279552+944920448+943621056+942296064+940849088+939301120
2440.80+937859712+936680576+935566080+934158848+932442304+930768320+929371200
2436.30+928119744+926786240+925374784+924128448+923266752+922712704+922107776
2431.80+921185280+920022400+918822528+917636864+916479552+915465472+914635136
2427.30+913844352+912995008+912164352+911414080+910694528+909967744+909230848
2422.80+908444160+907629248+906906624+906277056+905541888+904597760+903637888
2418.30+902915008+902467264+902141440+901739776+901121280+900259904+899236352
2413.80+898176576+897237440+896563456+896122944+895676096+895019584+894159424
2409.30+893210880+892313344+891631424+891168704+890604544+889601024+888258688
2404.80+887005888+886097920+885436032+884777344+883961664+882986624+881952640
2400.30+880875968+879640768+878227968+876854464+875750656+874923520+874179776
2395.80+873243456+871887616+870176256+868496256+867134016+865960128+864705472
2391.30+863338240+861952192+860517696+858957056+857316032+855708160+854192192
2386.80+852725568+851149888+849284864+847121216+844869952+842747840+840807552
2382.30+838989184+837239552+835535680+833826624+832003072+829963456+827735360
2377.80+825446784+823136256+820743424+818306432+815985600+813813824+811614528
2373.30+809232064+806675392+804017344+801309568+798600576+795906432+793180288
2368.80+790405440+787649856+784964096+782295296+779576000+776842112+774220672
2364.30+771798720+769497216+767096384+764457024+761712000+759135616+756825792
2359.80+754644096+752447168+750238144+748048832+745831488+743579904+741454784
2355.30+739605056+737939264+736230784+734414080+732608768+730865280+729096448
2350.80+727249472+725344320+723339008+721123136+718641280+715909888+712961152
2346.30+709857024+706697152+703566976+700539840+697701184+695068928+692538944
2341.80+690026752+687553344+685091648+682484864+679669248+676829248+674185536
2337.30+671760000+669435840+667131648+664829504+662520960+660189440+657787008
2332.80+655229760+652498304+649761408+647300544+645244928+643410688+641488256
2328.30+639365952+637169600+635003712+632839872+630640576+628407232+626130176
2323.80+623880640+621851968+620055360+618147776+615873216+613462208+611247872
2319.30+609132928+606835328+604415680+602154112+600097408+598066560+595930304
2314.80+593647104+591236544+588871488+586765760+584859520+582849088+580588288
2310.30+578223808+575906688+573583040+571144512+568637888+566245632+564108032
2305.80+562180416+560270208+558198208+555911808+553490240+551080384+548797568
2301.30+546614720+544407296+542126656+539845952+537616896+535394336+533117984
2296.80+530778560+528432352+526216224+524247520+522439744+520530208+518354368
2292.30+515967712+513506176+511102080+508876672+506814432+504715360+502427936
2287.80+500043808+497740480+495564000+493459840+491363552+489195808+486913888
2283.30+484585600+482293984+480039904+477804032+475600768+473411840+471215424
2278.80+469077952+467069152+465134688+463214624+461344448+459504384+457559168
2274.31+455498304+453507360+451651904+449746208+447659456+445506112+443435616
2269.81+441451872+439500640+437555744+435586688+433566656+431526240+429529792
2265.31+427586144+425637568+423613632+421511200+419435776+417518816+415775008
2260.81+414072096+412253952+410271488+408203904+406190432+404321216+402567552
2256.31+400807904+398922432+396873440+394755040+392755232+390976384+389302848
2251.81+387543776+385690240+383880352+382141248+380326496+378367648+376420544
2247.31+374665600+373061728+371435360+369749696+368092736+366446720+364691552
2242.81+362871616+361163584+359528768+357724608+355759744+353959296+352469760
2238.31+351043712+349423456+347597216+345665280+343778016+342171200+340916096
2233.81+339714560+338248416+336568224+334879168+333177824+331405600+329693888
2229.31+328186848+326812160+325411200+323926752+322379552+320845408+319455424
2224.81+318203840+316813632+315030944+313003584+311137504+309627616+308347584
2220.31+307113888+305846912+304495200+303032576+301550528+300179552+298882848
2215.81+297478624+295891584+294238048+292651584+291174464+289820288+288584704
2211.31+287383008+286086528+284631552+283042816+281413152+279900896+278627136
2206.81+277560736+276572160+275542368+274331616+272819776+271120256+269546624
2202.31+268210208+266917440+265574240+264360976+263376224+262439616+261386000
2197.81+260224400+258971136+257624464+256293856+255109776+254038688+252985104
2193.31+251954848+250942768+249819632+248497792+247094096+245798224+244638928
2188.81+243447472+242072576+240601936+239279008+238182832+237163040+236139520
2184.31+235191696+234276432+233170448+231825584+230466144+229278144+228261760
2179.81+227371808+226523904+225541408+224376336+223237296+222293920+221433552
2175.31+220485632+219459232+218428480+217393952+216324816+215184608+213962944
2170.81+212803504+211925056+211286976+210557424+209541792+208401984+207361392
2166.31+206437712+205557152+204709648+203906048+203099472+202202768+201164912
2161.81+200086240+199180432+198506960+197838288+196941856+195895312+194913200
2157.31+193976192+192875696+191592768+190409984+189592720+189071424+188551984
2152.81+187898720+187260176+186751440+186191920+185356048+184360000+183534064
2148.31+182932528+182235584+181198992+179998256+178987360+178264320+177642816
2143.81+176988112+176361472+175798048+175173584+174410208+173617680+172893648
2139.31+172169232+171383872+170632640+170019312+169507024+168982544+168346240
2134.81+167534016+166610944+165779312+165130064+164480736+163660528+162804016
2130.31+162147424+161662112+161114624+160400528+159630704+158953712+158442096
2125.81+158079296+157742224+157246000+156481760+155530224+154590016+153813152
2121.31+153207680+152691328+152189104+151677856+151158576+150637664+150128464
2116.81+149633120+149141344+148652752+148179264+147693312+147124416+146443008
2112.31+145733296+145121040+144651584+144249456+143793504+143214928+142547440
2107.81+141911584+141434400+141118272+140810032+140347408+139729984+139083296
2103.31+138481056+137887104+137252368+136571200+135873856+135249632+134832992
2098.81+134669888+134599456+134368720+133858264+133186736+132608232+132268184
2094.31+132034816+131663480+131113768+130562576+130094920+129605824+129044736
2089.82+128498136+127980760+127420656+126899032+126618784+126561344+126435368
2085.32+126025728+125391024+124703160+124090088+123626576+123316680+123057776
2080.82+122749088+122406824+122080440+121698904+121123888+120351000+119573184
2076.32+119002272+118668928+118404744+118017040+117489896+117019168+116798368
2071.82+116752208+116592480+116181616+115697336+115353920+115112552+114795720
2067.32+114311904+113660968+112912360+112273600+111949368+111824712+111557824
2062.82+111059080+110588896+110329152+110167440+109984664+109843304+109783840
2058.32+109656208+109284176+108659552+107952792+107361200+106961232+106664376
2053.82+106370304+106083744+105825728+105476320+104869784+104033264+103240576
2049.32+102820808+102881432+103188264+103327664+103070368+102543328+102002768
2044.82+101543424+101081576+100537816+99951176+99484728+99306792+99378216
2040.32+99423224+99246280+98958152+98724104+98444728+97951128+97361784+96916384
2035.18+96585504+96171232+95695656+95390352+95331568+95329840+95147568+94698336
2030.03+94127392+93772496+93869936+94216312+94320576+93952656+93328160+92746368
2024.89+92306824+91997960+91803392+91641584+91379016+90968296+90493232+90073944
2019.75+89743824+89400576+88918720+88372504+88032696+88033184+88166712+88121216
2014.60+87790808+87294568+86854144+86671432+86730200+86728600+86433160+86010920
2009.46+85776920+85714120+85548728+85208544+84906200+84799232+84796160+84710120
2004.32+84452400+84073264+83699984+83449288+83363928+83375488+83297872+82954632
1999.18+82395048+81863784+81463272+81043800+80535256+80140912+80007056+79952544
1994.03+79708088+79235472+78696344+78296960+78178208+78248752+78194272+77862952
1988.89+77486184+77331792+77375080+77485328+77621832+77667200+77412728+76902040
1983.75+76466616+76315744+76378744+76561992+76797832+76892600+76645696+76125776
1978.61+75596064+75232104+75062704+75050336+75117568+75185312+75243736+75308056
1973.46+75337320+75257328+74999504+74517600+73891728+73361760+73060000+72771736
1968.32+72201456+71430344+70878664+70833200+71192080+71651032+71987072+72141040
1963.18+72130776+71953560+71612280+71169712+70715504+70315048+70042696+69989432
1958.04+70144480+70324456+70305152+69987600+69447432+68893384+68562880+68550304
1952.89+68730376+68879592+68837336+68590472+68295904+68180544+68311656+68484624
1947.75+68418704+67998816+67362440+66825680+66637352+66609428+66152732+64994704
1942.61+63749052+63369120+64067676+65172268+66002752+66448808+66674552+66730536
1937.47+66639920+66546376+66534304+66501120+66339904+66101760+65868160+65660552
1932.32+65526584+65538040+65648724+65715044+65659816+65489648+65243440+65038328
1927.18+65013108+65119496+65148380+64923656+64274136+63082392+61718228+61043612
1922.04+61503872+62601068+63583668+63948180+63090908+60700068+58007164+57261348
1916.90+59084080+61622360+63009348+63277552+63348664+63505260+63567488+63540696
1911.75+63430244+63048668+62383580+61752652+61474920+61638296+62105392+62558228
1906.61+62701848+62536800+62299484+62184728+62262000+62502728+62745548+62840380
1901.47+62849992+62901728+62898560+62644280+62198604+61874932+61908636+62201036
1896.33+62360332+62102228+61669808+61577232+61873472+62104300+62042848+61828820
1891.18+61315816+60131072+58615880+57884888+58549316+59987872+61210848+61875780
1886.04+62194468+62335260+62253244+61974584+61745236+61817748+62148824+62449420
1880.90+62522936+62404268+62201520+61995636+61881380+61916056+62025564+62099428
1875.76+62126568+62155764+62168544+62083360+61867264+61614448+61349508+60621880
1870.61+58690348+55599408+52823204+52087812+53573172+55955776+58010812+59403288
1865.47+60202792+60522664+60651436+60928808+61360940+61681728+61759228+61720048
1860.33+61719200+61761172+61772244+61738424+61715672+61733436+61772244+61830640
1855.19+61916300+62019972+62157964+62343664+62477044+62453932+62359480+62311052
1850.04+62176572+61731728+61007860+60335548+60166808+60523272+60136424+56977324
1844.90+51069876+46206636+46635572+51859128+57444284+60487888+61482464+61797548
1839.76+61893672+61874684+61858024+61670048+61282852+61216200+61770908+62455872
1834.61+62684324+62449904+62125592+61953416+61533312+59776988+56264288+52719292
1829.47+51832732+54247664+58007412+60827264+61487084+59790244+56920040+55299860
1824.33+56400536+59073148+61207560+62144444+62540584+62850600+62933992+62628824
1819.19+62003056+61279688+60757704+60615680+60780688+61096756+61451436+61688420
1814.04+61665184+61414340+60995692+60278776+59234020+58368340+58430768+59519948
1808.90+60846596+61630264+61939052+62276728+62672276+62775864+62590844+62290112
1803.76+61556424+60025800+58222964+57044076+56482688+55951892+55632524+56327496
1798.62+58039708+59703820+60363392+60025800+59486892+59421760+59165608+56776464
1793.47+51473596+45826196+43870100+46609128+51295812+55266872+58041896+59880668
1788.33+60762448+61021116+61104540+60559992+58859560+57030608+56790300+58240936
1783.19+59914940+60626864+60093996+58628392+57272032+57201988+58300572+59409476
1778.05+60049260+60399132+60108948+59010212+58091808+57488356+54728416+47894284
1772.90+39736884+35933972+38947884+45919608+52349948+55252688+54082720+51206984
1767.76+50509444+53541908+57929936+60692160+61438424+61385264+60678060+58121560
1762.62+53512228+49299484+48863928+52685024+57541412+60205956+60200844+58509232
1757.48+55884936+53677976+53940564+56768216+59688264+60997640+60999828+59258680
1752.33+54306324+47607372+44140552+46325540+50710396+53243524+53965404+54980592
1747.19+56946616+59107656+60779716+61540852+61176788+60158304+59614496+60377248
1742.05+61721992+61260832+57353844+52117356+50291956+53702332+59122716+62846340
1736.91+63745276+60942668+52524436+39128296+26937014+23859208+31705246+44562280
1731.76+55055520+59805432+60102020+59475828+60326068+62338064+63978024+64637924
1726.62+64861992+65150080+65285732+64891976+64194840+63893492+64385240+65342292
1721.48+65999952+65613984+63459832+58456396+49716388+38907236+31657316+33124648
1716.34+41097652+48304972+51539080+53801328+58007412+62841600+65973620+67267640
1711.19+67478224+67015964+66755176+67491408+68323856+67609040+65195540+62387112
1706.05+60492876+60156848+61260712+63362060+66365400+69057496+66980228+55588252
1700.91+37675496+25440572+29698052+46994668+64245028+71390488+65978136+53462068
1695.77+45796388+52244364+68813648+84141672+92646632+96447936+98991624
1691.27+101067416+102647280+104827376+108259560+112126704+115965656+119864448
1686.77+121498392+116338072+103669000+91180800+89733952+101527152+118810928
1682.27+133921088+144278624+150593248+154827200+158972336+163819616+168917552
1677.77+173321344+175333376+173035712+167626448+165197856+171300016+183528512
1673.27+194114080+198986256+200414144+201824544+203117104+202757936+202442704
1668.77+206391248+215756992+226755440+235316272+240980832+245467248+249232896
1664.27+250985872+250457520+250354208+254313680+262730624+272269088+279966112
1659.77+285790560+290920032+295661696+299888480+303706272+306661088+307341280
1655.27+303849024+294092480+277856000+261660016+258884400+276524096+304494400
1650.77+327613600+339769792+343169760+342035808+339149248+335486848+331411584
1646.27+328957792+332088608+341951168+353596608+361169440+363994176+365027904
1641.77+365809760+365933056+365693824+365616640+364633280+361572544+356674304
1637.27+349381632+337760320+323554624+314818400+317697376+327453664+334408096
1632.77+334596608+330378176+324940864+319397376+313465792+306305760+297259200
1628.27+287148480+278101792+271423232+266288624+260477936+251825616+240038544
1623.77+228020768+219920688+216680800+215186576+212286160+207614816+202499536
1619.27+197318352+189872016+176996640+159713280+146291136+145273344+154191856
1614.77+162775856+165570576+164527392+162688528+160585328+158196016+156160400
1610.27+154554848+152987504+151671984+150838608+150050496+149116672+148448224
1605.77+148061056+147535872+146919648+146461920+145906576+145055200+144307280
1601.27+143946304+143766608+143716784+143909280+144048912+143804528+143400288
1596.77+143063696+142554144+141853680+141453008+141532944+141806176+142264064
1592.27+143069008+143880752+144243472+144310720+144489824+144942000+145827504
1587.77+147231872+148712864+149815040+150794208+151965488+152979376+153601072
1583.27+154274352+155267104+156365472+157622704+159100800+160253104+160850624
1578.77+161109664+159309504+152020112+139832640+131060216+134449392+147719248
1574.27+160754176+167788688+170375696+171778432+172084192+169162368+163054096
1569.77+157875200+158289552+164289696+171504368+176125840+177354016+176289168
1565.27+174663952+174088256+175013328+176507936+176957040+173871056+164222048
1560.77+147700288+129482936+116704168+112044712+114780856+125189264+141190960
1556.27+154837168+158774144+153950176+148541776+149359184+155523472+161530192
1551.77+163425760+161040320+157027184+154604688+155077808+157192384+158812224
1547.27+158414224+155115568+149078544+142683424+139124512+137930688+134448880
1542.77+126082920+116305928+109462640+103798240+95285528+86906760+87523824
1538.27+99639376+115146304+125500472+128726312+126771032+121264304+113554048
1533.77+106874848+105134280+108618696+113526712+116603104+117647832+117273920
1529.27+115199424+111887104+109178368+107611104+105486504+102146936+99809648
1524.77+100421312+102296192+101491656+95536992+85644656+76766696+74917072
1520.27+82017536+93298000+101302744+102187776+98351760+95643800+97374040
1515.77+101853656+106135256+109017496+109812888+107846568+104464968+102561832
1511.28+102800440+102926512+101269840+97862168+92106432+82588696+70170136
1506.78+59609756+56922704+64553736+78952072+93321232+102759320+106703088
1502.28+107521576+107680328+107769608+106566064+103349664+100025216+99076432
1497.78+99229048+96908952+92852776+92841152+99536192+108296808+113958616
1493.28+116178360+116558208+115037808+111355080+107612224+106939584+110065696
1488.78+114578048+117740560+119404440+121754592+126173920+131390376+135458992
1484.28+138178928+140466800+142573808+144208736+145700416+147806272+150718592
1479.78+154085792+157635216+160864160+162582784+162179552+161371024+162867648
1475.28+166500864+168733632+167137744+163617104+162491120+166514464+175258640
1470.78+185917264+194994256+200588640+203543024+205787808+207881472+208763232
1466.28+207289360+203816736+201130560+202816224+208985632+215511872+219214416
1461.78+220925168+222173840+222178480+220018224+216244560+210337984+200736896
1457.28+190206416+187012080+195717856+210544048+222862672+229633056+232488592
1452.78+233462592+233602608+233764224+234570512+235543120+235257968+232919680
1448.28+229756896+228345776+230003136+233338144+235938736+236789632+236490192
1443.78+235809616+234955568+234117824+233700144+233576608+232973952+231608944
1439.28+229734768+226203008+218503024+207032848+197921440+197517568+204034016
1434.78+209890688+210917648+208695104+205963808+203313664+200073440+195856624
1430.28+191061744+187082064+185228208+184797200+183778256+181632224+179294624
1425.78+176732928+173037920+168690736+165229264+163033216+161447920+159814160
1421.28+156399680+148698768+137580624+129132464+128590272+133738144+138583120
1416.78+140674560+141415760+142117344+142653280+142793440+142659088+142221264
1412.28+141444896+140565168+139771120+139109328+138794864+139062784+139723168
1407.78+140241600+140105632+138930832+136778688+134724416+134349168+135966704
1403.28+138004160+138825344+138336368+137052032+134591648+130534368+126164480
1398.78+123666120+123533808+124145064+123673904+121192096+116753472+111910312
1394.28+109344240+110277776+112895488+114561176+114504320+113536824+112314168
1389.78+110621936+107685808+103070120+97982984+95111192+95859416+98524552
1385.28+100509648+101101176+101005864+100629136+100022120+99463776+99042328
1380.78+98407792+97462120+96597640+96114664+96020704+96216184+96317560+95684400
1375.64+94138032+92350200+91302824+91647768+93434232+96015864+98414736
1371.14+100102624+101132088+101552104+101368024+101066920+101290080+101931632
1366.64+102356048+102286000+101657880+100062552+97414936+94799776+93532024
1362.14+93620912+94174512+94908280+96141400+97647704+98621712+98709968+98292776
1357.00+97812600+97403528+97121488+97029824+97032176+96925312+96593192+96025280
1351.86+95285904+94551624+94013880+93678400+93420384+93243848+93286488+93520520
1346.71+93706216+93695712+93616216+93686320+93951056+94245880+94311560+93916912
1341.57+92978592+91678632+90460768+89821936+89967432+90635320+91294784+91576744
1336.43+91504240+91348384+91354312+91609096+91997096+92219848+92014392+91458176
1331.28+90932736+90721120+90809400+91075968+91418776+91665672+91642944+91398648
1326.14+91164136+91102272+91247488+91555496+91828344+91818592+91567480+91344064
1321.00+91132648+90591616+89664848+88791432+88336512+88216048+88174360+88065848
1315.86+87813008+87416584+87037376+86867952+86950632+87202392+87482040+87618120
1310.71+87557104+87456768+87475376+87589280+87742856+87947384+88091496+87931856
1305.57+87460592+87042184+87025912+87411784+87955880+88410736+88633944+88638256
1300.43+88577832+88590416+88671312+88757520+88867176+89083160+89442264+89888208
1295.29+90339672+90760752+91153016+91490664+91746696+91987832+92347096+92821384
1290.14+93213440+93385384+93490104+93811072+94415328+95097448+95626592+95962648
1285.00+96275232+96819544+97710640+98766000+99683152+100377400+100998048
1280.50+101628200+102204424+102731872+103328040+104036744+104818440+105693616
1276.00+106721008+107895504+109155200+110378888+111376040+112106224+112871768
1271.50+114017456+115502672+117028680+118438920+119760216+121065968+122496528
1267.00+124174960+125953224+127559872+129035184+130693336+132638376+134657392
1262.50+136594208+138547184+140720032+143216448+145930192+148653264+151385040
1258.00+154366496+157674544+161046832+164254976+167350896+170428144+173517408
1253.50+176795600+180474256+184420720+188268448+191940192+195700656+199677392
1249.00+203652704+207418880+211108928+215061280+219423104+224011280+228600304
1244.50+233207312+238017632+243119440+248437888+253824336+259154176+264438640
1240.00+269825440+275370240+280924384+286448352+292242464+298554848+305131872
1235.50+311451232+317330464+323092160+329191584+335766976+342496320+348933280
1231.00+355010752+361068512+367332640+373639488+379796608+385872192+391935328
1226.50+397801120+403311904+408662144+414225728+420134304+426188640+432089184
1222.01+437653856+442896800+447973568+452970848+457716384+461939488+465663744
1217.51+469225952+472835616+476357952+479620000+482624608+485347584+487644832
1213.01+489551392+491364736+493229728+494904992+496093696+496796608+497178688
1208.51+497267648+496946304+496176896+495052096+493625088+491808032+489533184
1204.01+486918016+484143616+481252032+478148736+474684064+470705824+466221024
1199.51+461524576+456921408+452292384+447221088+441575264+435682848+429907680
1195.01+424291936+418638400+412794464+406809152+400814592+394774176+388498304
1190.51+381986208+375529120+369398400+363650240+358284928+353282848+348441824
1186.01+343471616+338297920+333077344+327988928+323180288+318756800+314684320
1181.51+310798336+306955776+303065696+299075520+295104864+291476384+288423552
1177.01+285851168+283483968+281141600+278821120+276602912+274511424+272452576
1172.51+270340864+268230976+266257696+264485232+262900080+261450624+260076336
1168.01+258817616+257792096+256933200+255966128+254850032+253930752+253409424
1163.51+253020336+252449248+251687776+250842512+250028368+249498704+249434880
1159.01+249579888+249522384+249236240+248975056+248813360+248702640+248754624
1154.51+249107280+249667280+250266160+250932224+251804304+252906592+254167296
1150.01+255575600+257184192+258968112+260799472+262634608+264635984+266986800
1145.51+269651008+272465856+275367680+278355616+281353248+284345056+287561248
1141.01+291289472+295485824+299757696+303754848+307518272+311423776+315813760
1136.51+320702368+325898624+331351648+337188576+343361344+349527392+355447680
1132.01+361361184+367747552+374797440+382275616+389852480+397433728+405165536
1127.51+413255072+421816928+430784960+439899456+448890080+457795872+467021600
1123.01+476854016+487025280+497086144+507155872+517782304+528965248+539921024
1118.51+550104128+559926720+570117248+580818176+591667520+602352512+612766720
1114.01+622898624+632824896+642681792+652606272+662762880+673263808+683891072
1109.51+694146432+703761024+712959296+722084352+731140352+739799488+747774016
1105.01+755162048+762372544+769627200+776674880+783182976+789223808+795170432
1100.51+801332736+807806720+814341568+820355968+825527616+830296704+835281088
1096.01+840406208+845167808+849464576+853592448+857709760+861816896+865939136
1091.51+870027456+874042112+878207040+882657280+886854016+890022848+892211520
1087.01+894319040+897044992+900262848+903379520+905906176+907684352+908876864
1082.51+909807552+910651520+911222272+911116160+910099776+908279168+905825024
1078.01+902752768+899146432+895295296+891291328+886844416+881860032+876703808
1073.51+871424192+865323008+857950080+849931520+842063552+834064832+824998336
1069.01+814650368+803717632+792699968+781231744+768717696+755253184+741543168
1064.51+728030656+714536192+700806016+686988288+673354496+659931968+646589376
1060.01+633201280+619639168+605957376+592612224+580078976+568183104+556176064
1055.51+543581376+530746592+518482720+507264832+496805568+486444288+475934496
1051.01+465634336+455796128+446037888+435891840+425634368+416089472+407679392
1046.51+400037088+392535648+384887712+377190784+369596288+362078592+354533760
1042.01+347085024+340166560+334104128+328697248+323456864+318209056+313171136
1037.52+308441024+303772288+298913568+293852928+288699328+283624288+278909632
1033.02+274751776+271027360+267517248+264210416+261140160+258188144+255374976
1028.52+252996224+251107728+249209248+246808592+243977008+241140016+238704720
1024.02+237008048+236150016+235725792+235112688+234066832+232784656+231522240
1019.52+230468912+229797952+229573856+229773184+230394192+231262688+231935616
1015.02+232235296+232593008+233427312+234571296+235770560+237178080+238889760
1010.52+240632144+242415632+244868448+248431728+252749920+257214416+261656128
1006.02+266319776+271567168+277716224+284856512+292767968+301178400+309995136
1001.52+319218016+328843872+338938592+349583424+360714944+372162944+383827360
997.02+395702688+407815072+420227488+432977312+445898144+458641920+471035104
992.52+483260416+495436576+507000608+516846336+524245856+529358880+532611232
988.02+533875040+532627232+528649792+522203552+513723328+503672352+492510048
983.52+480486080+467590784+453871904+439691360+425570624+411893664+398789408
979.02+386151744+373761408+361513216+349575968+338270400+327683168+317468896
974.52+307205920+296960352+287268864+278534368+270708864+263589104+257046128
970.02+250922016+245048112+239444192+234242736+229456272+225058288+221126656
965.52+217698400+214648672+211841840+209182112+206488128+203633360+200825120
961.02+198431488+196532208+194874288+193258080+191786368+190763184+190366624
956.52+190369088+190251328+189669936+188714016+187674144+186779968+186196208
952.02+186005232+186089712+186181184+186128704+186044736+186147104+186434736
947.52+186560832+186201008+185580624+185350352+185789808+186435632+186677696
943.02+186441984+186098112+185941904+186009920+186275616+186758448+187368560
938.52+187794592+187755168+187348448+186940144+186743152+186749008+186997696
934.02+187556416+188318400+189149152+190091520+191068384+191625248+191411680
929.52+190769680+190435056+190722288+191292704+191687744+191901600+192369184
925.02+193392400+194665824+195549776+195791392+195743088+195895696+196448080
920.52+197288784+198127104+198680240+198944800+199236112+199835488+200705696
916.02+201628384+202436688+203041344+203355888+203333264+203124720+203176864
911.52+203979232+205504016+207046336+207887632+208008656+207922208+207998448
907.02+208243696+208581872+209036480+209678432+210481344+211189232+211456896
902.52+211286192+211098176+211153408+211264784+211339728+211714416+212512640
898.02+213180912+213186176+212811760+212799280+213445328+214348752+214874512
893.52+214725168+214189088+213815120+213793056+213835088+213710704+213540960
889.02+213461072+213358096+213052736+212516576+211838288+211145952+210539216
884.52+210080832+209881536+210017376+210219440+210009632+209370992+208854432
880.02+208776720+208831248+208690368+208390304+207936752+207161168+206115744
875.52+205144400+204529696+204365200+204546304+204619152+204029056+202773360
871.02+201420000+200366144+199535184+198820928+198351056+198188880+198060624
866.52+197542992+196543536+195511520+194908784+194543280+193964736+193383040
862.02+193412288+193971504+194367232+194391040+194360592+194307120+194114992
857.52+194175088+194923872+195983040+196433216+195607696+193406576+190524784
853.03+188577280+188959216+191215536+193347664+194038368+193913136+194336928
848.53+195581680+196659184+196572576+195147584+192883392+190655408+189578032
844.03+190277952+192062352+193533488+194262512+195244816+197421024+200159168
839.53+201615328+200729072+198606432+197346240+197709024+198905680+200118608
835.03+200856448+200358960+198359152+196020944+194671168+194097312+193158896
830.53+191210208+188416544+185774912+184809600+185838400+186879488+185863248
826.03+183335760+181474528+181245664+181939536+182556432+182395024+181113440
821.53+179095280+177241008+176057888+175349856+174642576+173449552+171523792
817.03+169207968+167202016+165948448+165578128+166008080+166596288+166308848
812.53+164891136+163354016+162771120+163198672+164065344+164846272+164935088
808.03+163631808+160964304+158133200+156460048+156079504+156269264+156840688
803.53+158226976+160065648+160927600+160084560+158687264+158389712
##END=
