##TITLE=octarelline 6 front
##JCAMP-DX=4.24
##DATA TYPE=INFRARED SPECTRUM
##DATE=31/1/2005
##TIME=16:51:35
##SAMPLING PROCEDURE=film
##ORIGIN=Vincent
##DATA PROCESSING=no operation
##XUNITS=1/CM
##YUNITS=ABSORBANCE
##RESOLUTION=2
##FIRSTX=4000.283
##LASTX=800.31372
##DELTAX=-0.64282227
##MAXY=0.15794687
##MINY=8.701146e-005
##XFACTOR=1
##YFACTOR=1.4709949e-010
##NPOINTS=4979
##FIRSTY=0.002915021
##XYDATA=(X++(Y..Y))
4000.28+19816664+19986390+19920836+19733754+19458820+19025744+18501712+18148634
3995.14+18044876+17906954+17653434+17799842+18699874+19679014+19711786+18800642
3990.00+17928200+17794354+18178556+18455672+18315076+18045584+18149340+18561036
3984.86+18641436+18210606+17914922+18110388+18221228+17780192+17210890+16953360
3979.71+16738678+16237347+15670819+15373267+15422090+15856052+16659924+17481012
3974.57+17869598+17800906+17663702+17804976+18192546+18440798+18298078+18147748
3969.43+18670300+19833670+20702602+20465676+19197020+17537836+16173292+15670289
3964.28+16236107+17388962+18295598+18644268+18917000+19655274+20663084+21174916
3959.14+20718552+19577152+18372798+17484198+17009464+16976722+17291252+17626526
3954.00+17648124+17345592+17062918+17108936+17328952+17231776+16699567+16292023
3948.86+16497646+17006632+17228944+17154072+17119734+17065928+16669304+15946638
3943.71+15219018+14721305+14597862+14934955+15527170+15950530+16023602+15910898
3938.57+15855699+16096500+16839202+17898456+18606016+18502598+17831002+17064864
3933.43+16344223+15702132+15427929+15758214+16477651+17104158+17372498+17433746
3928.29+17614664+17943072+17986980+17434454+16632495+16094200+15731499+15271023
3923.14+15079991+15631368+16438011+16565069+16007679+15558128+15515848+15466493
3918.00+15177451+14937607+15103339+15747953+16599402+17148940+17156550+16964862
3912.86+16947164+16988934+16890706+16771950+16652493+16255573+15600585+15124564
3907.72+14964667+14783736+14341090+13645157+12774236+12072843+12047398+12556326
3902.57+12877101+12879399+13136575+13648342+13706682+13291419+13311749+14115108
3897.43+14968559+15243606+15096970+14833080+14520579+14328181+14454974+14594503
3892.29+14133142+13106348+12461248+13002593+14425617+15743708+16325291+16028028
3887.15+14749071+12651759+10812026+10680269+12419012+14554534+15686563+15715225
3882.00+15241483+14604584+13948724+13616872+13907175+14715822+15782629+16899556
3876.86+17662640+17498712+16277691+14609535+13356296+13075770+13862619+15151626
3871.72+15686918+14378049+11564176+9062754+8595374+10291038+12921817+15041962
3866.58+15678249+14620499+12690817+11493687+12127265+13922912+15062478+14755084
3861.43+14170983+14745711+16203020+17140796+16936546+16116849+15329397+14705566
3856.29+13733378+11385925+7209378+2719376+591514+1611851+4130051+6950779
3851.15+10302163+13921850+16456769+17144692+16711599+16336969+16530208+17056368
3846.01+17340282+16922032+15890198+14805667+14104144+13783412+13679632+13761666
3840.86+14042965+14226327+13561535+11535204+8986324+7979316+9613009+12448348
3835.72+14282737+14640838+14621029+14990138+15353985+15071146+14259041+13749113
3830.58+14240297+15538669+16669658+16790356+15950353+14978112+14700613+15257226
3825.44+16086769+16532685+16308657+15307285+13333490+10560880+8088365+7350684
3820.29+8744864+11304664+13670794+14740405+13773157+10916941+7765640+6654634
3815.15+8675149+12531407+15818191+17075130+16599755+15667812+15107935+14852889
3810.01+14681691+14560017+14059054+12556679+10608212+10053357+11791909+14378049
3804.86+15941684+16237347+15767591+14233578+11301131+8382183+7994137+10771403
3799.72+14513683+16833716+17266470+16595686+15542559+14699553+14693361+15491966
3794.58+16181787+16128525+15784576+15870206+16389702+16903094+17130884+16950174
3789.44+16391471+15859591+15820138+16193641+16517996+16576219+16438188+16118796
3784.29+15619867+15143135+14968382+15163122+15455524+15378042+14723426+13961630
3779.15+13872874+14675678+15854460+16844688+17477470+17811880+17909432+17779306
3774.01+17454636+17122210+16997782+16843982+16012280+14377164+12887883+12713969
3768.87+13941829+15480820+16132951+15606422+14707509+14514921+15248560+16186034
3763.72+16731954+17022032+17362232+17596608+17257088+16176477+14870221+14184243
3758.58+14355415+14799124+15106520+15589440+16456414+17252486+17384182+16325468
3753.44+13519286+9533033+6931200+7599086+9555631+9633666+8322888+8866474
3748.30+12202366+15818016+17269126+15707969+11085625+4844190+885820+2562794
3743.15+8306122+13586463+16056336+16349886+15827566+15245906+14839625+14481144
3738.01+13837160+12787492+11533968+10397524+9848183+10360439+11627423+12368649
3732.87+11761342+10719478+10974698+12853418+14835203+15504702+15054873+14667718
3727.73+14992436+15686033+16206912+16541356+16975482+17439588+17468090+16803454
3722.58+15842959+15329928+15656311+16542948+17389316+17744254+17468620+16801154
3717.44+16373600+16735139+17609354+18040628+17469860+16175060+14509970+12616412
3712.30+11226056+11553048+13580806+15650121+16556399+16851768+17572178+18733700
3707.16+19696196+20119270+20026430+19595396+19190644+19068252+18994752+18565108
3702.01+17804090+17153718+17014066+17460476+18182274+18714044+18928156+19160532
3696.87+19627286+20003930+19854400+19228372+18599642+18275940+17947674+16996544
3691.73+15481884+14409349+14308905+14111393+12680566+11020270+11502520+14713524
3686.59+18641966+21154178+21742500+21110220+20214772+19676002+19527552+19488048
3681.44+19526312+19796644+20150276+20290962+20297518+20289900+19700448+17752220
3676.30+14837325+12815242+13436729+16629309+20660604+23514560+23916182+21919784
3671.16+19056034+17374976+17692914+19192236+20981018+23010124+25202308+26845740
3666.02+27346034+26919084+26240246+25832624+25928490+26525220+27464328+28495064
3660.87+29230764+29342908+29093204+29184016+29595300+29336866+28053908+27030790
3655.73+27722420+29950464+32397240+34041300+34391124+33374882+31642078+30135176
3650.59+29131058+28417062+28308500+29433376+31562566+33759516+35624652+37511284
3645.45+39640964+41673476+43093784+43686676+43697212+43683284+44126600+45095444
3640.30+46256584+47167836+47621516+47812876+48136612+48782040+49640028+50522068
3635.16+51261312+51685352+51884500+52387444+53609516+55104608+55734520+54693336
3630.02+52370068+50336264+50344680+52898528+56837960+60484656+62931712+64269484
3624.87+65110756+65981600+66905088+67641408+68312912+69269192+70217856+70350848
3619.73+69726456+69577632+70707168+72511576+74101984+75336144+76312216+76898088
3614.59+77163072+77474144+78015072+78861360+80308344+82244392+83616288+83490840
3609.45+82418832+81943128+82825296+84485008+86150904+87798712+89756000+91865264
3604.30+93431264+94042696+94118456+94452032+95416096+96738664+97830432+98247936
3599.16+98194808+98551776+99917800+101703184+102765992+102889904+103014904
3594.66+104101352+106217048+108641696+110506536+111507824+112104568+112773280
3590.16+113263128+113123776+112661392+112693568+113522240+114830448+116417088
3585.66+118276952+120130840+121496448+122264480+122848352+123724304+124935872
3581.16+126123352+127046176+127945040+129185200+130692200+132033056+132961800
3576.66+133622544+134316592+135323776+136817344+138692112+140526032+141882256
3572.16+142659888+143104656+143482976+143778000+143751776+143369168+143033888
3567.66+143247616+144080112+145217808+146464512+147911536+149585488+151192224
3563.16+152457184+153523808+154728368+156078352+157359152+158627136+160098544
3558.66+161567328+162556544+163052096+163549040+164379840+165504544+166770256
3554.16+167905008+168535248+168710016+169109696+170332032+172222096+174138912
3549.66+175583136+176476528+177114960+177843776+178729088+179779776+181312864
3545.16+183452992+185550080+186945520+187986240+189369136+190959552+192199984
3540.67+193087168+193770912+194025360+194055248+194886400+196943648+199148240
3536.17+200310368+200629408+201171920+202593056+204757168+206976864+208464432
3531.67+209103600+209649152+210753808+212172784+213278016+213815440+213825696
3527.17+213477936+213284832+213860880+215304960+217298080+219650096+222166128
3522.67+224215552+225161760+225191392+225231280+226070880+227739168+229536256
3518.17+230590704+230658272+230436048+230916480+232503024+234833600+237185456
3513.67+238921504+239864464+240389568+240964832+241671008+242450896+243540784
3509.17+245166032+247014864+248570832+249845248+251264336+252906720+254307920
3504.67+255104944+255585792+256384336+257771440+259442384+261020304+262486512
3500.17+263956128+265302320+266343088+267184432+268073264+269073152+270154560
3495.67+271392256+272837408+274377664+275867712+277184160+278114496+278551296
3491.17+278835616+279495776+280540576+281438016+281876768+282181088+282848416
3486.67+284012576+285543584+287298752+289077344+290553312+291480032+291933824
3482.17+292339712+293258624+294983008+297237184+299448448+301343680+302959328
3477.67+304111008+304428384+304089536+303982080+304851968+306626336+308644960
3473.17+310213824+311080064+311718912+312922112+314780032+316481248+317423616
3468.67+317948960+318676160+319786720+321256128+323045088+324765184+325868960
3464.17+326388000+326896928+327663488+328431616+329097664+330020640+331506368
3459.67+333332128+334953536+336059744+336764000+337260896+337608896+338071200
3455.17+339217856+341164320+343096448+344224704+344788512+345463392+346299904
3450.67+347067744+348045088+349518560+350978624+351707840+351878560+352379584
3446.17+353732352+355595488+357238560+358316992+359291712+360927072+363197312
3441.67+365091904+365823680+365777024+365859712+366408768+367156320+367867424
3437.17+368581504+369497408+370825760+372579104+374412800+375890688+376876224
3432.67+377508288+377964064+378478560+379287808+380334752+381292736+382119552
3428.17+383246048+384914400+386607712+387483680+387348032+387046496+387743904
3423.67+389761568+392215104+393980416+394842080+395401728+396163744+397222912
3419.17+398523264+399888928+400977088+401685088+402294272+402885568+403174624
3414.67+403268224+403875520+405358112+407219136+408877632+410226912+411275168
3410.17+411948000+412400416+412911808+413554080+414442496+415912352+417825280
3405.67+419245600+419541536+419285088+419456480+420274464+421352672+422474272
3401.17+423639008+424753152+425667136+426354496+426859936+427278272+427729152
3396.67+428274944+428986880+430057536+431517312+432919712+433852672+434627968
3392.17+435826464+437312928+438496576+439411904+440650560+442274400+443679712
3387.67+444519104+445028928+445480320+445942624+446494912+447147776+447787552
3383.17+448485088+449491040+450696832+451664576+452391168+453456320+455195648
3378.67+457204672+458739008+459356736+459325888+459575104+460820928+462651072
3374.17+464062176+464877600+465848960+467418048+469244384+470852672+471933792
3369.67+472204672+471717408+471138528+471168000+471902784+472956192+473890592
3365.17+474522496+475211200+476568864+478548512+480321856+481402944+482165920
3360.67+482965184+483619552+483948768+484036480+483977024+484093504+485106112
3356.18+487247040+489622976+491262752+492309600+493535680+495175360+496741568
3351.68+497702688+498076768+498479264+499446624+500738624+501772064+502572128
3347.18+503507328+504337248+504517184+504234720+504137408+504391936+504905984
3342.68+505919456+507509952+509133792+510373600+511558656+513164704+515209856
3338.18+517369024+519096224+519766016+519448960+519187712+519880448+521360288
3333.68+523083936+524909536+526661152+527831328+528346720+528856256+529848704
3329.18+531174272+532561856+533833248+534568352+534484576+534158592+534533152
3324.68+535677504+536855712+537794432+538991040+540642368+542119360+542849792
3320.18+543161920+543855808+545250816+546997888+548587136+549759424+550550528
3315.68+551280064+552472704+554422592+556826688+559110016+561011264+562478720
3311.18+563245440+563158976+562793408+562954112+563662720+564449536+565488192
3306.68+567454912+570304960+573052352+574776576+575260992+574903744+574540544
3302.18+574942848+576051072+577211392+578282944+579633472+581017472+581641216
3297.68+581574272+581935808+583351360+585119744+586184320+586293376+586098688
3293.18+586451072+587545600+588675648+589090496+588947840+588961408+589355840
3288.68+589776064+589964736+590020224+590154560+590502912+590872896+590674688
3284.18+589616896+588382080+587942848+588292224+588496064+587937472+586957952
3279.68+586379840+586745600+587798976+588514624+588001472+586521920+585165056
3275.18+584434176+583774400+582634432+581372288+580832576+581381696+582481536
3270.68+582964416+581875456+579475072+577244160+576417408+576630720+576492608
3266.18+575284608+573477632+571776960+570398976+569306048+568519808+568008896
3261.68+567542976+566791552+565531648+563843904+562042880+560288448+558496128
3257.18+556789056+555620160+555176448+555077888+554892672+554515328+553914688
3252.68+553051648+552106688+551256448+550311104+549090496+547974848+547526336
3248.18+547687104+547785792+547233408+546044288+544777792+543977536+543579584
3243.68+543093056+542346432+541599872+540923840+540140288+539304896+538549568
3239.18+537590720+536166016+534776800+534218720+534488224+534835392+534705888
3234.68+534108352+533246240+532311520+531484224+530806752+530072768+529009888
3230.18+527605312+526207680+525301184+525190176+525847520+526823392+527243616
3225.68+526391488+524553856+522858944+522004640+521710688+521624960+521887936
3221.18+522370144+522294976+521168608+519490272+518240000+518047616+518779872
3216.68+519531872+519312544+518126240+516906080+516235072+515840256+515452736
3212.18+515141120+514675840+513594080+512103456+511030464+510733408+510779808
3207.68+510716448+510529056+510300960+509947872+509399392+508802432+508351200
3203.18+507935648+507116896+505620352+503778880+502294688+501613600+501623616
3198.68+501805056+501603808+500822432+499694400+498528032+497470016+496674976
3194.18+496307904+496202144+495923424+495252224+494266272+493070464+491920448
3189.68+491301472+491288544+491133568+490069152+488265664+486530656+485420352
3185.18+484964608+484842272+484535584+483660448+482339808+480957024+479597216
3180.68+478139808+476783008+476013344+476002560+476350112+476460320+476024832
3176.18+475111520+473966016+472823648+471822240+470908576+469864992+468660032
3171.69+467760064+467711648+468279936+468383008+467212096+465176864+463400576
3167.19+462464640+462049504+461678080+461251776+460739936+459917856+458779072
3162.69+457765184+457186400+456780224+456208000+455593760+455145760+454705600
3158.19+454040160+453178560+452179968+450999456+449805632+448989728+448603872
3153.69+448170048+447217568+445847488+444646528+444081376+443966016+443669856
3149.19+442952704+442308192+442195040+442258432+441748096+440509184+439133184
3144.69+438265696+438037280+438064832+437810720+437005440+435810752+434563360
3140.19+433431168+432387072+431395488+430493984+429714720+429046752+428463776
3135.69+427956000+427482688+426972448+426405312+425823488+425162656+424231392
3131.19+423028512+421948256+421418240+421351648+421122080+420160288+418606528
3126.69+417303520+416920064+417130016+417026496+416307488+415471552+414896896
3122.19+414422048+413893344+413422112+413060768+412722976+412304096+411530400
3117.69+410123776+408453856+407360992+407037792+406817216+406255616+405606208
3113.19+405098688+404574560+403885792+403012448+401940960+400932928+400531232
3108.69+400811008+401055648+400506272+399022016+396969632+394973408+393724256
3104.19+393488992+393837408+394062048+393671136+392504736+390912832+389730848
3099.69+389458528+389599936+389380288+388828384+388514432+388525280+388384768
3095.19+387771648+386823584+385815904+384859456+383907552+382947744+382129600
3090.69+381572224+381148704+380745888+380587136+380923648+381530368+381897632
3086.19+381795360+381348768+380748128+380104160+379388256+378463168+377390080
3081.69+376544960+376071008+375509984+374483168+373404384+372944896+373127008
3077.19+373504032+373871872+374174528+374072384+373280544+372081440+371008736
3072.69+370202112+369430592+368513536+367460448+366488640+366006496+366180640
3068.19+366450784+366040544+364999520+364099776+363676576+363313952+362709568
3063.69+362041056+361438176+360834176+360332320+359992576+359408992+358235936
3059.19+356940672+356269088+356221664+356209536+355912320+355375360+354612096
3054.69+353691488+352927264+352511008+352202304+351684448+350993056+350391232
3050.19+349939712+349336672+348217760+346652928+345149632+344015296+343005312
3045.69+341945664+341270208+341409664+341979456+342163040+341670624+340763168
3041.19+339595776+338124896+336582176+335532896+335265184+335342624+334941888
3036.69+333684192+332070912+331022464+330913216+331155744+330850048+329808736
3032.19+328714880+328189504+327984000+327473728+326679904+326187328+326104256
3027.69+325856192+325050624+323905280+322734336+321657984+320842336+320426304
3023.19+320164256+319638848+318816736+318004672+317345216+316690848+315916160
3018.69+315119520+314565088+314394592+314364256+314066688+313462944+312861088
3014.19+312268352+311262528+309673728+307953056+306667328+305959456+305676864
3009.69+305683488+305848224+305866368+305338240+304251456+303282496+303202688
3005.19+303819744+304002336+303030912+301424384+300114624+299368224+298968992
3000.69+298952800+299518176+300363776+300707648+300136416+299151456+298615552
2996.19+298775808+299124192+299120672+298705920+298158656+297866240+298146976
2991.69+298879808+299437568+299384000+298964128+298599008+298339104+298168352
2987.20+298222880+298351744+298163712+297795968+297885504+298572160+299342688
2982.70+299978048+300793376+301835232+302650880+302952736+302912352+302815840
2978.20+302859104+303172064+303708800+304251232+304701184+305172576+305812480
2973.70+306712064+307862816+309009920+309795328+310229824+310682784+311330144
2969.20+312048288+312850112+313858880+314837792+315364672+315535616+315909504
2964.70+316734528+317734592+318622080+319271200+319482944+319128064+318515040
2960.20+318190880+318343360+318711872+319000256+319057696+318798304+318238464
2955.70+317577216+316979424+316392288+315696032+314885376+314000384+313056160
2951.20+312141184+311354944+310656960+310011296+309610048+309586816+309645408
2946.70+309407776+308999936+308825664+308888032+308809472+308451936+308076896
2942.20+308001120+308402528+309246176+310070720+310229440+309653248+309068160
2937.70+309169216+309898912+310700352+311132256+311087136+310777408+310536896
2933.20+310385792+309986880+309271936+308710784+308580672+308465632+307940160
2928.70+307244704+306799104+306505664+306018432+305340192+304744672+304360320
2924.20+304052512+303544576+302648928+301552064+300692672+300161536+299449024
2919.70+298056256+296122624+294250016+292868992+291951104+291192224+290344576
2915.20+289374336+288343072+287254560+286163936+285259200+284603200+283909888
2910.70+282879776+281645568+280596480+279800480+278879712+277504064+275857472
2906.20+274471744+273566336+272750944+271543168+269952512+268343392+267031312
2901.70+266297648+266333456+266724432+266524128+265392816+264181120+263843584
2897.20+264258864+264576432+264261920+263410240+262383600+261410000+260353296
2892.70+258957280+257400256+256258240+255793440+255758480+255919328+256134256
2888.20+256057904+255536656+255098064+255251936+255679440+255852336+255892832
2883.70+256061120+256108352+255901088+255907600+256415824+257017232+257371488
2879.20+257670064+257961168+257871088+257319440+256841968+256884784+257278912
2874.70+257611312+257793936+258018048+258255216+258075840+257203856+256064608
2870.20+255350192+255182640+255115328+254737584+253812128+252248640+250503952
2865.70+249448080+249295296+249281696+248855680+248377088+248177840+247858784
2861.20+247095616+246254048+245684848+245116128+244263248+243394000+242851760
2856.70+242455888+241810448+240955072+240308816+240053024+239943088+239732544
2852.20+239449728+239162496+238770768+238203392+237522624+236785392+236062640
2847.70+235499824+235070256+234492720+233703120+232962256+232226944+231027808
2843.20+229332736+227860848+227130576+226841904+226463040+225834928+225043632
2838.70+224270256+223762528+223544608+223278912+222759088+222202160+221789536
2834.20+221377376+220907760+220590272+220449952+220122304+219361744+218433296
2829.70+217844448+217775264+217831728+217406832+216313328+214965808+213854224
2825.20+213078816+212497280+212041344+211703888+211416352+211129184+210877248
2820.70+210722256+210653056+210550848+210223728+209592864+208824976+208213840
2816.20+207910224+207803536+207612096+207098400+206311008+205579632+205133328
2811.70+204837136+204459920+204040336+203756000+203544832+203165712+202584016
2807.20+202056912+201813808+201793296+201714144+201309824+200490240+199427824
2802.71+198499024+197952112+197628464+197237504+196840736+196730896+196883808
2798.21+196964144+196785440+196322352+195463760+194293520+193349072+192990624
2793.71+192823424+192309136+191595104+191152752+191012880+190861376+190530064
2789.21+189982960+189209856+188396624+187893392+187853264+188092192+188222736
2784.71+187855712+186951184+186033424+185674512+185794624+185882880+185757904
2780.21+185547264+185165392+184395984+183368912+182456752+181860608+181567168
2775.71+181448704+181264768+180875392+180460272+180242528+180133104+179953328
2771.21+179748944+179503392+178935120+177949392+176955392+176375456+176144768
2766.71+175948080+175659520+175361824+175151376+175015248+174803328+174363856
2762.21+173760384+173232576+172894848+172637184+172298544+171807984+171252944
2757.71+170863776+170751728+170637616+170174864+169467712+168862992+168344096
2753.21+167660640+166918848+166512016+166579408+166949760+167386288+167524112
2748.71+167009920+166059232+165384496+165255328+165122272+164468768+163482448
2744.21+162672736+162292144+162278752+162395696+162366320+162137472+161877936
2739.71+161604320+161098032+160345440+159720320+159523776+159652128+159789408
2735.21+159714368+159391360+158974576+158681728+158553424+158428080+158175952
2730.71+157810048+157372144+156869552+156308784+155685056+154991536+154328400
2726.21+153903456+153866560+154191008+154671632+154975968+154826864+154231984
2721.71+153475616+152866544+152577648+152633776+152864144+152965888+152811872
2717.21+152577264+152401968+152146816+151688480+151260368+151200928+151471184
2712.71+151665872+151497664+151106832+150872352+150957184+151088672+150914224
2708.21+150557344+150546416+151073120+151638272+151709392+151375216+151012928
2703.71+150700688+150359952+150135168+150146624+150143680+149876128+149528832
2699.21+149433504+149629184+149932048+150127376+150026656+149720256+149666384
2694.71+150070912+150416976+150223296+149860960+149912416+150140176+149900576
2690.21+149231008+148735344+148715168+149038672+149582688+150281440+150946432
2685.71+151387824+151591584+151667920+151796848+152144976+152570032+152591712
2681.21+151992672+151295376+151282240+152130160+153236320+153857488+153749024
2676.71+153261328+152981648+153261872+153951296+154540720+154647168+154410352
2672.21+154347680+154774736+155436848+155811568+155703056+155436688+155509200
2667.71+156141632+157138480+158088688+158652016+158714784+158425296+158131760
2663.21+158205664+158771984+159625216+160453968+161082784+161463808+161616224
2658.71+161659344+161797264+162144160+162631280+163105104+163469440+163718304
2654.21+163882192+163991936+164146336+164518992+165138832+165715408+165957792
2649.71+166044528+166442000+167274896+168235472+169056960+169657424+169907200
2645.21+169721184+169388688+169384016+169877184+170676016+171514048+172191664
2640.71+172655648+173087408+173746368+174643136+175574176+176407984+177122624
2636.21+177661920+177978368+178131248+178261168+178561024+179221392+180175376
2631.71+181038752+181562848+181948576+182462176+183054528+183617968+184253808
2627.21+184968480+185501168+185773456+186099568+186701440+187397952+187981904
2622.71+188502576+188991264+189298960+189433696+189735984+190499472+191627408
2618.22+192808576+193812064+194516624+194889584+195116848+195561328+196381424
2613.72+197319904+198047504+198609856+199319184+200267792+201163424+201720736
2609.22+202053504+202597024+203611936+204849200+205804176+206297424+206634496
2604.72+207137888+207777280+208374736+208935856+209577936+210321216+211117472
2600.22+211932640+212685248+213269136+213705152+214170784+214828576+215685088
2595.72+216606224+217396400+217909808+218168224+218380416+218811936+219575184
2591.22+220467776+221126816+221459856+221804160+222507280+223523968+224663248
2586.72+225906928+227169328+228067680+228397920+228574176+229168256+230225616
2582.22+231323152+232059232+232325952+232360976+232659120+233516656+234650672
2577.72+235590720+236351280+237295088+238461120+239489248+240147104+240555088
2573.22+240931216+241420064+242112224+243010880+243969104+244789936+245384032
2568.72+245837248+246344704+247020032+247770912+248430704+248982416+249524672
2564.22+250073360+250616608+251254192+252097968+253085200+254011040+254734512
2559.72+255274000+255769424+256369392+257079056+257786432+258481072+259303504
2555.22+260267360+261149280+261813808+262448992+263278464+264184384+264828752
2550.72+265135200+265452704+266140512+267097152+267923920+268526336+269201344
2546.22+270056256+270760000+271130304+271516320+272269024+273213024+274002464
2541.72+274649024+275357472+276138464+276912800+277757952+278751072+279794848
2537.22+280789056+281797344+282852480+283751808+284271808+284507648+284823136
2532.72+285459616+286342112+287276096+288166688+289001856+289759424+290431776
2528.22+291042656+291655264+292425728+293507200+294758048+295708896+296075968
2523.72+296107072+296239744+296664480+297357632+298221280+299051712+299707680
2519.22+300377792+301322432+302374432+303109664+303440224+303625152+303860160
2514.72+304260032+305014304+306136896+307280992+308146048+308856128+309695840
2510.22+310710336+311747680+312634144+313227744+313549632+313860448+314380288
2505.72+314970752+315338816+315472960+315676640+316251648+317271936+318542112
2501.22+319660640+320301344+320551232+320858080+321563424+322571584+323548896
2496.72+324324224+325006432+325729088+326393152+326771488+326880416+327078784
2492.22+327664256+328499872+329217856+329668640+329962816+330222400+330552224
2487.72+331165376+332192224+333392800+334310016+334749920+334925344+335130336
2483.22+335428224+335694368+335908896+336283968+336965792+337662592+337875680
2478.72+337623264+337616384+338460544+339933536+341273760+341966400+342051776
2474.22+341870784+341749472+341841760+342104736+342404672+342711584+343171936
2469.72+343927360+344786688+345288512+345253504+345118624+345384480+345911680
2465.22+346203712+346196416+346250240+346504672+346791072+347066144+347437280
2460.72+347863520+348250016+348682080+349245536+349748512+349886016+349597344
2456.22+349155424+348963712+349200992+349616576+349834464+349858656+349975168
2451.72+350183200+350195488+350040320+350140384+350627648+351058720+351080864
2447.22+350981632+351262432+351841088+352118016+351837312+351474560+351505056
2442.72+351711840+351644224+351467392+351725312+352414048+352921120+352884832
2438.22+352574112+352385472+352405952+352520352+352609568+352588768+352463232
2433.73+352375040+352471936+352745632+353063904+353327712+353530432+353712352
2429.23+353903584+354074784+354132928+353978560+353617312+353212064+352985984
2424.73+353037344+353271776+353528448+353690720+353718048+353639520+353573088
2420.23+353649056+353845632+353938496+353726816+353322944+353113088+353303712
2415.73+353595712+353523520+353056768+352627040+352543328+352660352+352698816
2411.23+352667872+352784480+353057952+353165280+352834432+352254432+351852160
2406.73+351725312+351626176+351528672+351706688+352108128+352172352+351534208
2402.23+350539104+349826944+349712864+350065888+350513344+350668480+350387104
2397.73+349824384+349185760+348563904+348064704+347785696+347615456+347343488
2393.23+346994912+346789664+346778368+346773824+346607424+346257760+345791776
2388.73+345313248+344911136+344613088+344411392+344254784+343971008+343378304
2384.23+342587872+341957312+341627168+341380448+341081728+340906176+340906752
2379.73+340732736+340082624+339217696+338679840+338612512+338675872+338548960
2375.23+338237344+337887488+337559392+337225984+336818080+336290304+335780960
2370.73+335554400+335608640+335554624+335148864+334667712+334437504+334287360
2366.23+333875296+333281088+332864416+332708416+332542176+332107360+331378208
2361.73+330526240+329790784+329265248+328794912+328177120+327386080+326492384
2357.23+325503680+324445216+323480352+322769664+322306976+321971584+321651136
2352.73+321265536+320751520+320054624+319108256+317911360+316674592+315750080
2348.23+315281280+314991872+314438624+313446528+312269504+311346944+310890048
2343.73+310671840+310301376+309714368+309231904+309018528+308762368+308088608
2339.23+307062880+306016864+305113632+304388416+303938016+303703136+303278400
2334.73+302323744+301024896+299832352+298913088+298150048+297490400+296958688
2330.23+296463520+295863904+295143296+294332256+293381248+292282752+291223296
2325.73+290412352+289794176+289103744+288217536+287316640+286613216+286064480
2321.23+285482112+284778752+283943200+282922176+281749728+280670432+279886336
2316.73+279269664+278524224+277548960+276506720+275645536+275119872+274821664
2312.23+274391552+273578112+272532864+271556640+270698816+269824832+268929344
2307.73+268133552+267502912+267042464+266712496+266348848+265721072+264754272
2303.23+263584592+262430736+261517456+260975504+260654288+260217408+259544624
2298.73+258833600+258215664+257566768+256777104+255928928+255076960+254160016
2294.23+253226496+252453936+251831952+251096544+250122592+249165104+248536160
2289.73+248193136+247789328+247065360+246096048+245206944+244657264+244338752
2285.23+243863024+243021776+242030272+241165120+240350640+239375072+238331408
2280.73+237509840+236934528+236351840+235616832+234845984+234221248+233800448
2276.23+233440240+232863824+231959856+230992784+230295648+229824976+229302880
2271.73+228693568+228202464+227876240+227537120+227038784+226367440+225582672
2267.23+224819552+224237360+223825008+223359184+222628160+221611792+220486544
2262.73+219525888+218887536+218436512+217915664+217311360+216806624+216371056
2258.23+215768560+215000800+214359072+213940112+213480032+212788320+212028896
2253.73+211452432+211091584+210783696+210338800+209673312+208904112+208271632
2249.24+207853776+207492976+207075184+206690928+206397616+206060592+205538128
2244.74+204838672+204064864+203372704+202942336+202716528+202317712+201548352
2240.24+200775216+200427344+200358960+200122064+199607808+198991616+198352768
2235.74+197760560+197397600+197215488+196811584+196018832+195243760+194897280
2231.24+194829824+194631872+194207456+193794960+193579424+193466128+193222256
2226.74+192808944+192470272+192361536+192194192+191559808+190517856+189551152
2222.24+188952992+188583824+188231904+187885888+187624096+187411264+187101904
2217.74+186582800+185911968+185322032+185026752+184978416+184861328+184404400
2213.24+183692320+183070256+182714928+182445536+182042896+181560976+181151008
2208.74+180765936+180236160+179545648+178888752+178520240+178521392+178641216
2204.24+178473152+177879104+177090304+176308048+175538128+174866624+174494368
2199.74+174387744+174283968+174087952+173880768+173620960+173212624+172724880
2195.24+172258080+171797360+171441104+171379568+171454560+171179648+170413136
2190.74+169591456+169140464+169018208+168896144+168511952+167850432+167148832
2186.24+166661696+166397504+166232928+166138912+166038960+165675408+164986992
2181.74+164376672+164242160+164457600+164612592+164501312+164135744+163564096
2177.24+162889200+162294560+161894672+161670672+161549296+161436304+161236304
2172.74+160906992+160458800+159905344+159309072+158780896+158340656+157896000
2168.24+157458272+157221440+157310336+157592480+157805392+157750256+157347648
2163.74+156662656+155916384+155355248+155073344+154958896+154806640+154495840
2159.24+154087936+153724192+153415360+153019440+152477216+151960624+151707552
2154.74+151747952+151865408+151832416+151631424+151427264+151328352+151262800
2150.24+151110720+150878464+150651984+150465488+150270144+150027200+149790432
2145.74+149683584+149745248+149790784+149541248+148932816+148187584+147562976
2141.24+147162880+146965312+146855264+146655536+146285120+145905520+145775360
2136.74+145964688+146253136+146290880+145868720+145135376+144503824+144211664
2132.24+144089344+143896624+143704672+143705760+143800912+143664192+143190528
2127.74+142673184+142494032+142713984+142981264+142894448+142423312+141841824
2123.24+141317312+140841280+140526224+140565360+140848656+140976752+140765776
2118.74+140425264+140196256+140103984+140064320+140024448+139983120+139996032
2114.24+140061536+139971488+139481440+138669808+137912624+137483008+137355808
2109.74+137349168+137267120+137012736+136703424+136587488+136740480+136990976
2105.24+137154304+137127952+136785840+136091008+135308128+134834880+134747024
2100.74+134734304+134510160+134161152+134026160+134251392+134524320+134383808
2096.24+133837040+133425712+133555152+133980496+134168152+133920464+133451304
2091.74+133044640+132843624+132829272+132809560+132548760+132045760+131600648
2087.24+131518024+131780592+132101152+132227960+132113856+131836344+131490432
2082.74+131166792+130903920+130624504+130253168+129918104+129830392+129917368
2078.24+129827984+129417040+129007040+129007960+129413720+129781112+129634352
2073.74+128886456+127968920+127481424+127611696+128002008+128244976+128296432
2069.24+128298256+128256912+128115400+127927400+127748048+127511928+127185240
2064.75+126891680+126707416+126500032+126129768+125667728+125289280+125058688
2060.25+124975328+125119280+125586912+126276144+126860256+126995480+126591888
2055.75+125899464+125317192+125045112+124974048+124910168+124816176+124719816
2051.25+124543768+124180344+123673832+123249600+123139336+123409408+123879000
2046.75+124217048+124190064+123803192+123193272+122479456+121778088+121256056
2042.25+121092128+121364232+121928296+122418560+122544400+122382976+122192784
2037.75+121986248+121624072+121254760+121173352+121275120+121117984+120572952
2033.25+120021984+119870232+120131576+120477464+120550032+120320728+120175200
2028.75+120456736+120964344+121169872+120827032+120108288+119300304+118655584
2024.25+118360840+118408840+118601552+118752856+118762584+118577176+118291616
2019.75+118106984+118001488+117706984+117218608+116977472+117256328+117726384
2015.25+117880424+117624392+117252848+117071568+117163312+117395680+117578248
2010.75+117643448+117610472+117415280+116967952+116408496+116090560+116242824
2006.25+116740752+117215856+117360336+117172096+116930776+116901120+117071568
2001.75+117220072+117173376+116939576+116671552+116515952+116449120+116279976
1997.25+115896896+115438288+115120624+114964192+114836120+114667992+114541392
1992.75+114582000+114820208+115111848+115205160+114987424+114650424+114488144
1988.25+114560776+114704568+114830080+115002432+115203336+115270672+115159040
1983.75+115018704+114962528+114983400+115136528+115476896+115781224+115705816
1979.25+115285680+114908384+114751584+114645856+114527680+114572488+114773368
1974.75+114834464+114628840+114410968+114393760+114416992+114232600+113906112
1970.25+113718288+113782112+113928968+113939224+113738048+113416176+113191984
1965.75+113291656+113691944+114064512+114122136+113918912+113670008+113469752
1961.25+113362048+113440872+113679344+113888376+114029216+114305592+114751952
1956.75+115015232+114768432+114109320+113423480+113036024+113045168+113294936
1952.25+113444336+113256176+112853368+112581680+112612768+112800896+112908400
1947.75+112833616+112601800+112319720+112161232+112223016+112324464+112180624
1943.25+111867696+111853800+112376752+113050472+113340464+113193808+112977880
1938.75+113010056+113327112+113725968+113883080+113622096+113167312+112969648
1934.25+113216664+113652624+113900264+113848688+113698168+113696888+113844488
1929.75+113894960+113687192+113362224+113151392+113088672+113078440+113103664
1925.25+113152128+113074768+112756096+112346224+112118464+112165616+112424464
1920.75+112809480+113060528+112722832+111770088+111063984+111537800+112888280
1916.25+113819056+113673488+113059792+112808944+113013168+113338456+113617152
1911.75+113817776+113875208+113826936+113805344+113806992+113728520+113633248
1907.25+113693776+113876304+113918912+113653736+113230200+113027968+113324376
1902.75+113981288+114542112+114699264+114547416+114327912+114113168+113892224
1898.25+113798216+114062128+114722312+115484768+115907696+115776664+115254032
1893.75+114708968+114485600+114738048+115251096+115448712+114990352+114327544
1889.25+114268464+114992000+115909696+116454632+116523272+116241176+115807952
1884.75+115545704+115697776+116174192+116713664+117170640+117500248+117694720
1880.26+117863024+118186656+118702488+119275208+119758984+120062104+120149544
1875.76+120114352+120125520+120178120+120056432+119643704+119147320+118882936
1871.26+118873416+118796280+118400400+117919056+117891032+118524424+119485752
1866.76+120344736+120962320+121367360+121559712+121593800+121637272+121783432
1862.26+121958744+122099224+122278616+122589336+122983024+123298032+123389608
1857.76+123237488+123010352+123033664+123519512+124278352+124850312+125008568
1853.26+124969288+125008024+125117808+125183168+125231824+125287272+125200432
1848.76+124894192+124655920+124873080+125361448+125216952+123728696+121565008
1844.26+120613456+122063832+124853064+126920696+127468192+127199200+127018800
1839.76+127212440+127616280+127928312+127889360+127546648+127288496+127423928
1835.26+127850400+128193864+128207648+128041880+128024256+128079560+127671600
1830.76+126687944+125980832+126504808+128173472+130068336+131353552+131587576
1826.26+130795032+129646504+129058512+129298072+129879848+130376576+130819688
1821.76+131390512+132109072+132740360+132876392+132351264+131566960+131098184
1817.26+131084016+131295040+131522808+131603584+131405976+131067656+130887560
1812.76+130846168+130636832+130273216+130231832+130872096+131944544+132836808
1808.26+133239768+133478568+134006456+134656768+134805216+134270736+133498992
1803.76+132827424+132198872+131607448+131156144+130728072+130280024+130255928
1799.26+131036384+132234216+133170920+133692880+133990816+134068336+133793232
1794.76+133018856+131513424+129440200+127956976+128387944+130550760+132930880
1790.26+134476816+135164064+135187440+134752368+134378096+134405168+134422864
1785.76+134028200+133696200+134054904+134810736+135252672+135243648+135039888
1781.26+134749776+134477920+134398736+134457280+134552336+134857520+135308480
1776.76+135333920+134834144+134542560+134533904+133582400+131177304+129032048
1772.26+129266456+131718024+134429120+135978048+136044944+134929744+133659360
1767.76+133638000+135179728+136994480+137770080+137540512+137105824+136657360
1763.26+135640128+134035568+133114408+134181768+136730352+138921568+139786064
1758.76+139728672+139199200+138290800+137638976+138122832+139430912+140423408
1754.26+140842544+141045232+140493184+138499392+136264064+136037200+137945984
1749.76+139845488+140539680+140832960+141590720+142576048+143269424+143525456
1745.26+143367520+143013952+143001936+143746416+145047008+146135712+146153280
1740.76+144908928+143457120+143402608+145167520+147645680+149641376+150414208
1736.26+149092736+145187856+140039776+136751168+137679536+142007088+146730816
1731.76+149607328+150386816+150188128+150303664+151207408+152416608+153269296
1727.26+153657632+153969456+154459312+154908640+155049424+155081120+155491408
1722.76+156489504+157821920+158986656+159523776+159228080+158034480+155891536
1718.26+153422576+152545584+154770304+158717568+161718624+163426480+165493360
1713.76+168409296+170956432+172542016+173705888+174659392+175337184+176382560
1709.26+178411456+180878208+182891264+184383072+185845616+187757232+190453088
1704.76+193864096+197653280+201715280+205478336+207131632+205576240+203255264
1700.26+205217808+213667312+225023136+234281648+239110608+240128448+240730752
1695.77+245616560+256068464+267944336+277217248+284043584+290532320+297532832
1691.27+304472864+311074208+317724192+324485504+331019328+337355424+343441152
1686.77+348007264+349646880+349509184+351606144+358934976+369823264+380465632
1682.27+389067264+395780800+401321792+406610208+412388064+418788672+425620800
1677.77+432439840+438080128+441552224+444081728+448837408+457300064+467037440
1673.27+474792224+480183136+485156448+490918208+496601664+501370208+506535296
1668.77+514095040+523659840+532775552+540053824+546253696+552624640+559400128
1664.27+565974784+572111936+578769152+587278912+597397824+607288320+615819072
1659.77+623438848+630621056+637018368+642400704+646923072+650323968+652000896
1655.27+651483648+648199360+642340480+637247424+638326592+645974784+653587776
1650.77+656052928+654065536+650431168+646600192+642703424+638786880+635440128
1646.27+634115904+636088320+639920128+641962944+640603072+637649536+635094208
1641.77+632693120+629589760+626094144+622459904+617857600+611721984+604402432
1637.27+595754304+585103424+573664128+564909120+560263552+556233152+548671552
1632.77+537313728+524630784+512353952+500373728+488111840+475419776+462449632
1628.27+449740288+438148512+427996288+418604320+408962176+398574656+387838432
1623.77+377995872+370199104+364168448+358474176+352251296+345824800+339775584
1619.27+333932448+327207360+318641696+309360288+303016288+302049056+303737088
1614.77+303538944+300481856+296544608+293017024+289599488+286143968+283108896
1610.27+280591264+278312288+276146144+273971968+271684544+269579392+267949696
1605.77+266447856+264682096+262986224+261799552+260940528+260140544+259536560
1601.27+259166144+258734064+258205872+257918736+258025328+258340896+258635328
1596.77+258695440+258404064+258017856+258005744+258501664+259331920+260463984
1592.27+261916272+263382944+264432464+264974848+265290016+265796192+266834208
1587.77+268394096+270099808+271726624+273449152+275338144+277082112+278465856
1583.27+279636992+280805120+282189632+284113344+286601376+289223296+291730624
1578.77+294033024+295252768+294355904+292540736+293510912+299339968+307148032
1574.27+312909600+316081632+318633824+321708032+324426752+325648096+325927712
1569.77+327240544+330757536+335438048+339515392+342486720+344869184+347046560
1565.27+349167680+351497120+354199584+357134080+359914272+361621760+361038432
1560.77+358274720+355858528+356754944+361430432+368552416+377125760+385635200
1556.27+391474784+393514304+393922336+396352928+402200032+409424032+415287840
1551.77+418759232+420576192+422262720+424781568+427645792+429732672+430728992
1547.27+430884736+429894080+427467232+424752992+423361568+422702144+420456128
1542.77+416000320+411220672+407355744+403055168+397355584+392756544+392815648
1538.27+396840416+400256128+400109600+396940480+392330112+386912800+381109920
1533.77+376414208+374256800+373867712+373019744+370697504+367509856+363996640
1529.27+360123968+356294112+353263264+350782048+347767712+344114784+340989120
1524.77+338972736+336968352+333490688+328285088+322578688+318404704+317377728
1520.27+319156512+321198272+320772512+317320320+312911360+310271840+310010112
1515.77+310450336+310077760+308587904+305890592+301945600+297601728+294070368
1511.28+291373824+288580352+285302784+281644416+277145312+271215168+264494416
1506.78+258973040+256580160+257600544+260247584+261969712+261411152+259125968
1502.28+256579184+254654336+253009280+250751280+247768048+245171552+243795728
1497.78+242610240+240199056+237457424+236799904+238429824+239849952+239492640
1493.28+238067568+236442976+234380688+231740768+229490208+228745104+229417344
1488.78+230326432+230499792+230061792+229853344+230304560+231043040+231605632
1484.28+231947664+232148704+232143968+231924064+231696592+231784352+232475744
1479.78+233821744+235478624+236822592+237366048+237243648+237337840+238470848
1475.28+240175376+240995744+240379088+239570336+240289920+243024480+246933744
1470.78+250782336+253646224+255389328+256578400+257601328+258129616+257728816
1466.28+256502992+255069120+254452928+255551456+257871872+259705248+260283328
1461.78+260508416+261087008+261476896+261259072+260678720+259281008+256331360
1457.28+253423600+254186672+259509264+265772688+269576736+270760736+270609536
1452.78+269842208+268801920+268050896+267884592+267899808+267491136+266446512
1448.28+265041664+263901104+263619792+264167232+264815472+264838400+264139152
1443.78+263097264+262047616+261150240+260484176+259925488+259176896+258128064
1439.28+256737520+254411296+250474480+245863088+243286640+244209712+246536976
1434.78+247275280+245906672+243809280+242054512+240819328+239944224+239016352
1430.28+237621040+236115472+235378592+235551456+235966000+236203728+236185808
1425.78+235655696+234599248+233695856+233502752+233804064+234244672+234539024
1421.28+233795888+231207824+227862368+226351456+227707424+230142656+231716960
1416.78+232280992+232536672+232912368+233573024+234478416+235281776+235752928
1412.28+236103824+236535456+236891808+237148096+237721200+238900160+240380016
1407.78+241597120+242203904+242113744+241513824+241052832+241538848+243017952
1403.28+244470288+244913040+244505632+244089680+243895312+243404704+242331136
1398.78+240965008+239613440+238375088+237315344+236210768+234552752+232453312
1394.28+230977008+230725840+230807264+230041248+228403968+226638384+225117136
1389.78+223613376+221747632+219403280+217040128+215493904+214946864+214529936
1385.28+213485136+212102816+211018240+210264736+209508608+208603600+207400432
1380.78+205645872+203515408+201732224+200749952+200202656+199402576+198084400
1376.28+196475824+194933184+193739136+193124736+193213040+193818080+194475472
1371.78+194833008+194905920+194776976+194307280+193454288+192648912+192384240
1367.28+192523056+192465552+191879600+190887120+189726976+188644016+187946816
1362.78+187759696+187835632+187967280+188345040+189207984+190372560+191385008
1358.28+191905344+191825344+191340128+190967456+191102448+191493536+191535248
1353.78+191073328+190483520+190025184+189611952+189203824+188974400+189036688
1349.28+189303648+189642912+189972992+190186416+190205344+190152048+190371072
1344.78+191137728+192276256+193196528+193444336+193120224+192625616+192204128
1340.28+191918864+191870608+192131072+192607024+193133776+193603856+193978384
1335.78+194383008+195157088+196493888+198062928+199309568+200129024+200911008
1331.28+201951568+203139488+204248144+205219120+206083600+206839456+207495984
1326.79+208099616+208679712+209282656+210018352+210891024+211652080+212062912
1322.29+212268448+212560064+212840304+212762608+212388528+212162944+212183952
1317.79+212091072+211782704+211642992+211849056+211999776+211705376+211160384
1313.29+210898224+211203104+211885184+212456816+212514272+212043808+211406688
1308.79+211004624+211013696+211371504+211853968+212154624+212095984+211844160
1304.29+211825264+212334256+213245472+214162272+214812480+215208448+215460192
1299.79+215630560+215808336+216082288+216331856+216310640+216034208+215841472
1295.29+215988016+216413840+216914912+217274032+217318336+217168720+217278032
1290.79+217861840+218531632+218875248+219083696+219533696+220116240+220475936
1286.29+220571312+220569056+220510272+220482400+220751680+221374864+222017968
1281.79+222404832+222625296+222805584+222842400+222635936+222296656+222028560
1277.29+221993280+222272384+222763088+223178512+223303040+223178512+222989488
1272.79+222921920+223140560+223675248+224303648+224724752+224880512+224970336
1268.29+225241312+225857136+226847040+228022064+229073136+229856176+230470288
1263.79+230979472+231263584+231301472+231430128+232123552+233519888+235266912
1259.29+236827360+237890000+238520464+239010048+239572048+240124800+240389952
1254.79+240256512+240008928+240042320+240346416+240466704+240093312+239530832
1250.29+239352960+239661760+239967712+239874944+239558480+239403696+239435216
1245.79+239419568+239363040+239499344+239879728+240317792+240727888+241192240
1241.29+241667168+241947008+241986160+241972576+241999904+241942768+241795712
1236.79+241851504+242301536+242828816+242933136+242568400+242155776+241991120
1232.29+241953696+241802192+241487856+241121024+240871248+240878512+241053216
1227.79+240949936+240112592+238587424+236926128+235657216+234950368+234753168
1223.29+235001840+235521728+235920272+235841536+235287296+234553296+233909968
1218.79+233436240+233020128+232431600+231556352+230650672+230100816+229852960
1214.29+229432032+228638816+227873968+227584432+227698496+227819600+227758768
1209.79+227696800+227912160+228461968+229159280+229799888+230264032+230494832
1205.29+230599296+230935328+231745136+232765760+233577792+234222960+235022016
1200.79+235974592+236870240+237804528+239071488+240639472+242135136+243313184
1196.29+244299744+245427600+246893936+248564112+250179648+251701632+253218064
1191.79+254646080+255886672+257149744+258722752+260589120+262592688+264739840
1187.29+267044208+269332992+271416000+273255488+274973696+276865440+279191680
1182.79+281833376+284512864+287353120+290675456+294236384+297296736+299506880
1178.29+301270816+303294368+306023488+309307744+312568832+315578336+318820480
1173.79+322666976+326660288+330185728+333307232+336444704+339819424+343548096
1169.29+347662784+351864448+355808928+359504576+363021216+366306336+369661760
1164.79+373659200+378281120+382942944+387418048+391845344+396072992+399994720
1160.29+404131360+408917088+413871904+418312128+422311872+426345888+430608608
1155.79+435131776+439959072+444975360+449992928+454984384+459938464+464840256
1151.29+470027584+476042240+482868192+489824704+496403872+502779296+509367328
1146.79+516232576+523080160+529679040+536211744+543111616+550530112+558138112
1142.30+565516352+572611776+579807616+587596416+596061312+604630336+612598848
1137.80+619893888+627019072+634374464+642031168+649933696+657857600+665422976
1133.30+672615872+679977856+687978048+696513344+705202304+713735360+721850176
1128.80+729400256+736521984+743495104+750501632+757609024+764740224+771688256
1124.30+778468992+785498112+793003648+800543616+807561856+814155520+820853120
1119.80+827859136+834833216+841278080+847064640+852638080+858541568+864677120
1115.30+870418752+875516992+880334336+885164800+889969856+894839552+900015680
1110.80+905469632+910972032+916435328+921724032+926539392+931002880+935809856
1106.30+941217280+946442816+950713600+954386944+958389312+962941760+967421312
1101.80+971277696+974664064+978225536+982425984+987029824+991303040+994852032
1097.30+998068480+1001513984+1005167872+1008690496+1012099200+1015640960
1093.44+1019177216+1022345984+1025195904+1028100160+1031146240+1034124864
1089.58+1036934208+1039432064+1041214656+1042222272+1043209152+1044911744
1085.73+1047149504+1049448576+1051981824+1054958976+1057708288+1059430272
1081.87+1060448960+1061783360+1063794176+1065991360+1067792384+1068822016
1078.01+1068908288+1068359168+1067913152+1068079680+1068885504+1070250048
1074.16+1071963392+1073347584+1073741824+1073405824+1073145344+1073051776
1070.30+1072488960+1071271232+1069873280+1068351552+1066014272+1062397056
1066.44+1057761536+1052400448+1046154816+1038854848+1030661504+1021716352
1062.59+1011866048+1000923328+989021376+976589632+964011648+951257280+938049280
1058.09+924583296+911651392+899592960+887619712+874879744+861796800+849461120
1053.59+838022912+826577472+814564864+802434816+790828736+779653376+768162944
1049.09+755800768+742879808+730369344+718923840+708217600+697435648+686227648
1044.59+674913024+663811136+652719872+641302528+629818880+619092480+609597504
1040.09+600951104+592545536+584217728+575904064+567211840+557969920+548789376
1035.59+540411776+532764000+525190624+517366880+509583808+502260448+495470720
1031.09+488894624+482204736+475589440+469710656+464948192+460856384+456590240
1026.59+451758080+446662112+441891520+437847232+434611200+432081088+430049568
1022.09+428077472+425608640+422629440+420064928+419032032+419646592+420966848
1017.59+422109856+422955168+423740352+424559488+425560064+427181216+429757888
1013.09+433076224+436672800+440420096+444463040+448771712+453177152+457872704
1008.59+463366848+469819360+476782560+483758464+490727840+497971808+505609056
1004.09+513514496+521526144+529553120+537539456+545441344+553255680+561064640
999.59+569018816+577129280+585044672+592285120+598879616+605498368+612726016
995.09+620353856+627617792+634024768+639839744+645774144+652174720+658499712
990.59+663853888+668105600+671993920+675975296+679568640+682220800+684191040
986.09+686044160+687798528+689091520+689902784+690601728+691342272+691687936
981.59+690964224+689019072+686437440+683823360+681086848+677820672+674085760
977.09+670288000+666432000+662047808+656809856+650824256+644373760+637685952
972.59+630937152+624298816+617878592+611540800+604853184+597468736+589575872
968.09+581742784+574316544+567228032+560261184+553236288+546087104+538968640
963.59+532126080+525521984+518893568+512248064+505933024+500107296+494501120
959.09+488851424+483273248+478097984+473537504+469574016+465970304+462276512
954.59+458016512+453122080+448181280+444028352+440986624+438620096+436207648
950.09+433327680+430039808+426693664+423587232+420771808+418222688+416044448
945.59+414242016+412422656+410196768+407775520+405743936+404263968+402936224
941.09+401422368+399856320+398574656+397647072+396769152+395601088+394155776
936.59+392724608+391505344+390486976+389639872+388992384+388613760+388650720
932.09+389126688+389567616+389181664+387596064+385211712+382830528+381159744
927.59+380412576+380084736+379395712+378190496+377019584+376193088+375314912
923.09+373923648+372091616+370246208+368734816+367580032+366496800+365306400
918.59+364306432+363872448+363843584+363795616+363613056+363254240+362389216
914.09+360907168+359342784+358256000+357614368+357177792+356927936+356799232
909.59+356482144+355723328+354458688+352721440+350782048+349247328+348625216
905.09+348914592+349712448+350453856+350588640+349982880+349167520+348733184
900.59+348640736+348597536+348882304+350039136+351847008+353348736+354032512
896.09+354359680+354978432+355964928+357032384+357932352+358372256+358094912
891.59+357455040+357386496+358350368+359771552+360951136+362031712+363485280
887.09+365180960+366632512+367790912+368919296+369983456+370726208+371179104
882.59+371656896+372430816+373679008+375483200+377576864+379327840+380289280
878.10+380659040+380923296+381207200+381291712+381321728+382000800+383711744
873.60+385695360+386728096+386608320+386378656+386889216+387706400+387813536
869.10+386978432+385915168+385270272+385011424+384944832+385282912+386188544
864.60+387080960+387058304+385970528+384458912+383094784+382088544+381554016
860.10+381269088+380529696+379127808+378094656+378570784+380308480+381916064
855.60+381916512+379230592+373947008+368254976+365215968+365641408+367240640
851.10+367537760+366442592+365251840+364291680+362709568+360107264+357239328
846.60+354825824+352637376+350371616+348615968+347663200+346251040+343136160
842.10+339296480+336862048+336412544+337072128+338399936+340100960+340416736
837.60+337179840+330770112+324445216+321021120+320327424+320659712+321255520
833.10+321925472+321458624+318542304+313975328+309975328+307676704+306894784
828.60+307427488+308615648+308640096+306420928+303534464+302307392+302647776
824.10+302452960+300565248+297720832+295012992+292945536+291849312+291839616
819.60+292128480+291550944+290243392+289632288+290186720+290464192+289376832
815.10+288016896+287861504+288552032+288967328+289140832+289497152+289536576
810.60+288948512+288808960+290081504+291881952+292524640+291490144+289502784
806.10+287643488+287237856+289564352+294460160+299828864+303316800+304255168
801.60+303419776+301826656+300573984
##END=
