##TITLE=octarelline 6 front
##JCAMP-DX=4.24
##DATA TYPE=INFRARED SPECTRUM
##DATE=31/1/2005
##TIME=16:56:36
##SAMPLING PROCEDURE=film
##ORIGIN=Vincent
##DATA PROCESSING=no operation
##XUNITS=1/CM
##YUNITS=ABSORBANCE
##RESOLUTION=2
##FIRSTX=4000.283
##LASTX=800.31372
##DELTAX=-0.64282227
##MAXY=0.23720782
##MINY=-0.0028975653
##XFACTOR=1
##YFACTOR=2.2091699e-010
##NPOINTS=4979
##FIRSTY=0.0049340636
##XYDATA=(X++(Y..Y))
4000.28+22334469+22423242+22054680+21518790+21066306+20772842+20614522+20564668
3995.14+20578288+20530806+20370610+20332960+20693976+21213768+21269914+20755908
3990.00+20381976+20763012+21534194+21750522+21003536+19859446+19220854+19401306
3984.86+19958636+20345864+20466276+20508904+20569168+20642584+20711502+20634886
3979.71+20272580+19811154+19614444+19661432+19576692+19260846+19068338+19259782
3974.57+19690190+20124838+20521570+20883446+21077794+20955334+20586814+20280868
3969.43+20330358+20754604+21318240+21749810+21851232+21513222+20824354+20119628
3964.28+19720134+19610064+19550182+19502844+19722264+20343736+21039544+21261026
3959.14+20830392+20150644+19773276+19853172+20134426+20331896+20353916+20201194
3954.00+19903122+19598350+19474204+19486276+19311140+18771264+18202206+18115284
3948.86+18499432+18749260+18450818+17947954+17885164+18329938+18712944+18599264
3943.71+18199252+18016422+18279674+18857506+19483792+19869270+19780852+19274454
3938.57+18802020+18864130+19550182+20485340+21197422+21454464+21244090+20563366
3933.43+19433732+18180802+17420158+17483878+18004716+18343184+18364946+18557980
3928.29+19338352+20383990+20810024+20130874+18872648+17938256+17580350+17497120
3923.14+17683094+18362226+19198486+19480358+19119802+18737548+18754822+18939844
3918.00+18815270+18185062+17416138+17235746+17930690+18926242+19599416+20066474
3912.86+20671358+21251078+21443566+21193514+20629678+19989176+19700606+19890930
3907.72+20016402+19547462+18500970+16868986+14480501+11922675+10386724+10064579
3902.57+10044793+10026891+10594291+11655206+12284977+12325422+12763041+14290228
3897.43+16495437+18519656+19790204+20217056+20188290+20217648+20282880+19659182
3892.29+17740674+15107401+13514688+14325755+17023458+19842400+21495926+21453164
3887.15+19231148+15001016+10878466+9787941+12301368+16071872+18733408+19740136
3882.00+19394918+17880318+15869158+14828518+15742533+18054616+20517428+22484160
3876.86+23790600+23975864+22513790+19817782+17396634+16712633+17891902+19433968
3871.72+19168790+15966260+11031763+7371815+7360524+10775135+15428129+19010478
3866.58+20110986+18624104+16005362+14535155+15366013+17385048+18664916+18744648
3861.43+18809828+19842992+21479108+22793764+23235384+22705574+21678014+20889844
3856.29+19580954+14885898+5214405-5982752-12422239-12000694-8005951-3027814
3851.15+3280240+10647894+16873122+20527610+22275808+23313638+24120576+24715672
3846.01+24881918+24161500+22427862+20406248+19187248+19163464+19592432+19422606
3840.86+18541776+17531402+15958227+12423409+7400043+4396401+6083056+10521252
3835.72+13982076+15599381+16906450+18446914+19140156+18463234+17470518+17573020
3830.58+19136014+21362778+23192344+24031020+23754070+22535126+21072230+20464976
3825.44+21158930+22355924+22934718+22292518+19972606+15726115+10780556+7836214
3820.29+8605281+12157875+16304731+19108918+18881402+14876807+9022768+5533054
3815.15+7152709+12451827+17982246+21632402+23277478+23693350+23639150+23524000
3810.01+23425694+23095952+21761066+18533022+13930270+10626925+11178472+14949653
3804.86+18939964+21075900+20917202+18074486+12386383+6025698+3206650+6087288
3799.72+12358083+18101328+21205594+21621266+20305378+18800956+18610026+19925612
3794.58+21504930+22261114+22358768+22518886+22981306+23501112+23802340+23751342
3789.44+23428540+23119072+22972298+22794124+22389818+21860000+21358514+20907372
3784.29+20605166+20655018+21075900+21634414+21990336+21730854+20593324+18950614
3779.15+17751314+17706384+18761564+20362558+21846018+22693130+22842014+22680916
3774.01+22572818+22615250+22768754+22674516+21544854+19034970+16229472+14992395
3768.87+16078367+18371214+20019598+19956508+18553602+17189172+17031614+18088560
3763.72+19504500+20537320+20958888+20728672+19693150+17863524+15970867+15239771
3758.58+16048480+17262580+17614280+17254422+17245674+18022098+18784868+17748122
3753.44+13124908+5447512-1146106-2761984-1152898-1188264-3502288-3837719+422696
3747.65+6920459+11782041+12207985+6482374-4093348-13029948-13116081-4738469
3742.51+5204301+11722159+14637149+15723281+16265273+16633691+16352582+14665953
3737.37+11650490+8319316+5666427+4439031+5294062+7705400+9371115+8511485
3732.23+6422065+6263955+9278461+13588192+16791576+18183050+18338336+17774844
3727.08+16663825+15368728+14609879+14839262+15626073+15973231+15356917+14386189
3721.94+14219530+15257959+16651654+17310218+17116362+16824312+17061988+17807832
3716.80+18640782+19078866+18871820+18172050+17053716+14867361+11014321+6650260
3711.66+4344377+5135926+7285957+8838083+9857185+11417355+13696982+15985277
3706.51+17719746+18772682+19239668+19363204+19260610+18602694+17006794+14881293
3701.37+13461241+13717866+15388095+17290714+18476126+18853130+18850644+18831952
3696.23+18880692+18809002+18340226+17570182+16965310+16475351+15261618+13075839
3691.09+11033883+9751554+7721281+3539529-868543-1440725+3093395+9637215
3685.94+14577889+16942850+17735354+17990170+18102514+18200906+18321658+18279316
3680.80+17790216+16846882+15861362+15291613+14909393+13392815+9187575+2466442
3675.66-3795852-5743726-2192294+4490235+10657202+13448618+11767894+7054397
3670.52+2772559+1593055+3294911+6355411+10096850+14133844+17427250+19171628
3665.37+19648884+19568880+19308062+19026806+18786762+18561290+18542604+19003262
3660.23+19662024+19935672+19754458+19103004+17207496+13675977+10127354+9060674
3655.09+11081842+14591227+17713594+19227004+18433784+15405218+10994527+6172857
3649.94+1864085-662630-438654+1990054+5125235+8272718+11763887+15615325
3644.80+18918078+20729858+21044870+20714108+20603980+20966348+21547460+22019606
3639.66+22156472+21867108+21361714+21139738+21534666+22319658+22844742+22541882
3634.52+21421298+20269742+20113946+21120314+22107768+21334586+17754036+11864792
3629.37+5899940+2863031+4366924+9300946+15076228+19741914+22694314+24220694
3624.23+24931286+25288158+25386796+25166146+24556674+23287318+21137014+18727846
3619.09+17378900+17740082+19228070+21020708+22711620+23930434+24329362+24031256
3613.95+23348738+22346914+21426984+21600178+23011304+24008956+23023988+20745962
3608.80+19322732+19807248+21502562+23469688+25469886+27481388+29169306+30081328
3603.66+30098460+29538250+28872842+28462414+28477986+28842522+29210216+29350200
3598.52+29548956+30166042+30849028+30820934+29966750+28997106+28583436+28854648
3593.38+29650064+30716554+31755160+32534476+32782876+32042888+30189246+27996442
3588.23+26543612+26152548+26554540+27786912+29986620+32569502+34496344+35320052
3583.09+35428140+35379464+35418716+35611284+36058540+36746908+37294968+37272520
3577.95+36863796+36761956+37227500+37793612+38122120+38468136+38991696+39363804
3572.81+39410544+39486584+39855912+40226508+40107872+39239240+37670224+35820100
3567.66+34355516+33695148+33802792+34564316+35933344+37598560+39021460+40013996
3562.52+40856172+41703972+42309208+42521012+42678476+43199440+43980544+44568988
3557.38+44817352+45013484+45358672+45684256+45759812+45554980+45128220+44602784
3552.24+44315852+44666192+45642880+46758284+47523644+47832056+47860388+47775984
3547.09+47648976+47611156+47906012+48611764+49429156+50027032+50495972+51131940
3541.95+51876872+52377296+52535428+52614980+52834032+53175904+53549024+53888008
3536.81+54132860+54281980+54438096+54738560+55245380+55862512+56381676+56709216
3531.67+56997356+57391956+57762132+57912252+57874596+57756456+57512236+57181076
3526.52+57097716+57534200+58306300+59027636+59573240+60064764+60514952+60733316
3521.38+60648480+60584920+61035352+62066276+63133808+63633964+63508944+63189224
3516.24+63134168+63578408+64473120+65445764+66021392+66075196+65915116+65829340
3511.10+65816852+65865928+66188272+66941096+67929040+68777320+69292744+69537464
3505.95+69701104+69973320+70367000+70646704+70642336+70624000+71030200+71818936
3500.81+72489424+72790592+72919248+73043040+73159800+73462776+74215600+75199176
3495.67+75866440+76137304+76461456+77025568+77477104+77545000+77484168+77755880
3490.52+78520112+79476304+80108776+80154304+79863848+79711432+79916320+80442856
3485.38+81237448+82165280+82879904+83084744+82850200+82511192+82356616+82500560
3480.24+82895664+83440480+84130368+84986400+85797632+86220336+86238584+86211760
3475.10+86393336+86727128+87099448+87408376+87503560+87441568+87639544+88356408
3469.95+89260384+89894904+90276784+90661176+91080256+91465432+91881984+92362120
3464.81+92778872+93013992+93045816+92899128+92719904+92753072+93044336+93405448
3459.67+93782704+94301792+94870792+95183160+95187832+95138648+95165216+95180944
3454.53+95177752+95262736+95480200+95847904+96399280+97043504+97605312+98042128
3449.38+98350320+98339720+97903568+97425656+97476504+98109264+98817736+99186800
3444.24+99293912+99482856+99944504+100526744+100906984+100928696+100722720
3439.74+100516640+100493200+100754296+101193672+101421904+101160232+100696936
3435.24+100658584+101297424+102225640+102857816+102923128+102588064+102282912
3430.74+102361792+102832264+103410176+103839152+104066208+104133792+104059048
3426.24+103829768+103432896+102929432+102548296+102577080+103044024+103615696
3421.74+103940816+103982944+103936128+103964048+104098576+104268592+104316032
3417.24+104140832+103886096+103762312+103709824+103514664+103279640+103397952
3412.74+103953552+104510784+104650416+104457888+104350008+104565768+104919848
3408.24+105018232+104763008+104535864+104723096+105185848+105512592+105570952
3403.74+105474752+105204264+104713088+104228688+104050032+104175184+104383392
3399.24+104476064+104264760+103644976+102876344+102544848+102981912+103829896
3394.74+104351504+104195584+103769352+103673752+103875848+103868792+103611008
3390.24+103622488+103975040+103978992+103250120+102379688+102107896+102371904
3385.74+102558552+102306360+101800952+101508888+101700880+102146024+102375480
3381.25+102233048+101939552+101741976+101817376+102283280+102912032+103155648
3376.75+102850656+102492632+102464616+102493000+102260936+102005696+102106896
3372.25+102501648+102857448+102989440+102890792+102611880+102251808+101923880
3367.75+101664728+101424120+101132976+100788344+100484192+100266304+99981728
3363.25+99485800+98977808+98806656+98959696+99114840+99201232+99392000+99559152
3358.10+99311040+98700936+98364856+98726568+99471264+100025880+100205272
3353.60+100181600+100090360+99919472+99703736+99639272+99920712+100450168
3349.10+100792152+100572624+99894328+99187680+98694656+98314848+97901848
3344.60+97458656+97081912+96951168+97246512+97882512+98427072+98513304+98221584
3339.46+97937448+97946928+98216672+98508744+98677160+98820832+98977560+98839424
3334.32+98166288+97342296+96982936+97141368+97444984+97803448+98315080+98696008
3329.18+98509728+97842112+97241216+97053224+97165992+97223120+96954992+96475704
3324.03+96242128+96536872+97139896+97677096+97977968+97955424+97586096+97129792
3318.89+96935056+96973824+96972720+96879040+96806168+96757304+96781424+97066272
3313.75+97609992+98194744+98774864+99370808+99621768+99141576+98271112+97754432
3308.61+97759616+97911576+98122200+98646120+99404952+99888040+99724944+98990248
3303.46+98049032+97357072+97232712+97625256+98209144+98705744+98976704+98946632
3298.32+98672240+98354384+98101368+97816752+97416296+96958928+96558160+96380200
3293.18+96624128+97210440+97675000+97696312+97503360+97465176+97591888+97718728
3288.04+97756528+97529208+96846056+95933048+95269624+94888264+94406400+93752592
3282.89+93205528+92772104+92203696+91627480+91528160+92045912+92718184+92940896
3277.75+92463192+91518096+90584488+89936000+89447624+88956312+88544184+88293904
3272.61+88119632+88045008+88218528+88433008+88142296+87219848+86229024+85645496
3267.47+85215704+84426712+83284000+82292360+81768616+81500136+81132432+80668816
3262.32+80370720+80260744+80028000+79483504+78796584+78113328+77261864+76116960
3257.18+75027032+74491720+74495856+74508032+74115456+73389792+72653928+72156824
3252.04+71969632+71925400+71698608+71194704+70762704+70737080+70890256+70692376
3246.90+70021520+69301856+68971248+69037744+69110568+68789576+68112448+67559488
3241.75+67432048+67407664+66994440+66238920+65601800+65261876+64978216+64559932
3236.61+64106036+63732720+63353680+62848028+62321712+62046080+62088412+62131704
3231.47+61813536+61165044+60551080+60213480+60121176+60232936+60624916+61209892
3226.32+61569544+61324248+60592532+59874372+59495336+59340752+59099596+58572592
3221.18+57785180+56994944+56494308+56265560+56071440+55989092+56394216+57187948
3216.04+57626504+57283856+56611168+56191648+56031292+55936048+55921100+55936416
3210.90+55796212+55641064+55855516+56334528+56424728+55776924+54784944+54033132
3205.75+53718812+53683768+53708696+53647644+53485208+53304364+53163264+53016276
3200.61+52810564+52596208+52480068+52475616+52443844+52209188+51747540+51229600
3195.47+50858724+50672348+50560412+50468204+50485156+50658888+50796920+50638928
3190.33+50222608+49906364+49976676+50338608+50629064+50551524+50135696+49729816
3185.18+49662156+49852404+49884252+49534900+49062464+48856688+48941012+49003720
3180.04+48855360+48652844+48621496+48689360+48604076+48362676+48288700+48599752
3174.90+49103312+49464244+49594860+49646416+49707940+49662640+49392988+49061864
3169.76+49037476+49416656+49785700+49691720+49266468+49092620+49481424+50127640
3164.61+50491044+50348948+49963092+49771396+49930288+50192436+50272968+50205172
3159.47+50175964+50163700+49984608+49650140+49463884+49661080+50073308+50293168
3154.33+50149040+49855768+49644972+49494284+49361628+49390584+49610724+49727168
3149.19+49503896+49132984+48903176+48743528+48420324+47983340+47691112+47620280
3144.04+47624000+47568540+47403964+47090460+46635888+46143400+45711596+45374860
3138.90+45205916+45300760+45532188+45534108+45115272+44537940+44194688+44174440
3133.76+44276780+44268396+44008348+43529456+43067204+42859660+42896664+42971632
3128.62+42920256+42729124+42561004+42654048+42991756+43158836+42821572+42163628
3123.47+41517388+40882496+40213948+39825060+39996900+40534020+41064704+41437332
3118.33+41576868+41370796+40910604+40467276+40151884+39898120+39695804+39559752
3113.19+39425132+39280364+39213180+39209240+39141816+38970532+38726732+38419988
3108.05+38156292+38116988+38207544+38041960+37463596+36807564+36503500+36646752
3102.90+36995964+37221648+37209348+37202780+37481156+37909364+38095840+37931100
3097.76+37638092+37395880+37254484+37260940+37339636+37259624+37000740+36857228
3092.62+36978660+37140928+37155972+37103192+37018300+36819860+36689844+37003492
3087.48+37678700+38069320+37772824+37145228+36753596+36678268+36658328+36613084
3082.33+36677912+36866180+36985936+36854004+36468404+35979768+35588256+35453672
3077.19+35650424+36126680+36640660+36867496+36722680+36461716+36325404+36242448
3072.05+36051492+35768788+35501396+35358228+35498292+35899332+36084672+35624880
3066.91+34858056+34491096+34558592+34493960+34166292+34052788+34396416+34862832
3061.76+35045560+34822280+34338344+33999132+34194064+34722692+34899208+34450316
3056.62+33848688+33550564+33446514+33273586+33083268+33056456+33207682+33432566
3051.48+33607304+33607900+33417552+33179676+33019638+32895358+32690902+32364252
3046.33+31978340+31663470+31532016+31602144+31889850+32479918+33312792+33983636
3041.19+34073772+33619100+33001526+32516366+32287894+32344116+32469314+32260260
3036.05+31668470+31198882+31240316+31528680+31594524+31423428+31360918+31620720
3030.91+32113160+32560092+32689830+32497190+32297420+32330538+32410224+32218928
3025.76+31816490+31556182+31585478+31714914+31735036+31660136+31650966+31817324
3020.62+32101846+32316364+32319578+32173546+32088866+32209878+32505766+32855322
3015.48+33142016+33271080+33203748+33014156+32817552+32641818+32461686+32344592
3010.34+32420712+32692690+33013442+33230204+33243074+33011296+32691500+32647416
3005.19+33080408+33720900+34074604+33949540+33591568+33360706+33404558+33660940
3000.05+34063040+34611540+35226284+35685980+35865924+35903872+35983228+36126920
2994.91+36314424+36585268+36907612+37171496+37362564+37498948+37489868+37371760
2989.77+37479248+38022492+38745372+39320528+39745552+40078932+40265376+40469068
2984.62+41041736+41941688+42694280+43058104+43257292+43516996+43827900+44128900
2979.48+44392792+44610100+44862908+45257352+45754896+46279200+46925680+47781988
2974.34+48700892+49486956+50120544+50636280+51048840+51504788+52173692+52950916
2969.20+53548540+53861032+54010372+54169960+54533748+55263340+56275448+57238376
2964.05+57876528+58153864+58180896+58110288+58071668+58076376+58091704+58208288
2958.91+58542892+58923072+58916552+58308840+57404740+56749856+56592588+56716084
2953.77+56754800+56576672+56281720+55939912+55531384+55083656+54714224+54515920
2948.63+54485680+54523744+54488936+54319440+54147916+54227412+54686272+55336368
2943.48+55781020+55798616+55621180+55646012+55887344+56003320+55919656+56003196
2938.34+56488876+57150072+57673320+57989848+58130692+58114156+58047780+58034980
2933.20+57989244+57801952+57623368+57698300+57992500+58208776+58165092+58002516
2928.06+58022192+58385848+58994308+59573000+59807212+59505848+58804144+58136724
2922.91+57825600+57783732+57742948+57543376+57033304+56100860+55050396+54480620
2917.77+54469180+54400388+53874160+53217676+52829824+52569008+52131576+51574680
2912.63+51150824+50900324+50591552+49998552+49191736+48507876+48128028+47816808
2907.49+47321860+46831720+46682804+46759720+46598096+46027048+45322580+44770476
2902.34+44425872+44307700+44488556+44852476+45033024+44804768+44414004+44329396
2897.20+44697600+45181572+45306872+44904744+44237596+43671544+43237648+42688172
2892.06+42010160+41570892+41597936+41872500+42108080+42256408+42320700+42297472
2886.91+42353384+42611176+42820260+42710084+42480300+42431812+42429776+42262752
2881.77+42154292+42377572+42758104+43025168+43228904+43427868+43409428+43041456
2876.63+42536576+42169016+42037692+42177040+42576804+43027568+43239084+43141468
2871.49+42888760+42596564+42247912+41859576+41524812+41198240+40642516+39792064
2866.34+38989660+38597672+38561460+38616788+38675584+38682640+38421180+37868148
2861.20+37434460+37459184+37746908+37908524+37864208+37754192+37655172+37577176
2856.06+37515552+37433024+37343216+37347752+37452492+37487364+37348232+37172928
2850.92+37146536+37252576+37283268+37033940+36469836+35739792+35059044+34649824
2845.77+34696456+35110216+35357512+34899328+33875984+33018564+32810286+33025594
2840.63+33132484+32896670+32524236+32358174+32453708+32516250+32328272+32019306
2835.49+31737654+31403302+31067934+31091742+31565710+31947728+31705984+31015078
2830.35+30473648+30395822+30625386+30821174+30747620+30434734+30140936+30092154
2825.20+30275276+30500304+30615628+30646688+30753808+30996152+31166620+31032102
2820.06+30684300+30436636+30417120+30486144+30485192+30382730+30250288+30219468
2814.92+30344650+30481982+30466272+30351554+30263258+30157594+30002206+29958304
2809.78+30090606+30122734+29840402+29506492+29525402+29895726+30309310+30621458
2804.63+30904854+31137098+31144360+30880928+30530536+30285272+30186154+30221490
2799.49+30431164+30802248+31184840+31400680+31361274+31062694+30590872+30130466
2794.35+29838142+29720132+29743806+29983764+30489950+31101504+31545826+31661324
2789.21+31438070+30974726+30487930+30234460+30325610+30664068+31057102+31338296
2784.06+31433904+31411278+31442000+31642870+31961304+32246560+32387118+32369726
2778.92+32217020+31963684+31730630+31747778+32123402+32627642+32901672+32916684
2773.78+32984126+33296700+33730552+34144708+34578504+35023140+35290708+35270184
2768.64+35133000+35114268+35221868+35305380+35323516+35398192+35629176+35983468
2763.49+36390820+36838360+37334020+37865044+38401580+38857120+39074764+39044764
2758.35+39103692+39644996+40585816+41390900+41709836+41727672+41771240+41878964
2753.21+41956412+42098504+42517660+43270348+44231124+45205672+45971148+46363776
2748.07+46492628+46699368+47191152+47837704+48441940+49004568+49599784+50200244
2742.92+50792708+51498892+52443484+53594180+54777596+55791392+56509744+57031736
2737.78+57677424+58681480+59934168+61148004+62223620+63304304+64508112+65733140
2732.64+66807268+67793680+69008128+70631768+72401168+73888296+75035064+76177384
2727.49+77566568+79144464+80806784+82630096+84746120+87106312+89460752+91560320
2722.35+93390080+95171968+97080312+99088336+101187872+103550600+106258016
2717.85+109056352+111635544+113994736+116339480+118805904+121480928+124454592
2713.35+127641272+130762016+133690536+136615904+139736464+143002240+146264848
2708.85+149506352+152850576+156454784+160399296+164580560+168767520+172793664
2704.35+176581424+180064928+183322016+186722528+190594032+194754832+198758864
2699.85+202568448+206603424+211101440+215777536+220197136+224267968+228264720
2695.35+232455728+236787424+241046304+245310208+249911328+254811776+259416480
2690.85+263356816+267085152+271304416+276104800+281048960+285835968+290513088
2686.35+295189088+299819456+304258208+308442752+312579424+317045824+321940416
2681.85+326877408+331443840+335726976+340136512+344840192+349628640+354277216
2677.35+358763520+363148224+367478272+371857920+376424224+381165952+385914464
2672.85+390567136+395168224+399718688+404092544+408243232+412365056+416729952
2668.36+421444768+426384096+431295936+435968000+440331616+444430656+448359008
2663.86+452307552+456535136+461096096+465716480+470141248+474477312+478988672
2659.36+483704128+488396096+492846464+497051936+501263968+505790464+510600000
2654.86+515237568+519300416+522888800+526483168+530524416+535166240+540192832
2650.36+545164800+549825664+554315072+558834176+563325632+567659200+571847680
2645.86+575893888+579748800+583598016+587837312+592573952+597424512+601941760
2641.36+606059456+610093632+614419136+619147648+624041536+628776064+633258240
2636.86+637622784+641995520+646372992+650659392+654776000+658814976+663006272
2632.36+667396160+671733376+675899264+680198912+684934144+689908288+694656768
2627.86+698951360+702836672+706425856+709920064+713585216+717508224+721550464
2623.36+725632576+729827264+734127424+738394048+742593472+746837760+751133184
2618.86+755313088+759286848+763171392+767121344+771178816+775299392+779398464
2614.36+783359936+787129600+790794944+794509824+798362816+802348864+806384256
2609.86+810341568+814161088+817933632+821738048+825464768+828985408+832408000
2605.36+835931200+839532288+843101696+846766336+850725440+854775936+858398976
2600.86+861397696+864155264+867134720+870377664+873619776+876716160+879759168
2596.36+882854784+885984320+889089344+892162944+895219520+898246912+901206528
2591.86+904019328+906609408+909052224+911610176+914471552+917509248+920434688
2587.36+923147072+925732928+928189184+930402176+932448384+934663744+937284416
2582.86+940175232+942980800+945421248+947439680+949232384+951150144+953373760
2578.36+955711488+957916480+960061696+962287872+964389632+966094720+967607104
2573.86+969369536+971386496+973288768+974957952+976622720+978400192+980164992
2569.36+981803200+983300864+984670080+985978496+987318528+988681472+990042560
2564.86+991540224+993304960+995162560+996779264+998074880+999281728+1000613888
2560.36+1002058816+1003461824+1004714304+1005841536+1006927744+1008006592
2556.50+1009108928+1010340224+1011699008+1012941888+1013898880+1014800960
2552.65+1015972416+1017305216+1018416640+1019237568+1020090368+1021208000
2548.79+1022472192+1023637184+1024615360+1025493568+1026378944+1027279744
2544.93+1028162880+1029044544+1029949312+1030819712+1031597120+1032334144
2541.08+1033111808+1033933440+1034797504+1035726016+1036633280+1037373440
2537.22+1037980288+1038642240+1039430528+1040305728+1041306688+1042428544
2533.36+1043442432+1044203136+1044942336+1045915904+1046982464+1047898688
2529.51+1048718976+1049531584+1050145920+1050500224+1051028352+1052154112
2525.65+1053652224+1054928128+1055743552+1056300800+1056808960+1057354048
2521.79+1058056768+1059013760+1060099904+1061061888+1061799104+1062382400
2517.93+1062835008+1063116160+1063317696+1063708224+1064495040+1065613696
2514.08+1066774400+1067652800+1068115776+1068332544+1068673728+1069366592
2510.22+1070224896+1070795840+1070829056+1070581248+1070571392+1071037312
2506.36+1071713344+1072190656+1072378496+1072462336+1072546560+1072567936
2502.51+1072539584+1072635776+1072965056+1073405184+1073715904+1073741824
2498.65+1073522944+1073236096+1073035008+1072904960+1072688960+1072240576
2494.79+1071556160+1070794752+1070182464+1069801344+1069482240+1068985088
2490.94+1068259648+1067431808+1066596480+1065750592+1064869376+1063974912
2487.08+1063156352+1062528960+1062054528+1061468480+1060552256+1059389056
2483.22+1058150336+1056777856+1055170048+1053537536+1052199040+1051091520
2479.37+1049838528+1048299520+1046739072+1045403008+1044184512+1042794944
2475.51+1041074304+1039047040+1036814656+1034530304+1032387584+1030509248
2471.65+1028871936+1027383360+1025947840+1024408256+1022568064+1020417152
2467.79+1018203456+1016138752+1014139584+1012002112+1009704000+1007371392
2463.94+1005068544+1002768960+1000485504+998304384+996296000+994427520
2460.08+992534336+990437568+988164736+985944192+983878144+981774976+979477824
2455.58+977190336+975189824+973374848+971447936+969437696+967617856+965930624
2451.08+963971136+961627648+959311296+957393472+955764864+954113664+952311360
2446.58+950389568+948383872+946373120+944510144+942923968+941624704+940467456
2442.08+939192448+937656448+936015168+934486592+933001088+931368832+929701120
2437.58+928279360+927095040+925892544+924594880+923342336+922210944+921204224
2433.08+920351104+919552000+918537152+917245376+916006528+915100736+914362496
2428.58+913443776+912303360+911224576+910414848+909731008+908842496+907650176
2424.08+906465152+905661696+905214272+904753984+904043456+903196736+902433152
2419.58+901809472+901246336+900683008+900105600+899479616+898745280+897904448
2415.08+897055296+896284928+895576576+894863936+894119808+893336768+892509568
2410.58+891681664+890928832+890264640+889621952+888900096+887963776+886750016
2406.08+885474944+884528064+883974336+883397376+882438784+881251648+880200768
2401.58+879339392+878436544+877326464+875999744+874477376+872819648+871222720
2397.08+869944448+869063168+868334784+867323840+865758720+863795776+861906752
2392.58+860473216+859492032+858644992+857608960+856261568+854645312+852819456
2388.08+850852992+848902784+847143296+845553024+843902528+842020096+839996992
2383.58+838030400+836141696+834193856+832150080+830129856+828157376+826077568
2379.09+823839808+821661696+819711488+817789120+815560832+813003584+810425472
2374.59+808089280+805946880+803727296+801203904+798394688+795520448+792768832
2370.09+790139584+787528704+784901760+782357504+780018176+777818880+775471104
2365.59+772769344+769879808+767131264+764598144+762105856+759517504+756791168
2361.09+753936192+751150144+748755008+746745472+744684544+742273408+739720576
2356.59+737361664+735234176+733201088+731255040+729526592+728084544+726757440
2352.09+725184256+723179072+720956160+718794880+716623552+714204864+711539840
2347.59+708754432+705820032+702688448+699515712+696503936+693702656+691084096
2343.09+688586368+686048000+683347008+680583808+677897664+675205440+672366080
2338.59+669485248+666840448+664560640+662483328+660305216+657871680+655329408
2334.09+652922816+650650880+648307584+645844032+643435200+641150336+638840768
2329.59+636421120+634027072+631773440+629542144+627171456+624746304+622498304
2325.09+620430720+618298368+616025344+613861120+611942592+609998208+607726400
2320.59+605195648+602644416+600153600+597747776+595556928+593637376+591822016
2316.09+589878144+587688064+585263040+582758400+580440192+578444352+576592896
2311.59+574552448+572126528+569388480+566632576+564183424+562111616+560178304
2307.09+558126080+555912000+553601024+551226688+548846912+546550336+544347712
2302.59+542183424+540041280+537898240+535652864+533278304+530925984+528729568
2298.09+526623584+524488000+522314912+520115840+517832288+515480640+513224512
2293.59+511151424+509100000+506846592+504361952+501780224+499228896+496838752
2289.09+494766336+492980160+491153664+489024128+486741344+484600352+482571360
2284.59+480411168+478093056+475786656+473544832+471336544+469239392+467290048
2280.09+465306240+463115904+460782368+458439680+456125344+453897568+451843904
2275.59+449910304+447997408+446186720+444569504+442911296+440857120+438419968
2271.09+435974880+433826624+431992384+430298240+428504416+426457184+424240928
2266.59+422114976+420263552+418644288+417030592+415157056+412977344+410784896
2262.09+408876768+407121440+405140512+402914112+400814592+399038016+397383040
2257.59+395642912+393845504+392027968+390113696+388084000+386039392+384050112
2253.09+382128192+380310528+378577920+376772032+374783328+372745088+370856704
2248.59+369134912+367489408+365905696+364377248+362791616+361042880+359157376
2244.09+357239520+355412672+353812128+352424992+350984128+349256192+347370176
2239.59+345584544+343862816+341995680+340013696+338129312+336377856+334646560
2235.09+332938976+331348448+329872832+328444288+327009120+325477568+323763712
2230.59+321954656+320255584+318757120+317385088+316025696+314567168+312941152
2226.09+311265376+309764512+308430304+306951488+305120128+303134624+301364352
2221.59+299964416+298820800+297738304+296575552+295269024+293817632+292266144
2217.09+290699296+289233824+287958464+286817504+285595456+284106400+282414688
2212.59+280784704+279380448+278115520+276848064+275564384+274268640+272872800
2208.09+271353632+269873152+268592704+267474048+266376976+265205136+263904816
2203.59+262462208+260975152+259554192+258152192+256658240+255139392+253795040
2199.09+252669984+251598192+250436736+249220768+248071184+247020368+245970352
2194.60+244816176+243589344+242432880+241397632+240356176+239165648+237836912
2190.10+236488624+235210048+234027456+232959840+232018720+231145888+230198112
2185.60+229073984+227857312+226729680+225729600+224693776+223483520+222154624
2181.10+220876288+219781440+218893872+218082240+217135904+216000896+214860144
2176.60+213859184+212883776+211764928+210564544+209474656+208539744+207626896
2172.10+206607072+205488816+204423440+203555872+202821632+201977264+200928320
2167.60+199885408+199071328+198414848+197663344+196685696+195573296+194544224
2163.10+193748784+193084624+192261104+191127200+189823952+188563632+187450944
2158.60+186568832+185957568+185427248+184668576+183642832+182615584+181746704
2154.10+180917264+180023696+179172768+178482176+177863840+177124368+176218800
2149.60+175320464+174610640+174035968+173376896+172566480+171791504+171197504
2145.10+170652480+169935008+169028272+168087744+167212016+166387888+165621504
2140.60+164948176+164301936+163535584+162635504+161793712+161153248+160607808
2136.10+159965328+159216400+158509680+157952048+157520128+157065696+156377008
2131.60+155398288+154408608+153770272+153476080+153155184+152552608+151775648
2127.10+151043008+150417776+149828416+149198256+148496656+147727072+146929296
2122.60+146185840+145597984+145185552+144809520+144286400+143586928+142856064
2118.10+142247680+141805056+141447424+141022512+140452192+139843024+139322096
2113.60+138818016+138184864+137493968+136962096+136642144+136386672+136051136
2109.10+135562096+134903872+134186880+133604504+133190552+132778816+132259632
2104.60+131691720+131117080+130465104+129703824+128923184+128232792+127690792
2100.10+127319832+127088840+126885088+126572272+126072712+125405416+124701640
2095.60+124152752+123840248+123634856+123355976+122976360+122572008+122133568
2091.10+121595224+121007840+120506576+120113568+119725232+119296384+118888304
2086.60+118531944+118186600+117813832+117376952+116826496+116210816+115683568
2082.10+115276472+114805864+114171064+113575712+113233088+113014656+112612080
2077.60+111965712+111355640+111080632+111146592+111241200+111019504+110439480
2073.10+109772376+109237072+108778552+108289816+107850576+107570848+107366272
2068.60+107090336+106753672+106438224+106102184+105663440+105184856+104790072
2064.10+104438360+103963176+103328664+102700528+102249464+101987304+101831328
2059.60+101723216+101644616+101543680+101337640+100982472+100539200+100112672
2055.10+99735544+99343088+98907080+98501600+98196960+97921680+97527488+96952528
2049.96+96279416+95678128+95314768+95245272+95338632+95368640+95217600+94920728
2044.82+94511768+93947400+93232936+92514544+91967072+91632880+91418040+91210120
2039.68+90989568+90814816+90692840+90483640+90042472+89454000+88967592+88656088
2034.53+88333120+87877736+87435336+87176856+87048864+86898584+86698968+86519200
2029.39+86412928+86402392+86444392+86382192+86097784+85676464+85261840+84829184
2024.25+84324712+83924920+83852160+83986552+83952800+83597224+83140488+82810600
2019.10+82523776+82034664+81336000+80769664+80641600+80821800+80873928+80552856
2013.96+79991624+79452392+79103608+78979792+78936120+78727552+78323040+78012008
2008.82+77992264+78057488+77900216+77521352+77128536+76832312+76625304+76477896
2003.68+76335120+76151808+75977880+75881656+75825880+75712512+75497704+75199048
1998.53+74868296+74569856+74309664+74028584+73728568+73474088+73197624+72686520
1993.39+71885648+71073568+70633712+70706840+71046480+71202968+70935328+70458816
1988.25+70166984+70185936+70375496+70623392+70834856+70792840+70379744+69835392
1983.11+69530184+69573512+69796656+69953280+69823976+69326368+68635352+68065632
1977.96+67786400+67749776+67831160+67937288+68017344+68056648+68051432+67987624
1972.82+67850928+67637592+67354072+67047064+66756840+66400116+65826064+65056220
1967.68+64331336+63894320+63854612+64203612+64726072+65034292+64933284+64637192
1962.54+64436312+64354704+64273948+64136656+63907624+63623548+63512444+63752092
1957.39+64122976+64218748+63953024+63552628+63176636+62827212+62539180+62384360
1952.25+62343596+62333076+62298844+62226880+62119132+62003396+61890688+61701336
1947.11+61308900+60741536+60262300+60096532+60053284+59654048+58788084+58019416
1941.97+57991528+58676164+59475048+59946248+60132416+60263624+60389280+60376712
1936.82+60153560+59857580+59719752+59805636+59951204+59957484+59783168+59501256
1931.68+59183404+58906288+58773596+58802936+58847004+58739792+58495456+58254640
1926.54+58088332+57973796+57844068+57553628+56979868+56297636+55923636+56045156
1921.40+56476340+56963704+57136920+56318256+54293668+52321332+52244688+54193804
1916.25+56294136+57035468+56759988+56539652+56684972+56879636+56939940+56869140
1911.11+56636608+56296672+56066860+56108456+56379388+56721156+56947056+56892780
1905.97+56506488+55934480+55475816+55378912+55613468+55907960+56072524+56161740
1900.83+56259896+56301012+56188028+55934600+55660712+55551748+55685912+55814532
1895.68+55581164+55089320+54870980+55158732+55614792+55847808+55685068+54938816
1890.54+53569972+52179108+51708080+52451668+53760716+54790724+55180180+55061844
1885.40+54778804+54618928+54673740+54892184+55204532+55506916+55628172+55455568
1880.26+55066664+54684944+54526040+54643868+54893988+55118120+55327932+55586828
1875.11+55806216+55867460+55825620+55798380+55780056+55609972+54911820+53226468
1869.97+50699880+48514236+47949720+49032188+50741488+52302080+53534936+54315472
1864.83+54521220+54414728+54475440+54842904+55258032+55469908+55499564+55533792
1859.68+55658304+55769088+55814652+55954620+56256760+56460784+56337428+56050824
1854.54+55904220+55950276+56067340+56152584+56128584+55994280+55862148+55746304
1849.40+55450628+54865308+54248972+54024828+54147680+53603088+51018176+46592096
1844.26+43145540+43701132+47719200+51761132+53717128+54249696+54598200+54952668
1839.11+55120288+55187176+55173800+55036060+55010512+55275144+55545604+55476176
1833.97+55129568+54809288+54644704+54278004+52947424+50466040+48151804+47873960
1828.83+49933044+52807192+54811816+55038708+53400568+50990396+49798916+50852592
1823.69+53124020+55035936+56105200+56618524+56777120+56712708+56588976+56333328
1818.54+55800788+55183316+54807480+54717716+54813020+55083412+55434356+55633476
1813.40+55569708+55232724+54483512+53314476+52290172+52212436+53169284+54326544
1808.26+54874228+54904472+55042684+55459300+55735572+55628300+55323836+54901220
1803.12+54198144+53309420+52550832+51876748+51035496+50303748+50340168+51256536
1797.97+52417372+53158936+53333380+53308816+53495924+53444268+51723600+47723408
1792.83+43414932+41929356+44012184+47518720+50477340+52608964+54046144+54634344
1787.69+54637836+54529172+54013984+52656024+51224064+51006748+52012340+53129196
1782.55+53598876+53310624+52425672+51587188+51632420+52511244+53390568+53893672
1777.40+54084204+53678348+52673348+51961204+51585864+49493440+44215900+38026428
1772.26+35334724+37839484+43148056+47857988+49899876+48977892+46809404+46223776
1767.12+48425608+51713372+53813704+54348952+54261984+53746388+51886856+48470764
1761.98+45375104+45179896+48159248+51824056+53825624+53867896+52631468+50653592
1756.83+49035676+49371844+51670188+54005188+55048828+54933512+53290036+49194980
1751.69+44034232+41631688+43558928+46917400+48647440+49028224+49820192+51410972
1746.55+53044088+54247532+54909656+54917124+54487492+54410024+55345648+56622500
1741.41+56186340+52814892+48493460+47112420+49894344+54068664+56799672+57387976
1736.26+55132704+48431372+37851544+28393462+26210614+32486114+42471920+50477580
1731.12+53950996+53959544+53375636+54178392+56075536+57683460+58325740+58342756
1725.98+58244748+58111736+57778784+57322580+57148260+57565088+58402988+59107568
1720.84+59064460+57613352+53829356+47068616+38766172+33314582+34563960+40705916
1715.69+46224616+48794460+50745452+54222840+58101964+60560264+61546328+61655388
1710.55+61123828+60637360+61051308+61876780+61720320+60202004+58305456+57189276
1705.41+57323060+58405764+60016436+62232812+64287024+62762736+54094560+40442396
1700.26+31331986+35111764+48837704+62217688+67674816+63621740+54388704+49133584
1695.12+54808800+68052280+80022496+86711336+90091288+92781448+95071000+96798416
1689.98+98918408+102006928+105468704+109083848+112966136+115120536+111921440
1685.48+102987712+94426440+94491968+104619776+118712912+130844040+139039488
1680.98+143998768+147457536+151098288+155648112+160823104+165671584+168453472
1676.48+167550896+164173552+163280672+169059952+179423072+188341552+192809296
1671.98+194669968+196513472+198156000+198506112+199161584+203466480+212006000
1667.48+221591984+229153776+234461344+238831776+242663792+245082032+245853088
1662.98+246967872+251270736+259061536+267527264+274223776+279340480+284114368
1658.48+288866752+293368512+297516352+300758112+301901888+299628960+292644416
1653.98+281022496+269803968+269062528+283759136+305841056+323756864+333054048
1649.48+335542400+334588640+332517632+330127392+327546016+326207520+329125600
1644.98+337073184+346094336+351724736+353641536+354248864+354762080+354903680
1640.48+354873056+354868576+353884672+351140352+347077152+341255520+331961856
1635.98+320508672+313243680+314754496+321028288+324731200+323413024+319182976
1631.48+314150144+308732832+302683392+295510208+286732896+277007648+268163168
1626.98+261352768+255844080+249754880+241416448+230721552+219940624+212203984
1622.48+208264976+205900576+202758880+198333168+193347168+188095264+181187952
1617.98+170445200+156638896+145916512+144623712+150809552+156720240+158242496
1613.48+156775952+154675568+152624784+150750464+149298000+148018400+146563024
1608.98+145146320+143946704+142743520+141628368+141026160+140851312+140597040
1604.48+140071264+139315312+138342768+137473104+137188384+137378480+137508928
1599.98+137453632+137327344+136947904+136267488+135741488+135567840+135326832
1595.48+134872992+134671568+134938112+135376672+135858272+136464672+137003184
1590.99+137267408+137481296+137909712+138527952+139371664+140532864+141749280
1586.49+142761184+143822640+145122704+146262464+146995584+147665712+148440800
1581.99+149163088+150105120+151610448+153232208+154440304+155110800+153896864
1577.49+148267184+138830976+132244832+135417088+146378352+156991296+162732752
1572.99+164907136+166131840+166574096+164726576+160624080+157144256+157509840
1568.49+161730720+166905200+170503584+171828336+171357552+170254800+169909968
1563.99+170834608+172282368+172856864+170479168+162733392+149514336+135203968
1559.49+125674712+122944064+125957656+134356384+146309040+156019616+158404896
1554.99+154479088+150391216+151149056+155995408+160658304+162066768+160229584
1550.49+157391008+155912064+156387792+157673104+158370224+157595024+154704976
1545.99+149744176+144527872+141513904+140282656+137202192+130272912+122162992
1541.49+116213440+111148320+103999008+97132752+97326904+106387752+117958152
1536.99+125382448+127137328+124888168+120143824+114032240+108918504+107636944
1532.49+110255296+113713384+115497272+115603768+114679272+112641496+109975472
1527.99+108075632+107060256+105379560+102692128+100979144+101622904+103001048
1523.49+102086416+97272496+89642248+82926960+81695688+87427856+96358920
1518.99+102610776+103223688+100217360+98253256+99799776+103306064+106384416
1514.49+108199680+108348992+106405576+103495400+101864640+101932264+101905856
1509.99+100504184+97662208+92839544+85178744+75702032+68021472+66324116
1505.49+72262584+83260528+94226432+101362808+104224352+104676248+104667344
1500.99+104741752+104018288+101854512+99578496+99065432+99338152+97645568
1496.49+94671600+95008520+100584096+107566888+112031592+113978472+114650728
1491.99+113727528+110892800+108007408+107763184+110672512+114585872+117279312
1487.49+118873992+121300208+125507320+130208416+133839672+136396736+138641120
1482.99+140720896+142432224+144061168+146172848+148964912+152242912+155662816
1478.49+158616640+160307776+160664528+161113184+163346624+166799728+168723376
1473.99+167583184+165254272+165256192+169473984+177107296+185808544+193109696
1469.49+197763232+200363856+202331280+204232304+205332192+204557472+202027008
1464.99+200064128+201643312+206700016+211828752+214708256+216257248+217649984
1460.49+218100832+216843200+214278048+209870032+202460128+194590656+192928592
1455.99+200605200+212503184+221864816+226744784+228724992+229354688+229256080
1451.49+229006832+229206944+229707088+229548656+228080896+226057792+225222448
1446.99+226467728+228836608+230712864+231433104+231350864+230881648+230137648
1442.49+229334016+228810416+228397264+227464624+225888896+223933600+220639904
1437.99+214085840+204850160+197810400+197454208+201884432+205428160+205448224
1433.49+203259360+200579472+197738736+194562192+190967200+187057056+183623296
1428.99+181588240+180438256+178706256+176101024+173424656+170685184+167254880
1424.49+163525904+160506096+158312576+156555792+154930256+152004752+145610736
1419.99+136482384+129651384+129278048+133364856+136978192+138156832+138061808
1415.49+137856288+137663488+137454512+137232096+136770528+136035056+135392368
1410.99+134987568+134532160+133973624+133737456+134078256+134603184+134567440
1406.50+133439464+131391424+129530728+129205336+130547632+132157608+132743344
1402.00+132369928+131487504+129659896+126434544+122852624+120652096+120105224
1397.50+119868696+118664496+116019256+112105400+108067712+105819608+106194560
1393.00+107861728+108925184+108735456+107713184+106371552+104831728+102623616
1388.50+99126784+94919000+92077096+91981448+93551056+94807960+95124136+94958728
1383.35+94563032+93955888+93374960+92933160+92388400+91640736+90955080+90580192
1378.21+90570008+90821440+90950296+90437128+89190984+87745160+86822040+86922344
1373.07+88133720+90021120+91943136+93608072+94946680+95603824+95293976+94597336
1367.93+94488528+95034728+95408248+95102608+94280640+93098264+91577144+90102824
1362.78+89261008+89173696+89563152+90281816+91255776+92144880+92557408+92448344
1357.64+92020608+91435976+90843288+90450384+90325240+90267328+90030328+89580072
1352.50+89047904+88549456+88128456+87805936+87596432+87490448+87472080+87550232
1347.36+87692352+87771136+87708520+87648984+87821616+88206280+88522608+88501528
1342.21+87975272+86854008+85362672+84180632+83943384+84580232+85454568+86028128
1337.07+86154464+85923456+85583448+85476600+85747080+86150800+86303464+86079064
1331.93+85677800+85389720+85334520+85410272+85463872+85481376+85555656+85686376
1326.79+85706328+85462776+85072288+84906504+85174952+85570224+85608168+85292544
1321.64+85045992+84966088+84662432+83956712+83211624+82771488+82549440+82355272
1316.50+82227592+82241144+82288312+82218184+82045800+81933768+82020864+82268032
1311.36+82456080+82379960+82020744+81535440+81163936+81127304+81463496+81937680
1306.21+82210608+82141704+81913856+81866336+82165152+82611032+82875128+82911304
1301.07+82938072+83040992+83108960+83143672+83252832+83346592+83281176+83257840
1295.93+83625832+84333032+84974272+85341856+85576344+85856144+86234296+86696520
1290.79+87167792+87534312+87801896+88138008+88674104+89363512+90064680+90658600
1285.64+91062352+91240072+91307336+91556640+92251728+93353840+94517672+95398896
1280.50+95943624+96377488+96973088+97808496+98714120+99498504+100213528
1276.00+101077336+102157136+103300136+104375344+105395144+106409400+107462800
1271.50+108643192+110010040+111491192+112959552+114380696+115825616+117374832
1267.00+119053872+120811968+122584720+124377184+126235128+128113096+129871176
1262.50+131484248+133198832+135391600+138192768+141295312+144255232+146963520
1258.00+149658960+152510688+155445184+158395248+161454576+164731680+168253168
1253.50+172000080+175861776+179638368+183261040+186908992+190748336+194679264
1249.00+198476800+202103888+205780224+209767808+214122032+218658624+223218480
1244.50+227901952+232948880+238419536+244109872+249751376+255221408+260602528
1240.00+266062096+271638272+277202336+282715456+288392768+294451904+300795552
1235.50+307089184+313126336+319018112+325046912+331382304+337947424+344517248
1231.00+350877728+356908608+362700064+368597056+374912896+381492576+387806016
1226.50+393554144+398974688+404524352+410462368+416699264+422875712+428629600
1222.01+433918112+438974496+443930976+448686848+453144736+457328128+461257440
1217.51+464953504+468563968+472285888+476099680+479654208+482497664+484518208
1213.01+486143040+487913632+489860704+491546464+492663680+493269408+493480256
1208.51+493320768+492846752+492086592+490906368+489233856+487281184+485281184
1204.01+483118240+480465120+477179584+473410208+469386784+465249536+461027552
1199.51+456661216+452043296+447072096+441712128+436026656+430141184+424166944
1195.01+418184608+412252448+406371360+400454880+394399200+388194080+381942368
1190.51+375767488+369723040+363830240+358159200+352734784+347377152+341853984
1186.01+336235072+330852000+325851104+321089792+316485536+312112256+307936160
1181.51+303801888+299715072+295815520+292111200+288535520+285197408+282263584
1177.01+279632096+276977824+274157120+271395616+268987296+266927456+264972224
1172.51+262996752+261035904+259044800+256974976+255069760+253644144+252598304
1168.01+251597504+250581392+249605712+248473888+247107232+245941376+245370464
1163.51+245179728+244990992+244747168+244400976+243763392+242953744+242361184
1159.01+241998688+241567232+241131632+240992800+241000496+240764208+240428496
1154.51+240534144+241187136+241958384+242519712+242978800+243664560+244845120
1150.01+246536656+248438368+250189728+251776384+253533472+255661648+257931168
1145.51+260028672+262076704+264526464+267540384+270804480+274051648+277438880
1141.01+281211904+285271232+289294464+293130784+296920608+300934848+305347040
1136.51+310089088+314967360+319927552+325069472+330447872+336099232+342164256
1132.01+348683872+355416032+362194080+369254848+376856768+384832640+392882240
1127.51+401010720+409343072+417827616+426408448+435187392+444195776+453341696
1123.01+462667264+472312576+482191136+492106720+502171456+512704512+523640896
1118.51+534431136+544681280+554643456+564885952+575638400+586675904+597765632
1114.01+608876672+619857408+630293184+639957120+649190144+658628736+668657344
1109.51+679142528+689498176+699091136+707832448+716247552+724738880+733051584
1105.01+740762368+747967168+755129600+762463936+769739200+776590912+782916352
1100.51+789007616+795175552+801243712+806705856+811472512+816086080+821097088
1096.01+826556736+832091520+837163584+841369600+844810304+848108288+851822720
1091.51+856025600+860504000+865060736+869482880+873473024+876810112+879510080
1087.01+881817280+884043776+886400128+888947776+891599360+893970816+895441600
1082.51+895794432+895665280+895897728+896577984+897061888+896645824+894845632
1078.01+891517696+887192896+882799872+878642560+874174016+868984704+863320384
1073.51+857413888+851038528+844027584+836608384+828967808+820947776+812304832
1069.01+802857280+792328320+780482688+767581632+754388160+741534016+729043072
1064.51+716536000+703666368+690261632+676354560+662256384+648354496+634711424
1060.01+621134144+607626880+594374848+581358336+568472128+555907968+543842048
1055.51+531940992+519826912+507801408+496440512+485688544+475036768+464408384
1051.01+454254624+444809088+435693056+426358048+416764032+407441024+398803616
1046.51+390592288+382342400+374177184+366574816+359492736+352382048+345037536
1042.01+337841280+331198944+325167616+319589344+314245440+308980032+303832960
1037.52+298939776+294280416+289706144+285102048+280361568+275424352+270515936
1033.02+266069600+262208960+258637808+255137632+251822560+248850864+246252832
1028.52+244072736+242311728+240689232+238770384+236369664+233719952+231298256
1024.02+229530736+228496880+227841024+227063936+225943328+224627344+223397152
1019.52+222471184+221993520+222051616+222597568+223314432+223714992+223605760
1015.02+223416304+223805440+224964544+226532288+228093648+229438848+230490176
1010.52+231430592+232850352+235366016+239018480+243266560+247551216+251750800
1006.02+256216080+261475552+267796704+274988160+282697440+290811168+299446208
1001.52+308669088+318405632+328543008+338988032+349712192+360798880+372378368
997.02+384508448+397162144+410266688+423657120+437061792+450223904+463034240
992.52+475453248+487279808+498064256+507322624+514787392+520318336+523682304
988.02+524639648+523186688+519432320+513360480+505037024+494918944+483583200
983.52+471265248+457979136+443937152+429576000+415312320+401440832+388080480
979.02+375106080+362331168+349806304+337789920+326439360+315682368+305358816
974.52+295405184+285936416+277133248+269015072+261444496+254399376+248012816
970.02+242252080+236794448+231350720+225942800+220784112+216056880+211859312
965.52+208270848+205323856+202805664+200224640+197271408+194293264+191951264
961.02+190406208+189220592+188014544+186764784+185495120+184189152+183021312
956.52+182239920+181797744+181354112+180639904+179671344+178699440+178033936
952.02+177816256+177927088+178113216+178187232+178131168+178081392+178148880
947.52+178240080+178185568+178019568+177911296+177882800+177841920+177764560
943.02+177600512+177228368+176748080+176534256+176806784+177403792+178050352
938.52+178550736+178747200+178631040+178428688+178356720+178432160+178603088
934.02+178816080+179001152+179295984+180115904+181544160+182882304+183308400
929.52+182844096+182291216+182341088+183007040+183818352+184382864+184761776
925.02+185275696+186004192+186701408+187167648+187414960+187529568+187680896
920.52+188149936+189043968+190094352+190965520+191577664+191978896+192220000
916.02+192502096+193104512+193981552+194700624+194954992+194963648+195213648
911.52+195916064+196826480+197587520+198137872+198653088+199153536+199432352
907.02+199468400+199654640+200377600+201506096+202502352+202998576+203084192
902.52+203067952+203148656+203360960+203722128+204278080+205005472+205697088
898.02+206061520+206039536+205969152+206263344+206896576+207391712+207384160
893.52+207013088+206639488+206351584+205948032+205345824+204819376+204745904
889.02+205183632+205775920+206045664+205752880+205022752+204265712+203883152
884.52+203913952+203991552+203756944+203262848+202876976+202857616+203095760
880.02+203198032+202815664+201982736+201092256+200474016+200154320+200059632
875.52+200189856+200426768+200446384+199981008+199023248+197733296+196346304
871.02+195109472+194128352+193353904+192830224+192682256+192748560+192614544
866.52+192176336+191795984+191738736+191843504+191833712+191582464+191048544
862.02+190338816+189718128+189202560+188451328+187488032+187002672+187350512
857.52+187927920+188232608+188658432+189335552+189270896+187856752+186204224
853.03+185704624+186181296+186674080+187077040+187871312+189102816+190439904
848.53+191519152+191941200+191633104+191029312+190305008+189189248+188126992
844.03+188145936+188996752+189198768+188494768+188465616+190159392+192818736
839.53+195144432+196356272+196101072+194697632+193372384+193228784+193967456
835.03+194323920+193651136+192475088+191471632+190553888+189271168+187643648
830.53+186013984+184578080+183653392+183723920+184427888+184266512+182320384
826.03+179680224+178329776+178928640+180271024+180609344+179223344+176806928
821.53+174480896+172749392+171679488+171408688+171677696+171521456+170326736
817.03+168610624+167158288+166249920+166026400+166308080+165951056+163924256
812.53+161051616+159126704+158551360+158426112+158427632+158901696+159543616
808.03+159477504+158419504+156903616+155740192+155585696+156452752+157419056
803.53+157534080+156931520+156468240+156468624+156538512+156447440
##END=
