##TITLE=octarelline 6 front
##JCAMP-DX=4.24
##DATA TYPE=INFRARED SPECTRUM
##DATE=31/1/2005
##TIME=16:54:5
##SAMPLING PROCEDURE=film
##ORIGIN=Vincent
##DATA PROCESSING=no operation
##XUNITS=1/CM
##YUNITS=ABSORBANCE
##RESOLUTION=2
##FIRSTX=4000.283
##LASTX=800.31372
##DELTAX=-0.64282227
##MAXY=0.23281592
##MINY=-0.0020142205
##XFACTOR=1
##YFACTOR=2.1682672e-010
##NPOINTS=4979
##FIRSTY=0.0037610319
##XYDATA=(X++(Y..Y))
4000.28+17345795+17637846+17145784+16454017+16017120+15688125+15320328+15157446
3995.14+15248148+15129539+14617887+14282149+14608747+15228662+15458681+15170438
3990.00+14759078+14656491+15016588+15563234+15757434+15415490+14964506+14840140
3984.86+15005041+15237442+15419460+15424032+15222284+15118231+15350044+15575627
3979.71+15325863+14761122+14430651+14478992+14595519+14555232+14445080+14472258
3974.57+14743802+15142769+15393473+15332839+15054598+14753907+14611151+14783491
3969.43+15278583+15859353+16267451+16441256+16393951+16097629+15642162+15302644
3964.28+15298313+15556977+15778491+15732765+15514866+15430047+15583327+15771273
3959.14+15889197+16082586+16350501+16410080+16158648+15805085+15406465+14760882
3954.00+13921582+13349786+13389448+13903310+14478511+14773871+14700868+14446885
3948.86+14243552+14104081+13944904+13855583+13964983+14086046+13853659+13226361
3943.71+12617279+12481646+12884488+13508555+13993112+14227440+14308361+14310767
3938.57+14247038+14197862+14302469+14582891+14907373+15126410+15103675+14678978
3933.43+13845727+12994434+12721683+13221553+14046372+14601892+14760159+14857219
3928.29+15168272+15536403+15562271+15090324+14375938+13723594+13190309+12819725
3923.14+12881244+13475022+14138828+14318101+14065008+13859430+13895736+13926391
3918.00+13680079+13176728+12750398+12787645+13313852+13997802+14704718+15614609
3912.86+16575595+16978056+16555129+15738542+15040284+14676335+14751260+15112456
3907.72+15154798+14432815+13170360+11702263+10055973+8532844+7804853+7881919
3902.57+7981162+7827865+8037379+8890405+9797058+10300879+10740252+11610398
3897.43+12882926+14139550+14965228+15171521+14957290+14817769+14990487+14973167
3892.29+13984578+12197073+11119815+12063991+14499554+16723903+17718302+17402518
3887.15+15694504+12743790+9965145+9339422+11226782+14008020+16053224+16903892
3882.00+16665158+15420302+13635002+12410530+12682396+14255096+16086920+17406132
3876.86+18092564+18074618+17067276+15255847+13695104+13458075+14510978+15628806
3871.72+15249712+12578234+8541717+5687475+6200802+9716319+13778768+16217742
3866.58+16414413+14897633+12806389+11599232+12136057+13703758+14740555+14748494
3861.43+14725403+15547953+16793490+17582446+17645916+17209242+16659740+16345807
3856.29+15578272+12228424+5081279-3318791-8129153-7523614-3929179+452283
3851.15+5571345+11126417+15544704+17810930+18472318+18636434+18948438+19450708
3846.01+19707376+19149716+17722760+16095344+15091767+14978098+15256328+15220239
3840.86+14776756+14230928+13073983+10193962+6141284+3876615+5513402+9366048
3835.72+12372329+13849692+15063139+16431989+16939648+15983663+14508934+14100716
3830.58+15334403+17239826+18438460+18486294+17847666+17053670+16500961+16648302
3825.44+17527042+18347614+18274602+17144098+15010214+11917467+8766773+7314959
3820.29+8351931+10826553+13333321+15018873+14833766+11899212+7438260+4861782
3815.15+6459251+10911898+15275215+17961982+19079204+19307018+19173822+18928794
3810.01+18636796+18206050+17124472+14627147+11006731+8447000+9085278+12219415
3804.86+15166950+16429701+16145169+14141834+9938389+5021436+2904367+5397283
3799.72+10399042+14601651+16553445+16579447+15538809+14462877+14311848+15220239
3794.58+16419830+17263426+17825984+18390988+18906616+19131636+18942894+18456412
3789.44+18015104+17919096+18027754+17960778+17733480+17693490+17808880+17657236
3784.29+17160232+16708614+16531896+16508905+16493499+16334614+15798225+14948267
3779.15+14337821+14451695+15232268+16334253+17422388+18143764+18240388+17802498
3774.01+17197922+16794092+16737508+16689233+15877646+13944062+11763866+10874566
3768.87+11862461+13722991+14937322+14849522+14009103+13424662+13567570+14148087
3763.72+14751138+15318884+15900030+16248555+15871150+14536110+12814198+11855376
3758.58+12179777+13006931+13370456+13395337+13800527+14678978+15268358+14319904
3753.44+10689841+4886675+47635-983017+226129-118665-2206699-2392488+1285000
3747.65+6568486+10184603+10106127+5357301-2783328-9289539-8923975-2438754
3742.51+4763770+9225838+11234826+12211368+12884249+13300631+12997798+11339877
3737.37+8433933+5388783+3376918+2928039+4015973+5873656+6966187+6356370+5102106
3731.58+5324382+7664272+10623109+12583881+13338850+13499541+13336805+12748596
3726.44+11904375+11365811+11540633+12210527+12644912+12217133+11087280+10225040
3721.30+10500932+11755339+13037092+13643297+13632117+13516007+13765786+14436904
3716.16+15023807+14900157+14016316+12704022+10814909+7980442+4954413+3504522
3711.01+4269954+5967651+7365405+8630201+10262478+11993490+13346301+14285516
3705.87+14830759+14797202+14208082+13367814+12423263+11342399+10335320+9866163
3700.73+10224921+11263280+12498344+13429710+13860392+13949833+13941178+13921341
3695.59+13789226+13384399+12769502+12249444+11735526+10495171+8346176+6529558
3690.44+5989683+5379925+2833709-576548-1317820+2085676+7214910+11039262
3685.30+12716878+13031203+12849402+12619802+12522131+12560693+12594692+12342658
3680.16+11571374+10544736+10006779+10148964+9804616+7373074+2743806-1919992
3675.01-3667505-1300163+3713704+8525771+10610026+8979383+4903549+1366714+724921
3669.23+2768194+5805886+8785240+11407835+13276715+14098551+14187763+14042645
3664.09+13852819+13753043+13913286+14212050+14434138+14691607+15121719+15512701
3658.94+15613405+15181264+13627430+10710125+7779205+7050649+9176425+12628573
3653.80+15442077+16461600+15402617+12797257+9581002+6264872+3110975+1084194
3648.66+1320361+3488855+6107514+8445562+10842278+13422139+15700879+17290644
3643.52+18144850+18339902+18138944+17974992+18039196+18148222+18098706+17887898
3638.37+17622430+17486578+17700236+18317612+19090656+19573674+19423826+18808276
3633.23+18424966+18718256+19085112+18260264+15501872+11325111+7394523+5698490
3628.09+7145178+10767018+14694976+17676028+19439256+20270500+20734016+21302012
3622.95+21868722+21943556+21375256+20387604+19083786+17608942+16569575+16582215
3617.80+17600750+19150440+20749818+21877412+22197044+21970352+21655102+21275106
3612.66+20904350+21203072+22366296+23167472+22309072+20283402+18861906+19020390
3607.52+20307522+21983388+23751260+25454672+26812740+27611582+27888306+27844844
3602.38+27676462+27521406+27478682+27546948+27590278+27553360+27607586+27830440
3597.23+27904650+27534116+26986132+26807898+27182654+27914454+28831582+29837826
3592.09+30781898+31464078+31615440+30911986+29420656+27897020+27166438+27293022
3586.95+27811800+28581612+29776026+31243008+32493002+33306742+33923724+34584268
3581.81+35166652+35405656+35327400+35283176+35520372+35912800+36251940+36572292
3576.66+36991684+37464324+37924052+38479296+39206592+39928304+40389336+40516272
3571.52+40364116+39963504+39324320+38465180+37464080+36548824+36024748+35993632
3566.38+36348588+37091168+38324376+39844028+41153392+42020036+42654224+43227252
3561.24+43633880+43863288+44158736+44648696+45160628+45547260+45882172+46271384
3556.09+46712852+47171900+47572492+47744512+47584716+47252084+47072284+47293524
3550.95+47916420+48669296+49194004+49396016+49515820+49750304+50035972+50350948
3545.81+50875240+51587084+52087316+52188528+52305312+52885516+53779448+54529740
3540.67+55001872+55365004+55692844+55907552+55991644+56057820+56311608+56966428
3535.52+57999320+59019968+59643816+59915160+60132404+60364816+60468660+60419444
3530.38+60318920+60200568+60092668+60132652+60390408+60765220+61203984+61806604
3525.24+62603760+63473700+64306280+65005292+65364064+65270448+65029820+65190152
3520.09+65978052+67054124+67832256+67969464+67625040+67326464+67574160+68501728
3514.95+69821432+71014480+71690840+71879784+71878424+71815808+71620176+71452656
3509.81+71741064+72627728+73756432+74749192+75530816+76068688+76213168+75945672
3504.67+75522264+75281776+75432760+75991688+76826768+77800832+78838432+79799432
3499.52+80455520+80765112+80981280+81328144+81801040+82355152+82967520+83494192
3494.38+83803024+84043552+84439128+84917736+85298792+85665344+86162808+86630104
3489.24+86836440+86882576+87044912+87413520+87939256+88620968+89358080+89850744
3484.10+89910920+89751720+89770696+90178272+90931224+91882040+92846320+93650176
3478.95+94205200+94516928+94641832+94683008+94746856+94844104+94956640+95203648
3473.81+95679576+96151600+96334488+96461640+97061928+98114584+99002968+99406656
3468.67+99622464+99921232+100213408+100471968+100902080+101548408+102170952
3464.17+102548888+102615104+102361168+101941552+101771976+102232512+103275824
3459.67+104459032+105319152+105717952+105837632+105869240+105823424+105762888
3455.17+105974464+106563752+107086984+107015568+106460640+106024560+106063328
3450.67+106474984+107017704+107474544+107694864+107809512+108217368+109126640
3446.17+110289216+111321208+112021544+112314464+112254240+112129992+112208288
3441.67+112352736+112230128+111851992+111577568+111663784+112056016+112546576
3437.17+112935192+113187072+113483200+113961344+114455152+114729864+114810384
3432.67+114793328+114602432+114270736+114124752+114367936+114805080+115216136
3428.17+115589464+115850024+115806896+115502576+115216136+115130408+115306176
3423.67+115796904+116464888+116921344+116931472+116660640+116385168+116246872
3419.17+116292928+116464120+116557512+116428560+116155912+115887472+115732392
3414.67+115826744+116253720+116920968+117667944+118342000+118652960+118318312
3410.17+117504624+116752512+116360624+116179952+116047112+116044720+116297360
3405.67+116756312+117216256+117471328+117523104+117545776+117582352+117491840
3401.17+117287400+117156000+117068792+116802752+116345832+115841808+115259008
3396.67+114602800+114208688+114302712+114605832+114814176+115078432+115568224
3392.17+116007392+116062936+115829168+115623872+115565560+115556192+115497784
3387.67+115386856+115242320+114997512+114581824+114160896+114068640+114381832
3383.17+114778280+114947056+114907616+114837440+114826192+114895600+115088296
3378.67+115418480+115711768+115602496+114928592+114176576+114108576+114762728
3374.17+115327176+115259008+114970072+115076784+115530776+115832072+115692416
3369.67+115250280+114906600+114977280+115267616+115144568+114278568+113110520
3365.17+112354624+112275848+112569688+112711512+112388344+111760856+111313512
3360.67+111319328+111608616+111846440+111837984+111619352+111473176+111700256
3356.18+112168376+112387584+112243128+112204112+112554528+112936080+112938984
3351.68+112686880+112551368+112654176+112822400+112800296+112478112+112083784
3347.18+112022672+112339592+112544424+112122424+111022632+109606264+108375648
3342.68+107732912+107742608+108102336+108496384+108860272+109257008+109696560
3338.18+110102912+110302472+110118184+109669064+109333656+109248552+109190304
3333.68+109102680+109214008+109475384+109494416+109215392+109023512+109018232
3329.18+108856872+108459840+108241056+108495256+109060960+109599088+109798584
3324.68+109432504+108611840+107863048+107658968+108003424+108586632+109074568
3320.18+109191568+108859136+108356376+108087960+108126272+108171376+107949616
3315.68+107541424+107363816+107786840+108691496+109544984+110030768+110326560
3311.18+110558688+110440096+109846000+109318784+109495048+110326688+111292312
3306.68+112069520+112577392+112630800+112024832+110866408+109561512+108555872
3302.18+108161176+108421528+109072432+109748768+110217200+110336520+110026992
3297.68+109498208+109254352+109529728+109870600+109606384+108657968+107673832
3293.18+107394176+107980864+108888768+109354328+109054032+108298776+107613728
3288.68+107260280+107163560+107129808+107030432+106851728+106594480+106142640
3284.18+105393264+104533872+103967552+103872376+103984152+103915000+103607064
3279.68+103433592+103777936+104398792+104446832+103429680+101925856+100843824
3275.18+100266112+99639648+98789368+98020808+97501456+97212560+97188752
3270.68+97244512+96901776+96106272+95474336+95332472+95109744+94178672+92752032
3265.54+91471864+90582320+89912048+89348480+88986384+88895760+88898512+88660408
3260.39+88083200+87435344+86847664+86015240+84787960+83660248+83114608+82881912
3255.25+82437496+81776536+81148240+80552328+80046800+79950264+80200888+80142736
3250.11+79437816+78566632+78036656+77701416+77198968+76501648+75810528+75342016
3244.97+75293424+75613016+75884424+75750024+75275192+74654520+73887728+72984656
3239.82+72171720+71690960+71564000+71602984+71514648+71130760+70660496+70448904
3234.68+70438888+70216320+69654312+69069960+68704096+68450584+68143872+67750136
3229.54+67223752+66524956+65865652+65660856+66028388+66489172+66453632+65947700
3224.40+65522692+65419328+65292408+64875180+64380992+64052952+63825180+63581892
3219.25+63293048+62901008+62501040+62465688+62907784+63304016+63106264+62407184
3214.11+61669572+61193532+61081152+61210024+61146260+60606600+60001276+59973836
3208.97+60482936+60849640+60640564+60072992+59561412+59195800+58767552+58207268
3203.83+57790536+57746180+57870296+57844856+57700344+57591972+57433364+57136432
3198.68+56874432+56726184+56442628+55890852+55337140+55069236+55063348+55131704
3193.54+55103724+54867140+54439940+53968680+53607888+53510524+53798088+54306600
3188.40+54538328+54139408+53284308+52465480+52100792+52349064+53008836+53602120
3183.26+53785576+53619048+53311160+52945704+52570880+52276512+52112068+52099932
3178.11+52245024+52391584+52305800+52044796+51947020+52159856+52479328+52654472
3172.97+52565124+52182032+51628124+51170992+50957652+50942960+51122496+51541024
3167.83+52032420+52302372+52327736+52401388+52706680+53074176+53241272+53224480
3162.69+53277324+53494096+53647376+53518496+53201552+52893856+52631920+52413276
3157.54+52322464+52368420+52399668+52316712+52182768+52092828+52061956+52004240
3152.40+51807716+51562704+51609744+52063300+52477620+52352860+51776604+51207252
3147.26+50849276+50591160+50334424+50096076+49952620+50001576+50201716+50302592
3142.12+50099504+49647128+49111780+48643972+48445700+48599696+48786724+48511140
3136.97+47696824+46798272+46306080+46309748+46517096+46559736+46271140+45739872
3131.83+45178700+44802156+44739396+44893596+44964532+44757832+44375016+44027908
3126.69+43799836+43657188+43501136+43227496+42895340+42713860+42732760+42717520
3121.54+42523004+42328016+42381792+42684836+42977676+42910952+42347896+41589960
3116.40+41069556+40824636+40630548+40589732+41048964+41879348+42376552+42054172
3111.26+41196540+40507864+40392868+40661004+40885308+40916500+40871304+40699872
3106.12+40174216+39363044+38732816+38643964+38990024+39351352+39362924+39047716
3100.97+38845772+39076212+39442064+39457280+39186992+39094836+39345996+39690224
3095.83+39802620+39441088+38624368+37843992+37643748+37929524+38158392+38121644
3090.69+37976368+37768080+37511032+37481104+37857256+38351388+38581404+38532360
3085.55+38379748+38234692+38192340+38295292+38395200+38323888+38122616+37880372
3080.40+37543756+37108312+36752492+36617888+36674184+36898168+37298656+37663456
3075.26+37629276+37151728+36626644+36405244+36395636+36308712+36090388+35918148
3070.12+35948780+36218636+36629440+36875184+36669324+36196020+35988524+36165628
3064.98+36209636+35766100+35211972+35112828+35455112+35733164+35565088+35028388
3059.83+34536528+34420052+34565436+34598236+34436324+34338312+34330296+34068592
3054.69+33438690+32840792+32650750+32782538+32958270+33079032+33150644+33139236
3049.55+33064344+33071264+33268262+33518454+33492472+33026600+32423478+32228988
3044.41+32629268+33239736+33551474+33396810+32925744+32386474+31992184+31784396
3039.26+31626234+31444070+31325224+31207718+30805052+30172788+29955130+30566842
3034.12+31460682+31767894+31415936+31064880+31141028+31478268+31808774+32092508
3028.98+32329568+32387076+32161536+31752974+31415328+31331892+31450858+31582082
3023.84+31623076+31586814+31450012+31182376+30910532+30821058+30896226+30973944
3018.69+31064152+31361968+31878036+32318770+32461938+32474442+32667738+32995890
3013.55+33036672+32556952+31925342+31738422+32105972+32579038+32758146+32712762
3008.41+32700990+32743704+32651964+32391930+32185562+32216616+32392416+32541420
3003.27+32709244+33021984+33339516+33367072+33141418+33081702+33455932+34058636
2998.12+34559612+34935328+35380140+35917420+36295704+36286832+35983544+35731588
2992.98+35772784+36060000+36426756+36813048+37262168+37784260+38284216+38611588
2987.84+38730016+38847716+39248352+39951324+40693656+41257228+41615556+41797424
2982.70+41866428+42027716+42450692+43013048+43443064+43658776+43783116+43924304
2977.55+44168384+44655044+45468120+46514896+47592536+48502940+49102480+49394796
2972.41+49587776+49962164+50647852+51543228+52416092+53088520+53544616+53855360
2967.27+54086420+54361432+54891804+55692964+56408612+56676576+56581516+56483028
2962.13+56561620+56780716+57089388+57437908+57726516+57913300+58020460+58003380
2956.98+57806636+57481032+57076852+56553396+55996064+55664240+55608756+55510560
2951.84+55102372+54513304+54019216+53717880+53593048+53648844+53843220+54067044
2946.70+54271884+54493552+54734504+54927876+55015860+55009848+54948372+54862848
2941.55+54799164+54841124+55002240+55151956+55203008+55372116+56006624+57063584
2936.41+57969216+58168432+57704400+57140488+56948004+57047988+57052288+56882416
2931.27+56893960+57279784+57691748+57704160+57363824+57014824+56860668+56957584
2926.13+57300676+57658692+57633752+57108792+56382584+55792520+55434956+55239572
2920.98+55062856+54732176+54198284+53582628+52994620+52436436+51935624+51554744
2915.84+51230276+50809724+50286800+49862776+49725452+49817612+49840992+49503824
2910.70+48791864+47967044+47317236+46950916+46747804+46446108+45926756+45443692
2905.56+45330852+45470192+45380068+44838412+44065128+43359616+42936204+42961452
2900.41+43305940+43460144+43119168+42655076+42633976+43075136+43495280+43478324
2895.27+43030128+42502640+42185724+41920924+41331932+40479724+39883852+39819676
2890.13+40063252+40368136+40655032+40757012+40560248+40332808+40389092+40544164
2884.99+40397132+39978488+39682916+39734552+40053636+40462912+40791128+40931860
2879.84+40945264+40969268+41003752+40929788+40709252+40476920+40416748+40583884
2874.70+40885556+41233584+41611532+41876060+41720144+41056028+40236584+39632868
2869.56+39239460+38918076+38662344+38366724+37768924+36901456+36183744+35878040
2864.42+35852760+35953520+36108496+36089052+35707520+35272600+35270536+35607016
2859.27+35662196+35152556+34468152+34108304+34138172+34291432+34352768+34315844
2854.13+34268480+34252088+34211524+34092520+33946436+33855852+33764544+33485432
2848.99+32985698+32523584+32348618+32360628+32296206+32142488+32056114+31939778
2843.85+31473784+30633390+29857334+29579252+29758940+29987726+29982640+29867878
2838.70+29919378+30073772+29934530+29361048+28747528+28474924+28412438+28286388
2833.56+28228874+28518518+28989522+29139968+28761458+28150052+27719918+27597664
2828.42+27584832+27430150+27113794+26839962+26758896+26836574+27007184+27284068
2823.28+27638574+27927530+28014816+27882130+27621874+27411268+27448784+27789160
2818.13+28246190+28539108+28534988+28334216+28145208+28074624+28018450+27802840
2812.99+27440072+27144170+27093346+27291934+27602746+27764466+27466942+26700096
2807.85+25999460+26007078+26757688+27656370+28166398+28259630+28176328+28057070
2802.71+27912032+27715076+27462102+27245098+27235296+27469846+27747276+27883946
2797.56+27913850+27876080+27630464+27141146+26704694+26604882+26736030+26840206
2792.42+26918612+27119724+27407756+27628772+27756716+27824146+27775240+27608192
2787.28+27511240+27647412+27909370+28063970+28058644+28038062+28111916+28246916
2782.13+28385800+28558844+28818136+29086912+29191450+29028160+28677768+28372966
2776.99+28384590+28812444+29393034+29674850+29540358+29370864+29535510+29944344
2771.85+30301746+30540412+30730496+30849912+30913686+31089736+31432910+31711986
2766.71+31727752+31606582+31624532+31913090+32411588+32947466+33329924+33530106
2761.56+33766728+34261436+34944924+35510768+35759172+35799280+35903200+36192980
2756.42+36540564+36835060+37200748+37754208+38287016+38506560+38524932+38768600
2751.28+39426108+40290780+41089296+41693320+42066116+42284244+42557756+43048788
2746.14+43705876+44403580+45117888+45873616+46629144+47320048+47974628+48725684
2740.99+49680788+50723888+51551924+52030952+52451140+53228160+54395776+55624596
2735.85+56679392+57635840+58658632+59785760+60953884+62088704+63157516+64226152
2730.71+65446832+66898704+68467624+69962360+71340560+72731848+74257648+75926208
2725.57+77706744+79614704+81638864+83670576+85605528+87487976+89469696+91621208
2720.42+93879000+96174648+98533144+100994360+103515040+106007688+108433120
2715.92+110804208+113156376+115587192+118237384+121142200+124179912+127256552
2711.42+130431088+133768424+137190432+140580304+143936240+147343856+150859584
2706.92+154477680+158157776+161876608+165657584+169476144+173206304+176791744
2702.42+180408080+184264800+188298560+192291440+196188912+200105648+204144752
2697.93+208364096+212742912+217092992+221244528+225354464+229697776+234187840
2693.43+238517504+242708512+247044128+251512240+255834672+260036528+264496400
2688.93+269388608+274446336+279331808+283962240+288429152+292800992+297103232
2684.43+301401152+305816352+310418144+315117792+319741888+324229152+328689952
2679.93+333253088+337902176+342495584+346931968+351261120+355596960+359981504
2675.43+364403680+368905312+373517440+378163648+382779264+387454080+392248320
2670.93+396957120+401284608+405236704+409173056+413479104+418269536+423344480
2666.43+428361984+433069120+437398560+441426112+445349472+449467072+453962976
2661.93+458704416+463418656+468023456+472605056+477186400+481715232+486176384
2657.43+490560352+494866144+499193568+503650560+508137376+512470336+516675776
2652.93+520919936+525197216+529373952+533500512+537840384+542549760+547437632
2648.43+552092160+556288640+560270784+564482624+569020608+573570688+577911680
2643.93+582185664+586603648+591166528+595746048+600244160+604668928+609150336
2639.43+613795008+618471360+622950528+627253376+631589824+635966336+640194560
2634.93+644286080+648522368+653107776+657929856+662653248+666980480+670948928
2630.43+674913216+679124352+683461312+687770944+692172288+696729728+701166848
2625.93+705264064+709209024+713230336+717248832+721189120+725267712+729620928
2621.43+733989888+738075584+741988544+746069760+750413632+754793600+758978688
2616.93+762980096+766978432+771091456+775268992+779401152+783474816+787579648
2612.43+791768960+795937344+799881536+803517824+807015360+810645824+814506368
2607.93+818465472+822351680+826135680+829900800+833684096+837362496+840772096
2603.43+843964608+847209920+850670592+854223232+857691456+861085504+864489664
2598.93+867907712+871306176+874652352+877865280+880881280+883781056+886697664
2594.43+889654784+892631168+895686784+898862400+902030656+904992832+907686848
2589.93+910213184+912688192+915192576+917857792+920855488+924137408+927294720
2585.43+929921600+932114560+934338560+936840320+939492288+942125120+944608896
2580.93+946740672+948482112+950203904+952284928+954615424+956892864+959154688
2576.43+961589632+964055872+966225024+968050240+969753088+971466624+973138240
2571.93+974716800+976289664+978028096+980007232+982059008+983911744+985508416
2567.43+987046144+988665088+990265408+991705728+993041088+994465088+996066176
2562.93+997726976+999285504+1000723712+1002081344+1003296768+1004332096
2559.08+1005379776+1006661248+1008057920+1009250496+1010196800+1011162176
2555.22+1012280896+1013413760+1014448448+1015447872+1016487616+1017545600
2551.36+1018588032+1019611008+1020600256+1021530688+1022413248+1023313856
2547.50+1024334016+1025529856+1026815424+1028009152+1029013056+1029863936
2543.65+1030612800+1031283264+1031972160+1032828608+1033902272+1035101376
2539.79+1036317248+1037463424+1038422784+1039127744+1039694720+1040338688
2535.93+1041127168+1041925952+1042613504+1043254080+1044038592+1045065792
2532.08+1046202048+1047187328+1047924800+1048599360+1049437632+1050449344
2528.22+1051524800+1052643648+1053789184+1054773376+1055409600+1055810944
2524.36+1056292416+1056981504+1057729600+1058416192+1059113152+1059893824
2520.51+1060655360+1061270592+1061806976+1062435968+1063155392+1063775040
2516.65+1064202368+1064576704+1065085760+1065777984+1066610368+1067530752
2512.79+1068469376+1069342336+1070120960+1070790784+1071234240+1071298816
2508.94+1071040512+1070788352+1070873920+1071321856+1071868736+1072241216
2505.08+1072357504+1072305728+1072272768+1072473728+1072965568+1073505920
2501.22+1073741824+1073612608+1073396224+1073310848+1073272512+1073116096
2497.36+1072887872+1072731776+1072567424+1072073728+1071080384+1069879808
2493.51+1068993344+1068624704+1068522368+1068335936+1067911296+1067242112
2489.65+1066408128+1065585728+1064866368+1064101504+1063121344+1062028160
2485.79+1061027392+1060103232+1059074112+1057823808+1056332608+1054671680
2481.94+1053092992+1051874944+1050962048+1049950784+1048507072+1046661504
2478.08+1044719424+1043025536+1041732288+1040645888+1039336832+1037511488
2474.22+1035236160+1032814976+1030577344+1028739072+1027276160+1025893184
2470.37+1024244288+1022219072+1019934976+1017513856+1015020608+1012585408
2466.51+1010390976+1008476224+1006710208+1004975680+1003217792+1001309952
2462.65+999126656+996775872+994513408+992409024+990331520+988239040+986209088
2458.15+984220800+982165056+979990656+977677184+975234880+972818816+970610752
2453.65+968560384+966542272+964640000+962876096+960944896+958696448+956539904
2449.15+954810176+953172416+951249792+949324352+947800512+946442240+944766336
2444.65+942784448+940876736+939246336+937824384+936435200+934902080+933223680
2440.15+931615232+930187008+928756672+927187904+925654912+924354816+923204480
2435.65+921997440+920653952+919225536+917831808+916621696+915654400+914821056
2431.15+913954688+912959744+911826048+910640000+909547136+908602880+907687424
2426.65+906689344+905701440+904928320+904419200+903977280+903350784+902479424
2422.15+901516544+900601600+899703552+898777280+897924800+897259456+896702400
2417.65+896062848+895272448+894419904+893592832+892774080+891901888+891004736
2413.15+890223936+889643968+889173440+888689856+888169856+887544384+886620864
2408.66+885375936+884137600+883214848+882518208+881754048+880822080+879831680
2404.16+878899200+878087104+877369664+876569344+875457024+874017792+872523200
2399.66+871317376+870506688+869814528+868796352+867303168+865654720+864235200
2395.16+863031296+861751808+860255232+858670016+857180544+855857408+854638400
2390.66+853389248+852003328+850465408+848801856+847043328+845271424+843575872
2386.16+841887488+840012160+837903296+835780096+833863104+832095040+830275712
2381.66+828414016+826747968+825328064+823788416+821732608+819254400+816838976
2377.16+814788864+812974656+811089152+808936128+806511104+803959744+801441984
2372.66+798941440+796311168+793556352+790889152+788440512+786096960+783699200
2368.16+781234624+778773184+776330112+773861568+771324288+768739776+766203008
2363.66+763805312+761527808+759260288+756934272+754584064+752274624+750022720
2359.16+747778816+745474624+743053184+740476992+737770560+735086144+732639232
2354.66+730527552+728670400+726943744+725264064+723518272+721562176+719342144
2350.16+716917504+714379200+711814976+709304768+706822528+704236672+701492096
2345.66+698697920+695931968+693101376+690119744+687129344+684425728+682173824
2341.16+680228480+678217856+675828224+673038400+670094720+667295424+664794816
2336.66+662514624+660219456+657757888+655235264+652848128+650602176+648344832
2332.16+646031168+643762560+641585152+639410752+637135232+634727232+632205312
2327.66+629620992+627046848+624556160+622185088+619907904+617665664+615443456
2323.16+613271680+611099200+608777280+606276032+603793664+601529152+599447296
2318.66+597371520+595204352+592974528+590759936+588589824+586358528+583901632
2314.16+581244352+578652224+576328960+574207936+572134272+570048448+567897408
2309.66+565602688+563213760+560892288+558686784+556518528+554401280+552431936
2305.16+550533184+548449664+546053248+543498432+540996352+538577600+536163904
2300.66+533772128+531533152+529489984+527501504+525408544+523215488+520998016
2296.16+518725632+516328448+513893632+511613376+509514336+507389792+505049312
2291.66+502531040+500037760+497745376+495694400+493787648+491837216+489701920
2287.16+487432416+485206272+483086208+480948256+478715616+476506112+474432032
2282.66+472384352+470161440+467723552+465203808+462773088+460552864+458532864
2278.16+456530336+454389632+452209312+450176352+448253888+446300256+444384768
2273.66+442655744+440974304+439057216+436928256+434869952+432960000+430995520
2269.16+428858848+426651744+424481184+422360288+420330880+418492544+416835008
2264.66+415166144+413257120+411078752+408847808+406792672+404896320+402970208
2260.16+400967616+399040032+397265984+395519264+393679296+391795296+389934848
2255.66+388041728+386045632+384007840+382049536+380221184+378517376+376926112
2251.16+375375872+373718016+371861024+369863008+367858112+365922560+364078368
2246.66+362329728+360624448+358838816+356898368+354928096+353171168+351717856
2242.16+350357024+348786560+346960800+345110432+343387584+341687584+339909728
2237.66+338160096+336510656+334795776+332887808+330963296+329252512+327712224
2233.16+326183296+324658496+323170688+321602336+319855328+318061888+316461408
2228.66+315144640+314002112+312840928+311519136+310032064+308471840+306884704
2224.17+305253280+303605888+302033504+300559072+299111040+297626752+296093600
2219.67+294523200+292964096+291519008+290261024+289135488+287991296+286709056
2215.17+285275488+283720416+282073984+280437472+278994016+277785536+276572032
2210.67+275133248+273599296+272219008+270931456+269510688+268009008+266688992
2206.17+265571456+264394464+262984848+261432960+259937600+258620032+257433312
2201.67+256209280+254872192+253552288+252367040+251218384+249957680+248608448
2197.17+247296576+246090176+244969776+243857152+242679392+241505152+240491632
2192.67+239587504+238492640+237048432+235471520+234075888+232950112+231970560
2188.17+230970848+229859536+228670688+227478416+226264368+224990688+223748144
2183.67+222649520+221630432+220572944+219520672+218567360+217647088+216633472
2179.17+215521728+214382144+213257296+212181376+211180224+210227664+209284336
2174.67+208350192+207405088+206403632+205372944+204396048+203475024+202548592
2170.17+201614016+200690272+199714640+198637392+197555472+196612448+195813056
2165.67+195028304+194164704+193253616+192391728+191617392+190857424+190026736
2161.17+189125264+188178048+187136896+185968016+184780576+183715264+182738288
2156.67+181701936+180631072+179768832+179258416+178912304+178425312+177731776
2152.17+176981632+176241024+175430144+174557248+173762848+173075856+172347488
2147.67+171493728+170607728+169789424+169023920+168272736+167536736+166794944
2143.17+166002560+165172656+164384288+163670592+162945376+162098352+161173792
2138.67+160361616+159759376+159246528+158687808+158105472+157509584+156761536
2134.17+155803696+154820352+153974928+153187504+152387104+151730592+151346336
2129.67+151061280+150595968+149893344+149101328+148360912+147708960+147112816
2125.17+146535104+145974240+145406896+144746496+143979088+143275984+142796560
2120.67+142437472+141966832+141338720+140679792+140073344+139531072+139066240
2116.17+138648192+138185232+137668528+137188144+136746208+136203312+135486688
2111.67+134700464+134014640+133536528+133248784+132968456+132448512+131645624
2107.17+130808792+130203792+129844424+129556056+129184824+128667504+128020888
2102.67+127341400+126734408+126186336+125589184+124935824+124403848+124146752
2098.17+124046408+123777400+123155984+122354288+121699056+121324592+121105544
2093.67+120865976+120506384+119994336+119388024+118851840+118486264+118154312
2089.17+117652872+117011328+116458936+116108352+115855984+115597944+115339944
2084.67+115076784+114747688+114346576+113925208+113431400+112732096+111886584
2080.17+111202704+110875368+110711088+110392032+109885096+109409184+109095624
2075.67+108884728+108662120+108321088+107789472+107150208+106613112+106243592
2071.17+105880560+105422336+104982584+104672112+104444944+104234032+104002264
2066.67+103625672+103017648+102373848+101997080+101847592+101589472+101106608
2062.17+100649480+100421376+100303392+100085760+99757224+99451952+99219976
2057.67+98972360+98601120+98100296+97544816+97003408+96505728+96108272+95887960
2052.53+95816952+95662160+95144304+94243488+93292544+92710768+92629120+92820688
2047.39+92965488+92904960+92661864+92299544+91833792+91248568+90570704+89918040
2042.25+89454584+89243744+89173600+89081480+88962544+88939072+88983008+88815512
2037.10+88256128+87550088+87099776+86924592+86662152+86095880+85419264+84958720
2031.96+84858328+85011656+85132976+84954480+84517328+84146752+84008320+83900000
2026.82+83612064+83231096+82906552+82593256+82206504+81816944+81510544+81237880
2021.68+80921376+80588624+80321672+80132912+79920576+79529984+78935424+78368232
2016.53+78113736+78139680+78089160+77711464+77154904+76764864+76710032+76873784
2011.39+77013840+76959016+76703952+76346120+75963416+75598896+75332480+75232320
2006.25+75197984+74996560+74539656+74028704+73730184+73691776+73735624+73656848
2001.11+73377072+72958664+72521648+72129152+71755912+71363080+70987016+70742000
1995.96+70748312+70973160+71123704+70814840+69971024+68987176+68377576+68309136
1990.82+68526688+68670488+68573264+68296296+67987008+67769392+67744448+67962928
1985.68+68293696+68439704+68233048+67821256+67467360+67299424+67324128+67460816
1980.54+67488960+67200536+66678868+66198668+65865520+65623980+65529232+65669492
1975.39+65866144+65826792+65570560+65391936+65398480+65362088+65057696+64543484
1970.25+64032008+63621328+63247092+62850868+62493524+62297816+62340676+62601056
1965.11+62917760+63038988+62842616+62489580+62228356+62114568+62052624+61988960
1959.97+61893660+61674492+61320932+61029820+60995732+61125212+61133580+60876472
1954.82+60470756+60124296+59946772+59910360+59899048+59772228+59466592+59111204
1949.68+58966600+59147724+59435232+59434372+58937956+58150612+57542092+57417876
1944.54+57566908+57475500+56973184+56491748+56517660+56963724+57332252+57368860
1939.39+57283356+57358788+57565560+57646036+57479552+57243552+57204860+57417876
1934.25+57696044+57821380+57718040+57462104+57180288+56940024+56719556+56498624
1929.11+56315288+56190300+56067148+55898584+55754348+55765024+55915772+55911600
1923.97+55424280+54572192+53958504+54019580+54550232+55047520+55144588+54559060
1918.82+53248392+51944080+51790200+52912240+54127388+54521640+54427428+54485328
1913.68+54647892+54610344+54445836+54331008+54206752+54050732+54014304+54099048
1908.54+54100896+53962180+53830464+53750508+53596360+53340464+53185496+53348924
1903.40+53783612+54155844+54162592+53850448+53564608+53563624+53738120+53757740
1898.25+53500844+53247156+53300860+53519844+53521932+53308100+53239316+53390364
1893.11+53456448+53310548+53095260+52743576+52061832+51320788+51117720+51541760
1887.97+52033032+52193432+52218676+52432392+52772376+52909424+52710360+52420628
1882.83+52376020+52601400+52827420+52873996+52822268+52777768+52697248+52566344
1877.68+52563648+52879264+53430212+53856708+53864680+53533576+53198484+53042676
1872.54+52934432+52617208+51840064+50451096+48715776+47470164+47460628+48502208
1867.40+49741852+50654096+51294692+51755652+51933180+51864448+51843980+52051048
1862.26+52340360+52506784+52573328+52667096+52760492+52743700+52689032+52776296
1857.11+52950604+52976840+52861488+52869948+53082636+53260888+53225824+53061672
1851.97+52936884+52926212+52973044+52900348+52569168+52113044+51894948+52149804
1846.83+52572964+52183132+49974528+46370716+43785188+44524540+47940016+51214840
1841.69+52717960+53000500+53055420+53112060+53110340+53104708+53014972+52787948
1836.54+52726904+53078100+53539096+53634744+53307604+52864924+52539868+52153728
1831.40+51178712+49468828+47954204+47979520+49720924+51948488+53347816+53355180
1826.26+52074572+50270396+49210028+49629388+50983616+52239752+52978436+53383500
1821.12+53669448+53861860+53833408+53447380+52841392+52415604+52372468+52538280
1815.97+52758164+53067800+53387668+53476932+53251208+52807188+52202132+51562464
1810.83+51249868+51532328+52170884+52640864+52728624+52697128+52872032+53237840
1805.69+53518868+53542044+53309688+52810008+52031564+51158748+50430644+49847604
1800.55+49361388+49227164+49745524+50748136+51703952+52224068+52268548+52090628
1795.40+51972872+51598968+49962288+46733260+43545552+42763984+44730976+47554400
1790.26+49666712+51036280+52036468+52645028+52857320+52771888+52192572+51038728
1785.12+49999376+49894728+50569732+51212024+51399788+51181156+50690704+50262316
1779.97+50317892+50759032+51100084+51257952+51392320+51237136+50609652+50035728
1774.83+49578964+47814204+43714168+39055392+37210476+39343564+43419392+46811472
1769.69+48086880+47135104+45343312+44972340+46894940+49553876+51077792+51328624
1764.55+51150784+50616136+49009744+46337728+44145068+44329980+46966560+50018228
1759.40+51589900+51513092+50497860+49047308+47943692+48322172+50078080+51627020
1754.26+52055208+51742788+50482316+47393396+43516388+41960660+43916004+46920364
1749.12+48517624+48941356+49515084+50567280+51627876+52284480+52313276+51793016
1743.98+51256484+51344916+52268912+53388404+53264200+50982396+47906760+46942608
1738.83+49099180+52320012+54438964+54923456+53270456+48310560+40486664+33519180
1733.69+31982722+36770004+44315576+50288880+52742108+52563896+52019432+52574556
1728.55+53899756+54919656+55218832+55164716+55155996+55173056+55020032+54745916
1723.41+54665184+55033164+55763916+56414136+56402964+55213920+52345256+47511364
1718.26+41776460+38257080+39600356+44248812+48123932+49791424+51151276+53604452
1713.12+56161072+57690520+58399628+58631708+58389792+58236036+58862832+59772840
1707.98+59793380+58651252+57165424+56326956+56592200+57676632+59126576+61003856
1702.84+62776216+61813376+55515104+45839292+40023184+43764204+54297524+64109664
1697.69+68032208+65132928+58794476+55926576+61340744+71916904+81041200+86217528
1692.55+89207056+91881544+94370128+96584416+99199160+102539704+106173480
1688.05+109990032+113956920+116361888+114501304+108440440+103127624+104658272
1683.55+113553320+124942688+134648880+141529472+146154672+149738176+153482912
1679.05+157811568+162360080+166512240+169290464+169653504+168365696+168942208
1674.55+174465024+183367888+191128096+195565696+198152848+200769200+203092496
1670.05+204249200+205627472+209958768+217684240+226241264+233220656+238472496
1665.55+243003680+247073744+250036944+251840928+254039888+258640432+265740224
1661.05+273349280+279824544+285267360+290428096+295467552+300143840+304248224
1656.55+307493888+309414752+309106848+305034848+296831456+288779808+289259488
1652.05+301751968+319109280+332273536+338486688+339802272+338985440+337570816
1647.55+335878880+334025888+333370784+336275520+342964480+350048320+354190944
1643.05+355471936+355922912+356450912+356722944+356739072+356530368+355349568
1638.55+352749408+349217056+344510656+337351520+328628224+322915680+323480352
1634.05+327194016+328444800+325373632+319848192+313931456+308123840+301985728
1629.55+294881120+286437792+277184256+268424896+261053040+254720736+248143936
1625.05+240010576+230206096+220538560+213372304+209010944+205497424+201126496
1620.55+195916400+190764976+185865040+179819232+170743696+159383680+150716576
1616.06+149497744+153748816+157326192+157422528+155523552+153433552+151353152
1611.56+149206272+147348320+145830560+144434688+143220704+142234176+141269408
1607.06+140363872+139802704+139500976+139079552+138432880+137681696+136926832
1602.56+136381456+136210352+136114496+135705648+135192640+135010400+135079360
1598.06+135052032+134875552+134562176+133961792+133202696+132781680+132927376
1593.56+133402664+133989744+134658192+135334160+135941744+136509520+136998416
1589.06+137369184+137873792+138820800+140132624+141531024+142896800+144099568
1584.56+144988304+145783824+146840720+147979504+148862128+149754256+151010064
1580.06+152372272+153595568+154605632+154131600+150161104+143491680+139427648
1575.56+142825648+151590992+159520448+163573568+165039120+166023840+166661552
1571.06+165697664+163039776+160886928+161705632+165354176+169495760+172300752
1566.56+173401936+173195376+172539680+172510144+173458848+174671488+175023888
1562.06+173131200+167473920+158087760+148030000+141299776+139243600+141316800
1557.56+147507952+156334768+163265792+164698320+161816544+159273168+160301616
1553.06+163856112+166856960+167444848+165871968+163800912+162900704+163464352
1548.56+164428336+164670192+163679408+161140000+157070368+152747824+150033456
1544.06+148641088+145778832+139937248+133276600+128377536+124047296+117880904
1539.56+111975584+111864368+118632432+126741520+131048400+131036048+128524176
1535.06+124614368+119847312+115883048+114819352+116540688+118620912+119304912
1530.56+118862968+117934848+116378720+114345696+112756968+111766520+110306376
1526.06+108072720+106479784+106621168+107354376+106396816+102603544+96997896
1521.56+92503208+92334920+97145520+103735440+107695368+107279800+104667448
1517.06+103571120+105315008+108123888+110199664+111256848+111133552+109480800
1512.56+107189112+105963640+105979120+105814232+104674760+102689768+99393616
1508.06+93949560+87017240+81315216+80022448+84400896+92511096+100480496
1503.56+105430008+107147312+107307016+107514216+107946848+107592312+105942496
1499.06+104243720+103969576+104178200+102756488+100513144+101133120+105885600
1494.56+111558376+115139640+116761632+117422456+116876920+114978160+113272088
1490.06+113746648+116536624+119864672+122175104+123734488+126007304+129656936
1485.56+133756928+137165008+139761744+141945184+143796816+145347984+147068736
1481.06+149440384+152368288+155480960+158670752+161764528+164067968+165156960
1476.56+166041216+168302848+171688448+173994096+173969872+173118560+174142816
1472.06+178338256+184901552+191958464+197784384+201751216+204435328+206648096
1467.56+208527968+209605632+209330064+207836800+206787360+208431008+212712096
1463.06+216919376+219253056+220606528+222059600+222932384+222420848+220780464
1458.56+217772736+212648000+207242608+206422576+212523872+221799264+229201632
1454.06+233136704+234639136+234886688+234474720+233923984+233739248+233935664
1449.56+233887648+232964896+231463120+230635632+231353232+233015184+234322800
1445.06+234738624+234601712+234170496+233340960+232273392+231466864+230942144
1440.56+230106064+228680736+226780368+223701808+218155952+210833856+205458400
1436.06+205034624+207699984+209232528+208111344+205725360+203376992+200970480
1431.57+198004976+194344016+190284176+186662832+184276592+182793216+181139104
1427.07+178988528+176753008+174369168+171379056+167978656+164827824+162185856
1422.57+160030176+158103104+155141792+149611872+142333232+136978624+136191792
1418.07+138340784+140205216+140766496+140791232+140703888+140304832+139602624
1413.57+138823360+138044912+137339904+136863696+136565104+136241888+135951344
1409.07+135960288+136308592+136674128+136602416+135735920+134130920+132564192
1404.57+132076096+132817800+133748136+133861080+133174000+132061960+130274384
1400.07+127485312+124409944+122303784+121353624+120536688+118981944+116550176
1395.57+113459200+110357712+108451272+108409432+109339464+109724552+109001832
1391.07+107676088+106339272+104992272+103073448+100100944+96646928+94333584
1386.57+94113848+95045280+95598056+95395704+94913208+94369128+93758888+93283040
1381.43+92955112+92366560+91337032+90283056+89655968+89517256+89686432+89815784
1376.28+89403656+88250264+86861256+86094504+86477032+87917416+89874456+91749560
1371.14+93249264+94325952+94866760+94803928+94497536+94467488+94703040+94744720
1366.00+94367496+93649424+92567856+91147984+89844120+89165736+89073864+89226520
1360.85+89557704+90140312+90777184+91153864+91195336+90999808+90608168+90035168
1355.71+89400408+88897384+88657528+88625952+88557320+88194360+87517536+86778840
1350.57+86296928+86202944+86335936+86395152+86270992+86113824+86051136+86010760
1345.43+85958672+86055376+86387160+86730968+86731592+86196080+85201864+84107288
1340.28+83421384+83418152+83877960+84332912+84460800+84189216+83660368+83232472
1335.14+83262832+83717128+84140536+84120864+83696216+83262080+83156296+83363632
1330.00+83612944+83715264+83710408+83677800+83580704+83386040+83221128+83291320
1324.86+83678784+84210264+84531656+84431400+84103432+83880088+83725216+83310368
1319.71+82588904+81904264+81459936+81094280+80679728+80390528+80414120+80633736
1314.57+80757040+80654376+80482608+80472656+80628512+80727712+80655856+80566632
1309.43+80621696+80777680+80957672+81200328+81459936+81461312+81030768+80464216
1304.29+80305144+80748208+81435696+81877408+81907112+81666240+81339464+81107464
1299.14+81183296+81624952+82161976+82491608+82690800+83069560+83666344+84168296
1294.00+84347472+84299160+84234288+84269400+84463288+84826192+85220816+85461504
1288.86+85600296+85937104+86646576+87564928+88418448+89086224+89543344+89764840
1283.72+89857232+90111096+90734088+91613832+92481576+93233632+93965824+94772264
1278.57+95630360+96489200+97387520+98417152+99575408+100717144+101708032
1274.07+102571880+103437856+104390360+105453424+106666376+108070832+109597328
1269.57+111056448+112332280+113586672+115151272+117154360+119324800+121291992
1265.07+122983960+124611552+126309152+127978384+129531608+131157904+133228344
1260.57+135913504+138967952+141982208+144793856+147545856+150405488+153392544
1256.07+156464496+159621840+162905232+166368224+170035312+173843840+177663424
1251.57+181386528+184968192+188401920+191742192+195136640+198782688+202821520
1247.08+207227392+211754704+216095456+220209904+224443248+229219840+234624528
1242.58+240316384+245816576+250924160+255924096+261297056+267165728+273188736
1238.08+279087072+285004608+291180160+297524800+303753856+309748608+315598176
1233.58+321457088+327515680+333913472+340505984+346902688+352924992+358880512
1229.08+365165728+371723328+378120384+384088992+389727296+395228800+400692576
1224.58+406227904+411974528+417918304+423808672+429343616+434382272+438993632
1220.08+443349056+447588864+451751552+455814496+459737472+463475520+467027936
1215.58+470450432+473709824+476597728+478946688+480889344+482688032+484365760
1211.08+485695328+486520128+486914080+487028608+486888512+486358368+485305888
1206.58+483787616+482033056+480183072+478140320+475711296+472786464+469370208
1202.08+465585440+461648192+457661152+453445920+448775424+443760192+438720992
1197.58+433682176+428335776+422583008+416728992+410998880+405229984+399278720
1193.08+393334688+387562912+381757888+375663424+369370240+363155040+357211584
1188.58+351693088+346673632+341911360+336978880+331749920+326500864+321500576
1184.08+316756320+312144928+307584512+303134848+298981280+295238272+291779424
1179.58+288400480+285066816+281877056+278944640+276342752+273948992+271429600
1175.08+268674432+266045888+263860960+261938656+260014096+258133680+256348048
1170.58+254551136+252888640+251684112+250792656+249698816+248302320+246964480
1166.08+245879616+245000960+244343472+243813200+243105024+242203056+241506368
1161.58+241164576+240869424+240474144+240192544+240065344+239874528+239592992
1157.08+239368992+239165424+238957744+239095488+239926736+241154192+242053648
1152.58+242298736+242300352+242750960+244017648+245944544+248082608+250080496
1148.08+251941760+253954080+256321200+258870816+261275728+263587584+266262176
1143.58+269516544+272999136+276326560+279624416+283257440+287287968+291486528
1139.08+295670112+299807392+303978848+308369504+313153088+318340448+323866656
1134.58+329721536+335826528+341937568+347923552+354017664+360603168+367857664
1130.08+375727808+384066112+392640000+401132896+409307520+417194016+425095744
1125.58+433395008+442272032+451640384+461377280+471463392+481826784+492280736
1121.08+502808256+513627328+524774528+535907712+546723264+557323200+568006656
1116.58+578923776+590041088+601228032+612343040+623291200+633952832+644126208
1112.08+653790080+663351104+673300992+683665536+694023232+703915136+713097408
1107.58+721711168+730328320+739396864+748562048+757037632+764622464+771830528
1103.08+779031424+785981632+792273856+797965376+803701184+810158208+817244224
1098.58+824075968+829949632+834977344+839639168+844301440+849306240+854746880
1094.08+860004736+864290624+867763392+871331584+875425216+879714560+883911744
1089.58+888076736+892169728+895891776+899020352+901647488+904107200+906704192
1085.08+909436480+912017664+914178944+915821504+916951232+917646336+917947328
1080.58+917695872+916732224+915252736+913518144+911301056+908106816+903835712
1076.08+898803264+893421056+888169856+883361984+878597248+872980224+866105664
1071.58+858279168+849776640+840566528+830727168+820522368+810050560+799165632
1067.08+787623616+775158272+761732032+747783040+733934016+720442176+707087040
1062.59+693450176+679209024+664451456+649762048+635704192+622270208+609122240
1058.09+596162112+583454784+570773632+557750336+544524224+531848768+520319232
1053.59+509668544+499111808+488294240+477498944+466960832+456531424+446140608
1049.09+436034304+426410816+417220736+408333344+399520352+390544128+381651808
1044.59+373557472+366473952+359709856+352655616+345528768+338754464+332277888
1040.09+325919968+319796640+314041216+308569632+303316128+298355168+293672160
1035.59+289056544+284294752+279402176+274634112+270201600+265988112+261803424
1031.09+257848224+254484304+251573648+248645888+245713328+243242640+241257744
1026.59+239158848+236589024+233929504+231778080+230320896+229323600+228470496
1022.09+227609072+226805248+226194480+225721104+225082224+224056144+222900896
1017.59+222278352+222590400+223514544+224434160+225218320+226222944+227618848
1013.09+229175008+230699952+232252064+233881456+235544288+237356304+239663248
1008.59+242763504+246661296+251134880+256005760+261337744+267295056+273866880
1004.09+280925888+288513120+296786976+305719104+315144064+325048352+335498304
999.59+346365472+357475296+368930816+380963680+393554528+406446656+419453248
995.09+432555488+445752960+458944896+471951264+484584384+496609600+507600192
990.59+516981888+524401440+529885632+533414528+534545472+532807264+528314496
986.09+521637216+513183136+503071424+491526528+479029600+466015872+452634272
981.59+438885536+424857408+410779872+396910560+383413088+370339104+357716896
977.09+345626752+334122656+323103904+312413696+302118592+292521376+283764544
972.59+275579552+267603280+259824768+252532144+245910256+239852448+234164048
968.09+228822992+223946912+219532656+215359936+211273488+207447456+204168960
963.59+201438832+198960016+196487856+194055568+191900384+190185568+188746512
959.09+187220400+185521744+184006432+183013632+182477408+182091392+181564656
954.59+180716400+179635216+178705136+178185328+177968048+177982272+178353792
950.09+178906144+179118304+178872752+178619520+178587008+178497760+178200832
945.59+177940784+177899552+177981392+178057584+178093968+178124128+178240000
941.09+178457280+178631392+178679568+178725248+178839824+178927184+178962304
936.59+179009696+179053680+179185808+179704304+180656688+181627936+182314992
932.09+182822656+183171392+183165888+182918016+182860464+183133072+183495600
927.59+183777424+183992960+184224352+184698224+185630448+186794016+187666240
923.09+188085584+188339632+188639984+188914416+189047600+189077120+189230752
918.59+189801888+190771152+191693728+192267408+192761056+193518176+194350592
914.09+194843440+194998976+195221504+195818704+196759664+197794528+198684192
909.59+199357072+199903536+200394176+200758528+200867008+200718400+200546720
905.09+200713904+201386544+202310464+203013472+203235328+203092352+202860352
900.59+202748464+202893920+203425600+204329968+205302176+205935328+206137648
896.09+206205936+206430640+206814880+207207936+207469952+207491024+207263168
891.59+206950064+206685136+206430912+206195088+206209904+206640816+207238528
887.09+207491664+207109056+206286272+205485648+204986992+204717232+204509632
882.59+204351376+204307632+204381120+204467344+204252224+203375392+202061632
878.10+201201728+201234736+201437360+200978384+200165936+199865792+200204320
873.60+200536704+200240320+199092560+197405280+196021728+195590432+195805680
869.10+195927200+195796448+195682848+195533072+195140064+194686864+194445968
864.60+194224976+193613664+192637616+191844688+191773872+192331792+192807840
860.10+192709648+192329024+192144144+192165808+192360832+192985568+193820640
855.60+193899296+192767504+191279280+190533632+190783504+191613184+192398144
851.10+192637616+192584528+193171344+194553984+195518192+195162432+194153136
846.60+193488864+193043696+192144784+190856512+190026736+190305824+191495872
842.10+192913680+194365472+196129280+197995216+199346128+200110624+200406048
837.60+199695248+198001568+197097664+198293088+199954432+199543568+197103744
833.10+194566864+192791536+191243312+189627200+188127424+186782736+185677600
828.60+185084752+184902336+184539696+183644096+182502128+181652512+181179360
824.10+180485024+179113872+177778592+177625840+178356800+178435360+177440752
819.60+176573872+176430448+176044048+174613280+172610736+170791824+169443648
815.10+168774784+168842576+169054576+168586832+167195792+165209200+163145072
810.60+161686864+161439424+162251600+163114000+162998608+161747824+160184560
806.10+159362752+159570240+160139312+160292960+160039856+159904080+159863088
801.60+158963200+156578608+153899920
##END=
