##TITLE=octarelline 6 front
##JCAMP-DX=4.24
##DATA TYPE=INFRARED SPECTRUM
##DATE=31/1/2005
##TIME=16:57:36
##SAMPLING PROCEDURE=film
##ORIGIN=Vincent
##DATA PROCESSING=no operation
##XUNITS=1/CM
##YUNITS=ABSORBANCE
##RESOLUTION=2
##FIRSTX=4000.283
##LASTX=800.31372
##DELTAX=-0.64282227
##MAXY=0.2379861
##MINY=-0.0039448091
##XFACTOR=1
##YFACTOR=2.2164183e-010
##NPOINTS=4979
##FIRSTY=0.0045126639
##XYDATA=(X++(Y..Y))
4000.28+20360164+20329836+20202508+20136782+19946222+19468552+18949842+18713292
3995.14+18622858+18274946+17663918+17262680+17391470+17827970+18139852+18154938
3990.00+18017382+17947250+17974356+17884780+17525684+17112344+16987696+17130250
3984.86+17292846+17536760+18102604+18816354+19168018+18969300+18478546+17971294
3979.71+17630568+17631862+17910708+18071482+17909884+17760438+18004530+18508018
3974.57+18841354+18855856+18754326+18733812+18771782+18731572+18540324+18239226
3969.43+17941828+17808288+17958446+18299584+18531246+18430796+18069128+17686076
3964.28+17473364+17495046+17680534+17944184+18364776+19056332+19767128+19956606
3959.14+19466314+18759636+18322572+18163544+18064176+17938524+17777764+17514726
3954.00+17138026+16834552+16885910+17301094+17614656+17346104+16708508+16436075
3948.86+16748088+17041534+16885440+16720171+17141208+17915304+18199028+17540768
3943.71+16368237+15524822+15517992+16224560+17175844+17940882+18268580+18159890
3938.57+17915422+17894446+18163898+18540090+18895360+19195970+19285960+18884748
3933.43+17881834+16609919+15767342+15844105+16567400+17195522+17421282+17613124
3928.29+18065236+18457678+18262918+17393472+16255179+15342126+14916652+15025513
3923.14+15669976+16707096+17591206+17686190+17035646+16413816+16340561+16441727
3918.00+16044392+15112841+14359847+14533509+15689637+17188686+18403090+19200098
3912.86+19665552+19792966+19656468+19480230+19363334+19284426+19305188+19324650
3907.72+18965762+18132660+17068042+15549309+13111969+10416158+8921340+8721545
3902.57+8482946+7886925+8072561+9285080+10264231+10496238+11104798+12930322
3897.43+15317173+17249250+18397904+18831682+18756096+18620620+18597388+17947012
3892.29+15827621+12942785+11477403+12767502+15755216+18431150+19813612+19662012
3887.15+17471714+13354543+9396798+8362601+10704785+14267612+16947288+18147394
3882.00+17931102+16391438+14302553+13280816+14392202+16937158+19306014+20705852
3876.86+21388198+21476284+20501194+18353576+16038151+15018452+15863414+17474542
3871.72+17580600+14519154+9169849+4856849+4524014+8097775+13103974+16942574
3866.58+18027400+16132945+12847088+10967144+12106011+14967139+16926436+17074168
3861.43+16815822+17623732+19284900+20689682+21216174+20918206+20331488+20017488
3856.29+18938876+13978931+3406041-9128181-16707125-16613097-12066614-6069840
3851.15+1194444+9094284+15424879+18998312+20604464+21375684+21852166+22290136
3846.01+22520500+21861496+20060202+17955854+16761871+16915834+17669106+17778116
3840.86+16826776+15408753+13427099+9576943+4124873+689778+2373480+7204690
3835.72+10902080+12460234+13933527+16157909+17559150+16958834+15387798+14845689
3830.58+16248939+18798548+20976992+21877678+21551384+20467794+19211302+18531954
3825.44+18912578+19977608+20749288+20225044+17575650+12727886+7398820+4516756
3820.29+5601513+9455475+13797556+16621464+16038387+11210981+4434347+627039
3815.15+2858580+9221714+15551663+19519154+21243682+21744224+21877678+22144844
3810.01+22610290+22687324+21146634+17023864+11273707+7152292+7529305+11690872
3804.86+16339267+19103154+19275582+16200421+9654406+2274908-923372+2496381
3799.72+9598304+15741793+18803972+19189602+18076434+16823950+16708037+17962338
3794.58+19624736+20831680+21606174+22238634+22715208+22948456+22924350+22599300
3789.44+22081060+21698758+21537566+21311924+20925288+20585346+20276968+19837798
3784.29+19519510+19738104+20354262+20875000+21032242+20609420+19317574+17464408
3779.15+16112926+16041920+17076172+18626042+20173124+21231876+21573108+21445464
3774.01+21159152+20763806+20306590+19752498+18548342+16163442+13314916+11840091
3768.87+12864604+15541774+17814180+18180520+16863176+15469727+15360724+16441846
3763.72+17752898+18711644+19268150+19243030+18185942+16025434+13670182+12549449
3758.58+13145361+14394085+15092597+15329531+15902271+16957890+17649186+16335969
3753.44+11301429+3035553-4240326-6382081-5019587-5110216-7344108-7399027
3748.30-2656615+4382491+9640203+10077681+3793333-7767361-17540018-17798124
3743.15-9077264+1221089+8030694+11503248+13455790+14706478+15241722+14675295
3738.01+12460118+8700195+4545670+1387044+194235+1425146+4273518+6305100+5642508
3732.23+3591019+3564810+6948694+11596646+14847689+16124818+16204425+15594512
3727.08+14481856+13329026+12727886+12936552+13719107+14344436+13989752+12765972
3721.94+12018581+12844619+14599164+15696230+15553427+14969610+14906296+15586508
3716.80+16576467+17220264+17159116+16529827+15263617+12490324+7782798+2950281
3711.66+961901+2402948+4849824+6382197+7642798+9888921+12848263+15404278
3706.51+17027164+17745704+17718718+17323126+16878960+16095025+14524448+12625499
3701.37+11663027+12410988+14392555+16437489+17654960+17919548+17701514+17515080
3696.23+17506240+17461580+17115170+16481889+15765221+14745898+12758919+9941980
3691.09+7744455+6798909+5157538+915746-3886713-4555889+427038+7605162+13132898
3685.30+16108214+17368136+17601340+17272578+16951176+16906408+16871186+16404865
3680.16+15331298+14019749+13235545+13070230+11949487+7693920+233715-7064603
3675.01-9694233-6023034+1476806+8493972+11513116+9421089+4143833-468279
3669.87-1689716+162114+3421017+7275259+11364040+14803325+16823244+17573058
3664.73+17656728+17517200+17498938+17768216+18093762+18212112+18188184+18133838
3659.59+18085510+18146100+17879592+16004593+12095435+8239096+7325081+9742552
3654.44+13352309+16134828+17226038+16290626+13451324+9377788+4742112+231846
3649.30-2800535-3045199-823442+2399089+5916140+9893735+13994928+17262918
3644.16+19215784+20130056+20422356+20387896+20360518+20597146+20977582+21069306
3639.02+20595022+19831190+19468318+19931592+20894832+21559178+21337194+20265638
3633.87+19037346+18619794+19376902+20348128+19634054+15811491+9285316+2590638
3628.73-894421+622016+5964990+12256672+17203416+20104924+21457154+22086494
3623.59+22466390+22618088+22456470+21904958+20687558+18605998+16257063+14849808
3618.45+15013037+16319952+18054982+19723358+20904512+21378634+21321490+20852100
3613.30+19833432+18689476+18561076+19679946+20497888+19591704+17673466+16692959
3608.16+17431650+19066002+20735126+22384876+24166082+25858132+27038134+27458786
3603.02+27171358+26481310+25831034+25559694+25655304+25826298+25983346+26431472
3597.88+27288362+27999660+27937108+27270832+26708852+26621358+26936772+27611582
3592.73+28588084+29561992+30203190+30331646+29690404+28128682+26127028+24565658
3587.59+23858678+23900288+24763054+26597446+28922546+30795718+31757186+32127808
3582.45+32430692+32849654+33268708+33613832+34020920+34571696+35029400+35107636
3577.31+34905632+34771288+34879948+35244260+35894932+36684932+37207048+37250968
3572.16+37106112+37168244+37413576+37362508+36446112+34547088+32294262+30617646
3567.02+29983664+30353590+31611672+33463776+35243664+36515364+37552508+38674652
3561.88+39574692+39880276+39857156+40019144+40500180+41125292+41669112+41882560
3556.74+41757280+41707048+42026692+42341260+42123348+41504484+41092252+41230728
3551.59+41876236+42887924+44026864+44866752+45084728+44758012+44197084+43636440
3546.45+43269372+43365128+44026632+44935224+45654872+46166592+46800092+47698488
3541.31+48648656+49405720+49861400+49987912+49905604+49894580+50095504+50366308
3536.17+50641340+51127276+51938424+52829220+53477480+53795928+53851744+53753672
3531.02+53644316+53574340+53423232+53100280+52735036+52551836+52683692+53139164
3525.88+53759672+54275080+54637248+55153844+56011612+56817452+56988420+56525920
3520.74+56107392+56385280+57375872+58516292+59220840+59372516+59294992+59320992
3515.59+59545640+59984772+60675396+61476296+62038576+62167680+62026396+61880776
3510.45+61908260+62317416+63242988+64339152+64937140+64892948+64853836+65363716
3505.31+66125220+66544928+66645328+66915172+67499080+68034072+68255120+68337232
3500.17+68593152+69070376+69583896+69990408+70316280+70646432+71029808+71499384
3495.02+72093384+72773264+73385840+73766112+73877440+73878416+74039240+74477136
3489.88+74959800+75174832+75169376+75257608+75516248+75747488+75975728+76465072
3484.74+77113904+77340472+76817160+75982776+75608384+76072616+77154728+78330664
3479.60+79229048+79876728+80465616+80941352+81050528+80804912+80602024+80838736
3474.45+81622840+82776480+83835968+84222296+83819520+83246448+83203432+83692632
3469.31+84220472+84544200+84850544+85375776+86140456+86926320+87368944+87293704
3464.17+86984064+86860624+86967936+87119600+87384456+87938096+88582784+88917144
3459.03+88898816+88834040+88931448+89167336+89470488+89796544+90120464+90440520
3453.88+90649800+90517696+90028616+89567560+89511552+89841544+90365432+90993304
3448.74+91570864+91813176+91697408+91631680+91990664+92686664+93337464+93700448
3443.60+93882992+94195328+94771000+95387424+95738632+95783272+95699024+95692896
3438.46+95944064+96467256+96906144+96827248+96305680+95879560+95879184+96159456
3433.31+96475360+96735704+96941616+97154784+97429600+97628944+97520312+97169512
3428.17+96938296+97027640+97263032+97346736+97118952+96724536+96613752+97115264
3423.03+97920632+98376064+98353472+98355800+98703128+99135392+99309976+99243024
3417.89+99123232+99018944+98889704+98686672+98407392+98134888+98036664+98283472
3412.74+98878288+99499320+99656240+99249408+98818216+98876448+99178152+99072624
3407.60+98426792+97703704+97299240+97292008+97682096+98350408+98911944+99054184
3402.46+98955416+99029256+99353464+99631784+99602040+99244744+98641832+97888832
3397.32+97210256+96987144+97436472+98211032+98581528+98227360+97669336+97616176
3392.17+98042440+98326832+98175912+97904672+97811496+97817752+97839480+97984720
3387.03+98204520+98221096+97952312+97599608+97232592+96782952+96465168+96619760
3381.89+97070352+97224248+96886280+96486392+96463688+96851544+97408488+97791720
3376.75+97734272+97335696+96990216+96856088+96718656+96476328+96344080+96467256
3371.60+96753136+97100040+97409104+97421616+96947512+96199080+95571488+95188064
3366.46+94899592+94608704+94392016+94366400+94516544+94658848+94633712+94515200
3361.32+94482712+94527208+94534320+94527456+94555880+94495824+94250600+93974152
3356.18+93830928+93766232+93741480+93852840+94052568+94092888+93939352+93913864
3351.03+94296800+94969344+95474240+95329800+94450728+93377160+92845120+93024768
3345.89+93388664+93351792+92781312+91961040+91357920+91330888+91784672+92216272
3340.75+92263896+92036928+91835456+91822968+92014168+92310288+92523688+92589448
3335.60+92616256+92599232+92362928+91970600+91785768+91930448+92120424+92166936
3330.46+92151992+92015640+91575504+91059744+91045184+91652368+92286160+92333432
3325.32+91776840+91018528+90445168+90258904+90450552+90782888+90908040+90657872
3320.18+90218544+89963200+90047840+90239088+90189320+89843008+89501896+89541392
3315.03+90095392+90949384+91730080+92269400+92674424+92942232+92756824+91978304
3309.89+91083232+90726872+91026584+91656288+92410808+93230536+93894024+94154648
3304.75+94039344+93653024+92905504+91795800+90728088+90179656+90253272+90784120
3299.61+91564128+92265240+92518064+92340040+92177456+92312376+92499944+92348120
3294.46+91799848+91182104+90924560+91208896+91752464+92046720+91878424+91491192
3289.32+91210600+91132064+91127288+90986824+90615552+90184912+89881168+89517672
3284.18+88808008+88005032+87685864+87894232+88073192+87886288+87555904+87425856
3279.04+87595848+87884104+87874448+87231680+86119720+85010440+84144272+83594512
3273.89+83524432+83778680+83687384+82955592+82208344+81960024+81764936+81123072
3268.75+80424232+80184040+80060432+79428984+78358256+77343032+76553128+75909440
3263.61+75489184+75370480+75283448+74793560+73824936+72836424+72389664+72527944
3258.47+72650000+72107320+70917184+69784048+69387368+69679136+69947560+69575896
3253.32+68633664+67655632+67034820+66776924+66698016+66594708+66316936+65854036
3248.18+65301652+64726844+64216528+63989656+64184068+64583444+64807120+64735420
3243.04+64511016+64206036+63726500+63015148+62164428+61352776+60751052+60445444
3237.90+60374380+60327644+60060160+59535648+59017416+58731460+58475380+57914116
3232.75+57213520+56887428+56973756+56952592+56574244+56140080+55875932+55687640
3227.61+55621792+55865960+56217244+56224216+55897808+55668412+55625512+55380172
3222.47+54713028+53893888+53342816+53292412+53634476+53912616+53729064+53285932
3217.33+53123920+53274532+53204328+52719436+52274012+52213324+52294284+52193652
3212.18+51935548+51613084+51183496+50749452+50614856+50836832+51012912+50710492
3207.04+49981200+49301524+49057932+49195048+49393504+49445848+49323320+49002600
3201.90+48495768+47955792+47542564+47304932+47342384+47773520+48316560+48318836
3196.76+47522220+46435896+45696236+45440664+45481420+45653204+45829892+45943716
3191.61+46074048+46271820+46438648+46566256+46780352+46915880+46485528+45368820
3186.47+44170204+43639304+44011460+44949088+45809932+46037220+45638492+45154164
3181.33+44942992+44804372+44533020+44374128+44585836+44954824+45086996+44909656
3176.18+44665648+44631360+44913716+45334400+45526368+45341812+45075644+45087356
3171.04+45352088+45553384+45502700+45297588+45158468+45213448+45448668+45806224
3165.90+46226624+46558004+46606928+46440564+46420952+46710500+47023424+47120444
3160.76+47188760+47420876+47630160+47661988+47707820+47819832+47646428+47082764
3155.61+46654288+46797816+47193184+47245468+46827364+46250536+45842328+45792596
3150.47+46062208+46316192+46224708+45877004+45621404+45528280+45334876+44897224
3145.33+44397180+44083720+44029976+44142612+44273540+44309140+44226708+44033320
3140.19+43683012+43150332+42543076+41997340+41499592+41019856+40728520+40785872
3135.04+40952236+40786116+40275564+39887068+39869432+39925928+39748336+39509856
3129.90+39527972+39669436+39461596+38759224+38008052+37718824+37846464+37941248
3124.76+37825988+37754904+37830628+37727280+37198716+36527024+36210176+36466100
3119.62+37157884+37910172+38263732+38048540+37609528+37369648+37285012+37057908
3114.47+36688144+36445280+36413268+36389596+36179248+35779076+35341652+35074936
3109.33+35127616+35493632+36003900+36373884+36341168+35886488+35275176+34801840
3104.19+34607588+34716960+34982436+35029996+34649912+34226524+34339672+34971852
3099.05+35551908+35712352+35562852+35325480+35094556+34898380+34693420+34437968
3093.90+34289396+34451876+34778180+34864616+34601172+34244112+33970776+33787540
3088.76+33835784+34278224+34843452+34962696+34528548+34137628+34332900+34865564
3083.62+35006092+34479212+33760332+33412094+33432648+33448686+33332620+33294720
3078.48+33452370+33629868+33680600+33715416+33820692+33812136+33526742+33137686
3073.33+32915690+32842884+32757020+32687786+32766284+32990400+33293770+33616088
3068.19+33749992+33477316+32981728+32691226+32653700+32528538+32224924+32015144
3063.05+32055152+32243684+32445772+32465362+32095398+31552562+31417024+31825920
3057.91+32223738+32188120+31914710+31680154+31458326+31239488+31161764+31145386
3052.76+30880192+30295114+29729656+29605624+30042008+30701516+31029340+30806396
3047.62+30359046+30054226+29864836+29656966+29553454+29729656+30138314+30612778
3042.48+31020560+31257884+31298944+31185852+30869040+30318242+29825586+29765586
3037.34+29984850+29950694+29571596+29341468+29559740+29931006+30045690+29898750
3032.19+29804240+29992914+30350860+30561296+30512540+30418000+30406612+30303296
3027.05+29996470+29708192+29675226+29830212+30012244+30220982+30499964+30745768
3021.91+30786346+30581580+30299502+30175202+30265578+30432234+30618120+30917328
3016.76+31278414+31450732+31365160+31272600+31340002+31402192+31228572+30844600
3011.62+30502932+30426894+30583714+30724532+30715160+30690960+30756566+30807702
3006.48+30845074+31059830+31390320+31479810+31290990+31227502+31475532+31788052
3001.34+32019060+32283812+32570100+32748232+32926378+33305890+33810472+34239952
2996.19+34567772+34807072+34850704+34683672+34496092+34486228+34755476+35314296
2991.05+35951080+36281448+36186744+36015316+36138800+36557604+37080524+37643344
2985.91+38297316+39056828+39799472+40267340+40287008+40065512+40054188+40424236
2980.77+40926480+41326744+41700608+42198884+42758404+43203588+43496716+43784412
2975.62+44255980+44972628+45803112+46544612+47152512+47790396+48611300+49539516
2970.48+50328800+50819324+51087476+51350864+51763696+52327036+52946448+53528728
2965.34+54009616+54367656+54673636+55063392+55557388+55960292+56083236+55996464
2960.20+55931568+56005960+56227344+56594924+56950308+56926500+56368568+55661316
2955.05+55278056+55183032+54991920+54514156+53835064+53087684+52458260+52178300
2949.91+52284808+52571512+52886332+53216688+53471236+53489964+53305256+53140120
2944.77+53141320+53256768+53326496+53221128+53034640+53091280+53519252+53934584
2939.63+53934460+53737228+53915376+54627040+55506448+56162680+56426388+56294168
2934.48+55965940+55758412+55768260+55842884+55922320+56072784+56151984+55909696
2929.34+55494424+55383900+55732696+56191404+56477956+56722112+57098084+57444544
2924.20+57455368+57074760+56529408+56025912+55532756+54893428+54081648+53275968
2919.06+52702156+52432596+52323796+52167740+51939984+51784328+51681796+51312496
2913.91+50495608+49548976+48912796+48570476+48163460+47559316+46977604+46615060
2908.77+46398348+46103580+45631444+45150456+44900924+44822420+44612836+44198756
2903.63+43789304+43437132+43042048+42840180+43227460+43953528+44205568+43704272
2898.49+43106272+43086460+43517140+43756700+43402388+42672940+42172272+42201392
2893.34+42343524+42005816+41247188+40648868+40511268+40672360+40940432+41184564
2888.20+41208780+41017476+40962736+41242056+41526792+41423608+41001136+40590920
2883.06+40377256+40394664+40658888+41118132+41636664+42099480+42430048+42543316
2877.92+42435660+42254620+42159628+42135880+42031228+41802496+41638448+41731028
2872.77+41958560+41969184+41619128+41112292+40633128+40132148+39574928+39092212
2867.63+38707056+38248608+37707276+37344772+37295368+37369888+37391916+37389176
2862.49+37337156+37084564+36694332+36481216+36551656+36658628+36667672+36746096
2857.34+36922108+36890928+36530592+36193520+36182460+36271812+36094904+35707832
2852.20+35471872+35579384+35940372+36351524+36570812+36372460+35728528+34919304
2847.06+34381156+34400052+34863664+35272680+35111320+34288328+33186268+32274672
2841.92+31760042+31569652+31529536+31516954+31504136+31486100+31403138+31201870
2836.77+30942958+30719314+30503288+30246838+30109616+30331054+30814106+31082616
2831.63+30814818+30235928+29816454+29764398+29966110+30239958+30409458+30283488
2826.49+29828314+29304006+29016304+29000064+29097856+29237500+29446986+29695738
2821.35+29898750+30041062+30165592+30274354+30300214+30162864+29862820+29530808
2816.20+29328430+29275436+29274842+29284448+29331154+29392806+29415094+29421734
2811.06+29474492+29538160+29514210+29359254+29144680+29037164+29170524+29452558
2805.92+29613332+29572310+29562348+29733566+29892112+29845268+29704398+29636574
2800.78+29622464+29657916+29876220+30252412+30485612+30328562+29839934+29254572
2795.63+28835666+28795962+29082804+29343842+29365418+29396002+29748864+30283370
2790.49+30614676+30657502+30614796+30576954+30473630+30332712+30298908+30432234
2785.35+30669250+30936074+31172798+31320542+31400410+31513870+31695942+31865920
2780.21+31958398+31973950+31875068+31637782+31455360+31662946+32303168+32957144
2775.06+33188526+33036126+32870318+32901320+33045750+33210618+33426352+33654228
2769.92+33734780+33652684+33673000+34043032+34660376+35200384+35471512+35528956
2764.78+35521348+35563564+35710332+35953936+36260508+36647684+37133008+37602748
2759.64+37873136+37955056+38123200+38590200+39213864+39670984+39879320+40072904
2754.49+40452732+40956772+41445552+41930644+42498196+43155348+43896436+44753476
2749.35+45645436+46335440+46724496+47014696+47437028+47957832+48414600+48797244
2744.21+49234332+49794308+50435212+51156284+52103456+53410504+54876972+55997904
2739.07+56530728+56907144+57761828+59120092+60396540+61160928+61591512+62176968
2733.92+63229476+64673008+66166648+67474176+68746776+70287224+72044072+73639992
2728.78+74921816+76179464+77712656+79463648+81210368+82948152+84915304+87247928
2723.64+89700328+91851744+93606960+95318144+97311504+99528936+101758336
2719.14+103968616+106255848+108664768+111220392+113924816+116674744+119383952
2714.64+122180608+125228472+128430368+131556168+134578400+137631840+140771120
2710.14+143984064+147285040+150661040+154091136+157643712+161370496+165145296
2705.64+168867056+172660032+176581920+180380416+183890208+187426544+191377488
2701.14+195616304+199724496+203605856+207517024+211637264+215895680+220143360
2696.64+224333600+228563040+232978784+237586160+242204144+246695040+251131296
2692.14+255613680+260055952+264306976+268416288+272631040+277152224+281976128
2687.64+286944384+291875936+296629248+301128128+305432992+309782976+314440928
2683.14+319449792+324557216+329389184+333711648+337639232+341604544+345974144
2678.64+350661664+355283232+359668192+363988480+368397792+372869216+377419136
2674.14+382165248+387087424+391984672+396731776+401355040+405831712+410055904
2669.64+414092224+418236704+422714176+427444704+432216704+436951584+441638688
2665.14+446134816+450296576+454276960+458439392+462924384+467519776+471994272
2660.64+476333536+480629728+484945504+489294368+493610528+497817664+502040224
2656.14+506553728+511362912+516085472+520446368+524599328+528776416+532938912
2651.64+537010304+541142784+545518976+550121088+554826624+559520320+564080000
2647.14+568482432+572889408+577368512+581667520+585591936+589447680+593720128
2642.64+598400256+603000960+607216960+611285568+615662272+620513856+625547456
2638.14+630299968+634597440+638699968+642956224+647425280+651888960+656132096
2633.64+660131904+664079872+668203520+672495488+676715584+680766400+684877184
2629.14+689258048+693775936+698154688+702308736+706341248+710411072+714641408
2624.64+719010112+723340032+727520576+731630464+735726528+739746880+743733632
2620.14+747871488+752169024+756378560+760350336+764191744+768010496+771757376
2615.64+775402240+779063936+782897536+786944896+791125952+795344128+799571456
2611.14+803777024+807794048+811432640+814746304+818017984+821450368+825036864
2606.64+828726976+832512896+836336448+840086144+843716224+847251712+850690624
2602.14+853996864+857202880+860472768+863995968+867754816+871458240+874796608
2597.64+877764736+880627008+883594240+886656704+889705024+892671424+895513024
2593.15+898190080+900771712+903468736+906406272+909417344+912232384+914831104
2588.65+917406400+920040064+922712320+925489664+928366336+931052928+933328000
2584.15+935442624+937793216+940364096+942806080+944853248+946487552+947984704
2579.65+949861760+952388992+955158016+957574848+959668288+961905408+964378816
2575.15+966686912+968512000+969934656+971278080+972868352+974795840+976797696
2570.65+978519168+979872192+981046400+982306496+983856896+985685888+987499520
2566.15+989045824+990435648+991923968+993534208+995163520+996806592+998424064
2561.65+999846784+1001000896+1002047104+1003153024+1004329408+1005510656
2557.79+1006659456+1007799808+1009002048+1010278848+1011515840+1012613440
2553.93+1013615808+1014603840+1015619968+1016743616+1018034624+1019357184
2550.08+1020478080+1021328768+1022017728+1022668480+1023375808+1024156864
2546.22+1024911808+1025652608+1026667328+1028112128+1029592640+1030562304
2542.36+1031010304+1031360448+1031896704+1032673216+1033748480+1035115904
2538.51+1036540928+1037760704+1038737792+1039590464+1040405312+1041177792
2534.65+1041838272+1042372672+1042976256+1043930816+1045212480+1046395072
2530.79+1047103680+1047457472+1047906176+1048721344+1049782976+1050828416
2526.93+1051750336+1052619648+1053502784+1054364800+1055155328+1055898432
2523.08+1056672896+1057533760+1058460736+1059366272+1060164160+1060851840
2519.22+1061492544+1062139328+1062799936+1063463040+1064105408+1064713216
2515.36+1065325824+1066008320+1066752704+1067476992+1068148544+1068787072
2511.51+1069350912+1069758144+1070069888+1070493696+1071120896+1071790208
2507.65+1072297664+1072625280+1072893888+1073170880+1073420736+1073562496
2503.79+1073569920+1073529024+1073554752+1073608448+1073501184+1073183360
2499.94+1072890624+1072868416+1073092224+1073370496+1073600576+1073741824
2496.08+1073663552+1073220160+1072461184+1071639936+1070992768+1070534720
2492.22+1070076032+1069438848+1068641280+1067881664+1067361216+1067097408
2488.36+1066847104+1066291008+1065372416+1064349888+1063399488+1062370240
2484.51+1061118912+1059812864+1058648192+1057536896+1056357376+1055183680
2480.65+1053989824+1052499264+1050641856+1048791552+1047270592+1045972800
2476.79+1044687808+1043388352+1041995456+1040282112+1038223040+1036127168
2472.94+1034256704+1032527616+1030686336+1028624384+1026496128+1024587520
2469.08+1023014272+1021552448+1019852608+1017804544+1015548352+1013236864
2465.22+1010954048+1008720960+1006443200+1004011712+1001562752+999394432
2461.37+997535680+995711360+993776000+991852224+989983168+988009216+985831168
2456.87+983497408+981058432+978627968+976458304+974630080+972834944+970752640
2452.37+968481792+966327296+964411840+962728256+961296960+959979520+958422528
2447.87+956466368+954372224+952428032+950567872+948600640+946576960+944687872
2443.37+942990016+941434560+940012736+938708608+937430784+936114944+934752384
2438.87+933284160+931650496+930006208+928637120+927601536+926664768+925633152
2434.37+924510528+923321536+922032320+920687040+919423744+918330432+917381760
2429.87+916497856+915611840+914741376+913972992+913269568+912422144+911348352
2425.37+910276928+909436480+908770048+908146752+907572032+907005568+906255680
2420.87+905267904+904283072+903536320+902994304+902448000+901713536+900760512
2416.37+899744256+898862912+898133696+897433024+896728384+896093760+895524736
2411.87+894914880+894200000+893396224+892564096+891794368+891130048+890493312
2407.37+889766144+888890624+887845696+886691456+885663808+884967424+884417664
2402.87+883586816+882347456+880986944+879757888+878615808+877443584+876272640
2398.37+875207872+874260928+873292800+872122496+870733568+869288128+867886784
2393.87+866462336+864990144+863591488+862292544+860898944+859269120+857518592
2389.37+855832384+854216128+852526336+850670912+848737984+846923712+845298880
2384.87+843667840+841800704+839763328+837810816+835994432+834128448+832120832
2380.37+830068224+828011520+825856320+823572672+821253440+818931328+816532992
2375.87+814047168+811597184+809282496+807059392+804796800+802393984+799845824
2371.37+797227520+794592256+791862464+788924096+785872704+782984896+780375296
2366.87+777863232+775291968+772755392+770359232+767962496+765395840+762731328
2362.37+760125120+757570176+755009856+752527424+750202560+747920128+745519680
2357.87+743039168+740678464+738602944+736824256+735165312+733357952+731305664
2353.37+729207680+727310592+725630400+724042624+722449920+720700288+718543616
2348.87+715854976+712783872+709576064+706386176+703265920+700168960+697003264
2344.37+693839296+690929216+688359360+685896960+683349056+680811072+678383488
2339.87+675935744+673321536+670593024+667900416+665392192+663164352+661076032
2335.37+658743680+655979712+653076992+650418752+648034880+645763712+643570688
2330.87+641461248+639328960+637113344+634926912+632834304+630668288+628242048
2326.37+625661056+623247808+621130944+619056512+616732416+614257984+611998528
2321.87+610065728+608173952+606023488+603605312+601099456+598678592+596438336
2317.37+594375488+592400960+590409472+588322624+586084160+583709248+581310464
2312.87+578995136+576784384+574665728+572596032+570436352+568035456+565411264
2308.37+562734336+560183488+557902784+555937664+554081152+551986944+549557760
2303.88+547017344+544569792+542253632+540121600+538208576+536289984+534032864
2299.38+531421856+528784416+526398560+524288000+522333120+520391712+518361664
2294.88+516235936+514053536+511776128+509326656+506739936+504170048+501759168
2290.38+499563200+497540352+495560096+493476416+491259168+489026144+486920768
2285.88+484976032+483088064+481104704+478949344+476660288+474310304+471943456
2281.38+469602048+467339168+465170912+463068288+460997376+458941088+456912352
2276.88+454954176+453043712+451048000+448907648+446785632+444850240+442998304
2272.38+441022528+438945376+436932896+434985664+432984416+430952128+429027232
2267.88+427227104+425417024+423466240+421372416+419273632+417333280+415530272
2263.38+413649888+411583840+409497344+407558176+405677664+403693056+401614944
2258.88+399536192+397490272+395545056+393818176+392241056+390510272+388424448
2254.38+386126944+383947488+382111328+380598240+379150688+377471264+375527296
2249.88+373564192+371722656+369899328+368073344+366436192+365000832+363447968
2245.38+361582848+359622176+357828576+356167872+354474976+352647200+350625472
2240.88+348492640+346574976+345108320+343892448+342545216+340944384+339177792
2236.38+337327584+335548736+334033376+332682912+331139232+329309888+327485696
2231.88+325847072+324249440+322587072+321004000+319631136+318356768+316939488
2227.38+315255712+313456512+311884544+310696128+309613184+308221504+306444288
2222.88+304542592+302760832+301188320+299865472+298772832+297749792+296565248
2218.38+295115456+293502144+291915776+290442048+289017344+287575968+286141952
2213.88+284722720+283244224+281695552+280191712+278784160+277368384+275892384
2209.38+274477664+273212480+271984608+270644160+269224800+267864288+266563360
2204.88+265169280+263640784+262176160+260953296+259850688+258647264+257402096
2200.38+256331920+255374288+254239952+252883584+251549152+250336880+249104384
2195.88+247801120+246572656+245489328+244464592+243440480+242413504+241300256
2191.38+240025792+238705472+237520640+236432848+235229232+233863040+232551440
2186.88+231494256+230633664+229763056+228757536+227607824+226331104+224971888
2182.38+223665040+222581904+221780144+221143568+220473072+219603200+218453632
2177.88+217056400+215565792+214220160+213195600+212461568+211805760+211031552
2173.38+210096944+209041552+207859168+206534384+205182608+204014096+203115584
2168.88+202347536+201527600+200659856+199871664+199175072+198417200+197489360
2164.38+196472608+195530768+194723584+193957888+193070688+191955760+190669488
2159.88+189418896+188409536+187666240+187004176+186184432+185151344+184097232
2155.38+183249744+182601216+181937280+181131584+180276816+179514688+178840416
2150.88+178136288+177335344+176510336+175789440+175187536+174556480+173763776
2146.38+172864256+172005312+171214784+170403056+169537536+168684880+167898768
2141.88+167168784+166487296+165857488+165226992+164521520+163775920+163134576
2137.38+162635648+162100848+161341712+160412368+159513744+158734720+158017648
2132.88+157301232+156564048+155823984+155180816+154724112+154316688+153672352
2128.38+152753712+151879536+151320528+150998064+150657504+150156720+149502528
2123.88+148743104+147919456+147064192+146237616+145542464+145034304+144619200
2119.39+144147488+143598096+143062800+142571872+142057584+141497744+140979200
2114.89+140581760+140262320+139893248+139381808+138733968+138020528+137342448
2110.39+136804480+136422912+136058208+135532864+134834976+134118848+133517368
2105.89+133049576+132680256+132343728+131924168+131324504+130570312+129800576
2101.39+129142792+128613672+128137192+127691512+127380760+127255616+127124280
2096.89+126734504+126120592+125553808+125161496+124825624+124437936+124006768
2092.39+123507776+122866144+122128632+121477656+121004032+120591360+120088272
2087.89+119540248+119155704+119037176+119030352+118888504+118515512+117999296
2083.39+117474184+117007096+116533816+115913664+115169240+114595720+114406144
2078.89+114340392+113918504+113049112+112114200+111491000+111235720+111162048
2074.39+111020776+110652120+110128584+109657064+109273344+108833784+108346904
2069.89+108051312+108062664+108175944+108110296+107765376+107188712+106489392
2065.39+105853696+105467008+105296192+105055384+104493952+103694856+103014752
2060.89+102736824+102842544+103080240+103157304+102881816+102290352+101651680
2056.39+101222912+100962208+100616328+100075568+99526472+99207384+99122376
2051.89+99011192+98596520+97886992+97182520+96751288+96568600+96444192+96265448
2046.75+96026000+95758632+95519856+95298288+94921896+94249864+93441824+92831032
2041.60+92546096+92418888+92236352+91953328+91689936+91570616+91516280+91284880
2036.46+90814328+90326776+89957952+89553856+89016264+88549680+88349048+88309832
2031.32+88220160+88009184+87709552+87396168+87179304+87066352+86897744+86586080
2026.18+86266408+86061992+85902248+85705424+85528400+85406640+85235368+84922992
2021.03+84533352+84197680+83919112+83538808+82924768+82208344+81736680+81688344
2015.89+81843232+81812304+81423408+80836912+80379208+80264832+80376544+80359984
2010.75+80025272+79553400+79183928+78889904+78537560+78187720+78005776+77976000
2005.61+77923376+77748984+77486048+77174280+76847152+76608864+76563680+76651008
2000.46+76660968+76448424+76054768+75605592+75181992+74827896+74590936+74493392
1995.32+74483208+74419872+74102792+73405480+72485648+71768560+71552080+71647288
1990.18+71599688+71241512+70841264+70696192+70813784+71031984+71229888+71302680
1985.04+71143656+70787992+70434920+70242672+70232392+70391216+70633240+70667864
1979.89+70209752+69390512+68712416+68497232+68603192+68728752+68784752+68842936
1974.75+68911040+68919624+68885160+68909112+68962696+68812824+68294912+67561096
1969.61+66887624+66312956+65691228+65055700+64691356+64808692+65321584+65949340
1964.46+66416128+66547220+66325876+65912612+65562968+65440764+65478564+65463944
1959.32+65308416+65179580+65290900+65599928+65806452+65622872+65003060+64157036
1954.18+63401492+62960504+62848712+62904544+62907560+62722444+62428224+62262084
1949.04+62344428+62507324+62471520+62116940+61571496+61119844+60968512+60930804
1943.89+60495432+59492308+58545656+58471284+59289456+60248396+60755632+60857912
1938.75+60845864+60816832+60735032+60630828+60575536+60597456+60705272+60899960
1933.61+61087068+61068876+60718524+60143616+59617152+59339656+59303900+59375776
1928.47+59447280+59484964+59477976+59431268+59388656+59297164+58870820+57888736
1923.32+56712856+56129392+56489020+57381524+58218008+58545656+57853608+56022908
1918.18+54159092+53883680+55350136+57016440+57713596+57800560+58043320+58442648
1913.04+58616532+58503536+58262884+57968852+57649968+57350256+57100368+56959332
1907.90+56985896+57112872+57211964+57260064+57284596+57279664+57294332+57407620
1902.75+57534744+57506480+57352660+57236012+57162896+56998764+56724156+56498748
1897.61+56507292+56737144+56871912+56597208+56117492+55999468+56381796+56817212
1892.47+56971588+56882856+56437448+55381732+54053200+53387708+53879000+55015344
1887.33+55971352+56416652+56542152+56639044+56797488+56931792+56981332+56998644
1882.18+57002008+56915680+56738220+56618244+56664888+56803988+56875400+56807952
1877.04+56696024+56695424+56794968+56777172+56507528+56138640+55921476+55944432
1871.90+56030716+55629120+54040708+51317776+48829092+48201764+49614856+51786720
1866.76+53534252+54625596+55273848+55601484+55744948+55969068+56383240+56770200
1861.61+56879132+56778136+56728244+56776576+56748440+56615236+56544316+56565348
1856.47+56568716+56613080+56834768+57122492+57250684+57221464+57159288+57089904
1851.33+57012716+56897164+56567396+55947552+55351456+55204776+55627076+56233952
1846.19+55867156+53018200+47880872+43714424+44083720+48426572+52867256+55085728
1841.04+55796380+56229508+56537940+56615720+56615000+56488416+56162436+55986132
1835.90+56252580+56696024+56898004+56762624+56450672+56127580+55571684+54031704
1830.76+51260940+48695832+48454108+50881296+54223204+56555612+56891036+55151200
1825.62+52459104+50880696+51547136+53468840+55053900+55892512+56421460+56831884
1820.47+57020408+56970024+56692300+56184792+55636324+55361432+55478568+55841804
1815.33+56219168+56449708+56511492+56437692+56106548+55308204+54180584+53367904
1810.19+53479280+54407644+55422700+55993580+56320008+56844140+57461620+57670780
1805.04+57372864+56886828+56236356+55169940+53889444+52932652+52318884+51691744
1799.90+51299908+51885300+53469800+55044528+55641976+55238412+54616348+54467684
1794.76+54315304+52559516+48470028+44027700+42511088+44809756+48706364+51976924
1789.62+54191508+55559428+56065452+55996584+55747352+54969936+53313896+51797268
1784.47+51910124+53527528+55123208+55667328+55161532+54066764+53192808+53312452
1779.33+54208316+54972940+55339324+55531436+55239856+54257548+53348700+52639532
1774.19+50187768+44499336+37799668+34644560+37047432+42775952+48197212+50793076
1769.05+50017148+47744556+47119848+49433992+52819504+54889220+55351456+55280460
1763.90+54830728+52879972+49124156+45709984+45632756+49188824+53439308+55654952
1758.76+55559912+54014656+51684072+49835760+50208016+52678768+55091972+56202100
1753.62+56322292+54838780+50381524+44432788+41454740+43417908+47250016+49575088
1748.48+50439648+51363928+52671928+53912252+54936064+55559548+55387260+54587408
1743.33+54196192+55128136+56728724+56718872+53626196+49379612+47975068+50723080
1738.19+54905676+57765796+58558404+56282872+49013620+37339296+26750172+24136874
1733.05+31088076+42449628+51632028+55551620+55481816+54764312+55526148+57357828
1727.91+58847956+59399248+59384440+59328700+59313412+59081328+58603892+58336636
1722.76+58723392+59636420+60497604+60683828+59405384+55422824+47905768+38613904
1717.62+32634820+34156640+40904892+46698780+49142476+50978752+54580564+58656964
1712.48+61204308+62187092+62284024+61835212+61650448+62529752+63708768+63613572
1707.34+61930080+59727924+58187324+57913516+58813296+60503264+62941452+65185008
1702.19+63506076+54016456+39041932+28966164+32950020+47864236+62453180+68273256
1697.05+63442504+52736716+46357920+52096260+66405372+79635384+87196640+90895432
1691.91+93471480+95510416+97114768+99273128+102419056+105886720+109562712
1687.41+113646824+115898168+112214624+102097160+92295960+91937304+102539168
1682.91+117399272+130215544+138996464+144398688+148166208+152166544+157105200
1678.41+162291792+166554800+168463552+166747568+162651904+161244048+167093488
1673.91+178207280+188077216+193168912+195186208+196844496+198087936+197929280
1669.41+198158880+202359968+211158240+221092432+228807936+234144416+238711808
1664.91+242897984+245390448+245662224+246007296+249844848+257654912+266327152
1660.41+273152576+278375392+283376448+288421312+293082048+297172128+300261024
1655.91+301264448+298676576+290769312+277455584+264427424+262998080+278700256
1651.41+302662240+322185024+332385120+335198080+334171072+331702592+328693216
1646.91+325521824+323948896+327145056+335699136+345316544+351382656+353623968
1642.41+354492064+355190400+355434464+355392992+355181888+353784704+350593760
1637.91+346285184+340432544+331013248+319073120+311280640+313001952+320438432
1633.41+325473024+324765760+320353856+314950528+309449024+303560544+296515776
1628.91+287696192+277894208+269197184+262808064+257726832+251813552+243400688
1624.41+232515152+221552448+213799904+210068848+207908272+204699200+200026752
1619.91+194930512+189773600+182878416+171753632+157175200+145705872+144238752
1615.41+150893760+157459920+159484608+158415968+156641856+154625808+152409920
1610.91+150533392+149070352+147734080+146694848+146044576+145290128+144216384
1606.41+143275888+142717712+142314144+141941808+141568672+140987856+140212384
1601.91+139587472+139185312+138778096+138434992+138330960+138220176+137851616
1597.41+137430640+137066480+136488032+135784176+135556992+135999616+136676240
1592.91+137316640+137971296+138520096+138783856+138897568+139079232+139454544
1588.41+140295584+141755360+143379696+144622608+145581344+146548064+147417120
1583.91+148165824+149082064+150089264+150850608+151611008+152777952+154031136
1579.41+154993344+155573760+154224432+148146320+137982320+130922024+134485328
1574.91+146587600+158269456+164411648+166448240+167396496+167458672+164942656
1570.41+160080672+156318144+157112144+162056832+167731696+171508608+172855696
1565.92+172315424+171019392+170469936+171406112+173077296+173750128+171022208
1561.42+162478800+148227680+132833720+122286016+118759568+121503000+130471072
1556.92+143690224+154584704+157325648+152989328+148489216+149344224+154532384
1552.42+159384128+160853520+159057568+156134464+154436112+154837872+156366688
1547.92+157438544+156916272+154091264+149057760+143730688+140694320+139468832
1543.42+136113152+128495080+119635336+113238800+107784136+99871800+92170008
1538.92+92306992+102277184+115027056+123450304+126157336+124744104+120144656
1534.42+113206880+106920424+105041224+107873224+111902864+114208544+114749272
1529.92+114230944+112491920+109948096+108124608+107242984+105497200+102219336
1525.42+99661904+99968520+101759080+101343944+96418552+88117784+80761816
1520.92+79381304+85462648+94875688+101316512+101729176+98473096+96591416
1516.42+98537928+102503344+105994096+108173736+108508120+106430448+103178352
1511.92+101297456+101368288+101492896+100214960+97390192+92405664+84209392
1507.42+73718088+64927012+62812168+69446904+81800128+93944256+101634344
1502.92+104548640+104946728+105051824+105340936+104681936+102372904+99966920
1498.42+99477208+99662264+97426888+93630000+93570080+99620608+107546728
1493.92+112689968+114766224+115230312+114023720+110929808+107857192+107522184
1489.42+110402992+114349928+117182048+118941616+121426696+125638488+130425128
1484.92+134166880+136776048+139153472+141516320+143380080+144828560+146659856
1480.42+149279696+152304160+155313536+158071840+159972832+160546864+160867968
1475.92+162833376+166152016+167942416+166482720+163788240+163616064+167915552
1471.42+175854720+185027472+192818864+197842720+200679664+202746160+204526112
1466.92+205257168+203994784+201058688+198998496+200958144+206738928+212479536
1462.42+215571120+217087056+218420048+218677168+216938720+213773184+208861184
1457.92+200914000+192333600+190189648+198225056+211284672+221946240+227665952
1453.42+229834128+230185056+229767936+229536816+230081952+230910240+230815632
1448.92+229193632+226930272+225812048+226771472+228926864+230686480+231366656
1444.42+231340496+231026912+230412848+229534976+228711456+228002704+227113616
1439.92+226069712+224870992+221972816+215004224+204711360+196765728+196380832
1435.42+201494064+205621776+205715520+203442352+200941568+198376880+195151616
1430.92+191169904+186868864+183237840+181194880+180254288+178972592+176926768
1426.42+174727824+172283168+168930448+165086336+161917024+159720800+158051440
1421.92+156338640+152984032+145894592+136023904+128667056+128197176+132615008
1417.42+136761008+138457568+138808672+138986192+139030576+138811040+138396512
1412.92+137743600+136868368+136055952+135512944+135171184+134958976+134913056
1408.42+135021168+135186192+135205472+134673360+133329088+131771008+131241312
1403.92+132160920+133427616+133790344+133217440+132123432+130045176+126452192
1399.42+122451352+120120816+119995896+120539832+120032280+117739320+113829144
1394.92+109575432+107126912+107537360+109405488+110546584+110214448+108995272
1390.42+107454696+105530240+102715776+98720200+94499752+92175872+92837648
1385.92+95046576+96637056+96997824+96711168+96130632+95321216+94556136+93969624
1380.78+93305384+92480712+91863616+91776840+92147592+92598744+92589936+91730936
1375.64+90182344+88574488+87560064+87645672+89051088+91338480+93595936+95277816
1370.50+96375120+96824544+96572640+96187792+96395864+97006912+97241680+96878912
1365.35+96112240+94746120+92672952+90724296+89893992+90037792+90373496+90788160
1360.21+91649792+92776544+93520224+93591776+93180072+92535808+91867408+91401744
1355.07+91222840+91179040+91077128+90846008+90505344+90112760+89734680+89418528
1349.93+89204616+89124552+89131040+89135056+89109144+89070656+88994384+88916528
1344.78+89026168+89416448+89843984+89917232+89439552+88471000+87258056+86188784
1339.64+85616608+85603312+85927384+86288016+86449984+86368192+86301432+86593888
1334.50+87232904+87783944+87819480+87316424+86645648+86254088+86276296+86453888
1329.36+86497216+86431776+86425072+86459128+86392000+86209536+86063816+86170104
1324.21+86645288+87276744+87604880+87438416+87039496+86617696+86051856+85341256
1319.07+84795664+84501648+84152200+83651552+83358568+83476040+83688480+83626320
1313.93+83322488+83061112+83040024+83243768+83496520+83620960+83591832+83495784
1308.79+83390608+83310536+83306528+83366968+83383296+83321880+83313960+83477384
1303.64+83731384+83902888+83974568+84106480+84387264+84676032+84810296+84878352
1298.50+85079728+85375168+85550360+85609040+85801584+86252256+86818272+87340976
1293.36+87790032+88162984+88462920+88792360+89264128+89808888+90231632+90494336
1288.22+90809312+91377384+92081616+92538872+92530672+92313848+92395992+93003096
1283.07+93924656+94891496+95850120+96779032+97512800+97972696+98378896+99015256
1277.93+99920328+100966400+102080672+103252464+104468568+105734856+107013184
1273.43+108130040+108953416+109654976+110580304+111855384+113285816+114624936
1268.93+115846760+117162576+118768008+120578080+122330392+123997680+125811224
1264.43+127804072+129699376+131380824+133088832+135019776+137156784+139571664
1259.93+142427168+145592784+148684000+151560160+154442672+157503344+160642320
1255.43+163747616+166940112+170434032+174218672+178013360+181606272+185144928
1250.93+188926896+192941056+196820624+200298512+203606144+207295392+211669008
1246.43+216444592+221117152+225581776+230145664+234993264+239999792+245091952
1241.93+250370160+255842016+261415152+267122736+272990688+278821280+284493632
1237.43+290306208+296603712+303203584+309560224+315420480+321080736+327055200
1232.93+333586496+340434048+347116704+353387712+359414112+365508992+371816128
1228.43+378243296+384546816+390524416+396204096+401813376+407497792+413196576
1223.93+418826688+424475040+430301184+436274848+442076096+447361792+452130688
1219.43+456653024+460998592+464959104+468556384+472214944+476158848+479988640
1214.93+483158880+485621568+487741056+489801312+491792160+493542688+494923040
1210.43+495954336+496738528+497259936+497355456+496904064+495936288+494536576
1205.93+492796800+490832992+488696416+486268928+483410272+480164352+476675200
1201.43+472960544+468947936+464684352+460298432+455749696+450814112+445373088
1196.94+439598944+433779168+428022336+422205728+416215072+410173536+404318976
1192.44+398648480+392844064+386638880+380107008+373499584+367036256+360959456
1187.94+355479424+350468640+345460448+340151456+334736416+329615104+324948832
1183.44+320566208+316205760+311825568+307639424+303771520+299981728+295984736
1178.94+291930944+288260832+285143008+282346944+279580608+276748224+273967744
1174.44+271440832+269236832+267202160+265164048+263089184+260999728+258959536
1169.94+257176368+255826176+254795104+253867040+252990304+252079008+250882656
1165.44+249413056+248119616+247329760+246910560+246661488+246539664+246367328
1160.94+245852224+245001952+244132640+243442352+242907632+242474288+242113088
1156.44+241843920+241821728+242191472+242838880+243481872+243969904+244337584
1151.94+244726176+245386448+246583344+248350432+250420336+252404224+254022832
1147.44+255351168+256820416+258781200+261139168+263683168+266494160+269624544
1142.94+272701376+275414496+278132384+281476800+285453472+289480864+293182400
1138.44+296782784+300760000+305344416+310387936+315622592+320946752+326382528
1133.94+331870816+337352992+343015424+349182272+355928928+363019040+370211360
1129.44+377460928+384841120+392432672+400291456+408423456+416774656+425267296
1124.94+433848576+442554144+451551488+461015296+470891936+480879904+490800128
1120.44+500864192+511379744+522255584+533056064+543566080+554002752+564585664
1115.94+575217728+585716736+596090176+606407808+616670656+626921856+637241088
1111.44+647579648+657875008+668219264+678554432+688365248+697177600+705272256
1106.94+713413056+721916480+730371968+738270656+745623040+752903872+760441728
1102.44+767912832+774662528+780590912+786294848+792148800+797826368+803044416
1097.94+808162880+813629760+819336000+824859328+829912000+834371264+838336192
1093.44+842209408+846334336+850590464+854702976+858723648+862827520+866884608
1088.94+870605376+873907648+876922048+879816192+882695552+885490240+887937024
1084.44+889852864+891333056+892570368+893646144+894547456+895159296+895161792
1079.94+894202176+892252288+889652864+886764224+883648384+880080960+875846400
1075.44+871033792+865982208+860829184+855241920+848785344+841529152+834015936
1070.94+826526080+818578176+809414592+798893440+787558912+775894208+763932032
1066.44+751622784+739079168+726306688+713183360+699832448+686556928+673341504
1061.94+659870208+646104512+632373056+618862272+605420224+591959872+578760640
1057.44+566221248+554397632+542872128+531162912+519274272+507648768+496533824
1052.94+485658880+474689536+463741024+453246208+443425184+434014560+424539584
1048.44+414873472+405423296+396646208+388516992+380723808+373202016+366106240
1043.94+359358368+352617568+345704256+338807488+332262752+326234496+320615776
1039.44+315167392+309762304+304446816+299318560+294442368+289805248+285221056
1034.94+280452192+275588960+271076256+267210432+263861408+260785728+257836736
1030.44+254796960+251470384+248050576+244993360+242476944+240286144+238148720
1025.94+235911120+233607632+231581552+230229184+229433104+228652272+227642704
1021.44+226621872+225717552+224838800+224099200+223762576+223758912+223790096
1016.94+223823584+223985280+224174912+224310288+224728880+225820960+227440048
1012.45+229138496+230741408+232290688+233737504+235174976+237158768+240242448
1007.95+244251696+248496800+252693312+257238544+262522144+268462240+274945696
1003.45+282221248+290468224+299362464+308496416+317919840+327848256+338157696
998.95+348656032+359555072+371184640+383441312+395964832+408706304+421890496
994.45+435432352+448752416+461359168+473397472+485291232+496805792+506885152
989.95+514631488+520014656+523316512+524371584+522842656+518783232+512454880
985.45+503993088+493656320+482000384+469480640+456233888+442409184+428338848
980.95+414284224+400353376+386702464+373539200+360940928+348851264+337221056
976.45+326037376+315293728+304987168+295134720+285815424+277152480+269148128
971.95+261610288+254399696+247617696+241379008+235586544+230135936+225152656
967.45+220822080+217123472+213812528+210579344+207258256+204000352+201108640
962.95+198594800+196152976+193695632+191569248+190007936+188698224+187184320
958.45+185483200+184069408+183354784+183299904+183417776+183114336+182176928
953.95+180952240+179948800+179338448+178983184+178824800+178937776+179257312
949.45+179543248+179635408+179522768+179217648+178798048+178492800+178486752
944.95+178683008+178849984+178894528+178865216+178815568+178790752+178872752
940.45+179172080+179744848+180421904+180783568+180554576+180006256+179659728
935.95+179678816+179896032+180241728+180737328+181294544+181952144+183012656
931.45+184459584+185565760+185592464+184711744+183845024+183724464+184323824
926.95+185136208+185810240+186456640+187279520+188072304+188396176+188221424
922.45+188045328+188332288+189090880+189988384+190681056+191062128+191301744
917.95+191633248+192132624+192785504+193569536+194329824+194831152+195124048
913.45+195556288+196257680+196977520+197580816+198285904+199205200+200064768
908.95+200586256+200835984+201044576+201335232+201719824+202147616+202529744
904.45+202851328+203184912+203497936+203632960+203593440+203628544+203922352
899.95+204434192+205120624+205975792+206784208+207218672+207290720+207357728
895.45+207613120+207920080+208156208+208348032+208449344+208329840+208026064
890.95+207719840+207490672+207286304+207076400+206872080+206623392+206207120
886.45+205541872+204742768+204140464+203970800+204047936+203942688+203537056
881.95+203155760+203094608+203264464+203358512+203179984+202780352+202379264
877.45+202123504+201884000+201389200+200623104+199908528+199488896+199198864
872.95+198708928+198012864+197448144+197206368+197045840+196641376+196007632
868.45+195348272+194649280+193737920+192676752+191797584+191334480+191179552
863.95+190962352+190363888+189460832+188716496+188427952+188332528+188102016
859.45+187969728+188404800+189346352+190306640+191032128+191494688+191376576
854.95+190227472+188240336+186428480+185896400+186905744+188552032+189549472
850.45+189636576+189905360+191121104+192301776+192082528+190909584+190300192
845.95+190307152+189560800+187848640+186763664+187493504+189574048+192044784
841.45+194608544+197315888+199931808+201779248+201920480+199889776+196479088
836.95+193339072+191756384+192080080+193873824+196054992+197282960+196950896
832.45+195613200+194034880+192157232+189477040+186224928+183685200+182992128
827.96+183703792+184060656+182968416+181243056+180385280+180592496+180791136
823.46+180310864+179483344+178612016+177440080+175945040+174710592+173972720
818.96+173154224+171903280+170693936+169739408+168326720+166171104+164411920
814.46+164082208+164503744+164366816+163613152+163041264+162798096+162464480
809.96+162037424+161768496+161503920+161036608+160710144+160852128+160928080
805.46+160102336+158538928+157349168+157174400+157488912+157498800+157098976
800.96+156703600+156653616
##END=
