##TITLE=octarelline 6 front
##JCAMP-DX=4.24
##DATA TYPE=INFRARED SPECTRUM
##DATE=31/1/2005
##TIME=16:58:36
##SAMPLING PROCEDURE=film
##ORIGIN=Vincent
##DATA PROCESSING=no operation
##XUNITS=1/CM
##YUNITS=ABSORBANCE
##RESOLUTION=2
##FIRSTX=4000.283
##LASTX=800.31372
##DELTAX=-0.64282227
##MAXY=0.23607437
##MINY=-0.0037674156
##XFACTOR=1
##YFACTOR=2.1986139e-010
##NPOINTS=4979
##FIRSTY=0.0052905702
##XYDATA=(X++(Y..Y))
4000.28+24063207+24030432+23692944+23398292+23311796+23196476+22887122+22595208
3995.14+22466236+22304288+22102226+22296192+23043046+23776240+23923534+23599768
3990.00+23245200+23048884+22968836+22906898+22741580+22492552+22366326+22387164
3984.86+22297620+22057462+21990312+22211292+22418840+22471952+22588182+22773498
3979.71+22679406+22228198+21838046+21772810+21767214+21526168+21223504+21218270
3974.57+21529262+21866376+22026624+22052700+22053890+22053652+22022220+21971620
3969.43+22009124+22265110+22700368+23045906+23056030+22727046+22210814+21708288
3964.28+21464392+21569374+21742216+21721264+21755072+22199028+22798150+22994800
3959.14+22751702+22435630+22179384+21975906+22047460+22482788+22875572+22827214
3954.00+22484336+22260706+22322980+22481480+22336436+21644010+20739432+20275584
3948.86+20347550+20386212+20112742+19967282+20356470+20996684+21272298+20872814
3943.71+20002962+19249408+19216594+20054108+21286698+22193908+22363350+21951618
3938.57+21488912+21382984+21635916+22067820+22593422+23071990+23128218+22437180
3933.43+21150910+19904130+19381978+19788056+20638538+21221718+21348468+21479390
3928.29+22025314+22755872+23038280+22545190+21582828+20730270+20286646+20205402
3923.14+20426302+20864722+21114492+20731460+19920066+19390180+19397076+19412058
3918.00+18927122+18223292+18167208+19267480+20988236+22241654+22656780+22867948
3912.86+23353852+23740372+23583204+23075210+22634628+22490648+22786598+23335504
3907.72+23416398+22500532+20780244+18485328+15588119+12709848+11048379+10765547
3902.57+10847823+10958991+11762567+13124870+13849295+13670268+13950314+15797703
3897.43+18629016+21051424+22330008+22674048+22670354+22690246+22535426+21472964
3892.29+18989768+15909269+14341405+15664903+18833694+21622702+22932268+22690484
3887.15+20486022+16239015+11994725+10898967+13726227+18079158+21297290+22457302
3882.00+21689600+19352608+16469444+14843602+15725782+18603344+21887450+24449390
3876.86+25927478+25972452+24202652+21135676+18448248+17745064+19136466+20961104
3871.72+20764656+17079184+11120604+6575632+6642377+11132918+17103528+21549854
3866.58+22821974+20768106+16987502+14394892+14944792+17594906+19649398+20019972
3861.43+20058626+21251232+23369220+25262528+26123246+25670654+24332214+23012312
3856.29+21077960+15441212+4263051-8673267-16284101-16006635-11317193-5178842
3851.15+2437378+10943836+17953806+22051390+23944386+24882864+25548876+26170374
3846.01+26480124+25806282+23942242+21699124+20288668+20217060+20762514+20721228
3840.86+19842644+18758454+17013746+12908815+6801983+2760050+4197685+9153263
3835.72+13249323+15357080+17381570+20006056+21479390+20522780+18434938+17749578
3830.58+19538216+22545666+24797018+25400030+24628918+23126908+21730430+21432734
3825.44+22533758+24109212+24892880+24108380+21193754+16018348+10181896+6819233
3820.29+7825965+12117210+17185952+20693628+20424398+15288142+7662494+3001882
3815.15+4916835+11511251+18273560+22683456+24861998+25737214+25941076+25873080
3810.01+25811408+25572730+24109688+20212540+14529269+10394930+10915186+15267498
3804.86+19896872+22512916+22613784+19432626+12558768+4784763+1391796+4825953
3799.72+12104535+18673826+22334056+23175034+22203434+20889354+20658764+21821498
3794.58+23466322+24671122+25322872+25729460+26020290+26101532+25862820+25340402
3789.44+24826470+24699972+24981110+25252154+25143638+24649070+23940694+23249134
3784.29+22929884+23218396+23902558+24539274+24784502+24263680+22675120+20523614
3779.15+19186518+19612534+21336090+23186590+24445458+25040848+25171780+25081032
3774.01+24987670+25059572+25293776+25150792+23617404+20351238+16744903+15090003
3768.87+16331612+19135396+21262778+21471892+20245606+19117206+19240732+20503748
3763.72+22048650+23255922+23885992+23639326+22158188+19642502+17261490+16449381
3758.58+17400930+18735274+19187706+19069298+19486846+20698146+21595208+20099660
3753.44+14362870+5273558-2391922-4381336-2727510-2736681-5007858-4923065+209466
3747.65+7649964+13009906+13066439+5915158-6715865-17135412-17046704-7149967
3742.51+4341518+11779149+15420089+17476238+18860436+19401002+18750964+16599333
3737.37+13036928+8885366+5355487+3596390+4259511+6565827+8189715+7493836
3732.23+5838873+6409903+10374691+15544332+19234074+20823196+21064396+20345052
3727.08+18681312+16712366+15603072+15928732+17145928+18127994+18072386+17206854
3721.94+16680189+17378480+18871492+19993566+20246080+20108460+20242038+20912794
3716.80+21908878+22587588+22372400+21334544+19624426+16506843+11394723+6023923
3711.66+3678251+5281113+8273303+10275273+11608718+13551479+16099417+18476534
3706.51+20389660+21841140+22650348+22716924+22112232+20736340+18510642+16027487
3701.37+14517409+14883816+16828852+19041600+20349574+20693628+20853180+21321690
3696.23+21828048+21861618+21304312+20578696+20140456+19562948+17644680+14269655
3691.09+11279979+9817068+7862608+3115440-2378986-3469976+1650076+9358024
3685.94+15462570+18788048+20108342+20295566+20017710+19788412+19724196+19665332
3680.80+19389112+18630682+17477782+16669265+16442020+15109816+10286990+2152947
3675.66-5380576-7721901-3676349+4088076+11426224+14691292+12300006+6164700
3670.52+840119-338584+2154597+6134584+10473878+14717744+18045414+19972276
3665.37+20904824+21289438+21154122+20736816+20543722+20693628+20974668+21310262
3660.23+21652700+21918760+22163664+21957454+19971204+15697536+11316925+10039411
3655.09+12472984+16348824+19388752+20591546+19508726+16125651+11250377+6100452
3649.94+1797141-526216-203204+2063724+4922383+8030115+11894988+16315703
3644.80+20133678+22460280+23339914+23322994+23015054+22936316+23290710+23813064
3639.66+24068452+23918170+23622648+23571410+23964648+24631780+25055994+24682090
3634.52+23432364+21999600+21403574+22003766+22892006+22265350+18571610+11909320
3629.37+4805417+1047083+2690489+8312437+14732216+19765700+22994444+24915056
3624.23+26065862+26670098+26730962+26309728+25439390+23825814+21269204+18554972
3619.09+17109348+17524702+19208274+21452492+23735844+25245716+25407186+24710108
3613.95+23926034+23031490+22073176+22098062+23533640+24621528+23389596+20502796
3608.80+18575174+19004868+20956582+23191474+25362108+27513880+29398022+30580856
3603.66+30876230+30498472+29893066+29444628+29299196+29354166+29384758+29372566
3598.52+29652222+30416212+31191738+31328458+30889146+30511984+30567464+30967716
3593.38+31572142+32276316+32994386+33731292+34208972+33546978+31221644+28219716
3588.23+26204734+25638926+25854948+26713538+28676234+31384682+33608652+34717804
3583.09+35204480+35675560+36112588+36294736+36362372+36639420+37098972+37379120
3577.95+37357524+37383436+37730476+38155704+38306236+38310556+38604804+39338996
3572.81+40218372+40841856+41048720+40931164+40526000+39562888+37774880+35480280
3567.66+33547338+32697268+33051260+34288400+35930932+37563672+39032032+40418804
3562.52+41716840+42683892+43128608+43216336+43361112+43816692+44396400+44749004
3557.38+44889080+45197800+45804904+46321916+46321068+45752488+44828976+43912036
3552.24+43504096+43936716+45014340+46259724+47349832+48085716+48260284+47899940
3547.09+47411340+47273012+47660024+48378404+49062168+49542480+50037292+50804372
3541.95+51714128+52423464+52780644+52797092+52553920+52368092+52612204+53175144
3536.81+53593796+53784224+54068204+54540540+55031880+55559544+56210792+56761796
3531.67+56951188+56852432+56627904+56303220+56006204+55988032+56227388+56462772
3526.52+56622336+56811468+57012268+57229804+57691624+58480128+59196992+59416716
3521.38+59293688+59378980+59973104+60880412+61680508+62054188+61909248+61411828
3516.24+60980952+61126672+62074724+63465620+64589596+65048516+65073224+65122744
3511.10+65339476+65581672+65839348+66303552+66983804+67564984+67788328+67727408
3505.95+67564504+67389928+67376648+67834752+68746656+69541160+69683488+69365064
3500.81+69320928+70052344+71379776+72688672+73453976+73609056+73485384+73452392
3495.67+73614568+73889064+74281680+74906848+75683288+76236936+76349024+76374240
3490.52+76811184+77513176+77854472+77677032+77496656+77697720+78137400+78648976
3485.38+79243904+79698520+79631216+79168896+78953344+79353112+80079552+80652592
3480.24+80897520+80996640+81271432+81837696+82410744+82629504+82558784+82626312
3475.10+83091656+83803144+84401824+84608520+84463264+84415472+84959896+86063584
3469.95+87106984+87461752+87063304+86469704+86438952+87277040+88476592+89190384
3464.81+89105272+88630992+88270480+88172968+88302248+88673856+89263312+89937216
3459.67+90604080+91273520+91909880+92335960+92376432+92098496+91834760+91869056
3454.53+92097624+92179160+92041864+92021136+92383336+92977480+93523280+93960824
3449.38+94259896+94180488+93617224+93040048+93155200+94108984+95314560+96134784
3444.24+96471032+96621488+96808448+97021872+97166576+97134912+96833800+96414160
3439.10+96409456+97201824+98340096+98849264+98363232+97480368+96926408+96925552
3433.96+97425184+98271664+99043352+99341840+99326608+99398920+99485216+99263592
3428.81+98908184+98868568+99106480+99170984+98862496+98367936+98007616+98163384
3423.67+99065512+100357216+101239776+101269008+100720456+100182312+100070224
3419.17+100417544+100838896+100817960+100273480+99665752+99395448+99387776
3414.67+99402384+99458096+99732120+100213776+100667792+100881896+100863184
3410.17+100807664+100907168+101130960+101192560+100871240+100393272+100250312
3405.67+100516032+100725896+100633848+100626280+100978432+101240016+100908536
3401.17+100267528+99943520+99995656+99980808+99625632+99054496+98576088
3396.67+98522512+99023048+99783024+100305808+100388424+100254904+100206968
3392.17+100299000+100365632+100282768+100121744+100024152+100003592+99992448
3387.67+99931888+99675656+99049176+98213752+97672840+97703400+98064648+98405432
3382.53+98606168+98653328+98556792+98442552+98469784+98693304+99081224+99448936
3377.39+99427640+98893328+98312128+98179352+98337984+98411856+98557896+99133224
3372.25+99904872+100264936+100020056+99461200+98863128+98301856+97821664
3367.75+97485424+97310168+97213320+97074064+96911440+96918120+97136272+97233848
3362.60+96904520+96348512+96060248+96240344+96675408+97007656+96961656+96509600
3357.46+95944432+95636816+95651152+95751632+95776224+95801192+95938128+96147640
3352.32+96322552+96445320+96582664+96762696+96923440+96951888+96713104+96133424
3347.18+95397840+94941448+94991848+95180624+94901176+94048496+93207040+93051408
3342.03+93698456+94587928+94980976+94661280+94152336+94107016+94573344+95074752
3336.89+95297256+95375840+95470736+95443816+95129224+94704776+94505536+94569264
3331.75+94631528+94514552+94244592+93837608+93340584+93069168+93412552+94282864
3326.61+95098960+95350384+94957136+94142344+93260120+92722528+92809520+93471688
3321.46+94327080+94854112+94723792+94120112+93601552+93512784+93660808+93627472
3316.32+93221600+92661448+92484392+93068184+94050592+94632880+94665240+94784936
3311.18+95223872+95318888+94658080+93859208+93674504+94068376+94644240+95277616
3306.03+95909952+96297216+96278912+95922184+95328400+94620656+94069976+93900560
3300.89+94061704+94360424+94658576+94863248+94935768+94950832+95014576+95121320
3295.75+95154064+94970352+94540984+94150616+94258784+94870664+95340752+95163336
3290.61+94622376+94275088+94176424+94054168+93819568+93485016+92946872+92237392
3285.46+91666904+91462560+91519160+91599200+91480688+90963552+90065128+89163048
3280.32+88695288+88794160+89299280+89905432+90217696+89935864+89121896+88141824
3275.18+87360104+86975816+86911104+86774416+86241544+85579960+85358784+85545664
3270.04+85444352+84686184+83731032+83127024+82769944+82190416+81257800+80257096
3264.89+79485968+79062040+79001744+79207256+79335336+78932512+77905792+76738096
3259.75+76014112+75772344+75512632+74849008+73954944+73290608+73039536+72943624
3254.61+72626264+71955912+71103064+70348800+69888040+69695688+69591288+69502256
3249.47+69592632+69944152+70223632+69981112+69244224+68457144+67880448+67420616
3244.32+67025216+66840816+66894412+66929848+66675072+66115336+65474084+65000704
3239.18+64787652+64713320+64572080+64244008+63772516+63319852+63026516+62838112
3234.04+62539380+62042044+61510212+61110400+60823224+60595452+60452200+60332144
3228.90+60104428+59844944+59810360+59984276+59991792+59600304+59009684+58535304
3223.75+58274940+58179020+58147736+57987928+57537556+56897992+56328052+55949760
3218.61+55799208+55988880+56469552+56820680+56698056+56301888+56006928+55784924
3213.47+55431432+55070132+54900888+54776328+54534244+54447952+54819544+55355876
3208.33+55421624+54785044+53837340+53168976+53056500+53257032+53345452+53251224
3203.18+53224128+53260896+53015984+52427572+51918512+51810692+51978104+52172236
3198.04+52228212+51920324+51121992+50210104+49874392+50342592+51082488+51381424
3192.90+51050104+50453824+50001428+49818492+49905792+50296696+50841820+51058568
3187.76+50548288+49465464+48370928+47759288+47853856+48530680+49264224+49464736
3182.61+49109000+48748860+48762128+48969956+49083168+49119140+49217512+49338348
3177.47+49353436+49279556+49293436+49534636+49907840+50136792+50101532+50012172
3172.33+50094408+50252736+50256236+50079436+49832012+49539348+49246360+49140260
3167.19+49341728+49705112+49979692+50024852+49864376+49714404+49941412+50721380
3162.04+51745548+52447640+52496736+51994180+51341668+50962876+50938716+50897392
3156.90+50511684+50005292+49839256+50078592+50443804+50790236+51103144+51251280
3151.76+51178060+51059656+50921436+50461800+49592224+48773356+48463352+48578704
3146.61+48785784+48964880+49138688+49245876+49223784+49085580+48837200+48484468
3141.47+48091992+47665212+47094312+46413404+45928540+45836232+45886968+45716096
3136.33+45359464+45147088+45190456+45275256+45192984+44916300+44492496+43979696
3131.19+43505180+43258340+43354496+43655756+43739656+43277108+42552400+42275492
3126.04+42662604+43069048+42862560+42233384+41740776+41489948+41225924+40957248
3120.90+40980560+41429708+42071012+42497544+42484792+42204156+42025072+42029884
3115.76+41952916+41632792+41214624+40846184+40534660+40299120+40155168+39993320
3110.62+39772264+39693820+39915472+40293592+40590416+40681996+40446440+39809144
3105.47+39018580+38541892+38540092+38682728+38561224+38155464+37842808+37955980
3100.33+38338884+38496992+38256300+38005792+38137824+38548016+38872200+38929236
3095.19+38758608+38508040+38399632+38545616+38749608+38686568+38299752+37827440
3090.05+37513388+37460232+37694108+38184036+38781184+39213492+39248324+38919388
3084.90+38542252+38369620+38312236+38166512+37997268+38024396+38205644+38230368
3079.76+37959456+37602668+37411756+37404796+37502112+37737312+38131104+38455092
3074.62+38392308+37927300+37382360+37025908+36842612+36699268+36552584+36475224
3069.48+36557744+36754564+36824500+36636664+36466112+36623948+36873080+36707552
3064.33+36161024+35751208+35700980+35814036+36007424+36303848+36452076+36218952
3059.19+35899400+35907668+36069176+35901556+35391696+34946328+34780476+34786348
3054.05+34852256+34941296+34966576+34825408+34534240+34242756+34138892+34281092
3048.91+34504408+34582288+34453968+34187292+33830816+33477522+33327006+33471298
3043.76+33755840+33991080+34160576+34314996+34435876+34448692+34241556+33750932
3038.62+33141412+32728628+32570386+32395874+32118466+32089750+32572062+33278748
3033.48+33735724+33855372+33851416+33796324+33598832+33344844+33333710+33687456
3028.34+34110744+34212564+33954308+33645780+33571292+33748296+33978144+34021628
3023.19+33821960+33596440+33567216+33618832+33477522+33214688+33220078+33655720
3018.05+34287920+34859204+35289572+35542376+35618856+35635760+35633604+35433532
3012.91+34962144+34562760+34638484+35070240+35335240+35179308+34884608+34754472
3007.77+34612364+34119732+33489616+33454772+34368788+35656020+36413700+36354216
3002.62+35919900+35639116+35650864+35811996+36029848+36335868+36724460+37095368
2997.48+37423636+37823236+38345728+38882284+39345124+39719888+39894448+39739468
2992.34+39444936+39411784+39709796+40013028+40141948+40307408+40754356+41450148
2987.20+42168316+42671384+42870144+42943904+43166756+43546700+43867376+44097080
2982.05+44463476+45065052+45731644+46286724+46698852+46990976+47211520+47481524
2976.91+47912604+48488812+49125168+49758840+50373392+51012172+51765976+52608696
2971.77+53300092+53619448+53661424+53760148+54143224+54769912+55456012+56041928
2966.62+56495844+56969368+57687020+58670776+59613892+60145088+60186112+59946036
2961.48+59667768+59494004+59533560+59843124+60329712+60768460+60972088+60901172
2956.34+60601032+60102244+59445588+58809780+58469812+58488616+58530216+58198176
2951.20+57546160+56992752+56770276+56744348+56794752+56978336+57236712+57285072
2946.05+56997240+56629840+56489424+56590344+56809292+57152604+57647992+58143616
2940.91+58457448+58586972+58613292+58568172+58574840+58919432+59717524+60642192
2935.77+61222612+61324140+61176464+61039360+60981800+60934684+60840344+60730584
2930.63+60633940+60463124+60130888+59742520+59499712+59458696+59607700+60026140
2925.48+60690760+61296332+61554788+61490168+61226984+60783156+60245352+59776620
2920.34+59310796+58627116+57812252+57191628+56765792+56227752+55579892+55202704
2915.20+55214212+55180792+54652256+53741152+53004488+52807252+52908476+52766616
2910.06+52187956+51481360+50969884+50624260+50270244+49884540+49536208+49177916
2904.91+48678256+48021896+47374192+46926352+46729592+46742736+46924424+47136272
2899.77+47122040+46835204+46661844+46977236+47571136+47855788+47563664+46983620
2894.63+46552388+46402916+46263820+45763328+44881612+44010516+43515168+43445000
2889.49+43730148+44288872+44869924+45181420+45240440+45238396+45132272+44784412
2884.34+44372316+44223372+44392672+44728408+45123232+45452356+45563916+45509224
2879.20+45485968+45464640+45237188+44830904+44541024+44548732+44777792+45081556
2874.06+45370792+45608380+45780560+45826592+45628376+45174424+44664100+44310068
2868.92+44083952+43734600+43038000+42062716+41212700+40861088+40959292+41155836
2863.77+41260424+41327876+41353836+41233016+41022400+40905920+40874908+40704356
2858.63+40314256+39911628+39714484+39680732+39607212+39421996+39260448+39279068
2853.49+39506912+39850712+40130172+40160212+39944784+39729380+39694064+39715448
2848.35+39571296+39205688+38671684+38073008+37663388+37624268+37672388+37289492
2843.20+36444880+35683712+35420708+35522716+35637800+35633844+35608904+35639240
2838.06+35618016+35358380+34870588+34374656+33950948+33455250+32911904+32663986
2832.92+32893114+33298024+33481834+33413580+33330476+33368196+33446148+33406992
2827.78+33174938+32784294+32313416+31875438+31667612+31826382+32212890+32544292
2822.63+32749460+32951054+33152068+33259830+33323292+33445310+33555240+33549494
2817.49+33497280+33495724+33505306+33477406+33432138+33303172+32960512+32474512
2812.35+32145396+32217078+32654774+33135186+33240072+32802010+32136662+31780194
2807.20+31958236+32418498+32756642+32790876+32655134+32596478+32728028+32990798
2802.06+33285452+33524108+33612724+33550092+33501594+33597160+33729376+33678356
2796.92+33336464+32754364+32164298+31918754+32132350+32452610+32513652+32470324
2791.78+32717492+33271446+33818000+34145844+34177948+33857288+33341854+33038446
2786.63+33163922+33487464+33664100+33593564+33375500+33159856+33108368+33316948
2781.49+33721948+34162252+34486076+34604456+34522860+34363516+34281092+34371064
2776.35+34670116+35123936+35542500+35743536+35770512+35835608+36058504+36374008
2771.21+36684040+36931740+37060700+37014512+36837332+36714384+36826540+37139036
2766.06+37432512+37647788+38029076+38746248+39541628+40016388+40136420+40196976
2760.92+40413156+40764088+41112316+41322100+41392556+41540084+41977560+42613276
2755.78+43195760+43658764+44066016+44358232+44487080+44638328+45017236+45567772
2750.64+46178248+46939132+47900300+48783136+49267120+49439984+49706920+50273140
2745.49+50945716+51445832+51769480+52138516+52697572+53426012+54346052+55568140
2740.35+57023656+58400448+59463308+60271568+60997224+61740636+62586168+63598396
2735.21+64727560+65902404+67193056+68636696+69979640+70905584+71532376+72379536
2730.07+73760368+75423944+76909832+78113400+79335088+80857288+82668664+84625728
2724.92+86668864+88768056+90834848+92838896+94866464+96969080+99094720
2720.42+101247960+103541984+106014584+108562800+111117184+113700928+116264344
2715.92+118658024+120878376+123210624+125964096+129121064+132361656+135439728
2711.42+138396560+141421312+144636416+148049024+151579888+155130976+158703536
2706.92+162402816+166216736+169985312+173671248+177397536+181119648+184641536
2702.42+188090992+191901440+196140496+200388176+204431360+208526784+212851824
2697.93+217203808+221363376+225352112+229307104+233413424+237833840+242487840
2693.43+247117808+251661712+256210480+260632960+264739440+268775232+273174208
2688.93+277887232+282496576+286921312+291474176+296285536+301124032+305783456
2684.43+310335680+314977696+319786208+324617280+329241472+333621120+337986432
2679.93+342578848+347381408+352124928+356525408+360538048+364436640+368561280
2675.43+372987360+377556928+382163904+386834272+391570368+396335360+401105024
2670.93+405785408+410219872+414456832+418806016+423453152+428220416+432857952
2666.43+437338944+441703520+445884864+449920864+454112736+458727360+463625344
2661.93+468395584+472791232+476896608+480934336+485097600+489490368+494074112
2657.43+498690272+503223104+507682720+512087712+516431232+520797632+525287424
2652.93+529799264+534123552+538276416+542484224+546864192+551346880+555850112
2648.43+560315904+564709952+569152320+573820928+578565248+582940928+586830848
2643.93+590701504+594997760+599590656+604066176+608325760+612650560+617262272
2639.43+622059648+626807232+631428032+635961792+640355008+644504384+648495168
2634.93+652570944+656855104+661277632+665736256+670156416+674449280+678572608
2630.43+682591360+686622976+690814784+695333632+700148992+704867456+709052224
2625.93+712720576+716319104+720256832+724613568+729199232+733712960+737932352
2621.43+741865792+745669376+749437504+753219840+757174528+761472896+766010944
2616.93+770431360+774521024+778415360+782338560+786285760+790108352+793809344
2612.43+797566528+801497152+805517952+809442496+813166016+816768256+820441728
2607.93+824249600+828032704+831671808+835284480+838963840+842519360+845772992
2603.43+848886272+852121408+855505920+859002368+862711168+866625152+870427840
2598.93+873810816+876814912+879741824+882842752+886096640+889219584+891978560
2594.43+894500672+897099072+899880256+902785536+905811072+908866048+911663616
2589.93+914135936+916641984+919480256+922513600+925505856+928388928+931035008
2585.43+933256960+935204736+937340672+939919168+942767936+945520512+947871168
2580.93+949793344+951622720+953686208+955864704+957861696+959782336+961996480
2576.43+964515328+966944704+968967104+970563776+971934848+973428800+975342016
2571.93+977619840+979907264+981920192+983587008+984949440+986159104+987431104
2567.43+988818048+990196736+991558144+993036096+994610240+996107584+997540544
2562.93+999103488+1000814720+1002438912+1003743680+1004700544+1005492096
2559.08+1006399744+1007525376+1008644480+1009548736+1010433408+1011622848
2555.22+1013024960+1014241344+1015135744+1015921280+1016780544+1017728832
2551.36+1018777088+1019949376+1021174080+1022300032+1023222528+1024012672
2547.50+1024959552+1026296128+1027776320+1028801216+1029176192+1029430144
2543.65+1030128256+1031217856+1032318080+1033284864+1034203264+1035101952
2539.79+1035980352+1036877568+1037718400+1038320768+1038703424+1039179264
2535.93+1039995840+1041042752+1042020096+1042768512+1043366144+1043986496
2532.08+1044749952+1045670848+1046687680+1047703872+1048641984+1049493888
2528.22+1050320256+1051210944+1052235712+1053368704+1054421120+1055161344
2524.36+1055613376+1056102464+1056859904+1057772224+1058647104+1059470144
2520.51+1060194880+1060610496+1060728256+1060986560+1061705792+1062620160
2516.65+1063283008+1063671424+1064082688+1064695808+1065512576+1066476928
2512.79+1067415296+1068073152+1068442560+1068839744+1069516160+1070352576
2508.94+1071037376+1071366720+1071367040+1071262912+1071319680+1071571200
2505.08+1071805696+1071889216+1071952576+1072164096+1072524352+1072975360
2501.22+1073448640+1073741824+1073641408+1073280960+1073082112+1073218944
2497.36+1073387136+1073209408+1072648768+1071948544+1071339264+1070892736
2493.51+1070546944+1070164224+1069585664+1068707328+1067597312+1066541440
2489.65+1065845376+1065520064+1065270016+1064823168+1064152896+1063336000
2485.79+1062396736+1061375360+1060401088+1059551104+1058675584+1057499392
2481.94+1055954368+1054321600+1052921088+1051723328+1050444864+1048966400
2478.08+1047430848+1045955328+1044488320+1042918912+1041109056+1038932416
2474.22+1036520320+1034289088+1032485824+1030889472+1029186560+1027384064
2470.37+1025632960+1023887296+1021969856+1019848704+1017696064+1015710528
2466.51+1013889152+1011985088+1009831040+1007623424+1005657984+1003859904
2462.65+1001895808+999660736+997312448+994940800+992554944+990273088+988218560
2458.15+986298368+984310656+982174464+979974912+977871168+975969472+974180672
2453.65+972288256+970235008+968181184+966209024+964212416+962146752+960136384
2449.15+958277952+956541184+954885568+953286400+951653056+949890496+948058496
2444.65+946378240+945004288+943775808+942278016+940304128+938198208+936496256
2440.15+935280384+934160576+932836992+931367552+929912192+928529280+927243776
2435.65+926100352+925112512+924236544+923361600+922332160+921074880+919695360
2431.15+918390336+917301440+916469696+915808384+915118784+914271488+913341568
2426.65+912461056+911643456+910864896+910153536+909502080+908823360+908056064
2422.15+907200448+906268864+905321664+904435456+903565952+902635456+901776576
2417.65+901197376+900783808+900189120+899320576+898389312+897522240+896684864
2413.15+895902208+895214080+894523776+893794752+893233984+892972416+892723264
2408.66+892056768+890923264+889649728+888506560+887517120+886646528+885925376
2404.16+885309056+884606272+883666112+882545024+881391168+880275840+879199872
2399.66+878141952+877043904+875867328+874663744+873475968+872240640+870954944
2395.16+869756800+868675968+867516224+866137472+864613568+863017152+861361344
2390.66+859773952+858365376+856941696+855242880+853400256+851766016+850376000
2386.16+848931904+847220992+845268992+843215616+841196544+839237504+837224384
2381.66+835131456+833160064+831448640+829826688+828038208+825992896+823676160
2377.16+821098496+818453568+816018432+813839104+811750336+809633984+807400192
2372.66+804870464+802005632+799121984+796587712+794367680+792079872+789443712
2368.16+786515392+783505600+780521536+777556544+774668224+772020160+769676032
2363.66+767479104+765203264+762744512+760161664+757623744+755302912+753196160
2359.16+751079872+748743360+746190400+743581568+741103872+738911936+737021696
2354.66+735279360+733564160+731900672+730256128+728466048+726539008+724713664
2350.16+722996288+720993152+718439936+715585024+712780864+710019904+707113280
2345.66+704076096+701081984+698189248+695313280+692418752+689620864+687089984
2341.16+684827456+682560768+679958784+677012928+674092736+671562688+669422528
2336.66+667380800+665179392+662750272+660146176+657466368+654843456+652372096
2332.16+650008896+647636352+645249280+642977856+640876992+638809984+636600256
2327.66+634217344+631753216+629330368+627062592+624982464+622954304+620798464
2323.16+618527808+616300544+614154496+611982976+609760192+607567488+605407296
2318.66+603227392+601100992+599135744+597223296+595125760+592779072+590328960
2314.16+587921408+585607744+583360768+581091328+578760512+576476032+574314560
2309.66+572132480+569784000+567411072+565248512+563273600+561289536+559196160
2305.16+556973824+554602880+552164608+549845632+547711040+545645696+543520640
2300.66+541246784+538763392+536193792+533839392+531783872+529724832+527422976
2296.16+525067744+522922624+520868768+518614976+516155936+513730688+511455808
2291.66+509262208+507110528+505020832+502922496+500695296+498378496+496180288
2287.16+494224320+492378720+490390496+488131840+485714944+483393504+481318560
2282.66+479370208+477296384+475024640+472711360+470476832+468244544+465896256
2278.16+463478432+461202144+459255840+457592736+455930560+454062336+452078816
2273.66+450143584+448181056+446020320+443738848+441591872+439689696+437932576
2269.16+436163104+434252928+432165312+430008352+427925024+425969024+424152992
2264.66+422456576+420673952+418536800+416135936+413927584+412145376+410517824
2260.16+408703520+406673312+404552768+402441792+400494112+398846720+397338176
2255.66+395573600+393388992+391044320+388894656+387060000+385475104+384040704
2251.16+382597696+380937600+379004768+376978720+375065088+373296928+371612672
2246.66+369962912+368275808+366477760+364593952+362705696+360836096+359011200
2242.16+357296288+355656768+353969440+352269024+350688640+349132512+347382976
2237.66+345525408+343817568+342188480+340372416+338444032+336715776+335216288
2233.16+333739904+332242784+330791424+329322368+327776800+326260288+324849888
2228.66+323444480+321935264+320344576+318757824+317241760+315780704+314221216
2224.17+312418848+310458976+308592576+306971520+305592000+304412032+303350304
2219.67+302250848+300962784+299445088+297790560+296186656+294767616+293469248
2215.17+292145376+290773888+289384224+287913632+286354240+284888128+283641632
2210.67+282500640+281316480+280054848+278663008+277101632+275547456+274241632
2206.17+273131648+271934944+270507552+268947808+267424848+266046256+264775104
2201.67+263465088+262074464+260755376+259608464+258543392+257472736+256385440
2197.17+255201120+253856848+252493856+251279952+250158432+249027968+247940960
2192.67+246896592+245744112+244474640+243273744+242172496+241011040+239781584
2188.17+238656608+237684176+236730576+235648736+234343296+232849456+231422208
2183.67+230321456+229476640+228609856+227620976+226603264+225590704+224539632
2179.17+223439776+222289568+221083808+219870720+218696416+217533440+216397696
2174.67+215408080+214589968+213780064+212833040+211742064+210536960+209286496
2170.17+208161120+207271328+206501408+205692448+204858528+204067328+203276480
2165.67+202431552+201553744+200638768+199641648+198602832+197613872+196686064
2161.17+195775408+194863920+193888272+192744864+191511584+190472512+189775088
2156.67+189213168+188493392+187576304+186631808+185775104+185008848+184332464
2152.17+183760368+183221344+182560432+181715024+180821072+180064352+179462272
2147.67+178878528+178206944+177439392+176564624+175569408+174540592+173633312
2143.17+172878064+172139920+171332368+170549232+169896896+169291232+168574464
2138.67+167774352+167076176+166538880+166012848+165364832+164618640+163839216
2134.17+163057008+162333920+161725712+161151648+160485696+159771216+159144512
2129.67+158562144+157834960+156949328+156123728+155519584+155071632+154617680
2125.17+154056912+153375024+152598976+151769840+150949680+150249056+149766240
2120.67+149447712+149087344+148550080+147913376+147342800+146887824+146461120
2116.17+145952464+145334064+144674448+144040976+143399760+142679024+141928176
2111.67+141289920+140826976+140474864+140135472+139730048+139216160+138645728
2107.17+138128224+137682192+137240016+136800592+136411008+135982496+135360144
2102.67+134599472+133949096+133493672+133041984+132438944+131796704+131323760
2098.17+131030976+130722632+130231096+129614344+129089376+128775448+128570616
2093.67+128309016+127941056+127470792+126842840+126055960+125303376+124803272
2089.17+124518600+124220552+123797424+123342832+122950352+122608192+122282128
2084.67+121962752+121626008+121262800+120895144+120467736+119851640+119083032
2080.17+118448608+118126592+117886880+117379904+116615144+115941808+115599352
2075.67+115483384+115305904+114860344+114160304+113431696+112918376+112643768
2071.17+112446080+112235088+112062864+111925672+111690568+111299280+110851408
2066.67+110408240+109893216+109287872+108760832+108444888+108220384+107854784
2062.17+107282016+106653848+106178936+105973472+105990488+106042168+105929744
2057.67+105606648+105158944+104673496+104175112+103698320+103305632+103015616
2053.17+102762456+102476472+102149872+101798272+101403608+100945344+100493856
2048.67+100165472+99947856+99687416+99317704+98972792+98741816+98448128
2044.17+97855808+97015208+96232936+95768936+95671296+95812064+95982624+96049864
2039.03+96047896+95992888+95678464+94936376+94046640+93508720+93373424+93168536
2033.89+92572856+91845872+91458000+91506456+91635704+91465272+91015216+90645624
2028.75+90576224+90600024+90412912+90034808+89672424+89355448+88980136+88593688
2023.60+88368968+88353464+88399752+88293992+87902760+87289464+86658160+86114872
2018.46+85591392+85111944+84922520+85146120+85496840+85534344+85095960+84366928
2013.32+83674160+83271928+83176384+83167536+83033816+82786648+82551544+82351456
2008.18+82124384+81849352+81558400+81280984+81037480+80824784+80602560+80352504
2003.03+80143928+80069496+80112048+80126512+79961120+79598128+79161544+78772608
1997.89+78436664+78118792+77859008+77700040+77543792+77220912+76659400+75913784
1992.75+75133952+74574000+74448312+74644680+74775504+74640768+74422640+74333768
1987.61+74338656+74343176+74375944+74424472+74337192+74051256+73722720+73532808
1982.46+73523392+73641568+73768056+73722960+73404008+72908200+72410688+71997672
1977.32+71714144+71635896+71776544+72002312+72144448+72147016+72067392+71963600
1972.18+71790832+71415184+70792104+70101880+69578848+69200320+68720936+68067256
1967.04+67544152+67537824+68064944+68713984+69035720+68938304+68654128+68397048
1961.89+68189984+68004504+67875200+67802832+67715096+67623344+67663064+67873744
1956.75+68067136+68012176+67653080+67098176+66518952+66117400+66028768+66146252
1951.61+66172912+65947688+65626460+65447792+65429048+65384136+65138196+64660280
1946.47+64130172+63851068+63904088+63882452+63251884+62058200+61044456+60920964
1941.32+61642848+62547524+63097748+63312552+63502580+63763636+63905060+63799272
1936.18+63571520+63405680+63357776+63408964+63517540+63590244+63527500+63332968
1931.04+63100300+62903376+62737964+62535496+62260744+62009724+61924680+62007412
1925.90+62134864+62157220+61830896+60935780+59762056+59114012+59437948+60311624
1920.75+61048348+61181564+60249476+58148704+56037932+55697964+57386040+59448868
1915.61+60476484+60633576+60644992+60671452+60599092+60499540+60398788+60182476
1910.47+59887548+59685360+59609036+59606612+59717644+59962420+60204448+60260280
1905.33+60066924+59733540+59490604+59497520+59682696+59889240+60076024+60214156
1900.18+60150308+59779656+59267356+58961648+59112800+59588284+59844580+59462336
1895.04+58778484+58546708+58928048+59375828+59509416+59372188+58827732+57601920
1889.90+56091712+55329480+55843780+57096736+58205820+58739912+58785640+58640576
1884.75+58558348+58629300+58808564+59003616+59091088+58995856+58823968+58766596
1879.61+58827976+58830884+58708136+58612564+58723660+59044380+59391600+59575424
1874.47+59614132+59675896+59794948+59815820+59537688+58605408+56542000+53523032
1869.33+50943304+50338840+51714852+53746596+55447292+56741072+57697080+58189816
1864.18+58325628+58466664+58736884+58945516+58974380+58936536+58961528+59045960
1859.04+59117164+59140336+59123840+59087684+59086720+59220040+59509536+59843732
1853.90+60109896+60268416+60248628+60007692+59711460+59556736+59423748+59040860
1848.76+58408332+57816980+57567012+57578528+56850244+53852096+48725324+44734796
1843.61+45477652+50339688+55237580+57591980+58062984+58133308+58270448+58418272
1838.47+58522936+58383352+57979804+57758668+57998476+58406996+58660108+58747436
1833.33+58735544+58600072+58016544+56225204+53034728+50062404+49624460+52028872
1828.19+55304652+57501064+57844016+56369244+54089376+52947652+54035168+56287352
1823.04+58023092+58860728+59327420+59617532+59591076+59317344+58981424+58647740
1817.90+58357032+58189692+58168588+58282456+58510688+58767812+58935812+58898084
1812.76+58463756+57490280+56248464+55432280+55588244+56584288+57724120+58386016
1807.62+58557012+58671144+58962500+59250616+59349256+59175400+58472720+57084132
1802.47+55533512+54566804+54106684+53567184+53104392+53550848+55076552+56792204
1797.33+57743632+57743028+57348584+57169568+56754280+54484992+49696056+44690112
1792.19+43046064+45526208+49584376+52992396+55548528+57468584+58508384+58823124
1787.05+58808808+58053528+56137376+54195144+53933652+55321972+56803352+57294772
1781.90+56704236+55386872+54205428+54141776+55098952+56101288+56772212+57238776
1776.76+57069952+56050292+55134304+54522508+51990432+45806592+38499276+35194408
1771.62+38008792+44267440+49948532+52481012+51462752+49011712+48525732+51296356
1766.48+55132608+57347012+57646048+57300344+56646684+54627200+50840620+47247332
1761.33+46826648+50135588+54475180+57059892+57375492+56084932+53753980+51695508
1756.19+51893248+54466108+57161448+58407844+58402872+56711264+52084840+45955172
1751.05+42830080+44831148+48787356+51034764+51666024+52659120+54563776+56513168
1745.91+57802916+58222432+57798676+56974096+56642084+57464824+58769268+58391112
1740.76+54858640+50111436+48441992+51494652+56370816+59759752+60663928+58258204
1735.62+50712684+38484028+27160280+24121728+31306214+43395412+53396500+57893968
1730.48+58025276+57267984+57984412+59771160+61095220+61481912+61529160+61642732
1725.33+61604100+61180836+60610628+60414932+60928620+61962588+62817808+62657996
1720.19+60709940+55981976+47699708+37549028+30944518+32625088+40203832+46770340
1715.05+49565788+51626868+55657396+60307740+63340632+64573536+64656504+64037984
1709.91+63724000+64600180+65776660+65506208+63429508+60731188+58823968+58529728
1704.76+59756960+61902328+64688264+66995252+64880976+54333340+37993668+27047244
1699.62+31279776+47313296+63104916+69608120+64722812+53416212+46540448+52547388
1694.48+67773336+81829224+89706064+93438104+96139592+98427096+100231864
1689.98+102502016+105730368+109254280+112962008+117053576+119097912+114642992
1685.48+103107512+91788272+90724144+101864472+118082352+132353336+142231936
1680.98+148274672+152304032+156268736+160943200+165769824+169754352+171547440
1676.48+169812880+165739232+164471744+170597392+181842816+191371104+195765424
1671.98+197271952+198970672+200594592+200747984+201136032+205511904+214591792
1667.48+224896336+233051344+238772608+243391872+247136080+248883040+248490176
1662.98+248516912+252427520+260619824+269872448+277324064+282986496+288033120
1658.48+292781728+297138912+301195232+304424960+305403584+302375680+293525408
1653.98+278779136+264181488+261954432+278378144+304139552+325406624+336680736
1649.48+340008640+339204672+336722336+333464192+329983104+328318912+331860352
1644.98+341151008+351460864+357676672+359548672+360088000+360883552+361433888
1640.48+361550816+361307360+359775936+356345056+351685088+345326688+335093504
1635.98+322136064+313780960+315950240+324488416+330484768+330277664+326061824
1631.48+320711168+315141184+309088448+301882464+293004192+283221408+274450400
1626.98+267843328+262640288+256836432+248447216+237159072+225571840+217428544
1622.48+213618032+211471456+208269696+203574304+198374896+193081616+185986336
1617.98+174257680+158526800+146068832+144707504+152370544+159838496+162218240
1613.48+161262288+159644704+157812912+155761376+154008656+152512736+150902304
1608.98+149424208+148318320+147230928+146067424+145261840+144876480+144564992
1604.48+144251856+143908768+143251008+142383792+141875536+141769296+141533376
1599.98+141085424+140776256+140573600+140248336+139922640+139626176+139023136
1595.48+138206000+137901600+138442784+139388880+140289184+141017904+141482400
1590.99+141706288+141919952+142183232+142444016+143014032+144212592+145716560
1586.49+147088112+148409328+149645312+150331504+150590320+151233120+152378160
1581.99+153402352+154312256+155533472+156769360+157678240+158297184+156973296
1577.49+150482576+139369792+131435248+134808832+147235504+159322416+165923472
1572.99+168548688+170017280+170270976+167532896+162086208+157659120+158248592
1568.49+163694016+170124432+174305648+175624480+174944896+173575728+172907888
1563.99+173582032+174986960+175585504+172865344+163960480+148655056+131750632
1559.49+119856888+115606840+118406984+128202216+142692416+154665424+157849008
1554.99+153394976+148648864+149544480+155127040+160412144+161990224+159966912
1550.49+156832816+155252240+156041680+157913664+159012064+158117728+154637296
1545.99+148901344+143075552+139888144+138733120+135291936+127212360+117827264
1541.49+111304264+105969120+97854320+89722328+90139432+101560032+116061792
1536.99+125371112+127805760+125499824+120071080+112766792+106708400+105540712
1532.49+109202144+113807944+116357744+116927904+116249464+114099800+110970840
1527.99+108589168+107314328+105422472+102344536+100253664+100905312+102563032
1523.49+101561768+95835672+86703432+78667608+77063472+83635960+94133192
1518.99+101664272+102472384+98720040+96068408+97790728+102199832+106326808
1514.49+109007048+109713744+107920056+104842840+103001720+102908816+102655440
1509.99+100994656+97979152+92809160+84071312+72671088+62987368+60381184
1505.49+67087700+80019360+93008824+101516016+105057128+105870112+106186656
1500.99+106472424+105564064+102769032+99816584+98992600+99089040+96783840
1496.49+92880472+92901344+99302576+107660200+113212864+115687608+116382224
1491.99+115018848+111440664+107849424+107200336+110050688+114155568+117090696
1487.49+118759792+121119584+125367336+130314856+134260720+137141440+139769328
1482.99+142145920+143792256+145029184+146779008+149476048+152894848+156640224
1478.49+160004304+161821536+161666912+161209536+162840272+166265168+168257760
1473.99+166777520+163805952+163390384+167814352+176278448+186072736+194234032
1469.49+199274080+201969712+204005088+205930160+206840784+205646208+202605696
1464.99+200266608+201914928+207634224+213693488+217244144+219001584+220264768
1460.49+220324144+218414704+215035328+209654880+200867632+191316496+188676416
1455.99+197103232+211090816+222516208+228627440+231171520+232105376+232192256
1451.49+232127488+232707968+233628496+233353936+230974704+227835696+226584640
1446.99+228345376+231514736+233690528+234028480+233346928+232605984+232002880
1442.49+231432272+230963584+230464224+229545408+228314720+226980976+224010064
1437.99+216728256+205749552+197222000+197013584+203059488+208207536+208777904
1433.49+206296736+203265904+200374080+197198176+193360512+189067664+185472976
1428.99+183675328+182975264+181625424+179230320+176591024+173679088+169926944
1424.49+166015296+163203296+161465296+159995376+158210832+154635760+147159392
1419.99+136806800+129240088+129069272+133984504+138435952+140328352+141010064
1415.49+141493792+141472416+140858832+140088960+139303984+138445936+137741744
1410.99+137374688+137183104+137098416+137335936+137919648+138415488+138237328
1406.50+136979664+134746064+132525824+131763224+132883944+134666032+135661152
1402.00+135571360+134607056+132389848+128714984+124823832+122517616+122072456
1397.50+122149864+121373592+118972360+114834648+110253984+107720376+108453096
1393.00+110837712+112410560+112335288+111281840+109984592+108446504+105910232
1388.50+101688568+96737352+93709440+94132584+96394880+97913712+98033472
1384.00+97660840+97380168+97143816+96895496+96482280+95629032+94503688+93695128
1378.85+93463296+93560192+93672288+93519456+92780640+91383016+89753752+88639256
1373.71+88782720+90496224+93233216+95871136+97644136+98490208+98609144+98307424
1368.57+98202368+98752216+99555048+99808656+99307168+98311376+96786312+94625592
1363.43+92414920+91102008+90950736+91527304+92561872+94063432+95676856+96676024
1358.28+96724120+96180400+95550816+94973560+94352896+93677720+93060408+92621720
1353.14+92423688+92391608+92297584+91964280+91486608+91126920+91012504+91064408
1348.00+91180056+91293256+91299168+91113728+90846688+90757432+90970576+91342816
1342.86+91595264+91446776+90676192+89335248+87940792+87179704+87264600+87770560
1337.71+88163864+88311840+88430296+88742944+89249640+89706320+89807096+89475312
1332.57+88972496+88649104+88622384+88740112+88815360+88801192+88734432+88590736
1327.43+88326240+88045184+87992992+88295960+88806480+89227224+89346328+89190264
1322.29+89003048+88935184+88747368+88077200+87031920+86159640+85743240+85527088
1317.14+85228344+84915152+84756616+84750944+84822224+84956936+85173888+85455288
1312.00+85685080+85676968+85387560+85027008+84794960+84640224+84476048+84415096
1306.86+84565992+84765328+84790896+84723792+84870168+85322024+85761440+85813456
1301.72+85531264+85325224+85404760+85585360+85719264+85952776+86384344+86845400
1296.57+87194840+87501752+87825096+88102304+88326008+88564632+88817080+89062416
1291.43+89378616+89823984+90313696+90739688+91107184+91490680+91965264+92566680
1286.29+93215928+93748584+94107144+94431440+94913896+95635592+96531616+97424320
1281.14+98157824+98758400+99381696+100068616+100711896+101291328+101965256
1276.65+102870360+103969344+105144304+106303688+107365048+108247008+108964872
1272.15+109681504+110601472+111820152+113291904+114889184+116464520+117959112
1267.65+119512888+121350320+123446232+125455920+127114536+128574752+130156144
1263.15+131913640+133698120+135552960+137763968+140482080+143516480+146597152
1258.65+149671232+152795488+155907504+158894400+161792144+164751600+167882528
1254.15+171275872+175001104+178904704+182623840+186015808+189388096+193104592
1249.65+197131856+201155968+205008976+208821216+212824272+217069760+221396416
1245.15+225752656+230413952+235634544+241142464+246386896+251276592+256276976
1240.65+261757456+267600768+273485856+279238176+284901856+290698592+296863712
1236.15+303329824+309693792+315672832+321447200+327409600+333719264+340244192
1231.65+346772000+353107936+359131648+364979584+371046592+377564576+384235456
1227.15+390514656+396220704+401654400+407159616+412834816+418629984+424482080
1222.65+430278208+435872672+441206784+446303520+451131264+455577152+459593696
1218.15+463333760+467093056+471065120+475140096+478966720+482213536+484760032
1213.65+486739008+488501824+490384480+492354752+493984832+494930912+495308480
1209.15+495441888+495427520+495137088+494486336+493469760+492073760+490315520
1204.65+488238304+485746432+482637984+478945088+475035392+471202752+467358144
1200.15+463263744+458852384+454172992+449231840+444036864+438651968+433117696
1195.65+427441184+421664384+415809056+409820544+403668352+397423520+391144928
1191.15+384852864+378644768+372663712+366955072+361502304+356278240+351093216
1186.65+345636640+339897728+334306848+329228352+324558496+319985568+315420864
1182.15+311037600+307033152+303429792+300032544+296615520+293165088+289858080
1177.65+286822208+284025472+281323904+278558848+275737664+273084704+270757792
1173.15+268624672+266522528+264475040+262492912+260520512+258754000+257530864
1168.65+256760816+255980480+254991744+253919808+252778464+251548576+250470112
1164.15+249733264+249191040+248752336+248585008+248643216+248572704+248282032
1159.65+248007472+247730336+247178768+246396112+245701184+245172720+244740208
1155.15+244609872+245070080+245995184+247017344+248061232+249321280+250803440
1150.65+252266304+253591120+254881200+256173856+257410000+258793856+260741680
1146.15+263276464+265911536+268383968+271022304+274129632+277500096+280808832
1141.65+284001440+287148032+290363456+293936352+298073824+302560512+307058560
1137.15+311602976+316445728+321648384+327132256+332820480+338534208+344118144
1132.65+349806912+356070272+363014560+370306688+377656128+385026944+392445184
1128.15+399957440+407743072+415989152+424679328+433655104+442804896+452091136
1123.65+461506528+471083040+480858944+490782464+500788000+510990048+521622336
1119.15+532663200+543719360+554472128+565051456+575751808+586563904+597269824
1114.65+607852800+618470656+629100608+639486976+649457408+659132224+668826112
1110.15+678746240+688729536+698385792+707604800+716714496+725925312+734902912
1105.65+743188928+750794496+758053568+765151552+772122560+779049600+785896064
1101.15+792356096+798221632+803720448+809190784+814628416+819877824+825034816
1096.65+830265152+835455552+840433728+845306560+850186752+854843392+859043776
1092.16+862921408+866654464+870231168+873874240+878083136+882757184+886950720
1087.66+890050240+892539520+895083520+897557120+899551680+901184128+902785920
1083.16+904271488+905331584+905898176+906034432+905640064+904573696+902924224
1078.66+900883776+898417472+895283008+891433792+887176576+882817088+878313216
1074.16+873400128+867845824+861481280+854243840+846281792+837810624+828906944
1069.66+819634368+810077120+799950016+788631808+776007488+762813696+749779584
1065.16+736935616+723994880+710773760+697087232+682911232+668712000+655024000
1060.66+641797184+628665792+615511296+602333888+589116288+576150400+563821312
1056.16+551856448+539625920+527290656+515687360+505011424+494572736+483901696
1051.66+473199328+462713088+452417344+442257056+432200192+422223424+412499200
1047.16+403321344+394692480+386383488+378396480+370951712+364034400+357300224
1042.66+350423328+343383232+336575040+330584288+325534496+320764896+315549472
1038.16+309946656+304493920+299359712+294324800+289327520+284505440+279906208
1033.66+275522976+271385792+267398000+263413696+259585760+256226288+253321552
1029.16+250650704+248272160+246299808+244324592+241805984+238974576+236659296
1024.66+235197376+234129216+232996624+231863856+230947840+230196032+229437104
1020.16+228707024+228234880+228112000+228106976+227945856+227692320+227657168
1015.66+227971248+228516000+229205056+230082800+231213072+232680944+234505568
1011.16+236387376+237900544+239189984+241099488+244297680+248568560+253223424
1006.66+257940656+262983376+268740864+275247488+282214720+289489728+297302304
1002.16+305927072+315318656+325249632+335550560+346052832+356634016+367523360
997.66+379187360+391737728+404746688+417748800+430624000+443447136+456211488
993.16+468774976+480957184+492640896+503638112+513396000+521136672+526476032
988.66+529561280+530430592+528757440+524457472+518015904+509934112+500296992
984.16+489088096+476558016+463154816+449328544+435413664+421554080+407765824
979.66+394131392+380839232+368077792+355987168+344580512+333626848+322802528
975.16+312089280+301843936+292389760+283644896+275246304+267013856+259234128
970.66+252349776+246381968+240879248+235508640+230375552+225658544+221314096
966.16+217265440+213541040+210135792+207017920+204226240+201689888+199168080
961.66+196669664+194625104+193289872+192275312+191036224+189519392+188062256
957.16+186912768+186096672+185531408+185074272+184584528+184011184+183380368
952.66+182767568+182347872+182321024+182642560+182985088+183100560+183081184
948.16+183122240+183173920+183016320+182619040+182214096+181963392+181773360
943.66+181539072+181389360+181503072+181814144+182137408+182478816+182941408
939.16+183398464+183562528+183365504+183024480+182752080+182623184+182690336
934.66+182995552+183491840+184149984+185055536+186207280+187294096+187882640
930.16+187815552+187355696+187004160+187190288+187954528+188896912+189586368
925.66+190039760+190598416+191322320+191829824+191851888+191671040+191763152
921.16+192194064+192678144+193122496+193745552+194650560+195623728+196451840
916.66+197170864+197880304+198535152+199023392+199269264+199269680+199231232
912.16+199594624+200642288+202077168+203253776+203841744+204057280+204268656
907.67+204613376+205030400+205474016+205979024+206590288+207268576+207843248
903.17+208097664+207969344+207655024+207446944+207524496+207927616+208597056
898.67+209337280+209880864+210110416+210143136+210161344+210307904+210670048
894.17+211149904+211421792+211271120+210839792+210351376+209828224+209335328
889.67+209137552+209317008+209562720+209594640+209496464+209424864+209281136
885.17+208842672+208088880+207322592+206932304+206933472+206859584+206357760
880.67+205698480+205336976+205217840+204955680+204473648+203998800+203603408
876.17+203142080+202570496+202074432+201840864+201742288+201329504+200340608
871.67+199139680+198321648+197960704+197670896+197293552+197026864+196893776
867.17+196588512+195976816+195399104+195244544+195315120+194918736+193812816
862.67+192705024+192400016+192723072+192874160+192526560+191961776+191489024
858.17+191347232+191799344+192744368+193592432+193789568+193069680+191384976
853.67+189296496+188145520+188794304+190404960+191425328+191565680+191869376
849.17+192908576+193852288+193659312+192546272+191619536+191366688+191439856
844.67+191804272+192723712+193531008+193061232+191591104+190910800+192301120
840.17+195579792+199590960+202400496+202102864+198861008+195250400+193601008
835.67+193879296+194560784+194410192+193046832+190858528+188796112+187651248
831.17+187313632+186765232+184952608+182090432+180023584+180369536+182309664
826.67+183409280+182674064+181398272+180908016+181091120+181277856+181071520
822.17+180119168+178380928+176700080+176001952+176022048+175773120+174971632
817.67+174049360+173063760+171629136+169713824+167674512+165747808+164206768
813.17+163617024+164113120+164824288+164748144+163878240+162868400+162072416
808.67+161426192+160847008+160350336+160092928+160329152+160990448+161577856
804.17+161787424+161785872+161495216+160410880+158558592+156915680+156481824
##END=
