##TITLE=Methyl Ethyl Ketone
##JCAMP-DX=4.24
##DATA TYPE=INFRARED SPECTRUM
##XUNITS=cm-1
##YUNITS=Absorbance
##FIRSTX=900
##LASTX=2300
##XYDATA=(X++(Y..Y))
2296 0.035618
2294 0.03635994
2292 0.037100881
2290 0.037841819
2288 0.038582761
2286 0.039323699
2284 0.04006464
2282 0.040805578
2280 0.04154652
2278 0.042287458
2276 0.043028403
2274 0.043769341
2272 0.044510283
2270 0.04525122
2268 0.045992158
2266 0.0467331
2264 0.047474038
2262 0.048214979
2260 0.048955917
2258 0.049696863
2256 0.050437801
2254 0.051179711
2252 0.051920678
2250 0.05266162
2248 0.053402562
2246 0.0541435
2244 0.0078500239
2242 0.005929369
2240 0.045302242
2238 0.091331564
2236 0.13814956
2234 0.1380192
2232 0.13353983
2230 0.10732653
2228 0.080811925
2226 0.060457502
2224 0.042841665
2222 0.036458936
2220 0.034007173
2218 0.041783895
2216 0.054684401
2214 0.077506967
2212 0.1053504
2210 0.14042498
2208 0.17116474
2206 0.19596757
2204 0.21559975
2202 0.23060165
2200 0.24641834
2198 0.26305962
2196 0.25037572
2194 0.22076327
2192 0.1456015
2190 0.050968662
2188 -0.024699712
2186 -0.093792856
2184 -0.084446639
2182 -0.057158325
2180 0.011146434
2178 0.085025698
2176 0.12594946
2174 0.16079399
2172 0.16121243
2170 0.1592128
2168 0.16219273
2166 0.16632
2164 0.17294131
2162 0.17106704
2160 0.14678399
2158 0.1226198
2156 0.102935
2154 0.10272627
2152 0.13005857
2150 0.15146048
2148 0.16296211
2146 0.14556107
2144 0.10352969
2142 0.054190788
2140 0.0016003801
2138 -0.053088099
2136 -0.1087576
2134 -0.15631233
2132 -0.20051923
2130 -0.19654721
2128 -0.17731521
2126 -0.12169764
2124 -0.057833932
2122 -0.0068072244
2120 0.040591307
2118 0.059195649
2116 0.069304757
2114 0.04624752
2112 0.015366834
2110 -0.029209213
2108 -0.070156775
2106 -0.094027154
2104 -0.10971741
2102 -0.11280094
2100 -0.10504939
2098 -0.082167789
2096 -0.043038715
2094 0.014586267
2092 0.052945007
2090 0.068564489
2088 0.034297496
2086 -0.038759001
2084 -0.12576586
2082 -0.2185334
2080 -0.289682
2078 -0.34890881
2076 -0.37277114
2074 -0.38246495
2072 -0.35151398
2070 -0.30782714
2068 -0.26367363
2066 -0.22006957
2064 -0.21306017
2062 -0.21422268
2060 -0.22982311
2058 -0.2494487
2056 -0.27564886
2054 -0.30624303
2052 -0.34676763
2050 -0.38408509
2048 -0.40675256
2046 -0.41706142
2044 -0.40824899
2042 -0.39767331
2040 -0.39122948
2038 -0.39296526
2036 -0.40501443
2034 -0.41602492
2032 -0.4239808
2030 -0.43229741
2028 -0.44051793
2026 -0.45175764
2024 -0.46436703
2022 -0.44704849
2020 -0.41369647
2018 -0.3633728
2016 -0.30735999
2014 -0.28675261
2012 -0.27920467
2010 -0.28203365
2008 -0.28630891
2006 -0.26528886
2004 -0.23887622
2002 -0.21699591
2000 -0.20625834
1998 -0.23472118
1996 -0.27989501
1994 -0.34312537
1992 -0.39294508
1990 -0.40627334
1988 -0.37884679
1986 -0.30086759
1984 -0.20681503
1982 -0.10692282
1980 -0.033096984
1978 0.011915242
1976 0.03257063
1974 0.037688851
1972 0.038046185
1970 0.038085483
1968 0.018006703
1966 -0.014988008
1964 -0.062905818
1962 -0.11893553
1960 -0.1344312
1958 -0.13219328
1956 -0.097834289
1954 -0.053826656
1952 -0.037008051
1950 -0.03342339
1948 -0.05440915
1946 -0.081216499
1944 -0.10055812
1942 -0.1070989
1940 -0.09166383
1938 -0.069997445
1936 -0.05326283
1934 -0.054291584
1932 -0.082717225
1930 -0.13787033
1928 -0.2176412
1926 -0.29860064
1924 -0.36884728
1922 -0.3819997
1920 -0.33949092
1918 -0.2543278
1916 -0.148249
1914 -0.066428922
1912 -0.0061300276
1910 0.029477097
1908 0.053445801
1906 0.05219119
1904 0.037198558
1902 0.012437594
1900 -0.017709527
1898 -0.010468569
1896 0.012623571
1894 0.061124206
1892 0.11665633
1890 0.1451939
1888 0.15572596
1886 0.12469964
1884 0.07596986
1882 0.018566916
1880 -0.0401752
1878 -0.090545185
1876 -0.138852
1874 -0.17962261
1872 -0.21409091
1870 -0.23747206
1868 -0.24133906
1866 -0.23596257
1864 -0.22056012
1862 -0.2071556
1860 -0.20344129
1858 -0.20401898
1856 -0.22871657
1854 -0.26682031
1852 -0.33798254
1850 -0.42537564
1848 -0.51638001
1846 -0.60311568
1844 -0.63779789
1842 -0.6402272
1840 -0.59131044
1838 -0.52166742
1836 -0.45050827
1834 -0.38446319
1832 -0.32032987
1830 -0.25092912
1828 -0.16821745
1826 -0.083857201
1824 -0.031996123
1822 -0.021159545
1820 -0.06751392
1818 -0.14015329
1816 -0.20841657
1814 -0.25968322
1812 -0.28357548
1810 -0.28326705
1808 -0.26744249
1806 -0.2304375
1804 -0.17725414
1802 -0.15427728
1800 -0.15835646
1798 -0.21454269
1796 -0.30627784
1794 -0.33109483
1792 -0.30991921
1790 -0.1920867
1788 -0.024165735
1786 0.10525832
1784 0.20188376
1782 0.23419981
1780 0.22504421
1778 0.19716699
1776 0.16262715
1774 0.1442713
1772 0.14378466
1770 0.14713696
1768 0.15256457
1766 0.14428072
1764 0.11596061
1762 0.075478628
1760 0.022468738
1758 -0.1130944
1756 -0.27005473
1754 -0.38485256
1752 -0.42660737
1750 -0.3905037
1748 -0.32972306
1746 -0.27272391
1744 -0.27816078
1742 -0.35347447
1740 -0.44339141
1738 -0.52968931
1736 -0.51136202
1734 -0.40533316
1732 -0.25599909
1730 -0.090358563
1728 -0.040074773
1726 -0.075663671
1724 -0.10617181
1722 -0.11362
1720 -0.013721298
1718 0.17328376
1716 0.53404915
1714 1.0134194
1712 1.4649206
1710 1.8712804
1708 2.2332599
1706 2.6878242
1704 3.3814971
1702 4.5846653
1700 6.4349203
1698 9.2116194
1696 12.895714
1694 16.75605
1692 20.437208
1690 23.727816
1688 26.663509
1686 30.085272
1684 34.087536
1682 38.894329
1680 44.330399
1678 49.081215
1676 53.181671
1674 57.114388
1672 61.006657
1670 65.572411
1668 70.633781
1666 75.593498
1664 80.356926
1662 84.612991
1660 88.385674
1658 91.709244
1656 94.59494
1654 97.078789
1652 99.042023
1650 100.36319
1648 100.72868
1646 99.88179
1644 98.211006
1642 96.140335
1640 93.637413
1638 90.767181
1636 87.198143
1634 82.875183
1632 78.409653
1630 74.0242
1628 69.84848
1626 65.89296
1624 61.755558
1622 57.402325
1620 53.116692
1618 48.926376
1616 45.001141
1614 41.358738
1612 38.134109
1610 35.334171
1608 32.935135
1606 30.91497
1604 29.131788
1602 27.607315
1600 26.341875
1598 25.353233
1596 24.627499
1594 24.151552
1592 23.868515
1590 23.73983
1588 23.703472
1586 23.729656
1584 23.794296
1582 23.89823
1580 24.045568
1578 24.307859
1576 24.708658
1574 25.314743
1572 26.126463
1570 27.071463
1568 28.12676
1566 29.180065
1564 30.222706
1562 31.421583
1560 32.872925
1558 35.232498
1556 38.586487
1554 42.359028
1552 46.31514
1550 49.415127
1548 51.681614
1546 53.640858
1544 55.34227
1542 56.973747
1540 58.358559
1538 59.185696
1536 59.305885
1534 58.646801
1532 57.453705
1530 56.096134
1528 54.615932
1526 53.052101
1524 51.310875
1522 49.318439
1520 47.113297
1518 44.669289
1516 42.308998
1514 40.150928
1512 38.044479
1510 35.996876
1508 33.430286
1506 30.18972
1504 26.929726
1502 23.698769
1500 20.984585
1498 18.838779
1496 16.698572
1494 14.550829
1492 12.322857
1490 10.038659
1488 7.7869635
1486 5.6566706
1484 3.795208
1482 2.2690878
1480 1.1374056
1478 0.40394258
1476 0.07813701
1474 0.29688382
1472 1.0072596
1470 1.9370999
1468 2.9290359
1466 3.7862413
1464 4.3952246
1462 4.8752866
1460 5.2598248
1458 5.623909
1456 5.9745998
1454 6.2861271
1452 6.5161924
1450 6.6636429
1448 6.6826839
1446 6.6476073
1444 6.5380235
1442 6.390471
1440 6.1875591
1438 5.9043159
1436 5.5108929
1434 4.9738059
1432 4.3066125
1430 3.6343577
1428 2.9980359
1426 2.5089443
1424 2.1690211
1422 1.9564213
1420 1.8612795
1418 1.8423978
1416 1.9018028
1414 2.0409009
1412 2.2300053
1410 2.4850543
1408 2.7728565
1406 3.0935557
1404 3.4366789
1402 3.7947805
1400 4.163084
1398 4.5390782
1396 4.9346857
1394 5.3559194
1392 5.7615199
1390 6.1085906
1388 6.3413944
1386 6.3805251
1384 6.2725449
1382 5.9585633
1380 5.5454535
1378 5.0192184
1376 4.4592485
1374 3.8975646
1372 3.400816
1370 2.98646
1368 2.6642516
1366 2.3731887
1364 2.0154927
1362 1.5910664
1360 1.0826783
1358 0.5943808
1356 0.24903303
1354 0.027293524
1352 -0.0096072229
1350 0.037863597
1348 0.15151234
1346 0.27337608
1344 0.42685318
1342 0.59944731
1340 0.81047869
1338 1.0361693
1336 1.2822428
1334 1.5306437
1332 1.7565978
1330 1.9743119
1328 2.1793423
1326 2.3990536
1324 2.6570625
1322 2.9496441
1320 3.294996
1318 3.6585281
1316 4.0392098
1314 4.4066105
1312 4.7472234
1310 5.0549679
1308 5.3138771
1306 5.5141292
1304 5.6542158
1302 5.7143259
1300 5.7284765
1298 5.7009888
1296 5.6706429
1294 5.6617889
1292 5.6678348
1290 5.6972404
1288 5.727284
1286 5.7478337
1284 5.7636709
1282 5.7654514
1280 5.7670646
1278 5.767909
1276 5.77565
1274 5.8029499
1272 5.8507376
1270 5.9391365
1268 6.0558619
1266 6.2115092
1264 6.3834543
1262 6.5673375
1260 6.739182
1258 6.8955154
1256 7.0356369
1254 7.1626177
1252 7.2875042
1250 7.4056444
1248 7.5059829
1246 7.5903749
1244 7.6460843
1242 7.6871977
1240 7.7127109
1238 7.7218776
1236 7.6927872
1234 7.6294856
1232 7.479764
1230 7.2864981
1228 6.9805183
1226 6.6326194
1224 6.1727839
1222 5.6859889
1220 5.1373787
1218 4.597703
1216 4.0795116
1214 3.5929523
1212 3.1632602
1210 2.7675962
1208 2.4230292
1206 2.1120079
1204 1.840616
1202 1.5886357
1200 1.3558171
1198 1.1314031
1196 0.91770285
1194 0.72267741
1192 0.54933643
1190 0.42276108
1188 0.33372322
1186 0.31468338
1184 0.33238125
1182 0.40674245
1180 0.51099443
1178 0.68619621
1176 0.89735997
1174 1.2159145
1172 1.5471646
1170 1.8999236
1168 2.2194321
1166 2.4322937
1164 2.5946825
1162 2.6296542
1160 2.61322
1158 2.4914286
1156 2.3261356
1154 2.090426
1152 1.839164
1150 1.5680704
1148 1.293552
1146 1.0151535
1144 0.73557144
1142 0.46315274
1140 0.23678714
1138 0.057467192
1136 -0.03293306
1134 -0.062312819
1132 0.011833757
1130 0.1402698
1128 0.34675628
1126 0.57982934
1124 0.84183079
1122 1.0960517
1120 1.2820001
1118 1.4411286
1116 1.4902714
1114 1.5274682
1112 1.5231451
1110 1.5235081
1108 1.5395103
1106 1.5644751
1104 1.6092446
1102 1.6397561
1100 1.6381743
1098 1.5998082
1096 1.5074571
1094 1.4278497
1092 1.373798
1090 1.396289
1088 1.496948
1086 1.63254
1084 1.7880206
1082 1.8962349
1080 1.9687577
1078 1.983583
1076 1.96627
1074 1.903232
1072 1.8214868
1070 1.7149303
1068 1.606524
1066 1.5259258
1064 1.454284
1062 1.4228615
1060 1.3966206
1058 1.3910718
1056 1.3895943
1054 1.4052606
1052 1.4208606
1050 1.43556
1048 1.4379795
1046 1.4095643
1044 1.3645234
1042 1.2880032
1040 1.2090423
1038 1.1281824
1036 1.06984
1034 1.0399973
1032 1.0375663
1030 1.0576235
1028 1.05525
1026 1.0326214
1024 0.95692164
1022 0.85411972
1020 0.75883788
1018 0.66862667
1016 0.60509312
1014 0.5449121
1012 0.44253218
1010 0.33105388
1008 0.19604409
1006 0.065133847
1004 0.0045480952
1002 -0.044806272
1000 -0.021497315
998 0.012969665
996 0.096827216
994 0.19159281
992 0.31898564
990 0.43883085
988 0.53927511
986 0.60692149
984 0.61603153
982 0.58337533
980 0.49528599
978 0.40058097
976 0.30086172
974 0.23648866
972 0.20031525
970 0.16838872
968 0.13936909
966 0.1086389
964 0.079263367
962 0.089653388
960 0.1121092
958 0.12641561
956 0.13618998
954 0.089290291
952 0.035630554
950 -0.014174603
948 -0.058031507
946 -0.019125644
944 0.00093911961
942 0.02944234
940 0.092200793
938 0.16757821
936 0.23690629
934 0.28886473
932 0.34130597
930 0.39451927
928 0.43855521
926 0.46814966
924 0.50226921
922 0.54295599
920 0.62568545
918 0.74652267
916 0.82698071
914 0.87737918
912 0.82152981
910 0.71071631
908 0.61655003
906 0.53083807
904 0.51390326
902 0.51644206
900 0.57052964
898 0.63339639
896 0.75665998
