##TITLE=Methyl Ethyl Ketone
##JCAMP-DX=4.24
##DATA TYPE=INFRARED SPECTRUM
##XUNITS=cm-1
##YUNITS=Absorbance
##FIRSTX=900
##LASTX=2300
##XYDATA=(X++(Y..Y))
2296 0.14695001
2294 0.15000564
2292 0.15306126
2290 0.15611689
2288 0.15917252
2286 0.16223806
2284 0.16529377
2282 0.1683494
2280 0.17140503
2278 0.17446066
2276 0.17751628
2274 0.18058175
2272 0.18363754
2270 0.18667354
2268 0.18974839
2266 0.19285336
2264 0.19586121
2262 0.19874005
2260 0.20196669
2258 0.20569821
2256 0.208112
2254 0.208665
2252 0.21412338
2250 0.22650534
2248 0.22064286
2246 0.17209001
2244 0.089672267
2242 -0.0046205586
2240 -0.07341595
2238 -0.085477032
2236 -0.051443957
2234 0.0074399011
2232 0.075414039
2230 0.13921809
2228 0.18878292
2226 0.217475
2224 0.22886743
2222 0.22806506
2220 0.21438117
2218 0.18573414
2216 0.14135028
2214 0.084061123
2212 0.02954456
2210 -0.0072981147
2208 -0.030440198
2206 -0.050257053
2204 -0.079615973
2202 -0.12723483
2200 -0.18223292
2198 -0.2287921
2196 -0.25559571
2194 -0.25642723
2192 -0.23954828
2190 -0.2187068
2188 -0.21150826
2186 -0.23350443
2184 -0.28735399
2182 -0.36903
2180 -0.46431926
2178 -0.5558781
2176 -0.62684774
2174 -0.66386276
2172 -0.66713077
2170 -0.64613903
2168 -0.63012248
2166 -0.64962053
2164 -0.7141456
2162 -0.81795019
2160 -0.92207491
2158 -0.98204607
2156 -0.97602499
2154 -0.89908129
2152 -0.78272134
2150 -0.66884869
2148 -0.5914073
2146 -0.57465893
2144 -0.61580694
2142 -0.7000621
2140 -0.80189604
2138 -0.89532334
2136 -0.96702254
2134 -1.0102749
2132 -1.0264654
2130 -1.0207722
2128 -1.0017775
2126 -0.97993869
2124 -0.96855873
2122 -0.97831273
2120 -1.0049882
2118 -1.0414195
2116 -1.0909042
2114 -1.158661
2112 -1.2408469
2110 -1.3276016
2108 -1.3978953
2106 -1.4339657
2104 -1.4494171
2102 -1.4684286
2100 -1.5097281
2098 -1.5843422
2096 -1.6833714
2094 -1.7891335
2092 -1.8803606
2090 -1.9353459
2088 -1.9344263
2086 -1.86857
2084 -1.7673362
2082 -1.6753113
2080 -1.6359749
2078 -1.6778202
2076 -1.7720343
2074 -1.8688612
2072 -1.92694
2070 -1.9205927
2068 -1.8690783
2066 -1.8082871
2064 -1.7677486
2062 -1.7682796
2060 -1.8101737
2058 -1.882642
2056 -1.9635772
2054 -2.0283866
2052 -2.0612943
2050 -2.055779
2048 -2.0295725
2046 -2.0056715
2044 -1.9870859
2042 -1.9662188
2040 -1.928552
2038 -1.8653682
2036 -1.8028842
2034 -1.7776002
2032 -1.8041794
2030 -1.878978
2028 -1.9657308
2026 -2.0216463
2024 -2.0338199
2022 -2.009728
2020 -1.9849935
2018 -1.9999549
2016 -2.06464
2014 -2.1680019
2012 -2.2701735
2010 -2.3275006
2008 -2.3336639
2006 -2.3016407
2004 -2.2513168
2002 -2.201648
2000 -2.1588321
1998 -2.1235733
1996 -2.0985641
1994 -2.086014
1992 -2.0808468
1990 -2.0745299
1988 -2.058336
1986 -2.0260935
1984 -1.9811857
1982 -1.9315816
1980 -1.8848377
1978 -1.844745
1976 -1.8002828
1974 -1.734414
1972 -1.635586
1970 -1.5037836
1968 -1.3758919
1966 -1.30176
1964 -1.3097939
1962 -1.4053065
1960 -1.547024
1958 -1.6767594
1956 -1.7613415
1954 -1.7881198
1952 -1.7714131
1950 -1.7363914
1948 -1.7024283
1946 -1.68215
1944 -1.6773514
1942 -1.6836748
1940 -1.6924623
1938 -1.6941791
1936 -1.6842686
1934 -1.6614746
1932 -1.628726
1930 -1.5895401
1928 -1.5413795
1926 -1.4758378
1924 -1.3747866
1922 -1.222393
1920 -1.0357077
1918 -0.85057127
1916 -0.70482242
1914 -0.62884259
1912 -0.62244421
1910 -0.66862845
1908 -0.75007051
1906 -0.84740371
1904 -0.92685157
1902 -0.95022136
1900 -0.89580083
1898 -0.76106638
1896 -0.58393002
1894 -0.42135257
1892 -0.3173233
1890 -0.2974278
1888 -0.34755874
1886 -0.4315142
1884 -0.51231945
1882 -0.55995923
1880 -0.56807029
1878 -0.54494393
1876 -0.50341398
1874 -0.45613953
1872 -0.40894216
1870 -0.36299542
1868 -0.31719676
1866 -0.27054802
1864 -0.226576
1862 -0.1916512
1860 -0.17237772
1858 -0.17270447
1856 -0.185514
1854 -0.19619538
1852 -0.18683489
1850 -0.14411215
1848 -0.081083238
1846 -0.027491821
1844 -0.014450826
1842 -0.063377634
1840 -0.15629789
1838 -0.25259516
1836 -0.32009986
1834 -0.3375096
1832 -0.29657778
1830 -0.19976859
1828 -0.064241141
1826 0.08175078
1824 0.19861388
1822 0.24869633
1820 0.23164959
1818 0.17436887
1816 0.11450349
1814 0.087466411
1812 0.099686846
1810 0.13845241
1808 0.19273189
1806 0.25548899
1804 0.32240176
1802 0.38916734
1800 0.44527417
1798 0.47574559
1796 0.46507427
1794 0.40487444
1792 0.31843999
1790 0.25075653
1788 0.24746013
1786 0.33845937
1784 0.49213251
1782 0.64329398
1780 0.76616466
1778 0.86689079
1776 0.94796145
1774 0.99993926
1772 0.98947132
1770 0.87931132
1768 0.68715537
1766 0.47099906
1764 0.28542221
1762 0.16016276
1760 0.046746857
1758 -0.13282804
1756 -0.33818787
1754 -0.45096892
1752 -0.42291588
1750 -0.28127649
1748 -0.10726063
1746 -0.0024619643
1744 -0.019877825
1742 -0.15737647
1740 -0.34376732
1738 -0.475003
1736 -0.50722003
1734 -0.45749891
1732 -0.3862299
1730 -0.36560372
1728 -0.40483078
1726 -0.45706344
1724 -0.4545534
1722 -0.3247166
1720 -0.011942744
1718 0.5106039
1716 1.2021793
1714 1.9687688
1712 2.7026823
1710 3.3226535
1708 3.8868439
1706 4.5684328
1704 5.5631213
1702 7.0570583
1700 9.1872387
1698 11.990274
1696 15.218429
1694 18.432529
1692 21.35067
1690 23.913651
1688 26.35009
1686 29.069099
1684 32.34721
1682 36.229
1680 40.33696
1678 44.065189
1676 47.267117
1674 50.244804
1672 53.368187
1670 56.932152
1668 60.934147
1666 65.131248
1664 69.316864
1662 73.360229
1660 77.160591
1658 80.656532
1656 83.910744
1654 87.074371
1652 90.217522
1650 93.257866
1648 95.813087
1646 97.348679
1644 97.7743
1642 97.416435
1640 96.518074
1638 95.14518
1636 93.23896
1634 90.694626
1632 87.594734
1630 84.183853
1628 80.591881
1626 76.805038
1624 72.78196
1622 68.503662
1620 64.053307
1618 59.604702
1616 55.320831
1614 51.33186
1612 47.742905
1610 44.622669
1608 41.943657
1606 39.59465
1604 37.475918
1602 35.525944
1600 33.735622
1598 32.13586
1596 30.749001
1594 29.575527
1592 28.597536
1590 27.786154
1588 27.124361
1586 26.609158
1584 26.237572
1582 26.010519
1580 25.954008
1578 26.116783
1576 26.535543
1574 27.213787
1572 28.07523
1570 28.976583
1568 29.81708
1566 30.565044
1564 31.239143
1562 31.923418
1560 32.851749
1558 34.348499
1556 36.463829
1554 38.918327
1552 41.335155
1550 43.362362
1548 44.943329
1546 46.319859
1544 47.658989
1542 48.955936
1540 50.083878
1538 50.838074
1536 51.091286
1534 50.844864
1532 50.22747
1530 49.458244
1528 48.642738
1526 47.728798
1524 46.615799
1522 45.201996
1520 43.475948
1518 41.5411
1516 39.560314
1514 37.699409
1512 35.92952
1510 34.005436
1508 31.725399
1506 29.032536
1504 26.099989
1502 23.301542
1500 20.845383
1498 18.683239
1496 16.691429
1494 14.731694
1492 12.723414
1490 10.659866
1488 8.5560551
1486 6.4479012
1484 4.4342022
1482 2.6798749
1480 1.3159544
1478 0.42018107
1476 0.095314324
1474 0.44648457
1472 1.3525515
1470 2.4330471
1468 3.4177015
1466 4.2584472
1464 4.9983363
1462 5.7160945
1460 6.3860817
1458 6.8479733
1456 6.9750199
1454 6.7457991
1452 6.2819023
1450 5.8360662
1448 5.5337644
1446 5.3018074
1444 5.0731974
1442 4.8452058
1440 4.6198778
1438 4.3824105
1436 4.0904584
1434 3.6796589
1432 3.1397281
1430 2.5423625
1428 1.9836481
1426 1.5600135
1424 1.3190926
1422 1.2387658
1420 1.2734768
1418 1.3706344
1416 1.5031629
1414 1.681465
1412 1.9207214
1410 2.2281141
1408 2.5922508
1406 2.9795885
1404 3.362644
1402 3.7293928
1400 4.07092
1398 4.3773999
1396 4.6367502
1394 4.835258
1392 4.9663668
1390 5.0341682
1388 5.0416842
1386 4.9882503
1384 4.8790698
1382 4.7291594
1380 4.5553727
1378 4.3727236
1376 4.1877027
1374 3.9951754
1372 3.7907159
1370 3.573612
1368 3.3361113
1366 3.0583165
1364 2.7170575
1362 2.2937629
1360 1.8017452
1358 1.3007514
1356 0.85170877
1354 0.49572146
1352 0.23980211
1350 0.04751236
1348 -0.10641651
1346 -0.21471429
1344 -0.26705882
1342 -0.26370427
1340 -0.22922112
1338 -0.21885714
1336 -0.266514
1334 -0.35859299
1332 -0.46180844
1330 -0.53080308
1328 -0.53338128
1326 -0.46397379
1324 -0.32545555
1322 -0.12594019
1320 0.11816204
1318 0.37853414
1316 0.6243
1314 0.82650006
1312 0.96693975
1310 1.0462581
1308 1.0772662
1306 1.0856864
1304 1.0966154
1302 1.1281279
1300 1.1891878
1298 1.2751994
1296 1.3758857
1294 1.4767091
1292 1.564886
1290 1.6334876
1288 1.683372
1286 1.72716
1284 1.7806783
1282 1.8592365
1280 1.9711463
1278 2.1120114
1276 2.2728257
1274 2.4419191
1272 2.6115646
1270 2.7836447
1268 2.9690154
1266 3.19153
1264 3.4769382
1262 3.8466115
1260 4.3067541
1258 4.836946
1256 5.4106827
1254 6.0040216
1252 6.6071281
1250 7.235281
1248 7.9038539
1246 8.6151752
1244 9.3567591
1242 10.093267
1240 10.78724
1238 11.407357
1236 11.930343
1234 12.343465
1232 12.63968
1230 12.818949
1228 12.886154
1226 12.852015
1224 12.722737
1222 12.491882
1220 12.154958
1218 11.72077
1216 11.209286
1214 10.657119
1212 10.093749
1210 9.5246792
1208 8.9443188
1206 8.3360195
1204 7.6893082
1202 7.0121675
1200 6.3172441
1198 5.6165786
1196 4.9175644
1194 4.2193747
1192 3.5293503
1190 2.87585
1188 2.2907569
1186 1.8007629
1184 1.4186777
1182 1.1305724
1180 0.92147863
1178 0.78762841
1176 0.72524202
1174 0.72320825
1172 0.75808913
1170 0.78468031
1168 0.76449037
1166 0.68676984
1164 0.55863351
1162 0.41176701
1160 0.27735233
1158 0.17178254
1156 0.10299496
1154 0.067129403
1152 0.053370267
1150 0.04192473
1148 0.014988622
1146 -0.033902712
1144 -0.093288742
1142 -0.11763311
1140 -0.064589605
1138 0.080606982
1136 0.31684941
1134 0.62122071
1132 0.96735537
1130 1.3343288
1128 1.7134343
1126 2.1215892
1124 2.5724134
1122 3.0570533
1120 3.5571721
1118 4.0453382
1116 4.4990888
1114 4.9136143
1112 5.2900839
1110 5.6345019
1108 5.958251
1106 6.2835698
1104 6.6324205
1102 7.0194654
1100 7.4472637
1098 7.8936367
1096 8.3386431
1094 8.7828579
1092 9.2341785
1090 9.7046604
1088 10.195926
1086 10.67875
1084 11.127057
1082 11.530094
1080 11.886452
1078 12.20418
1076 12.482314
1074 12.700071
1072 12.840806
1070 12.911611
1068 12.929017
1066 12.920786
1064 12.9108
1062 12.899984
1060 12.87926
1058 12.82304
1056 12.699429
1054 12.469275
1052 12.10318
1050 11.60965
1048 11.022988
1046 10.42205
1044 9.8831968
1042 9.4452515
1040 9.1127844
1038 8.8215485
1036 8.4980497
1034 8.0924988
1032 7.5839267
1030 7.0185766
1028 6.4550886
1026 5.94032
1024 5.5056009
1022 5.1463037
1020 4.8452706
1018 4.5749335
1016 4.3102002
1014 4.0404105
1012 3.7636964
1010 3.4924588
1008 3.2341239
1006 2.9704363
1004 2.6832786
1002 2.3753016
1000 2.0566857
998 1.7460383
996 1.4528786
994 1.1527238
992 0.82386768
990 0.48101011
988 0.15411562
986 -0.10684513
984 -0.26201689
982 -0.32035282
980 -0.30430239
978 -0.24085709
976 -0.1503315
974 -0.027380779
972 0.13897748
970 0.35697383
968 0.62704563
966 0.92541802
964 1.218032
962 1.4567536
960 1.5991378
958 1.6345241
956 1.5632243
954 1.3948967
952 1.1441792
950 0.83569777
948 0.50662649
946 0.22936305
944 0.064612076
942 9.3186041e-05
940 0.003944803
938 0.039094031
936 0.071091883
934 0.079821505
932 0.052479971
930 -0.0099453554
928 -0.10159472
926 -0.21123558
924 -0.324377
922 -0.41946718
920 -0.48138183
918 -0.525846
916 -0.57620484
914 -0.65536451
912 -0.77546692
910 -0.90775418
908 -1.0145251
906 -1.0635078
904 -1.0363905
902 -0.96479499
900 -0.88201028
898 -0.77720737
896 -0.62857997
