##TITLE=Methyl Ethyl Ketone
##JCAMP-DX=4.24
##DATA TYPE=INFRARED SPECTRUM
##XUNITS=cm-1
##YUNITS=Absorbance
##FIRSTX=900
##LASTX=2300
##XYDATA=(X++(Y..Y))
2296 0.061670002
2294 0.062952168
2292 0.06423533
2290 0.065518491
2288 0.066801652
2286 0.068084821
2284 0.069366999
2282 0.070650145
2280 0.071933314
2278 0.073216483
2276 0.074498653
2274 0.075781807
2272 0.077064969
2270 0.078349113
2268 0.079630338
2266 0.080908574
2264 0.082196511
2262 0.083498336
2260 0.084763445
2258 0.085975103
2256 0.087326229
2254 0.088873349
2252 0.089903094
2250 0.090202898
2248 0.092425421
2246 0.095408432
2244 0.079413176
2242 0.028947696
2240 -0.033447519
2238 -0.077214204
2236 -0.082896404
2234 -0.039554462
2232 0.042568561
2230 0.14424919
2228 0.23448071
2226 0.29057699
2224 0.33727577
2222 0.40703976
2220 0.50753713
2218 0.63031363
2216 0.73202485
2214 0.77061647
2212 0.75104004
2210 0.69631159
2208 0.64477271
2206 0.63103259
2204 0.65646064
2202 0.71114635
2200 0.78090447
2198 0.85287809
2196 0.92436928
2194 0.99306345
2192 1.045216
2190 1.0666538
2188 1.0566565
2186 1.0238186
2184 0.99690396
2182 1.0065577
2180 1.0645546
2178 1.1701539
2176 1.2983485
2174 1.4158479
2172 1.4888886
2170 1.4929069
2168 1.4412749
2166 1.3619865
2164 1.2925397
2162 1.2650301
2160 1.2781487
2158 1.319553
2156 1.37826
2154 1.4453131
2152 1.5183195
2150 1.5956762
2148 1.6700666
2146 1.7319179
2144 1.7705805
2142 1.776458
2140 1.7450668
2138 1.6800646
2136 1.6121601
2134 1.5768102
2132 1.5891798
2130 1.6490335
2128 1.722008
2126 1.7705235
2124 1.7937183
2122 1.8025928
2120 1.8005275
2118 1.7845632
2116 1.7380315
2114 1.6497201
2112 1.5509034
2110 1.4839505
2108 1.4713714
2106 1.5197051
2104 1.6026411
2102 1.6870461
2100 1.76191
2098 1.8262042
2096 1.8832715
2094 1.9343424
2092 1.9648365
2090 1.9577129
2088 1.9089714
2086 1.82549
2084 1.736168
2082 1.6768543
2080 1.6772263
2078 1.7554612
2076 1.8933314
2074 2.056582
2072 2.2053878
2070 2.3057647
2068 2.3558438
2066 2.3673799
2064 2.3536165
2062 2.3254645
2060 2.2847316
2058 2.2319329
2056 2.1796799
2054 2.1435871
2052 2.130964
2050 2.1416993
2048 2.1594405
2046 2.1647534
2044 2.153966
2042 2.1311994
2040 2.1048822
2038 2.0826254
2036 2.06388
2034 2.0456247
2032 2.0300286
2030 2.0208819
2028 2.0174594
2026 2.016758
2024 2.0129132
2022 2.0003378
2020 1.9775088
2018 1.9455918
2016 1.9086601
2014 1.8718723
2012 1.8401872
2010 1.8191202
2008 1.8160943
2006 1.8373108
2004 1.8791265
2002 1.930886
2000 1.9726177
1998 1.9835551
1996 1.9581357
1994 1.8996292
1992 1.8192703
1990 1.7315092
1988 1.6511041
1986 1.5902222
1984 1.5514549
1982 1.5315661
1980 1.523664
1978 1.5215498
1976 1.5275486
1974 1.54711
1972 1.5803759
1970 1.6227077
1968 1.6627864
1966 1.6881028
1964 1.6955411
1962 1.688305
1960 1.6743239
1958 1.6625832
1956 1.6571985
1954 1.6590961
1952 1.6670903
1950 1.6772298
1948 1.6777711
1946 1.6566999
1944 1.6175617
1942 1.5736762
1940 1.544752
1938 1.5462917
1936 1.5649457
1934 1.5736881
1932 1.553562
1930 1.4975759
1928 1.4273257
1926 1.3783092
1924 1.3812311
1922 1.4538428
1920 1.5741708
1918 1.6996011
1916 1.7905571
1914 1.8180352
1912 1.783216
1910 1.70329
1908 1.5930474
1906 1.465965
1904 1.3427401
1902 1.2487119
1900 1.2124065
1898 1.2561402
1896 1.3695
1894 1.5200166
1892 1.6594086
1890 1.738467
1888 1.7364937
1886 1.6553986
1884 1.5213305
1882 1.3705555
1880 1.2281246
1878 1.1086504
1876 1.014743
1874 0.94410938
1872 0.90104347
1870 0.8929711
1868 0.92115521
1866 0.97888631
1864 1.0423359
1862 1.0822999
1860 1.0889834
1858 1.067598
1856 1.0337143
1854 1.0057719
1852 0.99189281
1850 0.99051595
1848 0.98686802
1846 0.96145004
1844 0.90690744
1842 0.8278929
1840 0.74540401
1838 0.68579721
1836 0.65771556
1834 0.65741748
1832 0.68025064
1830 0.72142893
1828 0.7722429
1826 0.81888294
1824 0.83610177
1822 0.79809147
1820 0.70827717
1818 0.5919289
1816 0.48378286
1814 0.41656378
1812 0.39623782
1810 0.40993744
1808 0.44117755
1806 0.473764
1804 0.49413913
1802 0.49266267
1800 0.46928823
1798 0.43357056
1796 0.41039002
1794 0.42957842
1792 0.4997904
1790 0.60885441
1788 0.72065234
1786 0.79001695
1784 0.79650074
1782 0.74571609
1780 0.67612255
1778 0.63741714
1776 0.63713348
1774 0.64552116
1772 0.60911196
1770 0.47908223
1768 0.28553468
1766 0.1105434
1764 0.010184639
1762 -0.0029211505
1760 0.0042543695
1758 -0.065733917
1756 -0.20287099
1754 -0.32000625
1752 -0.366714
1750 -0.34021911
1748 -0.2808609
1746 -0.24924679
1744 -0.27756128
1742 -0.3637459
1740 -0.46141967
1738 -0.50381631
1736 -0.466782
1734 -0.36960664
1732 -0.26548415
1730 -0.21669094
1728 -0.23262464
1726 -0.27613544
1724 -0.29430273
1722 -0.22843449
1720 -0.019751385
1718 0.38222241
1716 0.99265051
1714 1.7828507
1712 2.646028
1710 3.4459832
1708 4.1766281
1706 4.9553843
1704 5.95713
1702 7.3847046
1700 9.4375067
1698 12.235188
1696 15.550143
1694 18.90716
1692 21.973837
1690 24.646425
1688 27.150074
1686 29.932165
1684 33.342525
1682 37.500622
1680 42.003201
1678 46.139149
1676 49.70187
1674 52.992184
1672 56.400833
1670 60.237316
1668 64.457306
1666 68.74855
1664 72.931602
1662 76.992775
1660 80.926186
1658 84.701942
1656 88.278145
1654 91.595619
1652 94.538139
1650 96.930542
1648 98.542961
1646 99.167175
1644 98.89193
1642 98.037369
1640 96.747856
1638 94.954262
1636 92.546646
1634 89.457062
1632 85.824516
1630 81.947037
1628 77.989754
1626 73.956009
1624 69.808121
1622 65.518394
1620 61.145744
1618 56.825962
1616 52.680229
1614 48.799965
1612 45.272339
1610 42.17067
1608 39.492676
1606 37.162399
1604 35.10289
1602 33.260006
1600 31.615082
1598 30.180605
1596 28.9655
1594 27.966278
1592 27.16503
1590 26.535854
1588 26.066229
1586 25.759092
1584 25.613565
1582 25.622141
1580 25.785212
1578 26.113138
1576 26.624256
1574 27.332724
1572 28.209267
1570 29.179466
1568 30.16596
1566 31.105192
1564 31.974369
1562 32.823017
1560 33.856998
1558 35.381458
1556 37.448227
1554 39.79911
1552 42.08543
1550 43.981033
1548 45.431923
1546 46.662571
1544 47.83036
1542 48.940727
1540 49.90202
1538 50.557606
1536 50.787487
1534 50.548965
1532 49.920113
1530 49.078712
1528 48.124348
1526 47.040051
1524 45.776073
1522 44.287838
1520 42.585041
1518 40.74519
1516 38.883801
1514 37.111572
1512 35.385838
1510 33.492786
1508 31.253382
1506 28.610193
1504 25.721319
1502 22.938944
1500 20.466871
1498 18.27319
1496 16.246
1494 14.250745
1492 12.213474
1490 10.143468
1488 8.0799417
1486 6.0840826
1484 4.250536
1482 2.6980033
1480 1.4793122
1478 0.58096063
1476 0.096596003
1474 0.2275008
1472 0.95525211
1470 1.9707649
1468 3.0104916
1466 3.9621308
1464 4.8105392
1462 5.6079006
1460 6.3316197
1458 6.8527007
1456 7.0739403
1454 6.9876308
1452 6.6965904
1450 6.4005876
1448 6.1898556
1446 5.9892321
1444 5.7359905
1442 5.4312758
1440 5.0842185
1438 4.69349
1436 4.2418942
1434 3.7026749
1432 3.0949776
1430 2.5008276
1428 1.9972399
1426 1.6293771
1424 1.4030383
1422 1.2816359
1420 1.2338052
1418 1.2509258
1416 1.3435714
1414 1.538774
1412 1.8471406
1410 2.2498589
1408 2.715117
1406 3.2018778
1404 3.6690483
1402 4.0801454
1400 4.4089522
1398 4.6464562
1396 4.8071856
1394 4.9319301
1392 5.0506539
1390 5.1659379
1388 5.2561288
1386 5.2771702
1384 5.2037797
1382 5.0468259
1380 4.8294001
1378 4.5784149
1376 4.3070259
1374 4.0080967
1372 3.6780479
1370 3.3249552
1368 2.9538
1366 2.56042
1364 2.1379418
1362 1.6827598
1360 1.2163532
1358 0.7952103
1356 0.46420544
1354 0.23477736
1352 0.095439434
1350 0.012919614
1348 -0.035020508
1346 -0.045809895
1344 -0.01448328
1342 0.057281055
1340 0.157086
1338 0.25875425
1336 0.33974001
1334 0.38981888
1332 0.40959108
1330 0.4133006
1328 0.42073947
1326 0.45510486
1324 0.53613019
1322 0.67455745
1320 0.86735928
1318 1.0920247
1316 1.32269
1314 1.5366243
1312 1.719632
1310 1.8705359
1308 1.9907637
1306 2.0807607
1304 2.1394
1302 2.1645191
1300 2.1588359
1298 2.1339698
1296 2.1060286
1294 2.0939312
1292 2.1117084
1290 2.1630635
1288 2.2441199
1286 2.3424878
1284 2.4450142
1282 2.5418386
1280 2.6289561
1278 2.7118473
1276 2.7989213
1274 2.8999281
1272 3.0233862
1270 3.1746027
1268 3.3556273
1266 3.5641985
1264 3.7975035
1262 4.0555124
1260 4.347404
1258 4.6972418
1256 5.1271257
1254 5.6464787
1252 6.2460938
1250 6.8879328
1248 7.532074
1246 8.1500492
1244 8.7268648
1242 9.268363
1240 9.7801352
1238 10.257195
1236 10.689229
1234 11.058084
1232 11.34464
1230 11.525994
1228 11.57972
1226 11.487028
1224 11.244406
1222 10.878077
1220 10.421434
1218 9.9053745
1216 9.353097
1214 8.7720642
1212 8.170785
1210 7.5695834
1208 6.9867868
1206 6.4307909
1204 5.899828
1202 5.3765101
1200 4.8458166
1198 4.3057256
1196 3.7600572
1194 3.2185047
1192 2.6887515
1190 2.171977
1188 1.6716145
1186 1.1995343
1184 0.77418977
1182 0.42262715
1180 0.16654463
1178 0.010079756
1176 -0.0561288
1174 -0.061775617
1172 -0.04016412
1170 -0.021004092
1168 -0.025415074
1166 -0.056667194
1164 -0.10853252
1162 -0.1633966
1160 -0.20437634
1158 -0.22303191
1156 -0.21863958
1154 -0.20315541
1152 -0.18886332
1150 -0.18134388
1148 -0.1806508
1146 -0.17756929
1144 -0.16022451
1142 -0.11614171
1140 -0.036867682
1138 0.07658153
1136 0.22350629
1134 0.40880972
1132 0.63495827
1130 0.89594477
1128 1.18786
1126 1.5163987
1124 1.8875294
1122 2.3005452
1120 2.7430799
1118 3.1794848
1116 3.5757101
1114 3.9170799
1112 4.2075744
1110 4.4840107
1108 4.7800908
1106 5.10221
1104 5.4470658
1102 5.8035126
1100 6.1638083
1098 6.5329719
1096 6.912714
1094 7.2902493
1092 7.65203
1090 7.9932666
1088 8.3166857
1086 8.6377077
1084 8.9695854
1082 9.3110495
1080 9.6506109
1078 9.9595823
1076 10.212458
1074 10.402164
1072 10.531315
1070 10.618202
1068 10.681405
1066 10.722793
1064 10.74372
1062 10.748288
1060 10.740306
1058 10.71433
1056 10.659114
1054 10.546122
1052 10.352248
1050 10.077545
1048 9.7327757
1046 9.3474493
1044 8.9485025
1042 8.5451794
1040 8.1422577
1038 7.7436604
1036 7.3537402
1034 6.9770117
1032 6.6116562
1030 6.2363706
1028 5.8332477
1026 5.4083672
1024 4.9792261
1022 4.5795789
1020 4.238719
1018 3.9598794
1016 3.7378628
1014 3.5604644
1012 3.4093733
1010 3.2529798
1008 3.0571558
1006 2.7916498
1004 2.4464478
1002 2.0709579
1000 1.7230315
998 1.4405788
996 1.2393
994 1.0797453
992 0.91572905
990 0.721264
988 0.48677719
986 0.23859216
984 0.011399686
982 -0.16168791
980 -0.24971122
978 -0.22793478
976 -0.082548618
974 0.16894543
972 0.49448365
970 0.83931166
968 1.1483046
966 1.384045
964 1.5169228
962 1.5299746
960 1.4191657
958 1.2150562
956 0.95919204
954 0.70327854
952 0.48919559
950 0.31666005
948 0.17861061
946 0.08073318
944 0.026394904
942 -0.00061712228
940 -0.019498194
938 -0.042898491
936 -0.088994063
934 -0.20137843
932 -0.40810752
930 -0.65710551
928 -0.87999994
926 -1.0221878
924 -1.052882
922 -1.0168453
920 -0.97126442
918 -0.94761729
916 -0.95890915
914 -0.97166032
912 -0.94784027
910 -0.87665546
908 -0.76230586
906 -0.64086723
904 -0.54841399
902 -0.489811
900 -0.45742732
898 -0.42498928
896 -0.36157
