##TITLE=Methyl Ethyl Ketone
##JCAMP-DX=4.24
##DATA TYPE=INFRARED SPECTRUM
##XUNITS=cm-1
##YUNITS=Absorbance
##FIRSTX=900
##LASTX=2300
##XYDATA=(X++(Y..Y))
2296 0.13533001
2294 0.13814598
2292 0.14095196
2290 0.14376791
2288 0.14658388
2286 0.14939985
2284 0.15221582
2282 0.1550318
2280 0.15784776
2278 0.16066374
2276 0.1634797
2274 0.16629568
2272 0.16911165
2270 0.17192762
2268 0.17474359
2266 0.17755957
2264 0.18036577
2262 0.18318151
2260 0.18599749
2258 0.18881345
2256 0.19162942
2254 0.1944454
2252 0.19726136
2250 0.20007734
2248 0.20289332
2246 0.20570928
2244 0.079607353
2242 0.0028827901
2240 -0.07899648
2238 -0.10845892
2236 -0.130226
2234 -0.039818119
2232 0.060981989
2230 0.21395071
2228 0.35259664
2226 0.356754
2224 0.3279162
2222 0.1792403
2220 0.039303347
2218 -0.054624259
2216 -0.10634428
2214 -0.071504384
2212 -0.037529059
2210 -0.013268673
2208 -0.040282466
2206 -0.13047476
2204 -0.23309842
2202 -0.34378231
2200 -0.42338049
2198 -0.47932848
2196 -0.52973574
2194 -0.57790631
2192 -0.62726986
2190 -0.6772567
2188 -0.68996483
2186 -0.69052571
2184 -0.64936757
2182 -0.59877747
2180 -0.59505939
2178 -0.59921157
2176 -0.66878319
2174 -0.74078572
2172 -0.77221364
2170 -0.79138577
2168 -0.76249379
2166 -0.73411977
2164 -0.72488207
2162 -0.7367143
2160 -0.79761952
2158 -0.86357838
2156 -0.92957097
2154 -0.9593541
2152 -0.93667954
2150 -0.89200389
2148 -0.8287431
2146 -0.7581079
2144 -0.68271142
2142 -0.57745886
2140 -0.45186615
2138 -0.38234213
2136 -0.3444517
2134 -0.43843114
2132 -0.58649486
2130 -0.72013634
2128 -0.84756565
2126 -0.86932147
2124 -0.86668515
2122 -0.87112904
2120 -0.87707573
2118 -0.88530165
2116 -0.89085174
2114 -0.87329221
2112 -0.8650372
2110 -0.91222239
2108 -0.97417194
2106 -1.0562426
2104 -1.1347578
2102 -1.199067
2100 -1.270394
2098 -1.3570129
2096 -1.4169143
2094 -1.439176
2092 -1.4199866
2090 -1.3634229
2088 -1.3431463
2086 -1.35667
2084 -1.3834145
2082 -1.4157404
2080 -1.3917074
2078 -1.337938
2076 -1.3145871
2074 -1.3055893
2072 -1.3373281
2070 -1.3818388
2068 -1.3496032
2066 -1.300198
2064 -1.3123566
2062 -1.3517964
2060 -1.5408998
2058 -1.750772
2056 -1.9118115
2054 -2.0366437
2052 -2.0680344
2050 -2.0765646
2048 -2.0761719
2046 -2.0680785
2044 -2.0497539
2042 -2.0360315
2040 -2.0304496
2038 -2.0527847
2036 -2.1044958
2034 -2.1535482
2032 -2.1951005
2030 -2.2175229
2028 -2.227226
2026 -2.206665
2024 -2.1691716
2022 -2.0248322
2020 -1.826934
2018 -1.6062586
2016 -1.378
2014 -1.34328
2012 -1.3725652
2010 -1.5374084
2008 -1.7346331
2006 -1.9038807
2004 -2.0599341
2002 -2.1787841
2000 -2.2738755
1998 -2.3136659
1996 -2.3191214
1994 -2.2671802
1992 -2.2253435
1990 -2.2319219
1988 -2.30493
1986 -2.4650102
1984 -2.6263897
1982 -2.7611897
1980 -2.8154967
1978 -2.7893579
1976 -2.6914799
1974 -2.545357
1972 -2.3392615
1970 -2.0962911
1968 -1.8967491
1966 -1.7287686
1964 -1.7510234
1962 -1.8688095
1960 -2.03584
1958 -2.2181497
1956 -2.3304913
1954 -2.4159312
1952 -2.5015948
1950 -2.5810711
1948 -2.6272514
1946 -2.6645501
1944 -2.706039
1942 -2.7795601
1940 -2.9367437
1938 -3.1124568
1936 -3.2633514
1934 -3.3596625
1932 -3.3703361
1930 -3.3233721
1928 -3.2330327
1926 -3.0525355
1924 -2.7756925
1922 -2.3981798
1920 -1.9342525
1918 -1.579079
1916 -1.3319257
1914 -1.2588022
1912 -1.3007457
1910 -1.4001443
1908 -1.5251992
1906 -1.7564186
1904 -2.0420401
1902 -2.318964
1900 -2.5862317
1898 -2.599376
1896 -2.5011287
1894 -2.2740247
1892 -2.0252223
1890 -1.955038
1888 -2.0115108
1886 -2.3036437
1884 -2.6820128
1882 -3.0522954
1880 -3.3489439
1878 -3.4878812
1876 -3.4662299
1874 -3.2644715
1872 -2.882076
1870 -2.3263099
1868 -1.8721726
1866 -1.5940964
1864 -1.7179372
1862 -2.195961
1860 -2.7479355
1858 -3.2907376
1856 -3.6288116
1854 -3.8177438
1852 -3.7398303
1850 -3.5091383
1848 -3.032212
1846 -2.4330678
1844 -2.048403
1842 -1.8007262
1840 -1.9677405
1838 -2.3107781
1836 -2.5401814
1834 -2.646136
1832 -2.4296834
1830 -2.0535498
1828 -1.6072549
1826 -1.2674457
1824 -1.259721
1822 -1.5021821
1820 -1.987994
1818 -2.4790912
1816 -2.8342915
1814 -2.9770513
1812 -2.8936117
1810 -2.7105565
1808 -2.4935744
1806 -2.2860498
1804 -2.097244
1802 -1.8498057
1800 -1.5516783
1798 -1.1938124
1796 -0.79940498
1794 -0.50892824
1792 -0.28681439
1790 -0.34614927
1788 -0.56596249
1786 -0.80960268
1784 -1.0379541
1782 -1.056438
1780 -0.91951913
1778 -0.55927825
1776 -0.042060003
1774 0.63418257
1772 1.2749754
1770 1.5946546
1768 1.5874302
1766 1.1862414
1764 0.69698584
1762 0.36474368
1760 0.10040428
1758 -0.1780892
1756 -0.30626801
1754 -0.21574053
1752 0.31413913
1750 1.2764615
1748 2.3250294
1746 3.3314285
1744 3.7518473
1742 3.6441252
1740 3.4200697
1738 3.184181
1736 3.2648001
1734 3.5770335
1732 3.4590316
1730 3.0082741
1728 2.032656
1726 0.78250754
1724 -0.045262545
1722 -0.4209604
1720 0.16712976
1718 1.5668299
1716 3.5960884
1714 5.644361
1712 6.8942509
1710 7.6405506
1708 8.1695261
1706 9.0272989
1704 10.677582
1702 13.255899
1700 16.769268
1698 20.595837
1696 24.385571
1694 27.517519
1692 29.838177
1690 32.062145
1688 34.416702
1686 37.751286
1684 42.042156
1682 46.777
1680 51.778439
1678 55.80698
1676 58.993343
1674 62.274872
1672 65.712128
1670 69.804276
1668 74.344391
1666 78.65995
1664 82.75058
1662 86.509888
1660 90.003357
1658 93.320351
1656 96.503029
1654 99.597778
1652 102.3346
1650 104.40634
1648 104.87771
1646 103.09464
1644 99.87886
1642 96.005371
1640 92.053757
1638 88.345741
1636 84.258598
1634 79.581253
1632 74.647438
1630 69.618835
1628 65.064964
1626 61.036098
1624 57.02256
1622 52.93771
1620 48.708878
1618 44.355392
1616 40.104141
1614 36.012005
1612 32.401337
1610 29.306551
1608 26.748623
1606 24.679701
1604 22.875261
1602 21.340248
1600 20.043743
1598 19.015684
1596 18.2575
1594 17.740623
1592 17.397217
1590 17.188711
1588 17.063974
1586 17.0979
1584 17.322937
1582 17.858181
1580 18.736778
1578 20.027197
1576 21.735172
1574 23.595314
1572 25.531918
1570 27.218519
1568 28.59392
1566 29.870371
1564 31.077545
1562 32.626564
1560 34.619781
1558 37.474663
1556 41.103745
1554 44.375721
1552 47.155823
1550 49.108601
1548 50.448765
1546 52.005287
1544 53.774601
1542 55.692009
1540 57.115219
1538 57.192909
1536 55.973198
1534 53.735329
1532 51.245384
1530 49.227894
1528 47.720432
1526 46.730549
1524 45.984737
1522 45.340408
1520 44.160633
1518 42.175449
1516 39.741787
1514 36.920048
1512 34.3964
1510 32.305035
1508 29.899454
1506 27.017744
1504 23.812771
1502 20.328182
1500 17.424795
1498 15.2085
1496 13.229571
1494 11.497149
1492 9.8462429
1490 8.2551908
1488 6.6540675
1486 5.0123706
1484 3.276068
1482 1.6654398
1480 0.47390789
1478 -0.13977091
1476 0.00028070807
1474 0.78002238
1472 2.0192947
1470 3.1818581
1468 3.8950326
1466 4.3641424
1464 4.6282725
1462 5.0575356
1460 5.8427591
1458 6.7680435
1456 7.8262601
1454 8.4096069
1452 8.2611027
1450 7.7642155
1448 6.8205266
1446 5.9320464
1444 5.141109
1442 4.5407839
1440 4.2043395
1438 4.0999184
1436 4.2118554
1434 4.289432
1432 4.2542281
1430 3.9902942
1428 3.5944881
1426 3.3050427
1424 3.2149365
1422 3.4264338
1420 3.8187788
1418 4.2433758
1416 4.5292602
1414 4.4867339
1412 4.3220668
1410 4.1319504
1408 4.0727949
1406 4.2751608
1404 4.6295314
1402 5.1824903
1400 5.7958798
1398 6.4784865
1396 7.0444717
1394 7.3878579
1392 7.4735818
1390 7.1634641
1388 6.7327728
1386 6.13415
1384 5.510355
1382 4.8741651
1380 4.3310108
1378 3.9279633
1376 3.6981885
1374 3.6190295
1372 3.5529001
1370 3.4683018
1368 3.2895863
1366 3.0516992
1364 2.7894638
1362 2.479141
1360 2.0969925
1358 1.661984
1356 1.1856952
1354 0.74538922
1352 0.39829963
1350 0.12204751
1348 -0.066127598
1346 -0.17999285
1344 -0.092217438
1342 0.14471832
1340 0.64932024
1338 1.0990889
1336 1.4124829
1334 1.5091964
1332 1.2747762
1330 1.0602601
1328 0.91174936
1326 0.92652869
1324 1.162318
1322 1.5202702
1320 2.0022571
1318 2.4981227
1316 2.9521301
1314 3.2333369
1312 3.3248634
1310 3.2136536
1308 2.9754748
1306 2.7174606
1304 2.487675
1302 2.364917
1300 2.312058
1298 2.3409433
1296 2.3936572
1294 2.4520612
1292 2.5016556
1290 2.5303824
1288 2.5441999
1286 2.5300465
1284 2.5035634
1282 2.4566998
1280 2.4194858
1278 2.4103463
1276 2.4425228
1274 2.55285
1272 2.7163405
1270 2.9643936
1268 3.2499897
1266 3.5916035
1264 3.9470708
1262 4.3189621
1260 4.6723461
1258 4.9990354
1256 5.2872801
1254 5.5497541
1252 5.8239341
1250 6.1220665
1248 6.4773202
1246 6.853025
1244 7.2101517
1242 7.5302563
1240 7.7557411
1238 7.9386568
1236 8.0655079
1234 8.1665783
1232 8.2141962
1230 8.224637
1228 8.1296167
1226 7.9947872
1224 7.7494469
1222 7.4496593
1220 7.0192795
1218 6.5422282
1216 5.9797916
1214 5.4367261
1212 4.9294319
1210 4.4558916
1208 4.0235395
1206 3.5737715
1204 3.1056039
1202 2.6334288
1200 2.1696913
1198 1.7602543
1196 1.3955786
1194 1.0602411
1192 0.74312919
1190 0.43312448
1188 0.14611785
1186 -0.057660937
1184 -0.21688721
1182 -0.30432481
1180 -0.36997676
1178 -0.41560286
1176 -0.44344598
1174 -0.41186127
1172 -0.37526578
1170 -0.33068177
1168 -0.29520035
1166 -0.28246415
1164 -0.25193551
1162 -0.1771334
1160 -0.089578927
1158 0.018684022
1156 0.10608203
1154 0.15487537
1152 0.17116594
1150 0.14269771
1148 0.098400101
1146 0.04158425
1144 0.005351413
1142 -0.0096698869
1140 -0.0058457674
1138 0.011176078
1136 0.04161346
1134 0.10305437
1132 0.29777601
1130 0.57526028
1128 1.0181842
1126 1.49806
1124 1.9326726
1122 2.3291557
1120 2.5667279
1118 2.7844129
1116 2.9742143
1114 3.1692393
1112 3.3872337
1110 3.6016827
1108 3.8054519
1106 4.0099649
1104 4.2155805
1102 4.4110999
1100 4.5865278
1098 4.753922
1096 4.9117999
1094 5.0899525
1092 5.2923741
1090 5.4905663
1088 5.6835299
1086 5.866745
1084 6.0465317
1082 6.2568784
1080 6.4867921
1078 6.7332201
1076 6.9824343
1074 7.2002964
1072 7.3935895
1070 7.480804
1068 7.5267572
1066 7.4395227
1064 7.3343959
1062 7.2231164
1060 7.1276894
1058 7.1368375
1056 7.1435199
1054 7.13585
1052 7.0829268
1050 6.8853674
1048 6.6703844
1046 6.419982
1044 6.2274928
1042 6.1462107
1040 6.1039915
1038 6.1139574
1036 6.0782399
1034 5.981401
1032 5.7899885
1030 5.5070033
1028 5.1490331
1026 4.7464089
1024 4.4147377
1022 4.132472
1020 3.9783354
1018 3.8692312
1016 3.710197
1014 3.5240307
1012 3.1867898
1010 2.8192673
1008 2.399076
1006 1.9803315
1004 1.6318095
1002 1.2983677
1000 1.0659947
998 0.86192572
996 0.78240502
994 0.71741414
992 0.69459176
990 0.61534113
988 0.40631929
986 0.16952482
984 -0.11186823
982 -0.31992298
980 -0.42853418
978 -0.49049363
976 -0.50377399
974 -0.51272029
972 -0.51620692
970 -0.48560861
968 -0.4339276
966 -0.35936999
964 -0.27510691
962 -0.19907625
960 -0.12375573
958 -0.020699978
956 0.087403871
954 0.1653285
952 0.23412919
950 0.16750431
948 0.096346304
946 0.037394036
944 0.0020622499
942 0.065133467
940 0.22142029
938 0.52543348
936 0.82724398
934 1.1202482
932 1.3463626
930 1.4284021
928 1.4295789
926 1.3031828
924 1.233894
922 1.2374759
920 1.4492514
918 1.8542005
916 2.2609415
914 2.6658013
912 2.8040578
910 2.799752
908 2.7348218
906 2.6453114
904 2.717041
902 2.8288691
900 2.8915551
898 2.9452381
896 2.6923001
