##TITLE=Methyl Ethyl Ketone
##JCAMP-DX=4.24
##DATA TYPE=INFRARED SPECTRUM
##XUNITS=cm-1
##YUNITS=Absorbance
##FIRSTX=900
##LASTX=2300
##XYDATA=(X++(Y..Y))
2296 0.092363
2294 0.094284251
2292 0.096205503
2290 0.098126754
2288 0.100049
2286 0.10196628
2284 0.10389346
2282 0.1058108
2280 0.10773794
2278 0.10965531
2276 0.11157257
2274 0.11349967
2272 0.11541709
2270 0.11734416
2268 0.1192616
2266 0.12118864
2264 0.12310611
2262 0.12502338
2260 0.12695037
2258 0.12886789
2256 0.13079485
2254 0.13271241
2252 0.13463934
2250 0.13655691
2248 0.13847417
2246 0.14040107
2244 0.15267904
2242 0.0059072147
2240 -0.16973759
2238 -0.39161628
2236 -0.6203441
2234 -0.67084521
2232 -0.70328623
2230 -0.61864984
2228 -0.52285308
2226 -0.38341302
2224 -0.24023794
2222 -0.090747848
2220 0.029821353
2218 0.060896974
2216 0.049689256
2214 -0.04285128
2212 -0.15213865
2210 -0.28083938
2208 -0.4258028
2206 -0.5895139
2204 -0.71977466
2202 -0.8165409
2200 -0.78985292
2198 -0.6724813
2196 -0.52662432
2194 -0.36789402
2192 -0.3245813
2190 -0.33233654
2188 -0.40726697
2186 -0.50290304
2184 -0.61917281
2182 -0.73986816
2180 -0.82858592
2178 -0.91085356
2176 -0.85992312
2174 -0.79449791
2172 -0.70389777
2170 -0.62265891
2168 -0.6091345
2166 -0.59990937
2164 -0.58260036
2162 -0.54834473
2160 -0.47265336
2158 -0.39778668
2156 -0.33226499
2154 -0.30391079
2152 -0.32801336
2150 -0.40707031
2148 -0.54189801
2146 -0.67957574
2144 -0.81464392
2142 -0.83727437
2140 -0.78204012
2138 -0.62360793
2136 -0.41323057
2134 -0.28054565
2132 -0.18238848
2130 -0.24270622
2128 -0.35249922
2126 -0.51562256
2124 -0.69042909
2122 -0.80677229
2120 -0.91186261
2118 -0.98100758
2116 -1.0494106
2114 -1.149215
2112 -1.255216
2110 -1.3671004
2108 -1.4635637
2106 -1.5112036
2104 -1.5140251
2102 -1.4345208
2100 -1.300712
2098 -1.0966648
2096 -0.89547139
2094 -0.71213281
2092 -0.60345328
2090 -0.56941313
2088 -0.58543366
2086 -0.63311499
2084 -0.69122487
2082 -0.75301087
2080 -0.86636835
2078 -1.0070475
2076 -1.1596371
2074 -1.3159202
2072 -1.37314
2070 -1.3985033
2068 -1.3558222
2066 -1.2984122
2064 -1.2543606
2062 -1.2168509
2060 -1.2053789
2058 -1.204466
2056 -1.2325885
2054 -1.2656957
2052 -1.2998871
2050 -1.3196656
2048 -1.3061429
2046 -1.2873214
2044 -1.273258
2042 -1.300123
2040 -1.3838201
2038 -1.4972727
2036 -1.6290914
2034 -1.7290641
2032 -1.7955537
2030 -1.8350259
2028 -1.8603588
2026 -1.88062
2024 -1.9009171
2022 -1.9081172
2020 -1.9096227
2018 -1.931118
2016 -1.95944
2014 -1.9961845
2012 -2.0325377
2010 -2.0041521
2008 -1.954968
2006 -1.8712608
2004 -1.7871237
2002 -1.771027
2000 -1.7938532
1998 -1.9235601
1996 -2.0809858
1994 -2.2489128
1992 -2.3921902
1990 -2.4616311
1988 -2.50049
1986 -2.5010593
1984 -2.4976013
1982 -2.5016215
1980 -2.4977896
1978 -2.4897306
1976 -2.4137428
1974 -2.2796109
1972 -2.0352039
1970 -1.7183127
1968 -1.4698035
1966 -1.2726208
1964 -1.3395298
1962 -1.5372218
1960 -1.7825559
1958 -2.039839
1956 -2.1108315
1954 -2.1092923
1952 -2.008636
1950 -1.8770734
1948 -1.8012177
1946 -1.768075
1944 -1.8581411
1942 -2.0053358
1940 -2.1694055
1938 -2.3016376
1936 -2.32564
1934 -2.289046
1932 -2.2129419
1930 -2.1491876
1928 -2.1413078
1926 -2.1113286
1924 -2.0428662
1922 -1.8464875
1920 -1.5134537
1918 -1.206504
1916 -0.935853
1914 -0.83178842
1912 -0.84972394
1910 -0.92319542
1908 -1.022572
1906 -1.1428607
1904 -1.2694679
1902 -1.3418627
1900 -1.3834797
1898 -1.276966
1896 -1.1116143
1894 -0.97792274
1892 -0.88351405
1890 -0.94593424
1888 -1.0860326
1886 -1.2745593
1884 -1.472626
1882 -1.6387008
1880 -1.772649
1878 -1.8722167
1876 -1.9337699
1874 -1.976184
1872 -1.946032
1870 -1.833322
1868 -1.6455057
1866 -1.3610871
1864 -1.1645184
1862 -1.058614
1860 -1.0949372
1858 -1.2506092
1856 -1.4284371
1854 -1.6169357
1852 -1.6687351
1850 -1.6411676
1848 -1.474816
1846 -1.2502108
1844 -1.1858131
1842 -1.2272075
1840 -1.5004823
1838 -1.8672071
1836 -2.1954885
1834 -2.4556501
1832 -2.5433621
1830 -2.4998987
1828 -2.2347114
1826 -1.9092993
1824 -1.6103246
1822 -1.43672
1820 -1.510934
1818 -1.6740056
1816 -1.8596343
1814 -1.929377
1812 -1.8366026
1810 -1.6538213
1808 -1.4184794
1806 -1.210445
1804 -1.0440391
1802 -0.87502229
1800 -0.70793688
1798 -0.50207984
1796 -0.26942214
1794 -0.052575
1792 0.16861996
1790 0.32174936
1788 0.45433331
1786 0.52587265
1784 0.5735898
1782 0.58104676
1780 0.58522815
1778 0.6488269
1776 0.73866832
1774 0.7988888
1772 0.75580019
1770 0.52028662
1768 0.19927606
1766 -0.057029717
1764 -0.14958259
1762 -0.024240579
1760 0.021810988
1758 -0.020913351
1756 0.0011250693
1754 0.086835466
1752 0.41876644
1750 1.0034865
1748 1.6578403
1746 2.3183107
1744 2.5153337
1742 2.3060524
1740 1.9529662
1738 1.5375943
1736 1.48458
1734 1.6926879
1732 1.7872672
1730 1.776888
1728 1.329603
1726 0.64734876
1724 0.13470954
1722 -0.15328106
1720 0.095304444
1718 0.81607533
1716 1.9651686
1714 3.1814055
1712 4.1025572
1710 4.8593917
1708 5.5227141
1706 6.4097281
1704 7.7411284
1702 9.7648897
1700 12.602614
1698 16.064417
1696 20.046715
1694 23.729149
1692 26.797131
1690 29.487707
1688 31.898588
1686 34.952538
1684 38.719826
1682 43.169998
1680 48.167721
1678 52.458191
1676 56.108002
1674 59.734467
1672 63.404724
1670 67.759499
1668 72.584999
1666 77.236946
1664 81.690582
1662 85.725525
1660 89.397667
1658 92.738808
1656 95.763428
1654 98.457451
1652 100.67862
1650 102.3163
1648 102.79034
1646 101.79678
1644 99.786034
1642 97.176491
1640 94.248459
1638 91.149361
1636 87.491257
1634 83.209724
1632 78.703423
1630 74.161118
1628 69.833328
1626 65.717056
1624 61.436401
1622 56.945763
1620 52.471573
1618 48.040649
1616 43.796913
1614 39.786469
1612 36.223587
1610 33.155361
1608 30.626862
1606 28.59655
1604 26.864304
1602 25.409531
1600 24.147755
1598 23.090597
1596 22.2145
1594 21.515396
1592 20.971321
1590 20.5655
1588 20.271854
1586 20.154959
1584 20.229258
1582 20.55682
1580 21.132219
1578 22.020163
1576 23.233715
1574 24.637316
1572 26.215643
1570 27.657785
1568 28.90888
1566 30.014729
1564 30.974646
1562 32.174358
1560 33.727428
1558 36.356155
1556 39.995544
1554 43.59428
1552 46.951641
1550 49.193893
1548 50.472351
1546 51.508892
1544 52.336056
1542 53.132534
1540 53.639381
1538 53.715012
1536 53.320717
1534 52.47089
1532 51.497784
1530 50.573769
1528 49.730911
1526 48.9944
1524 48.099442
1522 46.928185
1520 45.152416
1518 42.689186
1516 40.13393
1514 37.651714
1512 35.376598
1510 33.267422
1508 30.652292
1506 27.359585
1504 24.131018
1502 21.118519
1500 18.702507
1498 16.951099
1496 15.214571
1494 13.467781
1492 11.703269
1490 9.8996973
1488 8.089426
1486 6.2744865
1484 4.455514
1482 2.8167174
1480 1.5189221
1478 0.63168621
1476 0.19403791
1474 0.16548505
1472 0.61666667
1470 1.2114949
1468 1.7028532
1466 2.1492579
1464 2.482507
1462 2.9075015
1460 3.5090818
1458 4.1811657
1456 4.9435
1454 5.4447656
1452 5.5887136
1450 5.5681081
1448 5.3542018
1446 5.1538215
1444 4.9651151
1442 4.79457
1440 4.6266828
1438 4.4689074
1436 4.259047
1434 3.9588826
1432 3.5294898
1430 3.0195193
1428 2.5319002
1426 2.1957729
1424 2.0760756
1422 2.202002
1420 2.5016234
1418 2.9278677
1416 3.3438628
1414 3.6251731
1412 3.836832
1410 3.9247992
1408 4.0252576
1406 4.1989412
1404 4.4507527
1402 4.8627987
1400 5.2944436
1398 5.7410984
1396 6.073143
1394 6.2128453
1392 6.2221842
1390 6.0780959
1388 5.8858457
1386 5.6352949
1384 5.3524861
1382 5.0256724
1380 4.6959419
1378 4.3531337
1376 4.0301256
1374 3.6988258
1372 3.3937101
1370 3.1260855
1368 2.8946412
1366 2.7011485
1364 2.4654069
1362 2.1480274
1360 1.7138314
1358 1.2253815
1356 0.74972099
1354 0.36745775
1352 0.14217839
1350 0.012208806
1348 -0.013853155
1346 -0.021196466
1344 0.05114492
1342 0.18913579
1340 0.43818998
1338 0.67968589
1336 0.90643883
1334 0.99028265
1332 0.90299791
1330 0.79110569
1328 0.67583472
1326 0.6860078
1324 0.85155118
1322 1.1422317
1320 1.5440291
1318 1.9521624
1316 2.3157401
1314 2.5415001
1312 2.6380062
1310 2.6082432
1308 2.5207675
1306 2.4334123
1304 2.3707693
1302 2.3664451
1300 2.3915606
1298 2.4536495
1296 2.519043
1294 2.584713
1292 2.6462331
1290 2.7083042
1288 2.7684519
1286 2.8301179
1284 2.8954897
1282 2.982311
1280 3.0855663
1278 3.2300925
1276 3.3844388
1274 3.5459139
1272 3.7140617
1270 3.8841629
1268 4.0672483
1266 4.2753563
1264 4.4900928
1262 4.7260895
1260 4.9771342
1258 5.2515235
1256 5.5607572
1254 5.911212
1252 6.3133159
1250 6.762229
1248 7.2593641
1246 7.7751999
1244 8.2873993
1242 8.7664795
1240 9.150136
1238 9.4601345
1236 9.61129
1234 9.6913872
1232 9.6305161
1230 9.5234079
1228 9.3090582
1226 9.0662079
1224 8.7474632
1222 8.4111643
1220 8.0358095
1218 7.64853
1216 7.2378287
1214 6.8117952
1212 6.3540635
1210 5.8647938
1208 5.3290238
1206 4.7644491
1204 4.177248
1202 3.6183424
1200 3.1003578
1198 2.6551714
1196 2.26685
1194 1.9053173
1192 1.5606794
1190 1.2242187
1188 0.90632844
1186 0.65197784
1184 0.42903489
1182 0.25071937
1180 0.095622979
1178 -0.011013888
1176 -0.0746364
1174 0.0065869913
1172 0.1269162
1170 0.36888576
1168 0.59314919
1166 0.76358378
1164 0.87741834
1162 0.85204619
1160 0.79769248
1158 0.69077557
1156 0.61684924
1154 0.5984996
1152 0.61283839
1150 0.65730006
1148 0.64409876
1146 0.55857819
1144 0.39917955
1142 0.19439286
1140 0.067449175
1138 0.011755433
1136 0.062589742
1134 0.16448849
1132 0.31308201
1130 0.49331051
1128 0.74295479
1126 1.0398006
1124 1.481352
1122 1.9519322
1120 2.44172
1118 2.8945954
1116 3.14078
1114 3.3251286
1112 3.2644765
1110 3.1807544
1108 3.02846
1106 2.9105301
1104 2.8842959
1102 2.9222608
1100 3.0913405
1098 3.327282
1096 3.6706572
1094 4.0624127
1092 4.5185261
1090 5.0151129
1088 5.5535674
1086 6.1077824
1084 6.6616693
1082 7.1318002
1080 7.5211554
1078 7.6979947
1076 7.74262
1074 7.526268
1072 7.2142057
1070 6.817771
1068 6.4217253
1066 6.156064
1064 5.9192882
1062 5.7703271
1060 5.6446185
1058 5.6455894
1056 5.7051888
1054 6.0206203
1052 6.3485274
1050 6.7081561
1048 6.9968371
1046 7.115768
1044 7.2148504
1042 7.2817683
1040 7.3715749
1038 7.4920373
1036 7.5764103
1034 7.6159592
1032 7.6201315
1030 7.5883031
1028 7.5221958
1026 7.4193096
1024 7.184597
1022 6.8629861
1020 6.3417521
1018 5.7327714
1016 4.9946656
1014 4.2311678
1012 3.5700407
1010 2.9496942
1008 2.6008401
1006 2.2861006
1004 2.108844
1002 1.9139427
1000 1.5906149
998 1.2276874
996 0.69213283
994 0.1655305
992 -0.3274796
990 -0.75345278
988 -1.0231843
986 -1.2436585
984 -1.3797531
982 -1.4913573
980 -1.568048
978 -1.5795908
976 -1.5164456
974 -1.3370235
972 -1.0629411
970 -0.75164336
968 -0.42341474
966 -0.17454866
964 0.035465002
962 0.19169179
960 0.33006462
958 0.43317845
956 0.52320856
954 0.46884578
952 0.39192361
950 0.18387146
948 -0.014629512
946 -0.0048208502
944 0.014089704
942 0.42481604
940 0.84784269
938 1.3193729
936 1.7437629
934 2.0291009
932 2.3161881
930 2.6072659
928 2.9105759
926 3.2306442
924 3.449194
922 3.5413871
920 3.5063858
918 3.3523796
916 3.089453
914 2.7511275
912 2.4505553
910 2.1697969
908 2.1603646
906 2.2504194
904 2.476979
902 2.7356207
900 3.0433993
898 3.3579786
896 3.8322999
