##TITLE=Methyl Ethyl Ketone
##JCAMP-DX=4.24
##DATA TYPE=INFRARED SPECTRUM
##XUNITS=cm-1
##YUNITS=Absorbance
##FIRSTX=900
##LASTX=2300
##XYDATA=(X++(Y..Y))
2296 -0.018681999
2294 -0.019079432
2292 -0.019475866
2290 -0.019873293
2288 -0.020269731
2286 -0.020667158
2284 -0.021063598
2282 -0.021461019
2280 -0.021857463
2278 -0.022254884
2276 -0.022651328
2274 -0.023047762
2272 -0.023445178
2270 -0.02384359
2268 -0.02423908
2266 -0.024630599
2264 -0.025032789
2262 -0.025449848
2260 -0.025827305
2258 -0.026151232
2256 -0.026618514
2254 -0.027289661
2252 -0.027423324
2250 -0.026801258
2248 -0.02817256
2246 -0.028867109
2244 -0.0010730943
2242 0.080228329
2240 0.20048347
2238 0.33438373
2236 0.45858827
2234 0.55484575
2232 0.62286353
2230 0.66808397
2228 0.69821811
2226 0.71988499
2224 0.73280716
2222 0.73530638
2220 0.7281847
2218 0.71404958
2216 0.69955915
2214 0.69161278
2212 0.69314402
2210 0.70739549
2208 0.7436409
2206 0.81115443
2204 0.91174001
2202 1.0394915
2200 1.1663983
2198 1.261869
2196 1.3102787
2194 1.3092351
2192 1.2896452
2190 1.2891166
2188 1.3304517
2186 1.4245685
2184 1.552452
2182 1.6854374
2180 1.7937006
2178 1.8524064
2176 1.8561771
2174 1.8122828
2172 1.7523205
2170 1.71141
2168 1.7074457
2166 1.7455
2164 1.8036523
2162 1.8550569
2160 1.8891525
2158 1.9033875
2156 1.9055899
2154 1.9060595
2152 1.9119315
2150 1.9281853
2148 1.9579911
2146 2.0020144
2144 2.0537891
2142 2.105691
2140 2.1554732
2138 2.2033167
2136 2.2517457
2134 2.3029292
2132 2.3545437
2130 2.4039664
2128 2.452744
2126 2.5029678
2124 2.5522554
2122 2.5966561
2120 2.6308639
2118 2.652457
2116 2.6715572
2114 2.7000132
2112 2.7392509
2110 2.7831011
2108 2.8122878
2106 2.80864
2104 2.7774727
2102 2.7352278
2100 2.7043459
2098 2.7044213
2096 2.7338998
2094 2.7828548
2092 2.8413863
2090 2.9001627
2088 2.9528189
2086 2.9933951
2084 3.0153229
2082 3.0137103
2080 2.9937024
2078 2.9658847
2076 2.9472401
2074 2.9549494
2072 2.9973879
2070 3.0747855
2068 3.1696539
2066 3.2590427
2064 3.3268108
2062 3.3652174
2060 3.3875117
2058 3.412729
2056 3.4465315
2054 3.485851
2052 3.5155897
2050 3.5194933
2048 3.4949434
2046 3.4482179
2044 3.39533
2042 3.3551674
2040 3.3410459
2038 3.3597114
2036 3.4020829
2034 3.4539442
2032 3.508285
2030 3.5633929
2028 3.626538
2026 3.7051051
2024 3.7915611
2022 3.8709321
2020 3.925761
2018 3.9429531
2016 3.92992
2014 3.903281
2012 3.879086
2010 3.8677158
2008 3.858613
2006 3.8354514
2004 3.7962644
2002 3.7475841
2000 3.6997006
1998 3.6615989
1996 3.6311357
1994 3.6019988
1992 3.573467
1990 3.5484676
1988 3.532748
1986 3.532058
1984 3.5472326
1982 3.5754471
1980 3.6079514
1978 3.6342578
1976 3.6471286
1974 3.642293
1972 3.6223693
1970 3.5936022
1968 3.5636053
1966 3.5403206
1964 3.5298836
1962 3.5348244
1960 3.5460961
1958 3.5498345
1956 3.5357144
1954 3.4997377
1952 3.4537714
1950 3.4146209
1948 3.3838837
1946 3.353225
1944 3.3073726
1942 3.2331848
1940 3.139842
1938 3.0477421
1936 2.9729714
1934 2.9254429
1932 2.9025941
1930 2.8964276
1928 2.9044983
1926 2.9280529
1924 2.9697645
1922 3.0298357
1920 3.0954742
1918 3.1477289
1916 3.1714284
1914 3.1579759
1912 3.1156223
1910 3.0621917
1908 3.017652
1906 2.9982479
1904 3.002156
1902 3.0158942
1900 3.0190525
1898 2.9924765
1896 2.9360285
1894 2.8603575
1892 2.7751923
1890 2.687804
1888 2.6020296
1886 2.521265
1884 2.4549103
1882 2.4152784
1880 2.4099252
1878 2.4382946
1876 2.4781201
1874 2.4962378
1872 2.4671497
1870 2.3797238
1868 2.2626584
1866 2.1633587
1864 2.1096256
1862 2.107146
1860 2.1265173
1858 2.123986
1856 2.0812314
1854 1.9994825
1852 1.8904837
1850 1.7693073
1848 1.6451041
1846 1.5256037
1844 1.4307492
1842 1.3842422
1840 1.3916548
1838 1.4423591
1836 1.50869
1834 1.5577329
1832 1.5757136
1830 1.5642234
1828 1.5338002
1826 1.49875
1824 1.4716216
1822 1.4614849
1820 1.4698039
1818 1.4904399
1816 1.5058943
1814 1.4944218
1812 1.4445912
1810 1.356692
1808 1.2480235
1806 1.14204
1804 1.0439372
1802 0.94591284
1800 0.84220123
1798 0.73294342
1796 0.63121068
1794 0.55629772
1792 0.5178616
1790 0.51673335
1788 0.54803741
1786 0.60150558
1784 0.65590882
1782 0.6855045
1780 0.67678094
1778 0.62901044
1776 0.55681372
1774 0.48267367
1772 0.42133301
1770 0.37708321
1768 0.33699536
1766 0.2816318
1764 0.2139608
1762 0.14540416
1760 0.04577823
1758 -0.13286498
1756 -0.37178171
1754 -0.60750031
1752 -0.81304932
1750 -0.99336928
1748 -1.1446655
1746 -1.2546571
1744 -1.3236297
1742 -1.3620409
1740 -1.3776611
1738 -1.3714583
1736 -1.32934
1734 -1.2313764
1732 -1.0809426
1730 -0.90122741
1728 -0.71851015
1726 -0.5534867
1724 -0.40328494
1722 -0.2436175
1720 -0.033957422
1718 0.27477056
1716 0.7253958
1714 1.3356124
1712 2.034884
1710 2.7071679
1708 3.3429499
1706 4.0405035
1704 4.9620237
1702 6.3217402
1700 8.4084978
1698 11.464796
1696 15.259001
1694 19.193741
1692 22.790457
1690 25.819448
1688 28.489252
1686 31.322887
1684 34.744339
1682 38.922588
1680 43.45208
1678 47.58139
1676 51.087414
1674 54.283165
1672 57.585079
1670 61.335064
1668 65.496834
1666 69.72805
1664 73.755074
1662 77.43145
1660 80.680428
1658 83.48114
1656 85.888512
1654 88.011688
1652 89.941322
1650 91.702957
1648 93.134781
1646 93.960426
1644 94.125023
1642 93.785393
1640 93.046616
1638 91.910034
1636 90.283943
1634 88.039879
1632 85.193085
1630 81.88662
1628 78.212044
1626 74.19017
1624 69.84816
1622 65.249527
1620 60.544704
1618 55.950863
1616 51.641254
1614 47.7243
1612 44.25639
1610 41.24353
1608 38.629032
1606 36.314327
1604 34.240788
1602 32.402618
1600 30.816336
1598 29.504826
1596 28.459999
1594 27.638035
1592 26.990633
1590 26.475964
1588 26.076944
1586 25.800514
1584 25.648771
1582 25.61721
1580 25.717989
1578 25.982885
1576 26.449686
1574 27.150957
1572 28.077309
1570 29.17379
1568 30.375681
1566 31.620649
1564 32.862316
1562 34.110683
1560 35.574223
1558 37.597168
1556 40.202499
1554 43.021702
1552 45.591061
1550 47.500832
1548 48.705803
1546 49.524429
1544 50.182938
1542 50.715641
1540 51.10162
1538 51.300064
1536 51.255402
1534 50.914761
1532 50.299282
1530 49.503372
1528 48.576218
1526 47.4977
1524 46.231178
1522 44.749439
1520 43.090805
1518 41.363941
1516 39.670399
1514 38.061813
1512 36.449162
1510 34.602421
1508 32.341026
1506 29.618572
1504 26.603743
1502 23.658463
1500 21.011961
1498 18.67231
1496 16.557999
1494 14.542006
1492 12.538314
1490 10.529234
1488 8.5296907
1486 6.5841079
1484 4.77985
1482 3.2347429
1480 1.9981995
1478 1.0412071
1476 0.40275228
1474 0.20668595
1472 0.47652856
1470 1.0837562
1468 1.8673174
1466 2.6781452
1464 3.4325161
1462 4.1284413
1460 4.7827797
1458 5.4111023
1456 6.0132999
1454 6.5649323
1452 7.0162573
1450 7.3003263
1448 7.3954582
1446 7.3442569
1444 7.1975765
1442 6.9932561
1440 6.736784
1438 6.3943295
1436 5.9265471
1434 5.3079896
1432 4.568265
1430 3.8044479
1428 3.1064699
1426 2.530055
1424 2.1018424
1422 1.8199121
1420 1.6844409
1418 1.7045666
1416 1.8758428
1414 2.171973
1412 2.5609655
1410 3.0116715
1408 3.5048423
1406 4.0353312
1404 4.5850916
1402 5.1136107
1400 5.5793324
1398 5.9508605
1396 6.2231998
1394 6.4249716
1392 6.579565
1390 6.6895404
1388 6.7403893
1386 6.70157
1384 6.5547342
1382 6.3054609
1380 5.9666219
1378 5.5546384
1376 5.0886054
1374 4.5911517
1372 4.0892563
1370 3.6107841
1368 3.1577475
1366 2.6944692
1364 2.1876814
1362 1.628315
1360 1.0526538
1358 0.55361176
1356 0.20276093
1354 0.014944181
1352 -0.026117111
1350 0.035904914
1348 0.16217053
1346 0.33118677
1344 0.52466679
1342 0.72371221
1340 0.91231227
1338 1.0800256
1336 1.2217286
1334 1.3384796
1332 1.4290442
1330 1.487409
1328 1.513392
1326 1.5189543
1324 1.5234748
1322 1.5527093
1320 1.6247274
1318 1.7408262
1316 1.88913
1314 2.0423164
1312 2.1746182
1310 2.2704327
1308 2.3238573
1306 2.3424656
1304 2.3365669
1302 2.3163791
1300 2.2938521
1298 2.2836802
1296 2.3004143
1294 2.3571837
1292 2.4625111
1290 2.6166649
1288 2.814564
1286 3.0438943
1284 3.2884278
1282 3.5280218
1280 3.7466376
1278 3.937804
1276 4.1046686
1274 4.2632098
1272 4.4336581
1270 4.638021
1268 4.8930106
1266 5.2045422
1264 5.5715628
1262 5.9843946
1260 6.433198
1258 6.9117012
1256 7.416986
1254 7.9505329
1252 8.5160189
1250 9.1190376
1248 9.7620344
1246 10.440001
1244 11.140988
1242 11.844271
1240 12.526206
1238 13.160174
1236 13.716086
1234 14.15912
1232 14.45216
1230 14.562741
1228 14.472611
1226 14.187821
1224 13.728051
1222 13.127027
1220 12.426661
1218 11.67643
1216 10.923314
1214 10.196817
1212 9.5180168
1210 8.8936777
1208 8.3259563
1206 7.8152838
1204 7.3529019
1202 6.9116483
1200 6.4573302
1198 5.9524508
1196 5.3749928
1194 4.7385116
1192 4.0736222
1190 3.428942
1188 2.8463717
1186 2.3439622
1184 1.9268039
1182 1.5846184
1180 1.3096945
1178 1.1065005
1176 0.97862601
1174 0.92005575
1172 0.91384369
1170 0.92519712
1168 0.92384863
1166 0.89972955
1164 0.85325235
1162 0.79678512
1160 0.73929626
1158 0.67584932
1156 0.59961826
1154 0.50738364
1152 0.40052933
1150 0.28880498
1148 0.1827874
1146 0.090545177
1144 0.021158144
1142 -0.013478669
1140 -0.0085847434
1138 0.023132987
1136 0.071212709
1134 0.1401514
1132 0.23653503
1130 0.36360389
1128 0.52531993
1126 0.72856498
1124 0.97532392
1122 1.2535341
1120 1.543764
1118 1.8177377
1116 2.0533957
1114 2.249747
1112 2.4179337
1110 2.5854454
1108 2.7782562
1106 3.00915
1104 3.2794681
1102 3.5716281
1100 3.8668737
1098 4.1561909
1096 4.441186
1094 4.7434506
1092 5.0838342
1090 5.4662852
1088 5.8775864
1086 6.2713094
1084 6.6028442
1082 6.8544812
1080 7.0255504
1078 7.1421432
1076 7.2305284
1074 7.2997231
1072 7.3574042
1070 7.4181466
1068 7.4947753
1066 7.5894985
1064 7.6915679
1062 7.7621975
1060 7.761178
1058 7.6643333
1056 7.4652543
1054 7.1955442
1052 6.8988776
1050 6.6248116
1048 6.4107113
1046 6.2534857
1044 6.1349339
1042 6.0212693
1040 5.8825684
1038 5.7107491
1036 5.5040102
1034 5.2631083
1032 4.9882479
1030 4.6783242
1028 4.3390751
1026 3.9978671
1024 3.6810961
1022 3.3964078
1020 3.1376412
1018 2.8727062
1016 2.5787058
1014 2.2789507
1012 2.0028164
1010 1.7608662
1008 1.5455761
1006 1.3081586
1004 1.0097163
1002 0.67458379
1000 0.34078497
998 0.039880931
996 -0.20856142
994 -0.41794029
992 -0.6073187
990 -0.78772879
988 -0.96295893
986 -1.1196814
984 -1.2381023
982 -1.2915739
980 -1.258252
978 -1.1380213
976 -0.94100142
974 -0.69282711
972 -0.42351893
970 -0.16463163
968 0.056469738
966 0.22785899
964 0.34362635
962 0.40524703
960 0.4150444
958 0.37205407
956 0.27953801
954 0.15823682
952 0.03619352
950 -0.048712805
948 -0.06804283
946 -0.03515264
944 0.030821137
942 0.12687418
940 0.24645731
938 0.35603151
936 0.42491657
934 0.45703468
932 0.46714947
930 0.47815683
928 0.51164842
926 0.57695472
924 0.67535383
922 0.78924525
920 0.89540458
918 0.96713573
916 0.99088758
914 1.0065725
912 1.0593989
910 1.1646221
908 1.3165257
906 1.4588764
904 1.5391731
902 1.5693194
900 1.5737728
898 1.5642782
896 1.5491
