##TITLE=Methyl Ethyl Ketone
##JCAMP-DX=4.24
##DATA TYPE=INFRARED SPECTRUM
##XUNITS=cm-1
##YUNITS=Absorbance
##FIRSTX=900
##LASTX=2300
##XYDATA=(X++(Y..Y))
2296 9.9361001e-05
2294 0.00010141706
2292 0.00010347411
2290 0.00010554113
2288 0.00010760817
2286 0.00010968514
2284 0.00011175226
2282 0.0001138193
2280 0.00011589623
2278 0.00011794364
2276 0.00012003014
2274 0.00012208761
2272 0.00012415451
2270 0.00012620194
2268 0.00012827839
2266 0.00013034565
2264 0.00013241269
2262 0.00013447972
2260 0.00013653703
2258 0.00013860382
2256 0.00014070001
2254 0.0001427485
2252 0.00014481494
2250 0.00014689166
2248 0.00014895904
2246 0.00015101643
2244 0.0062587913
2242 0.0002504983
2240 0.00045763201
2238 -0.0051275878
2236 -0.011621092
2234 -0.012626386
2232 -0.012577931
2230 0.0021295387
2228 0.018469943
2226 0.042149652
2224 0.064520426
2222 0.079151526
2220 0.094413154
2218 0.11283238
2216 0.13946857
2214 0.18366672
2212 0.23331061
2210 0.29015586
2208 0.33608574
2206 0.367881
2204 0.38176346
2202 0.37927902
2200 0.36776972
2198 0.3503302
2196 0.3061057
2194 0.2466615
2192 0.16158326
2190 0.065698296
2188 0.019418355
2186 -0.010505986
2184 0.036945999
2182 0.10196002
2180 0.18667285
2178 0.27409321
2176 0.35361713
2174 0.43205753
2172 0.50645506
2170 0.57726604
2168 0.62968457
2166 0.6705876
2164 0.67599368
2162 0.66873676
2160 0.63811052
2158 0.61110228
2156 0.59548599
2154 0.59403998
2152 0.61141765
2150 0.63337547
2148 0.65828073
2146 0.67088747
2144 0.67234743
2142 0.64510149
2140 0.59868759
2138 0.52793419
2136 0.44500744
2134 0.36567175
2132 0.28838459
2130 0.26826924
2128 0.26634881
2126 0.35281172
2124 0.45951018
2122 0.56207657
2120 0.65883881
2118 0.66193956
2116 0.64944959
2114 0.6205951
2112 0.59719557
2110 0.60856915
2108 0.61563396
2106 0.59431612
2104 0.563739
2102 0.52189755
2100 0.50695044
2098 0.53992009
2096 0.58648425
2094 0.64156228
2092 0.67016017
2090 0.67005098
2088 0.657493
2086 0.638138
2084 0.63658351
2082 0.64743078
2080 0.68802297
2078 0.74336469
2076 0.80928928
2074 0.87886208
2072 0.91309524
2070 0.93575573
2068 0.90925843
2066 0.87076867
2064 0.82771653
2062 0.78620124
2060 0.77020925
2058 0.7604003
2056 0.75696373
2054 0.75356263
2052 0.74542421
2050 0.73535812
2048 0.72234267
2046 0.71056575
2044 0.70212579
2042 0.71030545
2040 0.74303204
2038 0.78387082
2036 0.82930028
2034 0.83430088
2032 0.79922771
2030 0.73171884
2028 0.64402443
2026 0.61286473
2024 0.61986285
2022 0.70111978
2020 0.81792545
2018 0.88425547
2016 0.92755002
2014 0.87110561
2012 0.78210855
2010 0.69669044
2008 0.61539525
2006 0.57454443
2004 0.54821062
2002 0.55065829
2000 0.56925422
1998 0.62488574
1996 0.69507354
1994 0.78025711
1992 0.85877711
1990 0.91498911
1988 0.953605
1986 0.97247797
1984 0.98742926
1982 1.0034463
1980 1.0235922
1978 1.0475669
1976 1.0667
1974 1.080248
1972 1.0722631
1970 1.0483638
1968 1.0082477
1966 0.95969868
1964 0.93298328
1962 0.91888309
1960 0.94998318
1958 1.0003071
1956 1.0506058
1954 1.0987475
1952 1.0872434
1950 1.0558344
1948 1.0111424
1946 0.97273749
1944 0.99139768
1942 1.0308594
1940 1.0853955
1938 1.1278152
1936 1.1275429
1934 1.1069248
1932 1.069302
1930 1.0247427
1928 0.97523201
1926 0.90897572
1924 0.82162333
1922 0.72130048
1920 0.61380488
1918 0.53318942
1916 0.48000172
1914 0.46338159
1912 0.46987659
1910 0.49516627
1908 0.52923197
1906 0.60440141
1904 0.70160401
1902 0.81270719
1900 0.92957449
1898 1.013839
1896 1.0843143
1894 1.1410408
1892 1.1853242
1890 1.184236
1888 1.1515492
1886 1.0600393
1884 0.94629216
1882 0.83226943
1880 0.72327024
1878 0.62496758
1876 0.52847999
1874 0.42581221
1872 0.34195977
1870 0.28792328
1868 0.28254533
1866 0.32963443
1864 0.39277878
1862 0.45987651
1860 0.50721359
1858 0.53471243
1856 0.51682401
1854 0.46600726
1852 0.33050418
1850 0.14123115
1848 -0.10018288
1846 -0.36894214
1844 -0.46394211
1842 -0.46242538
1840 -0.24063811
1838 0.080102734
1836 0.35845685
1834 0.59819925
1832 0.73015898
1830 0.78416544
1828 0.73378086
1826 0.62377328
1824 0.48063576
1822 0.36269978
1820 0.32679221
1818 0.34682113
1816 0.40497085
1814 0.45661443
1812 0.47732705
1810 0.485441
1808 0.49166918
1806 0.51402801
1804 0.55430543
1802 0.50889266
1800 0.37939417
1798 0.15045625
1796 -0.14376572
1794 -0.30860868
1792 -0.37176639
1790 -0.29834634
1788 -0.14441599
1786 -0.012887297
1784 0.10046347
1782 0.16388188
1780 0.18713754
1778 0.12236249
1776 0.014991686
1774 -0.074536189
1772 -0.11210226
1770 -0.007730145
1768 0.13766898
1766 0.21911
1764 0.2376876
1762 0.18510403
1760 0.058680516
1758 -0.14261174
1756 -0.35345745
1754 -0.53685457
1752 -0.74195141
1750 -0.9873212
1748 -1.230584
1746 -1.4569464
1744 -1.6216103
1742 -1.7283194
1740 -1.7732782
1738 -1.7769761
1736 -1.71416
1734 -1.6073368
1732 -1.419508
1730 -1.1768478
1728 -0.92992181
1726 -0.68167692
1724 -0.46333379
1722 -0.24944201
1720 0.079330921
1718 0.58621562
1716 1.3277798
1714 2.1608131
1712 2.9456286
1710 3.6672695
1708 4.2965779
1706 4.9813251
1704 5.8517637
1702 7.2092466
1700 9.2233067
1698 12.295668
1696 16.498571
1694 21.01535
1692 25.421911
1690 29.327059
1688 32.702438
1686 36.405693
1684 40.571518
1682 45.447433
1680 50.902603
1678 55.72366
1676 59.948444
1674 64.079201
1672 68.21524
1670 73.006172
1668 78.263687
1666 83.370399
1664 88.256042
1662 92.640663
1660 96.529976
1658 99.888725
1656 102.69228
1654 104.89164
1652 106.3556
1650 106.9931
1648 106.54211
1646 104.87536
1644 102.38674
1642 99.472939
1640 96.243927
1638 92.802811
1636 88.853004
1634 84.339447
1632 79.728745
1630 75.194656
1628 70.77903
1626 66.471901
1624 61.829559
1622 56.82888
1620 51.909889
1618 47.122528
1616 42.809887
1614 38.989632
1612 35.722954
1610 32.998951
1608 30.661022
1606 28.67565
1604 26.88203
1602 25.322708
1600 24.050909
1598 23.093306
1596 22.443001
1594 22.068405
1592 21.888218
1590 21.871315
1588 21.966154
1586 22.173578
1584 22.480526
1582 22.87603
1580 23.343887
1578 23.94623
1576 24.702143
1574 25.645168
1572 26.781839
1570 28.017302
1568 29.329
1566 30.632963
1564 31.918036
1562 33.27322
1560 34.767677
1558 36.969433
1556 39.915043
1554 43.124077
1552 46.397575
1550 48.843163
1548 50.443165
1546 51.534214
1544 52.100861
1542 52.293316
1540 52.075981
1538 51.512985
1536 50.639229
1534 49.552967
1532 48.315063
1530 46.988678
1528 45.554085
1526 44.000751
1524 42.281414
1522 40.368999
1520 38.402847
1518 36.454197
1516 34.650486
1514 33.045956
1512 31.348839
1510 29.475662
1508 27.080715
1506 24.030714
1504 21.020687
1502 18.133104
1500 15.74876
1498 13.93114
1496 12.179714
1494 10.496485
1492 8.8272591
1490 7.1863418
1488 5.6059408
1486 4.1287498
1484 2.804862
1482 1.7049152
1480 0.88047409
1478 0.34540787
1476 0.07760714
1474 0.15761234
1472 0.64253986
1470 1.33417
1468 2.1418061
1466 2.8924
1464 3.4596629
1462 3.9050956
1460 4.2256384
1458 4.5694599
1456 4.9918399
1454 5.4579291
1452 5.9790654
1450 6.3329768
1448 6.4294486
1446 6.393425
1444 6.1750631
1442 5.9138598
1440 5.5885968
1438 5.209486
1436 4.7530231
1434 4.2327762
1432 3.6604767
1430 3.1194799
1428 2.6437502
1426 2.2723129
1424 2.0319846
1422 1.9361296
1420 2.0050304
1418 2.2645371
1416 2.6492598
1414 3.1021349
1412 3.5420127
1410 3.8881679
1408 4.1863799
1406 4.4452972
1404 4.7032843
1402 4.9806662
1400 5.2331839
1398 5.4364896
1396 5.5868716
1394 5.6491847
1392 5.6852355
1390 5.679019
1388 5.6243448
1386 5.4893303
1384 5.2824163
1382 4.9717808
1380 4.6023917
1378 4.1573334
1376 3.6754744
1374 3.1705751
1372 2.71679
1370 2.3292394
1368 2.0139978
1366 1.7349914
1364 1.4098969
1362 1.0482908
1360 0.66375387
1358 0.3187553
1356 0.099076778
1354 -0.021640092
1352 -0.021962835
1350 0.028389592
1348 0.11884116
1346 0.21261464
1344 0.29976359
1342 0.38202438
1340 0.45506388
1338 0.55479604
1336 0.71270573
1334 0.89442492
1332 1.1222371
1330 1.331055
1328 1.5103097
1326 1.6801386
1324 1.8379682
1322 2.0121839
1320 2.2083845
1318 2.4296896
1316 2.6761799
1314 2.9313018
1312 3.1777844
1310 3.3676062
1308 3.501626
1306 3.5721478
1304 3.6081834
1302 3.6419508
1300 3.6746421
1298 3.7092776
1296 3.7409427
1294 3.7649975
1292 3.8000324
1290 3.8704915
1288 3.9625959
1286 4.0990491
1284 4.2373962
1282 4.373446
1280 4.4978189
1278 4.5966763
1276 4.6890516
1274 4.770525
1272 4.865098
1270 4.9869013
1268 5.1495728
1266 5.3766551
1264 5.6485028
1262 5.9798517
1260 6.3481059
1258 6.7619038
1256 7.2196398
1254 7.7169185
1252 8.2358847
1250 8.7644548
1248 9.2791758
1246 9.7821999
1244 10.27006
1242 10.741496
1240 11.176183
1238 11.56953
1236 11.864514
1234 12.094072
1232 12.16816
1230 12.167911
1228 11.974912
1226 11.715172
1224 11.279806
1222 10.803271
1220 10.233461
1218 9.6596928
1216 9.0813599
1214 8.5138988
1212 7.964931
1210 7.4238696
1208 6.8981991
1206 6.398519
1204 5.9301062
1202 5.4767537
1200 5.0319366
1198 4.566277
1196 4.0898213
1194 3.6313486
1192 3.1982915
1190 2.8292851
1188 2.4985554
1186 2.2104185
1184 1.9498909
1182 1.7453772
1180 1.5814226
1178 1.5303291
1176 1.51938
1174 1.6080253
1172 1.7027228
1170 1.7981555
1168 1.8729229
1166 1.8845714
1164 1.8786114
1162 1.829502
1160 1.7711365
1158 1.6915892
1156 1.59209
1154 1.4564197
1152 1.2901046
1150 1.0833178
1148 0.86788499
1146 0.64690787
1144 0.4452498
1142 0.26697969
1140 0.12841259
1138 0.036497168
1136 0.056516662
1134 0.1626026
1132 0.38514128
1130 0.67005968
1128 1.0483648
1126 1.4581186
1124 1.8987646
1122 2.3250544
1120 2.6464679
1118 2.9324272
1116 3.0806959
1114 3.2242255
1112 3.3572435
1110 3.491693
1108 3.6300671
1106 3.7613599
1104 3.8769782
1102 4.0044303
1100 4.1558542
1098 4.3170524
1096 4.4949999
1094 4.6864314
1092 4.9033761
1090 5.186626
1088 5.5412602
1086 5.9517059
1084 6.3966713
1082 6.7879286
1080 7.1266093
1078 7.3181796
1076 7.4209986
1074 7.3604183
1072 7.2353044
1070 7.0286608
1068 6.8166146
1066 6.6947942
1064 6.60746
1062 6.6889715
1060 6.7792411
1058 6.8704596
1056 6.9260969
1054 6.8243141
1052 6.6832156
1050 6.4165549
1048 6.1323514
1046 5.8082681
1044 5.5049434
1042 5.2468576
1040 5.059967
1038 4.9799662
1036 4.9482503
1034 4.9637885
1032 4.9094219
1030 4.7797523
1028 4.5105953
1026 4.1397257
1024 3.7020543
1022 3.23153
1020 2.7798946
1018 2.3384099
1016 1.9267628
1014 1.5297048
1012 1.2038472
1010 0.89837003
1008 0.68936604
1006 0.48989436
1004 0.30827338
1002 0.12134608
1000 -0.10283354
998 -0.33300534
996 -0.58960354
994 -0.84998888
992 -1.1217623
990 -1.3917668
988 -1.6551931
986 -1.8816978
984 -2.0399559
982 -2.1198134
980 -2.091814
978 -1.9997399
976 -1.8388087
974 -1.625026
972 -1.367444
970 -1.0783973
968 -0.77319688
966 -0.52061248
964 -0.2978642
962 -0.19584396
960 -0.13887103
958 -0.21403003
956 -0.31611514
954 -0.39158696
952 -0.4562884
950 -0.34009442
948 -0.21509844
946 -0.070892356
944 0.00069970265
942 0.021543611
940 0.058233224
938 0.1627111
936 0.29531455
934 0.51036346
932 0.73664248
930 0.98625672
928 1.2122086
926 1.3993078
924 1.5334979
922 1.603573
920 1.6883886
918 1.7881212
916 1.9746443
914 2.2224309
912 2.473388
910 2.7244692
908 2.8507702
906 2.9278891
904 2.8702657
902 2.7768228
900 2.6656735
898 2.5517824
896 2.5395
