##TITLE=Methyl Ethyl Ketone
##JCAMP-DX=4.24
##DATA TYPE=INFRARED SPECTRUM
##XUNITS=cm-1
##YUNITS=Absorbance
##FIRSTX=900
##LASTX=2300
##XYDATA=(X++(Y..Y))
2296 0.057009999
2294 0.058196303
2292 0.059382606
2290 0.060567912
2288 0.061754212
2286 0.062940516
2284 0.064125821
2282 0.065312117
2280 0.066498429
2278 0.067684725
2276 0.068870045
2274 0.070055343
2272 0.071242616
2270 0.072433844
2268 0.073614359
2266 0.074780971
2264 0.075986385
2262 0.077243403
2260 0.078360327
2258 0.079280138
2256 0.080722317
2254 0.082898974
2252 0.083134502
2250 0.080632195
2248 0.085344665
2246 0.10129554
2244 0.096665166
2242 0.038196623
2240 -0.072613321
2238 -0.22118424
2236 -0.38000727
2234 -0.51586139
2232 -0.58678871
2230 -0.56024712
2228 -0.45160156
2226 -0.2944245
2224 -0.13952525
2222 -0.029517669
2220 0.046062447
2218 0.11146767
2216 0.18318313
2214 0.26728436
2212 0.337919
2210 0.36680382
2208 0.3546159
2206 0.31265894
2204 0.25915501
2202 0.20977738
2200 0.16182731
2198 0.111389
2196 0.07284864
2194 0.064873211
2192 0.099914707
2190 0.18385683
2188 0.30432519
2186 0.4434942
2184 0.58488643
2182 0.71319085
2180 0.81564116
2178 0.88704354
2176 0.94980085
2174 1.0315096
2172 1.1446168
2170 1.288033
2168 1.4278549
2166 1.5266879
2164 1.5773439
2162 1.5860406
2160 1.5710611
2158 1.5524532
2156 1.54169
2154 1.54699
2152 1.5766778
2150 1.6332951
2148 1.6962872
2146 1.7375536
2144 1.7324291
2142 1.6689999
2140 1.583461
2138 1.5270363
2136 1.5450143
2134 1.6636761
2132 1.8415989
2130 2.015599
2128 2.1323719
2126 2.1581514
2124 2.1217444
2122 2.0695493
2120 2.0274041
2118 2.006763
2116 1.9946527
2114 1.972059
2112 1.9305092
2110 1.8666881
2108 1.779626
2106 1.6723422
2104 1.5611914
2102 1.4673377
2100 1.40955
2098 1.4015131
2096 1.4398
2094 1.5111487
2092 1.589076
2090 1.6457014
2088 1.6677189
2086 1.654135
2084 1.6303403
2082 1.6270236
2080 1.6539937
2078 1.7086284
2076 1.7717429
2074 1.8216838
2072 1.852384
2070 1.8647664
2068 1.862784
2066 1.8506507
2064 1.8293784
2062 1.7981157
2060 1.755934
2058 1.703431
2056 1.6485457
2054 1.6015477
2052 1.5692589
2050 1.5549504
2048 1.5530822
2046 1.555975
2044 1.562832
2042 1.5757419
2040 1.5958686
2038 1.6238636
2036 1.6608129
2034 1.7046598
2032 1.7393091
2030 1.743942
2028 1.7024437
2026 1.6114208
2024 1.5103811
2022 1.4523356
2020 1.4673265
2018 1.5645827
2016 1.7142401
2014 1.8710563
2012 1.998018
2010 2.0653481
2008 2.0552719
2006 1.9611585
2004 1.8025074
2002 1.613145
2000 1.4362714
1998 1.3114039
1996 1.2456214
1994 1.2275336
1992 1.2321194
1990 1.2353066
1988 1.2396001
1986 1.2582179
1984 1.2933532
1982 1.3366745
1980 1.360792
1978 1.339473
1976 1.2889544
1974 1.246555
1972 1.2476914
1970 1.3120714
1968 1.402524
1966 1.4605743
1964 1.4558325
1962 1.3841226
1960 1.282944
1958 1.2019967
1956 1.1590872
1954 1.1513778
1952 1.1647
1950 1.1827773
1948 1.199398
1946 1.2139
1944 1.2253349
1942 1.2329311
1940 1.2395962
1938 1.2499337
1936 1.2676085
1934 1.2916806
1932 1.303998
1930 1.2797068
1928 1.2041309
1926 1.0807371
1924 0.96438557
1922 0.92634577
1920 0.99251258
1918 1.150422
1916 1.3375372
1914 1.4779296
1912 1.5480212
1910 1.5554539
1908 1.5102791
1906 1.4232721
1904 1.313704
1902 1.210274
1900 1.1614312
1898 1.2126758
1896 1.3496572
1894 1.5181104
1892 1.6411905
1890 1.646292
1888 1.5214822
1886 1.2973021
1884 1.0342335
1882 0.79829079
1880 0.61731499
1878 0.4922474
1876 0.40909901
1874 0.35174492
1872 0.32334435
1870 0.33784485
1868 0.40370944
1866 0.52104926
1864 0.6724894
1862 0.8296839
1860 0.96011442
1858 1.0314853
1856 1.0192599
1854 0.90955728
1852 0.71421218
1850 0.46370187
1848 0.2033468
1846 -0.016603537
1844 -0.15765409
1842 -0.19893029
1840 -0.16216075
1838 -0.092617594
1836 -0.02551445
1834 0.021764033
1832 0.070935257
1830 0.15897806
1828 0.28454709
1826 0.41744998
1824 0.51958358
1822 0.55994046
1820 0.54861403
1818 0.51984996
1816 0.49570259
1814 0.48309413
1812 0.47028178
1810 0.44085124
1808 0.40685463
1806 0.3942855
1804 0.4011918
1802 0.40377921
1800 0.37437066
1798 0.29830754
1796 0.22038144
1794 0.2164436
1792 0.3209092
1790 0.52559173
1788 0.77914
1786 1.0095493
1784 1.1666028
1782 1.2252204
1780 1.1911151
1778 1.094198
1776 0.98761195
1774 0.92589056
1772 0.90645909
1770 0.88253385
1768 0.7974683
1766 0.61192644
1764 0.37306181
1762 0.17495194
1760 0.042290401
1758 -0.053939648
1756 -0.12216164
1754 -0.14907542
1752 -0.12601131
1750 -0.057408173
1748 0.021671278
1746 0.056916714
1744 0.0048962161
1742 -0.15047431
1740 -0.34967443
1738 -0.48981923
1736 -0.521074
1734 -0.45333582
1732 -0.35317251
1730 -0.30881855
1728 -0.34172821
1726 -0.40927765
1724 -0.43113971
1722 -0.3046473
1720 0.080597758
1718 0.80175143
1716 1.7665871
1714 2.7664313
1712 3.6655724
1710 4.4348679
1708 5.1847482
1706 6.1208353
1704 7.4351544
1702 9.2880783
1700 11.810951
1698 15.051216
1696 18.742285
1694 22.40049
1692 25.699963
1690 28.562943
1688 31.290028
1686 34.440914
1684 38.466599
1682 43.545982
1680 49.21352
1678 54.62038
1676 59.522728
1674 64.264984
1672 69.187798
1670 74.432747
1668 79.673866
1666 84.281548
1664 87.97625
1662 90.854576
1660 93.099976
1658 94.890739
1656 96.319511
1654 97.38504
1652 97.984543
1650 97.954811
1648 97.195305
1646 95.718788
1644 93.758797
1642 91.679787
1640 89.601532
1638 87.387337
1636 84.874672
1634 81.95388
1632 78.666222
1630 75.157913
1628 71.436386
1626 67.371025
1624 62.886082
1622 58.015808
1620 52.948021
1618 47.984333
1616 43.369514
1614 39.256577
1612 35.720833
1610 32.764179
1608 30.30724
1606 28.214071
1604 26.39278
1602 24.813221
1600 23.48357
1598 22.434711
1596 21.677502
1594 21.194504
1592 20.956354
1590 20.930683
1588 21.102446
1586 21.475092
1584 22.049206
1582 22.827631
1580 23.857492
1578 25.22389
1576 26.983828
1574 29.139462
1572 31.604635
1570 34.223602
1568 36.892761
1566 39.578316
1564 42.239269
1562 44.842915
1560 47.520103
1558 50.497471
1556 53.622459
1554 56.343208
1552 58.229752
1550 59.130573
1548 59.198723
1546 58.808929
1544 58.106579
1542 56.940853
1540 55.181461
1538 52.833244
1536 50.142315
1534 47.55492
1532 45.327072
1530 43.438557
1528 41.776939
1526 40.186649
1524 38.497574
1522 36.553482
1520 34.318428
1518 31.905947
1516 29.5151
1514 27.365034
1512 25.446079
1510 23.490402
1508 21.277294
1506 18.747086
1504 16.076828
1502 13.647535
1500 11.666334
1498 10.071389
1496 8.7204714
1494 7.4594822
1492 6.2037492
1490 4.957283
1488 3.734508
1486 2.5487013
1484 1.4601331
1482 0.58204222
1480 0.0052392632
1478 -0.21740644
1476 -0.017498851
1474 0.67514116
1472 1.7842423
1470 3.062403
1468 4.3155642
1466 5.4760175
1464 6.5559893
1462 7.630825
1460 8.7605133
1458 9.9530497
1456 11.1316
1454 12.130416
1452 12.808509
1450 13.095642
1448 13.005234
1446 12.641071
1444 12.113491
1442 11.50435
1440 10.856268
1438 10.164199
1436 9.3964529
1434 8.5129414
1432 7.5339026
1430 6.5631137
1428 5.7115583
1426 5.0658293
1424 4.6560726
1422 4.442708
1420 4.3775911
1418 4.4252195
1416 4.571517
1414 4.8261118
1412 5.18859
1410 5.6349821
1408 6.1268325
1406 6.6125169
1404 7.0379696
1402 7.352241
1400 7.5175962
1398 7.5179386
1396 7.3617783
1394 7.0872607
1392 6.7427583
1390 6.379971
1388 6.0377021
1386 5.7343497
1384 5.4809465
1382 5.2818604
1380 5.1238909
1378 4.9677057
1376 4.7572603
1374 4.425725
1372 3.93819
1370 3.3146417
1368 2.6034503
1366 1.8753786
1364 1.1906109
1362 0.58587933
1360 0.095344156
1358 -0.24476691
1356 -0.4108077
1354 -0.39928773
1352 -0.20979051
1350 0.15647757
1348 0.67552429
1346 1.2900321
1344 1.949504
1342 2.6244304
1340 3.2774136
1338 3.8490477
1336 4.2671571
1334 4.4547315
1332 4.384573
1330 4.1135149
1328 3.7222195
1326 3.2974322
1324 2.9134836
1322 2.6183307
1320 2.4329138
1318 2.3403988
1316 2.2992499
1314 2.2442176
1312 2.1240354
1310 1.9237014
1308 1.6564742
1306 1.3685493
1304 1.108101
1302 0.9129855
1300 0.81312382
1298 0.82848418
1296 0.97244996
1294 1.2500366
1292 1.6586931
1290 2.1839757
1288 2.7973518
1286 3.4492335
1284 4.0801477
1282 4.6251259
1280 5.0409617
1278 5.3279629
1276 5.5107455
1274 5.6382532
1272 5.7527423
1270 5.8738437
1268 6.0156631
1266 6.1923113
1264 6.4209213
1262 6.7236195
1260 7.1168361
1258 7.6050878
1256 8.1942778
1254 8.8969927
1252 9.7211933
1250 10.660662
1248 11.694046
1246 12.7785
1244 13.867475
1242 14.91393
1240 15.86168
1238 16.637304
1236 17.166586
1234 17.384411
1232 17.255119
1230 16.795431
1228 16.041477
1226 15.04375
1224 13.855257
1222 12.531862
1220 11.146942
1218 9.8109159
1216 8.6364574
1214 7.7179694
1212 7.1195188
1210 6.8492908
1208 6.8741722
1206 7.1005287
1204 7.4047956
1202 7.635335
1200 7.6645989
1198 7.4339991
1196 6.9394712
1194 6.2573762
1192 5.4781466
1190 4.6802802
1188 3.9207292
1186 3.217515
1184 2.5821137
1182 2.0318608
1180 1.5861419
1178 1.2648764
1176 1.07732
1174 1.0088012
1172 1.035998
1170 1.1285621
1168 1.2569721
1166 1.3970901
1164 1.5289057
1162 1.638603
1160 1.7134902
1158 1.7399203
1156 1.7051328
1154 1.5995796
1152 1.422384
1150 1.1906929
1148 0.92737919
1146 0.65894175
1144 0.41438177
1142 0.22432616
1140 0.10060361
1138 0.011460651
1136 -0.072734542
1134 -0.1523302
1132 -0.22272797
1130 -0.28377011
1128 -0.33324987
1126 -0.36192292
1124 -0.36261785
1122 -0.33706823
1120 -0.28773159
1118 -0.21440375
1116 -0.12279589
1114 -0.034612201
1112 0.026094371
1110 0.040738419
1108 0.0090583004
1106 -0.0273718
1104 -0.023018351
1102 0.050663516
1100 0.20204879
1098 0.39989316
1096 0.61541569
1094 0.85133868
1092 1.125896
1090 1.4758111
1088 1.9226525
1086 2.4360342
1084 2.9636614
1082 3.431088
1080 3.7708092
1078 3.9494061
1076 3.9565914
1074 3.8221421
1072 3.5920103
1070 3.3294868
1068 3.0928888
1066 2.9147937
1064 2.8066559
1062 2.7387774
1060 2.6729283
1058 2.576138
1056 2.4322429
1054 2.2693632
1052 2.1284845
1050 2.0559819
1048 2.080508
1046 2.1775894
1044 2.3084786
1042 2.4325218
1040 2.5289063
1038 2.6331723
1036 2.77684
1034 2.9377887
1032 3.0680153
1030 3.0842319
1028 2.9291055
1026 2.6479864
1024 2.3108554
1022 1.9859009
1020 1.71874
1018 1.4886713
1016 1.2640944
1014 1.0298325
1012 0.78345388
1010 0.54940933
1008 0.35205242
1006 0.19480282
1004 0.065889806
1002 -0.076801464
1000 -0.26772553
998 -0.49374229
996 -0.72555071
994 -0.92066079
992 -1.048324
990 -1.1257936
988 -1.18287
986 -1.251345
984 -1.3505075
982 -1.4570372
980 -1.53478
978 -1.5417696
976 -1.4474543
974 -1.2650731
972 -1.0260704
970 -0.78726858
968 -0.6004414
966 -0.4804115
964 -0.4281356
962 -0.4288553
960 -0.46851945
958 -0.54822701
956 -0.65989655
954 -0.75092751
952 -0.76182961
950 -0.6490503
948 -0.40672177
946 -0.14685357
944 0.030355662
942 0.17056546
940 0.3459059
938 0.59303159
936 0.92570281
934 1.3066057
932 1.6799445
930 1.9695837
928 2.1232343
926 2.1944735
924 2.2595401
922 2.3780203
920 2.5841515
918 2.831445
916 3.0556242
914 3.2026165
912 3.2337577
910 3.159322
908 3.0011766
906 2.7767279
904 2.5007696
902 2.1808429
900 1.8415587
898 1.5827142
896 1.5227
