##TITLE=Methyl Ethyl Ketone
##JCAMP-DX=4.24
##DATA TYPE=INFRARED SPECTRUM
##XUNITS=cm-1
##YUNITS=Absorbance
##FIRSTX=900
##LASTX=2300
##XYDATA=(X++(Y..Y))
2296 0.024103001
2294 0.024615267
2292 0.025127534
2290 0.025639802
2288 0.026152069
2286 0.026664335
2284 0.027175611
2282 0.02768787
2280 0.028200136
2278 0.028712405
2276 0.029224671
2274 0.029736938
2272 0.030248223
2270 0.030758509
2268 0.031272698
2266 0.031791858
2264 0.032297432
2262 0.032782219
2260 0.033320114
2258 0.033933282
2256 0.034348283
2254 0.0344861
2252 0.03535784
2250 0.037265159
2248 0.036443442
2246 0.029288821
2244 0.017407166
2242 0.0043011196
2240 -0.0047542518
2238 -0.005295021
2236 0.0019200785
2234 0.017370068
2232 0.052543618
2230 0.11555424
2228 0.18801574
2226 0.2464225
2224 0.27763435
2222 0.2781755
2220 0.27083802
2218 0.2826013
2216 0.32621059
2214 0.40471739
2212 0.4994826
2210 0.58614427
2208 0.64325464
2206 0.65597486
2204 0.63204765
2202 0.58545887
2200 0.5273968
2198 0.46578372
2196 0.39906856
2194 0.32525349
2192 0.25238246
2190 0.18986763
2188 0.13944396
2186 0.10089873
2184 0.07599692
2182 0.068917438
2180 0.090799682
2178 0.15008861
2176 0.23513143
2174 0.3279804
2172 0.41200644
2170 0.47556341
2168 0.52507669
2166 0.57139188
2164 0.61916333
2162 0.66942877
2160 0.71765232
2158 0.75794446
2156 0.78643703
2154 0.79995286
2152 0.79528475
2150 0.77209175
2148 0.74207801
2146 0.71917033
2144 0.70925957
2142 0.71088541
2140 0.70432246
2138 0.66944695
2136 0.61049801
2134 0.54396409
2132 0.5002389
2130 0.50735164
2128 0.56418759
2126 0.65439355
2124 0.74279803
2122 0.79343379
2120 0.79402786
2118 0.74753612
2116 0.68300712
2114 0.63271868
2112 0.60363656
2110 0.59079748
2108 0.58052105
2106 0.56192482
2104 0.54800284
2102 0.55537701
2100 0.5776878
2098 0.59910142
2096 0.60239571
2094 0.57795089
2092 0.54849046
2090 0.54370946
2088 0.5699051
2086 0.61882597
2084 0.66206092
2082 0.6696592
2080 0.63694096
2078 0.57212549
2076 0.49402842
2074 0.42354921
2072 0.3743512
2070 0.35392797
2068 0.35680795
2066 0.37039572
2064 0.37385279
2062 0.34762344
2060 0.29068828
2058 0.212824
2056 0.13628885
2054 0.084136508
2052 0.062456176
2050 0.067214511
2048 0.082861602
2046 0.093911283
2044 0.10419565
2042 0.12561749
2040 0.16833119
2038 0.23497438
2036 0.30162114
2034 0.33462289
2032 0.30764258
2030 0.2077904
2028 0.062791236
2026 -0.078496382
2024 -0.15285744
2022 -0.10848684
2020 0.035314187
2018 0.221789
2016 0.372062
2014 0.41815561
2012 0.37287465
2010 0.28427887
2008 0.19183485
2006 0.12221301
2004 0.07393375
2002 0.03676939
2000 0.017129028
1998 0.026895383
1996 0.064926639
1994 0.11906716
1992 0.15858994
1990 0.15193364
1988 0.099862859
1986 0.022439038
1984 -0.045850135
1982 -0.073352411
1980 -0.065713346
1978 -0.044763494
1976 -0.022614572
1974 -0.0013472389
1972 0.034255151
1970 0.097809538
1968 0.16132784
1966 0.18016814
1964 0.12912409
1962 0.0048807487
1960 -0.14981088
1958 -0.27928925
1956 -0.36857316
1954 -0.42663547
1952 -0.46976891
1950 -0.51148045
1948 -0.54417986
1946 -0.55365002
1944 -0.54465604
1942 -0.53177679
1940 -0.52584291
1938 -0.53258872
1936 -0.54787087
1934 -0.56535846
1932 -0.59093118
1930 -0.63254279
1928 -0.67735964
1926 -0.69603872
1924 -0.63795209
1922 -0.46112332
1920 -0.20664033
1918 0.0397662
1916 0.19762415
1914 0.21205275
1912 0.11038041
1910 -0.042708714
1908 -0.21405424
1906 -0.3915742
1904 -0.56223917
1902 -0.70532733
1900 -0.77687371
1898 -0.73179048
1896 -0.57637
1894 -0.35529849
1892 -0.14919138
1890 -0.045693122
1888 -0.085555896
1886 -0.26826757
1884 -0.53723687
1882 -0.81115073
1880 -1.0308052
1878 -1.1538599
1876 -1.14341
1874 -0.97190976
1872 -0.64639431
1870 -0.21406195
1868 0.18993542
1866 0.40326622
1864 0.36601824
1862 0.10360877
1860 -0.27441686
1858 -0.63189971
1856 -0.91034001
1854 -1.102385
1852 -1.1982712
1850 -1.186164
1848 -1.07512
1846 -0.89672178
1844 -0.72362876
1842 -0.6378535
1840 -0.65592164
1838 -0.74127382
1836 -0.81416273
1834 -0.78256691
1832 -0.60023528
1830 -0.27502018
1828 0.083656691
1826 0.31640929
1824 0.31516001
1822 0.040277921
1820 -0.41941103
1818 -0.90227205
1816 -1.2730601
1814 -1.4436781
1812 -1.4197277
1810 -1.2665794
1808 -1.0562568
1806 -0.85080999
1804 -0.67924953
1802 -0.54454327
1800 -0.42983904
1798 -0.30789527
1796 -0.15274122
1794 0.043530151
1792 0.2166096
1790 0.27172482
1788 0.19796681
1786 0.052623156
1784 -0.085618824
1782 -0.14013062
1780 -0.074941173
1778 0.11530697
1776 0.42916173
1774 0.84170914
1772 1.2254989
1770 1.4036579
1768 1.3034686
1766 0.96185833
1764 0.53770459
1762 0.22770141
1760 0.052133657
1758 -0.083029069
1756 -0.16717371
1754 -0.10164794
1752 0.18356617
1750 0.69371045
1748 1.2903557
1746 1.7532287
1744 1.9502234
1742 1.8657541
1740 1.6572331
1738 1.5614995
1736 1.63872
1734 1.7813915
1732 1.7958711
1730 1.4918927
1728 0.89779907
1726 0.22426891
1724 -0.27147263
1722 -0.34623921
1720 0.12840921
1718 1.1369231
1716 2.410707
1714 3.5450106
1712 4.3557467
1710 4.9026012
1708 5.4499664
1706 6.3772278
1704 7.9897628
1702 10.456962
1700 13.680297
1698 17.324797
1696 20.894571
1694 23.8899
1692 26.251331
1690 28.331806
1688 30.673149
1686 33.845001
1684 38.091625
1682 43.271122
1680 48.75108
1678 53.699787
1676 58.042957
1674 62.354481
1672 67.010063
1670 72.01445
1668 76.935944
1666 81.115654
1664 84.342361
1662 86.847885
1660 88.901855
1658 90.715866
1656 92.425087
1654 94.07003
1652 95.518318
1650 96.480309
1648 96.582199
1646 95.507217
1644 93.453056
1642 91.032898
1640 88.625389
1638 86.270683
1636 83.780441
1634 80.858833
1632 77.429619
1630 73.635986
1628 69.598801
1626 65.369949
1624 60.95208
1622 56.333824
1620 51.600437
1618 46.927105
1616 42.467598
1614 38.335674
1612 34.633808
1610 31.44372
1608 28.765034
1606 26.521835
1604 24.637644
1602 23.057819
1600 21.756166
1598 20.728725
1596 19.959499
1594 19.417124
1592 19.082663
1590 18.955093
1588 19.055214
1586 19.419373
1584 20.068668
1582 21.013491
1580 22.307369
1578 24.038055
1576 26.235228
1574 28.837189
1572 31.658386
1570 34.428783
1568 36.99828
1566 39.374886
1564 41.645004
1562 43.969475
1560 46.627399
1558 49.888054
1556 53.411816
1554 56.284019
1552 57.956383
1550 58.475117
1548 58.264194
1546 57.953857
1544 57.823231
1542 57.678875
1540 57.106861
1538 55.641132
1536 53.242001
1534 50.358959
1532 47.491253
1530 45.032887
1528 43.123913
1526 41.626701
1524 40.30896
1522 38.904636
1520 37.188641
1518 35.038383
1516 32.566944
1514 30.103552
1512 27.841881
1510 25.738174
1508 23.609734
1506 21.218529
1504 18.567612
1502 15.944827
1500 13.579897
1498 11.5458
1496 9.8135996
1494 8.2774048
1492 6.8576317
1490 5.5224619
1488 4.2201309
1486 2.8837786
1484 1.555853
1482 0.4178158
1480 -0.33232924
1478 -0.52280498
1476 -0.03663826
1474 1.136465
1472 2.7564349
1470 4.3396978
1468 5.6037369
1466 6.6051106
1464 7.5370312
1462 8.6527996
1460 10.095431
1458 11.809009
1456 13.5012
1454 14.677405
1452 15.079717
1450 14.831422
1448 14.163925
1446 13.329071
1444 12.501031
1442 11.738319
1440 11.07008
1438 10.507654
1436 9.9967289
1434 9.413415
1432 8.6822557
1430 7.8257794
1428 6.9421558
1426 6.1935945
1424 5.6951365
1422 5.4675422
1420 5.4619975
1418 5.5646749
1416 5.6678715
1414 5.7052484
1412 5.6873345
1410 5.7149916
1408 5.8745513
1406 6.1965246
1404 6.6639915
1402 7.2080083
1400 7.7417679
1398 8.170598
1396 8.408493
1394 8.3941555
1392 8.1246223
1390 7.6732979
1388 7.1236172
1386 6.546
1384 5.9926047
1382 5.4932318
1380 5.0739985
1378 4.7560859
1376 4.5219769
1374 4.2984209
1372 4.0102119
1370 3.6055975
1368 3.0828056
1366 2.5048087
1364 1.9261909
1362 1.3669577
1360 0.84415746
1358 0.38472098
1356 0.033142284
1354 -0.14690198
1352 -0.1162536
1350 0.11744656
1348 0.52857381
1346 1.0819829
1344 1.755036
1342 2.5402327
1340 3.3847163
1338 4.157393
1336 4.7117028
1334 4.9212375
1332 4.7608237
1330 4.360559
1328 3.8652234
1326 3.3816993
1324 2.9837656
1322 2.7020206
1320 2.542505
1318 2.4835722
1316 2.4783299
1314 2.4517009
1312 2.3461807
1310 2.1482892
1308 1.8776741
1306 1.5914779
1304 1.3423035
1302 1.159479
1300 1.0605268
1298 1.0522275
1296 1.1426429
1294 1.345585
1292 1.6690755
1290 2.1063602
1288 2.636008
1286 3.2158537
1284 3.798805
1282 4.3385348
1280 4.7973228
1278 5.1547542
1276 5.4077659
1274 5.5784822
1272 5.6995296
1270 5.8113737
1268 5.9504013
1266 6.1414399
1264 6.4023728
1262 6.7426295
1260 7.1667423
1258 7.6742077
1256 8.2655945
1254 8.9453812
1252 9.7171087
1250 10.579905
1248 11.524424
1246 12.528
1244 13.556786
1242 14.566234
1240 15.501155
1238 16.289854
1236 16.862585
1234 17.158762
1232 17.135519
1230 16.779232
1228 16.097961
1226 15.130514
1224 13.937742
1222 12.603561
1220 11.227192
1218 9.923048
1216 8.8001204
1214 7.9448066
1212 7.4100232
1210 7.1889486
1208 7.2315054
1206 7.4280634
1204 7.6552958
1202 7.794096
1200 7.7509832
1198 7.4880505
1196 7.0041785
1194 6.3494573
1192 5.5927057
1190 4.8153138
1188 4.0861325
1186 3.43927
1184 2.8879547
1182 2.4188826
1180 2.0184681
1178 1.6857029
1176 1.42208
1174 1.2276014
1172 1.0968965
1170 1.0146835
1168 0.97237563
1166 0.98025924
1164 1.0483015
1162 1.173261
1160 1.3327612
1158 1.4695095
1156 1.5286086
1154 1.4811919
1152 1.3230658
1150 1.0914671
1148 0.83246541
1146 0.58830428
1144 0.39005473
1142 0.24346673
1140 0.13451809
1138 0.019775376
1136 -0.12695199
1134 -0.27564579
1132 -0.39151037
1130 -0.46076572
1128 -0.47902617
1126 -0.45159492
1124 -0.37944344
1122 -0.24844459
1120 -0.049693391
1118 0.20251137
1116 0.47275412
1114 0.68995988
1112 0.79785419
1110 0.79967046
1108 0.72751659
1106 0.64796352
1104 0.61671495
1102 0.64068872
1100 0.70956737
1098 0.80077678
1096 0.90500283
1094 1.0540051
1092 1.284572
1090 1.6187977
1088 2.0510378
1086 2.5136657
1084 2.9310796
1082 3.2481916
1080 3.4299846
1078 3.4826419
1076 3.4244215
1074 3.2793875
1072 3.0798373
1070 2.8739009
1068 2.7043288
1066 2.5868971
1064 2.5211918
1062 2.4802673
1060 2.4374852
1058 2.3837051
1056 2.3157685
1054 2.2346284
1052 2.1412106
1050 2.0331891
1048 1.9142486
1046 1.8073071
1044 1.7394103
1042 1.7353724
1040 1.8068868
1038 1.9304969
1036 2.0743599
1034 2.2072754
1032 2.304008
1030 2.3556595
1028 2.3539751
1026 2.28245
1024 2.128803
1022 1.9022059
1020 1.6255229
1018 1.3473068
1016 1.1074252
1014 0.90039003
1012 0.70453018
1010 0.48353222
1008 0.2173941
1006 -0.053119645
1004 -0.27988398
1002 -0.43924782
1000 -0.53036034
998 -0.60459268
996 -0.71825856
994 -0.90178597
992 -1.1641771
990 -1.4662945
988 -1.7587014
986 -1.996145
984 -2.1450295
982 -2.2057769
980 -2.188652
978 -2.110348
976 -1.9886057
974 -1.8413417
972 -1.6843228
970 -1.5268604
968 -1.3754097
966 -1.232525
964 -1.1025243
962 -0.99987972
960 -0.93231595
958 -0.87753457
956 -0.80466503
954 -0.68053573
952 -0.4896684
950 -0.28041488
948 -0.11094326
946 -0.0175648
944 -0.0065537235
942 0.0030534789
940 0.099762931
938 0.3207131
936 0.66969144
934 1.0759012
932 1.456368
930 1.7512034
928 1.9262806
926 2.0209208
924 2.087162
922 2.1554599
920 2.2390778
918 2.3069112
916 2.3260128
914 2.2985363
912 2.2392006
910 2.1784339
908 2.1525569
906 2.2065842
904 2.3726327
902 2.6231494
900 2.9142013
898 3.1942086
896 3.4098001
