##TITLE=Methyl Ethyl Ketone
##JCAMP-DX=4.24
##DATA TYPE=INFRARED SPECTRUM
##XUNITS=cm-1
##YUNITS=Absorbance
##FIRSTX=900
##LASTX=2300
##XYDATA=(X++(Y..Y))
2296 -0.11831
2294 -0.12076648
2292 -0.12323295
2290 -0.12568945
2288 -0.12815589
2286 -0.13061243
2284 -0.13307883
2282 -0.1355354
2280 -0.13800177
2278 -0.14045836
2276 -0.14292471
2274 -0.14539118
2272 -0.14784783
2270 -0.15028469
2268 -0.15277021
2266 -0.15529579
2264 -0.15769514
2262 -0.15989657
2260 -0.16260006
2258 -0.1660361
2256 -0.167558
2254 -0.1664263
2252 -0.17233703
2250 -0.18819772
2248 -0.1778464
2246 -0.10845571
2244 -0.0039334283
2242 0.089577265
2240 0.10076364
2238 -0.024039453
2236 -0.23917902
2234 -0.47733933
2232 -0.69796872
2230 -0.87362707
2228 -0.99739951
2226 -1.06657
2224 -1.0719869
2222 -1.0050423
2220 -0.86847442
2218 -0.67542058
2216 -0.46820542
2214 -0.29474202
2212 -0.19056781
2210 -0.17518367
2208 -0.21847515
2206 -0.27824593
2204 -0.32415548
2202 -0.33582288
2200 -0.31771898
2198 -0.28057221
2196 -0.22960357
2194 -0.16837932
2192 -0.10130856
2190 -0.031594545
2188 0.043518219
2186 0.12431775
2184 0.1932608
2182 0.22722165
2180 0.20368481
2178 0.11122371
2176 -0.017798685
2174 -0.13659042
2172 -0.19778974
2170 -0.16607609
2168 -0.054807909
2166 0.1010453
2164 0.24417537
2162 0.32065821
2160 0.3194671
2158 0.25140047
2156 0.15668701
2154 0.078950956
2152 0.03621076
2150 0.033328559
2148 0.05825239
2146 0.095524967
2144 0.13874762
2142 0.18343541
2140 0.21937226
2138 0.23400329
2136 0.21387371
2134 0.1518617
2132 0.068150736
2130 -0.0094225127
2128 -0.061846402
2126 -0.078151383
2124 -0.066144913
2122 -0.038437188
2120 0.00032480108
2118 0.047414836
2116 0.095046014
2114 0.1343518
2112 0.1602252
2110 0.17322341
2108 0.19124784
2106 0.23348936
2104 0.29776439
2102 0.3678844
2100 0.40434
2098 0.36885086
2096 0.26407859
2094 0.11556033
2092 -0.023004808
2090 -0.097815022
2088 -0.09749154
2086 -0.034258701
2084 0.052430585
2082 0.12123653
2080 0.16492862
2078 0.19450893
2076 0.23858757
2074 0.32527941
2072 0.45360321
2070 0.60533792
2068 0.74065006
2066 0.81676406
2064 0.81326038
2062 0.72806042
2060 0.59591156
2058 0.46300131
2056 0.36140171
2054 0.30900618
2052 0.29195127
2050 0.28528276
2048 0.27247378
2046 0.24620715
2044 0.22009081
2042 0.21363184
2040 0.23428594
2038 0.28118059
2036 0.34203443
2034 0.40295038
2032 0.46282777
2030 0.5258528
2028 0.59404826
2026 0.66759741
2024 0.74455565
2022 0.8207255
2020 0.88622618
2018 0.92917043
2016 0.93981802
2014 0.91371012
2012 0.86418718
2010 0.81106555
2008 0.76750338
2006 0.74290329
2004 0.74560714
2002 0.78158957
2000 0.84798336
1998 0.93539721
1996 1.0241171
1994 1.09241
1992 1.1292509
1990 1.1306207
1988 1.1000279
1986 1.04275
1984 0.95712411
1982 0.84302664
1980 0.72099066
1978 0.62482488
1976 0.6012131
1974 0.69197166
1972 0.89399403
1970 1.1725932
1968 1.4536858
1966 1.6542078
1964 1.7294132
1962 1.6673882
1960 1.51132
1958 1.3260577
1956 1.1584486
1954 1.0377585
1952 0.96420437
1950 0.92343611
1948 0.89826047
1946 0.87362498
1944 0.84553897
1942 0.8167522
1940 0.79423016
1938 0.78367859
1936 0.77779144
1934 0.76266617
1932 0.7260378
1930 0.66092688
1928 0.57697141
1926 0.49683684
1924 0.46157148
1922 0.51214433
1920 0.64928794
1918 0.8456133
1916 1.0495633
1914 1.2070726
1912 1.3032217
1910 1.3436142
1908 1.3271348
1906 1.2502857
1904 1.125316
1902 0.98142093
1900 0.88059431
1898 0.8881247
1896 1.0058399
1894 1.1877199
1892 1.3425329
1890 1.372844
1888 1.250852
1886 1.0010684
1884 0.69164032
1882 0.40297714
1880 0.17560852
1878 0.023486076
1876 -0.0451933
1874 -0.023453256
1872 0.094566777
1870 0.30203277
1868 0.53850639
1866 0.71881068
1864 0.78923184
1862 0.73096269
1860 0.5825156
1858 0.40771756
1856 0.23917228
1854 0.0866521
1852 -0.042514972
1850 -0.14244574
1848 -0.21724281
1846 -0.27701858
1844 -0.33093828
1842 -0.38366365
1840 -0.42525005
1838 -0.43949556
1836 -0.42249444
1834 -0.3757115
1832 -0.28548613
1830 -0.13444218
1828 0.06417767
1826 0.27093264
1824 0.42176473
1822 0.45139942
1820 0.3499718
1818 0.15000375
1816 -0.093457833
1814 -0.31919599
1812 -0.48523769
1810 -0.56839788
1808 -0.56791264
1806 -0.50228697
1804 -0.41732115
1802 -0.36817691
1800 -0.37696269
1798 -0.43082088
1796 -0.4678143
1794 -0.40963578
1792 -0.2409056
1790 0.0032978803
1788 0.26987225
1786 0.50575727
1784 0.6881721
1782 0.81662595
1780 0.89321762
1778 0.92231572
1776 0.92301542
1774 0.91883856
1772 0.90591282
1770 0.85956997
1768 0.7544167
1766 0.57871735
1764 0.3734906
1762 0.20169841
1760 0.055223316
1758 -0.11139503
1756 -0.25703615
1754 -0.28081211
1752 -0.13044581
1750 0.17933467
1748 0.53223455
1746 0.75661641
1744 0.74148721
1742 0.4632256
1740 0.051183283
1738 -0.27932876
1736 -0.407648
1734 -0.32594192
1732 -0.15090527
1730 -0.05807342
1728 -0.11626992
1726 -0.28210315
1724 -0.42233053
1722 -0.35294169
1720 0.089247495
1718 0.9897145
1716 2.1832914
1714 3.3380208
1712 4.2356505
1710 4.8256269
1708 5.2913198
1706 5.9761515
1704 7.194675
1702 9.1747894
1700 11.966663
1698 15.427591
1696 19.143143
1694 22.5697
1692 25.47036
1690 27.949413
1688 30.401875
1686 33.376915
1684 37.254356
1682 42.125626
1680 47.510479
1678 52.613811
1676 57.261715
1674 61.858631
1672 66.75499
1670 72.058952
1668 77.401627
1666 82.110703
1664 85.86042
1662 88.703613
1660 90.790375
1658 92.283165
1656 93.304947
1654 93.931511
1652 94.200317
1650 94.10997
1648 93.590904
1646 92.553253
1644 91.078979
1642 89.386566
1640 87.581009
1638 85.61985
1636 83.375916
1634 80.699905
1632 77.583466
1630 74.137535
1628 70.396423
1626 66.306854
1624 61.848763
1622 57.07111
1620 52.13335
1618 47.280201
1616 42.709572
1614 38.551392
1612 34.902302
1610 31.82102
1608 29.278761
1606 27.172272
1604 25.405743
1602 23.913624
1600 22.673817
1598 21.698801
1596 20.997002
1594 20.561935
1592 20.37072
1590 20.389008
1588 20.595285
1586 20.986036
1584 21.562241
1582 22.33569
1580 23.373728
1578 24.793299
1576 26.681343
1574 29.055765
1572 31.795282
1570 34.658329
1568 37.451481
1566 40.073086
1564 42.487198
1562 44.752037
1560 47.155361
1558 50.10545
1556 53.494671
1554 56.651218
1552 58.974152
1550 60.154316
1548 60.342651
1546 60.071857
1544 59.61795
1542 58.871567
1540 57.62352
1538 55.698444
1536 53.215141
1534 50.594093
1532 48.178131
1530 46.122005
1528 44.404289
1526 42.842648
1524 41.222008
1522 39.355015
1520 37.191292
1518 34.843937
1516 32.51157
1514 30.405602
1512 28.503319
1510 26.519966
1508 24.217028
1506 21.521585
1504 18.625126
1502 15.952083
1500 13.738263
1498 11.92453
1496 10.360643
1494 8.8776979
1492 7.3991575
1490 5.9604759
1488 4.5818167
1486 3.2465265
1484 1.9907081
1482 0.9244979
1480 0.16346386
1478 -0.18726453
1476 -0.011745155
1474 0.78350163
1472 2.0842011
1470 3.540556
1468 4.8820066
1466 6.0225835
1464 7.0071998
1462 7.9913192
1460 9.1098976
1458 10.41549
1456 11.8136
1454 13.0535
1452 13.925669
1450 14.33532
1448 14.299303
1446 13.9475
1444 13.406922
1442 12.76536
1440 12.087605
1438 11.40984
1436 10.7172
1434 9.9435883
1432 9.0620546
1430 8.1222391
1428 7.2200756
1426 6.4808421
1424 5.9786177
1422 5.7029696
1420 5.6035514
1418 5.6048737
1416 5.6531258
1414 5.7358131
1412 5.8651838
1410 6.0718842
1408 6.3698487
1406 6.7412467
1404 7.151031
1402 7.5487781
1400 7.876924
1398 8.0756111
1396 8.1020927
1394 7.9446425
1392 7.6269608
1390 7.212708
1388 6.7611294
1386 6.3103051
1384 5.8865805
1382 5.5033031
1380 5.1582327
1378 4.8292379
1376 4.48312
1374 4.0820136
1372 3.615684
1370 3.1160829
1368 2.6116486
1366 2.1095057
1364 1.6027722
1362 1.0771976
1360 0.5558362
1358 0.1191192
1356 -0.16212915
1354 -0.25500044
1352 -0.15261108
1350 0.123835
1348 0.54496455
1346 1.0774989
1344 1.6822879
1342 2.3121707
1340 2.9184639
1338 3.4528074
1336 3.8670659
1334 4.1167302
1332 4.1773543
1330 4.058773
1328 3.7955904
1326 3.4513478
1324 3.0981014
1322 2.8067093
1320 2.6169302
1318 2.5141473
1316 2.4551601
1314 2.3730559
1312 2.2191327
1310 1.9873607
1308 1.6972009
1306 1.3945671
1304 1.1274447
1302 0.93541962
1300 0.84571779
1298 0.8673389
1296 1.0028
1294 1.2511722
1292 1.6141726
1290 2.0969017
1288 2.6886201
1286 3.3476579
1284 4.0178862
1282 4.6321445
1280 5.1381106
1278 5.5168548
1276 5.7715588
1274 5.9325991
1272 6.0435586
1270 6.1595044
1268 6.3287249
1266 6.5797262
1264 6.9239459
1262 7.3502378
1260 7.8490181
1258 8.4231339
1256 9.0783424
1254 9.819766
1252 10.644517
1250 11.536927
1248 12.487423
1246 13.49825
1244 14.570412
1242 15.685024
1240 16.790051
1238 17.774292
1236 18.517942
1234 18.916487
1232 18.907919
1230 18.503817
1228 17.75226
1226 16.733507
1224 15.531257
1222 14.214149
1220 12.858737
1218 11.55785
1216 10.403874
1214 9.4815865
1212 8.8505011
1210 8.5178595
1208 8.4525928
1206 8.5689564
1204 8.7564278
1202 8.8832741
1200 8.8307648
1198 8.5227795
1196 7.9301496
1194 7.1035371
1192 6.123199
1190 5.0908589
1188 4.0996437
1186 3.2121336
1184 2.4759502
1182 1.9201837
1180 1.5576829
1178 1.3738171
1176 1.3366799
1174 1.391748
1172 1.4846666
1170 1.5744954
1168 1.6346223
1166 1.6642743
1164 1.6710874
1162 1.666904
1160 1.6530474
1158 1.6048279
1156 1.4947186
1154 1.3043305
1152 1.0372233
1150 0.74114835
1148 0.4697628
1146 0.26409894
1144 0.14512928
1142 0.092824943
1140 0.066823363
1138 0.0046670809
1136 -0.13819087
1134 -0.35096771
1132 -0.60463536
1130 -0.85767162
1128 -1.0614835
1126 -1.160265
1124 -1.1199577
1122 -0.96459293
1120 -0.74835759
1118 -0.56213945
1116 -0.48240274
1114 -0.52617049
1112 -0.67420298
1110 -0.85306263
1108 -0.9813
1106 -0.99285454
1104 -0.85425848
1102 -0.60461247
1100 -0.30100784
1098 0.00033147633
1096 0.26324999
1094 0.50326222
1092 0.7554704
1090 1.0724666
1088 1.5007943
1086 2.0573885
1084 2.720541
1082 3.3860984
1080 3.9348817
1078 4.2638302
1076 4.3133688
1074 4.1295052
1072 3.7909646
1070 3.394906
1068 3.0292394
1066 2.7442949
1064 2.5637281
1062 2.463496
1060 2.3992429
1058 2.3047831
1056 2.12784
1054 1.8719544
1052 1.5674617
1050 1.2805561
1048 1.0703064
1046 0.95017999
1044 0.91611826
1042 0.94637275
1040 1.0239629
1038 1.1571004
1036 1.34966
1034 1.5736434
1032 1.7897588
1030 1.9489498
1028 2.0156515
1026 2.0011857
1024 1.9308051
1022 1.836228
1020 1.747834
1018 1.6861036
1016 1.66022
1014 1.6501806
1012 1.6253437
1010 1.5440248
1008 1.376632
1006 1.1387961
1004 0.85795814
1002 0.5635882
1000 0.27777863
998 -0.0014223158
996 -0.28323072
994 -0.58059049
992 -0.89811325
990 -1.2106113
988 -1.4795563
986 -1.6489822
984 -1.6764674
982 -1.5797094
980 -1.393178
978 -1.1591259
976 -0.91410768
974 -0.67050433
972 -0.4422093
970 -0.26794079
968 -0.18299893
966 -0.1900935
964 -0.27498293
962 -0.39343205
960 -0.50180042
958 -0.5839743
956 -0.63238055
954 -0.64514875
952 -0.61618477
950 -0.52023947
948 -0.34316444
946 -0.1261902
944 0.095772147
942 0.35851383
940 0.69310534
938 1.05065
936 1.3737258
934 1.6456411
932 1.8587209
930 2.0013514
928 2.0679994
926 2.0805237
924 2.0677319
922 2.0600014
920 2.0881131
918 2.1835511
916 2.3725102
914 2.6608276
912 3.0277302
910 3.3698251
908 3.5805609
906 3.6214714
904 3.5055799
902 3.3803644
900 3.3958209
898 3.5780926
896 3.9224
