##TITLE=Methyl Ethyl Ketone
##JCAMP-DX=4.24
##DATA TYPE=INFRARED SPECTRUM
##XUNITS=cm-1
##YUNITS=Absorbance
##FIRSTX=900
##LASTX=2300
##XYDATA=(X++(Y..Y))
2296 0.024217
2294 0.024732262
2292 0.025246529
2290 0.025760792
2288 0.026275057
2286 0.026790313
2284 0.027304586
2282 0.027818849
2280 0.028333114
2278 0.028848365
2276 0.029362643
2274 0.029875923
2272 0.030392138
2270 0.03090938
2268 0.03142076
2266 0.031923223
2264 0.032449931
2262 0.0330084
2260 0.033479914
2258 0.033828609
2256 0.034503426
2254 0.035635591
2252 0.035556678
2250 0.03376862
2248 0.036485396
2246 0.046291463
2244 0.043673847
2242 0.0080361366
2240 -0.06065236
2238 -0.15470621
2236 -0.25892028
2234 -0.35535929
2232 -0.42347127
2230 -0.44485345
2228 -0.4127264
2226 -0.32849449
2224 -0.21296793
2222 -0.091524012
2220 0.014623657
2218 0.088521592
2216 0.12517251
2214 0.1249753
2212 0.095765799
2210 0.048147134
2208 -0.0050305007
2206 -0.050968219
2204 -0.079718523
2202 -0.082833543
2200 -0.054359153
2198 0.0055659134
2196 0.075111151
2194 0.12592129
2192 0.13054754
2190 0.072422184
2188 -0.022458386
2186 -0.11575665
2184 -0.1739368
2182 -0.1744377
2180 -0.1322958
2178 -0.073875666
2176 -0.022629771
2174 0.0036681686
2172 0.0053700781
2170 -0.010593028
2168 -0.034646057
2166 -0.05786844
2164 -0.077041425
2162 -0.090997435
2160 -0.099090025
2158 -0.10140672
2156 -0.100473
2154 -0.09971381
2152 -0.10266358
2150 -0.11010406
2148 -0.11143079
2146 -0.094316788
2144 -0.055636115
2142 0.0011525289
2140 0.059180256
2138 0.09936098
2136 0.11252486
2134 0.095757909
2132 0.056899026
2130 0.0084139425
2128 -0.033501752
2126 -0.054095108
2124 -0.049639571
2122 -0.024307594
2120 0.0018600633
2118 0.0084431283
2116 -0.0030188686
2114 -0.02074641
2112 -0.025055017
2110 0.00035099825
2108 0.046714939
2106 0.096289031
2104 0.13355063
2102 0.14610118
2100 0.12952079
2098 0.083868295
2096 0.015320085
2094 -0.065239899
2092 -0.13663444
2090 -0.17788516
2088 -0.18519978
2086 -0.163729
2084 -0.12709969
2082 -0.090941772
2080 -0.066202559
2078 -0.060984075
2076 -0.079732902
2074 -0.12201206
2072 -0.17275481
2070 -0.21295442
2068 -0.2316404
2066 -0.22538021
2064 -0.20734303
2062 -0.19547993
2060 -0.19981943
2058 -0.22440621
2056 -0.26321945
2054 -0.30496693
2052 -0.33290413
2050 -0.33141756
2048 -0.29823491
2046 -0.24089964
2044 -0.18401819
2042 -0.15389319
2040 -0.15462251
2038 -0.17860369
2036 -0.21079428
2034 -0.23725703
2032 -0.26003298
2030 -0.28557539
2028 -0.30881327
2026 -0.31926429
2024 -0.30667028
2022 -0.26628286
2020 -0.21488111
2018 -0.17704511
2016 -0.16966601
2014 -0.19933866
2012 -0.2462548
2010 -0.28250673
2008 -0.29584846
2006 -0.2856037
2004 -0.26659605
2002 -0.25591621
2000 -0.25187159
1998 -0.24383512
1996 -0.22221071
1994 -0.1832063
1992 -0.14329332
1990 -0.12537378
1988 -0.139276
1986 -0.18316442
1984 -0.23470812
1982 -0.26557425
1980 -0.26191276
1978 -0.22149685
1976 -0.15901743
1974 -0.096137017
1972 -0.051288497
1970 -0.03778474
1968 -0.056068674
1966 -0.097821169
1964 -0.14383462
1962 -0.17315179
1960 -0.1788692
1958 -0.16481642
1956 -0.14919728
1954 -0.15280685
1952 -0.17863354
1950 -0.21861769
1948 -0.25844556
1946 -0.28347
1944 -0.2883355
1942 -0.27427095
1940 -0.24940571
1938 -0.22569682
1936 -0.21789685
1934 -0.23803414
1932 -0.28093842
1930 -0.33044767
1928 -0.36258042
1926 -0.35486171
1924 -0.30643728
1922 -0.23100618
1920 -0.15395057
1918 -0.10112463
1916 -0.077140972
1914 -0.073056206
1912 -0.073289789
1910 -0.062990442
1908 -0.041941632
1906 -0.019017277
1904 -0.006443928
1902 -0.014360697
1900 -0.038760778
1898 -0.066340029
1896 -0.07829129
1894 -0.057142168
1892 -0.0017694607
1890 0.077417076
1888 0.16121194
1886 0.22845772
1884 0.26782075
1882 0.27568609
1880 0.25561434
1878 0.21539396
1876 0.165379
1874 0.11755887
1872 0.086062029
1870 0.083121419
1868 0.10757735
1866 0.14817514
1864 0.18465172
1862 0.19651291
1860 0.18252458
1858 0.15425622
1856 0.12654343
1854 0.11186981
1852 0.10896194
1850 0.10760307
1848 0.095545717
1846 0.065082036
1844 0.030458253
1842 0.016856356
1840 0.037261207
1838 0.09055306
1836 0.15317658
1834 0.1933715
1832 0.20164588
1830 0.18768054
1828 0.17728209
1826 0.19863001
1824 0.25194776
1822 0.31754461
1820 0.37137938
1818 0.3925927
1816 0.37781
1814 0.33661902
1812 0.28522062
1810 0.24232771
1808 0.22435732
1806 0.24030101
1804 0.27413151
1802 0.29376087
1800 0.26888588
1798 0.18202354
1796 0.059443928
1794 -0.044474296
1792 -0.080166839
1790 -0.016879097
1788 0.12165263
1786 0.27750263
1784 0.40329456
1782 0.46942878
1780 0.47347525
1778 0.43126231
1776 0.36266714
1774 0.2875582
1772 0.2229469
1770 0.18025875
1768 0.15493292
1766 0.13391736
1764 0.1159486
1762 0.099399544
1760 0.035581592
1758 -0.13843104
1756 -0.38907155
1754 -0.62121254
1752 -0.80008
1750 -0.94524938
1748 -1.0771275
1746 -1.2068714
1744 -1.3347229
1742 -1.4517362
1740 -1.5385028
1738 -1.570068
1736 -1.52724
1734 -1.4025658
1732 -1.2196714
1730 -1.0215656
1728 -0.8355298
1726 -0.66822362
1724 -0.50086832
1722 -0.29626819
1720 -0.012033761
1718 0.39115903
1716 0.93148839
1714 1.5963125
1712 2.3068035
1710 2.9598064
1708 3.5687761
1706 4.2583652
1704 5.2097573
1702 6.6430788
1700 8.8221197
1698 11.942429
1696 15.736143
1694 19.59062
1692 23.057287
1690 25.966465
1688 28.563532
1686 31.372499
1684 34.785706
1682 38.923096
1680 43.355202
1678 47.343811
1676 50.716228
1674 53.847385
1672 57.151829
1670 60.908745
1668 65.018204
1666 69.102348
1664 72.938393
1662 76.49115
1660 79.749901
1658 82.698349
1656 85.342194
1654 87.713005
1652 89.861481
1650 91.825203
1648 93.510918
1646 94.733109
1644 95.423431
1642 95.625008
1640 95.31562
1638 94.389679
1636 92.731476
1634 90.269531
1632 87.123634
1630 83.562096
1628 79.74147
1626 75.680862
1624 71.372803
1622 66.829529
1620 62.161049
1618 57.561909
1616 53.191971
1614 49.156422
1612 45.529427
1610 42.35144
1608 39.600548
1606 37.203972
1604 35.102753
1602 33.264648
1600 31.670778
1598 30.308212
1596 29.158501
1594 28.198246
1592 27.412502
1590 26.795784
1588 26.344114
1586 26.050051
1584 25.895771
1582 25.85784
1580 25.933422
1578 26.142349
1576 26.5056
1574 27.035772
1572 27.715694
1570 28.499659
1568 29.344639
1566 30.219536
1564 31.113768
1562 32.06514
1560 33.264484
1558 35.00069
1556 37.291058
1554 39.827553
1552 42.221138
1550 44.121807
1548 45.470341
1546 46.502357
1544 47.393948
1542 48.181686
1540 48.855759
1538 49.379269
1536 49.676373
1534 49.650555
1532 49.288956
1530 48.671055
1528 47.842045
1526 46.7901
1524 45.51469
1522 44.051586
1520 42.486988
1518 40.94524
1516 39.500317
1514 38.135044
1512 36.710159
1510 34.982506
1508 32.786137
1506 30.109615
1504 27.148104
1502 24.274824
1500 21.708317
1498 19.42507
1496 17.311857
1494 15.220467
1492 13.076923
1490 10.907791
1488 8.7711105
1486 6.7421064
1484 4.907948
1482 3.3558826
1480 2.1094418
1478 1.1294423
1476 0.45471287
1474 0.21470523
1472 0.4234851
1470 0.92577428
1468 1.5478449
1466 2.1523051
1464 2.6798754
1462 3.1609378
1460 3.6357384
1458 4.1273241
1456 4.6283598
1454 5.0952888
1452 5.4715252
1450 5.7012453
1448 5.7698579
1446 5.7159715
1444 5.5801611
1442 5.3856549
1440 5.1287694
1438 4.7750707
1436 4.2884932
1434 3.6503339
1432 2.9022942
1430 2.158798
1428 1.522784
1426 1.054064
1424 0.77441287
1422 0.66569763
1420 0.70369685
1418 0.86651438
1416 1.1270343
1414 1.45218
1412 1.8193114
1410 2.2230067
1408 2.665076
1406 3.1497693
1404 3.6666355
1402 4.1843853
1400 4.6719322
1398 5.107996
1396 5.487864
1394 5.8249922
1392 6.1207395
1390 6.3517146
1388 6.4849072
1386 6.4857101
1384 6.3429255
1382 6.0815439
1380 5.7363038
1378 5.3433394
1376 4.9306769
1374 4.513741
1372 4.1044321
1370 3.7104578
1368 3.3228531
1366 2.9107115
1364 2.4512298
1362 1.9463853
1360 1.4290113
1358 0.96669686
1356 0.60619211
1354 0.34745389
1352 0.17039295
1350 0.042587049
1348 -0.055053055
1346 -0.11711
1344 -0.1392328
1342 -0.12776595
1340 -0.092427149
1338 -0.043565631
1336 0.013960592
1334 0.083179593
1332 0.16145748
1330 0.23474869
1328 0.29115576
1326 0.32785913
1324 0.35185218
1322 0.38292015
1320 0.4429937
1318 0.55072242
1316 0.71186101
1314 0.91083497
1312 1.1222172
1310 1.3137423
1308 1.4618603
1306 1.5613407
1304 1.617184
1302 1.6443499
1300 1.657828
1298 1.6689349
1296 1.6861143
1294 1.7144303
1292 1.7588037
1290 1.8240896
1288 1.91186
1286 2.0170572
1284 2.1308665
1282 2.2421224
1280 2.3469
1278 2.4555154
1276 2.5819085
1274 2.7398171
1272 2.9359961
1270 3.1651392
1268 3.4228468
1266 3.71155
1264 4.0393219
1262 4.4214063
1260 4.8713999
1258 5.3953557
1256 5.9925456
1254 6.6517677
1252 7.3587255
1250 8.0983133
1248 8.8573246
1246 9.6261501
1244 10.393417
1242 11.141932
1240 11.850892
1238 12.496663
1236 13.054086
1234 13.500501
1232 13.81448
1230 13.978259
1228 13.983966
1226 13.835479
1224 13.544628
1222 13.129339
1220 12.608457
1218 12.0032
1216 11.333171
1214 10.619596
1212 9.8820238
1210 9.1421165
1208 8.4198217
1206 7.7287912
1204 7.0772481
1202 6.4642954
1200 5.8844609
1198 5.3268375
1196 4.7782574
1194 4.2242441
1192 3.6582856
1190 3.0917251
1188 2.5424674
1186 2.0332198
1184 1.5821263
1182 1.1954302
1180 0.8812483
1178 0.65687919
1176 0.53664398
1174 0.52167356
1172 0.59409785
1170 0.70189857
1168 0.79199326
1166 0.82895893
1164 0.79864955
1162 0.72502989
1160 0.63925672
1158 0.56701994
1156 0.52167058
1154 0.49136406
1152 0.45798594
1150 0.4037486
1148 0.3194668
1146 0.21592358
1144 0.11144601
1142 0.030393811
1140 -0.0059515564
1138 0.013340998
1136 0.097919457
1134 0.25924671
1132 0.50078237
1130 0.80609763
1128 1.1558743
1126 1.5355228
1124 1.9335388
1122 2.3436573
1120 2.7562079
1118 3.1518605
1116 3.5160444
1114 3.8526843
1112 4.1734729
1110 4.4986687
1108 4.843626
1106 5.205905
1104 5.5740547
1102 5.9256272
1100 6.2436485
1098 6.5331969
1096 6.8157573
1094 7.1407161
1092 7.5538578
1090 8.0723448
1088 8.6873474
1086 9.3398476
1084 9.9600906
1082 10.482878
1080 10.86204
1078 11.10559
1076 11.239386
1074 11.309484
1072 11.359783
1070 11.40609
1068 11.453792
1066 11.489821
1064 11.50156
1062 11.486258
1060 11.443972
1058 11.382206
1056 11.303456
1054 11.1982
1052 11.052383
1050 10.85129
1048 10.583606
1046 10.252211
1044 9.8686399
1042 9.4557505
1040 9.0419149
1038 8.661499
1036 8.33673
1034 8.0492601
1032 7.7650452
1030 7.4335527
1028 7.0186315
1026 6.5380645
1024 6.026794
1022 5.530055
1020 5.0853624
1018 4.6982975
1016 4.3617482
1014 4.0541286
1012 3.7509356
1010 3.4293451
1008 3.076612
1006 2.7091827
1004 2.3522754
1002 2.0355158
1000 1.777828
998 1.5616848
996 1.3608428
994 1.1514271
992 0.91829765
990 0.67186815
988 0.42866403
986 0.2042091
984 0.012090683
982 -0.13933876
980 -0.2399862
978 -0.27006853
976 -0.21271327
974 -0.06894663
972 0.14778802
970 0.39761785
968 0.64083683
966 0.86037201
964 1.0492212
962 1.2153431
960 1.3627102
958 1.4690803
956 1.5048429
954 1.4377528
952 1.246864
950 0.95407569
948 0.60518312
946 0.29241413
944 0.094240196
942 -0.00077891164
940 -0.022653192
938 0.012052171
936 0.087777205
934 0.18066704
932 0.27193633
930 0.36878836
928 0.4774819
926 0.57696557
924 0.64665139
922 0.69308728
920 0.73670405
918 0.82442749
916 0.99278527
914 1.2134018
912 1.438128
910 1.605531
908 1.6677926
906 1.6432371
904 1.5643784
902 1.455693
900 1.3375715
898 1.2227561
896 1.1222
