##TITLE=Methyl Ethyl Ketone
##JCAMP-DX=4.24
##DATA TYPE=INFRARED SPECTRUM
##XUNITS=cm-1
##YUNITS=Absorbance
##FIRSTX=900
##LASTX=2300
##XYDATA=(X++(Y..Y))
2296 -0.0096594999
2294 -0.0098604122
2292 -0.010061424
2290 -0.010262138
2288 -0.010462851
2286 -0.010664557
2284 -0.010865277
2282 -0.011065991
2280 -0.011266703
2278 -0.011468402
2276 -0.011669129
2274 -0.011869842
2272 -0.012070554
2270 -0.012272249
2268 -0.012472981
2266 -0.012673693
2264 -0.012874406
2262 -0.013076095
2260 -0.013276831
2258 -0.013477544
2256 -0.013678257
2254 -0.013878969
2252 -0.014080651
2250 -0.014281396
2248 -0.014482108
2246 -0.014682821
2244 -0.00054562854
2242 0.0012653362
2240 -0.0024653401
2238 -0.026322717
2236 -0.053113285
2234 -0.083599783
2232 -0.11367442
2230 -0.12854245
2228 -0.1399992
2226 -0.1299765
2224 -0.1156752
2222 -0.086803645
2220 -0.056919314
2218 -0.026323315
2216 -0.0037540402
2214 0.0011878907
2212 -0.0038124262
2210 -0.023340737
2208 -0.03713597
2206 -0.0426668
2204 -0.032752033
2202 -0.0084598195
2200 0.020515734
2198 0.052286789
2196 0.073559932
2194 0.088678032
2192 0.091758877
2190 0.089743309
2188 0.08323697
2186 0.075378954
2184 0.065216362
2182 0.054542672
2180 0.051181793
2178 0.049159452
2176 0.067169085
2174 0.087080844
2172 0.10771383
2170 0.12489259
2168 0.12192165
2166 0.11466642
2164 0.098993108
2162 0.080456935
2160 0.056740433
2158 0.026898345
2156 -0.013574
2154 -0.04836211
2152 -0.073325306
2150 -0.082599327
2148 -0.075348794
2146 -0.067856036
2144 -0.061674289
2142 -0.05860243
2140 -0.057594031
2138 -0.048837613
2136 -0.0357504
2134 -0.027548864
2132 -0.021601571
2130 -0.036498439
2128 -0.057983801
2126 -0.082103804
2124 -0.10670936
2122 -0.10984509
2120 -0.10983377
2118 -0.11503223
2116 -0.12561099
2114 -0.17085579
2112 -0.22118469
2110 -0.27184352
2108 -0.31219703
2106 -0.32127336
2104 -0.32441682
2102 -0.32464772
2100 -0.3335726
2098 -0.35781649
2096 -0.37717
2094 -0.38715482
2092 -0.38514516
2090 -0.37214682
2088 -0.37283525
2086 -0.38616499
2084 -0.4059445
2082 -0.42882538
2080 -0.42743412
2078 -0.41304678
2076 -0.3967793
2074 -0.3803601
2072 -0.38451201
2070 -0.39528424
2068 -0.40734825
2066 -0.41939363
2064 -0.42422324
2062 -0.42672223
2060 -0.42033386
2058 -0.41238642
2056 -0.40547201
2054 -0.40278152
2052 -0.41439158
2050 -0.43002439
2048 -0.44856128
2046 -0.46921644
2044 -0.49278939
2042 -0.5224666
2040 -0.56070036
2038 -0.59964156
2036 -0.63767588
2034 -0.67485261
2032 -0.71133411
2030 -0.74893951
2028 -0.78740937
2026 -0.81016189
2024 -0.82269287
2022 -0.80469871
2020 -0.77157152
2018 -0.73868167
2016 -0.70680201
2014 -0.71754539
2012 -0.74275309
2010 -0.78413177
2008 -0.82817972
2006 -0.84890842
2004 -0.86305791
2002 -0.87247378
2000 -0.88221979
1998 -0.89801902
1996 -0.91295356
1994 -0.92031002
1992 -0.92728311
1990 -0.93818116
1988 -0.95793217
1986 -0.99222332
1984 -1.0280331
1982 -1.0611883
1980 -1.0826694
1978 -1.0915145
1976 -1.0835657
1974 -1.062551
1972 -1.022668
1970 -0.97016853
1968 -0.92543441
1966 -0.88712156
1964 -0.89504182
1962 -0.92701948
1960 -0.98799443
1958 -1.0604309
1956 -1.1293072
1954 -1.1961061
1952 -1.2418171
1950 -1.2776747
1948 -1.2816411
1946 -1.27455
1944 -1.2629685
1942 -1.2563379
1940 -1.2747377
1938 -1.3017935
1936 -1.3320515
1934 -1.3521852
1932 -1.3492219
1930 -1.3303037
1928 -1.295604
1926 -1.2469692
1924 -1.1853245
1922 -1.1128159
1920 -1.0325035
1918 -0.97413361
1916 -0.93799585
1914 -0.93228585
1912 -0.94596195
1910 -0.97679257
1908 -1.0160508
1906 -1.0845814
1904 -1.168548
1902 -1.2397383
1900 -1.304384
1898 -1.2893193
1896 -1.2404572
1894 -1.1561261
1892 -1.0655788
1890 -1.0268099
1888 -1.0204498
1886 -1.0691757
1884 -1.1401702
1882 -1.2164456
1880 -1.2840205
1878 -1.3263681
1876 -1.33325
1874 -1.2894967
1872 -1.1972331
1870 -1.0562903
1868 -0.93623739
1866 -0.86269623
1864 -0.88168776
1862 -0.98561597
1860 -1.1055694
1858 -1.219541
1856 -1.2813371
1854 -1.3031484
1852 -1.2720914
1850 -1.2100805
1848 -1.1265121
1846 -1.0322608
1844 -1.0033283
1842 -1.0097408
1840 -1.0774685
1838 -1.1695244
1836 -1.22015
1834 -1.239411
1832 -1.1903143
1830 -1.1048245
1828 -0.99954182
1826 -0.90869242
1824 -0.88279229
1822 -0.90945852
1820 -0.99075139
1818 -1.0762782
1816 -1.1308886
1814 -1.139274
1812 -1.0965121
1810 -1.0349617
1808 -0.97179097
1806 -0.9147855
1804 -0.86495751
1802 -0.80449903
1800 -0.7319234
1798 -0.64305377
1796 -0.54305714
1794 -0.45394647
1792 -0.37479281
1790 -0.34753799
1788 -0.35337844
1786 -0.36762679
1784 -0.38281119
1782 -0.35534483
1780 -0.29677841
1778 -0.18609039
1776 -0.041381091
1774 0.13031927
1772 0.28912842
1770 0.36061198
1768 0.35718393
1766 0.27227721
1764 0.168667
1762 0.10399321
1760 0.032813154
1758 -0.075209498
1756 -0.144467
1754 -0.13859278
1752 -0.01877014
1750 0.20913266
1748 0.44056925
1746 0.63952214
1744 0.68202215
1742 0.58203053
1740 0.45097974
1738 0.31921324
1736 0.31016999
1734 0.39662308
1732 0.43983534
1730 0.4395391
1728 0.28542507
1726 0.03919806
1724 -0.12036666
1722 -0.17526099
1720 0.033847257
1718 0.47450852
1716 1.1733118
1714 1.9763371
1712 2.6531765
1710 3.2497613
1708 3.8207519
1706 4.5679669
1704 5.6770725
1702 7.3919086
1700 9.8242044
1698 13.039838
1696 16.948
1694 20.80765
1692 24.300182
1690 27.452219
1688 30.35076
1686 33.890106
1684 38.138691
1682 43.216282
1680 48.935242
1678 53.896442
1676 58.146801
1674 62.101929
1672 65.903229
1670 70.262421
1668 75.031212
1666 79.729149
1664 84.259201
1662 88.28569
1660 91.805153
1658 94.772385
1656 97.213142
1654 99.179344
1652 100.55848
1650 101.24773
1648 100.84675
1646 99.08268
1644 96.474747
1642 93.526405
1640 90.312874
1638 86.918671
1636 82.909729
1634 78.179863
1632 73.344276
1630 68.6269
1628 64.268158
1626 60.275051
1624 56.22736
1622 52.066444
1620 48.007599
1618 44.067211
1616 40.371227
1614 36.93734
1612 33.867878
1610 31.182859
1608 28.906218
1606 27.029621
1604 25.450701
1602 24.177917
1600 23.176149
1598 22.445084
1596 21.9415
1594 21.644325
1592 21.495199
1590 21.465452
1588 21.510544
1586 21.643658
1584 21.867264
1582 22.21315
1580 22.689545
1578 23.337433
1576 24.163515
1574 25.125374
1572 26.202143
1570 27.314051
1568 28.44092
1566 29.585056
1564 30.751688
1562 32.123287
1560 33.795166
1558 36.363762
1556 39.879829
1554 43.69418
1552 47.598183
1550 50.671661
1548 52.971146
1546 55.044071
1544 56.917435
1542 58.720192
1540 60.150921
1538 60.778614
1536 60.477798
1534 59.243145
1532 57.47683
1530 55.661194
1528 53.881252
1526 52.202999
1524 50.493572
1522 48.668865
1520 46.565384
1518 44.088074
1516 41.5853
1514 39.167274
1512 36.905239
1510 34.842369
1508 32.342102
1506 29.2498
1504 26.058081
1502 22.813276
1500 20.064701
1498 17.874891
1496 15.751572
1494 13.687824
1492 11.594209
1490 9.4729681
1488 7.3464112
1486 5.2836537
1484 3.4129982
1482 1.859376
1480 0.75973475
1478 0.14594558
1476 0.040237956
1474 0.48353216
1472 1.3818111
1470 2.3998799
1468 3.3213167
1466 4.0754948
1464 4.5966635
1462 5.0834079
1460 5.6192045
1458 6.194644
1456 6.8176599
1454 7.2662101
1452 7.4288268
1450 7.4157653
1448 7.1599493
1446 6.8783107
1444 6.5666747
1442 6.2790971
1440 6.0200944
1438 5.7567654
1436 5.4573817
1434 5.0299349
1432 4.4667058
1430 3.8497078
1428 3.238992
1426 2.7778041
1424 2.4876075
1422 2.3671129
1420 2.3837852
1418 2.4804442
1416 2.6146228
1414 2.7416139
1412 2.8762076
1410 3.036947
1408 3.2420578
1406 3.5205293
1404 3.8505876
1402 4.2451315
1400 4.6730042
1398 5.1436009
1396 5.5972071
1394 6.0071278
1392 6.3172507
1390 6.4498792
1388 6.4649959
1386 6.2937751
1384 6.0188546
1382 5.6041789
1380 5.1470675
1378 4.6514101
1376 4.1837745
1374 3.7563922
1372 3.3691301
1370 3.0201306
1368 2.6883759
1366 2.3532672
1364 1.9788885
1362 1.5657463
1360 1.1090634
1358 0.67117345
1356 0.32948229
1354 0.091747507
1352 0.01875728
1350 0.029473681
1348 0.1253601
1346 0.25387144
1344 0.4309144
1342 0.63567007
1340 0.88933682
1338 1.1327519
1336 1.3467228
1334 1.5096816
1332 1.5800132
1330 1.6472369
1328 1.7197526
1326 1.8468821
1324 2.0614338
1322 2.3408258
1320 2.7002897
1318 3.0844033
1316 3.4812701
1314 3.8387849
1312 4.143971
1310 4.3834939
1308 4.5547724
1306 4.6534543
1304 4.6915784
1302 4.6670971
1300 4.6128049
1298 4.5483465
1296 4.4912143
1294 4.4621038
1292 4.4476404
1290 4.4546704
1288 4.462224
1286 4.4628558
1284 4.4540482
1282 4.4217391
1280 4.388463
1278 4.3547597
1276 4.336586
1274 4.3504319
1272 4.3828244
1270 4.4460788
1268 4.5165772
1266 4.5975909
1264 4.6849089
1262 4.7827482
1260 4.8972001
1258 5.031229
1256 5.1816912
1254 5.3450394
1252 5.509408
1250 5.6690869
1248 5.8101888
1246 5.93505
1244 6.0348454
1242 6.1164942
1240 6.1683378
1238 6.1921148
1236 6.1507316
1234 6.0634871
1232 5.8663602
1230 5.6237559
1228 5.2698522
1226 4.8924341
1224 4.4559546
1222 4.0116172
1220 3.5493031
1218 3.089535
1216 2.6388457
1214 2.2144363
1212 1.8394934
1210 1.5075523
1208 1.2384772
1206 1.0031959
1204 0.80763996
1202 0.62780219
1200 0.46285236
1198 0.30227694
1196 0.1471003
1194 0.0015588254
1192 -0.13089086
1190 -0.2311767
1188 -0.30375588
1186 -0.32014814
1184 -0.3017908
1182 -0.21626005
1180 -0.095194422
1178 0.10882606
1176 0.34388599
1174 0.65884292
1172 0.97711158
1170 1.2882427
1168 1.5670211
1166 1.74428
1164 1.8801638
1162 1.913401
1160 1.9187165
1158 1.8660251
1156 1.7859014
1154 1.6571385
1152 1.4935474
1150 1.2834044
1148 1.0596275
1146 0.82341105
1144 0.59624618
1142 0.38207299
1140 0.19824316
1138 0.049242467
1136 -0.020124743
1134 -0.030487519
1132 0.062569626
1130 0.20560123
1128 0.40340209
1126 0.61266959
1124 0.80375314
1122 0.97809565
1120 1.0809081
1118 1.167461
1116 1.2030314
1114 1.2394269
1112 1.2834445
1110 1.3384196
1108 1.4281646
1106 1.5254101
1104 1.637436
1102 1.7220969
1100 1.7487342
1098 1.7288566
1096 1.6386714
1094 1.5491412
1092 1.4675801
1090 1.4376022
1088 1.4634788
1086 1.5349993
1084 1.6392289
1082 1.7312796
1080 1.8065954
1078 1.8150051
1076 1.7856158
1074 1.6999516
1072 1.5951337
1070 1.4848049
1068 1.3762237
1066 1.2898486
1064 1.2107841
1062 1.1643947
1060 1.1257235
1058 1.126143
1056 1.1303657
1054 1.1507201
1052 1.16699
1050 1.169451
1048 1.1600959
1046 1.1208714
1044 1.0658989
1042 0.98145205
1040 0.89323097
1038 0.80148315
1036 0.72923297
1034 0.67998767
1032 0.64137244
1030 0.60929829
1028 0.54771459
1026 0.46456778
1024 0.36665776
1022 0.26448929
1020 0.19871137
1018 0.14849076
1016 0.11570825
1014 0.084487401
1012 0.018852986
1010 -0.055859245
1008 -0.1676632
1006 -0.28193465
1004 -0.38883966
1002 -0.48795587
1000 -0.53402162
998 -0.56931812
996 -0.55727434
994 -0.54133981
992 -0.51361489
990 -0.48744124
988 -0.46533194
986 -0.45092028
984 -0.45062238
982 -0.46565211
980 -0.50108939
978 -0.53866524
976 -0.57751602
974 -0.59973311
972 -0.60828549
970 -0.60846835
968 -0.6040011
966 -0.60850751
964 -0.61656785
962 -0.61514115
960 -0.60866219
958 -0.55891579
956 -0.4993487
954 -0.42585167
952 -0.35076642
950 -0.27745906
948 -0.20006317
946 -0.065761387
944 0.0018620901
942 0.057687692
940 0.15941012
938 0.23353061
936 0.31070599
934 0.39662939
932 0.47256809
930 0.52588111
928 0.52215338
926 0.42716557
924 0.316598
922 0.18847647
920 0.12972462
918 0.13568351
916 0.16987285
914 0.22354971
912 0.2505495
910 0.26403069
908 0.31916174
906 0.39066851
904 0.49535978
902 0.60877252
900 0.69089067
898 0.76799721
896 0.82893997
