##TITLE=Methyl Ethyl Ketone
##JCAMP-DX=4.24
##DATA TYPE=INFRARED SPECTRUM
##XUNITS=cm-1
##YUNITS=Absorbance
##FIRSTX=900
##LASTX=2300
##XYDATA=(X++(Y..Y))
2296 0.0030801001
2294 0.0031442083
2292 0.0032082167
2290 0.0032723248
2288 0.0033364331
2286 0.0034005414
2284 0.0034646499
2282 0.003528659
2280 0.0035927664
2278 0.0036567757
2276 0.0037208828
2274 0.0037851878
2272 0.0038490046
2270 0.0039125192
2268 0.0039772042
2266 0.0040435749
2264 0.0041053877
2262 0.0041607572
2260 0.0042333202
2258 0.0043300535
2256 0.0043626199
2254 0.0043049119
2252 0.0044858693
2250 0.0050033219
2248 0.0046339314
2246 0.0024374428
2244 8.7530854e-05
2242 -0.0005007601
2240 0.0006076204
2238 0.0025051238
2236 0.0031632143
2234 0.00231271
2232 0.0080480101
2230 0.025317287
2228 0.036641791
2226 0.021438349
2224 -0.027031999
2222 -0.10454821
2220 -0.17924246
2218 -0.21634001
2216 -0.20209172
2214 -0.13497464
2212 -0.037361018
2210 0.063200921
2208 0.14675127
2206 0.20070007
2204 0.2324803
2202 0.2537995
2200 0.26890993
2198 0.27949899
2196 0.28675714
2194 0.29206261
2192 0.29804984
2190 0.30515486
2188 0.30319905
2186 0.28140092
2184 0.24005519
2182 0.18533616
2180 0.13255745
2178 0.097744256
2176 0.08797323
2174 0.10257384
2172 0.12134714
2170 0.1203637
2168 0.086345658
2166 0.016634136
2164 -0.063109286
2162 -0.12180157
2160 -0.14458999
2158 -0.12818804
2156 -0.093249097
2154 -0.065103829
2152 -0.055516329
2150 -0.065996714
2148 -0.07596916
2146 -0.060787644
2144 -0.0099510849
2142 0.075933091
2140 0.17175286
2138 0.24738902
2136 0.28694999
2134 0.28590536
2132 0.26466942
2130 0.24898301
2128 0.2503992
2126 0.26877922
2124 0.27789995
2122 0.2497125
2120 0.18717772
2118 0.10829592
2116 0.044864886
2114 0.024216341
2112 0.035755433
2110 0.055846646
2108 0.06620878
2106 0.056553181
2104 0.03923256
2102 0.031954426
2100 0.039376218
2098 0.060366131
2096 0.091846861
2094 0.13012025
2092 0.1711816
2090 0.21018292
2088 0.23927577
2086 0.25251451
2084 0.25676906
2082 0.26264477
2080 0.27486798
2078 0.29282635
2076 0.30434871
2074 0.29648393
2072 0.27186039
2070 0.24036545
2068 0.21493137
2066 0.20572664
2064 0.20730132
2062 0.21025194
2060 0.21577846
2058 0.23014639
2056 0.26135799
2054 0.31289175
2052 0.36719197
2050 0.39953041
2048 0.39253616
2046 0.33794248
2044 0.25101781
2042 0.15649199
2040 0.077358201
2038 0.030542197
2036 0.012740171
2034 0.0099984203
2032 0.00029618281
2030 -0.037184376
2028 -0.10522807
2026 -0.19289458
2024 -0.26553863
2022 -0.28469935
2020 -0.23835197
2018 -0.13610666
2016 -0.02639536
2014 0.03318242
2012 0.017611943
2010 -0.073567703
2008 -0.20379116
2006 -0.3256433
2004 -0.41375503
2002 -0.45781451
2000 -0.46395811
1998 -0.44491026
1996 -0.41170356
1994 -0.37436831
1992 -0.3438516
1990 -0.32964036
1988 -0.33271959
1986 -0.34793064
1984 -0.36134222
1982 -0.35753849
1980 -0.33163941
1978 -0.28448236
1976 -0.21834829
1974 -0.13595299
1972 -0.040373467
1970 0.060886659
1968 0.14200535
1966 0.17315193
1964 0.14620253
1962 0.070555918
1960 -0.018269559
1958 -0.080317408
1956 -0.10942921
1954 -0.11868818
1952 -0.12644914
1950 -0.14875668
1948 -0.18580031
1946 -0.23134249
1944 -0.28707373
1942 -0.35745972
1940 -0.43852732
1938 -0.52070701
1936 -0.59094602
1934 -0.63838637
1932 -0.66817564
1930 -0.69116122
1928 -0.70584416
1926 -0.69995862
1924 -0.64617378
1922 -0.5207023
1920 -0.34776396
1918 -0.1764372
1916 -0.048108339
1914 0.012052787
1912 0.021514382
1910 0.014943774
1908 0.0022194488
1906 -0.022029698
1904 -0.061248638
1902 -0.11377186
1900 -0.16624902
1898 -0.20193377
1896 -0.21698143
1894 -0.21740589
1892 -0.21803957
1890 -0.2368573
1888 -0.28671217
1886 -0.37234271
1884 -0.47748166
1882 -0.57639372
1880 -0.65382868
1878 -0.70276415
1876 -0.72075796
1874 -0.70622802
1872 -0.65259153
1870 -0.55791247
1868 -0.45467418
1866 -0.39096722
1864 -0.39203256
1862 -0.45941782
1860 -0.55936885
1858 -0.64558476
1856 -0.70354599
1854 -0.74028498
1852 -0.76391739
1850 -0.78008127
1848 -0.79027718
1846 -0.79318786
1844 -0.78558379
1842 -0.76379764
1840 -0.72639894
1838 -0.6747154
1836 -0.61578918
1834 -0.55722404
1832 -0.49365658
1830 -0.4147661
1828 -0.32653564
1826 -0.24811
1824 -0.20666109
1822 -0.2256048
1820 -0.29398862
1818 -0.3784191
1816 -0.44669485
1814 -0.47519055
1812 -0.46370825
1810 -0.42486545
1808 -0.36128116
1806 -0.27109599
1804 -0.17001922
1802 -0.086157173
1800 -0.046430916
1798 -0.063565902
1796 -0.09635786
1794 -0.077867188
1792 0.01151428
1790 0.14866042
1788 0.28265011
1786 0.35918814
1784 0.37490344
1782 0.36193949
1780 0.34590852
1778 0.3413642
1776 0.35426801
1774 0.38146788
1772 0.40020666
1770 0.37883544
1768 0.30554184
1766 0.19165665
1764 0.082327664
1762 0.029354181
1760 0.013447702
1758 -0.02609681
1756 -0.091567591
1754 -0.13694799
1752 -0.12218302
1750 -0.029651139
1748 0.10579722
1746 0.21637285
1744 0.25323218
1742 0.19989076
1740 0.10107245
1738 0.034545746
1736 0.032180198
1734 0.07689254
1732 0.11234566
1730 0.07185486
1728 -0.048277348
1726 -0.19459686
1724 -0.28668675
1722 -0.235164
1720 0.029771939
1718 0.54153204
1716 1.2429609
1714 2.0153608
1712 2.7694743
1710 3.4760833
1708 4.2312541
1706 5.2216029
1704 6.619844
1702 8.5638199
1700 11.146114
1698 14.367271
1696 17.943714
1694 21.409519
1692 24.49968
1690 27.215826
1688 29.887411
1686 33.049538
1684 37.099731
1682 42.153858
1680 47.704803
1678 52.894596
1676 57.520157
1674 62.003384
1672 66.765808
1670 72.020477
1668 77.480118
1666 82.510048
1664 86.744194
1662 90.133087
1660 92.723679
1658 94.593086
1656 95.812653
1654 96.447823
1652 96.584663
1650 96.319878
1648 95.706329
1646 94.766678
1644 93.581856
1642 92.266449
1640 90.825226
1638 89.146812
1636 87.067413
1634 84.431938
1632 81.253838
1630 77.686661
1628 73.811974
1626 69.616531
1624 65.082397
1622 60.231144
1620 55.200535
1618 50.224518
1616 45.507885
1614 41.196411
1612 37.383827
1610 34.108879
1608 31.331566
1606 28.953215
1604 26.907188
1602 25.174219
1600 23.754892
1598 22.654654
1596 21.861
1594 21.343056
1592 21.069452
1590 21.017263
1588 21.177963
1586 21.5555
1584 22.149965
1582 22.962721
1580 24.036455
1578 25.453197
1576 27.2894
1574 29.585085
1572 32.270176
1570 35.166103
1568 38.085243
1566 40.865742
1564 43.407005
1562 45.711575
1560 48.010399
1558 50.672562
1556 53.64447
1554 56.400192
1552 58.453342
1550 59.536846
1548 59.749798
1546 59.490677
1544 58.907715
1542 57.812618
1540 56.048378
1538 53.622425
1536 50.82003
1534 48.146942
1532 45.863995
1530 43.896744
1528 42.101357
1526 40.336601
1524 38.478081
1522 36.432465
1520 34.179897
1518 31.792164
1516 29.414671
1514 27.223721
1512 25.227081
1510 23.231157
1508 21.042589
1506 18.559822
1504 15.905577
1502 13.415324
1500 11.296286
1498 9.5386639
1496 8.0432434
1494 6.6736584
1492 5.3631678
1490 4.1361341
1488 3.0120039
1486 1.9865036
1484 1.082637
1482 0.36295855
1480 -0.107383
1478 -0.26418689
1476 -0.010217577
1474 0.76387435
1472 2.0130811
1470 3.501951
1468 5.0113096
1466 6.4117284
1464 7.6786995
1462 8.8943968
1460 10.138239
1458 11.4369
1456 12.7006
1454 13.716473
1452 14.32722
1450 14.495616
1448 14.276132
1446 13.801929
1444 13.184438
1442 12.47906
1440 11.712754
1438 10.890057
1436 9.9970732
1434 9.0119534
1432 7.9613185
1430 6.9374485
1428 6.0376062
1426 5.3390126
1424 4.881176
1422 4.653996
1420 4.6215639
1418 4.7274618
1416 4.9138546
1414 5.1326017
1412 5.3687859
1410 5.6491466
1408 5.9970012
1406 6.4133234
1404 6.869988
1402 7.3046498
1400 7.6534319
1398 7.864614
1396 7.9078646
1394 7.7838531
1392 7.5171428
1390 7.1558218
1388 6.7445455
1386 6.3136749
1384 5.8836527
1382 5.4639935
1380 5.0591736
1378 4.6679468
1376 4.2774372
1374 3.8614349
1372 3.4028141
1370 2.9039643
1368 2.3784995
1366 1.8487529
1364 1.3302507
1362 0.82811916
1360 0.36316806
1358 -0.016480982
1356 -0.26078701
1354 -0.32822829
1352 -0.19041829
1350 0.15860814
1348 0.69288743
1346 1.3455894
1344 2.0529439
1342 2.7692919
1340 3.4443529
1338 4.0144224
1336 4.4151516
1334 4.5926518
1332 4.5333424
1330 4.285975
1328 3.915273
1326 3.4881394
1324 3.0657344
1322 2.6963673
1320 2.4102571
1318 2.209512
1316 2.0757301
1314 1.967669
1312 1.8487132
1310 1.7003978
1308 1.5197023
1306 1.3235536
1304 1.1347948
1302 0.97918713
1300 0.88279217
1298 0.8706972
1296 0.96389288
1294 1.1755837
1292 1.509704
1290 1.9553704
1288 2.4864001
1286 3.0560594
1284 3.6132793
1282 4.1097054
1280 4.5124516
1278 4.8164759
1276 5.0333171
1274 5.1929932
1272 5.3282423
1270 5.468956
1268 5.6383643
1266 5.8497071
1264 6.1168303
1262 6.4595685
1260 6.8991399
1258 7.4556179
1256 8.1372204
1254 8.9298925
1252 9.8097534
1250 10.745249
1248 11.710903
1246 12.6945
1244 13.688571
1242 14.683682
1240 15.646651
1238 16.499886
1236 17.148672
1234 17.486589
1232 17.436361
1230 16.980686
1228 16.145649
1226 15.013392
1224 13.681674
1222 12.251822
1220 10.824753
1218 9.49965
1216 8.3579683
1214 7.4502096
1212 6.8090749
1210 6.4438496
1208 6.3409238
1206 6.4477201
1204 6.6794319
1202 6.9053688
1200 6.9995341
1198 6.8732805
1196 6.483707
1194 5.8676095
1192 5.0964355
1190 4.2746301
1188 3.5005851
1186 2.840867
1184 2.3314903
1182 1.9583302
1180 1.6928852
1178 1.5022051
1176 1.36022
1174 1.2583035
1172 1.192886
1170 1.1626107
1168 1.1666228
1166 1.2033643
1164 1.2671677
1162 1.3420949
1160 1.4049703
1158 1.4218839
1156 1.3635057
1154 1.2181257
1152 0.98956996
1150 0.70895123
1148 0.41749039
1146 0.16395234
1144 -0.0068166107
1142 -0.066797063
1140 -0.020586416
1138 0.063150473
1136 0.12603915
1134 0.1695016
1132 0.20461462
1130 0.23218895
1128 0.25625846
1126 0.29387859
1124 0.35909796
1122 0.45016652
1120 0.55216604
1118 0.62874401
1116 0.65107715
1114 0.62300146
1112 0.56988478
1110 0.54872805
1108 0.60339391
1106 0.72516048
1104 0.88506991
1102 1.037413
1100 1.1558638
1098 1.2732264
1096 1.4307142
1094 1.6545396
1092 1.95464
1090 2.3099055
1088 2.6989515
1086 3.1174514
1084 3.5528584
1082 3.9607623
1080 4.2892904
1078 4.4907541
1076 4.5406713
1074 4.4742808
1072 4.3385305
1070 4.1718698
1068 4.0070772
1066 3.8652129
1064 3.7625039
1062 3.7074823
1060 3.696399
1058 3.6957593
1056 3.6741199
1054 3.6251194
1052 3.5523624
1050 3.469702
1048 3.3875954
1046 3.3014071
1044 3.2124846
1042 3.1493278
1040 3.1460526
1038 3.230834
1036 3.4157801
1034 3.6699605
1032 3.9455764
1030 4.1781383
1028 4.3042326
1026 4.2784519
1024 4.0768228
1022 3.726959
1020 3.2813838
1018 2.8283708
1016 2.4463401
1014 2.1558399
1012 1.9461732
1010 1.7548379
1008 1.527364
1006 1.273535
1004 1.0231252
1002 0.81813663
1000 0.68595994
998 0.59874082
996 0.51408786
994 0.3873525
992 0.1870624
990 -0.073679149
988 -0.35643202
986 -0.57750612
984 -0.65974253
982 -0.5844692
980 -0.36664155
978 -0.083538577
976 0.18714115
974 0.41749415
972 0.59880018
970 0.74517578
968 0.86921978
966 0.95962602
964 1.0018983
962 0.99103546
960 0.92512852
958 0.80542612
956 0.63820344
954 0.44465825
952 0.25258559
950 0.099620216
948 0.015485301
946 -0.006625507
944 0.020126216
942 0.092086807
940 0.20672518
938 0.3570478
936 0.53455651
934 0.72921407
932 0.92706674
930 1.1012672
928 1.2260177
926 1.2910714
924 1.29852
922 1.2796493
920 1.2663434
918 1.263144
916 1.2658458
914 1.2618248
912 1.2403011
910 1.205435
908 1.1692091
906 1.1589535
904 1.1945155
902 1.2495719
900 1.2895023
898 1.290215
896 1.2308
