##TITLE=Methyl Ethyl Ketone
##JCAMP-DX=4.24
##DATA TYPE=INFRARED SPECTRUM
##XUNITS=cm-1
##YUNITS=Absorbance
##FIRSTX=900
##LASTX=2300
##XYDATA=(X++(Y..Y))
2296 0.025226001
2294 0.02575125
2292 0.026275501
2290 0.026800746
2288 0.027324999
2286 0.027850242
2284 0.02837549
2282 0.02889975
2280 0.02942499
2278 0.02994925
2276 0.030474486
2274 0.03099875
2272 0.03152398
2270 0.032051194
2268 0.03257354
2266 0.033088945
2264 0.033622772
2262 0.034183349
2260 0.034673426
2258 0.035066385
2256 0.035718143
2254 0.03673416
2252 0.036787279
2250 0.03548526
2248 0.037756782
2246 0.045603432
2244 0.043291286
2242 0.018486133
2240 -0.0074476236
2238 -0.0078678541
2236 0.026642937
2234 0.097316682
2232 0.19251314
2230 0.29659837
2228 0.39257219
2226 0.46642751
2224 0.51784009
2222 0.55214036
2220 0.58141136
2218 0.61747533
2216 0.66314542
2214 0.71614701
2212 0.764494
2210 0.79440147
2208 0.7963106
2206 0.76652688
2204 0.71983987
2202 0.67721218
2200 0.6619634
2198 0.69184226
2196 0.75938284
2194 0.84753692
2192 0.93229288
2190 0.99317682
2188 1.0324879
2186 1.0594492
2184 1.0810961
2182 1.0999774
2180 1.1020503
2178 1.0716983
2176 1.0081
2174 0.92081797
2172 0.84115475
2170 0.80324817
2168 0.82358575
2166 0.90576857
2164 1.0253972
2162 1.1513017
2160 1.2628949
2158 1.3473368
2156 1.40742
2154 1.4516588
2152 1.4890149
2150 1.5271059
2148 1.5655299
2146 1.6005821
2144 1.6267641
2142 1.640358
2140 1.6482754
2138 1.6601893
2136 1.6806428
2134 1.7104244
2132 1.7429577
2130 1.7708629
2128 1.79214
2126 1.8090086
2124 1.8297708
2122 1.8623495
2120 1.9024458
2118 1.9407686
2116 1.9653814
2114 1.9667341
2112 1.9481732
2110 1.9170445
2108 1.876946
2106 1.8313835
2104 1.7892914
2102 1.7616336
2100 1.7582719
2098 1.7849157
2096 1.8313857
2094 1.8822126
2092 1.9270178
2090 1.9588151
2088 1.976312
2086 1.979705
2084 1.9660683
2082 1.9330182
2080 1.8853834
2078 1.831602
2076 1.78239
2074 1.7475377
2072 1.7292119
2070 1.7260292
2068 1.7348574
2066 1.7528129
2064 1.7821966
2062 1.8257947
2060 1.8800601
2058 1.9360631
2056 1.9741029
2054 1.9749544
2052 1.9395503
2050 1.8802875
2048 1.8203223
2046 1.7828571
2044 1.7739661
2042 1.7908175
2040 1.8258332
2038 1.8690993
2036 1.9098715
2034 1.9377027
2032 1.9450778
2030 1.927232
2028 1.8874846
2026 1.8330929
2024 1.7742405
2022 1.7224857
2020 1.6894171
2018 1.685383
2016 1.7148401
2014 1.7762431
2012 1.8538308
2010 1.9264365
2008 1.9760075
2006 1.990333
2004 1.9746052
2002 1.9414229
2000 1.9002068
1998 1.8571955
1996 1.8115429
1994 1.7616799
1992 1.7156279
1990 1.6855829
1988 1.679588
1986 1.700755
1984 1.7399063
1982 1.7837641
1980 1.8260652
1978 1.8648685
1976 1.8996514
1974 1.929499
1972 1.9496268
1970 1.9553111
1968 1.9499806
1966 1.9413978
1964 1.9373928
1962 1.9427391
1960 1.950756
1958 1.9502726
1956 1.9353414
1954 1.9053324
1952 1.8691914
1950 1.838493
1948 1.8146431
1946 1.793725
1944 1.7705594
1942 1.741488
1940 1.7081965
1938 1.6752363
1936 1.6456542
1934 1.6203574
1932 1.596414
1930 1.5677475
1928 1.5250068
1926 1.4604378
1924 1.381562
1922 1.3048358
1920 1.2491063
1918 1.228919
1916 1.2373015
1914 1.2571063
1912 1.2795463
1910 1.3039795
1908 1.3405371
1906 1.4001635
1904 1.472944
1902 1.5376892
1900 1.5756688
1898 1.5750251
1896 1.5432143
1894 1.4971126
1892 1.4481689
1890 1.403754
1888 1.3712766
1886 1.3566357
1884 1.3576697
1882 1.3663133
1880 1.3685971
1878 1.3476079
1876 1.2870699
1874 1.1749938
1872 1.015427
1870 0.82809579
1868 0.66056538
1866 0.56789362
1864 0.56910241
1862 0.65371621
1860 0.78299797
1858 0.90802187
1856 1.0000137
1854 1.0436441
1852 1.0223591
1850 0.92211533
1848 0.7497012
1846 0.53251642
1844 0.33142859
1842 0.21562092
1840 0.20477207
1838 0.27815616
1836 0.38195229
1834 0.45402721
1832 0.47224337
1830 0.44745898
1828 0.416217
1826 0.42221788
1824 0.4810535
1822 0.58389109
1820 0.70011359
1818 0.79003799
1816 0.82681513
1814 0.7997092
1812 0.72678518
1810 0.64374
1808 0.58549929
1806 0.5743835
1804 0.58750927
1802 0.57449168
1800 0.49552435
1798 0.33313715
1796 0.12293928
1794 -0.065162413
1792 -0.1626212
1790 -0.12136084
1788 0.036941305
1786 0.24306306
1784 0.42597577
1782 0.52743626
1780 0.52618331
1778 0.42942649
1776 0.25965714
1774 0.05216635
1772 -0.13344154
1770 -0.2324373
1768 -0.23060881
1766 -0.15588471
1764 -0.055482883
1762 0.016431835
1760 0.014066555
1758 -0.0914151
1756 -0.28381556
1754 -0.52187335
1752 -0.79466146
1750 -1.1090473
1748 -1.4319041
1746 -1.7028036
1744 -1.8876091
1742 -1.9824572
1740 -2.0109627
1738 -2.0036352
1736 -1.94432
1734 -1.7859147
1732 -1.5118351
1730 -1.1431561
1728 -0.74316227
1726 -0.39578694
1724 -0.15102628
1722 -0.019183232
1720 0.03440278
1718 0.083907485
1716 0.24696386
1714 0.64056748
1712 1.2414439
1710 1.925465
1708 2.6307139
1706 3.3794451
1704 4.2776251
1702 5.5160475
1700 7.4213295
1698 10.316401
1696 14.034286
1694 18.008751
1692 21.71596
1690 24.82794
1688 27.477823
1686 30.158691
1684 33.369701
1682 37.425148
1680 42.01408
1678 46.411594
1676 50.334259
1674 53.985348
1672 57.74416
1670 61.974834
1668 66.612495
1666 71.238152
1664 75.520561
1662 79.291939
1660 82.509499
1658 85.221718
1656 87.515114
1654 89.493515
1652 91.253738
1650 92.853165
1648 94.198051
1646 95.087715
1644 95.434288
1642 95.265327
1640 94.583244
1638 93.345116
1636 91.50074
1634 89.024017
1632 85.998856
1630 82.587448
1628 78.848671
1626 74.738731
1624 70.268318
1622 65.534111
1620 60.718094
1618 56.054111
1616 51.707371
1614 47.761402
1612 44.256397
1610 41.197029
1608 38.541759
1606 36.214878
1604 34.171085
1602 32.401989
1600 30.902588
1598 29.662407
1596 28.6605
1594 27.868494
1592 27.263474
1590 26.828516
1588 26.545212
1586 26.392658
1584 26.345016
1582 26.37879
1580 26.506853
1578 26.781294
1576 27.272085
1574 28.04726
1572 29.11574
1570 30.419371
1568 31.863241
1566 33.333801
1564 34.728554
1562 36.003468
1560 37.343418
1558 39.11784
1556 41.473515
1554 44.232059
1552 46.968483
1550 49.136757
1548 50.557644
1546 51.46582
1544 52.046787
1542 52.335831
1540 52.35556
1538 52.150467
1536 51.763401
1534 51.226105
1532 50.550468
1530 49.724182
1528 48.721912
1526 47.512249
1524 46.075089
1522 44.416424
1520 42.599174
1518 40.739517
1516 38.926373
1514 37.17786
1512 35.369881
1510 33.252708
1508 30.683449
1506 27.710093
1504 24.572372
1502 21.649912
1500 19.130693
1498 16.92804
1496 14.896286
1494 12.904724
1492 10.904763
1490 8.9438925
1488 7.0865183
1486 5.3902879
1484 3.9113379
1482 2.6947234
1480 1.7290062
1478 0.95282161
1476 0.39163056
1474 0.17773387
1472 0.37568104
1470 0.92603612
1468 1.7024803
1466 2.5367591
1464 3.3059545
1462 3.9628942
1460 4.5024476
1458 4.9581447
1456 5.3954802
1454 5.8942022
1452 6.4467015
1450 6.933548
1448 7.255847
1446 7.3790607
1444 7.3083692
1442 7.0794811
1440 6.7132325
1438 6.2032852
1436 5.5487099
1434 4.7710543
1432 3.9349928
1430 3.1497889
1428 2.492204
1426 1.9783694
1424 1.5989451
1422 1.3315411
1420 1.1737818
1418 1.1531829
1416 1.29492
1414 1.6068079
1412 2.066185
1410 2.6147263
1408 3.1972497
1406 3.774473
1404 4.3108311
1402 4.7724133
1400 5.1330199
1398 5.3814082
1396 5.5324783
1394 5.6311154
1392 5.7096395
1390 5.7702317
1388 5.7985244
1386 5.7677302
1384 5.6617808
1382 5.4831624
1380 5.2290559
1378 4.8851557
1376 4.4485512
1374 3.9396605
1372 3.3987219
1370 2.881681
1368 2.4098966
1366 1.9489408
1364 1.467958
1362 0.9665187
1360 0.48534662
1358 0.11166908
1356 -0.097750671
1354 -0.15211746
1352 -0.085411772
1350 0.054917783
1348 0.2325751
1346 0.43244857
1344 0.63598001
1342 0.81440014
1340 0.95405173
1338 1.0687551
1336 1.1749829
1334 1.2810444
1332 1.3784177
1330 1.436632
1328 1.4378852
1326 1.3940436
1324 1.3295705
1322 1.2768018
1320 1.2589377
1318 1.280048
1316 1.3355
1314 1.4132459
1312 1.4999623
1310 1.5829898
1308 1.6518445
1306 1.7000835
1304 1.7266965
1302 1.738814
1300 1.7466166
1298 1.7620242
1296 1.7963715
1294 1.8595446
1292 1.9607483
1290 2.1078985
1288 2.3047481
1286 2.5470765
1284 2.822922
1282 3.1098995
1280 3.3852639
1278 3.6310191
1276 3.8391786
1274 4.018393
1272 4.1859093
1270 4.3670645
1268 4.583941
1266 4.8487334
1264 5.1670666
1262 5.536623
1260 5.957068
1258 6.4341364
1256 6.9730654
1254 7.5744748
1252 8.2327728
1250 8.9324865
1248 9.6558208
1246 10.385
1244 11.103741
1242 11.801822
1240 12.463818
1238 13.070846
1236 13.593643
1234 13.988668
1232 14.213719
1230 14.240554
1228 14.058506
1226 13.688849
1224 13.162103
1222 12.514576
1220 11.784337
1218 11.01045
1216 10.23288
1214 9.4907808
1212 8.8165655
1210 8.2317286
1208 7.7418618
1206 7.3255672
1204 6.9471121
1202 6.5560865
1200 6.109026
1198 5.5859089
1196 4.9860072
1194 4.3376861
1192 3.6769943
1190 3.0408609
1188 2.4607253
1186 1.9545779
1184 1.533368
1182 1.1995398
1180 0.95095611
1178 0.77971005
1176 0.67440403
1174 0.61904156
1172 0.59667492
1170 0.59097636
1168 0.58829838
1166 0.58096439
1164 0.56533748
1162 0.54353839
1160 0.51876014
1158 0.49321228
1156 0.46654129
1154 0.43323386
1152 0.38733947
1150 0.32515615
1148 0.24726
1146 0.16299573
1144 0.084708914
1142 0.026427163
1140 -0.00077205937
1138 0.0063443761
1136 0.049640201
1134 0.1322827
1132 0.25883371
1130 0.43595451
1128 0.66665488
1126 0.94352651
1124 1.2523839
1122 1.5692394
1120 1.8729401
1118 2.1551456
1116 2.4137073
1114 2.6540077
1112 2.8840468
1110 3.114073
1108 3.3530328
1106 3.6050348
1104 3.8665195
1102 4.1184049
1100 4.3464642
1098 4.5585308
1096 4.7752428
1094 5.0348096
1092 5.3683701
1090 5.7774715
1088 6.2474957
1086 6.7407417
1084 7.2150145
1082 7.6310382
1080 7.9579744
1078 8.1857729
1076 8.3185539
1074 8.3849106
1072 8.4177942
1070 8.4456835
1068 8.4868441
1066 8.5354033
1064 8.5764084
1062 8.5864992
1060 8.5484333
1058 8.4672556
1056 8.354311
1054 8.2240353
1052 8.0824356
1050 7.9119573
1048 7.696301
1046 7.4393783
1044 7.1576285
1042 6.8873906
1040 6.6588511
1038 6.4699554
1036 6.3061399
1034 6.1402302
1032 5.9478664
1030 5.7221246
1028 5.4616289
1026 5.1691713
1024 4.8497696
1022 4.5109177
1020 4.1614137
1018 3.810401
1016 3.4666772
1014 3.1371691
1012 2.8270962
1010 2.5396178
1008 2.2733159
1006 2.0163207
1004 1.7588285
1002 1.505003
1000 1.2623891
998 1.0379082
996 0.83265859
994 0.62945688
992 0.41418558
990 0.19646715
988 -0.0057621598
986 -0.16707373
984 -0.26760113
982 -0.31153366
980 -0.30791
978 -0.26230967
976 -0.18038675
974 -0.070917144
972 0.053238034
970 0.16846143
968 0.25492659
966 0.3145
964 0.35601103
962 0.39335582
960 0.43721378
958 0.48286113
956 0.52110112
954 0.54030442
952 0.52681035
950 0.46242756
948 0.3419992
946 0.20959358
944 0.1031576
942 -0.0043525845
940 -0.13588628
938 -0.24223471
936 -0.27629915
934 -0.26333597
932 -0.23748878
930 -0.19933753
928 -0.14338011
926 -0.072472595
924 0.0044086091
922 0.063256785
920 0.083140768
918 0.068897583
916 0.035520658
914 0.01210507
912 0.023064509
910 0.061214939
908 0.10888551
906 0.13837086
904 0.12856281
902 0.094092458
900 0.057194002
898 0.03487137
896 0.042817999
