##TITLE=Methyl Ethyl Ketone
##JCAMP-DX=4.24
##DATA TYPE=INFRARED SPECTRUM
##XUNITS=cm-1
##YUNITS=Absorbance
##FIRSTX=900
##LASTX=2300
##XYDATA=(X++(Y..Y))
2296 -0.0014036
2294 -0.0014327583
2292 -0.0014620163
2290 -0.0014911748
2288 -0.0015204326
2286 -0.0015495914
2284 -0.0015787497
2282 -0.001608007
2280 -0.0016371662
2278 -0.0016664233
2276 -0.0016955829
2274 -0.0017248396
2272 -0.0017539994
2270 -0.0017831577
2268 -0.0018124139
2266 -0.0018415743
2264 -0.0018708303
2262 -0.001899991
2260 -0.0019291491
2258 -0.0019584047
2256 -0.0019875658
2254 -0.0020168212
2252 -0.0020459823
2250 -0.0020751406
2248 -0.0021043953
2246 -0.0021335571
2244 0.030655116
2242 0.0012312001
2240 -0.03309888
2238 -0.10947854
2236 -0.19206715
2234 -0.24125536
2232 -0.28527269
2230 -0.26768926
2228 -0.24506548
2226 -0.2059125
2224 -0.16850932
2222 -0.1430535
2220 -0.12192728
2218 -0.11208369
2216 -0.08715754
2214 -0.027866755
2212 0.067282245
2210 0.21764159
2208 0.33082297
2206 0.39340821
2204 0.3328951
2202 0.15685488
2200 -0.032159645
2198 -0.22521771
2196 -0.28346217
2194 -0.26381415
2192 -0.17623258
2190 -0.061144795
2188 -0.012174644
2186 0.01471865
2184 -0.045042798
2182 -0.12441044
2180 -0.19890277
2178 -0.27171317
2176 -0.27955055
2174 -0.27851415
2172 -0.2445313
2170 -0.2033294
2168 -0.13868754
2166 -0.075761974
2164 -0.027456414
2162 -0.001480625
2160 -0.028958114
2158 -0.085163094
2156 -0.1855229
2154 -0.28984085
2152 -0.39327532
2150 -0.4402681
2148 -0.42380622
2146 -0.36355644
2144 -0.27048126
2142 -0.21395031
2140 -0.18521935
2138 -0.14507
2136 -0.097133711
2134 0.018272705
2132 0.16182907
2130 0.2324639
2128 0.27903119
2126 0.18848635
2124 0.066456392
2122 -0.039956618
2120 -0.14032818
2118 -0.17876276
2116 -0.20619801
2114 -0.2173112
2112 -0.2200308
2110 -0.19596398
2108 -0.16198328
2106 -0.10994443
2104 -0.060627777
2102 -0.023233505
2100 0.0026645563
2098 0.012192406
2096 0.029093143
2094 0.058749199
2092 0.09718141
2090 0.14277989
2088 0.14912212
2086 0.122272
2084 0.07447651
2082 0.015905686
2080 0.022016237
2078 0.062840223
2076 0.14681208
2074 0.24696048
2072 0.29646122
2070 0.32902375
2068 0.32218257
2066 0.3060222
2064 0.29495713
2062 0.28258112
2060 0.24674883
2058 0.20459519
2056 0.15317228
2054 0.11719748
2052 0.14298366
2050 0.19210193
2048 0.26950651
2046 0.31572178
2044 0.2902948
2042 0.23542181
2040 0.15735035
2038 0.1218653
2036 0.14340672
2034 0.17917746
2032 0.21845657
2030 0.2038203
2028 0.14601435
2026 0.075746782
2024 0.0018823082
2022 0.010485804
2020 0.06217014
2018 0.1696358
2016 0.29840401
2014 0.34892455
2012 0.37264293
2010 0.32323423
2008 0.2556904
2006 0.19898157
2004 0.14173886
2002 0.059840631
2000 -0.03556348
1998 -0.1636467
1996 -0.28124428
1994 -0.3431612
1992 -0.36067399
1990 -0.30810627
1988 -0.23982559
1986 -0.17223857
1984 -0.13041194
1982 -0.12426143
1980 -0.14948714
1978 -0.20162073
1976 -0.25814342
1974 -0.3137227
1972 -0.36594075
1970 -0.4160237
1968 -0.48930597
1966 -0.5775007
1964 -0.64092869
1962 -0.68958157
1960 -0.6362592
1958 -0.53894293
1956 -0.42351714
1954 -0.30605233
1952 -0.30352533
1950 -0.34139907
1948 -0.41828781
1946 -0.49369001
1944 -0.49408805
1942 -0.46973339
1940 -0.43575671
1938 -0.42013243
1936 -0.45907515
1934 -0.51362371
1932 -0.568501
1930 -0.61424404
1928 -0.64700991
1926 -0.68782246
1924 -0.74495667
1922 -0.80894375
1920 -0.87474984
1918 -0.90317607
1916 -0.8956641
1914 -0.83409387
1912 -0.73754388
1910 -0.62959552
1908 -0.51915681
1906 -0.44903278
1904 -0.40092322
1902 -0.39882952
1900 -0.41650945
1898 -0.41631901
1896 -0.40526572
1894 -0.35209799
1892 -0.28706944
1890 -0.25022641
1888 -0.23404503
1886 -0.25726828
1884 -0.28880161
1882 -0.3002387
1880 -0.29902813
1878 -0.28667194
1876 -0.28619701
1874 -0.31782612
1872 -0.36499035
1870 -0.4213576
1868 -0.46830979
1866 -0.49630523
1864 -0.51073724
1862 -0.51334268
1860 -0.48783338
1858 -0.44111338
1856 -0.39368972
1854 -0.3509253
1852 -0.39375284
1850 -0.49468717
1848 -0.7058568
1846 -0.97803432
1844 -1.1614842
1842 -1.2889074
1840 -1.1609051
1838 -0.90472835
1836 -0.584701
1834 -0.2463116
1832 0.024942569
1830 0.22825809
1828 0.29822466
1826 0.27661258
1824 0.17020321
1822 0.058237329
1820 0.0081193019
1818 -0.0013994446
1816 0.013846257
1814 0.0017130356
1812 -0.06461633
1810 -0.14185457
1808 -0.20925155
1806 -0.2230325
1804 -0.18312311
1802 -0.17788532
1800 -0.218888
1798 -0.30029625
1796 -0.40639001
1794 -0.38882589
1792 -0.27842522
1790 -0.11385074
1788 0.079921059
1786 0.21091472
1784 0.30431473
1782 0.36878324
1780 0.40989861
1778 0.39625758
1776 0.35632828
1774 0.32804775
1772 0.32916465
1770 0.41247249
1768 0.49078625
1766 0.46409345
1764 0.35695881
1762 0.18042138
1760 0.060487151
1758 -0.14411899
1756 -0.35385716
1754 -0.45106956
1752 -0.53217202
1750 -0.64399737
1748 -0.80398536
1746 -1.0040035
1744 -1.1825845
1742 -1.327062
1740 -1.419202
1738 -1.4739699
1736 -1.459
1734 -1.3973922
1732 -1.2182134
1730 -0.95999169
1728 -0.72517961
1726 -0.51124626
1724 -0.36059967
1722 -0.22476831
1720 0.073517099
1718 0.5836311
1716 1.369259
1714 2.2294436
1712 2.9223526
1710 3.4746287
1708 3.901716
1706 4.4223771
1704 5.2312598
1702 6.6022391
1700 8.6765327
1698 11.753982
1696 15.858999
1694 20.203209
1692 24.389866
1690 28.05681
1688 31.188274
1686 34.618793
1684 38.483162
1682 43.034672
1680 48.149521
1678 52.690067
1676 56.688202
1674 60.680195
1672 64.741005
1670 69.42585
1668 74.539665
1666 79.404251
1664 83.998192
1662 88.182068
1660 91.994881
1658 95.485878
1656 98.583542
1654 101.17437
1652 103.05621
1650 104.03467
1648 103.92622
1646 102.68179
1644 100.70274
1642 98.387962
1640 95.756058
1638 92.851295
1636 89.392433
1634 85.337662
1632 81.095879
1630 76.835297
1628 72.628914
1626 68.4832
1624 64.045601
1622 59.300709
1620 54.614456
1618 50.029636
1616 45.829857
1614 42.039478
1612 38.775726
1610 36.027672
1608 33.646526
1606 31.592587
1604 29.688219
1602 27.98004
1600 26.538885
1598 25.399546
1596 24.567501
1594 24.006178
1592 23.630291
1590 23.404745
1588 23.276468
1586 23.255207
1584 23.335463
1582 23.520969
1580 23.801947
1578 24.253286
1576 24.898573
1574 25.769342
1572 26.868872
1570 28.091671
1568 29.41324
1566 30.743107
1564 32.067646
1562 33.388039
1560 34.752434
1558 36.660866
1556 39.167515
1554 42.051682
1552 45.152348
1550 47.634136
1548 49.462265
1546 50.829998
1544 51.71714
1542 52.250122
1540 52.344959
1538 51.991852
1536 51.232513
1534 50.190609
1532 48.995678
1530 47.778629
1528 46.490509
1526 45.0952
1524 43.485947
1522 41.600891
1520 39.604198
1518 37.575768
1516 35.728573
1514 34.148849
1512 32.479759
1510 30.62324
1508 28.183384
1506 25.011993
1504 21.907194
1502 18.969088
1500 16.616394
1498 14.926189
1496 13.331857
1494 11.819471
1492 10.256833
1490 8.6234064
1488 6.9143739
1486 5.1917644
1484 3.602036
1482 2.2518663
1480 1.2505903
1478 0.58849341
1476 0.20369764
1474 0.13571638
1472 0.44324595
1470 0.97323322
1468 1.5926358
1466 2.1818957
1464 2.6512811
1462 3.0589643
1460 3.4138548
1458 3.814621
1456 4.3085599
1454 4.8348298
1452 5.396791
1450 5.795929
1448 5.9454851
1446 5.9605212
1444 5.7884293
1442 5.5606241
1440 5.2495942
1438 4.8678174
1436 4.3956456
1434 3.8802376
1432 3.3509166
1430 2.9152784
1428 2.596396
1426 2.3812079
1424 2.2782011
1422 2.2712095
1420 2.3918397
1418 2.6852958
1416 3.09148
1414 3.5582528
1412 3.9949558
1410 4.3075442
1408 4.5560255
1406 4.7515898
1404 4.9445229
1402 5.1602745
1400 5.3585358
1398 5.5204959
1396 5.6574855
1394 5.7563438
1392 5.8481002
1390 5.9251366
1388 5.9219995
1386 5.7879701
1384 5.5492663
1382 5.1722393
1380 4.7666855
1378 4.3307571
1376 3.9044571
1374 3.4951892
1372 3.124038
1370 2.7948382
1368 2.4967554
1366 2.1993799
1364 1.8356154
1362 1.4180129
1360 0.96293819
1358 0.54185379
1356 0.24947259
1354 0.063231371
1352 0.010776434
1350 0.019103996
1348 0.087373763
1346 0.18538108
1344 0.3056168
1342 0.43707713
1340 0.58641863
1338 0.73676515
1336 0.88920629
1334 1.0314275
1332 1.1637906
1330 1.292454
1328 1.420584
1326 1.5701278
1324 1.7515569
1322 1.9673671
1320 2.2208216
1318 2.4835474
1316 2.74401
1314 2.9695933
1312 3.1542177
1310 3.2890909
1308 3.3893268
1306 3.4761577
1304 3.5591743
1302 3.650589
1300 3.7324634
1298 3.7796786
1296 3.7945857
1294 3.7539771
1292 3.7101107
1290 3.6928163
1288 3.7065599
1286 3.792583
1284 3.8824658
1282 3.970732
1280 4.0501666
1278 4.1118722
1276 4.1837115
1274 4.2750521
1272 4.3799253
1270 4.5111976
1268 4.6759267
1266 4.8955579
1264 5.1610885
1262 5.4797587
1260 5.8032103
1258 6.1316805
1256 6.4619741
1254 6.8069153
1252 7.1999154
1250 7.633657
1248 8.1052008
1246 8.5946999
1244 9.0833521
1242 9.5549173
1240 9.972023
1238 10.336827
1236 10.578428
1234 10.759485
1232 10.81556
1230 10.816554
1228 10.677192
1226 10.471251
1224 10.081786
1222 9.6371031
1220 9.0631409
1218 8.4778061
1216 7.875514
1214 7.3023458
1212 6.7830582
1210 6.3082504
1208 5.8962483
1206 5.5069342
1204 5.1372399
1202 4.7439365
1200 4.3247781
1198 3.8834028
1196 3.4343286
1194 3.0210407
1192 2.6402388
1190 2.3106041
1188 2.0006695
1186 1.6792336
1184 1.352888
1182 1.0220609
1180 0.72934496
1178 0.59465432
1176 0.53035998
1174 0.66329807
1172 0.80460995
1170 0.93306482
1168 1.027912
1166 1.0225514
1164 1.0194212
1162 1.024848
1160 1.0551085
1158 1.1308075
1156 1.1917014
1154 1.2184378
1152 1.1778051
1150 1.0405785
1148 0.83875722
1146 0.57460213
1144 0.33238864
1142 0.12757558
1140 0.026886083
1138 0.012769647
1136 0.096078455
1134 0.24397559
1132 0.48995259
1130 0.78335488
1128 1.1284075
1126 1.4819422
1124 1.8057351
1122 2.1146715
1120 2.37342
1118 2.6199768
1116 2.8254228
1114 3.0113015
1112 3.1162858
1110 3.1867902
1108 3.1501577
1106 3.1137152
1104 3.0841954
1102 3.1086755
1100 3.2379436
1098 3.3817227
1096 3.5456858
1094 3.6977172
1092 3.8429821
1090 4.0423784
1088 4.2951727
1086 4.5583329
1084 4.818253
1082 4.9996758
1080 5.1367145
1078 5.2873974
1076 5.4534073
1074 5.6857195
1072 5.9245462
1070 6.0557981
1068 6.1337614
1066 5.9963279
1064 5.8183279
1062 5.5451913
1060 5.2775316
1058 5.0756392
1056 4.8862944
1054 4.7501183
1052 4.5934515
1050 4.3710971
1048 4.1422324
1046 3.9030893
1044 3.7193103
1042 3.6402833
1040 3.5926325
1038 3.587815
1036 3.56054
1034 3.5043089
1032 3.4106824
1030 3.2766933
1028 3.0678575
1026 2.8007977
1024 2.4603393
1022 2.082006
1020 1.7060503
1018 1.336781
1016 1.0275301
1014 0.74091339
1012 0.52715272
1010 0.33277747
1008 0.21891201
1006 0.11805269
1004 0.091479518
1002 0.066387609
1000 0.045922276
998 -0.0036597103
996 -0.18352072
994 -0.41243729
992 -0.79113257
990 -1.1511581
988 -1.462988
986 -1.6811578
984 -1.7345258
982 -1.7316332
980 -1.653784
978 -1.569911
976 -1.4793172
974 -1.3814168
972 -1.2782104
970 -1.1830323
968 -1.0933263
966 -1.0105076
964 -0.92930764
962 -0.81900334
960 -0.69675136
958 -0.52326685
956 -0.33811614
954 -0.13873546
952 0.0565212
950 0.11059144
948 0.15044348
946 0.068665817
944 2.9300922e-05
942 -6.688945e-05
940 -0.02654814
938 -0.0064969868
936 0.0003257487
934 -0.030928228
932 -0.034609891
930 0.021254882
928 0.11347726
926 0.26400733
924 0.4315992
922 0.62038517
920 0.84109771
918 1.090426
916 1.2757043
914 1.4137532
912 1.3936137
910 1.2906229
908 1.2531885
906 1.2421737
904 1.5045085
902 1.8381728
900 2.2046638
898 2.5762162
896 2.7972
