##TITLE=Methyl Ethyl Ketone
##JCAMP-DX=4.24
##DATA TYPE=INFRARED SPECTRUM
##XUNITS=cm-1
##YUNITS=Absorbance
##FIRSTX=900
##LASTX=2300
##XYDATA=(X++(Y..Y))
2296 -0.0113
2294 -0.011534665
2292 -0.011770326
2290 -0.012004993
2288 -0.012240651
2286 -0.012475322
2284 -0.012709985
2282 -0.01294564
2280 -0.013180314
2278 -0.013415966
2276 -0.013650643
2274 -0.013885307
2272 -0.014120954
2270 -0.014355636
2268 -0.01459128
2266 -0.014825964
2264 -0.015061606
2262 -0.015296292
2260 -0.015530958
2258 -0.015766595
2256 -0.016001286
2254 -0.01623692
2252 -0.016471615
2250 -0.016706279
2248 -0.016941909
2246 -0.017176608
2244 -0.00063830003
2242 0.070300616
2240 0.15265605
2238 0.23895353
2236 0.32577312
2234 0.31116939
2232 0.28649148
2230 0.20009787
2228 0.11666406
2226 0.080355152
2224 0.056444306
2222 0.078231893
2220 0.1005335
2218 0.11693355
2216 0.12821086
2214 0.12901887
2212 0.12696199
2210 0.1212455
2208 0.11664411
2206 0.11370257
2204 0.12442312
2202 0.14820358
2200 0.16392457
2198 0.1729766
2196 0.13326143
2194 0.065675363
2192 -0.021764833
2190 -0.11710181
2188 -0.16649842
2186 -0.20080492
2184 -0.18322681
2182 -0.15392205
2180 -0.12822126
2178 -0.10317221
2176 -0.079856798
2174 -0.052832067
2172 0.018235056
2170 0.086140171
2168 0.11196106
2166 0.10698314
2164 0.0046409774
2162 -0.10362082
2160 -0.20216914
2158 -0.26866633
2156 -0.276232
2154 -0.26749313
2152 -0.24393582
2150 -0.22468971
2148 -0.21203645
2146 -0.21632357
2144 -0.23497902
2142 -0.26069269
2140 -0.2902838
2138 -0.30136591
2136 -0.30215517
2134 -0.3285436
2132 -0.36614007
2130 -0.44837674
2128 -0.54453319
2126 -0.58823514
2124 -0.61947423
2122 -0.62026137
2120 -0.6212039
2118 -0.71443784
2116 -0.8260693
2114 -0.9764775
2112 -1.1192672
2110 -1.2031826
2108 -1.2494735
2106 -1.2079965
2104 -1.1224252
2102 -0.9683553
2100 -0.81402439
2098 -0.67629933
2096 -0.58984572
2094 -0.56728327
2092 -0.58042252
2090 -0.62089097
2088 -0.65620834
2086 -0.68402696
2084 -0.69381183
2082 -0.69237483
2080 -0.68284702
2078 -0.66984278
2076 -0.66193426
2074 -0.65631467
2072 -0.6622892
2070 -0.67192537
2068 -0.68691593
2066 -0.703677
2064 -0.74547952
2062 -0.79723817
2060 -0.90139329
2058 -1.0195564
2056 -1.1582029
2054 -1.2934544
2052 -1.4023092
2050 -1.48964
2048 -1.5351748
2046 -1.5506715
2044 -1.523818
2042 -1.4597089
2040 -1.3516212
2038 -1.2236861
2036 -1.0818542
2034 -0.98152584
2032 -0.9239412
2030 -0.9341082
2028 -0.99166334
2026 -1.0489157
2024 -1.1010137
2022 -1.0894451
2020 -1.0451812
2018 -0.96627641
2016 -0.87461197
2014 -0.81157345
2012 -0.7585758
2010 -0.75633478
2008 -0.76814854
2006 -0.79263598
2004 -0.81949532
2002 -0.84067827
2000 -0.86520672
1998 -0.91068047
1996 -0.96148503
1994 -1.0125532
1992 -1.0452852
1990 -1.0362966
1988 -1.0036457
1986 -0.94704491
1984 -0.90014702
1982 -0.87469578
1980 -0.87845778
1978 -0.90977395
1976 -0.9405697
1974 -0.9653905
1972 -0.95971644
1970 -0.93166798
1968 -0.89622909
1966 -0.85869062
1964 -0.85660046
1962 -0.8733266
1960 -0.90504718
1958 -0.94224846
1956 -0.95948416
1954 -0.96942043
1952 -0.98362476
1950 -0.99886316
1948 -1.0111663
1946 -1.0144501
1944 -0.9749856
1942 -0.9174118
1940 -0.84219122
1938 -0.77368081
1936 -0.73671943
1934 -0.7234984
1932 -0.7393716
1930 -0.78797585
1928 -0.87588763
1926 -1.0068865
1924 -1.1800022
1922 -1.3376094
1920 -1.4664342
1918 -1.5054049
1916 -1.4692315
1914 -1.3906933
1912 -1.2924321
1910 -1.2165972
1908 -1.1576308
1906 -1.0956843
1904 -1.03064
1902 -0.97277856
1900 -0.91833043
1898 -0.89261073
1896 -0.87607861
1894 -0.82932234
1892 -0.77018136
1890 -0.70660734
1888 -0.65384406
1886 -0.65411115
1884 -0.67800397
1882 -0.7135787
1880 -0.75391006
1878 -0.79572058
1876 -0.85075104
1874 -0.92974162
1872 -1.0020781
1870 -1.0528506
1868 -1.050748
1866 -0.99036294
1864 -0.90372384
1862 -0.80647063
1860 -0.72984099
1858 -0.67442936
1856 -0.67830116
1854 -0.72454464
1852 -0.8721357
1850 -1.0824131
1848 -1.350144
1846 -1.6463642
1844 -1.7721235
1842 -1.8019441
1840 -1.6103159
1838 -1.3180294
1836 -1.0504786
1834 -0.80583549
1832 -0.62272
1830 -0.47391731
1828 -0.34909922
1826 -0.24951622
1824 -0.18893029
1822 -0.15952684
1820 -0.1623012
1818 -0.19255547
1816 -0.24922687
1814 -0.32016253
1812 -0.39805111
1810 -0.43967098
1808 -0.43390673
1806 -0.38792899
1804 -0.31463623
1802 -0.33581585
1800 -0.45030782
1798 -0.64784229
1796 -0.89548576
1794 -0.96742475
1792 -0.90808201
1790 -0.69883138
1788 -0.40498394
1786 -0.19450764
1784 -0.040447552
1782 0.03277
1780 0.054490633
1778 0.030462008
1776 -0.0095357709
1774 -0.013701513
1772 0.030202789
1770 0.16876841
1768 0.31664902
1766 0.37575316
1764 0.3579036
1762 0.26708624
1760 0.084423833
1758 -0.20043346
1756 -0.47509015
1754 -0.67883015
1752 -0.83744192
1750 -0.97158957
1748 -1.1284521
1746 -1.3174714
1744 -1.5756029
1742 -1.8910639
1740 -2.1553783
1738 -2.3660698
1736 -2.3431001
1734 -2.1472423
1732 -1.7565031
1730 -1.2466836
1728 -0.87394935
1726 -0.60415298
1724 -0.42732647
1722 -0.27724931
1720 0.10647222
1718 0.78187972
1716 1.7802615
1714 2.8647952
1712 3.7538424
1710 4.4622288
1708 4.995708
1706 5.5748143
1704 6.4037151
1702 7.7886715
1700 9.8941154
1698 13.06536
1696 17.333714
1694 21.875771
1692 26.27354
1690 30.145103
1688 33.476547
1686 37.099186
1684 41.148853
1682 45.908554
1680 51.250763
1678 55.985352
1676 60.143555
1674 64.14473
1672 68.098137
1670 72.658554
1668 77.669861
1666 82.648094
1664 87.516335
1662 92.009811
1660 96.099396
1658 99.686172
1656 102.71629
1654 105.11452
1652 106.7358
1650 107.45464
1648 107.04359
1646 105.40071
1644 102.93277
1642 100.05852
1640 96.819519
1638 93.289391
1636 89.128487
1634 84.276764
1632 79.308952
1630 74.437019
1628 69.784126
1626 65.348022
1624 60.642159
1622 55.62825
1620 50.730713
1618 45.997467
1616 41.810574
1614 38.184715
1612 35.161201
1610 32.714672
1608 30.626486
1606 28.861671
1604 27.258497
1602 25.865915
1600 24.753851
1598 23.945009
1596 23.427502
1594 23.163265
1592 23.067017
1590 23.112579
1588 23.255421
1586 23.497871
1584 23.830828
1582 24.215979
1580 24.624733
1578 25.105928
1576 25.676516
1574 26.455147
1572 27.472759
1570 28.653671
1568 29.97716
1566 31.253113
1564 32.456047
1562 33.670555
1560 34.959183
1558 36.886246
1556 39.496887
1554 42.396309
1552 45.412022
1550 47.741566
1548 49.359928
1546 50.531498
1544 51.218849
1542 51.509922
1540 51.34412
1538 50.736458
1536 49.758057
1534 48.56638
1532 47.233536
1530 45.845753
1528 44.364063
1526 42.762501
1524 41.003613
1522 39.063164
1520 37.13298
1518 35.304176
1516 33.631729
1514 32.148281
1512 30.48712
1510 28.544453
1508 26.108337
1506 23.073479
1504 20.193771
1502 17.566051
1500 15.404281
1498 13.75593
1496 12.115286
1494 10.482878
1492 8.8519621
1490 7.2452922
1488 5.71455
1486 4.2967663
1484 3.02512
1482 1.952136
1480 1.113081
1478 0.51865137
1476 0.14849029
1474 0.1145018
1472 0.4854776
1470 1.0658717
1468 1.7898557
1466 2.4841435
1464 3.0340447
1462 3.4713717
1460 3.7838242
1458 4.1116533
1456 4.5029197
1454 4.9507513
1452 5.4720964
1450 5.8611956
1448 6.0423779
1446 6.1059785
1444 6.0041637
1442 5.837194
1440 5.5774956
1438 5.2463293
1436 4.8300886
1434 4.3807435
1432 3.9150624
1430 3.4989882
1428 3.152406
1426 2.8866301
1424 2.7225292
1422 2.6724381
1420 2.7495246
1418 2.9668574
1416 3.2869229
1414 3.6792471
1412 4.0921965
1410 4.4852309
1408 4.8625326
1406 5.2205114
1404 5.5472994
1402 5.8235521
1400 6.019464
1398 6.0810666
1396 6.0925641
1394 6.0344491
1392 6.0150952
1390 6.056262
1388 6.0729389
1386 6.0348802
1384 5.882823
1382 5.5671115
1380 5.160377
1378 4.6463547
1376 4.1062055
1374 3.5581644
1372 3.0687542
1370 2.6523366
1368 2.311132
1366 2.0114
1364 1.6808343
1362 1.32268
1360 0.93934709
1358 0.58323473
1356 0.32380944
1354 0.14149968
1352 0.056782261
1350 0.011901355
1348 -0.0027221376
1346 -0.015243951
1344 -0.036853522
1342 -0.058900088
1340 -0.078500383
1338 -0.056668866
1336 0.051796228
1334 0.19861747
1332 0.41056824
1330 0.60256273
1328 0.76270825
1326 0.91258532
1324 1.0556837
1322 1.2307826
1320 1.4490166
1318 1.6981081
1316 1.97185
1314 2.2297485
1312 2.4573605
1310 2.6262794
1308 2.7421489
1306 2.8126006
1304 2.8481433
1302 2.8527479
1300 2.8368905
1298 2.8009677
1296 2.7639999
1294 2.7422974
1292 2.732085
1290 2.7434807
1288 2.7648201
1286 2.8042378
1284 2.850395
1282 2.910357
1280 2.9625647
1278 2.9976225
1276 3.0284972
1274 3.055795
1272 3.1093068
1270 3.2132285
1268 3.3668776
1266 3.5974956
1264 3.8799291
1262 4.2290359
1260 4.6157718
1258 5.0406265
1256 5.4781742
1254 5.9268665
1252 6.3807864
1250 6.8403358
1248 7.3086762
1246 7.7771249
1244 8.2316322
1242 8.664999
1240 9.0453053
1238 9.377615
1236 9.600152
1234 9.7561865
1232 9.7617683
1230 9.7051964
1228 9.4950047
1226 9.2361145
1224 8.849143
1222 8.4457235
1220 8.0055733
1218 7.5734444
1216 7.1543031
1214 6.7191648
1212 6.2539606
1210 5.7625136
1208 5.2367435
1206 4.7108736
1204 4.1898317
1202 3.6918354
1200 3.2200036
1198 2.7745037
1196 2.3535643
1194 1.9579099
1192 1.5884166
1190 1.2688991
1188 0.98829019
1186 0.77833664
1184 0.6060642
1182 0.49390495
1180 0.40953395
1178 0.38285115
1176 0.38181999
1174 0.45272249
1172 0.53056389
1170 0.61727881
1168 0.67270809
1166 0.63163215
1164 0.56520921
1162 0.44002098
1160 0.32980895
1158 0.25066614
1156 0.18636043
1154 0.14378631
1152 0.092290059
1150 0.028850419
1148 -0.037989579
1146 -0.10267818
1144 -0.13584125
1142 -0.12870364
1140 -0.045210049
1138 0.10262904
1136 0.35130629
1134 0.66646826
1132 1.0480847
1130 1.454041
1128 1.8542366
1126 2.2479036
1124 2.6159799
1122 2.9694998
1120 3.2704401
1118 3.5434918
1116 3.6930199
1114 3.8129475
1112 3.8172314
1110 3.8151066
1108 3.7960122
1106 3.8069849
1104 3.8959651
1102 4.0292625
1100 4.2498674
1098 4.4941578
1096 4.7774715
1094 5.0855594
1092 5.4260383
1090 5.7851248
1088 6.1529007
1086 6.4544592
1084 6.6919146
1082 6.8311014
1080 6.9089336
1078 6.9630938
1076 7.0113187
1074 7.0914445
1072 7.1857982
1070 7.3065596
1068 7.4271092
1066 7.5036211
1064 7.5626998
1062 7.5344687
1060 7.4916492
1058 7.3816781
1056 7.2642918
1054 7.1149635
1052 6.9676771
1050 6.8258882
1048 6.6738939
1046 6.496068
1044 6.3057299
1042 6.0959868
1040 5.9216766
1038 5.7987924
1036 5.6823497
1034 5.5647755
1032 5.3641729
1030 5.084856
1028 4.7485676
1026 4.3741398
1024 4.0083213
1022 3.6478209
1020 3.2955265
1018 2.9457073
1016 2.5892456
1014 2.2310679
1012 1.8740869
1010 1.5213259
1008 1.2154064
1006 0.91617864
1004 0.64906216
1002 0.37601197
1000 0.060806498
998 -0.25732484
996 -0.58646643
994 -0.88542467
992 -1.0871292
990 -1.2205094
988 -1.1948385
986 -1.1127652
984 -0.93434584
982 -0.76823002
980 -0.62193424
978 -0.53280002
976 -0.50306034
974 -0.48380938
972 -0.46828547
970 -0.37031451
968 -0.21814895
966 0.01564604
964 0.28443813
962 0.51758575
960 0.73321784
958 0.82146937
956 0.87744999
954 0.81883597
952 0.74254239
950 0.5729
948 0.39706659
946 0.18719514
944 0.0033448481
942 0.00069578364
940 0.030540586
938 0.32867458
936 0.6478526
934 1.0273716
932 1.3622766
930 1.6019999
928 1.836152
926 2.0616157
924 2.3051159
922 2.5700033
920 2.8063002
918 3.017031
916 3.2929015
914 3.6148846
912 3.9633474
910 4.3225904
908 4.3704882
906 4.2975931
904 4.0027804
902 3.6507053
900 3.4889245
898 3.3578398
896 3.3159001
