##TITLE=Methyl Ethyl Ketone
##JCAMP-DX=4.24
##DATA TYPE=INFRARED SPECTRUM
##XUNITS=cm-1
##YUNITS=Absorbance
##FIRSTX=900
##LASTX=2300
##XYDATA=(X++(Y..Y))
2296 0.0057298001
2294 0.0058490294
2292 0.0059681591
2290 0.0060872887
2288 0.0062066172
2286 0.0063258475
2284 0.0064449776
2282 0.0065641068
2280 0.0066833356
2278 0.0068024662
2276 0.0069216941
2274 0.0070410222
2272 0.0071601546
2270 0.0072793826
2268 0.0073986119
2266 0.0075177434
2264 0.0076368731
2262 0.0077561005
2260 0.0078753298
2258 0.0079945587
2256 0.0081137884
2254 0.0082329214
2252 0.0083522443
2250 0.00847138
2248 0.0085905092
2246 0.0087097352
2244 0.00032366285
2242 0.003760532
2240 0.017449897
2238 0.015787238
2236 0.011827972
2234 -0.015731947
2232 -0.044063587
2230 -0.051587872
2228 -0.05157632
2226 0.00073427008
2224 0.055024765
2222 0.10634208
2220 0.1384428
2218 0.1125663
2216 0.075656399
2214 0.021790266
2212 -0.0082565397
2210 0.0021862509
2208 0.039200686
2206 0.10623171
2204 0.16881061
2202 0.22522396
2200 0.26058406
2198 0.280487
2196 0.27886644
2194 0.26544675
2192 0.23420393
2190 0.19549254
2188 0.18042134
2186 0.17319036
2184 0.19934921
2182 0.23307596
2180 0.22085555
2178 0.20124066
2176 0.14282857
2174 0.085879713
2172 0.086116068
2170 0.10088862
2168 0.16796245
2166 0.23968472
2164 0.30980435
2162 0.37563169
2160 0.43086192
2158 0.47958788
2156 0.51800001
2154 0.53973836
2152 0.53887224
2150 0.52757645
2148 0.50717121
2146 0.49800822
2144 0.49964926
2142 0.50870758
2140 0.5221678
2138 0.53706264
2136 0.55247974
2134 0.57664013
2132 0.60440475
2130 0.62196153
2128 0.6361472
2126 0.62793607
2124 0.61460578
2122 0.61296505
2120 0.61444753
2118 0.63880318
2116 0.66506428
2114 0.68100888
2112 0.68871808
2110 0.66634321
2108 0.63503385
2106 0.59008265
2104 0.54800361
2102 0.51679724
2100 0.49839681
2098 0.49884319
2096 0.52049714
2094 0.56637073
2092 0.62397265
2090 0.69005406
2088 0.72282231
2086 0.72692901
2084 0.69575655
2082 0.64385974
2080 0.61704654
2078 0.60494167
2076 0.62499142
2074 0.65771425
2072 0.68443078
2070 0.70883375
2068 0.73235589
2066 0.75586778
2064 0.77811098
2062 0.7984671
2060 0.7994504
2058 0.79653811
2056 0.79310685
2054 0.79331887
2052 0.80763447
2050 0.82342941
2048 0.83664322
2046 0.84303182
2044 0.83751762
2042 0.82707298
2040 0.81195486
2038 0.7973879
2036 0.78375083
2034 0.77980125
2032 0.7852149
2030 0.7978009
2028 0.8152045
2026 0.82704586
2024 0.83514726
2022 0.86170566
2020 0.89836675
2018 0.95943749
2016 1.029902
2014 1.071591
2012 1.1026535
2010 1.0791198
2008 1.0399668
2006 0.98422068
2004 0.92917949
2002 0.910366
2000 0.91096807
1998 0.95811141
1996 1.018465
1994 1.0849098
1992 1.1406217
1990 1.166769
1988 1.172616
1986 1.1527015
1984 1.1257617
1982 1.0976697
1980 1.0817763
1978 1.0812413
1976 1.1003371
1974 1.1351371
1972 1.16811
1970 1.1977239
1968 1.1886497
1966 1.1553686
1964 1.0931238
1962 1.0169563
1960 0.96666878
1958 0.92821842
1956 0.919743
1954 0.9212147
1952 0.91745883
1950 0.90970826
1948 0.89079303
1946 0.86889499
1944 0.84822404
1942 0.8330012
1940 0.82711917
1938 0.82384622
1936 0.81786197
1934 0.80518842
1932 0.78375578
1930 0.75771457
1928 0.73148745
1926 0.71296418
1924 0.70650107
1922 0.71332371
1920 0.72940737
1918 0.74056071
1916 0.74214411
1914 0.74011028
1912 0.73714948
1910 0.74108201
1908 0.75049281
1906 0.74808306
1904 0.7382108
1902 0.72920585
1900 0.72011453
1898 0.74568492
1896 0.78472859
1894 0.82673383
1892 0.86279655
1890 0.84662831
1888 0.80429512
1886 0.73046643
1884 0.65508431
1882 0.60972947
1880 0.58904964
1878 0.6029613
1876 0.62340903
1874 0.63895929
1872 0.6372509
1870 0.61503959
1868 0.59080994
1866 0.56581253
1864 0.54984546
1862 0.53806829
1860 0.52134222
1858 0.50145292
1856 0.47298628
1854 0.44101074
1852 0.39923176
1850 0.35372987
1848 0.29864201
1846 0.24113035
1844 0.19764841
1842 0.16507883
1840 0.16900891
1838 0.18941319
1836 0.220681
1834 0.25167769
1832 0.27129593
1830 0.28268781
1828 0.27785474
1826 0.26828328
1824 0.25256416
1822 0.23767261
1820 0.23078321
1818 0.22926535
1816 0.23805143
1814 0.24195871
1812 0.23633917
1810 0.21745096
1808 0.18462732
1806 0.15592
1804 0.13530226
1802 0.10696629
1800 0.072167292
1798 0.02741088
1796 -0.023354642
1794 -0.01885617
1792 0.022260783
1790 0.11105148
1788 0.22281808
1786 0.29464221
1784 0.33714926
1782 0.33551148
1780 0.30570546
1778 0.26263031
1776 0.21459171
1774 0.17670956
1772 0.15375128
1770 0.146346
1768 0.14577018
1766 0.13534972
1764 0.1129186
1762 0.084202133
1760 0.027787773
1758 -0.065031737
1756 -0.14971343
1754 -0.20231265
1752 -0.23285268
1750 -0.2464141
1748 -0.27090552
1746 -0.31533143
1744 -0.38346529
1742 -0.47570843
1740 -0.55819261
1738 -0.62600219
1736 -0.629852
1734 -0.58186483
1732 -0.47730431
1730 -0.3404665
1728 -0.25017205
1726 -0.19837093
1724 -0.15959725
1722 -0.11601502
1720 -0.0042548925
1718 0.17867324
1716 0.53055674
1714 1.0056906
1712 1.5073811
1710 2.0125864
1708 2.507338
1706 3.1187735
1704 3.9739594
1702 5.3397555
1700 7.3532715
1698 10.267662
1696 14.066143
1694 18.015659
1692 21.76346
1690 25.114843
1688 28.103662
1686 31.594236
1684 35.681377
1682 40.638176
1680 46.288399
1678 51.284004
1676 55.648987
1674 59.807083
1672 63.898842
1670 68.772575
1668 74.230453
1666 79.6455
1664 84.881882
1662 89.491905
1660 93.52401
1658 97.048424
1656 100.05354
1654 102.54115
1652 104.333
1650 105.2639
1648 105.06029
1646 103.54357
1644 101.11972
1642 98.229668
1640 94.8461
1638 91.030495
1636 86.541641
1634 81.364967
1632 76.218712
1630 71.338181
1628 66.822563
1626 62.648109
1624 58.418762
1622 54.081215
1620 49.851719
1618 45.747181
1616 41.896088
1614 38.323177
1612 35.19957
1610 32.531528
1608 30.276949
1606 28.41007
1604 26.779657
1602 25.405958
1600 24.28829
1598 23.438421
1596 22.8335
1594 22.454929
1592 22.243349
1590 22.170599
1588 22.188164
1586 22.284042
1584 22.442915
1582 22.65901
1580 22.927685
1578 23.297649
1576 23.783571
1574 24.442787
1572 25.280087
1570 26.259571
1568 27.36808
1566 28.50758
1564 29.669394
1562 30.964457
1560 32.479382
1558 34.845909
1556 38.148914
1554 41.91571
1552 45.930286
1550 49.16169
1548 51.623428
1546 53.757893
1544 55.55793
1542 57.118771
1540 58.260098
1538 58.738056
1536 58.544628
1534 57.787106
1532 56.638229
1530 55.351456
1528 53.922058
1526 52.352802
1524 50.568649
1522 48.513348
1520 46.254372
1518 43.7934
1516 41.441299
1514 39.313469
1512 37.212002
1510 35.117195
1508 32.47089
1506 29.116613
1504 25.812138
1502 22.634172
1500 20.008945
1498 17.98982
1496 15.968428
1494 13.930523
1492 11.821497
1490 9.6623135
1488 7.53619
1486 5.5153394
1484 3.717576
1482 2.2225361
1480 1.1063775
1478 0.38295865
1476 0.068760931
1474 0.27233255
1472 0.94455683
1470 1.824128
1468 2.7607484
1466 3.5837185
1464 4.1861086
1462 4.6837277
1460 5.1100016
1458 5.540699
1456 5.9948602
1454 6.4073634
1452 6.7351651
1450 6.9119363
1448 6.8602099
1446 6.7142429
1444 6.4425473
1442 6.1520648
1440 5.8353558
1438 5.4819951
1436 5.0739641
1434 4.5782213
1432 4.0081148
1430 3.4525328
1428 2.941992
1426 2.5445628
1424 2.268141
1422 2.1037216
1420 2.057029
1418 2.1181414
1416 2.2695372
1414 2.4959669
1412 2.7501659
1410 3.015121
1408 3.2866709
1406 3.5698893
1404 3.8721488
1402 4.1979642
1400 4.5326962
1398 4.8735375
1396 5.2096715
1394 5.5296822
1392 5.8110204
1390 6.0074439
1388 6.1084919
1386 6.051785
1384 5.8872814
1382 5.5732131
1380 5.1934471
1378 4.7364302
1376 4.2507629
1374 3.7546167
1372 3.2934999
1370 2.8822122
1368 2.5369401
1366 2.2157536
1364 1.8484263
1362 1.4391785
1360 0.98451799
1358 0.55933243
1356 0.2573328
1354 0.058760352
1352 0.0073234173
1350 0.029859256
1348 0.12535807
1346 0.24976429
1344 0.421648
1342 0.60456157
1340 0.80236673
1338 0.99575406
1336 1.1752
1334 1.3506738
1332 1.5060925
1330 1.6702631
1328 1.8499943
1326 2.052038
1324 2.2966354
1322 2.5719934
1320 2.8928239
1318 3.2359831
1316 3.5961699
1314 3.9341679
1312 4.2361202
1310 4.4895401
1308 4.692976
1306 4.8555584
1304 4.9788594
1302 5.0540142
1300 5.0942578
1298 5.0892315
1296 5.0651999
1294 5.024919
1292 4.9874377
1290 4.9653683
1288 4.9564838
1286 4.9752893
1284 4.9988647
1282 5.0279231
1280 5.0557199
1278 5.0804582
1276 5.1103997
1274 5.1531768
1272 5.2027783
1270 5.2669268
1268 5.3413639
1266 5.4297314
1264 5.5247698
1262 5.6226592
1260 5.7093377
1258 5.7863564
1256 5.8664889
1254 5.9567747
1252 6.0764914
1250 6.2166457
1248 6.3654451
1246 6.5090251
1244 6.6175876
1242 6.6962752
1240 6.7172041
1238 6.7052655
1236 6.6380301
1234 6.5407887
1232 6.3798523
1230 6.1805182
1228 5.8774195
1226 5.5369449
1224 5.0974536
1222 4.6442547
1220 4.1600442
1218 3.683295
1216 3.2231543
1214 2.7802086
1212 2.3711002
1210 1.9966531
1208 1.6764275
1206 1.4013357
1204 1.1792799
1202 0.9789905
1200 0.79870033
1198 0.62150431
1196 0.45147574
1194 0.30178761
1192 0.16979113
1190 0.06364172
1188 -0.026248351
1186 -0.096080609
1184 -0.14472982
1182 -0.13359725
1180 -0.079712361
1178 0.093914032
1176 0.31021199
1174 0.63352472
1172 0.95887625
1170 1.265151
1168 1.5322096
1166 1.6766893
1164 1.7816292
1162 1.789573
1160 1.777264
1158 1.7231679
1156 1.6483543
1154 1.5357265
1152 1.3898863
1150 1.1981452
1148 0.98422742
1146 0.75018716
1144 0.53112245
1142 0.33116734
1140 0.16910122
1138 0.041932985
1136 -0.031761773
1134 -0.063038364
1132 -0.0099789239
1130 0.086385697
1128 0.24128549
1126 0.40917102
1124 0.56202185
1122 0.70259863
1120 0.79220283
1118 0.87184596
1116 0.92329925
1114 0.97552109
1112 1.0329024
1110 1.0907644
1108 1.1494194
1106 1.2025549
1104 1.241604
1102 1.2755314
1100 1.2992932
1098 1.3214713
1096 1.3422571
1094 1.3698914
1092 1.408094
1090 1.4626278
1088 1.534332
1086 1.6175128
1084 1.7081845
1082 1.7890308
1080 1.8577726
1078 1.879478
1076 1.8705243
1074 1.7936747
1072 1.6867223
1070 1.523863
1068 1.3475171
1066 1.1646693
1064 0.99283767
1062 0.90828872
1060 0.84173739
1058 0.86301506
1056 0.88113743
1054 0.88437933
1052 0.8721863
1050 0.81058961
1048 0.73778218
1046 0.63808322
1044 0.53714216
1042 0.43324834
1040 0.326325
1038 0.21256709
1036 0.076006398
1034 -0.085737333
1032 -0.24441457
1030 -0.39479792
1028 -0.49139827
1026 -0.54825938
1024 -0.57576007
1022 -0.58870542
1020 -0.60799152
1018 -0.63146526
1016 -0.67194569
1014 -0.7219255
1012 -0.82636416
1010 -0.94041234
1008 -1.0597839
1006 -1.1698507
1004 -1.1675369
1002 -1.1552804
1000 -1.0831234
998 -1.0231118
996 -1.0167928
994 -1.016765
992 -1.0349206
990 -1.0317448
988 -0.97978926
986 -0.91864169
984 -0.84169078
982 -0.77089059
980 -0.70782918
978 -0.6420784
976 -0.57443428
974 -0.51972294
972 -0.47628677
970 -0.45012587
968 -0.43327817
966 -0.39943951
964 -0.35645658
962 -0.28501406
960 -0.20534234
958 -0.14111491
956 -0.082859442
954 -0.080975525
952 -0.086368963
950 -0.10220226
948 -0.11233957
946 -0.036324643
944 0.0023079067
942 0.071892515
940 0.21178348
938 0.37398469
936 0.51549202
934 0.59593201
932 0.64930069
930 0.64456332
928 0.61926174
926 0.56115502
924 0.49932459
922 0.43315336
920 0.36719874
918 0.30064553
916 0.19254261
914 0.055007957
912 -0.083631724
910 -0.22113821
908 -0.23752531
906 -0.20613091
904 -0.097092599
902 0.032693621
900 0.093387529
898 0.14314468
896 0.1534
