##TITLE=Methyl Ethyl Ketone
##JCAMP-DX=4.24
##DATA TYPE=INFRARED SPECTRUM
##XUNITS=cm-1
##YUNITS=Absorbance
##FIRSTX=900
##LASTX=2300
##XYDATA=(X++(Y..Y))
2296 0.10513
2294 0.10731687
2292 0.10950374
2290 0.11169061
2288 0.11388743
2286 0.11607435
2284 0.11826123
2282 0.12044811
2280 0.12263498
2278 0.12482184
2276 0.12700871
2274 0.12919559
2272 0.13138247
2270 0.13355951
2268 0.135756
2266 0.13797243
2264 0.14013064
2262 0.14219972
2260 0.1445006
2258 0.14712834
2256 0.14889029
2254 0.1494444
2252 0.15319869
2250 0.16146335
2248 0.15783852
2246 0.1264475
2244 0.073133953
2242 0.015241848
2240 -0.0081791356
2238 0.032818001
2236 0.10701863
2234 0.17512433
2232 0.23574977
2230 0.29963577
2228 0.38182837
2226 0.49196601
2224 0.61326623
2222 0.72175568
2220 0.79568386
2218 0.82047814
2216 0.80768973
2214 0.77686489
2212 0.74856722
2210 0.73898661
2208 0.746014
2206 0.76500034
2204 0.80372554
2202 0.8731246
2200 0.98119748
2198 1.1290441
2196 1.2939285
2194 1.446633
2192 1.5628612
2190 1.624354
2188 1.6310995
2186 1.5914942
2184 1.524804
2182 1.4527954
2180 1.3948063
2178 1.3671156
2176 1.3779829
2174 1.4298636
2172 1.5127183
2170 1.610845
2168 1.7030252
2166 1.7706364
2164 1.814106
2162 1.8415114
2160 1.8664811
2158 1.8990979
2156 1.9287699
2154 1.941764
2152 1.9414645
2150 1.9399564
2148 1.9609946
2146 2.0214465
2144 2.0951681
2142 2.1445959
2140 2.1491668
2138 2.1057186
2136 2.0558257
2134 2.0481546
2132 2.0965455
2130 2.1939633
2128 2.3025601
2126 2.3792207
2124 2.4046657
2122 2.3752115
2120 2.3161445
2118 2.2595072
2116 2.2235558
2114 2.216516
2112 2.2284336
2110 2.244868
2108 2.2609513
2106 2.276583
2104 2.2968199
2102 2.3272657
2100 2.368938
2098 2.4208477
2096 2.4817145
2094 2.5490453
2092 2.61571
2090 2.6736717
2088 2.7202291
2086 2.7550349
2084 2.780196
2082 2.7972696
2080 2.8037596
2078 2.7969015
2076 2.7820985
2074 2.767231
2072 2.7574241
2070 2.7535682
2068 2.7442262
2066 2.7157571
2064 2.6660326
2062 2.6009822
2060 2.5390661
2058 2.500082
2056 2.4889801
2054 2.5025403
2052 2.5319402
2050 2.56635
2048 2.5956223
2046 2.6103749
2044 2.6032341
2042 2.5711584
2040 2.5275652
2038 2.4916472
2036 2.4788041
2034 2.4984343
2032 2.5439527
2030 2.6018379
2028 2.6588035
2026 2.7050335
2024 2.742264
2022 2.7763045
2020 2.8076279
2018 2.8326938
2016 2.84108
2014 2.8226745
2012 2.7800951
2010 2.7222795
2008 2.6593835
2006 2.6025343
2004 2.5655367
2002 2.5606959
2000 2.5884056
1998 2.640095
1996 2.693743
1994 2.7258837
1992 2.7322261
1990 2.7205224
1988 2.7090101
1986 2.715965
1984 2.7393498
1982 2.7667098
1980 2.7854433
1978 2.7876315
1976 2.7850399
1974 2.7973359
1972 2.836247
1970 2.9021876
1968 2.9670103
1966 2.9936228
1964 2.9653363
1962 2.8850439
1960 2.790724
1958 2.728606
1956 2.7093616
1954 2.7203496
1952 2.7328217
1950 2.7189372
1948 2.6837432
1946 2.6484752
1944 2.6276486
1942 2.6270115
1940 2.6354334
1938 2.6358905
1936 2.6227944
1934 2.5978141
1932 2.5656619
1930 2.5330441
1928 2.5102258
1926 2.5104706
1924 2.5506563
1922 2.6420362
1920 2.7632647
1918 2.8771889
1916 2.9548585
1914 2.9785445
1912 2.9538486
1910 2.8961143
1908 2.8107743
1906 2.7010257
1904 2.5899041
1902 2.510006
1900 2.4850345
1898 2.5240967
1896 2.5988572
1894 2.6623337
1892 2.6767216
1890 2.6187029
1888 2.4975171
1886 2.3421063
1884 2.1881194
1882 2.0687232
1880 1.9971372
1878 1.9734663
1876 1.9936299
1874 2.0515616
1872 2.1379709
1870 2.2363498
1868 2.3050163
1866 2.2949862
1864 2.1904485
1862 2.004683
1860 1.7843895
1858 1.5879406
1856 1.4447172
1854 1.3631796
1852 1.3449974
1850 1.3860087
1848 1.4665079
1846 1.5552821
1844 1.6115659
1842 1.5984796
1840 1.520192
1838 1.4082282
1836 1.3003114
1834 1.230755
1832 1.2151725
1830 1.252159
1828 1.3175654
1826 1.3738836
1824 1.3841355
1822 1.32081
1820 1.191726
1818 1.0286161
1816 0.86808801
1814 0.74339205
1812 0.66954827
1810 0.64791441
1808 0.67270017
1806 0.73179251
1804 0.79954129
1802 0.84521228
1800 0.85405785
1798 0.82767826
1796 0.78859425
1794 0.76677775
1792 0.76816404
1790 0.78178424
1788 0.80117196
1786 0.82427239
1784 0.84500921
1782 0.85764164
1780 0.87369436
1778 0.91254699
1776 0.97264659
1774 1.0281367
1772 1.0161278
1770 0.86938834
1768 0.61120081
1766 0.33186492
1764 0.12001833
1762 0.030463047
1760 0.0085475883
1758 -0.053591382
1756 -0.15228292
1754 -0.19920008
1752 -0.1363188
1750 0.043818995
1748 0.27439824
1746 0.44730714
1744 0.49404234
1742 0.40112326
1740 0.24229413
1738 0.13538517
1736 0.124696
1734 0.17962888
1732 0.21726128
1730 0.14443541
1728 -0.037924588
1726 -0.24737149
1724 -0.37545621
1722 -0.3139416
1720 0.0031449795
1718 0.59049428
1716 1.3812282
1714 2.2498288
1712 3.0686629
1710 3.7502551
1708 4.3614478
1706 5.0950475
1704 6.1700306
1702 7.7880487
1700 10.058619
1698 12.958083
1696 16.184143
1694 19.270079
1692 21.983013
1690 24.36558
1688 26.708241
1686 29.431622
1684 32.773548
1682 36.710331
1680 40.821518
1678 44.494503
1676 47.631588
1674 50.61359
1672 53.835129
1670 57.550819
1668 61.674675
1666 65.870544
1664 69.929604
1662 73.802666
1660 77.459015
1658 80.87014
1656 84.053604
1654 87.057632
1652 89.891701
1650 92.483345
1648 94.553162
1646 95.718468
1644 95.938637
1642 95.487068
1640 94.549332
1638 93.154587
1636 91.227325
1634 88.664192
1632 85.557259
1630 82.165207
1628 78.642693
1626 75.00206
1624 71.198959
1622 67.180153
1620 62.978252
1618 58.710838
1616 54.502083
1614 50.467499
1612 46.723598
1610 43.3736
1608 40.440495
1606 37.869263
1604 35.600807
1602 33.591892
1600 31.82328
1598 30.293983
1596 28.991501
1594 27.888945
1592 26.960423
1590 26.187
1588 25.574499
1586 25.150299
1584 24.931959
1582 24.92449
1580 25.130877
1578 25.551672
1576 26.170315
1574 26.948643
1572 27.824951
1570 28.724878
1568 29.611879
1566 30.495449
1564 31.403219
1562 32.398537
1560 33.680862
1558 35.520813
1556 37.87413
1554 40.348522
1552 42.562866
1550 44.27787
1548 45.532696
1546 46.618679
1544 47.733288
1542 48.895023
1540 49.99736
1538 50.840862
1536 51.249344
1534 51.126865
1532 50.561554
1530 49.810036
1528 49.033886
1526 48.234299
1524 47.338604
1522 46.236626
1520 44.865284
1518 43.244278
1516 41.484386
1514 39.749401
1512 38.036598
1510 36.137016
1508 33.842667
1506 31.048643
1504 27.926144
1502 24.912373
1500 22.276394
1498 20.002001
1496 17.950857
1494 15.923116
1492 13.799111
1490 11.580144
1488 9.3070374
1486 7.0483055
1484 4.9266019
1482 3.1077087
1480 1.6823256
1478 0.65415466
1476 0.11137357
1474 0.22390893
1472 0.92248356
1470 1.841819
1468 2.7267075
1466 3.5509923
1464 4.3642774
1462 5.2306175
1460 6.1100354
1458 6.8292127
1456 7.2223001
1454 7.2008448
1452 6.8503351
1450 6.4366007
1448 6.1132984
1446 5.838161
1444 5.5586514
1442 5.2663169
1440 4.9682884
1438 4.675077
1436 4.3701901
1434 4.0058613
1432 3.5631566
1430 3.0752485
1428 2.6031539
1426 2.2249951
1424 1.9907624
1422 1.9024855
1420 1.9307054
1418 2.0209687
1416 2.1345716
1414 2.2656279
1412 2.4308302
1410 2.6649487
1408 2.9849799
1406 3.3765786
1404 3.8166862
1402 4.2792063
1400 4.7369761
1398 5.1614733
1396 5.519114
1394 5.771956
1392 5.8936558
1390 5.8786263
1388 5.7374215
1386 5.499115
1384 5.2023864
1382 4.8916936
1380 4.6002274
1378 4.3393717
1376 4.1023202
1374 3.8644478
1372 3.6113582
1370 3.349551
1368 3.0843422
1366 2.8100858
1364 2.5055068
1362 2.1347039
1360 1.6920348
1358 1.2240673
1356 0.78956831
1354 0.44187784
1352 0.2010258
1350 0.038523443
1348 -0.069661051
1346 -0.12227643
1344 -0.10720401
1342 -0.0090300292
1340 0.15862282
1338 0.33618003
1336 0.46682113
1334 0.52010512
1332 0.50195336
1330 0.46520799
1328 0.45565102
1326 0.4896085
1324 0.57460725
1322 0.71441406
1320 0.91083723
1318 1.1613263
1316 1.44733
1314 1.7263401
1312 1.9579823
1310 2.1180515
1308 2.2028131
1306 2.2372828
1304 2.247483
1302 2.2495379
1300 2.2512443
1298 2.2502506
1296 2.2453573
1294 2.2416706
1292 2.246767
1290 2.270251
1288 2.31932
1286 2.3956034
1284 2.4954846
1282 2.6085033
1280 2.7246428
1278 2.838469
1276 2.9523513
1274 3.080976
1272 3.2411389
1270 3.4476712
1268 3.7102695
1266 4.0294166
1264 4.4009724
1262 4.8161864
1260 5.2661762
1258 5.7449012
1256 6.2524743
1254 6.7990513
1252 7.391686
1250 8.0265675
1248 8.6897573
1246 9.3530998
1244 9.9921722
1242 10.59586
1240 11.157737
1238 11.672035
1236 12.128386
1234 12.506843
1232 12.79216
1230 12.976289
1228 13.057949
1226 13.037664
1224 12.911862
1222 12.669062
1220 12.303469
1218 11.82535
1216 11.257886
1214 10.642127
1212 10.0152
1210 9.3961258
1208 8.7925882
1206 8.1967964
1204 7.5975099
1202 6.9840283
1200 6.3463907
1198 5.6766744
1196 4.9766784
1194 4.2675295
1192 3.5772028
1190 2.937449
1188 2.3709292
1186 1.8788235
1184 1.4563125
1182 1.0966504
1180 0.79757804
1178 0.56652027
1176 0.40895998
1174 0.32012212
1172 0.28548351
1170 0.27512327
1168 0.26180589
1166 0.23351486
1164 0.19104312
1162 0.15491229
1160 0.14309028
1158 0.15642317
1156 0.18543443
1154 0.20717873
1152 0.20196217
1150 0.16551812
1148 0.10300118
1146 0.032782786
1144 -0.024407128
1142 -0.049877182
1140 -0.027279275
1138 0.05478356
1136 0.20150715
1134 0.40632439
1132 0.66078573
1130 0.95945978
1128 1.3050365
1126 1.7168572
1124 2.2073271
1122 2.7613394
1120 3.343616
1118 3.8883908
1116 4.3391085
1114 4.6823277
1112 4.9324851
1110 5.1453862
1108 5.3757105
1106 5.6496301
1104 5.9739041
1102 6.3248534
1100 6.681282
1098 7.0466132
1096 7.4274998
1094 7.8230515
1092 8.22474
1090 8.6107883
1088 8.9669285
1086 9.306076
1084 9.6426392
1082 9.9760456
1080 10.293406
1078 10.559481
1076 10.745428
1074 10.85801
1072 10.919412
1070 10.974316
1068 11.062357
1066 11.191428
1064 11.35108
1062 11.504636
1060 11.610685
1058 11.63952
1056 11.573315
1054 11.418608
1052 11.186129
1050 10.884399
1048 10.518291
1046 10.091849
1044 9.6127319
1042 9.1148481
1040 8.6346149
1038 8.2025862
1036 7.8330402
1034 7.4965463
1032 7.1519017
1030 6.7557864
1028 6.2837296
1026 5.7683692
1024 5.2593808
1022 4.8131289
1020 4.4698181
1018 4.2148013
1016 4.0154285
1014 3.8255754
1012 3.60307
1010 3.3293219
1008 3.0009561
1006 2.64498
1004 2.2955923
1002 1.9855309
1000 1.7343806
998 1.5211881
996 1.3174214
994 1.1023304
992 0.86755586
990 0.63698864
988 0.43481714
986 0.26097959
984 0.10839164
982 -0.032638386
980 -0.16074681
978 -0.2364489
976 -0.21813828
974 -0.088760197
972 0.15187046
970 0.46767151
968 0.81092823
966 1.125145
964 1.3584435
962 1.483228
960 1.4904896
958 1.413906
956 1.2907758
954 1.1327878
952 0.94297642
950 0.71571851
948 0.45868212
946 0.23349667
944 0.091121905
942 -0.0028025508
940 -0.087024041
938 -0.1405485
936 -0.14894171
934 -0.17490485
932 -0.27893072
930 -0.44284385
928 -0.62138993
926 -0.74207419
924 -0.74635839
922 -0.65334487
920 -0.50401318
918 -0.34866074
916 -0.22982284
914 -0.15148558
912 -0.10798272
910 -0.093566015
908 -0.098828502
906 -0.10021424
904 -0.075474478
902 -0.0214913
900 0.048447073
898 0.074869938
896 -0.013249
