##TITLE=Methyl Ethyl Ketone
##JCAMP-DX=4.24
##DATA TYPE=INFRARED SPECTRUM
##XUNITS=cm-1
##YUNITS=Absorbance
##FIRSTX=900
##LASTX=2300
##XYDATA=(X++(Y..Y))
2296 0.01134
2294 0.011575663
2292 0.011811325
2290 0.012047984
2288 0.012283651
2286 0.012519314
2284 0.012754977
2282 0.01299163
2280 0.013227303
2278 0.013462965
2276 0.013698628
2274 0.01393626
2272 0.014170971
2270 0.014400729
2268 0.014642159
2266 0.014900451
2264 0.015115108
2262 0.015269284
2260 0.015583797
2258 0.016123181
2256 0.016067086
2254 0.01517357
2252 0.016493283
2250 0.02093363
2248 0.017149646
2246 -0.00037906069
2244 -3.8000857e-05
2242 0.045574598
2240 0.10498092
2238 0.14004812
2236 0.15300314
2234 0.15576594
2232 0.15217692
2230 0.14076582
2228 0.10834666
2226 0.047042899
2224 -0.015965188
2222 -0.046590056
2220 -0.024410835
2218 0.057269998
2216 0.16645966
2214 0.26488054
2212 0.33519739
2210 0.37170073
2208 0.38945156
2206 0.40651008
2204 0.42785597
2202 0.45387945
2200 0.48297811
2198 0.5134573
2196 0.54544425
2194 0.57681519
2192 0.59403175
2190 0.58235472
2188 0.53678137
2186 0.46173221
2184 0.38713759
2182 0.34451982
2180 0.33865616
2178 0.35949975
2176 0.37215543
2174 0.34551871
2172 0.29608727
2170 0.25896198
2168 0.28063485
2166 0.39597952
2164 0.57867378
2162 0.78002381
2160 0.94415092
2158 1.0254161
2156 1.02801
2154 0.97588605
2152 0.90371627
2150 0.84535885
2148 0.81761152
2146 0.82783359
2144 0.86937732
2142 0.92764997
2140 0.97491992
2138 0.98253953
2136 0.93662572
2134 0.83602375
2132 0.70990151
2130 0.59772062
2128 0.5373072
2126 0.55698746
2124 0.6496563
2122 0.78962523
2120 0.92766327
2118 1.01569
2116 1.0443871
2114 1.021957
2112 0.96884775
2110 0.9050591
2108 0.83148414
2106 0.74563807
2104 0.66100979
2102 0.5954212
2100 0.5581522
2098 0.55003995
2096 0.55128717
2094 0.53702575
2092 0.49382055
2090 0.41820648
2088 0.32838616
2086 0.252186
2084 0.22282782
2082 0.26629686
2080 0.37076929
2078 0.50546843
2076 0.62370515
2074 0.68268919
2072 0.67991841
2070 0.63323247
2068 0.57617617
2066 0.54177886
2064 0.53713697
2062 0.55607086
2060 0.58277416
2058 0.59999448
2056 0.59911484
2054 0.57532275
2052 0.523938
2050 0.44113597
2048 0.3272568
2046 0.188675
2044 0.049740721
2042 -0.05999402
2040 -0.12103775
2038 -0.12480447
2036 -0.088624597
2034 -0.038645349
2032 0.0083222566
2030 0.04357158
2028 0.072832689
2026 0.10803206
2024 0.16143635
2022 0.23929136
2020 0.32336143
2018 0.38453135
2016 0.39420798
2014 0.33491945
2012 0.23259544
2010 0.12849283
2008 0.045203235
2006 -0.009324071
2004 -0.047950316
2002 -0.08881373
2000 -0.13405532
1998 -0.17779882
1996 -0.21417572
1994 -0.23992659
1992 -0.26065844
1990 -0.28378773
1988 -0.30655101
1986 -0.32151023
1984 -0.32324868
1982 -0.30937052
1980 -0.28484625
1978 -0.25434816
1976 -0.20628743
1974 -0.12411769
1972 -0.0050726347
1970 0.13977203
1968 0.27135721
1966 0.34457365
1964 0.34565881
1962 0.28346935
1960 0.192762
1958 0.11364421
1956 0.058265943
1954 0.022372741
1952 -0.0042614862
1950 -0.031724587
1948 -0.061144888
1946 -0.08843375
1944 -0.10749302
1942 -0.11258899
1940 -0.10256962
1938 -0.081307694
1936 -0.063933454
1934 -0.069982678
1932 -0.11326304
1930 -0.19800514
1928 -0.30196851
1926 -0.38601694
1924 -0.39768508
1922 -0.29477358
1920 -0.10616338
1918 0.099531949
1916 0.25033915
1914 0.29255518
1912 0.24584931
1910 0.1642299
1908 0.075995348
1906 -0.0092821699
1904 -0.086663999
1902 -0.14727922
1900 -0.16051231
1898 -0.0931409
1896 0.045588858
1894 0.21691671
1892 0.36284131
1890 0.42544898
1888 0.38539657
1886 0.25323629
1884 0.070183173
1882 -0.11235963
1880 -0.26681668
1878 -0.38224846
1876 -0.453453
1874 -0.4755522
1872 -0.4369278
1870 -0.33090124
1868 -0.19098455
1866 -0.072795406
1864 -0.022053499
1862 -0.064963832
1860 -0.17819837
1858 -0.31427428
1856 -0.44740373
1854 -0.57030165
1852 -0.68626177
1850 -0.801305
1848 -0.91225398
1846 -1.0080519
1844 -1.0700123
1842 -1.0797186
1840 -1.0374217
1838 -0.95732474
1836 -0.86086315
1834 -0.76540434
1832 -0.65517408
1830 -0.49986386
1828 -0.29994655
1826 -0.085357487
1824 0.080325246
1822 0.12853727
1820 0.05448398
1818 -0.099849992
1816 -0.27752972
1814 -0.42408317
1812 -0.5177902
1810 -0.55782044
1808 -0.53805518
1806 -0.45462799
1804 -0.34142771
1802 -0.25628078
1800 -0.24829268
1798 -0.33842617
1796 -0.46051571
1794 -0.50507981
1792 -0.42844921
1790 -0.2478939
1788 -0.022055939
1786 0.17927319
1784 0.33553743
1782 0.46135908
1780 0.56429523
1778 0.64437473
1776 0.71095252
1774 0.77441221
1772 0.81441367
1770 0.7922703
1768 0.68892443
1766 0.51248872
1764 0.31828341
1762 0.17279692
1760 0.048848744
1758 -0.13166434
1756 -0.351612
1754 -0.52050638
1752 -0.57215869
1750 -0.4857963
1748 -0.31923753
1746 -0.17871249
1744 -0.14530486
1742 -0.24907465
1740 -0.40434027
1738 -0.4590379
1736 -0.33639598
1734 -0.052658111
1732 0.26041737
1730 0.41899669
1728 0.35771781
1726 0.13173631
1724 -0.11417431
1722 -0.1885193
1720 0.066899136
1718 0.73498392
1716 1.7032214
1714 2.7256622
1712 3.6186604
1710 4.3110991
1708 4.928762
1706 5.7391295
1704 6.9980392
1702 8.9109583
1700 11.594277
1698 15.024341
1696 18.830143
1694 22.431271
1692 25.529232
1690 28.171812
1688 30.765205
1686 33.925495
1684 38.086353
1682 43.354019
1680 49.17416
1678 54.622211
1676 59.469486
1674 64.141083
1672 69.019615
1670 74.245216
1668 79.495651
1666 84.155251
1664 87.958954
1662 91.010643
1660 93.458206
1658 95.413132
1656 96.917717
1654 97.95327
1652 98.480362
1650 98.457504
1648 97.865669
1646 96.735069
1644 95.222771
1642 93.559006
1640 91.80864
1638 89.855949
1636 87.518631
1634 84.620613
1632 81.163963
1630 77.301277
1628 73.112572
1626 68.584724
1624 63.721001
1622 58.583908
1620 53.359688
1618 48.326286
1616 43.686798
1614 39.544525
1612 35.946411
1610 32.891529
1608 30.319754
1606 28.129499
1604 26.249563
1602 24.652229
1600 23.338154
1598 22.32427
1596 21.608501
1594 21.163952
1592 20.954788
1590 20.945641
1588 21.123434
1586 21.496599
1584 22.074139
1582 22.867411
1580 23.918262
1578 25.296354
1576 27.057829
1574 29.222664
1572 31.731434
1570 34.449184
1568 37.234238
1566 39.963699
1564 42.562786
1562 45.039459
1560 47.588406
1558 50.492863
1556 53.575943
1554 56.191189
1552 57.886669
1550 58.583218
1548 58.514
1546 58.120392
1544 57.589012
1542 56.771423
1540 55.466961
1538 53.539413
1536 51.101742
1534 48.50927
1532 46.027531
1530 43.744205
1528 41.632572
1526 39.583248
1524 37.493504
1522 35.301666
1520 33.01104
1518 30.693588
1516 28.452656
1514 26.384007
1512 24.44808
1510 22.460018
1508 20.275393
1506 17.866642
1504 15.378039
1502 13.099986
1500 11.182217
1498 9.5618153
1496 8.1204424
1494 6.7418814
1492 5.3908868
1490 4.126894
1488 2.9947126
1486 1.9988335
1484 1.1477851
1482 0.46797267
1480 0.00010588765
1478 -0.19387077
1476 -0.0057801604
1474 0.69363558
1472 1.8719863
1470 3.2948751
1468 4.7430534
1466 6.0900111
1464 7.3208041
1462 8.5337954
1460 9.8186932
1458 11.200049
1456 12.5714
1454 13.690743
1452 14.385609
1450 14.625525
1448 14.472365
1446 14.062857
1444 13.515968
1442 12.89823
1440 12.246822
1438 11.568774
1436 10.833971
1434 9.9843864
1432 9.0247002
1430 8.0509386
1428 7.1795139
1426 6.514411
1424 6.0969973
1422 5.8835826
1420 5.8032455
1418 5.7788358
1416 5.7646227
1414 5.764616
1412 5.8119097
1410 5.9599037
1408 6.2351122
1406 6.6155171
1404 7.0474806
1402 7.4486074
1400 7.7384357
1398 7.8544345
1396 7.7714071
1394 7.5156646
1392 7.139883
1390 6.7147241
1388 6.2937875
1386 5.898015
1384 5.5333157
1382 5.1932945
1380 4.8645797
1378 4.526895
1376 4.1580601
1374 3.7382405
1372 3.2645562
1370 2.7575784
1368 2.2340004
1366 1.6969329
1364 1.1502863
1362 0.60825175
1360 0.11396034
1358 -0.25307077
1356 -0.43441784
1354 -0.41914833
1352 -0.21605463
1350 0.15036803
1348 0.64488065
1346 1.2223536
1344 1.8453441
1342 2.4899936
1340 3.1205366
1338 3.6765065
1336 4.0903001
1334 4.2982779
1332 4.2797976
1330 4.0834718
1328 3.7747805
1326 3.4195814
1324 3.0724404
1322 2.7673686
1320 2.521069
1318 2.3279479
1316 2.1712101
1314 2.025444
1312 1.8740349
1310 1.7187643
1308 1.5672523
1306 1.4295907
1304 1.3130531
1302 1.220269
1300 1.1598065
1298 1.1522748
1296 1.2217286
1294 1.3918381
1292 1.6792148
1290 2.0861814
1288 2.6003358
1286 3.1873293
1284 3.7976398
1282 4.3662562
1280 4.8387761
1278 5.1899061
1276 5.4214602
1274 5.5722551
1272 5.6866012
1270 5.8028116
1268 5.9515119
1266 6.1521277
1264 6.4232626
1262 6.7856331
1260 7.2532239
1258 7.8261385
1256 8.4956541
1254 9.2431002
1252 10.052682
1250 10.918089
1248 11.833858
1246 12.7895
1244 13.764362
1242 14.721372
1240 15.614011
1238 16.386053
1236 16.976757
1234 17.324903
1232 17.37112
1230 17.069958
1228 16.402695
1226 15.408315
1224 14.160794
1222 12.785932
1220 11.413448
1218 10.157344
1216 9.1042519
1214 8.2841406
1212 7.7108836
1210 7.3852348
1208 7.2885547
1206 7.3654785
1204 7.5274663
1202 7.6380458
1200 7.5763679
1198 7.28339
1196 6.7529144
1194 6.0594153
1192 5.2940693
1190 4.540689
1188 3.8625479
1186 3.2813871
1184 2.7996137
1182 2.3997924
1180 2.0661914
1178 1.7971518
1176 1.5974
1174 1.4765382
1172 1.4323255
1170 1.4335986
1168 1.4451388
1166 1.43909
1164 1.4050791
1162 1.366621
1160 1.3470246
1158 1.3496381
1156 1.3613043
1154 1.3443187
1152 1.265184
1150 1.115006
1148 0.90234119
1146 0.66206396
1144 0.43423533
1142 0.25337911
1140 0.1296843
1138 0.021320589
1136 -0.10971569
1134 -0.2624352
1132 -0.42034072
1130 -0.55268747
1128 -0.62998766
1126 -0.63535899
1124 -0.56749547
1122 -0.45570436
1120 -0.33829281
1118 -0.25603762
1116 -0.23564129
1114 -0.26663524
1112 -0.31989527
1110 -0.34358203
1108 -0.29396829
1106 -0.16263716
1104 0.037041724
1102 0.25950462
1100 0.4641214
1098 0.64294696
1096 0.80055285
1094 0.95331097
1092 1.118894
1090 1.3110201
1088 1.5435138
1086 1.8313158
1084 2.1727386
1082 2.5219648
1080 2.8185833
1078 2.9940438
1076 3.0040956
1074 2.8752804
1072 2.6592932
1070 2.4276028
1068 2.237505
1066 2.0943279
1064 1.9873439
1062 1.8959017
1060 1.8012406
1058 1.6961424
1056 1.5794942
1054 1.459702
1052 1.3495283
1050 1.268129
1048 1.2237126
1046 1.1911857
1044 1.1456206
1042 1.0864826
1040 1.0363429
1038 1.0652679
1036 1.22996
1034 1.5135182
1032 1.8604281
1030 2.1581502
1028 2.3078716
1026 2.2935693
1024 2.1347311
1022 1.8947841
1020 1.6313505
1018 1.351836
1016 1.0544965
1014 0.74731803
1012 0.44856301
1010 0.19881886
1008 0.025638483
1006 -0.10062015
1004 -0.22258645
1002 -0.37828052
1000 -0.5833534
998 -0.78756952
996 -0.93715286
994 -1.019129
992 -1.0429229
990 -1.0572894
988 -1.1072515
986 -1.1947165
984 -1.3045605
982 -1.4008793
980 -1.4442221
978 -1.4015661
976 -1.2502
974 -0.99777895
972 -0.6728307
970 -0.34900442
968 -0.10217968
966 0.022570901
964 0.0083870217
962 -0.091507472
960 -0.20747016
958 -0.27371401
956 -0.24343914
954 -0.13259001
952 0.018358
950 0.1384083
948 0.1691294
946 0.12366006
944 0.042763762
942 0.0022568554
940 0.075449884
938 0.29474771
936 0.65851545
934 1.0787984
932 1.4590807
930 1.7508657
928 1.9374908
926 2.0774765
924 2.2460599
922 2.5112619
920 2.9139383
918 3.3997078
916 3.8883228
914 4.293438
912 4.551332
910 4.693244
908 4.7671494
906 4.7959194
904 4.7841644
902 4.6901212
900 4.485199
898 4.2402291
896 4.0509
