##TITLE=Methyl Ethyl Ketone
##JCAMP-DX=4.24
##DATA TYPE=INFRARED SPECTRUM
##XUNITS=cm-1
##YUNITS=Absorbance
##FIRSTX=900
##LASTX=2300
##XYDATA=(X++(Y..Y))
2296 0.085427999
2294 0.087204456
2292 0.088981912
2290 0.090759374
2288 0.092536829
2286 0.094313286
2284 0.096090741
2282 0.097868204
2280 0.099645659
2278 0.10142706
2276 0.10320457
2274 0.10497218
2272 0.10674948
2270 0.10852695
2268 0.1103044
2266 0.11208186
2264 0.11385931
2262 0.11563677
2260 0.11741423
2258 0.11919168
2256 0.12096914
2254 0.1227466
2252 0.12452406
2250 0.12630151
2248 0.12807897
2246 0.12985644
2244 0.074336179
2242 0.0027845486
2240 -0.083139837
2238 -0.11061238
2236 -0.12931885
2234 -0.086389892
2232 -0.038075417
2230 0.031939693
2228 0.098988339
2226 0.1344355
2224 0.16169401
2222 0.15908305
2220 0.14795591
2218 0.11591361
2216 0.067764767
2214 -0.013001643
2212 -0.098417521
2210 -0.18829423
2208 -0.26160479
2206 -0.31393692
2204 -0.34105361
2202 -0.34518343
2200 -0.32000652
2198 -0.27405801
2196 -0.22082928
2194 -0.1641614
2192 -0.13197938
2190 -0.11060653
2188 -0.10700049
2186 -0.10894929
2184 -0.10372961
2182 -0.09679234
2180 -0.082788356
2178 -0.067976646
2176 -0.071557
2174 -0.079086468
2172 -0.11213412
2170 -0.14559209
2168 -0.16743377
2166 -0.18076001
2164 -0.16707629
2162 -0.15466954
2160 -0.15245463
2158 -0.15996608
2156 -0.184029
2154 -0.20731308
2152 -0.22701868
2150 -0.24333248
2148 -0.25623223
2146 -0.25580999
2144 -0.24390446
2142 -0.2079035
2140 -0.15591371
2138 -0.10676163
2136 -0.060073659
2134 -0.048926137
2132 -0.05279094
2130 -0.083545454
2128 -0.1224744
2126 -0.15327965
2124 -0.18198383
2122 -0.19637637
2120 -0.20900595
2118 -0.2311558
2116 -0.2566503
2114 -0.29742351
2112 -0.33897886
2110 -0.3746486
2108 -0.40020433
2106 -0.39776298
2104 -0.38474685
2102 -0.35735619
2100 -0.33124399
2098 -0.31075472
2096 -0.29255
2094 -0.27606609
2092 -0.25986347
2090 -0.24370077
2088 -0.23303561
2086 -0.227238
2084 -0.23839243
2082 -0.2604109
2080 -0.30875522
2078 -0.37000868
2076 -0.43933943
2074 -0.5113005
2072 -0.54622281
2070 -0.56897926
2068 -0.52346855
2066 -0.46051949
2064 -0.36931953
2062 -0.27658385
2060 -0.22938785
2058 -0.19828901
2056 -0.206522
2054 -0.21689627
2052 -0.20558408
2050 -0.18636605
2048 -0.15614006
2046 -0.14864035
2044 -0.18862039
2042 -0.25582775
2040 -0.35183075
2038 -0.43221849
2036 -0.48897073
2034 -0.51688111
2032 -0.52074355
2030 -0.51197875
2028 -0.49557978
2026 -0.46949929
2024 -0.43731418
2022 -0.39243928
2020 -0.34099618
2018 -0.29473194
2016 -0.25173399
2014 -0.24174063
2012 -0.24391289
2010 -0.26113474
2008 -0.28127572
2006 -0.27792129
2004 -0.26902127
2002 -0.2597245
2000 -0.25832355
1998 -0.28651801
1996 -0.32657355
1994 -0.37674618
1992 -0.42076299
1990 -0.45008242
1988 -0.46546099
1986 -0.46914986
1984 -0.46865839
1982 -0.46604306
1980 -0.45675543
1978 -0.43784225
1976 -0.40660629
1974 -0.3643533
1972 -0.31925371
1970 -0.27253783
1968 -0.23624846
1966 -0.20698772
1964 -0.21302868
1962 -0.23876208
1960 -0.3017008
1958 -0.38043192
1956 -0.45319071
1954 -0.52289772
1952 -0.55201381
1950 -0.56847245
1948 -0.56641829
1946 -0.56029999
1944 -0.56779563
1942 -0.57426661
1940 -0.58118457
1938 -0.58422667
1936 -0.58124971
1934 -0.58255154
1932 -0.58928561
1930 -0.60478461
1928 -0.62486523
1926 -0.64028418
1924 -0.64373517
1922 -0.61506462
1920 -0.55882794
1918 -0.48445681
1916 -0.40653086
1914 -0.35673696
1912 -0.32840773
1910 -0.33214903
1908 -0.35187998
1906 -0.38997588
1904 -0.43790361
1902 -0.48395073
1900 -0.53056258
1898 -0.55293071
1896 -0.56614
1894 -0.56978613
1892 -0.57043272
1890 -0.58564711
1888 -0.60750574
1886 -0.64483559
1884 -0.68531638
1882 -0.72020298
1880 -0.74839377
1878 -0.76039261
1876 -0.77194101
1874 -0.78157586
1872 -0.79312527
1870 -0.80180913
1868 -0.79326522
1866 -0.77793694
1864 -0.75893199
1862 -0.75036579
1860 -0.75030267
1858 -0.75049323
1856 -0.75291342
1854 -0.75136018
1852 -0.76867688
1850 -0.79383147
1848 -0.83411837
1846 -0.87627071
1844 -0.90069455
1842 -0.90975314
1840 -0.88845384
1838 -0.85531723
1836 -0.80627483
1834 -0.75538683
1832 -0.69746006
1830 -0.63191146
1828 -0.56117594
1826 -0.48566014
1824 -0.43026635
1822 -0.40364194
1820 -0.41863519
1818 -0.46207196
1816 -0.51248801
1814 -0.56047034
1812 -0.59479034
1810 -0.60927153
1808 -0.60867709
1806 -0.57759053
1804 -0.52068597
1802 -0.47708076
1800 -0.44622999
1798 -0.46548176
1796 -0.52086145
1794 -0.5416882
1792 -0.54093921
1790 -0.47293454
1788 -0.37330419
1786 -0.29780784
1784 -0.24335486
1782 -0.20139472
1780 -0.16640292
1778 -0.10659422
1776 -0.037001487
1774 0.020410739
1772 0.065114535
1770 0.056531079
1768 0.033787493
1766 0.021833872
1764 0.02006904
1762 0.047732309
1760 0.024460744
1758 -0.092646532
1756 -0.23263685
1754 -0.35209167
1752 -0.42091513
1750 -0.42834538
1748 -0.40985519
1746 -0.38956535
1744 -0.40629384
1742 -0.47296542
1740 -0.55516833
1738 -0.63714403
1736 -0.62378603
1734 -0.52750617
1732 -0.35379323
1730 -0.14005631
1728 -0.032119498
1726 -0.011840628
1724 -0.030317146
1722 -0.062011238
1720 0.0017004833
1718 0.18174541
1716 0.59058845
1714 1.1720423
1712 1.8031995
1710 2.438879
1708 3.055268
1706 3.7931345
1704 4.8067756
1702 6.3666983
1700 8.6053562
1698 11.749409
1696 15.744857
1694 19.8288
1692 23.650595
1690 27.049799
1688 30.089909
1686 33.624985
1684 37.749889
1682 42.680382
1680 48.237598
1678 53.131145
1676 57.391258
1674 61.467186
1672 65.483612
1670 70.084717
1668 75.097038
1666 79.881645
1664 84.366936
1662 88.295471
1660 91.706039
1658 94.667221
1656 97.068741
1654 98.754822
1652 99.532379
1650 99.212669
1648 98.08223
1646 96.448425
1644 94.596535
1642 92.794189
1640 90.595947
1638 87.821426
1636 84.133057
1634 79.502365
1632 74.693741
1630 69.985428
1628 65.561798
1626 61.437092
1624 57.243279
1622 52.936882
1620 48.808495
1618 44.873463
1616 41.249516
1614 37.944035
1612 35.026333
1610 32.501362
1608 30.349075
1606 28.558643
1604 27.023792
1602 25.760935
1600 24.7526
1598 24.004057
1596 23.487
1594 23.190311
1592 23.063599
1590 23.073263
1588 23.162786
1586 23.313728
1584 23.511621
1582 23.76314
1580 24.076092
1578 24.514057
1576 25.096514
1574 25.86409
1572 26.807302
1570 27.847794
1568 28.959761
1566 30.089792
1564 31.240191
1562 32.62027
1560 34.331242
1558 36.947605
1556 40.5326
1554 44.36515
1552 48.208038
1550 51.147766
1548 53.211143
1546 54.971249
1544 56.450779
1542 57.785091
1540 58.831757
1538 59.330738
1536 59.173313
1534 58.33419
1532 57.0051
1530 55.509995
1528 53.920723
1526 52.298351
1524 50.544155
1522 48.576878
1520 46.345158
1518 43.770203
1516 41.238186
1514 38.886318
1512 36.631279
1510 34.50993
1508 31.954807
1506 28.83075
1504 25.746691
1502 22.753325
1500 20.228691
1498 18.212811
1496 16.174572
1494 14.104572
1492 11.959745
1490 9.7598381
1488 7.5722771
1486 5.4830732
1484 3.6474581
1482 2.1374197
1480 1.033636
1478 0.3418771
1476 0.062849715
1474 0.33835813
1472 1.1349535
1470 2.1887689
1468 3.3359656
1466 4.336596
1464 5.0562077
1462 5.6278949
1460 6.0892653
1458 6.5358787
1456 6.98036
1454 7.3651772
1452 7.6284056
1450 7.7645245
1448 7.7053795
1446 7.5671859
1444 7.322576
1442 7.041656
1440 6.7131472
1438 6.3237543
1436 5.8543587
1434 5.2656922
1432 4.5795193
1430 3.915118
1428 3.3080521
1426 2.8547249
1424 2.5571828
1422 2.3951001
1420 2.3691037
1418 2.4466121
1416 2.6099172
1414 2.8368502
1412 3.0856307
1410 3.3625419
1408 3.6631954
1406 4.0050087
1404 4.3814421
1402 4.7891254
1400 5.2067957
1398 5.6252556
1396 6.0450144
1394 6.4547577
1392 6.8231664
1390 7.0849981
1388 7.216455
1386 7.1307602
1384 6.9025073
1382 6.4803128
1380 5.9864826
1378 5.4139619
1376 4.8197575
1374 4.2298079
1372 3.6767821
1370 3.1774971
1368 2.75388
1366 2.3617456
1364 1.9419557
1362 1.494396
1360 1.0033058
1358 0.54644835
1356 0.21962608
1354 0.0094836019
1352 -0.016735772
1350 0.046927385
1348 0.20251112
1346 0.39364105
1344 0.61183083
1342 0.83797485
1340 1.0803663
1338 1.3358483
1336 1.6079056
1334 1.8784595
1332 2.1117811
1330 2.3254471
1328 2.5063851
1326 2.6915936
1324 2.903338
1322 3.144943
1320 3.4388342
1318 3.7605219
1316 4.1096201
1314 4.4463158
1312 4.7448339
1310 4.9753685
1308 5.1264453
1306 5.2026625
1304 5.2207594
1302 5.1921659
1300 5.1379337
1298 5.0580077
1296 4.9735861
1294 4.8901305
1292 4.815762
1290 4.7607193
1288 4.7198839
1286 4.7066536
1284 4.708807
1282 4.7414813
1280 4.7756114
1278 4.8100405
1276 4.8336158
1274 4.8427191
1272 4.8566484
1270 4.8879089
1268 4.947557
1266 5.0465055
1264 5.1651325
1262 5.3009839
1260 5.4339781
1258 5.5634193
1256 5.690063
1254 5.8142619
1252 5.9385824
1250 6.0586858
1248 6.1656466
1246 6.25565
1244 6.3041515
1242 6.3265119
1240 6.3099694
1238 6.2776651
1236 6.2302384
1234 6.156548
1232 6.0086842
1230 5.8064375
1228 5.4531832
1226 5.0609698
1224 4.5699439
1222 4.0742388
1220 3.5680532
1218 3.0721519
1216 2.5991201
1214 2.1508758
1212 1.7513663
1210 1.4013319
1208 1.1237124
1206 0.88631046
1204 0.69188261
1202 0.49956778
1200 0.31173024
1198 0.13485958
1196 -0.022364289
1194 -0.13060352
1192 -0.2018144
1190 -0.2341373
1188 -0.24548931
1186 -0.24127114
1184 -0.22173755
1182 -0.16065775
1180 -0.06770356
1178 0.11860402
1176 0.342742
1174 0.66968274
1172 1.007918
1170 1.3631694
1168 1.6877995
1166 1.9127064
1164 2.0808642
1162 2.1068239
1160 2.0851347
1158 1.9693767
1156 1.8360929
1154 1.6733527
1152 1.495532
1150 1.2939423
1148 1.062269
1146 0.80065179
1144 0.54425526
1142 0.30505142
1140 0.1385099
1138 0.034683067
1136 0.01111122
1134 0.041326091
1132 0.14383787
1130 0.28989285
1128 0.52057821
1126 0.7726348
1124 1.0171385
1122 1.232852
1120 1.303036
1118 1.3409148
1116 1.2775786
1114 1.2234207
1112 1.2164954
1110 1.241653
1108 1.3682883
1106 1.5095
1104 1.6815938
1102 1.8224775
1100 1.8981802
1098 1.9300365
1096 1.8928857
1094 1.8347483
1092 1.753994
1090 1.6944264
1088 1.6612641
1086 1.6729429
1084 1.7169837
1082 1.7476956
1080 1.7648114
1078 1.738433
1076 1.6932672
1074 1.6527905
1072 1.6111588
1070 1.553057
1068 1.4857352
1066 1.3813035
1064 1.274492
1062 1.1863487
1060 1.0988103
1058 1.0082513
1056 0.91273403
1054 0.79693896
1052 0.69525194
1050 0.64016998
1048 0.60355437
1046 0.60989857
1044 0.60883141
1042 0.5920583
1040 0.56192464
1038 0.5117023
1036 0.45683798
1034 0.39457804
1032 0.30692479
1030 0.19324437
1028 0.035349533
1026 -0.15141013
1024 -0.32756889
1022 -0.49105668
1020 -0.57668507
1018 -0.62953746
1016 -0.64765257
1014 -0.66035533
1012 -0.71639818
1010 -0.78153682
1008 -0.8681004
1006 -0.95181507
1004 -0.98203957
1002 -1.0036582
1000 -0.97004712
998 -0.93475628
996 -0.89239854
994 -0.85317838
992 -0.82509118
990 -0.80922043
988 -0.82258159
986 -0.85454249
984 -0.91723251
982 -0.97059113
980 -1.009472
978 -1.0241144
976 -1.0138326
974 -0.9984436
972 -0.97849
970 -0.94660002
968 -0.90521979
966 -0.83162946
964 -0.74238217
962 -0.63400346
960 -0.52015716
958 -0.41160125
956 -0.30588171
954 -0.23059329
952 -0.16064081
950 -0.12797943
948 -0.094593242
946 -0.029627679
944 0.0018298961
942 0.057174817
940 0.17417157
938 0.33437347
936 0.47275743
934 0.54647052
932 0.56938708
930 0.48368031
928 0.37511367
926 0.23132786
924 0.1388406
922 0.11033691
920 0.15818074
918 0.2760796
916 0.36920843
914 0.44385323
912 0.4616327
910 0.45136949
908 0.52651238
906 0.63690442
904 0.83058202
902 1.0473475
900 1.1982026
898 1.3386511
896 1.3044
