##TITLE=Methyl Ethyl Ketone
##JCAMP-DX=4.24
##DATA TYPE=INFRARED SPECTRUM
##XUNITS=cm-1
##YUNITS=Absorbance
##FIRSTX=900
##LASTX=2300
##XYDATA=(X++(Y..Y))
2296 0.039937999
2294 0.040768813
2292 0.041599624
2290 0.042430434
2288 0.043261245
2286 0.044092059
2284 0.04492287
2282 0.04575368
2280 0.046584494
2278 0.047416288
2276 0.048247114
2274 0.049077924
2272 0.049908735
2270 0.050739549
2268 0.05157036
2266 0.05240117
2264 0.053231981
2262 0.054062795
2260 0.054893605
2258 0.055724416
2256 0.05655523
2254 0.057386041
2252 0.058216851
2250 0.059047665
2248 0.059878476
2246 0.060709286
2244 0.005994794
2242 0.011690762
2240 0.02410672
2238 0.096519195
2236 0.17783801
2234 0.20625547
2232 0.22874783
2230 0.20406193
2228 0.18264826
2226 0.2056835
2224 0.23674463
2222 0.2943835
2220 0.34907979
2218 0.39067072
2216 0.4193123
2214 0.42123008
2212 0.3904556
2210 0.30888036
2208 0.23027298
2206 0.1592605
2204 0.15708375
2202 0.22074959
2200 0.29281133
2198 0.36791128
2196 0.39034072
2194 0.38231438
2192 0.36413029
2190 0.34242344
2188 0.30620822
2186 0.26533872
2184 0.190892
2182 0.1087617
2180 0.048652284
2178 -0.0072302287
2176 0.0098885139
2174 0.036126539
2172 0.089930803
2170 0.14175905
2168 0.16740526
2166 0.18307272
2164 0.17179811
2162 0.14724889
2160 0.095571645
2158 0.029709917
2156 -0.057914797
2154 -0.14376532
2152 -0.22379874
2150 -0.27029866
2148 -0.27967858
2146 -0.24747428
2144 -0.18190663
2142 -0.135952
2140 -0.10600011
2138 -0.14083633
2136 -0.21009685
2134 -0.27953184
2132 -0.34780267
2130 -0.34649211
2128 -0.323064
2126 -0.2442632
2124 -0.15289111
2122 -0.08106041
2120 -0.016795726
2118 -0.035024557
2116 -0.065138742
2114 -0.096590035
2112 -0.11026429
2110 -0.044813395
2108 0.024384215
2106 0.069978386
2104 0.076730527
2102 0.0056618685
2100 -0.071052894
2098 -0.13781284
2096 -0.17813143
2094 -0.18553486
2092 -0.19757955
2090 -0.21937335
2088 -0.25523794
2086 -0.30200601
2084 -0.343712
2082 -0.38124663
2080 -0.40908462
2078 -0.43188158
2076 -0.42520884
2074 -0.40644935
2072 -0.33169362
2070 -0.23910011
2068 -0.1507086
2066 -0.065126747
2064 -0.076106377
2062 -0.10898787
2060 -0.17932503
2058 -0.24994411
2056 -0.28162229
2054 -0.30301899
2052 -0.31327701
2050 -0.32889068
2048 -0.36185554
2046 -0.40292323
2044 -0.45207322
2042 -0.5012545
2040 -0.54997385
2038 -0.58893275
2036 -0.61843854
2034 -0.61002094
2032 -0.56614822
2030 -0.50041741
2028 -0.4211193
2026 -0.39212793
2024 -0.39586109
2022 -0.42578456
2020 -0.46621943
2018 -0.485688
2016 -0.49664602
2014 -0.50030315
2012 -0.50324488
2010 -0.45461935
2008 -0.39118338
2006 -0.297333
2004 -0.20582868
2002 -0.18102111
2000 -0.18240389
1998 -0.21748433
1996 -0.25183001
1994 -0.25430936
1992 -0.24752823
1990 -0.24377637
1988 -0.2489398
1986 -0.27638742
1984 -0.30845091
1982 -0.33936995
1980 -0.3586486
1978 -0.3617731
1976 -0.31503573
1974 -0.2234754
1972 -0.070395246
1970 0.12425496
1968 0.24631856
1966 0.31715599
1964 0.21989153
1962 0.036166444
1960 -0.12363
1958 -0.2688067
1956 -0.29669702
1954 -0.28428298
1952 -0.29504988
1950 -0.32169625
1948 -0.39712462
1946 -0.48770502
1944 -0.58126223
1942 -0.66632074
1940 -0.74180776
1938 -0.81214833
1936 -0.8823086
1934 -0.95481157
1932 -1.0235943
1930 -1.081943
1928 -1.1163765
1926 -1.0836978
1924 -0.96676886
1922 -0.7382077
1920 -0.41755
1918 -0.14382863
1916 0.058905017
1914 0.10977357
1912 0.057632443
1910 -0.02277334
1908 -0.10614629
1906 -0.2095045
1904 -0.32500362
1902 -0.44048417
1900 -0.5577569
1898 -0.52403724
1896 -0.42563286
1894 -0.24046361
1892 -0.037438642
1890 0.046202879
1888 0.053440243
1886 -0.084584177
1884 -0.27686825
1882 -0.47254121
1880 -0.64078653
1878 -0.73574781
1876 -0.76813197
1874 -0.71770042
1872 -0.59272611
1870 -0.38839132
1868 -0.1967686
1866 -0.068870217
1864 -0.10298314
1862 -0.30399477
1860 -0.56681937
1858 -0.84019661
1856 -1.0211563
1854 -1.1218063
1852 -1.1138523
1850 -1.0367759
1848 -0.90016842
1846 -0.72686821
1844 -0.6682235
1842 -0.66862273
1840 -0.81725568
1838 -1.030735
1836 -1.15939
1834 -1.226187
1832 -1.1295052
1830 -0.93177295
1828 -0.64728993
1826 -0.36390662
1824 -0.21781577
1822 -0.21879824
1820 -0.40963802
1818 -0.67347115
1816 -0.9178943
1814 -1.0889885
1812 -1.1563903
1810 -1.1501216
1808 -1.1007463
1806 -1.0067875
1804 -0.88152516
1802 -0.75230402
1800 -0.61997843
1798 -0.5037328
1796 -0.398655
1794 -0.24457979
1792 -0.063598476
1790 0.10768997
1788 0.25905073
1786 0.33286041
1784 0.35745949
1782 0.3921428
1780 0.43787187
1778 0.5508455
1776 0.69509286
1774 0.82299542
1772 0.8846814
1770 0.72399521
1768 0.45538461
1766 0.16462794
1764 -0.041790538
1762 -0.037096981
1760 0.011889875
1758 -0.0062652081
1756 -0.022003429
1754 0.0060160309
1752 0.18332604
1750 0.53477579
1748 0.91398609
1746 1.2584321
1744 1.367952
1742 1.2445868
1740 1.1008571
1738 0.98678422
1736 1.139348
1734 1.5053991
1732 1.716504
1730 1.781373
1728 1.4049869
1726 0.74080569
1724 0.22009376
1722 -0.12295484
1720 0.084791481
1718 0.79080629
1716 1.9367499
1714 3.2063191
1712 4.09378
1710 4.6908622
1708 5.1297302
1706 5.7374468
1704 6.8481584
1702 8.7323618
1700 11.495876
1698 15.023334
1696 19.077
1694 22.80876
1692 25.909838
1690 28.62496
1688 31.152588
1686 34.411758
1684 38.458378
1682 43.22541
1680 48.50396
1678 52.963726
1676 56.669586
1674 60.304466
1672 63.988583
1670 68.399277
1668 73.361359
1666 78.301201
1664 83.12381
1662 87.554962
1660 91.592201
1658 95.228027
1656 98.45063
1654 101.26772
1652 103.4968
1650 104.94011
1648 105.21051
1646 103.97464
1644 101.74031
1642 99.047913
1640 96.035812
1638 92.868584
1636 89.1306
1634 84.705437
1632 80.075531
1630 75.425163
1628 71.021545
1626 66.908348
1624 62.676079
1622 58.28273
1620 53.93256
1618 49.644806
1616 45.521488
1614 41.587986
1612 38.052849
1610 34.946308
1608 32.362892
1606 30.277149
1604 28.514269
1602 27.072163
1600 25.884087
1598 24.953293
1596 24.249001
1594 23.758095
1592 23.4272
1590 23.233112
1588 23.128872
1586 23.130501
1584 23.247578
1582 23.516729
1580 23.956705
1578 24.654428
1576 25.630857
1574 26.862717
1572 28.312492
1570 29.746372
1568 31.10376
1566 32.349358
1564 33.489128
1562 34.831676
1560 36.46339
1558 38.783028
1556 41.801544
1554 44.69397
1552 47.292034
1550 49.192753
1548 50.442066
1546 51.580967
1544 52.557983
1542 53.298782
1540 53.559982
1538 52.935257
1536 51.594257
1534 49.894012
1532 48.07571
1530 46.493732
1528 45.071224
1526 43.7369
1524 42.326157
1522 40.714191
1520 38.821331
1518 36.545269
1516 34.240387
1514 32.026848
1512 29.91968
1510 27.986574
1508 25.718599
1506 23.002087
1504 20.240194
1502 17.456926
1500 15.128212
1498 13.3117
1496 11.574142
1494 9.930521
1492 8.3044052
1490 6.7221055
1488 5.1966624
1486 3.7596016
1484 2.4458139
1482 1.3216534
1480 0.50718689
1478 0.055396274
1476 0.017873093
1474 0.44354701
1472 1.2425523
1470 2.151475
1468 2.9663208
1466 3.648788
1464 4.2024527
1462 4.7959747
1460 5.5297122
1458 6.2965088
1456 7.05862
1454 7.5479956
1452 7.5790906
1450 7.4350076
1448 7.0499148
1446 6.6572146
1444 6.2605062
1442 5.8739648
1440 5.5163422
1438 5.1903424
1436 4.9106169
1434 4.6053767
1432 4.2836914
1430 3.9543455
1428 3.63943
1426 3.4345508
1424 3.358537
1422 3.4323142
1420 3.6440196
1418 3.9369495
1416 4.2565455
1414 4.5306211
1412 4.7434635
1410 4.9123259
1408 5.0717664
1406 5.2547135
1404 5.4734707
1402 5.7292643
1400 5.9952197
1398 6.2584863
1396 6.4580932
1394 6.5265479
1392 6.5134397
1390 6.3336511
1388 6.1080093
1386 5.8040953
1384 5.4713063
1382 5.1021371
1380 4.726294
1378 4.3530698
1376 3.98964
1374 3.6625228
1372 3.3680439
1370 3.1059365
1368 2.8670027
1366 2.6103201
1364 2.2980773
1362 1.9360952
1360 1.5120646
1358 1.0853055
1356 0.71753871
1354 0.40689039
1352 0.20615014
1350 0.061788663
1348 -0.01979889
1346 -0.054498784
1344 -0.03076648
1342 0.042121269
1340 0.21359199
1338 0.37632728
1336 0.49805456
1334 0.54880351
1332 0.43692422
1330 0.32814831
1328 0.23855206
1326 0.25208572
1324 0.43902412
1322 0.72084272
1320 1.1187028
1318 1.4982133
1316 1.83516
1314 2.0626366
1312 2.1669331
1310 2.1854298
1308 2.123138
1306 2.02596
1304 1.9045354
1302 1.773829
1300 1.6507229
1298 1.54847
1296 1.4679428
1294 1.4168884
1292 1.3807054
1290 1.3603283
1288 1.3466361
1286 1.3414036
1284 1.3414291
1282 1.348709
1280 1.3638028
1278 1.3944584
1276 1.4301786
1274 1.4818751
1272 1.5394297
1270 1.6166176
1268 1.7208371
1266 1.8666594
1264 2.0555303
1262 2.2920969
1260 2.54985
1258 2.8264105
1256 3.10062
1254 3.3817112
1252 3.6964636
1250 4.050168
1248 4.4700251
1246 4.92275
1244 5.3701358
1242 5.7831378
1240 6.0828495
1238 6.3039145
1236 6.3706799
1234 6.3689041
1232 6.2389841
1230 6.0631762
1228 5.7810097
1226 5.4571238
1224 5.0222974
1222 4.568944
1220 4.0734086
1218 3.593931
1216 3.1455314
1214 2.7055008
1212 2.2784266
1210 1.8452882
1208 1.4036183
1206 0.95953357
1204 0.5140124
1202 0.078653395
1200 -0.33894154
1198 -0.71821612
1196 -1.06363
1194 -1.3836557
1192 -1.6886206
1190 -1.9905679
1188 -2.2746696
1186 -2.4913929
1184 -2.6602764
1182 -2.7236328
1180 -2.7427578
1178 -2.6761885
1176 -2.57232
1174 -2.3628504
1172 -2.1287291
1170 -1.8248658
1168 -1.5218641
1166 -1.2257119
1164 -0.94538862
1162 -0.70535731
1160 -0.48139712
1158 -0.28706795
1156 -0.088401884
1154 0.11268573
1152 0.28278863
1150 0.40014178
1148 0.43519759
1146 0.38016355
1144 0.29465565
1142 0.18653707
1140 0.095734634
1138 0.02392468
1136 -0.0075021228
1134 0.0085461959
1132 0.16830577
1130 0.41022378
1128 0.79642779
1126 1.2145393
1124 1.5952225
1122 1.9440591
1120 2.1592441
1118 2.3535845
1116 2.5021799
1114 2.6698687
1112 2.922339
1110 3.1990588
1108 3.5472538
1106 3.853255
1104 4.0465016
1102 4.1530771
1100 4.096776
1098 4.0579109
1096 4.0657287
1094 4.2245698
1092 4.5800819
1090 5.0421653
1088 5.6051435
1086 6.1609464
1084 6.7141294
1082 7.2849026
1080 7.8618994
1078 8.4051962
1076 8.8983335
1074 9.1405811
1072 9.2622213
1070 9.1083412
1068 8.891346
1066 8.6597977
1064 8.4556322
1062 8.4686604
1060 8.5178747
1058 8.7311993
1056 8.9520178
1054 9.2058706
1052 9.4639645
1050 9.7361631
1048 10.009213
1046 10.282178
1044 10.54142
1042 10.766459
1040 10.933537
1038 11.007291
1036 10.9888
1034 10.862045
1032 10.685434
1030 10.461454
1028 10.214062
1026 9.9446373
1024 9.6205978
1022 9.2560844
1020 8.7686167
1018 8.2191305
1016 7.5177889
1014 6.7756009
1012 6.033987
1010 5.308404
1008 4.7615919
1006 4.2478399
1004 3.9465816
1002 3.6621671
1000 3.4784429
998 3.2702844
996 2.9512358
994 2.5712628
992 2.0020847
990 1.4184346
988 0.80631
986 0.26778114
984 -0.13671905
982 -0.44539261
980 -0.6231516
978 -0.75542831
976 -0.83904254
974 -0.88320321
972 -0.89310127
970 -0.84780735
968 -0.76695395
966 -0.6586045
964 -0.53676993
962 -0.39712334
960 -0.25411075
958 -0.14901748
956 -0.055913787
954 -0.040382355
952 -0.035210278
950 -0.05083416
948 -0.063335605
946 -0.018943394
944 0.0029841289
942 0.093322992
940 0.28706798
938 0.56303209
936 0.80263942
934 0.93487191
932 1.0062008
930 0.94827193
928 0.90234041
926 0.87802899
924 0.96223199
922 1.1805301
920 1.5065045
918 1.932494
916 2.3899529
914 2.8678515
912 3.2596784
910 3.6046221
908 3.6858528
906 3.6667993
904 3.3867171
902 3.0404356
900 2.745883
898 2.4606645
896 2.4359
