##TITLE=Methyl Ethyl Ketone
##JCAMP-DX=4.24
##DATA TYPE=INFRARED SPECTRUM
##XUNITS=cm-1
##YUNITS=Absorbance
##FIRSTX=900
##LASTX=2300
##XYDATA=(X++(Y..Y))
2296 0.038605999
2294 0.039408851
2292 0.0402117
2290 0.041014556
2288 0.041818399
2286 0.042621255
2284 0.043424107
2282 0.04422795
2280 0.04503081
2278 0.045833662
2276 0.046636514
2274 0.047442321
2272 0.048243251
2270 0.049038216
2268 0.049849737
2266 0.050683107
2264 0.051456332
2262 0.052147243
2260 0.053059366
2258 0.054281563
2256 0.054680258
2254 0.053921789
2252 0.056224506
2250 0.062843688
2248 0.058084846
2246 0.030626429
2244 0.0056562629
2242 0.0092610018
2240 0.029906347
2238 0.047439102
2236 0.050097257
2234 0.034668934
2232 0.022403141
2230 0.037148122
2228 0.084974073
2226 0.16239184
2224 0.24841988
2222 0.3199372
2220 0.36563188
2218 0.38189268
2216 0.38196516
2214 0.38223067
2212 0.39147142
2210 0.41309339
2208 0.43828282
2206 0.45678836
2204 0.46767592
2202 0.47290301
2200 0.47460851
2198 0.4744496
2196 0.47228497
2194 0.46788296
2192 0.46303251
2190 0.46026686
2188 0.46249712
2186 0.47287259
2184 0.49519441
2182 0.53057867
2180 0.5683831
2178 0.59601617
2176 0.60835457
2174 0.60591328
2172 0.60177112
2170 0.6100086
2168 0.63212967
2166 0.66400617
2164 0.6959604
2162 0.71794194
2160 0.72566509
2158 0.71820325
2156 0.700418
2154 0.67750442
2152 0.64826953
2150 0.6091733
2148 0.55630404
2146 0.48997858
2144 0.42826155
2142 0.39250919
2140 0.39228657
2138 0.42824006
2136 0.48210314
2134 0.53120756
2132 0.56179368
2130 0.56592971
2128 0.54550958
2126 0.50705755
2124 0.46189544
2122 0.42018059
2120 0.38041204
2118 0.33722505
2116 0.28721714
2114 0.23060021
2112 0.17909211
2110 0.14573066
2108 0.13134666
2106 0.13163413
2104 0.14055857
2102 0.1530855
2100 0.1701536
2098 0.1943361
2096 0.22545856
2094 0.26184836
2092 0.30050153
2090 0.33662701
2088 0.35983664
2086 0.35962102
2084 0.33394623
2082 0.28814638
2080 0.24395217
2078 0.22540468
2076 0.2396557
2074 0.28274676
2072 0.33391958
2070 0.36830956
2068 0.37096927
2066 0.33356306
2064 0.25721279
2062 0.14935215
2060 0.028318085
2058 -0.08356569
2056 -0.16547658
2054 -0.20329985
2052 -0.20751217
2050 -0.19943808
2048 -0.20263955
2046 -0.23414035
2044 -0.28158778
2042 -0.32072255
2040 -0.33022097
2038 -0.29687551
2036 -0.23368201
2034 -0.16314457
2032 -0.10023603
2030 -0.052716598
2028 -0.01425794
2026 0.026576098
2024 0.07742729
2022 0.14071144
2020 0.20528795
2018 0.25514224
2016 0.278846
2014 0.27008414
2012 0.23382278
2010 0.17950116
2008 0.11424869
2006 0.045603264
2004 -0.011485757
2002 -0.042299442
2000 -0.048099622
1998 -0.039963152
1996 -0.038082786
1994 -0.061584301
1992 -0.1088149
1990 -0.16794561
1988 -0.2267472
1986 -0.2755222
1984 -0.31340852
1982 -0.34227651
1980 -0.3576524
1978 -0.35164446
1976 -0.31605515
1974 -0.24467771
1972 -0.13943143
1970 -0.010765931
1968 0.111386
1966 0.18996565
1964 0.19763052
1962 0.12222646
1960 -0.0065652393
1958 -0.1402882
1956 -0.23843485
1954 -0.27458268
1952 -0.25907955
1950 -0.22126159
1948 -0.19312848
1946 -0.19979499
1944 -0.23674749
1942 -0.28344101
1940 -0.31652677
1938 -0.31830138
1936 -0.29660088
1934 -0.27241024
1932 -0.26530442
1930 -0.28837964
1928 -0.33444381
1926 -0.38340086
1924 -0.40536529
1922 -0.37440962
1920 -0.3007699
1918 -0.2151604
1916 -0.15056285
1914 -0.13120072
1912 -0.14489646
1910 -0.16393064
1908 -0.1797678
1906 -0.19832136
1904 -0.2347924
1902 -0.29956034
1900 -0.36408764
1898 -0.38131842
1896 -0.32041857
1894 -0.17468469
1892 0.0056898259
1890 0.14510779
1888 0.19429971
1886 0.13421379
1884 -0.0002968125
1882 -0.1505487
1880 -0.28268903
1878 -0.38407084
1876 -0.45958
1874 -0.51883703
1872 -0.5541625
1870 -0.55031765
1868 -0.50755
1866 -0.43920121
1864 -0.3711696
1862 -0.3307395
1860 -0.32263598
1858 -0.33780485
1856 -0.36949429
1854 -0.41351515
1852 -0.46454021
1850 -0.51622409
1848 -0.5620684
1846 -0.59607643
1844 -0.61438578
1842 -0.61457652
1840 -0.59469026
1838 -0.5537734
1836 -0.49470559
1834 -0.4223088
1832 -0.33947244
1830 -0.25080377
1828 -0.17537834
1826 -0.13925436
1824 -0.15763904
1822 -0.23264381
1820 -0.34357461
1818 -0.45814246
1816 -0.55432743
1814 -0.62059116
1812 -0.6552425
1810 -0.65972424
1808 -0.62466908
1806 -0.539855
1804 -0.42650703
1802 -0.32758257
1800 -0.28548577
1798 -0.32402235
1796 -0.39611429
1794 -0.41559824
1792 -0.33470958
1790 -0.15173911
1788 0.07069429
1786 0.24149987
1784 0.32268956
1782 0.3247222
1780 0.28903848
1778 0.2689774
1776 0.29793429
1774 0.38283765
1772 0.48273659
1770 0.53179026
1768 0.4951888
1766 0.37490821
1764 0.221735
1762 0.10397138
1760 0.025932062
1758 -0.049242981
1756 -0.11671927
1754 -0.13850912
1752 -0.094141826
1750 0.0095832124
1748 0.12219776
1746 0.16959536
1744 0.10546534
1742 -0.074117348
1740 -0.29085153
1738 -0.4220731
1736 -0.40757799
1734 -0.25905609
1732 -0.066651799
1730 0.044985138
1728 0.029888988
1726 -0.078735068
1724 -0.19214018
1722 -0.18929699
1720 0.04879567
1718 0.60457033
1716 1.4191773
1714 2.3307958
1712 3.2048576
1710 3.9746611
1708 4.714622
1706 5.607316
1704 6.8484979
1702 8.6201763
1700 11.068135
1698 14.242699
1696 17.870714
1694 21.463301
1692 24.712357
1690 27.571987
1688 30.361641
1686 33.638123
1684 37.818531
1682 43.026493
1680 48.742199
1678 54.076649
1676 58.793697
1674 63.286606
1672 67.959984
1670 73.026215
1668 78.229919
1666 82.990845
1664 86.986603
1662 90.193375
1660 92.668831
1658 94.485931
1656 95.689316
1654 96.29863
1652 96.349159
1650 95.905159
1648 95.075066
1646 93.996895
1644 92.794556
1642 91.543938
1640 90.176048
1638 88.499367
1636 86.334518
1634 83.570732
1632 80.264755
1630 76.595573
1628 72.635536
1626 68.338524
1624 63.689121
1622 58.748917
1620 53.706703
1618 48.844925
1616 44.365486
1614 40.364708
1612 36.880016
1610 33.901089
1608 31.364382
1606 29.169329
1604 27.250759
1602 25.592434
1600 24.211468
1598 23.144211
1596 22.404999
1594 21.977896
1592 21.819115
1590 21.867409
1588 22.083803
1586 22.456772
1584 22.994125
1582 23.7246
1580 24.712414
1578 26.048687
1576 27.801201
1574 29.991488
1572 32.545612
1570 35.301666
1568 38.098843
1566 40.803207
1564 43.325779
1562 45.655552
1560 47.974979
1558 50.58213
1556 53.396889
1554 55.927101
1552 57.768749
1550 58.758511
1548 59.022823
1546 58.904144
1544 58.514469
1542 57.665512
1540 56.166222
1538 53.945751
1536 51.218998
1534 48.457005
1532 45.970055
1530 43.807453
1528 41.901718
1526 40.110901
1524 38.277126
1522 36.263195
1520 34.031029
1518 31.663717
1516 29.3237
1514 27.199242
1512 25.291
1510 23.381804
1508 21.274746
1506 18.889057
1504 16.351126
1502 13.976072
1500 11.944171
1498 10.216063
1496 8.6849718
1494 7.2298698
1492 5.8011179
1490 4.4380255
1488 3.1817343
1486 2.0559971
1484 1.0994673
1482 0.37080327
1480 -0.085097075
1478 -0.23715276
1476 -0.011645019
1474 0.69426191
1472 1.8392692
1470 3.2003632
1468 4.5733213
1466 5.8421545
1464 6.9836173
1462 8.067152
1460 9.1651812
1458 10.312728
1456 11.4552
1454 12.436821
1452 13.114097
1450 13.402454
1448 13.30984
1446 12.947036
1444 12.426014
1442 11.82469
1440 11.178714
1438 10.479127
1436 9.6983385
1434 8.8052273
1432 7.8254786
1430 6.861299
1428 6.0149498
1426 5.3580832
1424 4.9129286
1422 4.6430964
1420 4.503777
1418 4.4602623
1416 4.4995942
1414 4.636035
1412 4.8858757
1410 5.2570572
1408 5.7391415
1406 6.2954984
1404 6.8702655
1402 7.3883147
1400 7.7713079
1398 7.9492035
1396 7.8920569
1394 7.6305966
1392 7.23312
1390 6.7970181
1388 6.3894596
1386 6.0213251
1384 5.6835217
1382 5.3562121
1380 5.0221472
1378 4.66998
1376 4.2811055
1374 3.8281369
1372 3.302664
1370 2.7285242
1368 2.1367836
1366 1.5568972
1364 1.0087204
1362 0.50129294
1360 0.061276913
1358 -0.25684631
1356 -0.41156071
1354 -0.39254707
1352 -0.20260938
1350 0.14383692
1348 0.61879039
1346 1.1781811
1344 1.7828159
1342 2.4054382
1340 3.0119717
1338 3.5519753
1336 3.9645972
1334 4.1838713
1332 4.1768284
1330 3.9691949
1328 3.6163268
1326 3.199378
1324 2.7955837
1322 2.4620728
1320 2.2292194
1318 2.0877538
1316 2.00863
1314 1.9461849
1312 1.8616874
1310 1.7369363
1308 1.5718869
1306 1.3900907
1304 1.2215965
1302 1.097928
1300 1.0459106
1298 1.0833124
1296 1.222
1294 1.4663125
1292 1.8154808
1290 2.2610626
1288 2.784492
1286 3.3523779
1284 3.9258854
1282 4.4645581
1280 4.9353137
1278 5.3203502
1276 5.6129942
1274 5.8209257
1272 5.9632263
1270 6.0737448
1268 6.1907301
1266 6.3535295
1264 6.5964365
1262 6.9429951
1260 7.4121923
1258 8.017787
1256 8.7649174
1254 9.6439686
1252 10.63478
1250 11.703419
1248 12.817371
1246 13.94975
1244 15.068694
1242 16.134142
1240 17.094627
1238 17.883457
1236 18.435057
1234 18.698345
1232 18.632561
1230 18.216148
1228 17.449301
1226 16.373285
1224 15.056692
1222 13.604043
1220 12.134686
1218 10.772056
1216 9.623045
1214 8.7561626
1212 8.2087049
1210 7.9686451
1208 7.9916677
1206 8.1894398
1204 8.4527102
1202 8.652421
1200 8.6726332
1198 8.439642
1196 7.9289141
1194 7.1998711
1192 6.3425016
1190 5.465816
1188 4.655478
1186 3.9368315
1184 3.3122177
1182 2.7665505
1180 2.2922966
1178 1.9071505
1176 1.63024
1174 1.4694958
1172 1.4209257
1170 1.4588858
1168 1.5504909
1166 1.6575407
1164 1.7441202
1162 1.7832819
1160 1.7605016
1158 1.6846014
1156 1.5720242
1154 1.4424453
1152 1.3084903
1150 1.1649525
1148 1.0028806
1146 0.81632715
1144 0.6091339
1142 0.4055658
1140 0.22152197
1138 0.04338716
1136 -0.13784543
1134 -0.30408889
1132 -0.43387231
1130 -0.51332247
1128 -0.53186721
1126 -0.48318771
1124 -0.36708397
1122 -0.19644916
1120 0.0068107694
1118 0.20726997
1116 0.37446758
1114 0.49918205
1112 0.5873754
1110 0.66881227
1108 0.76721805
1106 0.87709999
1104 0.98560905
1102 1.080442
1100 1.1621971
1098 1.2632771
1096 1.4160286
1094 1.6317817
1092 1.911752
1090 2.2437944
1088 2.6169326
1086 3.0300856
1084 3.4685135
1082 3.8762689
1080 4.1870446
1078 4.3370099
1076 4.2952199
1074 4.1171112
1072 3.8780308
1070 3.649076
1068 3.4799924
1066 3.3661799
1064 3.2912281
1062 3.2427161
1060 3.2103236
1058 3.1872246
1056 3.169137
1054 3.1572809
1052 3.1538908
1050 3.1611381
1048 3.1763508
1046 3.1847286
1044 3.1722269
1042 3.1365561
1040 3.085336
1038 3.0460045
1036 3.04846
1034 3.1151607
1032 3.2505608
1030 3.4124246
1028 3.5457628
1026 3.5929322
1024 3.5157821
1022 3.3354509
1020 3.0858231
1018 2.7942197
1016 2.4775715
1014 2.1267309
1012 1.7395272
1010 1.3542235
1008 1.0163864
1006 0.76054263
1004 0.59849852
1002 0.47904086
1000 0.34406176
998 0.16287546
996 -0.075053841
994 -0.33803889
992 -0.58861566
990 -0.80438381
988 -0.97344691
986 -1.1056592
984 -1.2097051
982 -1.2731372
980 -1.281616
978 -1.232424
976 -1.13752
974 -1.0482662
972 -1.0133811
970 -1.0393735
968 -1.107612
966 -1.1499549
964 -1.102299
962 -0.95653313
960 -0.73136604
958 -0.48901498
956 -0.29163045
954 -0.16331029
952 -0.10779431
950 -0.090669408
948 -0.072451651
946 -0.029165536
944 0.057923287
942 0.20232995
940 0.40764773
938 0.64671451
936 0.89277482
934 1.1480362
932 1.4138029
930 1.6612304
928 1.8583125
926 1.9883386
924 2.0449259
922 2.0455704
920 2.0113382
918 1.9551566
916 1.8889685
914 1.8311911
912 1.7998937
910 1.808597
908 1.868726
906 1.9886786
904 2.1675594
902 2.3700948
900 2.5551908
898 2.6916852
896 2.7511001
