##TITLE=Methyl Ethyl Ketone
##JCAMP-DX=4.24
##DATA TYPE=INFRARED SPECTRUM
##XUNITS=cm-1
##YUNITS=Absorbance
##FIRSTX=900
##LASTX=2300
##XYDATA=(X++(Y..Y))
2296 0.10113
2294 0.103227
2292 0.10533397
2290 0.10744096
2288 0.109538
2286 0.11164493
2284 0.11375192
2282 0.115849
2280 0.11795589
2278 0.12006287
2276 0.12216985
2274 0.124267
2272 0.12637383
2270 0.12848081
2268 0.130578
2266 0.1326848
2264 0.13479176
2262 0.136889
2260 0.13899575
2258 0.14110273
2256 0.1432
2254 0.14530671
2252 0.14741369
2250 0.14951099
2248 0.15161766
2246 0.15372464
2244 0.081855312
2242 0.0030502286
2240 -0.065992318
2238 -0.11456938
2236 -0.16016699
2234 -0.12219025
2232 -0.07634934
2230 0.011226427
2228 0.09199553
2226 0.10263565
2224 0.099943183
2222 0.052701212
2220 0.01738444
2218 0.02571384
2216 0.042970628
2214 0.074355192
2212 0.07983768
2210 0.041680366
2208 -0.01267568
2206 -0.083886549
2204 -0.12809765
2202 -0.14525533
2200 -0.12753102
2198 -0.085039355
2196 -0.029214215
2194 0.033358622
2192 0.099047661
2190 0.16590488
2188 0.21747354
2186 0.2640498
2184 0.2935788
2182 0.31925359
2180 0.33520636
2178 0.34896865
2176 0.29913944
2174 0.24069312
2172 0.15077068
2170 0.0667907
2168 0.034056254
2166 0.0096545834
2164 -0.0025278523
2162 -0.013077
2160 -0.022571759
2158 -0.012991469
2156 0.032552101
2154 0.069962963
2152 0.090213582
2150 0.063735187
2148 -0.013368139
2146 -0.11134022
2144 -0.22308451
2142 -0.3140482
2140 -0.38955984
2138 -0.42768899
2136 -0.44631687
2134 -0.44831842
2132 -0.44414523
2130 -0.44959253
2128 -0.4582848
2126 -0.47712469
2124 -0.49824557
2122 -0.53165007
2120 -0.56625277
2118 -0.58714932
2116 -0.59682769
2114 -0.53741759
2112 -0.45493358
2110 -0.31470242
2108 -0.16812749
2106 -0.027924035
2104 0.093792595
2102 0.17683043
2100 0.23377641
2098 0.25654823
2096 0.26026857
2094 0.24569182
2092 0.2021772
2090 0.13145451
2088 0.029424407
2086 -0.095328152
2084 -0.19492517
2082 -0.27588084
2080 -0.3072415
2078 -0.31375033
2076 -0.30433744
2074 -0.28953883
2072 -0.26512557
2070 -0.23777027
2068 -0.22538225
2066 -0.2180485
2064 -0.28162554
2062 -0.35955945
2060 -0.44379029
2058 -0.51653582
2056 -0.51929116
2054 -0.50295639
2052 -0.46737382
2050 -0.43661219
2048 -0.42764434
2046 -0.43387428
2044 -0.46115798
2042 -0.50584769
2040 -0.57110345
2038 -0.63660383
2036 -0.69813818
2034 -0.73907053
2032 -0.76065803
2030 -0.7670384
2028 -0.76386505
2026 -0.75339347
2024 -0.73906457
2022 -0.7079376
2020 -0.66824919
2018 -0.64543569
2016 -0.63037205
2014 -0.64876205
2012 -0.6784488
2010 -0.64551473
2008 -0.5952394
2006 -0.53407717
2004 -0.49069032
2002 -0.59137499
2000 -0.74291229
1998 -0.95487493
1996 -1.1537642
1994 -1.2666405
1992 -1.3374423
1990 -1.3629307
1988 -1.383026
1986 -1.4146607
1984 -1.4378428
1982 -1.4454029
1980 -1.4295754
1978 -1.3908489
1976 -1.3240457
1974 -1.235513
1972 -1.0951251
1970 -0.9179846
1968 -0.76099861
1966 -0.6211459
1964 -0.63223994
1962 -0.72196901
1960 -0.8547048
1958 -1.0019705
1956 -1.0499386
1954 -1.0610548
1952 -1.0501245
1950 -1.0363894
1948 -1.05434
1946 -1.08365
1944 -1.1206685
1942 -1.1574224
1940 -1.1892443
1938 -1.2166492
1936 -1.23744
1934 -1.2552009
1932 -1.269024
1930 -1.2850034
1928 -1.3047588
1926 -1.2866572
1924 -1.2166668
1922 -1.0540578
1920 -0.8071478
1918 -0.57881641
1916 -0.38741016
1914 -0.29762352
1912 -0.27884081
1910 -0.30735472
1908 -0.35709757
1906 -0.46140864
1904 -0.59409559
1902 -0.70048994
1900 -0.79355568
1898 -0.75081819
1896 -0.65208572
1894 -0.51587719
1892 -0.38217992
1890 -0.36611581
1888 -0.42253989
1886 -0.5994454
1884 -0.82121974
1882 -1.043503
1880 -1.2421697
1878 -1.3842951
1876 -1.46339
1874 -1.459595
1872 -1.3538944
1870 -1.1344842
1868 -0.89510083
1866 -0.67815751
1864 -0.62490326
1862 -0.74054253
1860 -0.95959485
1858 -1.231005
1856 -1.4535514
1854 -1.6277387
1852 -1.6818486
1850 -1.6604491
1848 -1.52862
1846 -1.3372107
1844 -1.2263354
1842 -1.163595
1840 -1.2533994
1838 -1.406894
1836 -1.4821528
1834 -1.4887019
1832 -1.3159834
1830 -1.0369675
1828 -0.66647422
1826 -0.32455707
1824 -0.17259875
1822 -0.21460199
1820 -0.50180042
1818 -0.87546605
1816 -1.2298257
1814 -1.4849607
1812 -1.6055368
1810 -1.6272564
1808 -1.5842205
1806 -1.475105
1804 -1.317324
1802 -1.1256711
1800 -0.91334736
1798 -0.72489101
1796 -0.55885285
1794 -0.37725294
1792 -0.1836724
1790 -0.0031854548
1788 0.16537879
1786 0.24351642
1784 0.26829392
1782 0.28021336
1780 0.29678813
1778 0.3963339
1776 0.55016142
1774 0.74765092
1772 0.91196626
1770 0.89433014
1768 0.74378216
1766 0.47988015
1764 0.23103979
1762 0.11958489
1760 0.038105387
1758 -0.086360082
1756 -0.14317785
1754 -0.080966428
1752 0.20620754
1750 0.71952057
1748 1.2637589
1746 1.7651857
1744 1.8942182
1742 1.6759465
1740 1.3537214
1738 1.00554
1736 0.98263597
1734 1.2151124
1732 1.386116
1730 1.4791592
1728 1.1696273
1726 0.6067118
1724 0.16555515
1722 -0.11649179
1720 0.0816468
1718 0.71582389
1716 1.7338572
1714 2.8526158
1712 3.6742601
1710 4.2996387
1708 4.8469419
1706 5.6067505
1704 6.8502336
1702 8.7888317
1700 11.500383
1698 14.831663
1696 18.587143
1694 22.04154
1692 24.93222
1690 27.545275
1688 30.043709
1686 33.308994
1684 37.378071
1682 42.139938
1680 47.399559
1678 51.924221
1676 55.775169
1674 59.676632
1672 63.702713
1670 68.359024
1668 73.447884
1666 78.263855
1664 82.779465
1662 86.845276
1660 90.507751
1658 93.839706
1656 96.849426
1654 99.556145
1652 101.7676
1650 103.27397
1648 103.55292
1646 102.215
1644 99.836967
1642 96.99678
1640 93.933701
1638 90.828873
1636 87.244019
1634 83.049278
1632 78.648407
1630 74.206734
1628 69.966331
1626 65.958801
1624 61.749798
1622 57.30143
1620 52.872055
1618 48.491783
1616 44.343086
1614 40.448448
1612 36.943634
1610 33.856449
1608 31.243275
1606 29.086143
1604 27.245789
1602 25.726862
1600 24.48196
1598 23.511242
1596 22.771
1594 22.243149
1592 21.871325
1590 21.646687
1588 21.541286
1586 21.599293
1584 21.8398
1582 22.29694
1580 22.974384
1578 23.937265
1576 25.195372
1574 26.686947
1572 28.377342
1570 30.025917
1568 31.577198
1566 33.009235
1564 34.323967
1562 35.853493
1560 37.700691
1558 40.438309
1556 44.040356
1554 47.427891
1552 50.372772
1550 52.245926
1548 53.160843
1546 53.932678
1544 54.563549
1542 55.104332
1540 55.278061
1538 54.68166
1536 53.412285
1534 51.714825
1532 49.901798
1530 48.32983
1528 46.992897
1526 45.87595
1524 44.768574
1522 43.53513
1520 41.864017
1518 39.577164
1516 37.121727
1514 34.627014
1512 32.308041
1510 30.243683
1508 27.823351
1506 24.916328
1504 21.979565
1502 19.070148
1500 16.667583
1498 14.83282
1496 13.052285
1494 11.33644
1492 9.6521225
1490 8.0117512
1488 6.418766
1486 4.8713908
1484 3.3460841
1482 1.957387
1480 0.88035023
1478 0.20469889
1476 0.036754161
1474 0.41872513
1472 1.2708993
1470 2.2516241
1468 3.1275163
1466 3.8633463
1464 4.4249864
1462 5.0432253
1460 5.8388438
1458 6.7497687
1456 7.7891002
1454 8.5559912
1452 8.8643026
1450 8.8749266
1448 8.4714603
1446 8.0167398
1444 7.4980359
1442 6.9972262
1440 6.5320702
1438 6.1259713
1436 5.7902374
1434 5.46977
1432 5.1584792
1430 4.8242154
1428 4.4960399
1426 4.2495742
1424 4.1174421
1422 4.1348414
1420 4.2789688
1418 4.5036817
1416 4.7592916
1414 4.9909859
1412 5.2036467
1410 5.4058514
1408 5.6168847
1406 5.8549242
1404 6.1077766
1402 6.3729324
1400 6.6291757
1398 6.8634076
1396 7.0448642
1394 7.1266632
1392 7.1264315
1390 6.980402
1388 6.7688169
1386 6.4565701
1384 6.1117954
1382 5.7292328
1380 5.3593826
1378 5.0051684
1376 4.6518688
1374 4.2941008
1372 3.90715
1370 3.4966276
1368 3.0883389
1366 2.6754649
1364 2.2532599
1362 1.8174169
1360 1.3568674
1358 0.91556072
1356 0.54933542
1354 0.26237983
1352 0.10304766
1350 0.015333809
1348 0.018771403
1346 0.094376072
1344 0.25905281
1342 0.4764705
1340 0.78702569
1338 1.0538714
1336 1.2156143
1334 1.2756555
1332 1.1512829
1330 1.0283465
1328 0.92013603
1326 0.8838923
1324 0.96267426
1322 1.1205802
1320 1.3789788
1318 1.6732206
1316 1.9864099
1314 2.2421134
1312 2.4234869
1310 2.5181022
1308 2.5351899
1306 2.4986007
1304 2.4224782
1302 2.316596
1300 2.2024825
1298 2.0982282
1296 2.0161142
1294 1.9834869
1292 1.9835632
1290 2.0396521
1288 2.117332
1286 2.2301307
1284 2.3445015
1282 2.4554012
1280 2.5590549
1278 2.6466296
1276 2.7357516
1274 2.830584
1272 2.936115
1270 3.0628185
1268 3.207773
1266 3.3855994
1264 3.6069086
1262 3.8875239
1260 4.2182503
1258 4.5926766
1256 4.9571772
1254 5.3095942
1252 5.6458497
1250 5.993577
1248 6.4177866
1246 6.8997002
1244 7.4490523
1242 8.0024796
1240 8.4835463
1238 8.8886948
1236 9.1104546
1234 9.2336655
1232 9.1466074
1230 8.9807043
1228 8.6276035
1226 8.2271929
1224 7.7060232
1222 7.1744218
1220 6.6186647
1218 6.065484
1216 5.516223
1214 4.9617505
1212 4.4072905
1210 3.8970985
1208 3.4624853
1206 3.1169651
1204 2.8702819
1202 2.6370645
1200 2.395956
1198 2.0660734
1196 1.6633357
1194 1.2191317
1192 0.77621329
1190 0.43723881
1188 0.16898073
1186 0.0044216737
1184 -0.12861681
1182 -0.27102077
1180 -0.40849489
1178 -0.51685739
1176 -0.583574
1174 -0.49711832
1172 -0.37683433
1170 -0.16162343
1168 0.03971456
1166 0.19815893
1164 0.34939587
1162 0.48616961
1160 0.64453852
1158 0.84288073
1156 1.0286459
1154 1.1840476
1152 1.2725583
1150 1.2632536
1148 1.1788579
1146 1.0080179
1144 0.78591841
1142 0.52458668
1140 0.28048998
1138 0.068107367
1136 -0.036347456
1134 -0.057355225
1132 0.096290484
1130 0.33806258
1128 0.69204158
1126 1.0736257
1124 1.43978
1122 1.7859064
1120 2.0404398
1118 2.2746632
1116 2.4458916
1114 2.624336
1112 2.8372023
1110 3.0546477
1108 3.2814918
1106 3.4621201
1104 3.5276127
1102 3.565696
1100 3.5582941
1098 3.6049552
1096 3.7408857
1094 3.9329996
1092 4.1985264
1090 4.5054121
1088 4.8567104
1086 5.2407889
1084 5.6449289
1082 6.0145869
1080 6.3536959
1078 6.6200333
1076 6.8431787
1074 6.9908514
1072 7.1007514
1070 7.1172905
1068 7.1060948
1066 7.0433607
1064 6.977272
1062 6.9357638
1060 6.9033265
1058 6.9212036
1056 6.9496489
1054 7.0248837
1052 7.1071668
1050 7.2126303
1048 7.328465
1046 7.470118
1044 7.6250439
1042 7.8007236
1040 7.9428682
1038 8.0283356
1036 8.0289097
1034 7.9273834
1032 7.7576575
1030 7.5259471
1028 7.2735257
1026 7.0065823
1024 6.7362947
1022 6.461782
1020 6.1610188
1018 5.8425345
1016 5.4432545
1014 5.015945
1012 4.5202088
1010 4.0171523
1008 3.5619559
1006 3.1165843
1004 2.7389708
1002 2.3620391
1000 1.986884
998 1.6157159
996 1.2630651
994 0.92299867
992 0.62267542
990 0.3359094
988 0.080606431
986 -0.16406685
984 -0.3902739
982 -0.61794686
980 -0.84602159
978 -1.0505897
976 -1.22568
974 -1.306551
972 -1.3067403
970 -1.1970707
968 -1.0172989
966 -0.77105153
964 -0.49792057
962 -0.28529775
960 -0.09940055
958 -0.063329145
956 -0.059298057
954 -0.054801412
952 -0.04933776
950 -0.021299753
948 0.0054870551
946 0.0018078429
944 0.0020846054
942 0.06579788
940 0.2221266
938 0.51546299
936 0.79278743
934 1.0227022
932 1.2273854
930 1.3786024
928 1.5436902
926 1.7316236
924 1.943006
922 2.1819561
920 2.3669143
918 2.5007424
916 2.5727072
914 2.6018724
912 2.685488
910 2.7982671
908 2.9348547
906 3.0810678
904 3.2303617
902 3.381711
900 3.7105229
898 4.0682788
896 4.6127
