##TITLE=Methyl Ethyl Ketone
##JCAMP-DX=4.24
##DATA TYPE=INFRARED SPECTRUM
##XUNITS=cm-1
##YUNITS=Absorbance
##FIRSTX=900
##LASTX=2300
##XYDATA=(X++(Y..Y))
2296 0.17723
2294 0.18091473
2292 0.18459944
2290 0.18828419
2288 0.19197886
2286 0.19566365
2284 0.19934836
2282 0.2030331
2280 0.20672771
2278 0.21041256
2276 0.21409728
2274 0.21779186
2272 0.22146691
2270 0.22513184
2268 0.2288456
2266 0.23262879
2264 0.23621795
2262 0.23952961
2260 0.24358508
2258 0.24868077
2256 0.25100571
2254 0.2494501
2252 0.25817525
2250 0.28139096
2248 0.26639989
2246 0.17165822
2244 0.064079367
2242 0.025117034
2240 0.072338037
2238 0.18681018
2236 0.27620485
2234 0.25403279
2232 0.1411404
2230 -0.0064858641
2228 -0.11615084
2226 -0.129161
2224 -0.0616428
2222 0.045061678
2220 0.13629317
2218 0.16699789
2216 0.14575
2214 0.1004919
2212 0.072480701
2210 0.099224061
2208 0.18757829
2206 0.3276363
2204 0.47925448
2202 0.60251886
2200 0.69531822
2198 0.77115124
2196 0.85884714
2194 0.98080468
2192 1.1146855
2190 1.2306231
2188 1.3261409
2186 1.4117215
2184 1.515552
2182 1.6568254
2180 1.7948906
2178 1.8744291
2176 1.8594885
2174 1.740563
2172 1.5887666
2170 1.4934729
2168 1.5111126
2166 1.6641042
2164 1.8828329
2162 2.0741866
2160 2.1728251
2158 2.1452625
2156 2.04914
2154 1.9649475
2152 1.9424251
2150 2.0041268
2148 2.1087089
2146 2.2016287
2144 2.265599
2142 2.2977431
2140 2.3005445
2138 2.276015
2136 2.2201114
2134 2.1342449
2132 2.053448
2130 2.0171282
2128 2.03374
2126 2.094398
2124 2.166256
2122 2.2153955
2120 2.2384109
2118 2.2465737
2116 2.2649157
2114 2.3163939
2112 2.3968339
2110 2.4875038
2108 2.5515563
2106 2.5548465
2104 2.4996536
2102 2.4052017
2100 2.302562
2098 2.2219901
2096 2.1751001
2094 2.1648214
2092 2.187593
2090 2.2366309
2088 2.3002536
2086 2.3666101
2084 2.430654
2082 2.4923146
2080 2.559124
2078 2.6386626
2076 2.72633
2074 2.811569
2072 2.8796
2070 2.9161634
2068 2.916512
2066 2.8815029
2064 2.820488
2062 2.7461531
2060 2.6703777
2058 2.6027369
2056 2.5431113
2054 2.4884343
2052 2.4384749
2050 2.3943734
2048 2.3560252
2046 2.3219643
2044 2.2860701
2042 2.2409453
2040 2.1823909
2038 2.1094503
2036 2.02881
2034 1.9532859
2032 1.9075921
2030 1.918911
2028 2.0030251
2026 2.1646836
2024 2.3848393
2022 2.629565
2020 2.8472013
2018 2.9820664
2016 2.9941599
2014 2.8652258
2012 2.6370637
2010 2.3763154
2008 2.1395936
2006 1.96798
2004 1.8622137
2002 1.8052961
2000 1.7827617
1998 1.7815253
1996 1.7847714
1994 1.77452
1992 1.7355669
1990 1.6596473
1988 1.560938
1986 1.4626229
1984 1.3791617
1982 1.3195114
1980 1.2895914
1978 1.2945244
1976 1.3407772
1974 1.431062
1972 1.5489649
1970 1.6659516
1968 1.7428012
1966 1.7415915
1964 1.6506023
1962 1.4801422
1960 1.277552
1958 1.1017255
1956 0.98664284
1954 0.94394141
1952 0.94931477
1950 0.96351731
1948 0.95737177
1946 0.91232753
1944 0.82768238
1942 0.7135731
1940 0.58920151
1938 0.47654688
1936 0.39210543
1934 0.34749869
1932 0.34712979
1930 0.39302272
1928 0.49228641
1926 0.64920014
1924 0.84264845
1922 1.0300796
1920 1.1360245
1918 1.0896209
1916 0.91302598
1914 0.68279105
1912 0.48575222
1910 0.38925427
1908 0.3701238
1906 0.36242899
1904 0.3325952
1902 0.27824432
1900 0.23539911
1898 0.24955419
1896 0.32188573
1894 0.42285079
1892 0.5058167
1890 0.52559322
1888 0.47543961
1886 0.37545693
1884 0.26388049
1882 0.18000406
1880 0.13095583
1878 0.10646789
1876 0.105532
1874 0.13646071
1872 0.21646041
1870 0.35566807
1868 0.51275373
1866 0.6195628
1864 0.62654656
1862 0.51100409
1860 0.30626312
1858 0.076451115
1856 -0.12134497
1854 -0.23935509
1852 -0.23763034
1850 -0.091447525
1848 0.17386033
1846 0.49558499
1844 0.78007853
1842 0.93487996
1840 0.94433618
1838 0.84892654
1836 0.71762741
1834 0.62567312
1832 0.61996388
1830 0.71716976
1828 0.88512945
1826 1.0607667
1824 1.1725205
1822 1.1615064
1820 1.0359151
1818 0.84990984
1816 0.66841227
1814 0.54813808
1812 0.499542
1810 0.50435722
1808 0.55296785
1806 0.64563549
1804 0.78528953
1802 0.96969563
1800 1.1701823
1798 1.3407199
1796 1.4372857
1794 1.4236178
1792 1.2822961
1790 1.0210725
1788 0.70648366
1786 0.43609592
1784 0.27246508
1782 0.24478534
1780 0.36214951
1778 0.61296225
1776 0.93823427
1774 1.2411509
1772 1.3980097
1770 1.3013839
1768 0.98683608
1766 0.59372258
1764 0.26344639
1762 0.091791198
1760 0.020435384
1758 -0.088299587
1756 -0.23424444
1754 -0.3098312
1752 -0.24070081
1750 -0.013084285
1748 0.29073051
1746 0.53455818
1744 0.63405871
1742 0.57453763
1740 0.44446525
1738 0.37896678
1736 0.403788
1734 0.44539228
1732 0.39633885
1730 0.16646899
1728 -0.19577038
1726 -0.53322977
1724 -0.6817959
1722 -0.50533009
1720 0.049812555
1718 0.94528198
1716 2.0027943
1714 2.9673996
1712 3.6921246
1710 4.1652217
1708 4.5447841
1706 5.1027794
1704 6.0889769
1702 7.6892509
1700 9.9564285
1698 12.797235
1696 15.904857
1694 18.861971
1692 21.477098
1690 23.814804
1688 26.169607
1686 28.949816
1684 32.366325
1682 36.362156
1680 40.492962
1678 44.137573
1676 47.221943
1674 50.17403
1672 53.412743
1670 57.184517
1668 61.340778
1666 65.45285
1664 69.273643
1662 72.780602
1660 76.02636
1658 79.099739
1656 82.117599
1654 85.192505
1652 88.327538
1650 91.366859
1648 93.870964
1646 95.272858
1644 95.497154
1642 94.925133
1640 93.861526
1638 92.422348
1636 90.551659
1634 88.111099
1632 85.164261
1630 81.956398
1628 78.623993
1626 75.155449
1624 71.484123
1622 67.545158
1620 63.390453
1618 59.177391
1616 55.04583
1614 51.092987
1612 47.406029
1610 44.059811
1608 41.075882
1606 38.428692
1604 36.087933
1602 34.031258
1600 32.243256
1598 30.709982
1596 29.403
1594 28.279491
1592 27.304594
1590 26.460352
1588 25.762014
1586 25.252378
1584 24.958559
1582 24.886089
1580 25.047709
1578 25.464878
1576 26.138544
1574 27.032381
1572 28.033651
1570 28.975361
1568 29.78216
1566 30.494864
1564 31.2017
1562 32.04126
1560 33.280514
1558 35.233803
1556 37.814342
1554 40.505772
1552 42.841446
1550 44.570648
1548 45.793053
1546 46.908394
1544 48.145416
1542 49.450165
1540 50.61208
1538 51.341309
1536 51.501087
1534 51.166523
1532 50.53146
1530 49.849079
1528 49.2472
1526 48.684849
1524 48.05003
1522 47.193336
1520 45.982723
1518 44.346966
1516 42.379299
1514 40.321369
1512 38.269558
1510 36.105301
1508 33.641403
1506 30.719179
1504 27.464041
1502 24.295788
1500 21.484444
1498 19.02989
1496 16.814001
1494 14.660537
1492 12.477854
1490 10.292009
1488 8.1406059
1486 6.0559082
1484 4.11589
1482 2.4512835
1480 1.169978
1478 0.34331438
1476 0.067064658
1474 0.43557021
1472 1.3224239
1470 2.3517361
1468 3.2683649
1466 4.0509286
1464 4.7751651
1462 5.5553746
1460 6.394206
1458 7.1367426
1456 7.5921597
1454 7.6045952
1452 7.2231855
1450 6.7300062
1448 6.3010006
1446 5.9087143
1444 5.511754
1442 5.112021
1440 4.7392569
1438 4.4373531
1436 4.1948013
1434 3.9265437
1432 3.5635784
1430 3.0921934
1428 2.5719621
1426 2.1389022
1424 1.901096
1422 1.8939492
1420 2.0787377
1418 2.3394072
1416 2.5679772
1414 2.7018151
1412 2.7451603
1410 2.7785134
1408 2.8749468
1406 3.0698373
1404 3.3752997
1402 3.7782476
1400 4.240788
1398 4.698123
1396 5.086
1394 5.3555236
1392 5.4927907
1390 5.5273895
1388 5.4810328
1386 5.3517852
1384 5.1459208
1382 4.891655
1380 4.6304879
1378 4.4101548
1376 4.2411399
1374 4.0776114
1372 3.8733699
1370 3.6045036
1368 3.2736342
1366 2.9119871
1364 2.5325179
1362 2.1142831
1360 1.6519486
1358 1.1778474
1356 0.74079645
1354 0.39609295
1352 0.16550481
1350 0.018453129
1348 -0.070175081
1346 -0.097847179
1344 -0.054349396
1342 0.06667693
1340 0.23402211
1338 0.36268744
1336 0.38853085
1334 0.30683336
1332 0.16108607
1330 0.045852639
1328 0.030910961
1326 0.12478397
1324 0.31390834
1322 0.57031387
1320 0.85895038
1318 1.1389232
1316 1.37128
1314 1.5253743
1312 1.5889423
1310 1.5783073
1308 1.521588
1306 1.454595
1304 1.4085548
1302 1.4023069
1300 1.4411283
1298 1.5114775
1296 1.5964999
1294 1.6815723
1292 1.7598689
1290 1.8368987
1288 1.920024
1286 2.0149286
1284 2.1249897
1282 2.2499592
1280 2.3892703
1278 2.5430031
1276 2.7097101
1274 2.885462
1272 3.0669587
1270 3.2533846
1268 3.4509287
1266 3.6763248
1264 3.9438143
1262 4.2589016
1260 4.6236982
1258 5.039412
1256 5.514677
1254 6.070714
1252 6.7208023
1250 7.4564619
1248 8.2566366
1246 9.086175
1244 9.911643
1242 10.709064
1240 11.454788
1238 12.120373
1236 12.681871
1234 13.12281
1232 13.433881
1230 13.61504
1228 13.671648
1226 13.61665
1224 13.462521
1222 13.219746
1220 12.891966
1218 12.4657
1216 11.934029
1214 11.30918
1212 10.618292
1210 9.9128933
1208 9.236536
1206 8.604784
1204 8.0154161
1202 7.4425468
1200 6.8584027
1198 6.2443995
1196 5.5957141
1194 4.9326267
1192 4.2823915
1190 3.6743209
1188 3.1281941
1186 2.643012
1184 2.2143383
1182 1.8412943
1180 1.5279223
1178 1.2862055
1176 1.12266
1174 1.027418
1172 0.97926444
1170 0.94229209
1168 0.88715112
1166 0.80841345
1164 0.71629524
1162 0.64165699
1160 0.60608667
1158 0.59864324
1156 0.59581482
1154 0.56466681
1152 0.48277345
1150 0.35763448
1148 0.20909941
1146 0.06887114
1144 -0.031480532
1142 -0.068484038
1140 -0.030942231
1138 0.069052048
1136 0.222256
1134 0.43967628
1132 0.74061763
1130 1.1510123
1128 1.6830447
1126 2.3103499
1124 2.9861813
1122 3.6369448
1120 4.197576
1118 4.6406603
1116 4.9653139
1114 5.2142334
1112 5.4416871
1110 5.7034135
1108 6.0477834
1106 6.50138
1104 7.0670633
1102 7.6998372
1100 8.3402977
1098 8.9237957
1096 9.4075003
1094 9.8092022
1092 10.16754
1090 10.534676
1088 10.946932
1086 11.381815
1084 11.801028
1082 12.170522
1080 12.466806
1078 12.70261
1076 12.895599
1074 13.06069
1072 13.204211
1070 13.320689
1068 13.402143
1066 13.447822
1064 13.45884
1062 13.436716
1060 13.376411
1058 13.250163
1056 13.033257
1054 12.719872
1052 12.324974
1050 11.89569
1048 11.478874
1046 11.0955
1044 10.746634
1042 10.399893
1040 10.019041
1038 9.5740347
1036 9.0464191
1034 8.4498739
1032 7.8109398
1030 7.1716213
1028 6.574791
1026 6.0546942
1024 5.6380091
1022 5.3331261
1020 5.1292882
1018 4.9699283
1016 4.7894425
1014 4.5283651
1012 4.1529636
1010 3.7036774
1008 3.2374439
1006 2.8051894
1004 2.4385974
1002 2.1133029
1000 1.8002543
998 1.4984993
996 1.2156929
994 0.96517789
992 0.74954152
990 0.53256404
988 0.27816957
986 -0.017998189
984 -0.33848816
982 -0.62080586
980 -0.8014276
978 -0.85040754
976 -0.75811082
974 -0.55443823
972 -0.27508205
970 0.057581723
968 0.42683193
966 0.82330751
964 1.2274594
962 1.5789934
960 1.8155835
958 1.9018114
956 1.824527
954 1.6238575
952 1.345796
950 1.0125062
948 0.65171176
946 0.33311355
944 0.117624
942 -0.0013633743
940 -0.039962668
938 0.0113042
936 0.14704715
934 0.28525776
932 0.34258199
930 0.30099106
928 0.17683005
926 0.053421266
924 0.023043416
922 0.14844269
920 0.45212224
918 0.83231854
916 1.1540829
914 1.2749001
912 1.101892
910 0.74275571
908 0.36550164
906 0.17941073
904 0.33454755
902 0.70825136
900 1.1207025
898 1.4358327
896 1.5286
