##TITLE=Methyl Ethyl Ketone
##JCAMP-DX=4.24
##DATA TYPE=INFRARED SPECTRUM
##XUNITS=cm-1
##YUNITS=Absorbance
##FIRSTX=900
##LASTX=2300
##XYDATA=(X++(Y..Y))
2296 0.039220002
2294 0.040052809
2292 0.040886614
2290 0.041719429
2288 0.042553227
2286 0.043386042
2284 0.044219844
2282 0.045052659
2280 0.045886457
2278 0.046719279
2276 0.047552086
2274 0.048385881
2272 0.049218703
2270 0.05005249
2268 0.05088532
2266 0.051719107
2264 0.052551936
2262 0.053385723
2260 0.054218553
2258 0.055052336
2256 0.055885173
2254 0.056718953
2252 0.05755179
2250 0.058384597
2248 0.059218369
2246 0.060051214
2244 0.098092675
2242 0.0038401328
2240 -0.14208001
2238 -0.26171532
2236 -0.37705559
2234 -0.36288571
2232 -0.33874407
2230 -0.3000493
2228 -0.26505172
2226 -0.264348
2224 -0.26162067
2222 -0.24108748
2220 -0.20019217
2218 -0.099826097
2216 0.025676511
2214 0.19875334
2212 0.3711448
2210 0.53777152
2208 0.67171222
2206 0.76530975
2204 0.80735487
2202 0.8020733
2200 0.75904614
2198 0.69008529
2196 0.61833787
2194 0.54605633
2192 0.49439245
2190 0.45184076
2188 0.43286991
2186 0.42134979
2184 0.3924292
2182 0.35937402
2180 0.28326106
2178 0.20089127
2176 0.13188571
2174 0.07187093
2172 0.10028588
2170 0.15589321
2168 0.31958845
2166 0.49686629
2164 0.68559253
2162 0.83315843
2160 0.8723315
2158 0.8562572
2156 0.756127
2154 0.65774506
2152 0.57450163
2150 0.53156918
2148 0.53230757
2146 0.54367357
2144 0.56044519
2142 0.53031665
2140 0.46731442
2138 0.33035168
2136 0.15487543
2134 -0.0014424101
2132 -0.14842533
2130 -0.14245012
2128 -0.088023685
2126 0.0059692627
2124 0.10843257
2122 0.12815826
2120 0.13669634
2118 0.18302892
2116 0.23645929
2114 0.3011902
2112 0.35318038
2110 0.3404634
2108 0.31559011
2106 0.28275242
2104 0.25524703
2102 0.24251331
2100 0.2313062
2098 0.21921109
2096 0.17020857
2094 0.073502578
2092 -0.070610538
2090 -0.25659284
2088 -0.36252177
2086 -0.39817849
2084 -0.34079617
2082 -0.2286942
2080 -0.18836686
2078 -0.1891271
2076 -0.24360728
2074 -0.31819648
2072 -0.335704
2070 -0.33382693
2068 -0.26994851
2066 -0.19156678
2064 -0.17504263
2062 -0.18402612
2060 -0.34284395
2058 -0.52707952
2056 -0.68903202
2054 -0.81228501
2052 -0.80891496
2050 -0.77194476
2048 -0.70888597
2046 -0.64715749
2044 -0.5959686
2042 -0.5278191
2040 -0.4343712
2038 -0.32193214
2036 -0.19649172
2034 -0.10242404
2032 -0.040413253
2030 -0.024449781
2028 -0.03788019
2026 -0.038448479
2024 -0.025977679
2022 0.014340106
2020 0.069172278
2018 0.056596175
2016 0.013174361
2014 -0.13265327
2012 -0.31462115
2010 -0.45802385
2008 -0.58471608
2006 -0.59383208
2004 -0.56691635
2002 -0.48867711
2000 -0.40840092
1998 -0.36397624
1996 -0.36662
1994 -0.47672382
1992 -0.62553179
1990 -0.8125692
1988 -0.94220221
1986 -0.97011578
1984 -0.92734128
1982 -0.81930733
1980 -0.72348541
1978 -0.65211225
1976 -0.59087169
1974 -0.53054804
1972 -0.39250109
1970 -0.19215816
1968 -0.0084357858
1966 0.15695155
1964 0.09960483
1962 -0.077605873
1960 -0.3020604
1958 -0.54183322
1956 -0.62582898
1954 -0.65392286
1952 -0.65081584
1950 -0.64761966
1948 -0.68214071
1946 -0.72689247
1944 -0.77134883
1942 -0.7913962
1940 -0.76958752
1938 -0.73059195
1936 -0.69066799
1934 -0.68781275
1932 -0.74436039
1930 -0.84575456
1928 -0.97538042
1926 -1.0380536
1924 -0.99337023
1922 -0.74469215
1920 -0.31472498
1918 0.14851171
1916 0.58631611
1914 0.82397115
1912 0.91486579
1910 0.89299029
1908 0.82126451
1906 0.69544721
1904 0.54161358
1902 0.39361954
1900 0.24529818
1898 0.2339922
1896 0.27926287
1894 0.3931182
1892 0.52444404
1890 0.57110059
1888 0.56116819
1886 0.42231745
1884 0.22992858
1882 0.015136354
1880 -0.19301733
1878 -0.35458177
1876 -0.49483401
1874 -0.59896308
1872 -0.65529275
1870 -0.64205503
1868 -0.54091883
1866 -0.38862056
1864 -0.25518841
1862 -0.18566489
1860 -0.21595158
1858 -0.30954188
1856 -0.454914
1854 -0.6161021
1852 -0.74615848
1850 -0.84109819
1848 -0.840846
1846 -0.77345395
1844 -0.6837042
1842 -0.57752645
1840 -0.57359946
1838 -0.63187551
1836 -0.72737026
1834 -0.8418743
1832 -0.88317835
1830 -0.83151209
1828 -0.58877933
1826 -0.24508271
1824 0.086079657
1822 0.28074697
1820 0.2009376
1818 -0.041193336
1816 -0.34604716
1814 -0.60403264
1812 -0.74638796
1810 -0.76239902
1808 -0.67960787
1806 -0.53041047
1804 -0.34618217
1802 -0.29059803
1800 -0.34805644
1798 -0.54764926
1796 -0.83694285
1794 -0.90487218
1792 -0.82179356
1790 -0.45816433
1788 0.049453631
1786 0.45434052
1784 0.77203602
1782 0.94065243
1780 1.0195535
1778 1.109015
1776 1.1991256
1774 1.2736728
1772 1.2953954
1770 1.0996712
1768 0.80740023
1766 0.49575263
1764 0.24092481
1762 0.16061246
1760 0.061322231
1758 -0.16540548
1756 -0.35508844
1754 -0.41980696
1752 -0.22083406
1750 0.26630464
1748 0.81164265
1746 1.3109928
1744 1.458752
1742 1.249979
1740 0.95585263
1738 0.6629374
1736 0.75620198
1734 1.1685948
1732 1.5647174
1730 1.8945842
1728 1.6558275
1726 1.0188817
1724 0.42850134
1722 -0.045883
1720 0.10146771
1718 0.86671954
1716 2.2600272
1714 3.9030266
1712 5.1790543
1710 6.0770798
1708 6.6321321
1706 7.1834536
1704 8.1124039
1702 9.7594328
1700 12.281388
1698 15.692586
1696 19.766285
1694 23.55382
1692 26.699169
1690 29.37735
1688 31.808451
1686 34.910336
1684 38.755116
1682 43.364918
1680 48.517719
1678 53.014008
1676 56.886074
1674 60.742287
1672 64.682045
1670 69.194427
1668 74.131714
1666 78.93235
1664 83.555168
1662 87.915817
1660 91.99395
1658 95.778946
1656 99.183434
1654 102.11645
1652 104.3598
1650 105.65624
1648 105.73457
1646 104.33357
1644 101.96688
1642 99.204468
1640 96.121864
1638 92.867119
1636 89.029816
1634 84.484543
1632 79.781342
1630 75.11187
1628 70.716667
1626 66.642426
1624 62.344643
1622 57.779018
1620 53.19973
1618 48.643269
1616 44.364117
1614 40.375854
1612 36.826054
1610 33.727802
1608 31.124058
1606 28.996836
1604 27.185972
1602 25.687403
1600 24.428858
1598 23.413164
1596 22.616501
1594 22.061144
1592 21.732092
1590 21.618582
1588 21.672764
1586 21.857271
1584 22.143154
1582 22.536421
1580 23.049952
1578 23.781916
1576 24.758858
1574 25.949553
1572 27.29948
1570 28.594898
1568 29.7756
1566 30.882593
1564 31.939093
1562 33.308033
1560 35.091904
1558 37.639141
1556 40.967155
1554 44.05217
1552 46.691406
1550 48.526142
1548 49.613548
1546 50.653034
1544 51.680172
1542 52.746952
1540 53.664219
1538 53.939667
1536 53.460629
1534 52.220993
1532 50.484276
1530 48.746521
1528 47.033287
1526 45.361149
1524 43.595695
1522 41.611431
1520 39.523125
1518 37.284039
1516 35.20327
1514 33.414219
1512 31.602119
1510 29.789133
1508 27.453457
1506 24.447828
1504 21.388617
1502 18.289772
1500 15.746068
1498 13.83056
1496 12.031571
1494 10.382785
1492 8.7919312
1490 7.2943888
1488 5.8701234
1486 4.5207877
1484 3.221478
1482 2.007374
1480 1.0211258
1478 0.33596954
1476 0.046605144
1474 0.27237213
1472 0.93483078
1470 1.776489
1468 2.5857608
1466 3.2455628
1464 3.7490456
1462 4.2839537
1460 4.9698095
1458 5.7517638
1456 6.6142397
1454 7.236918
1452 7.407505
1450 7.3543291
1448 6.9770021
1446 6.5761676
1444 6.1524096
1442 5.7276587
1440 5.3278089
1438 4.9607091
1436 4.6610298
1434 4.3481979
1432 4.0290132
1430 3.6701353
1428 3.2755141
1426 2.9655671
1424 2.7693954
1422 2.7455621
1420 2.8976343
1418 3.1609211
1416 3.4884858
1414 3.8083501
1412 4.0835838
1410 4.3567309
1408 4.6229854
1406 4.9038296
1404 5.1741714
1402 5.3787651
1400 5.556428
1398 5.6814985
1396 5.8050499
1394 5.9085388
1392 5.9802122
1390 5.9372926
1388 5.8353472
1386 5.6296601
1384 5.3940983
1382 5.1205468
1380 4.8335962
1378 4.5423007
1376 4.2385716
1374 3.9625871
1372 3.7115622
1370 3.4839363
1368 3.2767434
1366 3.0260379
1364 2.6861708
1362 2.2718968
1360 1.7681417
1358 1.2593592
1356 0.83074987
1354 0.46432462
1352 0.22396597
1350 0.058070209
1348 -0.03485243
1346 -0.079833999
1344 0.013718478
1342 0.1787921
1340 0.47656566
1338 0.73874211
1336 0.89411944
1334 0.96929419
1332 0.83351481
1330 0.71463692
1328 0.62826991
1326 0.62777287
1324 0.78356689
1322 0.98990971
1320 1.2782634
1318 1.5586398
1316 1.83345
1314 2.0777471
1312 2.2701857
1310 2.4309142
1308 2.5262902
1306 2.5580187
1304 2.5229297
1302 2.4051108
1300 2.264189
1298 2.1356914
1296 2.0536001
1294 2.0661018
1292 2.115778
1290 2.1962376
1288 2.27158
1286 2.3157701
1284 2.3590772
1282 2.3972313
1280 2.4628372
1278 2.5887721
1276 2.7556329
1274 3.0100231
1272 3.2725892
1270 3.5536697
1268 3.8123417
1266 4.0366292
1264 4.2662582
1262 4.5000825
1260 4.7667937
1258 5.0721126
1256 5.4114313
1254 5.7746849
1252 6.1335006
1250 6.4855037
1248 6.8271623
1246 7.1809998
1244 7.5811734
1242 7.998558
1240 8.4051228
1238 8.7748861
1236 9.0369768
1234 9.2387934
1232 9.3139076
1230 9.3206244
1228 9.148694
1226 8.9160538
1224 8.5248938
1222 8.1177197
1220 7.6723938
1218 7.2372289
1216 6.8180456
1214 6.3867221
1212 5.9297256
1210 5.4270701
1208 4.8596735
1206 4.2687693
1204 3.6571081
1202 3.0773704
1200 2.5329905
1198 2.0191765
1196 1.5282072
1194 1.0365168
1192 0.55755544
1190 0.13381882
1188 -0.23526876
1186 -0.47984236
1184 -0.66377872
1182 -0.76643074
1180 -0.83027822
1178 -0.80652577
1176 -0.73206198
1174 -0.49771529
1172 -0.23583193
1170 0.090779573
1168 0.38994715
1166 0.59686035
1164 0.75514615
1162 0.79183167
1160 0.78870016
1158 0.70774841
1156 0.61055946
1154 0.49220341
1152 0.39248681
1150 0.32164988
1148 0.27336881
1146 0.24325785
1144 0.18598852
1142 0.10783805
1140 0.044374712
1138 0.020739399
1136 0.15548973
1134 0.39030731
1132 0.77284491
1130 1.2235605
1128 1.7380766
1126 2.2502935
1124 2.6619797
1122 3.0026021
1120 3.0607998
1118 3.0642667
1116 2.9151242
1114 2.7960849
1112 2.8157005
1110 2.873471
1108 3.0503483
1106 3.2272301
1104 3.4078882
1102 3.6286454
1100 3.934453
1098 4.3105764
1096 4.7892284
1094 5.2359591
1092 5.6399398
1090 6.0159888
1088 6.3786516
1086 6.8409634
1084 7.3747683
1082 7.876749
1080 8.3232527
1078 8.5018091
1076 8.5289974
1074 8.3285465
1072 8.0518456
1070 7.765007
1068 7.4991269
1066 7.4081459
1064 7.3540359
1062 7.4072704
1060 7.4546013
1058 7.4300098
1056 7.4223542
1054 7.4921293
1052 7.6110873
1050 7.8848619
1048 8.1445045
1046 8.3657036
1044 8.5422211
1042 8.6319742
1040 8.6906061
1038 8.699048
1036 8.6647301
1034 8.5753889
1032 8.4079914
1030 8.157896
1028 7.7491355
1026 7.2276878
1024 6.6548419
1022 6.064456
1020 5.5773311
1018 5.1257138
1016 4.6391344
1014 4.1377821
1012 3.5762892
1010 3.0254593
1008 2.7078359
1006 2.441705
1004 2.5474391
1002 2.6540599
1000 2.7398949
998 2.7377315
996 2.3469715
994 1.900032
992 1.2820958
990 0.72209013
988 0.29621664
986 -0.080483615
984 -0.36851656
982 -0.6271323
980 -0.84224439
978 -1.0086586
976 -1.1244885
974 -1.2212685
972 -1.295622
970 -1.2343357
968 -1.0793827
966 -0.73274201
964 -0.30371147
962 0.039608508
960 0.34813344
958 0.52776104
956 0.67971885
954 0.84588462
952 1.0034612
950 0.91938686
948 0.80729175
946 0.43669862
944 0.092111759
942 -0.0055518746
940 -0.16675785
938 -0.095256925
936 0.019182414
934 0.26133898
932 0.54624861
930 0.92251498
928 1.3160434
926 1.7381978
924 2.200448
922 2.711271
920 3.1767566
918 3.5956709
916 3.7756586
914 3.7853541
912 3.6879697
910 3.5367432
908 3.3812921
906 3.2285328
904 3.0233669
902 2.8091674
900 2.8948865
898 3.0304246
896 3.467
