##TITLE=Methyl Ethyl Ketone
##JCAMP-DX=4.24
##DATA TYPE=INFRARED SPECTRUM
##XUNITS=cm-1
##YUNITS=Absorbance
##FIRSTX=900
##LASTX=2300
##XYDATA=(X++(Y..Y))
2296 0.041747998
2294 0.04261576
2292 0.043484516
2290 0.044353273
2288 0.045222025
2286 0.046089794
2284 0.046958543
2282 0.0478273
2280 0.048696056
2278 0.049563829
2276 0.050432574
2274 0.051304281
2272 0.052170135
2270 0.053027067
2268 0.053906381
2266 0.054815479
2264 0.055645052
2262 0.056360658
2260 0.057376642
2258 0.058812667
2256 0.059134685
2254 0.057890728
2252 0.060786769
2250 0.069520518
2248 0.062868588
2246 0.02668982
2244 0.00094190566
2242 0.027574733
2240 0.095492199
2238 0.174793
2236 0.22062586
2234 0.20122713
2232 0.15423389
2230 0.13149594
2228 0.16160123
2226 0.25445649
2224 0.37264273
2222 0.47475451
2220 0.55904877
2218 0.63478857
2216 0.70770544
2214 0.77640492
2212 0.81549144
2210 0.80097651
2208 0.74352026
2206 0.66682911
2204 0.60439879
2202 0.5858354
2200 0.61364561
2198 0.67771733
2196 0.75093645
2194 0.80698037
2192 0.84363848
2190 0.87028223
2188 0.91212666
2186 0.98981011
2184 1.085528
2182 1.1675206
2180 1.1990463
2178 1.1525841
2176 1.04634
2174 0.91601986
2172 0.80977434
2170 0.76982111
2168 0.79938865
2166 0.88295215
2164 0.98140633
2162 1.0563607
2160 1.1033869
2158 1.1322188
2156 1.16343
2154 1.2153925
2152 1.2837898
2150 1.3571037
2148 1.4270422
2146 1.4869893
2144 1.5324336
2142 1.560429
2140 1.5736964
2138 1.5786374
2136 1.5914999
2134 1.6272335
2132 1.6820228
2130 1.7418501
2128 1.778392
2126 1.7685186
2124 1.7314266
2122 1.7023302
2120 1.7176096
2118 1.7988571
2116 1.9053729
2114 1.980126
2112 1.9944984
2110 1.9410169
2108 1.8525349
2106 1.7719078
2104 1.721336
2102 1.7125019
2100 1.74693
2098 1.8218867
2096 1.9323
2094 2.0700548
2092 2.2168489
2090 2.3511477
2088 2.4530184
2086 2.509475
2084 2.5333622
2082 2.5484989
2080 2.5817378
2078 2.6520722
2076 2.7438185
2074 2.827697
2072 2.877744
2070 2.8767498
2068 2.8376124
2066 2.7842522
2064 2.7354045
2062 2.7053461
2060 2.6999855
2058 2.7210479
2056 2.7680714
2054 2.8369505
2052 2.9126673
2050 2.978507
2048 3.0290325
2046 3.0661678
2044 3.1004441
2042 3.1417985
2040 3.1808965
2038 3.2014408
2036 3.1924484
2034 3.1505203
2032 3.0943561
2030 3.0488942
2028 3.026731
2026 3.0309064
2024 3.050184
2022 3.0692794
2020 3.079644
2018 3.0781744
2016 3.0702801
2014 3.0654655
2012 3.075541
2010 3.1096513
2008 3.1617827
2006 3.2195029
2004 3.272675
2002 3.3145468
2000 3.3460629
1998 3.3702466
1996 3.3828001
1994 3.3763514
1992 3.3450341
1990 3.2875354
1988 3.216604
1986 3.1508272
1984 3.1044486
1982 3.0869
1980 3.0992889
1978 3.1386104
1976 3.2031314
1974 3.291657
1972 3.4025311
1970 3.5304327
1968 3.6563549
1966 3.7541327
1964 3.7964311
1962 3.7636342
1960 3.668916
1958 3.5442858
1956 3.4312043
1954 3.3665342
1952 3.3537228
1950 3.3750565
1948 3.3959265
1946 3.3817501
1944 3.3303611
1942 3.2590895
1940 3.1950588
1938 3.1626558
1936 3.1580629
1934 3.1636159
1932 3.167546
1930 3.165272
1928 3.1625047
1926 3.1676385
1924 3.1767492
1922 3.180033
1920 3.1729858
1918 3.158474
1916 3.1567228
1914 3.1911485
1912 3.2582011
1910 3.3375397
1908 3.4034884
1906 3.434412
1904 3.43378
1902 3.4176035
1900 3.3937693
1898 3.3627384
1896 3.3165143
1894 3.243916
1892 3.1372917
1890 2.996645
1888 2.8455098
1886 2.7163014
1884 2.6230197
1882 2.5641491
1880 2.5221887
1878 2.4774225
1876 2.4354401
1874 2.4150474
1872 2.4236
1870 2.455198
1868 2.4830158
1866 2.4738486
1864 2.4197211
1862 2.330766
1860 2.2256966
1858 2.1253471
1856 2.0426114
1854 1.9850016
1852 1.95994
1850 1.9704232
1848 1.998752
1846 2.0158572
1844 1.9985472
1842 1.9348456
1840 1.841032
1838 1.7469701
1836 1.6667086
1834 1.602001
1832 1.5517462
1830 1.5141172
1828 1.485658
1826 1.4603928
1824 1.4260823
1822 1.3699071
1820 1.29477
1818 1.2149119
1816 1.1485343
1814 1.1105269
1812 1.0947572
1810 1.0829434
1808 1.0637777
1806 1.03497
1804 1.006701
1802 0.99576211
1800 1.0139848
1798 1.0645746
1796 1.1304142
1794 1.1821531
1792 1.193532
1790 1.1493459
1788 1.0668554
1786 0.97967577
1784 0.89684051
1782 0.81263846
1780 0.74367416
1778 0.71697569
1776 0.72496516
1774 0.73011452
1772 0.67926031
1770 0.52910501
1768 0.31658107
1766 0.12935998
1764 0.022134116
1762 0.0022458886
1760 0.0026595171
1758 -0.071595252
1756 -0.21670955
1754 -0.35338026
1752 -0.41477439
1750 -0.36720499
1748 -0.23911348
1746 -0.10109964
1744 -0.020116586
1742 -0.039147303
1740 -0.13011503
1738 -0.2218329
1736 -0.28317001
1734 -0.32422659
1732 -0.37309527
1730 -0.45590335
1728 -0.55123419
1726 -0.60151571
1724 -0.55478668
1722 -0.3723107
1720 -0.031587303
1718 0.47187379
1716 1.1101193
1714 1.8267624
1712 2.5427413
1710 3.188127
1708 3.8029599
1706 4.5201144
1704 5.4924245
1702 6.8717041
1700 8.7945004
1698 11.333131
1696 14.314571
1694 17.38736
1692 20.283176
1690 22.891947
1688 25.392862
1686 28.158722
1684 31.446707
1682 35.298611
1680 39.348442
1678 43.010883
1676 46.160717
1674 49.119804
1672 52.266468
1670 55.887852
1668 59.958645
1666 64.20385
1664 68.397278
1662 72.401306
1660 76.093369
1658 79.375031
1656 82.267975
1654 84.903267
1652 87.453697
1650 90.042747
1648 92.462036
1646 94.254066
1644 95.172142
1642 95.227028
1640 94.519379
1638 93.173866
1636 91.260773
1634 88.814407
1632 85.955444
1630 82.866158
1628 79.597404
1626 76.071754
1624 72.256401
1622 68.198669
1620 64.016312
1618 59.868572
1616 55.865971
1614 52.067532
1612 48.547531
1610 45.391361
1608 42.618748
1606 40.182655
1604 38.023342
1602 36.087616
1600 34.347794
1598 32.801926
1596 31.446999
1594 30.271059
1592 29.256189
1590 28.382463
1588 27.650749
1586 27.081444
1584 26.69252
1582 26.496939
1580 26.512026
1578 26.759216
1576 27.239973
1574 27.926197
1572 28.748638
1570 29.607658
1568 30.43784
1566 31.217407
1564 31.937752
1562 32.634808
1560 33.553326
1558 35.090111
1556 37.330086
1554 39.963039
1552 42.526199
1550 44.551041
1548 45.952171
1546 47.045071
1544 48.066948
1542 49.061741
1540 49.962982
1538 50.631287
1536 50.958687
1534 50.909336
1532 50.554668
1530 50.056892
1528 49.504364
1526 48.868999
1524 48.052921
1522 46.919804
1520 45.399349
1518 43.527435
1516 41.468086
1514 39.463871
1512 37.55088
1510 35.509583
1508 33.121819
1506 30.285414
1504 27.175251
1502 24.226627
1500 21.687832
1498 19.50511
1496 17.519714
1494 15.538629
1492 13.453437
1490 11.268254
1488 9.02668
1486 6.8031836
1484 4.7282939
1482 2.9767547
1480 1.630487
1478 0.66258061
1476 0.12915586
1474 0.17557575
1472 0.72776461
1470 1.4398741
1468 2.0856128
1466 2.6670513
1464 3.2301617
1462 3.8015838
1460 4.3368278
1458 4.714642
1456 4.8548398
1454 4.7661209
1452 4.5450387
1450 4.357203
1448 4.2646151
1446 4.1803679
1444 4.0346723
1442 3.8240261
1440 3.5589325
1438 3.2462132
1436 2.8747227
1434 2.4174247
1432 1.8857377
1430 1.3481899
1428 0.88444722
1426 0.56542182
1424 0.42370337
1422 0.43923813
1420 0.57076764
1418 0.76623052
1416 0.98722857
1414 1.219786
1412 1.4646547
1410 1.734816
1408 2.0398641
1406 2.3800807
1404 2.75264
1402 3.1506579
1400 3.553576
1398 3.9238195
1396 4.2270861
1394 4.4423313
1392 4.5697618
1390 4.6337857
1388 4.6472468
1386 4.599895
1384 4.4865336
1382 4.3183432
1380 4.116447
1378 3.908041
1376 3.7017372
1374 3.4783232
1372 3.226346
1370 2.9553788
1368 2.678952
1366 2.4057221
1364 2.1239762
1362 1.7970107
1360 1.4118189
1358 1.0021497
1356 0.61902773
1354 0.31852129
1352 0.12328404
1350 0.003220059
1348 -0.072942518
1346 -0.11750178
1344 -0.1263752
1342 -0.079777218
1340 0.023494959
1338 0.14907193
1336 0.25568143
1334 0.30848971
1332 0.30217716
1330 0.27584392
1328 0.26900497
1326 0.304221
1324 0.39340055
1322 0.53630018
1320 0.72509569
1318 0.94328487
1316 1.16897
1314 1.3756011
1312 1.5423685
1310 1.6604781
1308 1.7303069
1306 1.7631999
1304 1.774732
1302 1.782992
1300 1.8038309
1298 1.8473613
1296 1.9155142
1294 1.9987602
1292 2.0847378
1290 2.162312
1288 2.2273719
1286 2.2880778
1284 2.3543026
1282 2.4335003
1280 2.5278418
1278 2.6316321
1276 2.740607
1274 2.8568878
1272 2.9868577
1270 3.1408644
1268 3.3270783
1266 3.5479314
1264 3.8040047
1262 4.0954175
1260 4.42518
1258 4.8018312
1256 5.2364173
1254 5.7410693
1252 6.3225579
1250 6.9752517
1248 7.6828718
1246 8.4137754
1244 9.1355247
1242 9.821353
1240 10.451006
1238 11.013853
1236 11.498272
1234 11.888601
1232 12.16884
1230 12.329985
1228 12.372937
1226 12.320364
1224 12.192063
1222 11.999114
1220 11.7421
1218 11.40685
1216 10.983
1214 10.477799
1212 9.9092331
1210 9.3059673
1208 8.6925297
1206 8.0744162
1204 7.4526463
1202 6.8271184
1200 6.1991906
1198 5.5727725
1196 4.9491143
1194 4.3228936
1192 3.6966772
1190 3.0920219
1188 2.5355763
1186 2.0528364
1184 1.6583377
1182 1.3438104
1180 1.0984843
1178 0.91727453
1176 0.79624403
1174 0.73054767
1172 0.70955026
1170 0.71077979
1168 0.7121433
1166 0.69924039
1164 0.66514188
1162 0.61546379
1160 0.55809188
1158 0.49891704
1156 0.43996215
1154 0.37571979
1152 0.30145204
1150 0.21859309
1148 0.13234723
1146 0.053311754
1144 -0.0067913476
1142 -0.03652418
1140 -0.023547288
1138 0.04673937
1136 0.18952285
1134 0.41934869
1132 0.7441113
1130 1.1554419
1128 1.6337811
1126 2.1423106
1124 2.6418495
1122 3.09934
1120 3.4972081
1118 3.8517847
1116 4.1858411
1114 4.5165315
1112 4.8553905
1110 5.2026963
1108 5.5574231
1106 5.9208798
1104 6.2911782
1102 6.6574979
1100 7.0119233
1098 7.3597856
1096 7.7117715
1094 8.0834322
1092 8.4828577
1090 8.8965921
1088 9.3043003
1086 9.6826706
1084 10.017966
1082 10.322795
1080 10.615034
1078 10.913301
1076 11.2199
1074 11.498989
1072 11.716228
1070 11.849836
1068 11.897386
1066 11.889114
1064 11.85428
1062 11.79504
1060 11.706825
1058 11.580791
1056 11.410686
1054 11.202914
1052 10.957462
1050 10.65851
1048 10.294225
1046 9.8792219
1044 9.4388895
1042 9.0139484
1040 8.635788
1038 8.2983084
1036 7.98137
1034 7.651741
1032 7.2845092
1030 6.8890028
1028 6.4878917
1026 6.117095
1024 5.8011627
1022 5.5206771
1020 5.2436504
1018 4.933641
1016 4.5676546
1014 4.1669369
1012 3.7611532
1010 3.3730195
1008 3.021508
1006 2.7190492
1004 2.4735417
1002 2.281672
1000 2.1260645
998 1.9541024
996 1.7151
994 1.392077
992 0.99206281
990 0.57161677
988 0.18855302
986 -0.13369194
984 -0.38557011
982 -0.57445782
980 -0.70220959
978 -0.73938394
976 -0.65907687
974 -0.46875334
972 -0.1947819
970 0.10210204
968 0.36368778
966 0.56899899
964 0.71140075
962 0.80161721
960 0.85171175
958 0.86377072
956 0.83641112
954 0.76478964
952 0.64569885
950 0.48490766
948 0.30052441
946 0.14559317
944 0.058811035
942 -0.0027601942
940 -0.087181039
938 -0.1882157
936 -0.29500771
934 -0.42869744
932 -0.61025357
930 -0.83069676
928 -1.0713737
926 -1.3053793
924 -1.50349
922 -1.6362751
920 -1.6879355
918 -1.6959044
916 -1.7096256
914 -1.7753887
912 -1.9226618
910 -2.120333
908 -2.3230288
906 -2.4890273
904 -2.590431
902 -2.6481791
900 -2.6898844
898 -2.7193215
896 -2.7342999
