##TITLE=Methyl Ethyl Ketone
##JCAMP-DX=4.24
##DATA TYPE=INFRARED SPECTRUM
##XUNITS=cm-1
##YUNITS=Absorbance
##FIRSTX=900
##LASTX=2300
##XYDATA=(X++(Y..Y))
2296 -0.019771
2294 -0.020181414
2292 -0.020592824
2290 -0.021004234
2288 -0.021415645
2286 -0.021827057
2284 -0.022238469
2282 -0.02264988
2280 -0.02306129
2278 -0.023471715
2276 -0.023883114
2274 -0.024294525
2272 -0.024705937
2270 -0.025117349
2268 -0.025528759
2266 -0.025940171
2264 -0.026351582
2262 -0.026762994
2260 -0.027173432
2258 -0.027584817
2256 -0.027996229
2254 -0.028407639
2252 -0.028819051
2250 -0.029230462
2248 -0.029641874
2246 -0.030053286
2244 -0.0011168114
2242 0.040900134
2240 0.086852677
2238 0.12575833
2236 0.16362615
2234 0.16763929
2232 0.16858977
2230 0.1555187
2228 0.14396663
2226 0.150003
2224 0.15883023
2222 0.17640486
2220 0.19441123
2218 0.21236825
2216 0.23279285
2214 0.2586166
2212 0.28178883
2210 0.30010182
2208 0.3079012
2206 0.30296963
2204 0.30175915
2202 0.30489969
2200 0.32465276
2198 0.35658473
2196 0.38421142
2194 0.40890282
2192 0.4061355
2190 0.3914066
2188 0.36050478
2186 0.32459056
2184 0.2985284
2182 0.27480415
2180 0.26125979
2178 0.24932216
2176 0.24751543
2174 0.24798772
2172 0.26381683
2170 0.28029218
2168 0.29222766
2166 0.30037385
2164 0.29632691
2162 0.28946382
2160 0.27850646
2158 0.26493326
2156 0.247172
2154 0.23184448
2152 0.2206488
2150 0.22173451
2148 0.23619126
2146 0.25303072
2144 0.27074417
2142 0.28366259
2140 0.29319486
2138 0.31870514
2136 0.35310343
2134 0.38114837
2132 0.40608776
2130 0.37820053
2128 0.333536
2126 0.27440834
2124 0.21223119
2122 0.1837355
2120 0.16165063
2118 0.15891746
2116 0.16102886
2114 0.1785921
2112 0.19856748
2110 0.21921057
2108 0.23093879
2106 0.21547644
2104 0.19079264
2102 0.15467632
2100 0.12947801
2098 0.12546587
2096 0.13892572
2094 0.17121702
2092 0.19873062
2090 0.21846579
2088 0.22245309
2086 0.214238
2084 0.1964744
2082 0.17348425
2080 0.13083874
2078 0.078287296
2076 0.023218771
2074 -0.032375447
2072 -0.049763199
2070 -0.054751314
2068 -0.034787543
2066 -0.0090692351
2064 0.0046109618
2062 0.015314216
2060 0.01831585
2058 0.02121021
2056 0.03183157
2054 0.044276964
2052 0.05829265
2050 0.068492003
2048 0.068640336
2046 0.062888533
2044 0.049790941
2042 0.040141836
2040 0.037360556
2038 0.042879388
2036 0.056221515
2034 0.064118706
2032 0.065439701
2030 0.05048519
2028 0.0239904
2026 0.00047879783
2024 -0.019651968
2022 -0.011619721
2020 0.01095783
2018 0.030579554
2016 0.0479118
2014 0.033113588
2012 0.0071647391
2010 -0.02450062
2008 -0.05845914
2006 -0.10486743
2004 -0.15657337
2002 -0.2220079
2000 -0.28448457
1998 -0.3172411
1996 -0.32960501
1994 -0.30193457
1992 -0.26055989
1990 -0.21240923
1988 -0.17213739
1986 -0.15073107
1984 -0.14701554
1982 -0.16164221
1980 -0.18838623
1978 -0.22317475
1976 -0.24952143
1974 -0.26591951
1972 -0.25148138
1970 -0.21460275
1968 -0.16822211
1966 -0.11850879
1964 -0.10114446
1962 -0.10169978
1960 -0.125248
1958 -0.15806937
1956 -0.20113185
1954 -0.24781078
1952 -0.29282308
1950 -0.33480537
1948 -0.34572887
1946 -0.34468752
1944 -0.33376503
1942 -0.32219326
1940 -0.32598755
1938 -0.33483416
1936 -0.34606141
1934 -0.35884306
1932 -0.37096679
1930 -0.38504472
1928 -0.40020356
1926 -0.40769255
1924 -0.40331537
1922 -0.38391861
1920 -0.35294086
1918 -0.33158949
1916 -0.32378328
1914 -0.33549133
1912 -0.35958594
1910 -0.38474262
1908 -0.40834922
1906 -0.43540844
1904 -0.4648836
1902 -0.48788729
1900 -0.50840753
1898 -0.49533799
1896 -0.4686586
1894 -0.43176997
1892 -0.3969568
1890 -0.40617651
1888 -0.44001967
1886 -0.51092714
1884 -0.58980715
1882 -0.65167552
1880 -0.69944203
1878 -0.72688198
1876 -0.742607
1874 -0.74583489
1872 -0.72414929
1870 -0.66888547
1868 -0.59836876
1866 -0.52647442
1864 -0.50041586
1862 -0.52731711
1860 -0.59104723
1858 -0.67386955
1856 -0.74535918
1854 -0.80281043
1852 -0.84175682
1850 -0.86828882
1848 -0.88341278
1846 -0.89078784
1844 -0.88119662
1842 -0.86166137
1840 -0.84413165
1838 -0.82922739
1836 -0.81553972
1834 -0.7969259
1832 -0.7375508
1830 -0.65235436
1828 -0.54359996
1826 -0.44123435
1824 -0.39266402
1822 -0.38748944
1820 -0.4267908
1818 -0.4798291
1816 -0.52177858
1814 -0.55047727
1812 -0.56368828
1810 -0.56228065
1808 -0.55057448
1806 -0.51286852
1804 -0.45158386
1802 -0.39302489
1800 -0.34072697
1798 -0.31997305
1796 -0.32280427
1794 -0.30190745
1792 -0.26378721
1790 -0.19887719
1788 -0.12164132
1786 -0.075817958
1784 -0.051293172
1782 -0.042240497
1780 -0.039898377
1778 -0.016938513
1776 0.025091533
1774 0.10253385
1772 0.1934742
1770 0.25875428
1768 0.28682902
1766 0.24831764
1764 0.17913181
1762 0.11599149
1760 0.035657018
1758 -0.073750257
1756 -0.16790314
1754 -0.22404386
1752 -0.2360177
1750 -0.2074475
1748 -0.17795266
1746 -0.16280428
1744 -0.20095326
1742 -0.29117149
1740 -0.38063192
1738 -0.4586474
1736 -0.445088
1734 -0.35917687
1732 -0.2465077
1730 -0.12556006
1728 -0.10385776
1726 -0.14944385
1724 -0.17215094
1722 -0.1529503
1720 0.0057790801
1718 0.28137168
1716 0.73017025
1714 1.27437
1712 1.7687286
1710 2.2319014
1708 2.6952841
1706 3.3038893
1704 4.1974368
1702 5.6151652
1700 7.6730742
1698 10.58474
1696 14.323
1694 18.18223
1692 21.827761
1690 25.088472
1688 27.999668
1686 31.425634
1684 35.458546
1682 40.402279
1680 46.076641
1678 51.098969
1676 55.488914
1674 59.563614
1672 63.475079
1670 68.03846
1668 73.099503
1666 78.194199
1664 83.191841
1662 87.676003
1660 91.622261
1658 94.942566
1656 97.640312
1654 99.735207
1652 101.1178
1650 101.70155
1648 101.30731
1646 99.84893
1644 97.799973
1642 95.602142
1640 93.070816
1638 90.153442
1636 86.3843
1634 81.674721
1632 76.724129
1630 71.80294
1628 67.174545
1626 62.863064
1624 58.499718
1622 54.035355
1620 49.717827
1618 45.564976
1616 41.746086
1614 38.279568
1612 35.28273
1610 32.753361
1608 30.604633
1606 28.810543
1604 27.226311
1602 25.881086
1600 24.795387
1598 23.977966
1596 23.401001
1594 23.026953
1592 22.77603
1590 22.635412
1588 22.576126
1586 22.619707
1584 22.774778
1582 23.031349
1580 23.37668
1578 23.841825
1576 24.432056
1574 25.164673
1572 26.034639
1570 26.970762
1568 27.95376
1566 28.95945
1564 29.99032
1562 31.237959
1560 32.80521
1558 35.337364
1556 38.91703
1554 42.96225
1552 47.219063
1550 50.518784
1548 52.862518
1546 54.736713
1544 56.151325
1542 57.285435
1540 58.058662
1538 58.392223
1536 58.232742
1534 57.596489
1532 56.562584
1530 55.279716
1528 53.818638
1526 52.243702
1524 50.591633
1522 48.878891
1520 47.013744
1518 44.931339
1516 42.736156
1514 40.453182
1512 38.160362
1510 35.88525
1508 33.171112
1506 29.890549
1504 26.635258
1502 23.472202
1500 20.81255
1498 18.71014
1496 16.630428
1494 14.559709
1492 12.425835
1490 10.233911
1488 8.0278311
1486 5.8835001
1484 3.9460759
1482 2.320044
1480 1.117945
1478 0.3601546
1476 0.072393544
1474 0.35403252
1472 1.1310074
1470 2.094614
1468 3.0651884
1466 3.9036565
1464 4.5157542
1462 5.0515623
1460 5.5655742
1458 6.0972557
1456 6.6598802
1454 7.1174726
1452 7.3936472
1450 7.5023232
1448 7.368371
1446 7.1713605
1444 6.8908553
1442 6.6004748
1440 6.2934136
1438 5.94946
1436 5.5480857
1434 5.0559134
1432 4.4836264
1430 3.9189217
1428 3.392796
1426 2.9736199
1424 2.669312
1422 2.4708688
1420 2.3844085
1418 2.4038949
1416 2.5116258
1414 2.6932089
1412 2.909451
1410 3.1479235
1408 3.4035983
1406 3.6834335
1404 3.9918785
1402 4.338624
1400 4.7125082
1398 5.1230602
1396 5.5333147
1394 5.9311342
1392 6.2684879
1390 6.4857073
1388 6.5842919
1386 6.4888897
1384 6.2636938
1382 5.8645668
1380 5.4152861
1378 4.9169264
1376 4.4338059
1374 3.9803591
1372 3.561584
1370 3.1825087
1368 2.8392053
1366 2.4976263
1364 2.1026623
1362 1.6546699
1360 1.1441364
1358 0.65549839
1356 0.2915265
1354 0.050529525
1352 -0.00067684799
1350 0.034614258
1348 0.14381368
1346 0.26891321
1344 0.41703922
1342 0.58022892
1340 0.77252662
1338 0.96977597
1336 1.1703542
1334 1.3516301
1332 1.488428
1330 1.6256801
1328 1.769068
1326 1.9481342
1324 2.1876576
1322 2.4673405
1320 2.80018
1318 3.150105
1316 3.51055
1314 3.8454349
1312 4.1399202
1310 4.3778148
1308 4.5565166
1306 4.6788845
1304 4.7563024
1302 4.7925
1300 4.8036122
1298 4.790257
1296 4.7622571
1294 4.7125201
1292 4.6578469
1290 4.6016121
1288 4.5616078
1286 4.5640712
1284 4.5822291
1282 4.6317549
1280 4.6759596
1278 4.7073946
1276 4.7338028
1274 4.7540069
1272 4.7843032
1270 4.8362908
1268 4.9125905
1266 5.0257192
1264 5.164124
1262 5.3298984
1260 5.4989457
1258 5.6658354
1256 5.8133488
1254 5.9418674
1252 6.0552711
1250 6.1595006
1248 6.2649527
1246 6.37075
1244 6.4737535
1242 6.5652814
1240 6.620954
1238 6.6430168
1236 6.5873756
1234 6.4876075
1232 6.291388
1230 6.056993
1228 5.7304502
1226 5.3781772
1224 4.9592738
1222 4.5277901
1220 4.0665183
1218 3.6033061
1216 3.13798
1214 2.6840975
1212 2.25368
1210 1.8522824
1208 1.4960338
1206 1.17548
1204 0.90001398
1202 0.6571514
1200 0.4512648
1198 0.28193676
1196 0.14778736
1194 0.052158285
1192 -0.014543764
1190 -0.051477082
1188 -0.068729773
1186 -0.058807742
1184 -0.030026907
1182 0.039559886
1180 0.13619451
1178 0.30593902
1176 0.50759399
1174 0.79846007
1172 1.0984
1170 1.4109145
1168 1.6922703
1166 1.8749599
1164 2.0166464
1162 2.0571818
1160 2.0745521
1158 2.0434361
1156 1.9863371
1154 1.8818583
1152 1.7353287
1150 1.5295908
1148 1.2887681
1146 1.0117589
1144 0.73464376
1142 0.46528634
1140 0.24015874
1138 0.058757734
1136 -0.044620797
1134 -0.088736296
1132 -0.015296243
1130 0.11530633
1128 0.31031236
1126 0.51140678
1124 0.65259498
1122 0.76646531
1120 0.791866
1118 0.8068285
1116 0.80952799
1114 0.81872076
1112 0.85684329
1110 0.90895897
1108 1.0060999
1106 1.1166949
1104 1.2572497
1102 1.3762065
1100 1.4480582
1098 1.470927
1096 1.4174428
1094 1.3455633
1092 1.255934
1090 1.199208
1088 1.1791046
1086 1.1950901
1084 1.2359705
1082 1.2595068
1080 1.2654908
1078 1.217792
1076 1.1397629
1074 1.0153216
1072 0.8740772
1070 0.72124249
1068 0.57175589
1066 0.4661065
1064 0.37460202
1062 0.34602129
1060 0.32610437
1058 0.34168726
1056 0.35336998
1054 0.34669423
1052 0.32143897
1050 0.2372202
1048 0.14618573
1046 0.040595286
1044 -0.047077209
1042 -0.10228354
1040 -0.15860218
1038 -0.21859607
1036 -0.29795402
1034 -0.39793819
1032 -0.48769069
1030 -0.56739014
1028 -0.63899946
1026 -0.70610237
1024 -0.78482056
1022 -0.86808527
1020 -0.93454379
1018 -0.99406338
1016 -1.0469972
1014 -1.0995977
1012 -1.1673248
1010 -1.2351385
1008 -1.27588
1006 -1.3096972
1004 -1.2891257
1002 -1.2638644
1000 -1.2107668
998 -1.1600566
996 -1.1196285
994 -1.077773
992 -1.0310134
990 -0.97247052
988 -0.88720405
986 -0.80580151
984 -0.73171651
982 -0.67258173
980 -0.63381559
978 -0.60688132
976 -0.59311825
974 -0.59449935
972 -0.60724616
970 -0.60766733
968 -0.59896678
966 -0.56251603
964 -0.51422012
962 -0.480124
960 -0.45098495
958 -0.42646152
956 -0.40128055
954 -0.33654866
952 -0.2670708
950 -0.19692224
948 -0.1257167
946 -0.040903069
944 0.0021587983
942 0.06754151
940 0.2087023
938 0.4134984
936 0.61085856
934 0.78573477
932 0.9275291
930 0.99779266
928 1.019954
926 0.96493006
924 0.88223439
922 0.76655829
920 0.67435873
918 0.60472697
916 0.59369099
914 0.62452298
912 0.70974767
910 0.82394439
908 0.93221539
906 1.0384321
904 1.0847777
902 1.1157142
900 1.1189973
898 1.1180013
896 1.049
