##TITLE=Methyl Ethyl Ketone
##JCAMP-DX=4.24
##DATA TYPE=INFRARED SPECTRUM
##XUNITS=cm-1
##YUNITS=Absorbance
##FIRSTX=900
##LASTX=2300
##XYDATA=(X++(Y..Y))
2296 0.05043
2294 0.0514795
2292 0.052528001
2290 0.053577498
2288 0.054626994
2286 0.055675499
2284 0.056724992
2282 0.057773497
2280 0.058822989
2278 0.059872489
2276 0.060920998
2274 0.061970487
2272 0.063019983
2270 0.064068504
2268 0.065117985
2266 0.066167474
2264 0.067216001
2262 0.068265475
2260 0.069313996
2258 0.070363469
2256 0.071412973
2254 0.072461501
2252 0.073510975
2250 0.074560463
2248 0.075608999
2246 0.076658465
2244 0.023795666
2242 0.00083912147
2240 -0.0141504
2238 -0.047856726
2236 -0.084442899
2234 -0.21050166
2232 -0.34266517
2230 -0.46734118
2228 -0.57101685
2226 -0.51049799
2224 -0.42101458
2222 -0.23759574
2220 -0.10080539
2218 -0.12156562
2216 -0.22069257
2214 -0.47160679
2212 -0.70663136
2210 -0.9010722
2208 -1.0123297
2206 -1.0231171
2204 -0.95707506
2202 -0.82321864
2200 -0.675044
2198 -0.51945168
2196 -0.42363858
2194 -0.36262181
2192 -0.33303097
2190 -0.31622991
2188 -0.28246161
2186 -0.24290128
2184 -0.2290144
2182 -0.22109886
2180 -0.26050413
2178 -0.3066183
2176 -0.32828543
2174 -0.34512168
2172 -0.3328439
2170 -0.31936151
2168 -0.3150436
2166 -0.29780272
2164 -0.23031515
2162 -0.13973314
2160 -0.0027762391
2158 0.099079177
2156 0.125495
2154 0.096767239
2152 -0.00056751445
2150 -0.082290381
2148 -0.13837662
2146 -0.17761035
2144 -0.20434469
2142 -0.2379307
2140 -0.2772651
2138 -0.29134551
2136 -0.29131228
2134 -0.30833167
2132 -0.33294275
2130 -0.38665384
2128 -0.4493688
2126 -0.45369536
2124 -0.44433698
2122 -0.40217662
2120 -0.35777029
2118 -0.36660469
2116 -0.38449901
2114 -0.41246891
2112 -0.43382776
2110 -0.41888568
2108 -0.3964777
2106 -0.36769888
2104 -0.33785194
2102 -0.3079502
2100 -0.27579838
2098 -0.24001376
2096 -0.21783
2094 -0.21439956
2092 -0.23272695
2090 -0.27076039
2088 -0.31319562
2086 -0.356525
2084 -0.38276231
2082 -0.3974877
2080 -0.38975891
2078 -0.37123781
2076 -0.32985058
2074 -0.2796036
2072 -0.18590079
2070 -0.078613319
2068 0.058938242
2066 0.20128736
2064 0.25481442
2062 0.27584973
2060 0.14742114
2058 -0.01361862
2056 -0.19172525
2054 -0.34546259
2052 -0.40133417
2050 -0.43224248
2048 -0.45066041
2046 -0.49769288
2044 -0.6061756
2042 -0.71511513
2040 -0.80487138
2038 -0.83954638
2036 -0.810076
2034 -0.75269002
2032 -0.68006021
2030 -0.63650179
2028 -0.61920559
2026 -0.65426409
2024 -0.72095942
2022 -0.78915322
2020 -0.85620761
2018 -0.86142373
2016 -0.83977604
2014 -0.81647688
2012 -0.79210275
2010 -0.84068727
2008 -0.90951782
2006 -1.0043502
2004 -1.1027226
2002 -1.18472
2000 -1.2584292
1998 -1.3207924
1996 -1.3829215
1994 -1.4571036
1992 -1.531888
1990 -1.5951983
1988 -1.60489
1986 -1.51779
1984 -1.3634394
1982 -1.1477082
1980 -0.97068894
1978 -0.85647333
1976 -0.80776858
1974 -0.80900121
1972 -0.73800784
1970 -0.60545349
1968 -0.44007105
1966 -0.26075757
1964 -0.27615941
1962 -0.3934156
1960 -0.61590117
1958 -0.87796313
1956 -1.0452302
1954 -1.1732177
1952 -1.204428
1950 -1.1988783
1948 -1.1620586
1946 -1.1252249
1944 -1.1359634
1942 -1.1713892
1940 -1.2175163
1938 -1.2519308
1936 -1.2415228
1934 -1.215578
1932 -1.1937521
1930 -1.1825176
1928 -1.1949954
1926 -1.1548064
1924 -1.0424554
1922 -0.81424034
1920 -0.47671199
1918 -0.1837016
1916 0.053657286
1914 0.15491472
1912 0.16126834
1910 0.078936413
1908 -0.051390745
1906 -0.32151926
1904 -0.66270202
1902 -0.96474338
1900 -1.2422729
1898 -1.2285886
1896 -1.0859143
1894 -0.76458728
1892 -0.38978419
1890 -0.1111563
1888 0.065651193
1886 -0.022328194
1884 -0.26041481
1882 -0.65257972
1880 -1.0688463
1878 -1.4183074
1876 -1.63556
1874 -1.665773
1872 -1.5149012
1870 -1.1926854
1868 -0.87080306
1866 -0.59877765
1864 -0.52304304
1862 -0.62388915
1860 -0.77311993
1858 -0.93096823
1856 -1.0291502
1854 -1.0867512
1852 -1.1010149
1850 -1.0979557
1848 -1.0260148
1846 -0.92325997
1844 -0.88288695
1842 -0.88788831
1840 -1.0502582
1838 -1.2746613
1836 -1.4397271
1834 -1.529989
1832 -1.4172159
1830 -1.179478
1828 -0.80534661
1826 -0.44656608
1824 -0.25378382
1822 -0.2515595
1820 -0.51104045
1818 -0.8686251
1816 -1.2371229
1814 -1.4930431
1812 -1.5889157
1810 -1.5484154
1808 -1.4022897
1806 -1.21364
1804 -1.0120981
1802 -0.81405252
1800 -0.62939119
1798 -0.46162143
1796 -0.30731714
1794 -0.18563403
1792 -0.076151446
1790 0.0083324201
1788 0.089325339
1786 0.17117621
1784 0.25977904
1782 0.34298506
1780 0.43818194
1778 0.59941179
1776 0.79919255
1774 1.0101599
1772 1.1331486
1770 1.0038208
1768 0.72117817
1766 0.38559672
1764 0.15050097
1762 0.13900445
1760 0.065055087
1758 -0.0946045
1756 -0.20209257
1754 -0.25226852
1752 -0.023590341
1750 0.51117623
1748 1.1645429
1746 1.8514428
1744 2.1469424
1742 2.0795028
1740 1.9109337
1738 1.7146541
1736 1.80734
1734 2.1131845
1732 2.1733646
1730 2.0342517
1728 1.4589229
1726 0.64282739
1724 0.067255877
1722 -0.231022
1720 0.10156366
1718 0.99025637
1716 2.4023757
1714 3.9267406
1712 5.0477791
1710 5.8878961
1708 6.5403557
1706 7.3985577
1704 8.7902374
1702 10.964645
1700 14.02678
1698 17.609873
1696 21.472713
1694 24.858511
1692 27.518705
1690 29.951187
1688 32.341877
1686 35.552402
1684 39.600002
1682 44.158928
1680 49.065281
1678 53.134178
1676 56.465916
1674 59.803314
1672 63.2155
1670 67.219086
1668 71.658134
1666 76.088898
1664 80.48764
1662 84.725342
1660 88.762939
1658 92.470459
1656 95.826027
1654 98.77681
1652 101.181
1650 102.90246
1648 103.39034
1646 102.31107
1644 100.2068
1642 97.59967
1640 94.780937
1638 91.919708
1636 88.487999
1634 84.345879
1632 79.82608
1630 75.108353
1628 70.628181
1626 66.438896
1624 62.16412
1622 57.752544
1620 53.351982
1618 48.98275
1616 44.793999
1614 40.822449
1612 37.257645
1610 34.137718
1608 31.514292
1606 29.353579
1604 27.478445
1602 25.888512
1600 24.535074
1598 23.435566
1596 22.573
1594 21.933794
1592 21.473045
1590 21.156149
1588 20.933512
1586 20.834637
1584 20.860874
1582 21.082241
1580 21.514378
1578 22.254118
1576 23.327543
1574 24.662895
1572 26.242506
1570 27.76774
1568 29.17828
1566 30.445608
1564 31.565216
1562 32.927559
1560 34.630344
1558 37.175095
1556 40.495914
1554 43.578648
1552 46.280212
1550 48.160835
1548 49.365105
1546 50.553322
1544 51.734299
1542 52.947716
1540 53.801559
1538 53.828808
1536 53.023914
1534 51.513737
1532 49.79295
1530 48.306904
1528 47.040462
1526 45.9729
1524 44.863949
1522 43.587593
1520 41.927612
1518 39.812347
1516 37.610626
1514 35.424282
1512 33.384441
1510 31.490784
1508 29.200502
1506 26.371679
1504 23.449537
1502 20.510162
1500 18.049166
1498 16.13015
1496 14.280714
1494 12.497676
1492 10.740193
1490 9.0079889
1488 7.3176436
1486 5.6543503
1484 3.96997
1482 2.4159713
1480 1.1672375
1478 0.3397547
1476 0.0341038
1474 0.26829523
1472 1.0363255
1470 1.848115
1468 2.4448831
1466 2.9079506
1464 3.2194862
1462 3.6338682
1460 4.2760448
1458 4.9994178
1456 5.7989397
1454 6.3321395
1452 6.4676533
1450 6.4090953
1448 6.0957718
1446 5.7045212
1444 5.2042346
1442 4.6929569
1440 4.1840725
1438 3.7983873
1436 3.5326786
1434 3.3006363
1432 3.0607727
1430 2.7238863
1428 2.3584499
1426 2.0895536
1424 1.9863017
1422 2.1165845
1420 2.4066169
1418 2.7740748
1416 3.1125457
1414 3.314615
1412 3.4651494
1410 3.5783195
1408 3.7150755
1406 3.9078336
1404 4.1325698
1402 4.4149423
1400 4.7378359
1398 5.1309953
1396 5.5103855
1394 5.8603148
1392 6.0962143
1390 6.1656027
1388 6.1252179
1386 5.917985
1384 5.6071324
1382 5.1589708
1380 4.6846495
1378 4.1919241
1376 3.7665029
1374 3.4077113
1372 3.11484
1370 2.8771453
1368 2.6368897
1366 2.3759649
1364 2.0243757
1362 1.5949234
1360 1.1147506
1358 0.66335368
1356 0.34746069
1354 0.14541647
1352 0.068930209
1350 0.027029922
1348 -0.021486465
1346 -0.050629355
1344 0.0034655631
1342 0.14812754
1340 0.46191484
1338 0.73171675
1336 0.89814085
1334 0.90804362
1332 0.68805695
1330 0.48468682
1328 0.3370719
1326 0.32585528
1324 0.49893826
1322 0.78080547
1320 1.1729
1318 1.5790149
1316 1.962
1314 2.2367337
1312 2.3932269
1310 2.4145765
1308 2.3493907
1306 2.2539685
1304 2.1615033
1302 2.1188149
1300 2.0999134
1298 2.1003029
1296 2.1096857
1294 2.1380422
1292 2.1936297
1290 2.316211
1288 2.4435761
1286 2.5612965
1284 2.6405189
1282 2.6277573
1280 2.6087325
1278 2.5833988
1276 2.6031113
1274 2.7071929
1272 2.8578634
1270 3.078675
1268 3.3143528
1266 3.5761249
1264 3.8531258
1262 4.159544
1260 4.4968944
1258 4.8671746
1256 5.252923
1254 5.6539683
1252 6.065949
1250 6.4892206
1248 6.9260311
1246 7.3631496
1244 7.7851815
1242 8.1863461
1240 8.5418262
1238 8.8633003
1236 9.1128035
1234 9.3167458
1232 9.41294
1230 9.4569483
1228 9.3649435
1226 9.2293186
1224 8.9763145
1222 8.6857758
1220 8.3029318
1218 7.8658161
1216 7.3197999
1214 6.7355523
1212 6.0951896
1210 5.4838052
1208 4.918736
1206 4.3938484
1204 3.9141939
1202 3.4384501
1200 2.9653268
1198 2.489759
1196 2.0114357
1194 1.5313241
1192 1.0579544
1190 0.61759555
1188 0.21756017
1186 -0.074849978
1184 -0.3013528
1182 -0.40127957
1180 -0.45212024
1178 -0.42207274
1176 -0.36963201
1174 -0.27268782
1172 -0.16897941
1170 -0.046836555
1168 0.07479994
1166 0.19825199
1164 0.32912606
1162 0.47820091
1160 0.63025284
1158 0.78183985
1156 0.8964957
1154 0.94062799
1152 0.90988564
1150 0.77667922
1148 0.60447717
1146 0.39901716
1144 0.23112884
1142 0.10469446
1140 0.031616602
1138 0.0089724958
1136 0.067822948
1134 0.19884571
1132 0.53240639
1130 0.96142143
1128 1.4832611
1126 2.0085828
1124 2.4171374
1122 2.7671406
1120 2.9179158
1118 3.0306795
1116 3.0399015
1114 3.0670886
1112 3.1790411
1110 3.3288727
1108 3.5976279
1106 3.8708501
1104 4.151907
1102 4.4028897
1100 4.5926285
1098 4.7486787
1096 4.8569713
1094 4.9895539
1092 5.1732101
1090 5.5135078
1088 6.0252337
1086 6.6861377
1084 7.4405823
1082 8.0594101
1080 8.5505095
1078 8.7083178
1076 8.6929531
1074 8.5074968
1072 8.2772989
1070 8.1200008
1068 7.9989724
1066 8.0200081
1064 8.0687561
1062 8.185174
1060 8.297719
1058 8.3642035
1056 8.4130344
1054 8.3848095
1052 8.3491144
1050 8.2903996
1048 8.2453537
1046 8.2319212
1044 8.2074699
1042 8.1592789
1040 8.0654974
1038 7.9089475
1036 7.7697897
1034 7.6482744
1032 7.5106564
1030 7.342196
1028 7.0124197
1026 6.5650673
1024 6.0458651
1022 5.4978681
1020 5.0370445
1018 4.6138191
1016 4.2288318
1014 3.8530815
1012 3.4664435
1010 3.0790761
1008 2.7073121
1006 2.3357208
1004 1.9519688
1002 1.5630881
1000 1.1406854
998 0.71433574
996 0.27160999
994 -0.15194121
992 -0.51175261
990 -0.80942369
988 -0.96376216
986 -1.0927672
984 -1.1808463
982 -1.2951328
980 -1.442854
978 -1.55103
976 -1.6137428
974 -1.6022555
972 -1.5295209
970 -1.4201863
968 -1.2864052
966 -1.0928675
964 -0.8703897
962 -0.60528898
960 -0.33222336
958 -0.19270767
956 -0.087889329
954 -0.1315366
952 -0.1895088
950 -0.16555062
948 -0.1339978
946 -0.044166215
944 0.0008750055
942 0.027189355
940 0.081748068
938 0.25672281
936 0.49454826
934 0.9151696
932 1.3181088
930 1.6819537
928 1.981928
926 2.1814442
924 2.4604099
922 2.8378286
920 3.3469412
918 3.9770675
916 4.5206056
914 5.0002217
912 5.2412019
910 5.3535929
908 5.332458
906 5.2578602
904 5.2103581
902 5.1686201
900 5.2432652
898 5.3362198
896 5.6293998
