##TITLE=Methyl Ethyl Ketone
##JCAMP-DX=4.24
##DATA TYPE=INFRARED SPECTRUM
##XUNITS=cm-1
##YUNITS=Absorbance
##FIRSTX=900
##LASTX=2300
##XYDATA=(X++(Y..Y))
2296 0.022816001
2294 0.023290321
2292 0.02376564
2290 0.024239965
2288 0.024714286
2286 0.025189601
2284 0.025663929
2282 0.02613825
2280 0.02661356
2278 0.027087891
2276 0.027562214
2274 0.02803752
2272 0.028511856
2270 0.028986178
2268 0.029461481
2266 0.02993582
2264 0.030410143
2262 0.030885441
2260 0.031359784
2258 0.031834107
2256 0.032309398
2254 0.03278375
2252 0.033258073
2250 0.03373336
2248 0.034207713
2246 0.034682035
2244 0.0012888201
2242 0.0096383216
2240 0.016336039
2238 0.031921763
2236 0.048843943
2234 0.055774588
2232 0.061907001
2230 0.066328116
2228 0.069446273
2226 0.062860444
2224 0.04980937
2222 0.0094986996
2220 -0.034567449
2218 -0.085600711
2216 -0.12636343
2214 -0.14382641
2212 -0.14502381
2210 -0.1219136
2208 -0.098786674
2206 -0.07749331
2204 -0.080922887
2202 -0.10807031
2200 -0.15365605
2198 -0.21186091
2196 -0.25125787
2194 -0.27931806
2192 -0.27460784
2190 -0.2558431
2188 -0.23600359
2186 -0.21612436
2184 -0.2241832
2182 -0.23866996
2180 -0.27087024
2178 -0.30550021
2176 -0.32664257
2174 -0.34427938
2172 -0.33629382
2170 -0.32379478
2168 -0.29939967
2166 -0.27422723
2164 -0.25046986
2162 -0.23266821
2160 -0.22980115
2158 -0.24199253
2156 -0.27988899
2154 -0.33083746
2152 -0.39685762
2150 -0.45736581
2148 -0.50986141
2146 -0.53428537
2144 -0.53461671
2142 -0.51061702
2140 -0.47142628
2138 -0.43707198
2136 -0.40618598
2134 -0.38755101
2132 -0.37394276
2130 -0.37527347
2128 -0.38123038
2126 -0.41726464
2124 -0.46021679
2122 -0.51099086
2120 -0.56122422
2118 -0.57882351
2116 -0.58834773
2114 -0.57245797
2112 -0.55477077
2110 -0.5454995
2108 -0.53893268
2106 -0.53683543
2104 -0.5305137
2102 -0.51341403
2100 -0.49961421
2098 -0.4940123
2096 -0.50631571
2094 -0.54044807
2092 -0.58923769
2090 -0.64990944
2088 -0.70963228
2086 -0.76719749
2084 -0.81718481
2082 -0.86236948
2080 -0.90777993
2078 -0.95360649
2076 -0.99354714
2074 -1.0309949
2072 -1.040176
2070 -1.0402968
2068 -1.0093931
2066 -0.97106624
2064 -0.93314064
2062 -0.89694548
2060 -0.87785327
2058 -0.86583757
2056 -0.87417769
2054 -0.89232177
2052 -0.93107665
2050 -0.97293919
2048 -1.0122215
2046 -1.0425929
2044 -1.0565561
2042 -1.0575995
2040 -1.0439988
2038 -1.0281117
2036 -1.0129857
2034 -1.0092245
2032 -1.0163028
2030 -1.015732
2028 -1.0074377
2026 -0.98139381
2024 -0.94465446
2022 -0.91479069
2020 -0.8893007
2018 -0.89705861
2016 -0.91863203
2014 -0.97712755
2012 -1.0476997
2010 -1.1008717
2008 -1.145828
2006 -1.1359507
2004 -1.1097897
2002 -1.0677019
2000 -1.0251166
1998 -0.99692839
1996 -0.97592074
1994 -0.9652673
1992 -0.964068
1990 -0.97885615
1988 -1.000383
1986 -1.0275671
1984 -1.0463344
1982 -1.051529
1980 -1.0521548
1978 -1.0508089
1976 -1.0513257
1974 -1.053756
1972 -1.0391823
1970 -1.0110488
1968 -0.97631902
1966 -0.93899763
1964 -0.93491125
1962 -0.94875276
1960 -0.98046643
1958 -1.0190263
1956 -1.0553786
1954 -1.0908278
1952 -1.1286154
1950 -1.1653534
1948 -1.1818142
1946 -1.190375
1944 -1.1911274
1942 -1.1974243
1940 -1.2342266
1938 -1.2826189
1936 -1.3373942
1934 -1.3757998
1932 -1.376848
1930 -1.3464558
1928 -1.2822726
1926 -1.1989664
1924 -1.1024979
1922 -1.0067695
1920 -0.91597545
1918 -0.86060947
1916 -0.83680725
1914 -0.8453095
1912 -0.87306273
1910 -0.90628225
1908 -0.94044119
1906 -0.98121673
1904 -1.0256252
1902 -1.0382
1900 -1.0358334
1898 -0.97315532
1896 -0.88725859
1894 -0.8051753
1892 -0.73431295
1890 -0.72996521
1888 -0.76463836
1886 -0.85857123
1884 -0.97418356
1882 -1.0889112
1880 -1.1845108
1878 -1.235641
1876 -1.2429399
1874 -1.1966517
1872 -1.1098863
1870 -0.98823005
1868 -0.88987106
1866 -0.83552021
1864 -0.85315591
1862 -0.93461913
1860 -1.0234282
1858 -1.1035346
1856 -1.1506971
1854 -1.1733488
1852 -1.1605629
1850 -1.1266508
1848 -1.054212
1846 -0.96045536
1844 -0.89570642
1842 -0.84906822
1840 -0.88028145
1838 -0.94669729
1836 -0.99734658
1834 -1.026742
1832 -0.97919661
1830 -0.89166695
1828 -0.78518265
1826 -0.69704837
1824 -0.68306249
1822 -0.72333932
1820 -0.8137688
1818 -0.91143
1816 -0.98637938
1814 -1.024806
1812 -1.0217463
1810 -0.99183363
1808 -0.94641435
1806 -0.88060248
1804 -0.79841369
1802 -0.69504696
1800 -0.57569569
1798 -0.46099105
1796 -0.35268858
1794 -0.27180895
1792 -0.21034761
1790 -0.19118343
1788 -0.198138
1786 -0.20094416
1784 -0.19776766
1782 -0.15261638
1780 -0.079703882
1778 0.025595166
1776 0.1525403
1774 0.29847294
1772 0.43002883
1770 0.4828985
1768 0.45942059
1766 0.34095165
1764 0.2018804
1762 0.10996564
1760 0.031622853
1758 -0.055826813
1756 -0.10876071
1754 -0.10800381
1752 -0.025199313
1750 0.13575161
1748 0.30926457
1746 0.46991464
1744 0.51511288
1742 0.45219266
1740 0.37338212
1738 0.30063918
1736 0.32393402
1734 0.42129037
1732 0.44906232
1730 0.41735879
1728 0.25418296
1726 0.015302323
1724 -0.12673132
1722 -0.1637857
1720 0.028167203
1718 0.41195357
1716 0.9947741
1714 1.654863
1712 2.2055075
1710 2.7029262
1708 3.2154222
1706 3.9188116
1704 4.9734325
1702 6.6028891
1700 8.9077635
1698 12.001689
1696 15.819858
1694 19.670731
1692 23.241314
1690 26.485859
1688 29.463188
1686 33.0289
1684 37.255245
1682 42.288403
1680 47.95076
1678 52.933922
1676 57.276958
1674 61.526558
1672 65.787079
1670 70.716545
1668 76.099693
1666 81.166946
1664 85.865295
1662 89.939087
1660 93.444244
1658 96.461365
1656 98.944771
1654 100.83059
1652 102.0206
1650 102.44077
1648 101.84303
1646 100.09643
1644 97.591827
1642 94.722702
1640 91.574287
1638 88.23835
1636 84.300125
1634 79.659935
1632 74.800934
1630 69.919151
1628 65.310822
1626 61.007671
1624 56.724197
1622 52.412773
1620 48.294422
1618 44.375072
1616 40.697941
1614 37.278519
1612 34.221504
1610 31.55155
1608 29.312189
1606 27.48798
1604 25.952917
1602 24.708498
1600 23.705587
1598 22.948036
1596 22.403999
1594 22.062881
1592 21.88028
1590 21.833479
1588 21.882463
1586 22.030544
1584 22.270618
1582 22.61339
1580 23.055559
1578 23.641949
1576 24.383314
1574 25.273676
1572 26.303379
1570 27.379089
1568 28.478439
1566 29.592306
1564 30.724943
1562 32.103073
1560 33.83057
1558 36.514511
1556 40.201088
1554 44.159111
1552 48.15242
1550 51.182785
1548 53.292961
1546 55.05975
1544 56.484379
1542 57.689728
1540 58.507401
1538 58.737095
1536 58.353146
1534 57.428028
1532 56.165253
1530 54.818794
1528 53.392437
1526 51.891052
1524 50.197613
1522 48.237934
1520 45.965744
1518 43.338207
1516 40.751202
1514 38.338104
1512 36.121998
1510 34.140205
1508 31.726883
1506 28.724579
1504 25.602188
1502 22.403053
1500 19.711468
1498 17.59314
1496 15.554572
1494 13.58783
1492 11.58582
1490 9.5480814
1488 7.4963121
1486 5.4890156
1484 3.640594
1482 2.0710397
1480 0.91856104
1478 0.22889659
1476 0.051997878
1474 0.45969334
1472 1.3781972
1470 2.4428201
1468 3.4208353
1466 4.2016344
1464 4.6892591
1462 5.0993891
1460 5.5131302
1458 5.9515347
1456 6.4273
1454 6.7749915
1452 6.9114103
1450 6.8981428
1448 6.6740413
1446 6.4074216
1444 6.0869737
1442 5.7786689
1440 5.4849439
1438 5.1882215
1436 4.8660498
1434 4.452611
1432 3.9453018
1430 3.4086175
1428 2.8887682
1426 2.4905207
1424 2.2361588
1422 2.1327169
1420 2.1574893
1418 2.2681828
1416 2.4170344
1414 2.5537739
1412 2.6852622
1410 2.8196378
1408 2.9864616
1406 3.2174513
1404 3.5129211
1402 3.9019618
1400 4.347724
1398 4.871573
1396 5.3888359
1394 5.8769517
1392 6.2691469
1390 6.4887133
1388 6.5762005
1386 6.4531698
1384 6.2066092
1382 5.7970905
1380 5.3520088
1378 4.8775105
1376 4.4372568
1374 4.0366426
1372 3.65502
1370 3.2895601
1368 2.9264171
1366 2.5510778
1364 2.1403558
1362 1.6937948
1360 1.205595
1358 0.73823071
1356 0.37000972
1354 0.11079901
1352 0.025434056
1350 0.034993671
1348 0.15327142
1346 0.31843966
1344 0.53875041
1342 0.79126817
1340 1.1008852
1338 1.4022946
1336 1.6773543
1334 1.8942277
1332 2.0056703
1330 2.1101711
1328 2.2136097
1326 2.3690994
1324 2.6056027
1322 2.8942435
1320 3.2478788
1318 3.6236479
1316 4.0103002
1314 4.359674
1312 4.6530313
1310 4.86304
1308 4.9981036
1306 5.0754299
1304 5.1161141
1302 5.140965
1300 5.1553984
1298 5.1585712
1296 5.1519575
1294 5.127583
1292 5.0958595
1290 5.0546393
1288 5.0147476
1286 4.9816184
1284 4.9528894
1282 4.9340615
1280 4.9146771
1278 4.8943429
1276 4.8757825
1274 4.8631639
1272 4.8646727
1270 4.8939204
1268 4.9500861
1266 5.0467205
1264 5.167829
1262 5.3175473
1260 5.4749479
1258 5.6372113
1256 5.7904458
1254 5.9322128
1252 6.0576696
1250 6.1702738
1248 6.2732906
1246 6.36765
1244 6.4479923
1242 6.510901
1240 6.5330534
1238 6.5242958
1236 6.451406
1234 6.3428493
1232 6.1569877
1230 5.9337387
1228 5.6138015
1226 5.260715
1224 4.8194742
1222 4.3610511
1220 3.86338
1218 3.3688381
1216 2.8846858
1214 2.4292126
1212 2.0273602
1210 1.6710198
1208 1.3797383
1206 1.1165097
1204 0.88495636
1202 0.66071612
1200 0.44760236
1198 0.25531483
1196 0.087544508
1194 -0.038727954
1192 -0.1315352
1190 -0.1824944
1188 -0.20765011
1186 -0.20200577
1184 -0.17816988
1182 -0.12100659
1180 -0.038640358
1178 0.11574893
1176 0.299528
1174 0.56258309
1172 0.83073884
1170 1.099375
1168 1.3441114
1166 1.5132192
1164 1.6471139
1162 1.6926199
1160 1.7063617
1158 1.6546876
1156 1.5737329
1154 1.4420569
1152 1.2797909
1150 1.0758393
1148 0.85479802
1146 0.62009108
1144 0.40688723
1142 0.2225084
1140 0.098637089
1138 0.022417532
1136 -0.012059459
1134 -0.021817038
1132 0.011654366
1130 0.068402246
1128 0.16066778
1126 0.26166564
1124 0.35768703
1122 0.44794446
1120 0.51241201
1118 0.57434553
1116 0.63546401
1114 0.69949478
1112 0.77521229
1110 0.84547728
1108 0.89746094
1106 0.93731648
1104 0.94859153
1102 0.96651113
1100 0.99783117
1098 1.0352237
1096 1.0791285
1094 1.1033566
1092 1.103714
1090 1.1037308
1088 1.1049182
1086 1.1181129
1084 1.1360242
1082 1.1238408
1080 1.0883926
1078 1.0127268
1076 0.91835916
1074 0.81786495
1072 0.71466035
1070 0.60663682
1068 0.49389955
1066 0.35501009
1064 0.2168452
1062 0.10920209
1060 0.017651377
1058 0.019857008
1056 0.024784572
1054 0.040154435
1052 0.037658099
1050 -0.02146652
1048 -0.084845699
1046 -0.15683644
1044 -0.21267769
1042 -0.23826437
1040 -0.25620821
1038 -0.26506937
1036 -0.29203498
1034 -0.3413499
1032 -0.41115981
1030 -0.50001532
1028 -0.59974498
1026 -0.70949495
1024 -0.8462503
1022 -0.99712586
1020 -1.1484451
1018 -1.2933793
1016 -1.3669801
1014 -1.4159223
1012 -1.4033943
1010 -1.3821127
1008 -1.3799599
1006 -1.3814486
1004 -1.4060512
1002 -1.4259325
1000 -1.4117039
998 -1.3946071
996 -1.3649715
994 -1.342451
992 -1.3417726
990 -1.341447
988 -1.3412458
986 -1.3265221
984 -1.2852663
982 -1.2242249
980 -1.137072
978 -1.053636
976 -0.97565174
974 -0.92415237
972 -0.89408529
970 -0.87048554
968 -0.84960949
966 -0.80714595
964 -0.75369585
962 -0.67550397
960 -0.59011364
958 -0.5202297
956 -0.45545512
954 -0.42991704
952 -0.40734518
950 -0.34211266
948 -0.26757988
946 -0.088039286
944 0.002929166
942 0.091013655
940 0.26042724
938 0.42462099
936 0.57818425
934 0.7002579
932 0.8071183
930 0.8812654
928 0.94098002
926 0.97731262
924 0.99658179
922 0.99482369
920 0.9742884
918 0.93605942
916 0.88056159
914 0.81274062
912 0.7350626
910 0.65272892
908 0.61482209
906 0.59488416
904 0.6851024
902 0.80470079
900 1.0053114
898 1.2189782
896 1.4134001
