##TITLE=Methyl Ethyl Ketone
##JCAMP-DX=4.24
##DATA TYPE=INFRARED SPECTRUM
##XUNITS=cm-1
##YUNITS=Absorbance
##FIRSTX=900
##LASTX=2300
##XYDATA=(X++(Y..Y))
2296 0.057094
2294 0.058306266
2292 0.059519529
2290 0.060732793
2288 0.061946057
2286 0.063158326
2284 0.064371586
2282 0.065584846
2280 0.066798113
2278 0.06801039
2276 0.069223642
2274 0.07043986
2272 0.071650222
2270 0.072850674
2268 0.07407546
2266 0.075333975
2264 0.076503284
2262 0.077546701
2260 0.078923337
2258 0.080767542
2256 0.081372686
2254 0.080235675
2252 0.083704293
2250 0.093669318
2248 0.086513922
2246 0.044929322
2244 0.0054618511
2242 0.010141544
2240 0.062266402
2238 0.14624399
2236 0.21489443
2234 0.22881028
2232 0.21583594
2230 0.22057365
2228 0.27700284
2226 0.40251499
2224 0.56098807
2222 0.70280552
2220 0.78716552
2218 0.78937984
2216 0.73878831
2214 0.68173909
2212 0.66845357
2210 0.73585707
2208 0.8630476
2206 1.0115622
2204 1.1426572
2202 1.2275077
2200 1.2745417
2198 1.3014081
2196 1.3143429
2194 1.3176106
2192 1.3215028
2190 1.3388069
2188 1.3845893
2186 1.4677271
2184 1.5694441
2182 1.6634946
2180 1.7300723
2178 1.7570108
2176 1.7554343
2174 1.7439631
2172 1.7423532
2170 1.765414
2168 1.8088583
2166 1.8612599
2164 1.9092214
2162 1.9415519
2160 1.9567788
2158 1.9570183
2156 1.9445699
2154 1.9227126
2152 1.8985995
2150 1.8800668
2148 1.8702409
2146 1.8707286
2144 1.8821319
2142 1.9060169
2140 1.9493188
2138 2.0190725
2136 2.1140115
2134 2.2283077
2132 2.3480077
2130 2.4579995
2128 2.549572
2126 2.6173193
2124 2.6605487
2122 2.6792488
2120 2.6702714
2118 2.6330001
2116 2.5833573
2114 2.5421739
2112 2.5274458
2110 2.5487192
2108 2.5857897
2106 2.6110516
2104 2.6121292
2102 2.5878525
2100 2.5575979
2098 2.5441132
2096 2.5535712
2094 2.5829539
2092 2.621686
2090 2.6590557
2088 2.6964285
2086 2.739655
2084 2.7939897
2082 2.8623929
2080 2.9393349
2078 3.0165789
2076 3.0886958
2074 3.1521528
2072 3.2059319
2070 3.2511132
2068 3.2931926
2066 3.3387771
2064 3.3915348
2062 3.4509711
2060 3.504168
2058 3.5348952
2056 3.5332687
2054 3.4960194
2052 3.4340029
2050 3.364635
2048 3.3073719
2046 3.2797928
2044 3.289676
2042 3.3378851
2040 3.4154778
2038 3.5091534
2036 3.6046643
2034 3.6882412
2032 3.749408
2030 3.780755
2028 3.7826891
2026 3.7602878
2024 3.7248857
2022 3.6882434
2020 3.6525986
2018 3.615787
2016 3.5751202
2014 3.5313435
2012 3.4977682
2010 3.490943
2008 3.5160582
2006 3.5697749
2004 3.6370251
2002 3.697952
2000 3.7341149
1998 3.7310543
1996 3.68835
1994 3.6158338
1992 3.5399508
1990 3.491405
1988 3.488796
1986 3.5382485
1984 3.6209657
1982 3.7085974
1980 3.7801545
1978 3.8238184
1976 3.8477056
1974 3.867007
1972 3.887002
1970 3.9050484
1968 3.9086406
1966 3.8847306
1964 3.8374262
1962 3.7812178
1960 3.736872
1958 3.723938
1956 3.7459171
1954 3.7943354
1952 3.844032
1950 3.8662894
1948 3.8498623
1946 3.7986
1944 3.7400582
1942 3.7067215
1940 3.7042031
1938 3.720758
1936 3.7347655
1934 3.7250473
1932 3.690186
1930 3.6392479
1928 3.5804765
1926 3.5197213
1924 3.4587352
1922 3.3983819
1920 3.3458748
1918 3.311038
1916 3.30106
1914 3.3179696
1912 3.3473148
1910 3.369082
1908 3.3765578
1906 3.3743258
1904 3.380444
1902 3.4132645
1900 3.4617894
1898 3.499346
1896 3.5070002
1894 3.4766738
1892 3.4222989
1890 3.36818
1888 3.3302133
1886 3.3162742
1884 3.3251269
1882 3.3488271
1880 3.3706758
1878 3.368644
1876 3.31777
1874 3.1977139
1872 3.0143652
1870 2.7955425
1868 2.5955577
1866 2.4731872
1864 2.4428406
1862 2.4848111
1860 2.5519934
1858 2.5895042
1856 2.5692029
1854 2.4829707
1852 2.3327096
1850 2.1299441
1848 1.908828
1846 1.7165107
1844 1.5975122
1842 1.581817
1840 1.6471977
1838 1.7402616
1836 1.81306
1834 1.831625
1832 1.794296
1830 1.7217611
1828 1.6445383
1826 1.5932937
1824 1.5809617
1822 1.6044838
1820 1.642898
1818 1.6668078
1816 1.6552771
1814 1.5988951
1812 1.5090603
1810 1.4092531
1808 1.3198754
1806 1.2511799
1804 1.1830083
1802 1.0789075
1800 0.91847998
1798 0.70209026
1796 0.46504
1794 0.26318717
1792 0.145568
1790 0.14267181
1788 0.23404247
1786 0.36538208
1784 0.48311019
1782 0.54447073
1780 0.5345965
1778 0.45805252
1776 0.32238743
1774 0.14204909
1772 -0.035365172
1770 -0.14707018
1768 -0.16790229
1766 -0.10962853
1764 -0.017003438
1762 0.04679592
1760 0.024250172
1758 -0.11909762
1756 -0.34224072
1754 -0.56468642
1752 -0.77194476
1750 -0.99889833
1748 -1.2521024
1746 -1.5073786
1744 -1.7286543
1742 -1.8816603
1740 -1.9623748
1738 -1.9864861
1736 -1.95292
1734 -1.8457795
1732 -1.6551039
1730 -1.3836794
1728 -1.0626026
1726 -0.74139529
1724 -0.45940661
1722 -0.2370718
1720 -0.05680117
1718 0.13628334
1716 0.44186246
1714 0.96059728
1712 1.6539617
1710 2.3867264
1708 3.102664
1706 3.8431129
1704 4.7342358
1702 5.9837251
1700 7.923398
1698 10.869395
1696 14.635285
1694 18.631741
1692 22.33798
1690 25.45261
1688 28.13624
1686 30.898378
1684 34.213802
1682 38.340412
1680 42.91996
1678 47.200199
1676 50.911758
1674 54.297638
1672 57.732727
1670 61.544544
1668 65.691818
1666 69.840553
1664 73.771446
1662 77.421494
1660 80.75901
1658 83.755775
1656 86.39357
1654 88.672287
1652 90.629501
1650 92.315636
1648 93.699539
1646 94.683784
1644 95.214905
1642 95.281471
1640 94.816216
1638 93.701561
1636 91.867661
1634 89.32663
1632 86.235146
1630 82.835526
1628 79.209236
1626 75.278534
1624 71.004684
1622 66.440384
1620 61.761253
1618 57.224636
1616 53.008259
1614 49.187943
1612 45.791519
1610 42.813179
1608 40.207561
1606 37.903965
1604 35.856476
1602 34.051262
1600 32.488377
1598 31.171291
1596 30.085501
1594 29.199137
1592 28.479343
1590 27.897724
1588 27.439274
1586 27.099508
1584 26.867069
1582 26.727451
1580 26.690725
1578 26.796043
1576 27.096056
1574 27.636892
1572 28.409914
1570 29.347874
1568 30.37056
1566 31.402187
1564 32.376743
1562 33.276394
1560 34.281696
1558 35.736942
1556 37.805302
1554 40.367962
1552 43.036415
1550 45.25901
1548 46.810966
1546 47.857391
1544 48.562645
1542 49.001427
1540 49.244061
1538 49.362644
1536 49.367085
1534 49.200401
1532 48.822674
1530 48.230923
1528 47.418205
1526 46.371002
1524 45.098934
1522 43.645294
1520 42.099686
1518 40.580566
1516 39.138458
1514 37.719227
1512 36.160961
1510 34.225933
1508 31.793032
1506 28.930101
1504 25.886286
1502 23.040482
1500 20.585443
1498 18.450291
1496 16.492571
1494 14.561519
1492 12.576632
1490 10.548208
1488 8.5281572
1486 6.5991473
1484 4.8572221
1482 3.3918402
1480 2.212647
1478 1.2514229
1476 0.5346489
1474 0.2097775
1472 0.3408443
1470 0.84450912
1468 1.5677371
1466 2.3223634
1464 2.987201
1462 3.5414639
1460 4.0045905
1458 4.4221053
1456 4.8532
1454 5.3531866
1452 5.9001274
1450 6.3788571
1448 6.6981506
1446 6.8297787
1444 6.7801161
1442 6.5801048
1440 6.2464995
1438 5.7717156
1436 5.1548228
1434 4.4187703
1432 3.6309285
1430 2.9040487
1428 2.314996
1426 1.87563
1424 1.5743692
1422 1.3902657
1420 1.3210166
1418 1.3901452
1416 1.6084371
1414 1.958351
1412 2.4005771
1410 2.877784
1408 3.3484383
1406 3.7987914
1404 4.219182
1402 4.596982
1400 4.9197879
1398 5.1793761
1396 5.3856139
1394 5.5706782
1392 5.7555075
1390 5.9348502
1388 6.0852141
1386 6.1669049
1384 6.1492515
1382 6.0204706
1380 5.7735825
1378 5.4058456
1376 4.9330287
1374 4.3987875
1372 3.85777
1370 3.3641341
1368 2.9261794
1366 2.4857764
1364 1.9928889
1362 1.4409784
1360 0.87765229
1358 0.41149849
1356 0.1151703
1354 -0.018841868
1352 -0.03007921
1350 0.022915326
1348 0.096869022
1346 0.17918679
1344 0.26165679
1342 0.33370525
1340 0.39368987
1338 0.45437279
1336 0.52645916
1334 0.61025941
1332 0.69337165
1330 0.74919641
1328 0.7645036
1326 0.75342542
1324 0.73608172
1322 0.73133272
1320 0.75182307
1318 0.80031687
1316 0.87787497
1314 0.98510635
1312 1.1146817
1310 1.2462771
1308 1.3586857
1306 1.4357593
1304 1.4720846
1302 1.478799
1300 1.4706968
1298 1.4621396
1296 1.4640714
1294 1.4819834
1292 1.5203552
1290 1.5844465
1288 1.6809881
1286 1.8180014
1284 1.9983952
1282 2.2142479
1280 2.44892
1278 2.6755815
1276 2.8719716
1274 3.030848
1272 3.1622262
1270 3.3009052
1268 3.4826424
1266 3.7321115
1264 4.0569777
1262 4.4385304
1260 4.8575459
1258 5.3065648
1256 5.7898431
1254 6.3269625
1252 6.9301605
1250 7.5904093
1248 8.2866068
1246 8.9851494
1244 9.6569061
1242 10.286309
1240 10.86272
1238 11.376127
1236 11.811399
1234 12.145185
1232 12.35104
1230 12.408731
1228 12.309962
1226 12.069093
1224 11.70504
1222 11.235559
1220 10.67644
1218 10.049521
1216 9.3815966
1214 8.7162418
1212 8.0892124
1210 7.514133
1208 6.9892159
1206 6.4917908
1204 5.9987202
1202 5.497045
1200 4.9804354
1198 4.4521008
1196 3.9189
1194 3.3902996
1192 2.8756704
1190 2.3822439
1188 1.9149938
1186 1.4755492
1184 1.0699717
1182 0.71600032
1180 0.43684107
1178 0.2601988
1176 0.201258
1174 0.24418396
1172 0.3547675
1170 0.47612366
1168 0.55873311
1166 0.58325285
1164 0.55233711
1162 0.50085807
1160 0.46307638
1158 0.45360455
1156 0.47311643
1154 0.50147331
1152 0.51614809
1150 0.50094599
1148 0.4457126
1146 0.35175714
1144 0.23202053
1142 0.11888469
1140 0.039677102
1138 -0.00010474818
1136 0.0080752485
1134 0.090650916
1132 0.26541626
1130 0.51893282
1128 0.82600445
1126 1.1515293
1124 1.4620444
1122 1.7349255
1120 1.957996
1118 2.1383517
1116 2.2910428
1114 2.4390297
1112 2.6025884
1110 2.7907279
1108 3.0073731
1106 3.2505751
1104 3.5139778
1102 3.7843668
1100 4.0536256
1098 4.3302646
1096 4.6321855
1094 4.9888678
1092 5.4198236
1090 5.9107733
1088 6.4306531
1086 6.9260764
1084 7.3476481
1082 7.6701984
1080 7.8848982
1078 8.009572
1076 8.0677471
1074 8.0807114
1072 8.0658407
1070 8.03298
1068 7.9899592
1066 7.9455791
1064 7.9068837
1062 7.8759003
1060 7.849781
1058 7.8145199
1056 7.7543144
1054 7.6554747
1052 7.5081725
1050 7.3120627
1048 7.0723681
1046 6.8038392
1044 6.5229106
1042 6.2447143
1040 5.978241
1038 5.7158055
1036 5.4449201
1034 5.1513319
1032 4.8260164
1030 4.4765182
1028 4.1164227
1026 3.76512
1024 3.4370022
1022 3.1278629
1020 2.829088
1018 2.5309741
1016 2.2302914
1014 1.942652
1012 1.6861538
1010 1.4725572
1008 1.3053681
1006 1.1685058
1004 1.0405225
1002 0.89861482
1000 0.72499144
998 0.51813579
996 0.28267628
994 0.029912531
992 -0.22728468
990 -0.47630256
988 -0.7067551
986 -0.91511619
984 -1.098856
982 -1.2530302
980 -1.366452
978 -1.4098418
976 -1.3548313
974 -1.1904429
972 -0.92275608
970 -0.59942776
968 -0.27777785
966 -0.011893898
964 0.15788499
962 0.23550366
960 0.2411508
958 0.21275501
956 0.18419857
954 0.15996353
952 0.13614321
950 0.10506793
948 0.062850773
946 0.022295192
944 0.0036473833
942 0.038347945
940 0.14264891
938 0.26849839
936 0.36464113
934 0.42633647
932 0.46880186
930 0.53757739
928 0.66816097
926 0.83082998
924 0.97707617
922 1.0490941
920 1.0041338
918 0.86560607
916 0.68430173
914 0.55185413
912 0.54649693
910 0.6551888
908 0.82429898
906 0.9313913
904 0.88077599
902 0.74914956
900 0.6491853
898 0.66528976
896 0.87480998
