##TITLE=Methyl Ethyl Ketone
##JCAMP-DX=4.24
##DATA TYPE=INFRARED SPECTRUM
##XUNITS=cm-1
##YUNITS=Absorbance
##FIRSTX=900
##LASTX=2300
##XYDATA=(X++(Y..Y))
2296 -0.081859
2294 -0.083561562
2292 -0.085264124
2290 -0.086967692
2288 -0.088670254
2286 -0.090373814
2284 -0.092076391
2282 -0.093779936
2280 -0.095482513
2278 -0.097185083
2276 -0.098888628
2274 -0.10059318
2272 -0.10229086
2270 -0.10398843
2268 -0.1056958
2266 -0.10743272
2264 -0.10910183
2262 -0.11070114
2260 -0.1125132
2258 -0.11462246
2256 -0.11593314
2254 -0.1160864
2252 -0.1192766
2250 -0.12673029
2248 -0.12293366
2246 -0.088009179
2244 -0.0032210657
2242 0.13410966
2240 0.26338762
2238 0.32669696
2236 0.348975
2234 0.37064677
2232 0.39892164
2230 0.42655742
2228 0.4274604
2226 0.3822675
2224 0.32037663
2222 0.28255087
2220 0.29745373
2218 0.37677681
2216 0.47859916
2214 0.55046535
2212 0.56183624
2210 0.50396782
2208 0.42877722
2206 0.39753735
2204 0.43503472
2202 0.54250389
2200 0.67208511
2198 0.76841563
2196 0.80666357
2194 0.7798394
2192 0.71374905
2190 0.64385605
2188 0.60363829
2186 0.61944342
2184 0.69175118
2182 0.80886346
2180 0.94302785
2178 1.0626256
2176 1.1406229
2174 1.158502
2172 1.1254214
2170 1.064133
2168 1.0169691
2166 1.0253186
2164 1.100778
2162 1.2381746
2160 1.40358
2158 1.5540326
2156 1.64817
2154 1.6541246
2152 1.5750308
2150 1.4328969
2148 1.275745
2146 1.1532856
2144 1.0853314
2142 1.0755739
2140 1.1043452
2138 1.1469456
2136 1.1892772
2134 1.2239889
2132 1.2548271
2130 1.2895144
2128 1.335588
2126 1.3971771
2124 1.4672648
2122 1.5341474
2120 1.5837537
2118 1.6027929
2116 1.5849186
2114 1.5290171
2112 1.4440577
2110 1.3476801
2108 1.2770435
2106 1.2689643
2104 1.3291548
2102 1.44121
2100 1.547226
2098 1.5854967
2096 1.5436286
2094 1.436566
2092 1.3122455
2090 1.2209808
2088 1.1750239
2086 1.16784
2084 1.1791406
2082 1.1891632
2080 1.2004104
2078 1.2248268
2076 1.2763686
2074 1.36522
2072 1.483956
2070 1.6166556
2068 1.74095
2066 1.8335236
2064 1.8757485
2062 1.8558146
2060 1.7821072
2058 1.673995
2056 1.5616515
2054 1.4758149
2052 1.4325871
2050 1.4378575
2048 1.4825948
2046 1.5510072
2044 1.6254821
2042 1.6896695
2040 1.7345663
2038 1.7560487
2036 1.7570014
2034 1.7456889
2032 1.7396297
2030 1.757754
2028 1.80748
2026 1.8857579
2024 1.9686131
2022 2.0268447
2020 2.0458512
2018 2.0237167
2016 1.9808201
2014 1.9439695
2012 1.927514
2010 1.9336141
2008 1.9384211
2006 1.9110329
2004 1.83999
2002 1.728321
2000 1.6001126
1998 1.4831593
1996 1.3823143
1994 1.2928535
1992 1.2188087
1990 1.1716958
1988 1.173876
1986 1.2453586
1984 1.3755429
1982 1.5394042
1980 1.7138743
1978 1.8793439
1976 2.0219858
1974 2.1324561
1972 2.2102842
1970 2.2584364
1968 2.2775948
1966 2.2649851
1964 2.2090123
1962 2.1005864
1960 1.9591199
1958 1.8177793
1956 1.7054329
1954 1.6407517
1952 1.6117829
1950 1.5936261
1948 1.5710652
1946 1.540925
1944 1.5242165
1942 1.5473006
1940 1.6079271
1938 1.6848451
1936 1.7444972
1934 1.7535772
1932 1.70353
1930 1.6023028
1928 1.469816
1926 1.3366743
1924 1.2577226
1922 1.2902884
1920 1.4478492
1918 1.7089289
1916 2.007257
1914 2.2638688
1912 2.4408424
1910 2.5263124
1908 2.5148976
1906 2.4091158
1904 2.2404239
1902 2.0580325
1900 1.9184197
1898 1.8695004
1896 1.9079715
1894 2.0003076
1892 2.1077323
1890 2.194267
1888 2.2379153
1886 2.2289214
1884 2.1759403
1882 2.0974584
1880 2.0128274
1878 1.935554
1876 1.8549501
1874 1.7500533
1872 1.6162571
1870 1.4670036
1868 1.3451312
1866 1.3006065
1864 1.3410269
1862 1.443893
1860 1.5728555
1858 1.6881304
1856 1.75866
1854 1.7586297
1852 1.6588874
1850 1.438279
1848 1.123832
1846 0.77870786
1844 0.49357364
1842 0.35489896
1840 0.36784378
1838 0.47850764
1836 0.60285676
1834 0.6602242
1832 0.64460987
1830 0.60398972
1828 0.60942197
1826 0.72243357
1824 0.91969597
1822 1.1241355
1820 1.267296
1818 1.3049536
1816 1.2493601
1814 1.1478846
1812 1.0470504
1810 0.9829697
1808 0.96598798
1806 0.982162
1804 0.98194945
1802 0.90004295
1800 0.69842654
1798 0.37820131
1796 0.023088582
1794 -0.23688576
1792 -0.30344239
1790 -0.13189045
1788 0.20641917
1786 0.57271135
1784 0.86738878
1782 1.036546
1780 1.0683342
1778 0.97825021
1776 0.79507768
1774 0.55728334
1772 0.3192884
1770 0.13827497
1768 0.03614885
1766 0.0044309222
1764 0.016300069
1762 0.034164809
1760 0.015182965
1758 -0.076391675
1756 -0.23212901
1754 -0.41473752
1752 -0.6029979
1750 -0.7911402
1748 -0.97016585
1746 -1.1281179
1744 -1.2609845
1742 -1.3675511
1740 -1.430398
1738 -1.4176308
1736 -1.2903
1734 -1.0228364
1732 -0.66682416
1730 -0.32737041
1728 -0.085259147
1726 0.019479452
1724 0.010823598
1722 -0.036074899
1720 -0.017507778
1718 0.17750564
1716 0.62198257
1714 1.3307583
1712 2.1946554
1710 3.0408061
1708 3.830934
1706 4.6655593
1704 5.7340426
1702 7.2886639
1700 9.6318188
1698 12.987887
1696 17.062284
1694 21.179699
1692 24.862728
1690 27.961956
1688 30.79567
1686 34.013416
1684 38.188362
1682 43.603081
1680 49.72876
1678 55.529037
1676 60.647602
1674 65.424194
1672 70.299416
1670 75.577133
1668 81.039772
1666 86.084251
1664 90.34565
1662 93.756844
1660 96.355766
1658 98.215202
1656 99.376259
1654 99.8545
1652 99.707359
1650 99.041519
1648 98.000099
1646 96.740501
1644 95.371262
1642 93.929504
1640 92.33445
1638 90.416641
1636 88.030159
1634 85.096458
1632 81.677437
1630 77.927292
1628 73.874496
1626 69.428581
1624 64.572563
1622 59.407795
1620 54.178028
1618 49.215137
1616 44.726402
1614 40.770481
1612 37.338543
1610 34.38311
1608 31.839754
1606 29.639864
1604 27.746012
1602 26.151794
1600 24.852194
1598 23.836245
1596 23.094002
1594 22.619987
1592 22.417183
1590 22.492569
1588 22.827888
1586 23.372458
1584 24.04981
1582 24.77911
1580 25.563957
1578 26.513704
1576 27.822199
1574 29.718517
1572 32.266384
1570 35.32468
1568 38.627159
1566 41.84235
1564 44.757462
1562 47.343987
1560 49.799919
1558 52.450077
1556 55.248444
1554 57.73325
1552 59.489521
1550 60.300129
1548 60.242348
1546 59.63168
1544 58.587193
1542 56.979984
1540 54.77462
1538 52.121117
1536 49.313145
1534 46.713932
1532 44.438919
1530 42.310398
1528 40.147476
1526 37.843952
1524 35.354061
1522 32.700405
1520 30.010195
1518 27.503815
1516 25.332901
1514 23.516588
1512 21.902319
1510 20.192696
1508 18.211329
1506 15.983557
1504 13.679646
1502 11.564153
1500 9.7614136
1498 8.2020893
1496 6.7870574
1494 5.4428339
1492 4.1614394
1490 3.0048964
1488 2.0266252
1486 1.2477484
1484 0.66624159
1482 0.260059
1480 0.003084518
1478 -0.11240856
1476 0.0025415719
1474 0.5317291
1472 1.5578148
1470 2.994225
1468 4.6478858
1466 6.258399
1464 7.6743517
1462 8.9085522
1460 10.027876
1458 11.112959
1456 12.19
1454 13.201454
1452 14.029716
1450 14.519597
1448 14.605012
1446 14.353214
1444 13.859403
1442 13.212319
1440 12.469474
1438 11.64525
1436 10.734086
1434 9.727006
1432 8.6634674
1430 7.6459866
1428 6.7575979
1426 6.0314369
1424 5.4698973
1422 5.0530992
1420 4.7860999
1418 4.7114391
1416 4.854866
1414 5.2020173
1412 5.7022743
1410 6.2704253
1408 6.8379936
1406 7.3687849
1404 7.8205237
1402 8.1342726
1400 8.2602482
1398 8.1747522
1396 7.9036646
1394 7.5331659
1392 7.1429172
1390 6.7785163
1388 6.4498916
1386 6.1270251
1384 5.7826848
1382 5.4066429
1380 4.9927635
1378 4.5357575
1376 4.0345287
1374 3.494983
1372 2.9273279
1370 2.3447506
1368 1.7514949
1366 1.1408103
1364 0.52464944
1362 -0.050401241
1360 -0.51768416
1358 -0.79828537
1356 -0.84958756
1354 -0.68810701
1352 -0.33081132
1350 0.21796539
1348 0.9125911
1346 1.6431537
1344 2.3206401
1342 2.9150987
1340 3.4244077
1338 3.8662014
1336 4.2394857
1334 4.5064306
1332 4.624259
1330 4.5615158
1328 4.3217955
1326 3.9626787
1324 3.5533457
1322 3.1586092
1320 2.8233011
1318 2.5590546
1316 2.3638899
1314 2.2255604
1312 2.1314943
1310 2.0722854
1308 2.0408623
1306 2.0323107
1304 2.0420287
1302 2.0648711
1300 2.0973544
1298 2.1408641
1296 2.2093716
1294 2.3364446
1292 2.5592988
1290 2.9096122
1288 3.3938999
1286 3.9748907
1284 4.5963874
1282 5.1892996
1280 5.6995921
1278 6.1083522
1276 6.4198489
1274 6.6657138
1272 6.8827963
1270 7.1050892
1268 7.3590679
1266 7.6589098
1264 8.0156574
1262 8.4403915
1260 8.9486618
1258 9.5632553
1256 10.301971
1254 11.16823
1252 12.149254
1250 13.213418
1248 14.329885
1246 15.477751
1244 16.63909
1242 17.791531
1240 18.886942
1238 19.837009
1236 20.545143
1234 20.91959
1232 20.896641
1230 20.46031
1228 19.627483
1226 18.455122
1224 17.024874
1222 15.447073
1220 13.846294
1218 12.36209
1216 11.115542
1214 10.179428
1212 9.5882893
1210 9.3193951
1208 9.3185091
1206 9.4937906
1204 9.7365999
1202 9.9239368
1200 9.9482145
1198 9.7451258
1196 9.2904425
1194 8.6234121
1192 7.8089542
1190 6.9325962
1188 6.0767517
1186 5.3041434
1184 4.6525731
1182 4.116262
1180 3.6737683
1178 3.2933819
1176 2.95504
1174 2.6682973
1172 2.4460576
1170 2.2925241
1168 2.2033021
1166 2.1598551
1164 2.1457868
1162 2.15574
1160 2.1819103
1158 2.2045176
1156 2.1967628
1154 2.1241679
1152 1.9630136
1150 1.7189718
1148 1.412218
1146 1.0785874
1144 0.754825
1142 0.46975183
1140 0.23798069
1138 0.04744944
1136 -0.10536103
1134 -0.19086879
1132 -0.19020775
1130 -0.12947085
1128 -0.051007133
1126 -0.0080845039
1124 -0.035332657
1122 -0.11587249
1120 -0.21923959
1118 -0.31333119
1116 -0.37898842
1114 -0.42829898
1112 -0.46693984
1110 -0.46677715
1108 -0.39698261
1106 -0.2424019
1104 -0.011404991
1102 0.23923877
1100 0.45406681
1098 0.61256635
1096 0.72334284
1094 0.84651572
1092 1.03942
1090 1.3189681
1088 1.6788434
1086 2.0780501
1084 2.4717801
1082 2.8260796
1080 3.1051548
1078 3.2620871
1076 3.2618501
1074 3.109309
1072 2.8413126
1070 2.5528634
1068 2.3406811
1066 2.2646542
1064 2.34658
1062 2.5289645
1060 2.7311606
1058 2.8633537
1056 2.8599286
1054 2.7286422
1052 2.5093029
1050 2.280097
1048 2.1126697
1046 2.0348752
1044 2.056304
1042 2.166482
1040 2.3544502
1038 2.6204424
1036 2.9523499
1034 3.2941785
1032 3.5759733
1030 3.7204754
1028 3.6714306
1026 3.4405265
1024 3.0632954
1022 2.5971971
1020 2.10304
1018 1.6335759
1016 1.2332072
1014 0.92462313
1012 0.70934212
1010 0.54006374
1008 0.35959601
1006 0.11870308
1004 -0.2064105
1002 -0.56701005
1000 -0.90393054
998 -1.1824385
996 -1.3922787
994 -1.581068
992 -1.7945223
990 -2.0258265
988 -2.2443914
986 -2.3846672
984 -2.393889
982 -2.2887244
980 -2.106894
978 -1.8982129
976 -1.7103143
974 -1.5729889
972 -1.5071398
970 -1.5187801
968 -1.5938338
966 -1.6624401
964 -1.6516278
962 -1.5248002
960 -1.271083
958 -0.93773341
956 -0.58531857
954 -0.27028555
952 -0.040651113
950 0.0823116
948 0.098539248
946 0.059321783
944 0.022035291
942 0.01993148
940 0.066638291
938 0.1272933
936 0.17526999
934 0.25734866
932 0.42769882
930 0.70014268
928 1.0616217
926 1.4370185
924 1.753444
922 2.0042214
920 2.1980567
918 2.3403537
916 2.4318101
914 2.4596756
912 2.4268737
910 2.4080141
908 2.4802384
906 2.6601315
904 2.9301236
902 3.1958997
900 3.3585548
898 3.3774836
896 3.2262001
