##TITLE=Methyl Ethyl Ketone
##JCAMP-DX=4.24
##DATA TYPE=INFRARED SPECTRUM
##XUNITS=cm-1
##YUNITS=Absorbance
##FIRSTX=900
##LASTX=2300
##XYDATA=(X++(Y..Y))
2296 0.020736
2294 0.021167383
2292 0.021598766
2290 0.022030149
2288 0.022461532
2286 0.022892913
2284 0.023324298
2282 0.023755681
2280 0.024187062
2278 0.024618445
2276 0.02504983
2274 0.025481211
2272 0.025912594
2270 0.026343977
2268 0.02677536
2266 0.027206743
2264 0.027638126
2262 0.028069507
2260 0.02850089
2258 0.028932275
2256 0.029363656
2254 0.029795039
2252 0.030226422
2250 0.030657806
2248 0.031089189
2246 0.031520572
2244 0.01059559
2242 0.00037752942
2240 -0.01399968
2238 -0.016038112
2236 -0.016218729
2234 -0.0028080652
2232 0.011497485
2230 0.023999872
2228 0.035391375
2226 0.038658101
2224 0.040708579
2222 0.039131768
2220 0.036816515
2218 0.032857087
2216 0.032730944
2214 0.041175026
2212 0.054324202
2210 0.074323788
2208 0.08810398
2206 0.093601048
2204 0.093332402
2202 0.088005431
2200 0.08857505
2198 0.093799062
2196 0.094617859
2194 0.092721619
2192 0.077165186
2190 0.055698231
2188 0.040495303
2186 0.027452614
2184 0.029962441
2182 0.036017422
2180 0.04714201
2178 0.059074003
2176 0.077641025
2174 0.096204072
2172 0.10780005
2170 0.11332
2168 0.087824829
2166 0.058467798
2164 0.026062422
2162 0.0059861788
2160 0.018259039
2158 0.039386284
2156 0.071060002
2154 0.098305002
2152 0.11754434
2150 0.13746177
2148 0.15908226
2146 0.17347929
2144 0.18133937
2142 0.1663581
2140 0.13596684
2138 0.10137396
2136 0.065353513
2134 0.05294162
2132 0.050517939
2130 0.062589213
2128 0.07898844
2126 0.071437627
2124 0.058241241
2122 0.021283211
2120 -0.018054828
2118 -0.031999759
2116 -0.037008598
2114 -0.0024639419
2112 0.038836926
2110 0.084621213
2108 0.12162808
2106 0.13014372
2104 0.12743388
2102 0.10925071
2100 0.09149158
2098 0.078282781
2096 0.063214429
2094 0.044862796
2092 0.027242402
2090 0.010874735
2088 0.0022943057
2086 -4.9791503e-05
2084 -0.0067477226
2082 -0.016906464
2080 -0.025848966
2078 -0.033886787
2076 -0.031677403
2074 -0.02524513
2072 -0.017021559
2070 -0.0083443681
2068 0.0036457346
2066 0.016454661
2064 0.02722872
2062 0.036697071
2060 0.036065344
2058 0.03035233
2056 0.0076167942
2054 -0.021596365
2052 -0.061795101
2050 -0.099226795
2048 -0.12369994
2046 -0.13906536
2044 -0.14154361
2042 -0.14177738
2040 -0.14258994
2038 -0.15078664
2036 -0.16798186
2034 -0.19587572
2032 -0.23249468
2030 -0.26669732
2028 -0.29764292
2026 -0.30776399
2024 -0.30479366
2022 -0.27672559
2020 -0.23655452
2018 -0.19485837
2016 -0.15329
2014 -0.12911037
2012 -0.11094477
2010 -0.10799249
2008 -0.11024103
2006 -0.13194929
2004 -0.15960042
2002 -0.19371989
2000 -0.22553588
1998 -0.23953572
1996 -0.24364215
1994 -0.23099478
1992 -0.21733943
1990 -0.21147336
1988 -0.2121388
1986 -0.22177272
1984 -0.22826794
1982 -0.22740193
1980 -0.22941612
1978 -0.23621374
1976 -0.24878229
1974 -0.2655243
1972 -0.26126942
1970 -0.24015145
1968 -0.21560983
1966 -0.19088335
1964 -0.20440131
1962 -0.2383492
1960 -0.2792328
1958 -0.32208961
1956 -0.34826371
1954 -0.36843431
1952 -0.38804367
1950 -0.40706146
1948 -0.41835758
1946 -0.42647499
1944 -0.43130952
1942 -0.4371115
1940 -0.45273215
1938 -0.47160423
1936 -0.49172315
1934 -0.50824267
1932 -0.51580083
1930 -0.51404446
1928 -0.5005123
1926 -0.4735277
1924 -0.43265146
1922 -0.39159298
1920 -0.35478681
1918 -0.34582239
1916 -0.36200842
1914 -0.38180205
1912 -0.40006286
1910 -0.39946645
1908 -0.38660389
1906 -0.39075476
1904 -0.40544841
1902 -0.42843759
1900 -0.45500982
1898 -0.44764295
1896 -0.42632571
1894 -0.39758244
1892 -0.37082234
1890 -0.3782576
1888 -0.40444261
1886 -0.45645437
1884 -0.51808548
1882 -0.5800395
1880 -0.63808519
1878 -0.68602848
1876 -0.71899801
1874 -0.72918642
1872 -0.71083134
1870 -0.65990359
1868 -0.60159546
1866 -0.54860032
1864 -0.53092784
1862 -0.55062509
1860 -0.58632869
1858 -0.62702942
1856 -0.66104484
1854 -0.68821245
1852 -0.70565468
1850 -0.71671569
1848 -0.70210522
1846 -0.67219859
1844 -0.63478917
1842 -0.59485227
1840 -0.59008908
1838 -0.60261893
1836 -0.6155656
1834 -0.620731
1832 -0.57931411
1830 -0.51263058
1828 -0.43153322
1826 -0.36468822
1824 -0.35675961
1822 -0.39078191
1820 -0.46209639
1818 -0.5364424
1816 -0.58890516
1814 -0.61643362
1812 -0.61860174
1810 -0.60424215
1808 -0.58055711
1806 -0.53560251
1804 -0.47143048
1802 -0.40310663
1800 -0.33484045
1798 -0.29403341
1796 -0.27500713
1794 -0.25882664
1792 -0.2430104
1790 -0.21804465
1788 -0.18853463
1786 -0.15669358
1784 -0.12372348
1782 -0.081619672
1780 -0.033585172
1778 0.023777459
1776 0.089406744
1774 0.1694767
1772 0.24532926
1770 0.28023586
1768 0.2704936
1766 0.19771406
1764 0.1129488
1762 0.064228065
1760 0.019750068
1758 -0.040582344
1756 -0.080374971
1754 -0.082580127
1752 -0.042345755
1750 0.03484023
1748 0.10211223
1746 0.14575143
1744 0.11290719
1742 0.011110168
1740 -0.083792314
1738 -0.15996704
1736 -0.13746001
1734 -0.039947532
1732 0.037448794
1730 0.090414427
1728 0.029181596
1726 -0.10204978
1724 -0.17559338
1722 -0.17467059
1720 0.027451545
1718 0.4095906
1716 1.0085411
1714 1.7060895
1712 2.3232851
1710 2.8905838
1708 3.4463379
1706 4.1596341
1704 5.1867805
1702 6.7697244
1700 9.0246029
1698 12.113874
1696 15.992858
1694 19.949841
1692 23.654621
1690 27.008499
1688 30.05896
1686 33.707638
1684 38.035908
1682 43.261375
1680 49.195122
1678 54.36113
1676 58.800541
1674 62.935066
1672 66.921867
1670 71.622734
1668 76.854179
1666 82.038353
1664 87.026154
1662 91.31382
1660 94.92598
1658 97.863144
1656 100.18891
1654 102.02463
1652 103.226
1650 103.65077
1648 102.92949
1646 100.81715
1644 97.91098
1642 94.770477
1640 91.389626
1638 87.803673
1636 83.575455
1634 78.601013
1632 73.525368
1630 68.580421
1628 64.006447
1626 59.8092
1624 55.620678
1622 51.381588
1620 47.259155
1618 43.264362
1616 39.510342
1614 36.023769
1612 32.976349
1610 30.38335
1608 28.234045
1606 26.510708
1604 25.081545
1602 23.949995
1600 23.06996
1598 22.431692
1596 21.980999
1594 21.708796
1592 21.57716
1590 21.574282
1588 21.669695
1586 21.857313
1584 22.122953
1582 22.47735
1580 22.92107
1578 23.511333
1576 24.264601
1574 25.174784
1572 26.230417
1570 27.330683
1568 28.451521
1566 29.582527
1564 30.727192
1562 32.094898
1560 33.787498
1558 36.425556
1556 40.069359
1554 44.070919
1552 48.199242
1550 51.420902
1548 53.775391
1546 55.805286
1544 57.507126
1542 58.985779
1540 59.997242
1538 60.228981
1536 59.654972
1534 58.380428
1532 56.695721
1530 54.957161
1528 53.208771
1526 51.487499
1524 49.664661
1522 47.656204
1520 45.365395
1518 42.726322
1516 40.139843
1514 37.74305
1512 35.5084
1510 33.459068
1508 30.953865
1506 27.837523
1504 24.682417
1502 21.547323
1500 18.912609
1498 16.838909
1496 14.823
1494 12.858539
1492 10.866355
1490 8.8507891
1488 6.8359051
1486 4.8936749
1484 3.1560121
1482 1.730242
1480 0.72492838
1478 0.15903766
1476 0.047762431
1474 0.45574856
1472 1.3042015
1470 2.292887
1468 3.2399983
1466 4.0509086
1464 4.6507678
1462 5.1891203
1460 5.7211051
1458 6.2515535
1456 6.7799001
1454 7.1727748
1452 7.348618
1450 7.3732886
1448 7.184268
1446 6.9454679
1444 6.6423621
1442 6.3446169
1440 6.0518336
1438 5.746747
1436 5.4037056
1434 4.9566641
1432 4.4037519
1430 3.820004
1428 3.2526779
1426 2.8105857
1424 2.5122297
1422 2.358078
1420 2.3347037
1418 2.4119885
1416 2.5540056
1414 2.7257919
1412 2.9092333
1410 3.0968533
1408 3.3040617
1406 3.5493937
1404 3.8346281
1402 4.1770039
1400 4.5526519
1398 4.9728723
1396 5.3939428
1394 5.8043442
1392 6.1393833
1390 6.3341446
1388 6.3995285
1386 6.259995
1384 6.0090737
1382 5.6092982
1380 5.1696892
1378 4.6877851
1376 4.2085371
1374 3.741128
1372 3.2982061
1370 2.8881531
1368 2.5174844
1366 2.1642849
1364 1.788196
1362 1.387203
1360 0.95401841
1358 0.54739571
1356 0.24296023
1354 0.041847013
1352 -0.00068230974
1350 0.038080871
1348 0.15987602
1346 0.30914533
1344 0.49827558
1342 0.70670164
1340 0.94835556
1338 1.1911187
1336 1.4297056
1334 1.6357268
1332 1.7783837
1330 1.905099
1328 2.0111537
1326 2.1373072
1324 2.3004928
1322 2.5024803
1320 2.7584913
1318 3.049685
1316 3.3708999
1314 3.6780784
1312 3.9533131
1310 4.1644025
1308 4.3120522
1306 4.3994484
1304 4.4419012
1302 4.4485512
1300 4.4300742
1298 4.3824191
1296 4.3168573
1294 4.2268791
1292 4.1342177
1290 4.0486193
1288 3.975776
1286 3.933485
1284 3.9037578
1282 3.900914
1280 3.9056325
1278 3.9264209
1276 3.94748
1274 3.969173
1272 3.9870572
1270 4.000154
1268 4.0161815
1266 4.0387454
1264 4.0751319
1262 4.1319628
1260 4.2130098
1258 4.3212748
1256 4.4486656
1254 4.5898952
1252 4.7283115
1250 4.8592257
1248 4.969769
1246 5.0634751
1244 5.1331134
1242 5.1868076
1240 5.2170725
1238 5.2271605
1236 5.19206
1234 5.122479
1232 4.9679079
1230 4.7697949
1228 4.4578328
1226 4.1097727
1224 3.6662824
1222 3.2059948
1220 2.7073181
1218 2.2126291
1216 1.72974
1214 1.2729223
1212 0.86638153
1210 0.50837916
1208 0.22333328
1206 -0.014163896
1204 -0.19602059
1202 -0.35679582
1200 -0.49665725
1198 -0.62621182
1196 -0.74090999
1194 -0.82348651
1192 -0.87615937
1190 -0.87961012
1188 -0.85396045
1186 -0.7973125
1184 -0.72570109
1182 -0.63423449
1180 -0.52048802
1178 -0.33417332
1176 -0.112574
1174 0.2119312
1172 0.54322875
1170 0.87548244
1168 1.1730943
1166 1.3619207
1164 1.5082185
1162 1.5489119
1160 1.560684
1158 1.5134842
1156 1.4449571
1154 1.338551
1152 1.2040229
1150 1.029726
1148 0.83191961
1146 0.61253035
1144 0.40750286
1142 0.22467631
1140 0.09836328
1138 0.02371335
1136 0.026673172
1134 0.081432469
1132 0.21593137
1130 0.38417464
1128 0.56955379
1126 0.75384659
1124 0.90804017
1122 1.0480419
1120 1.1408761
1118 1.2205645
1116 1.2538114
1114 1.2917207
1112 1.3538007
1110 1.4367381
1108 1.5843236
1106 1.728985
1104 1.862736
1102 1.9627383
1100 1.9957812
1098 2.0091047
1096 1.9925429
1094 1.9760947
1092 1.9610081
1090 1.9545494
1088 1.9588977
1086 1.9814537
1084 2.018291
1082 2.0579269
1080 2.095459
1078 2.1046579
1076 2.0938573
1074 2.0304523
1072 1.9440715
1070 1.8154113
1068 1.6779723
1066 1.5453472
1064 1.418328
1062 1.3281776
1060 1.2436831
1058 1.1838686
1056 1.1242028
1054 1.0654269
1052 1.0033393
1050 0.9308309
1048 0.85521686
1046 0.77316648
1044 0.70205742
1042 0.65195048
1040 0.61230427
1038 0.58584201
1036 0.54172003
1034 0.47587255
1032 0.3904773
1030 0.28768736
1028 0.1820927
1026 0.075121887
1024 -0.026722521
1022 -0.1247967
1020 -0.21085921
1018 -0.29242796
1016 -0.37469828
1014 -0.45872802
1012 -0.56002694
1010 -0.66432667
1008 -0.76963317
1006 -0.87263072
1004 -0.94736654
1002 -1.0155232
1000 -1.0403818
998 -1.0557276
996 -1.0294993
994 -0.99375403
992 -0.92859125
990 -0.85604477
988 -0.76701903
986 -0.68259865
984 -0.60717112
982 -0.55086511
980 -0.52080357
978 -0.50585866
976 -0.50579828
974 -0.49330309
972 -0.46967503
970 -0.42299733
968 -0.36338365
966 -0.32413298
964 -0.29494533
962 -0.28383297
960 -0.27737668
958 -0.2451591
956 -0.208005
954 -0.18255323
952 -0.1590212
950 -0.14724505
948 -0.13082947
946 -0.042902999
944 0.0022736564
942 0.070917144
940 0.21193469
938 0.3881681
936 0.55542713
934 0.69606441
932 0.81922346
930 0.90495151
928 0.98113567
926 1.0416936
924 1.082852
922 1.0998846
920 1.0878297
918 1.0488877
916 1.0163991
914 0.98851246
912 0.9709022
910 0.95858651
908 0.91920555
906 0.86966825
904 0.8078993
902 0.74317503
900 0.69076592
898 0.64051253
896 0.66325998
