##TITLE=Methyl Ethyl Ketone
##JCAMP-DX=4.24
##DATA TYPE=INFRARED SPECTRUM
##XUNITS=cm-1
##YUNITS=Absorbance
##FIRSTX=900
##LASTX=2300
##XYDATA=(X++(Y..Y))
2296 0.13354
2294 0.13631602
2292 0.13909206
2290 0.14186808
2288 0.14465405
2286 0.14743014
2284 0.15020618
2282 0.15298219
2280 0.15575823
2278 0.15853426
2276 0.16132013
2274 0.16409631
2272 0.16687235
2270 0.16963856
2268 0.172434
2266 0.17524958
2264 0.17798737
2262 0.18061614
2260 0.18353467
2258 0.18685934
2256 0.18911628
2254 0.18987839
2252 0.19458789
2250 0.20485632
2248 0.20047766
2246 0.1610925
2244 0.090292141
2242 0.0034045167
2240 -0.063848563
2238 -0.080589496
2236 -0.058381628
2234 -0.016169669
2232 0.046281751
2230 0.13068749
2228 0.22193746
2226 0.30137348
2224 0.35582194
2222 0.37814692
2220 0.37896574
2218 0.37442687
2216 0.38193855
2214 0.41573656
2212 0.47590199
2210 0.55577511
2208 0.63843036
2206 0.70373154
2204 0.73069394
2202 0.70117986
2200 0.60942972
2198 0.46069878
2196 0.28922713
2194 0.13577667
2192 0.03099383
2190 -0.003681808
2188 0.029429246
2186 0.11973166
2184 0.25340402
2182 0.41215059
2180 0.5629223
2178 0.67179388
2176 0.72055113
2174 0.70594156
2172 0.66455197
2170 0.6405344
2168 0.65577561
2166 0.71559435
2164 0.78897947
2162 0.84030098
2160 0.86399513
2158 0.8665989
2156 0.861287
2154 0.85998911
2152 0.86129159
2150 0.86165601
2148 0.86785054
2146 0.88667822
2144 0.90991443
2142 0.9268446
2140 0.93835878
2138 0.95129919
2136 0.97960055
2134 1.0359756
2132 1.1186491
2130 1.2197516
2128 1.3285359
2126 1.4289421
2124 1.4873132
2122 1.4712067
2120 1.3793474
2118 1.2302597
2116 1.0759386
2114 0.9734239
2112 0.95185447
2110 1.015964
2108 1.1156014
2106 1.1861107
2104 1.1884422
2102 1.1091824
2100 0.99868041
2098 0.92292333
2096 0.91295004
2094 0.97313809
2092 1.0569379
2090 1.1066846
2088 1.0983703
2086 1.0311999
2084 0.94252062
2082 0.87697804
2080 0.85022676
2078 0.86124247
2076 0.89054483
2074 0.91751492
2072 0.94567561
2070 0.98760831
2068 1.0517257
2066 1.1385993
2064 1.2249982
2062 1.2816757
2060 1.2935257
2058 1.256933
2056 1.1890628
2054 1.1141506
2052 1.0499883
2050 1.0091136
2048 0.9945702
2046 1.0040572
2044 1.0292959
2042 1.0604943
2040 1.0913863
2038 1.1177192
2036 1.1378714
2034 1.1512356
2032 1.1577194
2030 1.158538
2028 1.1610066
2026 1.1735457
2024 1.1986377
2022 1.2339998
2020 1.2685169
2018 1.2868208
2016 1.2729
2014 1.2149562
2012 1.1214466
2010 1.0119561
2008 0.91585273
2006 0.86169511
2004 0.85795295
2002 0.90253186
2000 0.98891425
1998 1.1080226
1996 1.2455857
1994 1.3822275
1992 1.4861845
1990 1.5266701
1988 1.501
1986 1.4229851
1984 1.3172703
1982 1.2099864
1980 1.1133171
1978 1.0350631
1976 0.99402314
1974 1.0105999
1972 1.0871021
1970 1.2091862
1968 1.3320155
1966 1.4032292
1964 1.4013954
1962 1.329542
1960 1.2249761
1958 1.1348042
1956 1.0792929
1954 1.0598383
1952 1.0605189
1950 1.0609225
1948 1.056492
1946 1.05225
1944 1.0583366
1942 1.0837121
1940 1.1237148
1938 1.1660345
1936 1.19708
1934 1.2060277
1932 1.1956
1930 1.1777409
1928 1.1727999
1926 1.2022285
1924 1.2730849
1922 1.3775662
1920 1.4789411
1918 1.5327669
1916 1.5272628
1914 1.4726087
1912 1.3908726
1910 1.3034525
1908 1.2053517
1906 1.0822043
1904 0.94374883
1902 0.81725031
1900 0.74321061
1898 0.75907171
1896 0.86208284
1894 1.0185475
1892 1.1614066
1890 1.216669
1888 1.1552229
1886 0.98676044
1884 0.77176678
1882 0.58753699
1880 0.46725181
1878 0.41254017
1876 0.410348
1874 0.44587076
1872 0.52275932
1870 0.64511716
1868 0.76817
1866 0.823955
1864 0.77541602
1862 0.62159729
1860 0.42615178
1858 0.27724373
1856 0.20826885
1854 0.21061596
1852 0.25345856
1850 0.30004188
1848 0.33068159
1846 0.33907714
1844 0.32711047
1842 0.30195132
1840 0.27715793
1838 0.27019155
1836 0.29982501
1834 0.382741
1832 0.52414668
1830 0.7127465
1828 0.89616078
1826 1.0047461
1824 1.0057539
1822 0.90344507
1820 0.74956298
1818 0.61627197
1816 0.54261029
1814 0.53591442
1812 0.5723176
1810 0.61639827
1808 0.66022414
1806 0.71295297
1804 0.76950109
1802 0.81276834
1800 0.82489198
1798 0.79746646
1796 0.76082069
1794 0.76076114
1792 0.79502839
1790 0.8288123
1788 0.842556
1786 0.83462369
1784 0.81729281
1782 0.81021827
1780 0.83150119
1778 0.89891928
1776 1.03829
1774 1.262274
1772 1.4967712
1770 1.614423
1768 1.5274458
1766 1.21251
1764 0.77616102
1762 0.38744798
1760 0.097697489
1758 -0.12786539
1756 -0.27635941
1754 -0.29329649
1752 -0.15136923
1750 0.13112357
1748 0.44659904
1746 0.64134711
1744 0.63507956
1742 0.43756086
1740 0.1844283
1738 0.06686911
1736 0.13947999
1734 0.32562497
1732 0.47083205
1730 0.41190398
1728 0.14278026
1726 -0.20511156
1724 -0.44509101
1722 -0.38254431
1720 0.10210863
1718 1.0193045
1716 2.1556373
1714 3.1697874
1712 3.8932166
1710 4.3563957
1708 4.7747097
1706 5.4678001
1704 6.6745548
1702 8.5275068
1700 11.047574
1698 14.13673
1696 17.489857
1694 20.689341
1692 23.524086
1690 26.038277
1688 28.574314
1686 31.656807
1684 35.652466
1682 40.639503
1680 46.1054
1678 51.211468
1676 55.759815
1674 60.153259
1672 64.754967
1670 69.703072
1668 74.709435
1666 79.211845
1664 82.949402
1662 85.98719
1660 88.446121
1658 90.434624
1656 92.024857
1654 93.241959
1652 94.031876
1650 94.281532
1648 93.900978
1646 92.877464
1644 91.416489
1642 89.861794
1640 88.325882
1638 86.66449
1636 84.648415
1634 82.060707
1632 78.892166
1630 75.312744
1628 71.441483
1626 67.30867
1624 62.915478
1622 58.274082
1620 53.495575
1618 48.780571
1616 44.309227
1614 40.216549
1612 36.606113
1610 33.54108
1608 30.988537
1606 28.833771
1604 26.979643
1602 25.372589
1600 24.01148
1598 22.932171
1596 22.149
1594 21.642538
1592 21.368492
1590 21.272581
1588 21.337637
1586 21.586992
1584 22.043148
1582 22.72496
1580 23.680246
1578 24.986586
1576 26.715914
1574 28.909626
1572 31.503616
1570 34.329144
1568 37.221161
1566 40.050163
1564 42.738388
1562 45.29319
1560 47.917873
1558 50.913513
1556 54.118885
1554 56.89426
1552 58.773293
1550 59.650501
1548 59.771801
1546 59.627357
1544 59.433136
1542 59.026913
1540 58.116821
1538 56.423855
1536 54.014656
1534 51.326027
1532 48.750813
1530 46.509945
1528 44.631996
1526 42.96225
1524 41.308739
1522 39.496071
1520 37.436092
1518 35.154934
1516 32.7967
1514 30.577621
1512 28.528601
1510 26.448668
1508 24.132393
1506 21.471628
1504 18.611547
1502 15.939529
1500 13.688123
1498 11.83406
1496 10.260457
1494 8.8172674
1492 7.4198322
1490 6.0666003
1488 4.7426834
1486 3.4111257
1484 2.1142781
1482 0.99561244
1480 0.19574997
1478 -0.17495303
1476 -0.010125428
1474 0.76509154
1472 2.0390201
1470 3.4914842
1468 4.8735614
1466 6.1002951
1464 7.1960807
1462 8.2743101
1460 9.4279184
1458 10.676455
1456 11.912001
1454 12.898726
1452 13.469349
1450 13.595182
1448 13.34464
1446 12.865607
1444 12.290534
1442 11.70331
1440 11.144783
1438 10.605718
1436 10.029606
1434 9.3213177
1432 8.456501
1430 7.5204439
1428 6.637886
1426 5.9419236
1424 5.4948521
1422 5.2564173
1420 5.157742
1418 5.1274629
1416 5.1289144
1414 5.1758571
1412 5.2975855
1410 5.5241504
1408 5.8552856
1406 6.2464557
1404 6.6412272
1402 6.9828215
1400 7.230196
1398 7.3663011
1396 7.3864431
1394 7.2972221
1392 7.1142683
1390 6.8615007
1388 6.5571418
1386 6.2093801
1384 5.8310318
1382 5.444622
1380 5.0710921
1378 4.7219596
1376 4.3847885
1374 4.0170655
1372 3.585674
1370 3.0850108
1368 2.5300708
1366 1.956475
1364 1.3934423
1362 0.8555851
1360 0.36881155
1358 -0.019465476
1356 -0.26227042
1354 -0.3233844
1352 -0.18426207
1350 0.1470668
1348 0.64244276
1346 1.2524822
1344 1.931064
1342 2.6429572
1340 3.3433146
1338 3.965991
1336 4.4325171
1334 4.6607494
1332 4.620667
1330 4.3702269
1328 3.9921966
1326 3.5747378
1324 3.1913576
1322 2.8857148
1320 2.6763194
1318 2.5485306
1316 2.4690201
1314 2.3870854
1312 2.258492
1310 2.0597408
1308 1.7919199
1306 1.4910864
1304 1.2057338
1302 0.99016804
1300 0.88574737
1298 0.90836287
1296 1.0598
1294 1.3278933
1292 1.6998774
1290 2.1662068
1288 2.7079921
1286 3.2875135
1284 3.8546216
1282 4.3478532
1280 4.7231069
1278 4.975831
1276 5.1288586
1274 5.2372251
1272 5.3548846
1270 5.5187416
1268 5.7524509
1266 6.0621719
1264 6.4494238
1262 6.9143534
1260 7.4571943
1258 8.0792818
1256 8.7849541
1254 9.5837498
1252 10.484709
1250 11.492361
1248 12.601177
1246 13.7865
1244 15.008512
1242 16.205978
1240 17.313469
1238 18.257298
1236 18.963785
1234 19.361177
1232 19.389999
1230 19.017578
1228 18.25293
1226 17.171644
1224 15.870423
1222 14.452125
1220 13.017082
1218 11.66303
1216 10.479925
1214 9.5481863
1212 8.9204712
1210 8.5944567
1208 8.5314016
1206 8.6426191
1204 8.8255243
1202 8.9751263
1200 8.9991856
1198 8.836153
1196 8.4538279
1194 7.8690977
1192 7.1249599
1190 6.2951632
1188 5.4554787
1186 4.6693077
1184 3.9853399
1182 3.4255338
1180 2.9972165
1178 2.6890411
1176 2.4832399
1174 2.3580673
1172 2.2908409
1170 2.2592511
1168 2.2430439
1166 2.2263784
1164 2.2001317
1162 2.168211
1160 2.1343851
1158 2.0949924
1156 2.0395114
1154 1.9462239
1152 1.7987
1150 1.5979297
1148 1.35392
1146 1.0875089
1144 0.8192845
1142 0.56233048
1140 0.31769398
1138 0.065435901
1136 -0.19590743
1134 -0.41356337
1132 -0.53209615
1130 -0.52304667
1128 -0.38668239
1126 -0.17656474
1124 0.042731255
1122 0.21308701
1120 0.2978192
1118 0.30940649
1116 0.277192
1114 0.24209483
1112 0.23828441
1110 0.27547139
1108 0.34990612
1106 0.43945199
1104 0.52322525
1102 0.59555405
1100 0.66402686
1098 0.75990301
1096 0.91416001
1094 1.1421295
1092 1.4530979
1090 1.8499148
1088 2.3280852
1086 2.8665056
1084 3.4238081
1082 3.917022
1080 4.2652273
1078 4.422503
1076 4.3739643
1074 4.1652918
1072 3.8602233
1070 3.5303764
1068 3.2407398
1066 3.0305371
1064 2.917624
1062 2.8782949
1060 2.8817997
1058 2.9066722
1056 2.9410999
1054 2.9928174
1052 3.0676379
1050 3.1514139
1048 3.2261193
1046 3.2762358
1044 3.2971165
1042 3.3128333
1040 3.3539822
1038 3.449043
1036 3.60763
1034 3.7863674
1032 3.9246869
1030 3.9523726
1028 3.8228228
1026 3.5669823
1024 3.2407019
1022 2.917048
1020 2.6474986
1018 2.4067931
1016 2.1585028
1014 1.8891112
1012 1.6069177
1010 1.36709
1008 1.2101281
1006 1.0962662
1004 0.97163653
1002 0.80105191
1000 0.57380521
998 0.34116468
996 0.15189423
994 -0.00132294
992 -0.1385776
990 -0.27591074
988 -0.41276878
986 -0.49936092
984 -0.48950732
982 -0.38901722
980 -0.23062208
978 -0.092354298
976 -0.041740373
974 -0.074190095
972 -0.15737286
970 -0.22653052
968 -0.22501594
966 -0.15065511
964 -0.017048135
962 0.15459025
960 0.34552312
958 0.55178112
956 0.76623613
954 0.95775384
952 1.0809441
950 1.0622325
948 0.85709047
946 0.54700041
944 0.23596263
942 -0.0037279725
940 -0.11142273
938 -0.040911242
936 0.21883258
934 0.56470692
932 0.88911057
930 1.171982
928 1.4126269
926 1.6004372
924 1.732136
922 1.8390601
920 1.9615943
918 2.1431029
916 2.4040086
914 2.6764643
912 2.8905799
910 3.0547099
908 3.2060077
906 3.4174914
904 3.7524636
902 4.2007637
900 4.7282772
898 5.2794347
896 5.7932
