##TITLE=Methyl Ethyl Ketone
##JCAMP-DX=4.24
##DATA TYPE=INFRARED SPECTRUM
##XUNITS=cm-1
##YUNITS=Absorbance
##FIRSTX=900
##LASTX=2300
##XYDATA=(X++(Y..Y))
2296 0.0091695003
2294 0.0093602268
2292 0.0095510539
2290 0.0097417813
2288 0.0099325087
2286 0.010123633
2284 0.010314363
2282 0.01050509
2280 0.010695817
2278 0.010886544
2276 0.011077271
2274 0.011267998
2272 0.011458726
2270 0.011649452
2268 0.01184018
2266 0.012030907
2264 0.012221634
2262 0.012412361
2260 0.012603088
2258 0.012793816
2256 0.012984542
2254 0.01317527
2252 0.013365997
2250 0.013556724
2248 0.013747452
2246 0.013938179
2244 0.0052453931
2242 0.000189378
2240 -0.030803518
2238 -0.05393476
2236 -0.075843304
2234 -0.082073785
2232 -0.087077074
2230 -0.089734785
2228 -0.098829828
2226 -0.1606504
2224 -0.23064046
2222 -0.32609499
2220 -0.41034791
2218 -0.45651412
2216 -0.48129687
2214 -0.46404737
2212 -0.41944319
2210 -0.33422589
2208 -0.23808645
2206 -0.13142942
2204 -0.072373778
2202 -0.059768293
2200 -0.10181703
2198 -0.1824104
2196 -0.23962714
2194 -0.28192663
2192 -0.26080662
2190 -0.21232297
2188 -0.16480348
2186 -0.11815614
2184 -0.13945879
2182 -0.17636119
2180 -0.2474003
2178 -0.32278633
2176 -0.34698856
2174 -0.36404163
2172 -0.35358849
2170 -0.34797099
2168 -0.38526297
2166 -0.43033499
2164 -0.48867643
2162 -0.53644067
2160 -0.55364829
2158 -0.563223
2156 -0.56411099
2154 -0.56922287
2152 -0.58177686
2150 -0.58542514
2148 -0.57819593
2146 -0.54045284
2144 -0.47677675
2142 -0.4121016
2140 -0.34869123
2138 -0.34555116
2136 -0.37511027
2134 -0.44202453
2132 -0.52310807
2130 -0.59522802
2128 -0.66401559
2126 -0.72281176
2124 -0.77943754
2122 -0.83690119
2120 -0.897008
2118 -1.0036719
2116 -1.1079443
2114 -1.143646
2112 -1.1277177
2110 -0.92651045
2108 -0.70038331
2106 -0.48111308
2104 -0.32806143
2102 -0.31916618
2100 -0.36243659
2098 -0.45763287
2096 -0.55680853
2094 -0.65147549
2092 -0.74640512
2090 -0.84228224
2088 -0.92405045
2086 -0.99352252
2084 -1.014392
2082 -1.0041012
2080 -0.94353724
2078 -0.85892212
2076 -0.800322
2074 -0.75385696
2072 -0.77012444
2070 -0.80642217
2068 -0.82084608
2066 -0.82991457
2064 -0.8259238
2062 -0.82498157
2060 -0.87388968
2058 -0.929699
2056 -0.96920204
2054 -0.9884823
2052 -0.94892514
2050 -0.89466429
2048 -0.83501142
2046 -0.79439926
2044 -0.79412562
2042 -0.82431191
2040 -0.88650268
2038 -0.957232
2036 -1.0282124
2034 -1.0783037
2032 -1.1086274
2030 -1.122367
2028 -1.1273109
2026 -1.1171036
2024 -1.0991914
2022 -1.0063771
2020 -0.87583864
2018 -0.73565978
2016 -0.59239
2014 -0.62116104
2012 -0.7062431
2010 -0.8630203
2008 -1.0284781
2006 -1.0555193
2004 -1.0374966
2002 -0.95717037
2000 -0.873133
1998 -0.84962052
1996 -0.84832215
1994 -0.87294108
1992 -0.89806145
1990 -0.90236294
1988 -0.90384823
1986 -0.89940947
1984 -0.9163506
1982 -0.96529049
1980 -1.0326465
1978 -1.1165341
1976 -1.1443686
1974 -1.119288
1972 -0.9894582
1970 -0.78939021
1968 -0.59110892
1966 -0.40181199
1964 -0.38348106
1962 -0.4520655
1960 -0.62977642
1958 -0.84942794
1956 -1.0156794
1954 -1.1582557
1952 -1.2355435
1950 -1.2872934
1948 -1.3271271
1946 -1.3677001
1944 -1.4262583
1942 -1.4969414
1940 -1.560814
1938 -1.6198407
1936 -1.6646628
1934 -1.7043605
1932 -1.752932
1930 -1.7994881
1928 -1.8494577
1926 -1.8444129
1924 -1.7728626
1922 -1.6005567
1920 -1.3325765
1918 -1.096347
1916 -0.89921439
1914 -0.79801339
1912 -0.76407665
1910 -0.76270264
1908 -0.77715564
1906 -0.88983864
1904 -1.0532408
1902 -1.2133439
1900 -1.3661472
1898 -1.3019291
1896 -1.1439
1894 -0.90107262
1892 -0.6550827
1890 -0.59552401
1888 -0.66070956
1886 -0.93793112
1884 -1.2984449
1882 -1.6681395
1880 -1.9883028
1878 -2.1936476
1876 -2.28824
1874 -2.2695675
1872 -2.1245074
1870 -1.8559897
1868 -1.5573525
1866 -1.2479265
1864 -1.1045051
1862 -1.120577
1860 -1.2587706
1858 -1.4774088
1856 -1.6993971
1854 -1.9185693
1852 -2.0368462
1850 -2.096029
1848 -1.9746159
1846 -1.762625
1844 -1.5840123
1842 -1.4429408
1840 -1.5316184
1838 -1.7242886
1836 -1.9356201
1834 -2.1092021
1832 -2.0957868
1830 -1.9425464
1828 -1.570412
1826 -1.16021
1824 -0.85981566
1822 -0.74138147
1820 -0.9161284
1818 -1.1994244
1816 -1.4947115
1814 -1.6733859
1812 -1.6875408
1810 -1.6047055
1808 -1.4651
1806 -1.321605
1804 -1.1897802
1802 -1.0501895
1800 -0.90943396
1798 -0.76955014
1796 -0.63340282
1794 -0.49734941
1792 -0.34944999
1790 -0.21819243
1788 -0.084596097
1786 0.0024684556
1784 0.069558792
1782 0.11741759
1780 0.17924237
1778 0.36246508
1776 0.63444197
1774 1.0053911
1772 1.3220074
1770 1.3609773
1768 1.1659538
1766 0.75593388
1764 0.3583346
1762 0.15105943
1760 0.038879141
1758 -0.06603536
1756 -0.092722759
1754 -0.015184078
1752 0.27748257
1750 0.77579224
1748 1.3071563
1746 1.8150786
1744 1.9795645
1742 1.8449799
1740 1.6330457
1738 1.4011252
1736 1.4445
1734 1.6868393
1732 1.7883195
1730 1.7662394
1728 1.3202834
1726 0.63357526
1724 0.098557338
1722 -0.21372443
1720 0.10200796
1718 0.98331738
1716 2.4272184
1714 3.9720798
1712 5.038456
1710 5.7482142
1708 6.180408
1706 6.7592721
1704 7.8359146
1702 9.693222
1700 12.463831
1698 15.877607
1696 19.741428
1694 23.260962
1692 26.144554
1690 28.745171
1688 31.204634
1686 34.378101
1684 38.304764
1682 42.731064
1680 47.51408
1678 51.511189
1676 54.815659
1674 58.190548
1672 61.697041
1670 65.901436
1668 70.61116
1666 75.268799
1664 79.829605
1662 84.074814
1660 88.012733
1658 91.598885
1656 94.878456
1654 97.9039
1652 100.5268
1650 102.60943
1648 103.4024
1646 102.395
1644 100.14857
1642 97.214928
1640 94.018211
1638 90.809509
1636 87.159859
1634 82.956917
1632 78.570496
1630 74.164902
1628 70.02681
1626 66.167404
1624 62.132839
1622 57.870625
1620 53.569046
1618 49.260178
1616 45.147827
1614 41.26709
1612 37.787067
1610 34.741909
1608 32.161953
1606 30.018692
1604 28.152456
1602 26.571075
1600 25.248709
1598 24.201147
1596 23.403999
1594 22.827221
1592 22.402983
1590 22.1026
1588 21.887983
1586 21.814306
1584 21.899748
1582 22.198912
1580 22.712952
1578 23.505808
1576 24.591543
1574 25.874592
1572 27.336218
1570 28.695084
1568 29.898439
1566 30.948492
1564 31.842337
1562 32.915825
1560 34.261444
1558 36.465942
1556 39.499413
1554 42.56686
1552 45.523258
1550 47.719677
1548 49.284103
1546 50.784679
1544 52.232491
1542 53.691074
1540 54.751122
1538 54.952641
1536 54.292973
1534 52.907337
1532 51.292931
1530 49.878002
1528 48.635849
1526 47.5387
1524 46.347366
1522 44.940971
1520 43.154488
1518 40.952358
1516 38.723915
1514 36.58165
1512 34.521881
1510 32.496506
1508 29.970442
1506 26.788179
1504 23.640743
1502 20.647848
1500 18.212486
1498 16.398001
1496 14.604428
1494 12.814279
1492 11.003665
1490 9.1716881
1488 7.3705001
1486 5.6101608
1484 3.8912401
1482 2.3624001
1480 1.1637256
1478 0.37787753
1476 0.060814716
1474 0.20193255
1472 0.85058701
1470 1.623745
1468 2.2293758
1466 2.6998508
1464 2.9753931
1462 3.2944586
1460 3.7575538
1458 4.3036518
1456 4.9577799
1454 5.4225478
1452 5.6111283
1450 5.6223555
1448 5.3990436
1446 5.1020069
1444 4.7014432
1442 4.2956161
1440 3.8923457
1438 3.5920448
1436 3.3825428
1434 3.1940875
1432 2.989491
1430 2.7070408
1428 2.4160981
1426 2.222225
1424 2.1757057
1422 2.3103004
1420 2.548068
1418 2.8111916
1416 3.03526
1414 3.161813
1412 3.2784286
1410 3.4011941
1408 3.5598044
1406 3.768168
1404 4.013123
1402 4.332315
1400 4.691328
1398 5.1174164
1396 5.48245
1394 5.733954
1392 5.8360801
1390 5.7251644
1388 5.5277677
1386 5.209795
1384 4.8521957
1382 4.4504733
1380 4.0815949
1378 3.7589393
1376 3.5089228
1374 3.3128431
1372 3.136574
1370 2.9677598
1368 2.7651954
1366 2.5291858
1364 2.2180214
1362 1.8298767
1360 1.3737633
1358 0.9121716
1356 0.52286929
1354 0.23275483
1352 0.08228872
1350 0.0039844168
1348 -0.02543081
1346 -0.070281319
1344 -0.039573643
1342 0.059306324
1340 0.28066224
1338 0.49871767
1336 0.70427489
1334 0.79646134
1332 0.73690814
1330 0.65204424
1328 0.55133021
1326 0.53653604
1324 0.63903528
1322 0.86295187
1320 1.2194257
1318 1.6354399
1316 2.0717201
1314 2.4045813
1312 2.6176698
1310 2.6708472
1308 2.6182787
1306 2.5176806
1304 2.4016395
1302 2.307539
1300 2.2178943
1298 2.1287787
1296 2.0328286
1294 1.9320784
1292 1.8466474
1290 1.8121823
1288 1.805564
1286 1.8571249
1284 1.8964689
1282 1.8998588
1280 1.8784028
1278 1.8089561
1276 1.7677057
1274 1.781696
1272 1.862904
1270 2.0504055
1268 2.278846
1266 2.5628049
1264 2.8351462
1262 3.09901
1260 3.3553259
1258 3.6145842
1256 3.911103
1254 4.2474051
1252 4.6239243
1250 5.0250416
1248 5.4225621
1246 5.797225
1244 6.1083417
1242 6.3723307
1240 6.5650787
1238 6.73981
1236 6.9177656
1234 7.0947495
1232 7.26366
1230 7.3801713
1228 7.3262353
1226 7.2006197
1224 6.8816729
1222 6.5318232
1220 6.1108336
1218 5.6774817
1216 5.2208943
1214 4.7597427
1212 4.2945223
1210 3.8521597
1208 3.4438932
1206 3.0549693
1204 2.6799002
1202 2.2657523
1200 1.8061023
1198 1.2978867
1196 0.76538074
1194 0.28049755
1192 -0.14463803
1190 -0.43160689
1188 -0.63084781
1186 -0.71696496
1184 -0.7635231
1182 -0.79849565
1180 -0.82767427
1178 -0.84689099
1176 -0.84463
1174 -0.76250803
1172 -0.6626389
1170 -0.50935417
1168 -0.35473961
1166 -0.19244888
1164 -0.024926543
1162 0.15575489
1160 0.34105423
1158 0.53147817
1156 0.70251304
1154 0.83272445
1152 0.90300488
1150 0.88188362
1148 0.77683622
1146 0.58144075
1144 0.36245644
1142 0.14449725
1140 0.033699051
1138 0.015299238
1136 0.11363121
1134 0.2787959
1132 0.54350996
1130 0.85182589
1128 1.1872561
1126 1.5321735
1124 1.8860445
1122 2.2442906
1120 2.6180961
1118 2.9949989
1116 3.3809543
1114 3.7500339
1112 4.0441513
1110 4.2923803
1108 4.3958702
1106 4.4842
1104 4.5414
1102 4.6435628
1100 4.8359132
1098 5.0645051
1096 5.3467426
1094 5.6226158
1092 5.8923764
1090 6.1719441
1088 6.4699254
1086 6.8298359
1084 7.2420826
1082 7.6954393
1080 8.1617298
1078 8.553544
1076 8.8845224
1074 9.0216103
1072 9.0729704
1070 8.9571714
1068 8.800457
1066 8.6101456
1064 8.4265318
1062 8.3237648
1060 8.2482157
1058 8.3230877
1056 8.4080772
1054 8.5354767
1052 8.6404219
1050 8.6724758
1048 8.6898546
1046 8.6739712
1044 8.6698666
1042 8.6907024
1040 8.7348738
1038 8.8097219
1036 8.8487196
1034 8.8345919
1032 8.6959429
1030 8.4411926
1028 8.1314888
1026 7.7852669
1024 7.4522943
1022 7.1135206
1020 6.6359596
1018 6.0956402
1016 5.4482627
1014 4.7852449
1012 4.2666774
1010 3.7793446
1008 3.372088
1006 2.9678986
1004 2.5245953
1002 2.0888469
1000 1.7067331
998 1.319689
996 0.90964001
994 0.47494656
992 -0.031874508
990 -0.49348488
988 -0.84714615
986 -1.1254172
984 -1.2747469
982 -1.4232284
980 -1.569558
978 -1.6814573
976 -1.74966
974 -1.6832335
972 -1.5059317
970 -1.2557737
968 -0.96585947
966 -0.740215
964 -0.54581851
962 -0.39158583
960 -0.24809065
958 -0.073237814
956 0.10514986
954 0.20071873
952 0.28008881
950 0.20568195
948 0.12580641
946 0.054980677
944 0.0018063411
942 0.056885287
940 0.18795159
938 0.42526239
936 0.70454395
934 1.1061503
932 1.5168829
930 1.9448192
928 2.2707393
926 2.432687
924 2.5282922
922 2.5429249
920 2.5604568
918 2.5816023
916 2.6264887
914 2.6908998
912 2.9327195
910 3.2675819
908 3.7154896
906 4.2033305
904 4.6549168
902 5.0950317
900 5.6150227
898 6.1471667
896 6.6830001
