##TITLE=Methyl Ethyl Ketone
##JCAMP-DX=4.24
##DATA TYPE=INFRARED SPECTRUM
##XUNITS=cm-1
##YUNITS=Absorbance
##FIRSTX=900
##LASTX=2300
##XYDATA=(X++(Y..Y))
2296 0.13867
2294 0.14155588
2292 0.14444174
2290 0.14732762
2288 0.15021349
2286 0.15308942
2284 0.15597524
2282 0.1588611
2280 0.16174696
2278 0.16463284
2276 0.16751871
2274 0.17040458
2272 0.17329045
2270 0.17617632
2268 0.17905241
2266 0.18193807
2264 0.18482395
2262 0.18770981
2260 0.19059569
2258 0.19348156
2256 0.19636743
2254 0.19925331
2252 0.20213918
2250 0.20501538
2248 0.20790091
2246 0.21078677
2244 0.036157425
2242 0.0011346558
2240 -0.00410832
2238 0.067035824
2236 0.14927563
2234 0.13038939
2232 0.10720103
2230 0.1518295
2228 0.20566694
2226 0.30676749
2224 0.39221811
2222 0.39503562
2220 0.38967291
2218 0.37279779
2216 0.35561228
2214 0.33916232
2212 0.29496941
2210 0.20543908
2208 0.12014034
2206 0.0435884
2204 0.023069138
2202 0.056049138
2200 0.13313551
2198 0.24058591
2196 0.33724502
2194 0.42649445
2192 0.45974168
2190 0.46863729
2188 0.43080837
2186 0.37832201
2184 0.2933532
2182 0.20112331
2180 0.098409094
2178 -0.0048930021
2176 -0.032585997
2174 -0.045775715
2172 0.026778428
2170 0.10407325
2168 0.1618264
2166 0.19721137
2164 0.15788634
2162 0.097769618
2160 0.003489071
2158 -0.094278939
2156 -0.192013
2154 -0.28655323
2152 -0.37647709
2150 -0.47192937
2148 -0.57417089
2146 -0.66761464
2144 -0.75264961
2142 -0.75605059
2140 -0.70331413
2138 -0.6016705
2136 -0.47649086
2134 -0.46182927
2132 -0.49461815
2130 -0.63361704
2128 -0.80509639
2126 -0.91032654
2124 -0.99962467
2122 -0.97494602
2120 -0.93377453
2118 -0.91990381
2116 -0.91941553
2114 -0.98921698
2112 -1.0668314
2110 -1.1337112
2108 -1.191486
2106 -1.226325
2104 -1.2607137
2102 -1.3018523
2100 -1.343992
2098 -1.3863034
2096 -1.4177572
2094 -1.435178
2092 -1.4480786
2090 -1.4585992
2088 -1.4715943
2086 -1.4866899
2084 -1.4579422
2082 -1.4000466
2080 -1.2991784
2078 -1.1778929
2076 -1.1299429
2074 -1.1135774
2072 -1.2033961
2070 -1.32656
2068 -1.467616
2066 -1.6121114
2064 -1.7273377
2062 -1.83295
2060 -1.895314
2058 -1.946813
2056 -1.9854114
2054 -2.0215425
2052 -2.0590947
2050 -2.0783117
2048 -2.0502253
2046 -2.0127144
2044 -1.975414
2042 -1.9899828
2040 -2.0822978
2038 -2.2248282
2036 -2.4088614
2034 -2.5724437
2032 -2.7089274
2030 -2.779403
2028 -2.8021479
2026 -2.7572172
2024 -2.6743331
2022 -2.5215778
2020 -2.3357358
2018 -2.1389561
2016 -1.93894
2014 -1.8469727
2012 -1.7908542
2010 -1.8624952
2008 -1.9710715
2006 -2.1453736
2004 -2.3309395
2002 -2.4800789
2000 -2.5926943
1998 -2.5904412
1996 -2.5358715
1994 -2.4126863
1992 -2.2767143
1990 -2.1473773
1988 -2.0414779
1986 -1.9696715
1984 -1.9352165
1982 -1.9415786
1980 -1.9667026
1978 -2.0040689
1976 -2.0162857
1974 -2.0038021
1972 -1.98904
1970 -1.9770546
1968 -2.015672
1966 -2.085927
1964 -2.1728911
1962 -2.2649846
1960 -2.3155999
1958 -2.3472812
1956 -2.3550301
1954 -2.354671
1952 -2.3707926
1950 -2.3874681
1948 -2.3710616
1946 -2.3374751
1944 -2.2657697
1942 -2.202337
1940 -2.199111
1938 -2.2203162
1936 -2.2540088
1934 -2.2621171
1932 -2.215276
1930 -2.1538734
1928 -2.0989788
1926 -2.0508893
1924 -2.0120187
1922 -1.9822464
1920 -1.9572725
1918 -1.998907
1916 -2.0953128
1914 -2.1878614
1912 -2.2686412
1910 -2.2346473
1908 -2.1293595
1906 -2.0137751
1904 -1.897936
1902 -1.8801308
1900 -1.9069123
1898 -1.9149138
1896 -1.9064429
1894 -1.7961714
1892 -1.6571994
1890 -1.58564
1888 -1.5774726
1886 -1.7234329
1884 -1.9143335
1882 -2.0655167
1880 -2.1522479
1878 -2.1255057
1876 -2.0234101
1874 -1.8620777
1872 -1.6476359
1870 -1.3869177
1868 -1.210474
1866 -1.1488836
1864 -1.2685823
1862 -1.5370331
1860 -1.7771574
1858 -1.9603326
1856 -2.0321085
1854 -2.0311937
1852 -2.0292218
1850 -2.0390224
1848 -2.089612
1846 -2.1670072
1844 -2.157953
1842 -2.1017058
1840 -1.9022263
1838 -1.6321175
1836 -1.3521115
1834 -1.0657136
1832 -0.79220146
1830 -0.55374962
1828 -0.41372994
1826 -0.37616062
1824 -0.48340297
1822 -0.63221329
1820 -0.74382365
1818 -0.79322797
1816 -0.76903087
1814 -0.73300332
1812 -0.72267705
1810 -0.71619952
1808 -0.70162934
1806 -0.60359955
1804 -0.41940659
1802 -0.27510896
1800 -0.19173965
1798 -0.24272142
1796 -0.39187071
1794 -0.44138563
1792 -0.40331799
1790 -0.3200815
1788 -0.20992211
1786 -0.21529457
1784 -0.28547317
1782 -0.37369636
1780 -0.46450922
1778 -0.52309066
1776 -0.51807886
1774 -0.31628013
1772 0.0099851191
1770 0.43203333
1768 0.7616989
1766 0.763165
1764 0.572806
1762 0.28757209
1760 0.062290855
1758 -0.19925129
1756 -0.46114245
1754 -0.64033556
1752 -0.75646651
1750 -0.83611482
1748 -0.90708333
1746 -0.97713572
1744 -1.0650926
1742 -1.1614028
1740 -1.1437401
1738 -1.0304728
1736 -0.81090397
1734 -0.52682793
1732 -0.39115995
1730 -0.36606121
1728 -0.46461073
1726 -0.61722094
1724 -0.61778897
1722 -0.44947729
1720 0.12130058
1718 1.0569186
1716 2.2645772
1714 3.4342091
1712 4.1596894
1710 4.5864291
1708 4.8537083
1706 5.2702699
1704 6.1032543
1702 7.6630239
1700 10.102107
1698 13.516831
1696 17.834429
1694 22.152321
1692 26.067278
1690 29.546679
1688 32.659023
1686 36.327457
1684 40.647213
1682 45.606117
1680 51.053638
1678 55.764324
1676 59.803257
1674 63.7873
1672 67.795197
1670 72.315186
1668 77.182014
1666 81.828445
1664 86.245865
1662 90.328064
1660 94.081955
1658 97.481285
1656 100.526
1654 103.21275
1652 105.3544
1650 106.75396
1648 106.8064
1646 105.11607
1644 102.3144
1642 99.012863
1640 95.551071
1638 92.13311
1636 88.311111
1634 83.94873
1632 79.41169
1630 74.854111
1628 70.488091
1626 66.32885
1624 61.891479
1622 57.136967
1620 52.345161
1618 47.56295
1616 43.129601
1614 39.076599
1612 35.560959
1610 32.590118
1608 30.079029
1606 27.992529
1604 26.15148
1602 24.576109
1600 23.26676
1598 22.244192
1596 21.4935
1594 21.00705
1592 20.738434
1590 20.667454
1588 20.750109
1586 20.988194
1584 21.362331
1582 21.865181
1580 22.475174
1578 23.22584
1576 24.12417
1574 25.186596
1572 26.421194
1570 27.773701
1568 29.23192
1566 30.739435
1564 32.288818
1562 33.972702
1560 35.844845
1558 38.256348
1556 41.1693
1554 43.930328
1552 46.4114
1550 48.216389
1548 49.412434
1546 50.440823
1544 51.288139
1542 51.996857
1540 52.348518
1538 52.118778
1536 51.25943
1534 49.810501
1532 48.040741
1530 46.216232
1528 44.396263
1526 42.629101
1524 40.928829
1522 39.316357
1520 37.812675
1518 36.457985
1516 35.075897
1514 33.601891
1512 31.878639
1510 29.812561
1508 27.257748
1506 24.111013
1504 21.076954
1502 18.266031
1500 15.985277
1498 14.29718
1496 12.655572
1494 11.050873
1492 9.4277
1490 7.783947
1488 6.1450014
1486 4.5354099
1484 2.9960198
1482 1.6572579
1480 0.6651246
1478 0.094609268
1476 0.015889578
1474 0.4233492
1472 1.2576153
1470 2.1832371
1468 2.9743605
1466 3.6110001
1464 4.0325799
1462 4.4437656
1460 4.9277358
1458 5.4831181
1456 6.1387601
1454 6.6625342
1452 6.9753203
1450 7.0795302
1448 6.8904257
1446 6.6207538
1444 6.2440019
1442 5.8771501
1440 5.5259995
1438 5.2187295
1436 4.9380746
1434 4.6183491
1432 4.2420535
1430 3.816649
1428 3.4035602
1426 3.1161699
1424 3.0160155
1422 3.1606917
1420 3.49912
1418 3.9636905
1416 4.4122915
1414 4.6920729
1412 4.8793087
1410 4.9934607
1408 5.1551681
1406 5.4503798
1404 5.8140817
1402 6.2607412
1400 6.6903477
1398 7.0712171
1396 7.4020572
1394 7.650043
1392 7.8159914
1390 7.847506
1388 7.7333941
1386 7.39539
1384 6.9428267
1382 6.3480496
1380 5.7644773
1378 5.2095094
1376 4.7304459
1374 4.3376904
1372 4.02004
1370 3.7641344
1368 3.5062006
1366 3.2216406
1364 2.8478248
1362 2.3928757
1360 1.8684953
1358 1.3361781
1356 0.86759388
1354 0.48457885
1352 0.23566848
1350 0.062260311
1348 -0.0036663655
1346 0.014264431
1344 0.097362556
1342 0.2144478
1340 0.38659859
1338 0.54844475
1336 0.68721831
1334 0.78269124
1332 0.82493681
1330 0.88143498
1328 0.9724434
1326 1.1193464
1324 1.3401643
1322 1.6058112
1320 1.9166691
1318 2.2378809
1316 2.5507901
1314 2.8099322
1312 3.0087292
1310 3.1347585
1308 3.2120926
1306 3.2684715
1304 3.3137646
1302 3.355907
1300 3.3878326
1298 3.4007633
1296 3.4126713
1294 3.4446921
1292 3.5037317
1290 3.6256983
1288 3.7418001
1286 3.8199866
1284 3.8453641
1282 3.7441015
1280 3.6349127
1278 3.5154321
1276 3.4468172
1274 3.4797099
1272 3.5810258
1270 3.7953868
1268 4.0564837
1266 4.3781061
1264 4.6873631
1262 4.977489
1260 5.23452
1258 5.4726248
1256 5.7552657
1254 6.0944133
1252 6.5161295
1250 6.9813409
1248 7.4188294
1246 7.8148251
1244 8.1191654
1242 8.3902321
1240 8.6682234
1238 8.9580688
1236 9.2800512
1234 9.5706711
1232 9.7392559
1230 9.8242645
1228 9.6766777
1226 9.4611416
1224 9.0658255
1222 8.6224508
1220 8.0662422
1218 7.4886532
1216 6.8757801
1214 6.2951097
1212 5.7685347
1210 5.2617064
1208 4.7781529
1206 4.281095
1204 3.7832379
1202 3.3470182
1200 2.9829485
1198 2.6984525
1196 2.4671357
1194 2.2213492
1192 1.9607372
1190 1.672348
1188 1.3771471
1186 1.1049905
1184 0.85473859
1182 0.66369271
1180 0.50681317
1178 0.43325332
1176 0.390046
1174 0.42298251
1172 0.46726301
1170 0.53923571
1168 0.60676837
1166 0.6613664
1164 0.70722419
1162 0.72795618
1160 0.71627992
1158 0.63720524
1156 0.52789754
1154 0.37483713
1152 0.24578071
1150 0.14873162
1148 0.062749922
1146 -0.010518122
1144 -0.076516181
1142 -0.11606453
1140 -0.045162261
1138 0.1209126
1136 0.38686657
1134 0.69562924
1132 0.97579718
1130 1.2470671
1128 1.5282623
1126 1.8240213
1124 2.1805987
1122 2.5263875
1120 2.7587521
1118 2.9403098
1116 2.9068573
1114 2.8529758
1112 2.7299633
1110 2.61849
1108 2.5492787
1106 2.5385799
1104 2.6809881
1102 2.9205503
1100 3.3446934
1098 3.7660682
1096 4.167057
1094 4.4475636
1092 4.5822401
1090 4.7123737
1088 4.8601818
1086 5.1640801
1084 5.5830398
1082 5.9790444
1080 6.3210726
1078 6.3793559
1076 6.2913685
1074 6.0664096
1072 5.8163795
1070 5.7046208
1068 5.6430235
1066 5.7221394
1064 5.8217678
1062 5.9376817
1060 6.0330033
1058 5.9886246
1056 5.8983116
1054 5.6099739
1052 5.3428917
1050 5.151957
1048 5.0733547
1046 5.2608967
1044 5.442203
1042 5.5982022
1040 5.6099634
1038 5.4118514
1036 5.1774302
1034 4.9060664
1032 4.6744146
1030 4.473856
1028 4.239346
1026 3.9752588
1024 3.6478307
1022 3.288826
1020 2.9411757
1018 2.6089025
1016 2.3918142
1014 2.2063308
1012 2.0291088
1010 1.8435786
1008 1.5482
1006 1.2440058
1004 0.94424665
1002 0.64726949
1000 0.3699089
998 0.10264734
996 -0.11930142
994 -0.32291579
992 -0.47285503
990 -0.67484605
988 -0.99515688
986 -1.3158321
984 -1.6262617
982 -1.7474142
980 -1.609908
978 -1.3438236
976 -0.94547284
974 -0.55038929
972 -0.15958658
970 0.20012534
968 0.53175843
966 0.695494
964 0.7772752
962 0.73637819
960 0.65861064
958 0.63006991
956 0.61020428
954 0.54436117
952 0.4687036
950 0.28902167
948 0.11280066
946 0.045545142
944 0.001279749
942 0.041450351
940 0.17462787
938 0.553554
936 1.0989228
934 2.1320033
932 3.2127485
930 4.3866663
928 5.2067652
926 5.4557815
924 5.3673339
922 4.8698201
920 4.3762965
918 3.8910728
916 3.6760471
914 3.657239
912 4.0901699
910 4.7614803
908 5.5487275
906 6.3759432
904 6.7728209
902 7.0550408
900 7.1110554
898 7.1306906
896 7.3337002
