##TITLE=Methyl Ethyl Ketone
##JCAMP-DX=4.24
##DATA TYPE=INFRARED SPECTRUM
##XUNITS=cm-1
##YUNITS=Absorbance
##FIRSTX=900
##LASTX=2300
##XYDATA=(X++(Y..Y))
2296 0.0039646998
2294 0.0040471824
2292 0.004129664
2290 0.0042121462
2288 0.0042946278
2286 0.0043771099
2284 0.004459592
2282 0.0045420737
2280 0.0046245563
2278 0.0047069392
2276 0.0047894199
2274 0.0048719021
2272 0.0049543837
2270 0.0050368663
2268 0.0051193479
2266 0.0052018301
2264 0.0052843122
2262 0.0053667938
2260 0.005449276
2258 0.0055317581
2256 0.0056142402
2254 0.0056967223
2252 0.005779204
2250 0.0058616861
2248 0.0059441677
2246 0.0060266498
2244 0.00022395657
2242 0.053486194
2240 0.11736768
2238 0.10189009
2236 0.074617244
2234 -0.072364174
2232 -0.22605138
2230 -0.33698955
2228 -0.42987075
2226 -0.39518148
2224 -0.33774242
2222 -0.20611799
2220 -0.074138813
2218 0.046750996
2216 0.13471548
2214 0.15211393
2212 0.1434712
2210 0.099159792
2208 0.066224217
2206 0.050208714
2204 0.061096545
2202 0.09688136
2200 0.14807625
2198 0.20957109
2196 0.24556643
2194 0.26645941
2192 0.24028668
2190 0.19389839
2188 0.11963528
2186 0.036744643
2184 -0.065751158
2182 -0.17263459
2180 -0.28225571
2178 -0.3916041
2176 -0.447806
2174 -0.49539727
2172 -0.50054991
2170 -0.50041342
2168 -0.49305782
2166 -0.48252285
2164 -0.46304345
2162 -0.43255362
2160 -0.37616211
2158 -0.30502138
2156 -0.210876
2154 -0.13292755
2152 -0.081876338
2150 -0.041729614
2148 -0.010711975
2146 0.037888803
2144 0.10286949
2142 0.140113
2140 0.15685534
2138 0.16065462
2136 0.15855628
2134 0.15840033
2132 0.15936466
2130 0.096062399
2128 0.012247585
2126 -0.098326281
2124 -0.21476309
2122 -0.23954223
2120 -0.24366908
2118 -0.13406999
2116 -0.011392982
2114 0.087886527
2112 0.15085137
2110 0.067996703
2108 -0.062229522
2106 -0.27105367
2104 -0.46584162
2102 -0.6041463
2100 -0.6780628
2098 -0.65793419
2096 -0.58876574
2094 -0.47362575
2092 -0.37058288
2090 -0.28703943
2088 -0.24906074
2086 -0.2463035
2084 -0.25587791
2082 -0.2703388
2080 -0.28131858
2078 -0.29019463
2076 -0.297499
2074 -0.30428123
2072 -0.32024321
2070 -0.33923927
2068 -0.40442413
2066 -0.48088342
2064 -0.55191499
2062 -0.61563855
2060 -0.61350387
2058 -0.59110469
2056 -0.5285843
2054 -0.45358577
2052 -0.3627733
2050 -0.27043033
2048 -0.18277486
2046 -0.12847072
2044 -0.13751701
2042 -0.20457828
2040 -0.34038514
2038 -0.47045264
2036 -0.57725018
2034 -0.64255345
2032 -0.67190343
2030 -0.72386181
2028 -0.79897994
2026 -0.85710847
2024 -0.90217882
2022 -0.8484872
2020 -0.74457598
2018 -0.63623178
2016 -0.52851003
2014 -0.49289313
2012 -0.48113942
2010 -0.53392243
2008 -0.60629469
2006 -0.72903621
2004 -0.8508572
2002 -0.87688512
2000 -0.84952962
1998 -0.6982733
1996 -0.53724855
1994 -0.44222456
1992 -0.40602303
1990 -0.46355593
1988 -0.51209038
1986 -0.50258583
1984 -0.43241531
1982 -0.29701948
1980 -0.18827817
1978 -0.12740617
1976 -0.14054085
1974 -0.21313369
1972 -0.24389957
1970 -0.23386501
1968 -0.13801149
1966 0.0076614693
1964 0.1007929
1962 0.16261001
1960 0.13023201
1958 0.058604531
1956 -0.040316973
1954 -0.14644004
1952 -0.21360679
1950 -0.2651948
1948 -0.29622018
1946 -0.32736
1944 -0.39252406
1942 -0.4604283
1940 -0.49296796
1938 -0.50878304
1936 -0.50759315
1934 -0.52340323
1932 -0.5862332
1930 -0.63691676
1928 -0.64880252
1926 -0.54056126
1924 -0.29099357
1922 0.065210059
1920 0.49801737
1918 0.81163251
1916 1.0033542
1914 1.027431
1912 0.94414026
1910 0.85953856
1908 0.78659248
1906 0.70082092
1904 0.60742241
1902 0.50094676
1900 0.38949949
1898 0.40258488
1896 0.47167286
1894 0.62577802
1892 0.79611909
1890 0.85623389
1888 0.83804047
1886 0.66904533
1884 0.43867505
1882 0.19340359
1880 -0.019703548
1878 -0.1473655
1876 -0.18276499
1874 -0.10675674
1872 0.070192799
1870 0.34122518
1868 0.61864465
1866 0.87254405
1864 0.97300768
1862 0.92326558
1860 0.76042521
1858 0.52903277
1856 0.3403323
1854 0.19457011
1852 0.17825305
1850 0.24123536
1848 0.39745241
1846 0.59903753
1844 0.68443495
1842 0.69870323
1840 0.49384153
1838 0.18290299
1836 -0.17277589
1834 -0.52042323
1832 -0.73168457
1830 -0.80346215
1828 -0.58911544
1826 -0.25647035
1824 0.07256674
1822 0.25746077
1820 0.13880374
1818 -0.11540343
1816 -0.4045437
1814 -0.58806026
1812 -0.60332215
1810 -0.50185633
1808 -0.32532182
1806 -0.14654975
1804 0.011241645
1802 0.10074572
1800 0.13077348
1798 0.10987428
1796 0.058021285
1794 0.080236353
1792 0.1615852
1790 0.32150766
1788 0.52952516
1786 0.67263371
1784 0.77249002
1782 0.78754699
1780 0.76534927
1778 0.79642987
1776 0.86399543
1774 0.96522081
1772 1.0223774
1770 0.89966184
1768 0.67942494
1766 0.44081831
1764 0.26584899
1762 0.22685377
1760 0.089492857
1758 -0.13380703
1756 -0.25251856
1754 -0.23464945
1752 0.046507314
1750 0.58806592
1748 1.1634437
1746 1.6912893
1744 1.8435017
1742 1.655259
1740 1.3249965
1738 0.93233705
1736 0.83273
1734 0.9620561
1732 1.1149931
1730 1.2535962
1728 0.99437976
1726 0.48683888
1724 0.06070213
1722 -0.20821197
1720 0.085628062
1718 0.89371121
1716 2.2372315
1714 3.7160883
1712 4.7753
1710 5.4912438
1708 5.9246879
1706 6.4730186
1704 7.4949098
1702 9.344512
1700 12.192875
1698 15.795957
1696 19.910713
1694 23.5639
1692 26.412678
1690 28.891502
1688 31.217354
1686 34.412277
1684 38.522717
1682 43.335762
1680 48.646358
1678 53.063957
1676 56.675228
1674 60.214115
1672 63.786732
1670 68.063454
1668 72.86837
1666 77.674805
1664 82.409317
1662 86.81617
1660 90.89785
1658 94.623268
1656 98.020027
1654 101.12951
1652 103.7598
1650 105.70094
1648 106.30109
1646 105.09179
1644 102.66537
1642 99.612511
1640 96.28112
1638 92.913826
1636 89.08831
1634 84.685326
1632 80.107399
1630 75.520958
1628 71.221039
1626 67.23188
1624 63.085201
1622 58.728065
1620 54.305889
1618 49.848946
1616 45.570629
1614 41.507828
1612 37.878139
1610 34.71479
1608 32.071815
1606 29.922215
1604 28.095892
1602 26.574768
1600 25.266663
1598 24.173038
1596 23.258499
1594 22.549871
1592 22.053595
1590 21.762354
1588 21.644205
1586 21.674299
1584 21.813932
1582 22.09222
1580 22.510719
1578 23.186403
1576 24.156572
1574 25.350206
1572 26.739967
1570 28.021606
1568 29.12916
1566 30.111443
1564 30.980976
1562 32.185871
1560 33.833309
1558 36.344311
1556 39.663273
1554 42.681438
1552 45.253326
1550 47.042469
1548 48.181366
1546 49.350105
1544 50.528931
1542 51.673492
1540 52.463058
1538 52.472225
1536 51.750145
1534 50.485558
1532 49.005184
1530 47.643494
1528 46.35881
1526 45.115799
1524 43.804413
1522 42.362652
1520 40.739944
1518 38.916851
1516 37.0564
1514 35.205448
1512 33.299519
1510 31.302908
1508 28.799747
1506 25.649963
1504 22.512068
1502 19.470175
1500 16.957186
1498 15.03656
1496 13.165572
1494 11.355988
1492 9.6070089
1490 7.9469876
1488 6.4105926
1486 4.9789305
1484 3.5610061
1482 2.246428
1480 1.1481963
1478 0.38153049
1476 0.057844561
1474 0.24917993
1472 0.97813517
1470 1.791898
1468 2.4317949
1466 2.9210894
1464 3.2370806
1462 3.6422162
1460 4.2720475
1458 4.9787564
1456 5.74506
1454 6.2173376
1452 6.2302356
1450 6.0997119
1448 5.7929835
1446 5.5092177
1444 5.2549472
1442 5.0034399
1440 4.7628198
1438 4.5727935
1436 4.4199443
1434 4.2257771
1432 3.9571564
1430 3.581248
1428 3.1605899
1426 2.8494172
1424 2.693789
1422 2.7345612
1420 2.9140429
1418 3.1512902
1416 3.3968742
1414 3.6007431
1412 3.8023272
1410 4.0211172
1408 4.2561159
1406 4.5083823
1404 4.758018
1402 5.0010624
1400 5.2548718
1398 5.5337396
1396 5.8009787
1394 6.041749
1392 6.1941147
1390 6.2024188
1388 6.1224031
1386 5.9096103
1384 5.6448441
1382 5.313622
1380 4.9785161
1378 4.6371183
1376 4.296174
1374 3.9524019
1372 3.6148579
1370 3.3030252
1368 3.0512788
1366 2.8345351
1364 2.5880802
1362 2.2665737
1360 1.7987229
1358 1.2697533
1356 0.76060498
1354 0.34431833
1352 0.12299844
1350 0.013893689
1348 0.038269684
1346 0.10770721
1344 0.2273604
1342 0.36353356
1340 0.52163523
1338 0.66757262
1336 0.78773659
1334 0.87570751
1332 0.92103934
1330 0.978019
1328 1.0629641
1326 1.1953964
1324 1.3942965
1322 1.6366082
1320 1.9251308
1318 2.2219644
1316 2.50808
1314 2.7344594
1312 2.8913417
1310 2.9677842
1308 2.9895957
1306 2.9958315
1304 3.0033262
1302 3.0368571
1300 3.0806434
1298 3.1253481
1296 3.1635001
1294 3.1863163
1292 3.212853
1290 3.2602997
1288 3.3231521
1286 3.4194443
1284 3.512615
1282 3.5933814
1280 3.6646159
1278 3.7162704
1276 3.7708972
1274 3.8303099
1272 3.8967116
1270 3.976423
1268 4.0770898
1266 4.2165356
1264 4.4020915
1262 4.6510477
1260 4.9452162
1258 5.2897387
1256 5.6670284
1254 6.0800653
1252 6.5322452
1250 7.0186501
1248 7.5397439
1246 8.0713253
1244 8.5823803
1242 9.0585947
1240 9.445817
1238 9.7793369
1236 10.016353
1234 10.208833
1232 10.31304
1230 10.35761
1228 10.234986
1226 10.046129
1224 9.6807804
1222 9.2977591
1220 8.8724241
1218 8.4391537
1216 7.9831915
1214 7.4785666
1212 6.8928714
1210 6.2855196
1208 5.6556902
1206 5.0553846
1204 4.4931917
1202 3.9596472
1200 3.4592564
1198 2.9941347
1196 2.5601714
1194 2.1525834
1192 1.7618749
1190 1.379689
1188 1.0161602
1186 0.71487415
1184 0.4639695
1182 0.33616757
1180 0.27024794
1178 0.34211388
1176 0.45464799
1174 0.65501946
1172 0.84713399
1170 0.98654151
1168 1.0893954
1166 1.0824908
1164 1.0686615
1162 1.040694
1160 1.0318422
1158 1.0562714
1156 1.0581229
1154 1.0152085
1152 0.91562855
1150 0.74158466
1148 0.55423141
1146 0.35955429
1144 0.2001552
1142 0.080754578
1140 0.019367954
1138 0.0090452693
1136 0.067873493
1134 0.1743121
1132 0.36472303
1130 0.60607785
1128 0.94593346
1126 1.3302879
1124 1.80687
1122 2.2927074
1120 2.7418079
1118 3.1562002
1116 3.4025714
1114 3.603039
1112 3.6223743
1110 3.6237082
1108 3.5747013
1106 3.58251
1104 3.736052
1102 3.9608188
1100 4.3222356
1098 4.6910005
1096 5.0673714
1094 5.4169321
1092 5.7301741
1090 6.0143991
1088 6.2728934
1086 6.545361
1084 6.8406973
1082 7.2233396
1080 7.6572795
1078 8.0909586
1076 8.494874
1074 8.6873655
1072 8.7946701
1070 8.783577
1068 8.7641459
1066 8.8732882
1064 8.9934759
1062 9.0720825
1060 9.1079264
1058 8.8812761
1056 8.6378517
1054 8.3252316
1052 8.0545444
1050 7.9210701
1048 7.8448038
1046 7.9068251
1044 7.9923267
1042 8.1176634
1040 8.2083378
1038 8.2445698
1036 8.2311602
1034 8.1575518
1032 8.0404749
1030 7.8766222
1028 7.6277075
1026 7.3142486
1024 6.9349298
1022 6.5194411
1020 6.0842271
1018 5.6439271
1016 5.2300797
1014 4.8292971
1012 4.4949794
1010 4.167377
1008 3.7902482
1006 3.4051771
1004 2.9765673
1002 2.5478926
1000 2.1208143
998 1.6750096
996 1.1485707
994 0.6408543
992 0.19502057
990 -0.18538103
988 -0.41513029
986 -0.61784327
984 -0.77311939
982 -0.91144735
980 -1.024238
978 -1.0829757
976 -1.0784018
974 -0.94298196
972 -0.69609702
970 -0.31154436
968 0.15200529
966 0.53761601
964 0.87428749
962 0.93772787
960 0.90393668
958 0.67255366
956 0.39994559
954 0.14573693
952 -0.0989452
950 -0.16881622
948 -0.21778031
946 -0.071775638
944 0.0074166805
942 0.22331823
940 0.43547627
938 0.63135999
936 0.82596689
934 1.0159025
932 1.1761968
930 1.2714945
928 1.2974617
926 1.2139014
924 1.182642
922 1.2176137
920 1.4090738
918 1.7457321
916 2.1038387
914 2.4764478
912 2.8061097
910 3.1139588
908 3.5396338
906 4.0100365
904 4.5464649
902 5.0984135
900 5.4043617
898 5.6700869
896 5.6606002
