##TITLE=Methyl Ethyl Ketone
##JCAMP-DX=4.24
##DATA TYPE=INFRARED SPECTRUM
##XUNITS=cm-1
##YUNITS=Absorbance
##FIRSTX=900
##LASTX=2300
##XYDATA=(X++(Y..Y))
2296 0.088218004
2294 0.09005338
2292 0.091888748
2290 0.093723126
2288 0.095558494
2286 0.09739387
2284 0.099229239
2282 0.10106165
2280 0.10289898
2278 0.10473634
2276 0.10657372
2274 0.10841108
2272 0.11023863
2270 0.11206602
2268 0.113913
2266 0.11578971
2264 0.11757909
2262 0.11926895
2260 0.12124883
2258 0.12363486
2256 0.12494343
2254 0.1247278
2252 0.12852648
2250 0.13798293
2248 0.13253468
2246 0.093952395
2244 0.038373172
2242 -0.0076170401
2240 -0.014113692
2238 0.039616313
2236 0.13387387
2234 0.23711669
2232 0.31647831
2230 0.344396
2228 0.31589639
2226 0.23759149
2224 0.13648269
2222 0.041322883
2220 -0.035868078
2218 -0.089521788
2216 -0.1199056
2214 -0.12795289
2212 -0.1105464
2210 -0.066841096
2208 -0.01026928
2206 0.042399392
2204 0.078487754
2202 0.089901149
2200 0.081774563
2198 0.062829323
2196 0.039808858
2194 0.019030949
2192 0.007856397
2190 0.012325336
2188 0.031710487
2186 0.06014635
2184 0.079606883
2182 0.072707936
2180 0.040393189
2178 -0.0051316526
2176 -0.030191835
2174 -0.00192955
2172 0.081109904
2170 0.2031049
2168 0.32046664
2166 0.38858029
2164 0.3954744
2162 0.34604323
2160 0.26886937
2158 0.19684011
2156 0.149049
2154 0.13567805
2152 0.15057737
2150 0.18037316
2148 0.20459205
2146 0.20497179
2144 0.18171223
2142 0.1446539
2140 0.11646411
2138 0.11809088
2136 0.14555258
2134 0.18398465
2132 0.21066673
2130 0.20624007
2128 0.1754356
2126 0.13125442
2124 0.084373765
2122 0.043345258
2120 0.012637289
2118 -0.0028993199
2116 0.0092238709
2114 0.056091141
2112 0.1105005
2110 0.13583462
2108 0.10991158
2106 0.028191129
2104 -0.06507732
2102 -0.11619201
2100 -0.1081328
2098 -0.044129927
2096 0.049595714
2094 0.14432552
2092 0.23545934
2090 0.32536039
2088 0.40499291
2086 0.46151102
2084 0.48665753
2082 0.47966594
2080 0.46269479
2078 0.46211669
2076 0.48406342
2074 0.52295721
2072 0.55985403
2070 0.57468659
2068 0.56377238
2066 0.53083986
2064 0.48165902
2062 0.42257553
2060 0.36013484
2058 0.30240262
2056 0.2634517
2054 0.25702605
2052 0.28480133
2050 0.33854628
2048 0.39031252
2046 0.40847641
2044 0.38022199
2042 0.30772594
2040 0.22078834
2038 0.1565789
2036 0.13485928
2034 0.16095193
2032 0.21377331
2030 0.26199061
2028 0.27808142
2026 0.24491721
2024 0.17965628
2022 0.11519565
2020 0.086943798
2018 0.12089108
2016 0.20203
2014 0.29680055
2012 0.37158939
2010 0.40134171
2008 0.39273086
2006 0.36588836
2004 0.33634329
2002 0.31491721
2000 0.30504033
1998 0.30670729
1996 0.31910643
1994 0.33882979
1992 0.35238504
1990 0.34522155
1988 0.31868321
1986 0.28292707
1984 0.25203183
1982 0.23872924
1980 0.24420089
1978 0.2675463
1976 0.32331887
1974 0.4291757
1972 0.58215594
1970 0.76096714
1968 0.91140944
1966 0.97476858
1964 0.93969834
1962 0.82531816
1960 0.67544758
1958 0.53614074
1956 0.41718885
1954 0.31169212
1952 0.22307931
1950 0.16065408
1948 0.13005038
1946 0.12964249
1944 0.13682708
1942 0.12358265
1940 0.084830388
1938 0.03032661
1936 -0.021329459
1934 -0.052938629
1932 -0.069168001
1930 -0.084898837
1928 -0.10784495
1926 -0.13404736
1924 -0.12969123
1922 -0.056796487
1920 0.072543263
1918 0.21665812
1916 0.32886115
1914 0.37334237
1912 0.36328822
1910 0.33262432
1908 0.28817743
1906 0.22148021
1904 0.1327244
1902 0.032886744
1900 -0.047783829
1898 -0.074860856
1896 -0.040626001
1894 0.040783253
1892 0.12964754
1890 0.17605029
1888 0.14285344
1886 0.012648374
1884 -0.18286282
1882 -0.38618791
1880 -0.54775059
1878 -0.63220698
1876 -0.63503897
1874 -0.57085335
1872 -0.46186036
1870 -0.33671904
1868 -0.24028957
1866 -0.21859293
1864 -0.28136611
1862 -0.41070789
1860 -0.56668323
1858 -0.70488405
1856 -0.81009454
1854 -0.88244629
1852 -0.90643984
1850 -0.86113477
1848 -0.75261599
1846 -0.61284107
1844 -0.5093689
1842 -0.51450294
1840 -0.63129914
1838 -0.81100267
1836 -0.97630829
1834 -1.046602
1832 -0.98473501
1830 -0.79666454
1828 -0.55183148
1826 -0.35131821
1824 -0.27054137
1822 -0.34700805
1820 -0.54064143
1818 -0.76582688
1816 -0.94770062
1814 -1.0361037
1812 -1.0354146
1810 -0.98179537
1808 -0.89922863
1806 -0.795533
1804 -0.66053796
1802 -0.47829193
1800 -0.25438029
1798 -0.012824856
1796 0.20992038
1794 0.36998859
1792 0.41930401
1790 0.32473007
1788 0.13052537
1786 -0.070238575
1784 -0.20487337
1782 -0.22923633
1780 -0.13501798
1778 0.061161205
1776 0.33062112
1774 0.6290195
1772 0.86598045
1770 0.93728465
1768 0.82066381
1766 0.56906384
1764 0.29481101
1762 0.11749671
1760 0.032604031
1758 -0.038699523
1756 -0.085254885
1754 -0.024484478
1752 0.19664952
1750 0.57868922
1748 1.0279762
1746 1.3972714
1744 1.5918474
1742 1.5900406
1740 1.4878643
1738 1.4373509
1736 1.47446
1734 1.5256209
1732 1.4653476
1730 1.1761674
1728 0.69492263
1726 0.18275002
1724 -0.18379065
1722 -0.24801248
1720 0.081339538
1718 0.81313598
1716 1.8025444
1714 2.8153698
1712 3.7233753
1710 4.5286326
1708 5.377624
1706 6.5108695
1704 8.1483612
1702 10.450681
1700 13.446103
1698 17.007536
1696 20.745144
1694 24.14077
1692 26.991362
1690 29.439905
1688 31.926041
1686 35.039127
1684 39.141762
1682 44.253315
1680 49.7882
1678 54.849377
1676 59.266014
1674 63.536797
1672 68.112152
1670 73.181885
1668 78.423218
1666 83.167946
1664 87.047638
1662 90.045227
1660 92.2724
1658 93.889938
1656 95.032715
1654 95.786987
1652 96.166
1650 96.117973
1648 95.549484
1646 94.386215
1644 92.768913
1642 90.996452
1640 89.196274
1638 87.284065
1636 85.052643
1634 82.260063
1632 78.867516
1630 75.024277
1628 70.851784
1626 66.404938
1624 61.709118
1622 56.793289
1620 51.765945
1618 46.807705
1616 42.085571
1614 37.738285
1612 33.898247
1610 30.673939
1608 28.065536
1606 25.970615
1604 24.277304
1602 22.894642
1600 21.776669
1598 20.916954
1596 20.3085
1594 19.933876
1592 19.766205
1590 19.774614
1588 19.954445
1586 20.331036
1584 20.936726
1582 21.812719
1580 23.03517
1578 24.704725
1576 26.870373
1574 29.500605
1572 32.452026
1570 35.497581
1568 38.485641
1566 41.367962
1564 44.135014
1562 46.822208
1560 49.607811
1558 52.714886
1556 55.882114
1554 58.380451
1552 59.779919
1550 60.136261
1548 59.809841
1546 59.319248
1544 58.847408
1542 58.153175
1540 56.88644
1538 54.753448
1536 51.873199
1534 48.78801
1532 45.933964
1530 43.498581
1528 41.489109
1526 39.758701
1524 38.111336
1522 36.344559
1520 34.323223
1518 32.019836
1516 29.577972
1514 27.276134
1512 25.20636
1510 23.201876
1508 21.040955
1506 18.553213
1504 15.837097
1502 13.271189
1500 11.110971
1498 9.3764305
1496 7.9677854
1494 6.7134619
1492 5.50454
1490 4.3257527
1488 3.1718366
1486 2.0369358
1484 0.97567981
1482 0.11613545
1480 -0.4132241
1478 -0.50233364
1476 -0.041057408
1474 1.0441824
1472 2.6033497
1470 4.2422881
1468 5.6858387
1466 6.8965573
1464 7.9748797
1462 9.1166573
1460 10.442905
1458 11.924003
1456 13.3578
1454 14.391441
1452 14.82558
1450 14.712132
1448 14.192394
1446 13.449607
1444 12.625243
1442 11.78925
1440 10.979806
1438 10.204469
1436 9.4352016
1434 8.6153488
1432 7.7363815
1430 6.8672476
1428 6.1008902
1426 5.5312629
1424 5.2045765
1422 5.0957813
1420 5.1396518
1418 5.2421904
1416 5.3353658
1414 5.4029951
1412 5.475142
1410 5.6253695
1408 5.9036274
1406 6.307837
1404 6.8028612
1402 7.3202591
1400 7.7750521
1398 8.0739832
1396 8.148922
1394 7.9798927
1392 7.6051903
1390 7.1283183
1388 6.6394773
1386 6.1843553
1384 5.7812662
1382 5.423089
1380 5.1030455
1378 4.8186302
1376 4.5447202
1374 4.223567
1372 3.807296
1370 3.279917
1368 2.664844
1366 2.0308342
1364 1.4341986
1362 0.89643788
1360 0.43382999
1358 0.067219809
1356 -0.175208
1354 -0.25763437
1352 -0.15532172
1350 0.13449425
1348 0.5993852
1346 1.2114732
1344 1.94514
1342 2.776803
1340 3.6417189
1338 4.408905
1336 4.9373145
1334 5.1095166
1332 4.9056501
1330 4.4556289
1328 3.9151454
1326 3.4204464
1324 3.0646031
1322 2.8716049
1320 2.8204455
1318 2.8418486
1316 2.86116
1314 2.8176289
1312 2.6834509
1310 2.4814692
1308 2.2467303
1306 2.0153265
1304 1.8176389
1302 1.674595
1300 1.6074134
1298 1.6408244
1296 1.7937857
1294 2.0726004
1292 2.4726603
1290 2.9748819
1288 3.5528359
1286 4.1726408
1284 4.7979679
1282 5.391367
1280 5.918067
1278 6.3497186
1276 6.6695356
1274 6.8809919
1272 7.0052719
1270 7.0873842
1268 7.1811323
1266 7.3431344
1264 7.615128
1262 8.0082226
1260 8.5155621
1258 9.1114836
1256 9.7768517
1254 10.512782
1252 11.326262
1250 12.22526
1248 13.207479
1246 14.2525
1244 15.327717
1242 16.383862
1240 17.358772
1238 18.172564
1236 18.744028
1234 19.001896
1232 18.893961
1230 18.4093
1228 17.563803
1226 16.413435
1224 15.039788
1222 13.555248
1220 12.080388
1218 10.740268
1216 9.6368513
1214 8.8155031
1212 8.2913065
1210 8.0385504
1208 8.0076714
1206 8.1177483
1204 8.2696638
1202 8.344553
1200 8.2429638
1198 7.9196014
1196 7.3746428
1194 6.6767254
1192 5.9068627
1190 5.13585
1188 4.415791
1186 3.7641094
1184 3.1906145
1182 2.706131
1180 2.318413
1178 2.02721
1176 1.82618
1174 1.6993717
1172 1.6312194
1170 1.6114051
1168 1.6293355
1166 1.6706622
1164 1.7191591
1162 1.756582
1160 1.7687749
1158 1.751471
1156 1.70646
1154 1.6424048
1152 1.56234
1150 1.4531111
1148 1.297366
1146 1.0794715
1144 0.80317974
1142 0.51438409
1140 0.25840142
1138 0.055160999
1136 -0.082756713
1134 -0.1469004
1132 -0.13904591
1130 -0.082879752
1128 -0.006377425
1126 0.065407813
1124 0.11474355
1122 0.14078777
1120 0.1546924
1118 0.18544661
1116 0.25316501
1114 0.34488124
1112 0.43307155
1110 0.47580963
1108 0.44685507
1106 0.36848402
1104 0.28172332
1102 0.24318901
1100 0.29067644
1098 0.40551576
1096 0.5622772
1094 0.75452292
1092 0.99472958
1090 1.3294673
1088 1.7836789
1086 2.3045552
1084 2.8172557
1082 3.2403929
1080 3.5162168
1078 3.6526599
1076 3.6710501
1074 3.5859833
1072 3.411428
1070 3.1649194
1068 2.8780689
1066 2.6173201
1064 2.4423361
1062 2.3693652
1060 2.3873024
1058 2.438607
1056 2.4661
1054 2.4457436
1052 2.3713996
1050 2.2652109
1048 2.1595285
1046 2.0950499
1044 2.1049578
1042 2.1943226
1040 2.3525589
1038 2.5445569
1036 2.73702
1034 2.917701
1032 3.0720699
1030 3.1638861
1028 3.1511323
1026 2.9915316
1024 2.6652069
1022 2.2187099
1020 1.7208083
1018 1.2564431
1016 0.89758545
1014 0.66375172
1012 0.54747814
1010 0.49815276
1008 0.4560436
1006 0.3669737
1004 0.19533771
1002 -0.041028202
1000 -0.31021309
998 -0.5779416
996 -0.81914926
994 -1.0394089
992 -1.2462543
990 -1.4293767
988 -1.5721989
986 -1.6523014
984 -1.6564634
982 -1.6049209
980 -1.5275741
978 -1.4573283
976 -1.4158914
974 -1.3850535
972 -1.3345705
970 -1.2266104
968 -1.0368303
966 -0.79189646
964 -0.5315901
962 -0.29721612
960 -0.1188158
958 0.013297237
956 0.112579
954 0.1714934
952 0.1795536
950 0.13473165
948 0.054769576
946 0.019210853
944 0.10743204
942 0.34265521
940 0.70608783
938 1.078703
936 1.3450115
934 1.4930902
932 1.5470837
930 1.5703682
928 1.6188657
926 1.6873064
924 1.7573401
922 1.819088
920 1.8725874
918 1.9484948
916 2.0828471
914 2.3041785
912 2.6296868
910 3.039686
908 3.4974518
906 3.9338737
904 4.2789121
902 4.4900551
900 4.5491772
898 4.5060878
896 4.4278998
