##TITLE=Methyl Ethyl Ketone
##JCAMP-DX=4.24
##DATA TYPE=INFRARED SPECTRUM
##XUNITS=cm-1
##YUNITS=Absorbance
##FIRSTX=900
##LASTX=2300
##XYDATA=(X++(Y..Y))
2296 -0.0034191001
2294 -0.0034902983
2292 -0.0035613966
2290 -0.0036325946
2288 -0.0037036932
2286 -0.0037747915
2284 -0.0038458898
2282 -0.0039170869
2280 -0.0039881864
2278 -0.0040592845
2276 -0.0041304817
2274 -0.0042015812
2272 -0.0042726793
2270 -0.0043438757
2268 -0.0044149761
2266 -0.0044860747
2264 -0.0045572701
2262 -0.004628371
2260 -0.0046994691
2258 -0.0047706645
2256 -0.0048417654
2254 -0.004912864
2252 -0.0049840594
2250 -0.0050551607
2248 -0.0051262588
2246 -0.0051974538
2244 -0.00019314286
2242 0.098440669
2240 0.21311641
2238 0.2753593
2236 0.32979414
2234 0.35518137
2232 0.37874252
2230 0.40786257
2228 0.43318796
2226 0.42613551
2224 0.4182632
2222 0.41412824
2220 0.42315018
2218 0.47162136
2216 0.52232826
2214 0.57306403
2212 0.61640358
2210 0.64768147
2208 0.70708185
2206 0.80247158
2204 0.92731148
2202 1.0783305
2200 1.1706588
2198 1.217713
2196 1.1797571
2194 1.0943625
2192 1.0205081
2190 0.95301569
2188 0.95925349
2186 0.98930794
2184 1.0319113
2182 1.0771031
2180 1.0950158
2178 1.1094863
2176 1.1755228
2174 1.2503381
2172 1.3713754
2170 1.489243
2168 1.5631274
2166 1.6148572
2164 1.601748
2162 1.5749416
2160 1.5300463
2158 1.5008008
2156 1.50503
2154 1.5376095
2152 1.6063327
2150 1.6829492
2148 1.7642419
2146 1.8212036
2144 1.8562388
2142 1.865674
2140 1.8588471
2138 1.8697877
2136 1.8912286
2134 1.9317359
2132 1.9797834
2130 2.0153804
2128 2.046768
2126 2.0907385
2124 2.1377888
2122 2.1980696
2120 2.2574704
2118 2.2600119
2116 2.2485814
2114 2.1935821
2112 2.1439955
2110 2.1464581
2108 2.1754162
2106 2.2612021
2104 2.34044
2102 2.3867493
2100 2.3937039
2098 2.342901
2096 2.2793858
2094 2.2104712
2092 2.1581128
2090 2.1236086
2088 2.1110668
2086 2.1145451
2084 2.1433179
2082 2.1873534
2080 2.2252686
2078 2.2590146
2076 2.2545915
2074 2.2346251
2072 2.207932
2070 2.1796846
2068 2.1848946
2066 2.1985836
2064 2.2231755
2062 2.2475052
2060 2.2465115
2058 2.2367849
2056 2.2060001
2054 2.1732833
2052 2.1491215
2050 2.1358855
2048 2.1469011
2046 2.1639109
2044 2.1835642
2042 2.1996422
2040 2.2094274
2038 2.2134471
2036 2.2118013
2034 2.1881335
2032 2.1442571
2030 2.0846748
2028 2.0156341
2026 1.9644064
2024 1.9255886
2022 1.9007057
2020 1.8821894
2018 1.8319768
2016 1.768
2014 1.6928509
2012 1.6143054
2010 1.5965494
2008 1.5961794
2006 1.6169729
2004 1.6403655
2002 1.645574
2000 1.647908
1998 1.6588902
1996 1.6757643
1994 1.7044618
1992 1.7378389
1990 1.7743473
1988 1.806914
1986 1.8304614
1984 1.8419611
1982 1.8396336
1980 1.8308121
1978 1.8186302
1976 1.8062886
1974 1.7946451
1972 1.7975338
1970 1.8117045
1968 1.8245354
1966 1.8350956
1964 1.7996622
1962 1.73993
1960 1.677856
1958 1.6159686
1956 1.5832071
1954 1.560572
1952 1.5288509
1950 1.4941759
1948 1.4636583
1946 1.4372
1944 1.4241377
1942 1.4128597
1940 1.3900385
1938 1.3608969
1936 1.3237828
1934 1.2895036
1932 1.26667
1930 1.2513338
1928 1.2436457
1926 1.2405814
1924 1.2413217
1922 1.2460505
1920 1.2533783
1918 1.246448
1916 1.2251043
1914 1.198549
1912 1.1706349
1910 1.1542085
1908 1.1456954
1906 1.1120293
1904 1.063728
1902 1.0051558
1900 0.94223601
1898 0.95342958
1896 0.99757141
1894 1.0928638
1892 1.1941549
1890 1.200145
1888 1.1387949
1886 0.94327819
1884 0.69936621
1882 0.45999253
1880 0.25519371
1878 0.12787661
1876 0.053737998
1874 0.029912248
1872 0.047769327
1870 0.10439106
1868 0.1714814
1866 0.23450464
1864 0.24703737
1862 0.20565039
1860 0.13186337
1858 0.042278972
1856 -0.047326084
1854 -0.13330409
1852 -0.20687695
1850 -0.2717762
1848 -0.3005276
1846 -0.30797678
1844 -0.3070133
1842 -0.30317852
1840 -0.33245492
1838 -0.37655675
1836 -0.40709874
1834 -0.42045352
1832 -0.37123555
1830 -0.28633109
1828 -0.17545637
1826 -0.075417489
1824 -0.038934086
1822 -0.053106304
1820 -0.11894914
1818 -0.19860438
1816 -0.26511115
1814 -0.31220874
1812 -0.33720878
1810 -0.34750885
1808 -0.34943521
1806 -0.3327235
1804 -0.29928806
1802 -0.27216056
1800 -0.25397217
1798 -0.25376105
1796 -0.26610145
1794 -0.23668267
1792 -0.17721
1790 -0.10577248
1788 -0.030694174
1786 0.0058982139
1784 0.019747252
1782 0.034987625
1780 0.055462409
1778 0.10901505
1776 0.18654743
1774 0.29164356
1772 0.39193863
1770 0.42795819
1768 0.40152273
1766 0.29595536
1764 0.1687246
1762 0.073235087
1760 0.03069004
1758 -0.031106621
1756 -0.074312456
1754 -0.052204411
1752 0.038904972
1750 0.18769234
1748 0.3114928
1746 0.3885757
1744 0.33479199
1742 0.16577998
1740 -0.014521554
1738 -0.18331832
1736 -0.19537
1734 -0.086798549
1732 0.037146218
1730 0.15620187
1728 0.11046221
1726 -0.040091507
1724 -0.1404552
1722 -0.16721959
1720 0.0011981726
1718 0.31494975
1716 0.81963998
1714 1.4035876
1712 1.8633715
1710 2.2435658
1708 2.5984559
1706 3.1117287
1704 3.9539337
1702 5.359508
1700 7.4378982
1698 10.348845
1696 14.046286
1694 17.863279
1692 21.481819
1690 24.77771
1688 27.784332
1686 31.31237
1684 35.439327
1682 40.312675
1680 45.7696
1678 50.504082
1676 54.564613
1674 58.45916
1672 62.314255
1670 66.896477
1668 72.021278
1666 77.109947
1664 82.048828
1662 86.455757
1660 90.321968
1658 93.590515
1656 96.261459
1654 98.34613
1652 99.895203
1650 101.00394
1648 101.38852
1646 100.82893
1644 99.390808
1642 97.246361
1640 94.481895
1638 91.24276
1636 87.325333
1634 82.736565
1632 78.031586
1630 73.414665
1628 69.009178
1626 64.816254
1624 60.498081
1622 56.019985
1620 51.690758
1618 47.528755
1616 43.621315
1614 39.982689
1612 36.703945
1610 33.807762
1608 31.32752
1606 29.249149
1604 27.457443
1602 25.963461
1600 24.738005
1598 23.781759
1596 23.052
1594 22.533134
1592 22.174776
1590 21.968601
1588 21.885149
1586 21.922272
1584 22.065407
1582 22.302101
1580 22.618069
1578 23.064365
1576 23.655001
1574 24.41292
1572 25.336128
1570 26.347536
1568 27.42724
1566 28.520386
1564 29.624151
1562 30.90996
1560 32.473892
1558 34.953663
1556 38.413029
1554 42.249359
1552 46.245823
1550 49.408302
1548 51.764854
1546 53.794357
1544 55.499752
1542 56.998543
1540 58.115559
1538 58.633034
1536 58.488827
1534 57.716423
1532 56.561131
1530 55.329231
1528 54.035149
1526 52.693451
1524 51.120178
1522 49.197746
1520 46.98177
1518 44.475185
1516 42.110672
1514 40.043781
1512 38.057838
1510 36.125996
1508 33.668186
1506 30.522886
1504 27.338823
1502 24.169142
1500 21.454523
1498 19.23897
1496 17.018572
1494 14.7892
1492 12.537074
1490 10.275612
1488 8.0500612
1486 5.9219713
1484 3.9870338
1482 2.3534398
1480 1.1350377
1478 0.3617326
1476 0.071542412
1474 0.34501588
1472 1.0975239
1470 2.002703
1468 2.8676546
1466 3.5914116
1464 4.0949025
1462 4.545959
1460 5.0103431
1458 5.5140338
1456 6.07512
1454 6.529779
1452 6.8009038
1450 6.8993359
1448 6.7498479
1446 6.5433249
1444 6.2646308
1442 6.0024662
1440 5.7596064
1438 5.5091367
1436 5.2185817
1434 4.7956653
1432 4.2287092
1430 3.5931308
1428 2.944144
1426 2.424758
1424 2.0575256
1422 1.8483697
1420 1.7811569
1418 1.8209622
1416 1.9454914
1414 2.1369939
1412 2.3678861
1410 2.6298895
1408 2.9134064
1406 3.2222056
1404 3.5553896
1402 3.9215405
1400 4.3102961
1398 4.7304134
1396 5.1672354
1394 5.6251078
1392 6.0304503
1390 6.3298597
1388 6.4853177
1386 6.4099398
1384 6.1943994
1382 5.7932224
1380 5.3483047
1378 4.8607016
1376 4.39046
1374 3.9510949
1372 3.5518501
1370 3.1976728
1368 2.8809183
1366 2.5650022
1364 2.1839015
1362 1.7386718
1360 1.2222288
1358 0.72255576
1356 0.34587729
1354 0.089952096
1352 0.016110709
1350 0.02952816
1348 0.12373689
1346 0.24767822
1344 0.4222908
1342 0.61621505
1340 0.84072483
1338 1.0591443
1336 1.26042
1334 1.4437525
1332 1.5917699
1330 1.7467051
1328 1.9178932
1326 2.123215
1324 2.3858566
1322 2.6959167
1320 3.065619
1318 3.454102
1316 3.8504798
1314 4.2090225
1312 4.5182343
1310 4.7689071
1308 4.9613843
1306 5.0985823
1304 5.1929016
1302 5.2492609
1300 5.2866397
1298 5.3144646
1296 5.3376713
1294 5.3554044
1292 5.3635683
1290 5.3484778
1288 5.3231921
1286 5.2794037
1284 5.245554
1282 5.2406144
1280 5.2548504
1278 5.3109984
1276 5.3735113
1274 5.4485497
1272 5.523819
1270 5.6012583
1268 5.6844735
1266 5.7771907
1264 5.8799868
1262 5.9971323
1260 6.1293378
1258 6.2801347
1256 6.449183
1254 6.6316886
1252 6.8129497
1250 6.9815068
1248 7.1081519
1246 7.2004251
1244 7.2449121
1242 7.2683849
1240 7.2815061
1238 7.2821646
1236 7.2515354
1234 7.1823258
1232 7.0070119
1230 6.7807832
1228 6.4238663
1226 6.0310373
1224 5.5448422
1222 5.0445938
1220 4.512928
1218 3.9886701
1216 3.4808228
1214 2.9882927
1212 2.5254121
1210 2.0920398
1208 1.70662
1206 1.3679514
1204 1.0850728
1202 0.8281309
1200 0.59631664
1198 0.37411845
1196 0.16976467
1194 0.01258415
1192 -0.10187208
1190 -0.14901809
1188 -0.15862925
1186 -0.13522157
1184 -0.09132202
1182 -0.0076374263
1180 0.10978428
1178 0.32809001
1176 0.577016
1174 0.89404213
1172 1.1975636
1170 1.4316553
1168 1.6316234
1166 1.7266665
1164 1.800154
1162 1.817757
1160 1.8039514
1158 1.7233821
1156 1.6012529
1154 1.4125036
1152 1.2119943
1150 0.99681664
1148 0.78172058
1146 0.56958032
1144 0.37351805
1142 0.20131257
1140 0.087119564
1138 0.019634496
1136 -0.0023663659
1134 0.0042939335
1132 0.064743683
1130 0.15453532
1128 0.29053497
1126 0.44137615
1124 0.60417908
1122 0.76405722
1120 0.89724398
1118 1.0177292
1116 1.0833114
1114 1.1354468
1112 1.1353297
1110 1.1300135
1108 1.109998
1106 1.10419
1104 1.1334623
1102 1.1688452
1100 1.2126263
1098 1.2300535
1096 1.2059715
1094 1.1697872
1092 1.1228501
1090 1.104858
1088 1.1195537
1086 1.1692686
1084 1.2436123
1082 1.304175
1080 1.3453497
1078 1.306993
1076 1.2236328
1074 1.0723217
1072 0.89830625
1070 0.71988332
1068 0.54464519
1066 0.40006799
1064 0.27179641
1062 0.23501776
1060 0.22017205
1058 0.31701085
1056 0.406156
1054 0.45907196
1052 0.47570452
1050 0.3788397
1048 0.29079074
1046 0.22770464
1044 0.20761542
1042 0.26259094
1040 0.28019509
1038 0.23776555
1036 0.1300239
1034 -0.048524827
1032 -0.20130509
1030 -0.32442835
1028 -0.37786591
1026 -0.37920162
1024 -0.33477542
1022 -0.2711612
1020 -0.25567102
1018 -0.27066696
1016 -0.41377741
1014 -0.59453088
1012 -0.81094313
1010 -1.0236849
1008 -1.1269361
1006 -1.2103236
1004 -1.1684672
1002 -1.1220168
1000 -1.0511773
998 -0.98338819
996 -0.92891783
994 -0.86925447
992 -0.79334438
990 -0.71146518
988 -0.6169436
986 -0.53662068
984 -0.48134738
982 -0.43644974
980 -0.40276721
978 -0.32785079
976 -0.20957994
974 -0.074220508
972 0.06960988
970 0.1219209
968 0.11449178
966 0.023616597
964 -0.10209959
962 -0.17319874
960 -0.22178063
958 -0.16549401
956 -0.087626405
954 -0.026257116
952 0.029499982
950 -0.0012554936
948 -0.031829882
946 -0.010492393
944 0.0023012906
942 0.07203114
940 0.22345261
938 0.44240397
936 0.6597563
934 0.87238485
932 1.0817097
930 1.2827938
928 1.4327657
926 1.4993228
924 1.47961
922 1.3549665
920 1.2130864
918 1.0562161
916 0.97540969
914 0.94962198
912 1.0390199
910 1.189715
908 1.3810794
906 1.58796
904 1.7360611
902 1.8685669
900 1.8840905
898 1.8804973
896 1.6689
