##TITLE=Methyl Ethyl Ketone
##JCAMP-DX=4.24
##DATA TYPE=INFRARED SPECTRUM
##XUNITS=cm-1
##YUNITS=Absorbance
##FIRSTX=900
##LASTX=2300
##XYDATA=(X++(Y..Y))
2296 0.075948998
2294 0.077528745
2292 0.079108477
2290 0.080688223
2288 0.082268953
2286 0.0838487
2284 0.085428439
2282 0.087009169
2280 0.088588916
2278 0.090168662
2276 0.091748402
2274 0.093331091
2272 0.094908915
2270 0.096481748
2268 0.098068222
2266 0.099676482
2264 0.10122459
2262 0.10270406
2260 0.10438654
2258 0.10634653
2256 0.107556
2254 0.1077064
2252 0.11066414
2250 0.11757836
2248 0.11405338
2246 0.086755104
2244 0.043877229
2242 0.0047411928
2240 0.0090675158
2238 0.087444134
2236 0.21065433
2234 0.33295164
2232 0.41087663
2230 0.41625571
2228 0.37948215
2226 0.34557551
2224 0.35037825
2222 0.41745621
2220 0.53259462
2218 0.6708312
2216 0.80894113
2214 0.92848402
2212 1.0279918
2210 1.1118953
2208 1.187848
2206 1.2617493
2204 1.3284432
2202 1.3800958
2200 1.4106046
2198 1.41818
2196 1.4159071
2194 1.4217263
2192 1.4537668
2190 1.5245123
2188 1.6238623
2186 1.7335179
2184 1.8321761
2182 1.9032896
2180 1.9544821
2178 1.9995323
2176 2.045357
2174 2.0936649
2172 2.1339927
2170 2.1567011
2168 2.1717744
2166 2.1924222
2164 2.2200317
2162 2.2495573
2160 2.2682002
2158 2.2678268
2156 2.2708399
2154 2.305795
2152 2.3829069
2150 2.4994128
2148 2.6272733
2146 2.735007
2144 2.8122659
2142 2.8588371
2140 2.88537
2138 2.9053106
2136 2.9291115
2134 2.9647954
2132 3.0147438
2130 3.0765944
2128 3.1355801
2126 3.1755464
2124 3.1930819
2122 3.1900835
2120 3.169991
2118 3.1364753
2116 3.0904329
2114 3.0382769
2112 3.0132468
2110 3.0506487
2108 3.1537602
2106 3.3077772
2104 3.4755955
2102 3.6187108
2100 3.7262361
2098 3.7995839
2096 3.8464999
2094 3.8763177
2092 3.8953354
2090 3.9074521
2088 3.9098663
2086 3.899035
2084 3.8792801
2082 3.8589878
2080 3.8511641
2078 3.8672702
2076 3.9063058
2074 3.9622235
2072 4.0300479
2070 4.104764
2068 4.1789484
2066 4.2444859
2064 4.2940445
2062 4.3232875
2060 4.3376603
2058 4.345427
2056 4.3502455
2054 4.3521576
2052 4.3460417
2050 4.3268957
2048 4.2995663
2046 4.2741284
2044 4.2640424
2042 4.2797446
2040 4.3118548
2038 4.3421001
2036 4.3512454
2034 4.3264136
2032 4.2827687
2030 4.2462978
2028 4.2358379
2026 4.2600827
2024 4.2997789
2022 4.3258357
2020 4.3186393
2018 4.2690768
2016 4.1923003
2014 4.1137915
2012 4.0587211
2010 4.0441647
2008 4.0560265
2006 4.0678835
2004 4.0608406
2002 4.02601
2000 3.9770253
1998 3.9355803
1996 3.9141786
1994 3.9164822
1992 3.9294515
1990 3.934319
1988 3.9207599
1986 3.8851123
1984 3.8332796
1982 3.7755432
1980 3.7214403
1978 3.6802859
1976 3.6612084
1974 3.6715751
1972 3.7107236
1970 3.7715478
1968 3.8363416
1966 3.8839056
1964 3.8994689
1962 3.87554
1960 3.8203039
1958 3.7492657
1956 3.6755228
1954 3.6092343
1952 3.5549805
1950 3.512361
1948 3.4714661
1946 3.4174001
1944 3.3340812
1942 3.2111819
1940 3.0646482
1938 2.9230421
1936 2.8097484
1934 2.7398713
1932 2.710026
1930 2.7090099
1928 2.7326882
1926 2.7816529
1924 2.8564646
1922 2.9519255
1920 3.0398011
1918 3.0840271
1916 3.069587
1914 2.9983749
1912 2.8912704
1910 2.7739446
1908 2.6526778
1906 2.5233271
1904 2.3877881
1902 2.2554109
1900 2.1499693
1898 2.0988519
1896 2.1115859
1894 2.1813779
1892 2.2769005
1890 2.355684
1888 2.3841777
1886 2.3411822
1884 2.2332211
1882 2.0841482
1880 1.9266108
1878 1.7971314
1876 1.7318
1874 1.7589979
1872 1.875852
1870 2.0496857
1868 2.1992095
1866 2.2303386
1864 2.1129823
1862 1.868058
1860 1.5591866
1858 1.2641263
1856 1.0264492
1854 0.86803901
1852 0.81635052
1850 0.89376533
1848 1.074508
1846 1.29635
1844 1.4691722
1842 1.508086
1840 1.4145896
1838 1.2486708
1836 1.0831157
1834 0.98275852
1832 0.96689957
1830 1.0166627
1828 1.0727857
1826 1.0607364
1824 0.93874425
1822 0.70205826
1820 0.40653059
1818 0.140099
1816 -0.02974217
1814 -0.067029841
1812 0.00099352747
1810 0.11115567
1808 0.21637429
1806 0.29492301
1804 0.37069625
1802 0.49205387
1800 0.68867749
1798 0.95979512
1796 1.2389357
1794 1.4223777
1792 1.431192
1790 1.2356194
1788 0.9298659
1786 0.67017716
1784 0.52004826
1782 0.46596071
1780 0.4818711
1778 0.54326779
1776 0.62967944
1774 0.7165522
1772 0.74818188
1770 0.66353971
1768 0.47940999
1766 0.27011758
1764 0.107381
1762 0.03455558
1760 0.0082333433
1758 -0.05319402
1756 -0.12552768
1754 -0.10602821
1752 0.078697234
1750 0.44489676
1748 0.89693898
1746 1.2729322
1744 1.4638721
1742 1.4369093
1740 1.281036
1738 1.1445688
1736 1.06262
1734 0.96885049
1732 0.77567649
1730 0.42057005
1728 -0.032639593
1726 -0.42582202
1724 -0.61038983
1722 -0.47473782
1720 0.019663602
1718 0.8330332
1716 1.8078599
1714 2.7239811
1712 3.4597559
1710 4.0157533
1708 4.54635
1706 5.3070173
1704 6.5221057
1702 8.3399458
1700 10.743732
1698 13.564522
1696 16.501858
1694 19.218189
1692 21.604128
1690 23.786715
1688 26.069412
1686 28.818836
1684 32.162849
1682 35.954643
1680 39.764599
1678 43.07383
1676 45.883785
1674 48.642227
1672 51.708199
1670 55.228897
1668 59.061844
1666 62.882698
1664 66.545212
1662 70.084549
1660 73.511787
1658 76.793243
1656 79.930626
1654 82.963203
1652 85.903999
1650 88.693222
1648 91.070152
1646 92.663284
1644 93.405701
1642 93.512527
1640 93.117386
1638 92.208076
1636 90.666229
1634 88.346748
1632 85.323982
1630 81.870667
1628 78.20504
1626 74.442696
1624 70.622917
1622 66.736572
1620 62.803288
1618 58.879044
1616 55.014259
1614 51.256969
1612 47.704357
1610 44.482639
1608 41.637115
1606 39.124592
1604 36.871727
1602 34.803951
1600 32.898792
1598 31.184195
1596 29.6875
1594 28.418652
1592 27.353292
1590 26.442625
1588 25.675438
1586 25.087471
1584 24.729446
1582 24.655161
1580 24.901733
1578 25.477434
1576 26.3316
1574 27.354061
1572 28.413137
1570 29.385767
1568 30.240841
1566 31.039549
1564 31.838963
1562 32.703987
1560 33.866333
1558 35.662907
1556 38.067028
1554 40.640278
1552 42.934357
1550 44.649643
1548 45.845425
1546 46.908287
1544 48.084885
1542 49.362549
1540 50.558743
1538 51.388676
1536 51.690659
1534 51.490383
1532 50.962524
1530 50.380627
1528 49.898949
1526 49.496548
1524 49.047913
1522 48.357834
1520 47.258709
1518 45.670631
1516 43.721043
1514 41.712448
1512 39.75156
1510 37.669178
1508 35.238838
1506 32.2967
1504 29.001577
1502 25.836132
1500 23.096312
1498 20.752491
1496 18.651714
1494 16.591291
1492 14.449854
1490 12.220053
1488 9.910903
1486 7.5409317
1484 5.23139
1482 3.2120519
1480 1.6381066
1478 0.55528009
1476 0.057030413
1474 0.27188295
1472 1.0474058
1470 1.910462
1468 2.5760832
1466 3.091387
1464 3.57794
1462 4.1428876
1460 4.7917328
1458 5.3977485
1456 5.7881999
1454 5.8001299
1452 5.4464831
1450 4.9519439
1448 4.484653
1446 4.0761213
1444 3.7280874
1442 3.440069
1440 3.2031119
1438 2.9928613
1436 2.7568815
1434 2.4193943
1432 1.9541857
1430 1.4144535
1428 0.89254278
1426 0.50172961
1424 0.30946577
1422 0.30802807
1420 0.44710565
1418 0.64457285
1416 0.83858395
1414 1.0101924
1412 1.1741109
1410 1.3758765
1408 1.6470971
1406 1.9900335
1404 2.4024346
1402 2.8816705
1400 3.4098721
1398 3.9450061
1396 4.4271712
1394 4.7853179
1392 4.9836411
1390 5.040802
1388 4.9822202
1386 4.8264751
1384 4.59513
1382 4.318716
1380 4.0419912
1378 3.8214095
1376 3.6776171
1374 3.5734596
1372 3.46071
1370 3.2984707
1368 3.0726788
1366 2.8041813
1364 2.4986074
1362 2.1303678
1360 1.6914715
1358 1.21517
1356 0.75853395
1354 0.39421818
1352 0.15410149
1350 0.0027904585
1348 -0.093411222
1346 -0.13925679
1344 -0.11998887
1342 -0.0071016625
1340 0.18865015
1338 0.39008924
1336 0.51715457
1334 0.51824594
1332 0.40113628
1330 0.25601619
1328 0.16530846
1326 0.16545814
1324 0.2676661
1322 0.45753419
1320 0.70969063
1318 0.98977268
1316 1.2593
1314 1.47886
1312 1.6244829
1310 1.6993079
1308 1.7192048
1306 1.7103021
1304 1.6970434
1302 1.695889
1300 1.7173274
1298 1.7643079
1296 1.8358858
1294 1.9274384
1292 2.0334327
1290 2.1480525
1288 2.2646201
1286 2.375365
1284 2.4743767
1282 2.5602024
1280 2.6359503
1278 2.7106922
1276 2.7940145
1274 2.8931179
1272 3.0105457
1270 3.1427808
1268 3.2911806
1266 3.4697056
1264 3.6969173
1262 3.9929378
1260 4.3641019
1258 4.7913933
1256 5.2552714
1254 5.7475839
1252 6.2726593
1250 6.8512249
1248 7.4937763
1246 8.1823997
1244 8.8852654
1242 9.5574646
1240 10.16044
1238 10.675463
1236 11.098429
1234 11.441256
1232 11.71696
1230 11.931318
1228 12.080632
1226 12.143229
1224 12.100543
1222 11.943951
1220 11.677314
1218 11.32078
1216 10.894342
1214 10.414248
1212 9.8929024
1210 9.3368006
1208 8.7507486
1206 8.1418505
1204 7.5183978
1202 6.8912897
1200 6.2710562
1198 5.665864
1196 5.080564
1194 4.5141621
1192 3.9647784
1190 3.4317579
1188 2.91787
1186 2.4329669
1184 1.9885651
1182 1.59673
1180 1.2688257
1178 1.0146676
1176 0.84414399
1174 0.76702803
1172 0.78426188
1170 0.87588406
1168 1.0059696
1166 1.1158386
1164 1.1551701
1162 1.1067859
1160 0.97781217
1158 0.81275618
1156 0.65575588
1154 0.529787
1152 0.44282874
1150 0.38032338
1148 0.3240312
1146 0.26028359
1144 0.18312217
1142 0.10234489
1140 0.035283707
1138 0.0077799093
1136 0.045295969
1134 0.1672373
1132 0.38862962
1130 0.71644026
1128 1.1462594
1126 1.6502458
1124 2.1883352
1122 2.7070198
1120 3.1681199
1118 3.5794499
1116 3.964277
1114 4.3561535
1112 4.78016
1110 5.2351117
1108 5.7177706
1106 6.2339649
1104 6.7817392
1102 7.3341064
1100 7.8546181
1098 8.3005419
1096 8.649086
1094 8.9327106
1092 9.1980963
1090 9.4922209
1088 9.8415461
1086 10.220164
1084 10.592463
1082 10.931458
1080 11.22396
1078 11.48802
1076 11.740371
1074 11.981861
1072 12.20464
1070 12.395016
1068 12.540426
1066 12.624793
1064 12.638761
1062 12.578653
1060 12.453726
1058 12.297485
1056 12.136572
1054 11.963203
1052 11.7528
1050 11.46044
1048 11.053931
1046 10.549356
1044 9.983182
1042 9.4136477
1040 8.893239
1038 8.4386606
1036 8.0535107
1034 7.7276859
1032 7.4466701
1030 7.1922779
1028 6.9444065
1026 6.6798906
1024 6.384501
1022 6.0717249
1020 5.7528806
1018 5.411912
1016 5.0277486
1014 4.5851331
1012 4.0857515
1010 3.5787206
1008 3.1140518
1006 2.7091537
1004 2.3684902
1002 2.08305
1000 1.8411337
998 1.6349651
996 1.4497714
994 1.2475309
992 0.99898779
990 0.72102916
988 0.45348835
986 0.27170044
984 0.23426229
982 0.31666392
980 0.46486878
978 0.59636497
976 0.64751774
974 0.64041567
972 0.62295765
970 0.65766245
968 0.79189593
966 1.0095465
964 1.2720525
962 1.5185198
960 1.6926223
958 1.7737782
956 1.7532715
954 1.6345415
952 1.42206
950 1.1160522
948 0.73766404
946 0.38479894
944 0.14447086
942 -0.0030934662
940 -0.095591292
938 -0.1402791
936 -0.14871657
934 -0.17527813
932 -0.27034551
930 -0.43059912
928 -0.64029771
926 -0.88699692
924 -1.1514241
922 -1.3859847
920 -1.5509286
918 -1.6630305
916 -1.76105
914 -1.9126079
912 -2.1620212
910 -2.433887
908 -2.6205757
906 -2.6040928
904 -2.3084896
902 -1.8347082
900 -1.3242971
898 -0.90416503
896 -0.69795001
