##TITLE=Methyl Ethyl Ketone
##JCAMP-DX=4.24
##DATA TYPE=INFRARED SPECTRUM
##XUNITS=cm-1
##YUNITS=Absorbance
##FIRSTX=900
##LASTX=2300
##XYDATA=(X++(Y..Y))
2296 -0.015874
2294 -0.016203528
2292 -0.016534055
2290 -0.016864581
2288 -0.017195109
2286 -0.017524643
2284 -0.017855164
2282 -0.01818569
2280 -0.018515227
2278 -0.018845744
2276 -0.019176271
2274 -0.019506799
2272 -0.019836344
2270 -0.02016489
2268 -0.020497339
2266 -0.020833779
2264 -0.021157594
2262 -0.021463567
2260 -0.021816872
2258 -0.022237519
2256 -0.022481171
2254 -0.02247539
2252 -0.023127818
2250 -0.024707068
2248 -0.023843536
2246 -0.016571142
2244 -0.00060553994
2242 0.020173656
2240 0.01895836
2238 -0.029888529
2236 -0.12123425
2234 -0.23692434
2232 -0.34189919
2230 -0.4020696
2228 -0.40663674
2226 -0.35583851
2224 -0.26720047
2222 -0.16017281
2220 -0.042112924
2218 0.080191359
2216 0.18741582
2214 0.25740415
2212 0.2717858
2210 0.22013403
2208 0.11935022
2206 -0.0038757361
2204 -0.11681983
2202 -0.18906155
2200 -0.20659304
2198 -0.16576439
2196 -0.084165923
2194 0.014632424
2192 0.10944644
2190 0.18378574
2188 0.23675331
2186 0.27179056
2184 0.29005238
2182 0.2921173
2180 0.27973437
2178 0.25777751
2176 0.24218228
2174 0.24963605
2172 0.28518632
2170 0.34547141
2168 0.40881246
2166 0.45067891
2164 0.45959595
2162 0.4330928
2160 0.38723594
2158 0.3404592
2156 0.295728
2154 0.25193954
2152 0.21344446
2150 0.19067626
2148 0.21049732
2146 0.29447499
2144 0.41923428
2142 0.54292357
2140 0.61296648
2138 0.58980727
2136 0.50128573
2134 0.40229398
2132 0.36024964
2130 0.42858294
2128 0.58771759
2126 0.78661573
2124 0.95391345
2122 1.0292438
2120 1.0246851
2118 0.97868979
2116 0.92800754
2114 0.90068704
2112 0.89578205
2110 0.90321887
2108 0.91954136
2106 0.9426415
2104 0.96402001
2102 0.97534204
2100 0.97931445
2098 0.98257327
2096 0.98989713
2094 0.99913502
2092 0.98279065
2090 0.9125222
2088 0.79699463
2086 0.66454351
2084 0.563272
2082 0.53706706
2080 0.58225924
2078 0.67391706
2076 0.77873302
2074 0.86810261
2072 0.94371641
2070 1.0183945
2068 1.0993968
2066 1.1867608
2064 1.2617023
2062 1.3017672
2060 1.3009149
2058 1.262665
2056 1.2002486
2054 1.1262852
2052 1.0362434
2050 0.91867054
2048 0.76463938
2046 0.57462895
2044 0.38197339
2042 0.23132475
2040 0.15620372
2038 0.17491542
2036 0.26505542
2034 0.39040983
2032 0.53008044
2030 0.67401648
2028 0.82553488
2026 0.99009645
2024 1.158888
2022 1.3148557
2020 1.4332749
2018 1.4894614
2016 1.47112
2014 1.3775154
2012 1.2335575
2010 1.0739126
2008 0.92537111
2006 0.80786306
2004 0.73036349
2002 0.69541419
2000 0.6986953
1998 0.73155755
1996 0.77909571
1994 0.82806748
1992 0.88412881
1990 0.96095437
1988 1.0675882
1986 1.2040136
1984 1.3426348
1982 1.4485443
1980 1.51095
1978 1.5367115
1976 1.5550714
1974 1.5981079
1972 1.6652677
1970 1.7348561
1968 1.7666737
1966 1.7218214
1964 1.6020648
1962 1.4344465
1960 1.265028
1958 1.1400158
1956 1.0715085
1954 1.0520031
1952 1.0659155
1950 1.0965465
1948 1.1342057
1946 1.1740501
1944 1.2157646
1942 1.2618146
1940 1.3183937
1938 1.3900913
1936 1.4667001
1934 1.5284649
1932 1.54865
1930 1.5036268
1928 1.3961103
1926 1.2509151
1924 1.1266915
1922 1.0870194
1920 1.1433578
1918 1.2683029
1916 1.3941928
1914 1.449296
1912 1.4294697
1910 1.3708522
1908 1.3183366
1906 1.3084464
1904 1.334756
1902 1.3709434
1900 1.4079061
1898 1.4496768
1896 1.5066714
1894 1.5843087
1892 1.6556389
1890 1.6796991
1888 1.637556
1886 1.5303
1884 1.3849317
1882 1.2370151
1880 1.1007714
1878 0.97720051
1876 0.87000203
1874 0.78857797
1872 0.75457245
1870 0.78762907
1868 0.86781687
1866 0.9498136
1864 0.98323184
1862 0.93009722
1860 0.81022298
1858 0.67337024
1856 0.54704344
1854 0.43482134
1852 0.30986685
1850 0.13768502
1848 -0.075111762
1846 -0.28904143
1844 -0.43884408
1842 -0.4608117
1840 -0.35698396
1838 -0.17453259
1836 0.027566642
1834 0.19800895
1832 0.33270451
1830 0.45496771
1828 0.57529229
1826 0.68779069
1824 0.76472461
1822 0.77267963
1820 0.7099486
1818 0.59847707
1816 0.46768913
1814 0.34757903
1812 0.26008201
1810 0.22175151
1808 0.25005034
1806 0.34983549
1804 0.46318492
1802 0.49560812
1800 0.37697154
1798 0.088870406
1796 -0.24935856
1794 -0.44649601
1792 -0.39589161
1790 -0.089312658
1788 0.3457289
1786 0.71809375
1784 0.93201202
1782 0.97588348
1780 0.87388325
1778 0.67006958
1776 0.42976257
1774 0.2268199
1772 0.11483403
1770 0.1153119
1768 0.17567554
1766 0.20702849
1764 0.18566599
1762 0.13412583
1760 0.042700056
1758 -0.11770611
1756 -0.3260487
1754 -0.52459049
1752 -0.67270625
1750 -0.75557673
1748 -0.79456085
1746 -0.83384782
1744 -0.91181833
1742 -1.0420967
1740 -1.1590905
1738 -1.1502697
1736 -0.95456004
1734 -0.58207858
1732 -0.1560978
1730 0.14225061
1728 0.22931942
1726 0.127058
1724 -0.048918739
1722 -0.12817819
1720 0.039033711
1718 0.54420406
1716 1.3214412
1714 2.1888218
1712 2.9762194
1710 3.5794287
1708 4.07832
1706 4.6969156
1704 5.6757541
1702 7.2427101
1700 9.6064787
1698 12.87123
1696 16.715
1694 20.520889
1692 23.893
1690 26.75663
1688 29.461281
1686 32.632694
1684 36.745892
1682 41.957951
1680 47.733761
1678 53.140751
1676 57.943298
1674 62.574631
1672 67.461449
1670 72.809601
1668 78.332794
1666 83.4086
1664 87.702332
1662 91.208801
1660 94.002373
1658 96.166512
1656 97.75029
1654 98.766403
1652 99.200401
1650 99.025177
1648 98.250687
1646 96.947891
1644 95.304604
1642 93.56649
1640 91.792519
1638 89.850136
1636 87.56591
1634 84.795227
1632 81.54303
1630 77.929115
1628 73.97908
1626 69.617249
1624 64.824036
1622 59.683311
1620 54.427139
1618 49.389629
1616 44.806572
1614 40.781376
1612 37.337284
1610 34.435459
1608 31.989187
1606 29.885464
1604 28.048689
1602 26.450632
1600 25.092468
1598 23.994623
1596 23.174
1594 22.637564
1592 22.376863
1590 22.369511
1588 22.581711
1586 22.970165
1584 23.492029
1582 24.119221
1580 24.890057
1578 25.907879
1576 27.282314
1574 29.09227
1572 31.296787
1570 33.739162
1568 36.26236
1566 38.746235
1564 41.128788
1562 43.435387
1560 45.865822
1558 48.705734
1556 51.834644
1554 54.696911
1552 56.819393
1550 57.975555
1548 58.264072
1546 58.042
1544 57.466805
1542 56.424225
1540 54.82938
1538 52.725063
1536 50.332745
1534 48.011177
1532 45.946686
1530 44.087914
1528 42.307747
1526 40.457699
1524 38.433159
1522 36.204346
1520 33.854439
1518 31.567793
1516 29.484871
1514 27.637535
1512 25.891239
1510 23.966984
1508 21.698381
1506 19.122292
1504 16.455816
1502 14.046028
1500 12.067294
1498 10.444265
1496 9.0340137
1494 7.6871953
1492 6.3273673
1490 4.9724751
1488 3.6675308
1486 2.4676785
1484 1.4370763
1482 0.64272678
1480 0.12131451
1478 -0.11654185
1476 0.001155287
1474 0.60312164
1472 1.6817857
1470 3.041096
1468 4.4549279
1466 5.7333231
1464 6.8146033
1462 7.7915125
1460 8.776351
1458 9.8453646
1456 10.970799
1454 12.001895
1452 12.785314
1450 13.217373
1448 13.28432
1446 13.076786
1444 12.689637
1442 12.18694
1440 11.602646
1438 10.93316
1436 10.158217
1434 9.2569237
1432 8.2665691
1430 7.2984619
1428 6.447422
1426 5.7579799
1424 5.2361941
1422 4.8536925
1420 4.5963621
1418 4.4792461
1416 4.516623
1414 4.7098408
1412 5.0392337
1410 5.4602222
1408 5.9273086
1406 6.4003358
1404 6.8337169
1402 7.1749749
1400 7.3849001
1398 7.449307
1396 7.3811069
1394 7.2222419
1392 7.0065689
1390 6.7464476
1388 6.4494753
1386 6.1242752
1384 5.7862711
1382 5.4567475
1380 5.1364207
1378 4.7947664
1376 4.4022598
1374 3.9445882
1372 3.4287579
1370 2.8860984
1368 2.3350999
1366 1.768615
1364 1.1857971
1362 0.60903889
1360 0.091449738
1358 -0.28084153
1356 -0.45265302
1354 -0.42830086
1352 -0.22106458
1350 0.15925348
1348 0.68400037
1346 1.2945714
1344 1.9335921
1342 2.5578146
1340 3.1342225
1338 3.6399243
1336 4.0457115
1334 4.3100343
1332 4.3992496
1330 4.3013468
1328 4.037169
1326 3.6730721
1324 3.28438
1322 2.9406261
1320 2.6892674
1318 2.5403872
1316 2.4804599
1314 2.4699671
1312 2.4636633
1310 2.4198139
1308 2.3176415
1306 2.1716371
1304 2.0110068
1302 1.874655
1300 1.7925074
1298 1.7752608
1296 1.8308429
1294 1.970405
1292 2.2080638
1290 2.5594752
1288 3.024996
1286 3.5755587
1284 4.1629381
1282 4.718761
1280 5.1842947
1278 5.5294871
1276 5.7523217
1274 5.8893218
1272 5.9856057
1270 6.0846314
1268 6.2217846
1266 6.4170465
1264 6.682672
1262 7.0231271
1260 7.4435039
1258 7.9537058
1256 8.5660315
1254 9.2935047
1252 10.136943
1250 11.073582
1248 12.072217
1246 13.098499
1244 14.122057
1242 15.119246
1240 16.058771
1238 16.889908
1236 17.546356
1234 17.941732
1232 17.99856
1230 17.672461
1228 16.96624
1226 15.963742
1224 14.766708
1222 13.479518
1220 12.198342
1218 11.00207
1216 9.9574051
1214 9.1182127
1212 8.5208855
1210 8.169755
1208 8.0420837
1206 8.0733261
1204 8.1771021
1202 8.2452536
1200 8.1831579
1198 7.9402046
1196 7.5064573
1194 6.9361887
1192 6.2942901
1190 5.635129
1188 4.9977083
1186 4.3943143
1184 3.8360913
1182 3.3449786
1180 2.9383154
1178 2.618037
1176 2.37818
1174 2.204365
1172 2.0863254
1170 2.0263689
1168 2.0244663
1166 2.0682156
1164 2.1418352
1162 2.228478
1160 2.3114812
1158 2.3746753
1156 2.3965786
1154 2.3449926
1152 2.194392
1150 1.9423285
1148 1.60209
1146 1.2104392
1144 0.81309593
1142 0.4621304
1140 0.20045933
1138 0.045396812
1136 -0.00078299269
1134 0.042047001
1132 0.13939369
1130 0.23654637
1128 0.29165024
1126 0.3056322
1124 0.2927691
1122 0.274436
1120 0.26995721
1118 0.28877193
1116 0.33148888
1114 0.38331896
1112 0.42980382
1110 0.46733609
1108 0.50337678
1106 0.56490153
1104 0.66903627
1102 0.79671031
1100 0.92410839
1098 1.0389625
1096 1.1467142
1094 1.28951
1092 1.500368
1090 1.7657816
1088 2.0605114
1086 2.3586142
1084 2.6430912
1082 2.9193583
1080 3.1815257
1078 3.3809979
1076 3.4682455
1074 3.4217453
1072 3.2464881
1070 3.0011327
1068 2.7505538
1066 2.5420415
1064 2.4061799
1062 2.3391049
1060 2.3199294
1058 2.3042889
1056 2.2535172
1054 2.1605153
1052 2.0362613
1050 1.919533
1048 1.8449847
1046 1.8162535
1044 1.8289677
1042 1.8772987
1040 1.9572834
1038 2.0699508
1036 2.2108698
1034 2.3552017
1032 2.4759183
1030 2.5549607
1028 2.5758195
1026 2.522285
1024 2.3797977
1022 2.1399131
1020 1.8132863
1018 1.4611404
1016 1.1484157
1014 0.91274923
1012 0.76264298
1010 0.64045274
1008 0.48961282
1006 0.30766422
1004 0.11554823
1002 -0.03555207
1000 -0.10662434
998 -0.12057859
996 -0.121225
994 -0.1694757
992 -0.31731617
990 -0.57341057
988 -0.91422522
986 -1.2476414
984 -1.4778559
982 -1.5538926
980 -1.461328
978 -1.2690189
976 -1.0557142
974 -0.86469972
972 -0.72208351
970 -0.62628031
968 -0.57175756
966 -0.56248802
964 -0.59627968
962 -0.64228636
960 -0.66437775
958 -0.6333909
956 -0.53709686
954 -0.41562182
952 -0.3108812
950 -0.22538809
948 -0.14814204
946 -0.054674685
944 0.083956882
942 0.30026203
940 0.6074239
938 0.94605637
936 1.2454
934 1.4589496
932 1.5573894
930 1.5512815
928 1.4723531
926 1.3930721
924 1.379176
922 1.4337163
920 1.5307989
918 1.5933018
916 1.5610229
914 1.4863234
912 1.4590399
910 1.604903
908 2.005765
906 2.5373492
904 3.0325675
902 3.3578258
900 3.433291
898 3.3601923
896 3.2849
