##TITLE=Methyl Ethyl Ketone
##JCAMP-DX=4.24
##DATA TYPE=INFRARED SPECTRUM
##XUNITS=cm-1
##YUNITS=Absorbance
##FIRSTX=900
##LASTX=2300
##XYDATA=(X++(Y..Y))
2296 0.001107
2294 0.0011299672
2292 0.001153034
2290 0.001176101
2288 0.0011990686
2286 0.0012220357
2284 0.001245102
2282 0.001268169
2280 0.0012911372
2278 0.001314203
2276 0.00133727
2274 0.0013602385
2272 0.0013832058
2270 0.0014063691
2268 0.0014294379
2266 0.0014523093
2264 0.0014754697
2262 0.0014984414
2260 0.001521506
2258 0.0015444757
2256 0.00156754
2254 0.001590607
2252 0.0016135771
2250 0.0016367377
2248 0.0016596148
2246 0.001682675
2244 6.2530002e-05
2242 0.048492536
2240 0.10756952
2238 0.22296558
2236 0.34651658
2234 0.47396073
2232 0.60007948
2230 0.69030172
2228 0.76981413
2226 0.77701354
2224 0.76482064
2222 0.68036574
2220 0.57517952
2218 0.41840929
2216 0.25790742
2214 0.095629588
2212 -0.032674342
2210 -0.10533091
2208 -0.14294292
2206 -0.14110029
2204 -0.13776489
2202 -0.13533913
2200 -0.11899177
2198 -0.09216176
2196 -0.037512358
2194 0.032719675
2192 0.051598355
2190 0.047453452
2188 -0.028882846
2186 -0.12817433
2184 -0.1672512
2182 -0.19212513
2180 -0.13221036
2178 -0.059738062
2176 0.011674228
2174 0.082988255
2172 0.15460518
2170 0.2278996
2168 0.31044024
2166 0.39512366
2164 0.48413482
2162 0.56529361
2160 0.62530154
2158 0.6617859
2156 0.65787899
2154 0.65589285
2152 0.66273975
2150 0.69463921
2148 0.75370568
2146 0.81378675
2144 0.87223381
2142 0.92937118
2140 0.98562324
2138 1.0140774
2136 1.0275286
2134 0.96851212
2132 0.87989038
2130 0.77518445
2128 0.66626799
2126 0.62231094
2124 0.59342861
2122 0.65213823
2120 0.72575331
2118 0.82126462
2116 0.91074097
2114 0.93283451
2112 0.92333096
2110 0.81782699
2108 0.67406267
2106 0.45706049
2104 0.25150084
2102 0.094700247
2100 0.02701252
2098 0.096650437
2096 0.24205713
2094 0.45976916
2092 0.67038167
2090 0.86269724
2088 0.97656763
2086 1.028484
2084 1.0251565
2082 0.99137801
2080 0.9868601
2078 0.99950939
2076 1.0165499
2074 1.0344458
2072 1.026716
2070 1.0104443
2068 1.0289634
2066 1.054745
2064 1.044984
2062 1.0158817
2060 0.86900771
2058 0.70308441
2056 0.56054598
2054 0.46082246
2052 0.49560407
2050 0.57588619
2048 0.70180571
2046 0.80431426
2044 0.84231818
2042 0.82593
2040 0.74892199
2038 0.64754498
2036 0.5340302
2034 0.41751513
2032 0.29968044
2030 0.20045429
2028 0.11408249
2026 0.1183703
2024 0.17795189
2022 0.36489791
2020 0.61294425
2018 0.83570498
2016 1.045836
2014 1.0686141
2012 1.0309577
2010 0.92215699
2008 0.79907793
2006 0.71583492
2004 0.64298278
2002 0.5642482
2000 0.48010275
1998 0.36928159
1996 0.25527859
1994 0.14587227
1992 0.056075454
1990 0.017105613
1988 0.013832279
1986 0.063542075
1984 0.13094765
1982 0.20514895
1980 0.24951002
1978 0.25338387
1976 0.25618371
1974 0.2632066
1972 0.40556782
1970 0.64864826
1968 0.93035078
1966 1.225275
1964 1.2937217
1962 1.2446971
1960 1.0473129
1958 0.79270315
1956 0.54299599
1954 0.29977441
1952 0.10516381
1950 -0.057380755
1948 -0.10321897
1946 -0.10076425
1944 -0.031074494
1942 0.042970397
1940 0.094279148
1938 0.12161908
1936 0.11307172
1934 0.085700572
1932 0.028992599
1930 -0.037460044
1928 -0.11921018
1926 -0.135033
1924 -0.067297459
1922 0.14472955
1920 0.49605861
1918 0.81878161
1916 1.0981064
1914 1.1942506
1912 1.1572429
1910 1.0296247
1908 0.85619795
1906 0.62669927
1904 0.3726052
1902 0.138101
1900 -0.082174465
1898 -0.11455993
1896 -0.061817855
1894 0.11366297
1892 0.3169708
1890 0.4042072
1888 0.39838967
1886 0.2049858
1884 -0.070659742
1882 -0.37935331
1880 -0.65579128
1878 -0.83947474
1876 -0.91892302
1874 -0.88721061
1872 -0.75772887
1870 -0.54914778
1868 -0.38316157
1866 -0.27506459
1864 -0.3131313
1862 -0.4643923
1860 -0.62432534
1858 -0.77520448
1856 -0.87823713
1854 -0.95666105
1852 -0.97885948
1850 -0.97660255
1848 -0.85928124
1846 -0.68899286
1844 -0.58421433
1842 -0.53259218
1840 -0.68635774
1838 -0.92581391
1836 -1.1394343
1834 -1.294372
1832 -1.273684
1830 -1.1424958
1828 -0.87571073
1826 -0.61264867
1824 -0.46555144
1822 -0.45991892
1820 -0.65676802
1818 -0.90797931
1816 -1.1437966
1814 -1.2802635
1812 -1.2939972
1810 -1.2453533
1808 -1.1639686
1806 -1.0783399
1804 -0.99583721
1802 -0.88482523
1800 -0.75777626
1798 -0.56997383
1796 -0.33975714
1794 -0.066476718
1792 0.24632731
1790 0.4481934
1788 0.5939073
1786 0.66191262
1784 0.70255858
1782 0.80680472
1780 0.9654597
1778 1.201668
1776 1.4708543
1774 1.6998558
1772 1.8017156
1770 1.6327102
1768 1.2721474
1766 0.79865766
1764 0.3932468
1762 0.18900901
1760 0.054411657
1758 -0.12782228
1756 -0.231379
1754 -0.19998412
1752 0.14254543
1750 0.79191369
1748 1.5485218
1746 2.3301287
1744 2.6302605
1742 2.4932368
1740 2.1679423
1738 1.750885
1736 1.70812
1734 1.9451393
1732 2.0853143
1730 2.1250229
1728 1.6516399
1726 0.88308257
1724 0.2679854
1722 -0.12381092
1720 0.096853212
1718 0.84161675
1716 2.0236187
1714 3.2449961
1712 4.0422935
1710 4.6067996
1708 5.0980763
1706 5.8918548
1704 7.2776947
1702 9.4430161
1700 12.452431
1698 15.970502
1696 19.802572
1694 23.296799
1692 26.221943
1690 28.948286
1688 31.595778
1686 34.930019
1684 38.974552
1682 43.510384
1680 48.4076
1678 52.641632
1676 56.28933
1674 60.096184
1672 64.091866
1670 68.73468
1668 73.808342
1666 78.612503
1664 83.150307
1662 87.293465
1660 91.096886
1658 94.605942
1656 97.83886
1654 100.79967
1652 103.3004
1650 105.15863
1648 105.63977
1646 104.27679
1644 101.65714
1642 98.348106
1640 94.792336
1638 91.24025
1636 87.257011
1634 82.731232
1632 78.026848
1630 73.308899
1628 68.878464
1626 64.741455
1624 60.499481
1622 56.098099
1620 51.760006
1618 47.504993
1616 43.433254
1614 39.572731
1612 36.03772
1610 32.874218
1608 30.158651
1606 27.869694
1604 25.880346
1602 24.196657
1600 22.783972
1598 21.65403
1596 20.772499
1594 20.120312
1592 19.645588
1590 19.313217
1588 19.077568
1586 18.982014
1584 19.032108
1582 19.3349
1580 19.916967
1578 20.879492
1576 22.247143
1574 23.8116
1572 25.523483
1570 27.029823
1568 28.26404
1566 29.346985
1564 30.293011
1562 31.539541
1560 33.204178
1558 35.924614
1556 39.6521
1554 43.353691
1552 46.850918
1550 49.38142
1548 51.09211
1546 52.671963
1544 54.118919
1542 55.500858
1540 56.36338
1538 56.233917
1536 55.170284
1534 53.397633
1532 51.502064
1530 49.965546
1528 48.758858
1526 47.8451
1524 46.925804
1522 45.851681
1520 44.342064
1518 42.320114
1516 40.214027
1514 38.140991
1512 36.195683
1510 34.342258
1508 31.834009
1506 28.447964
1504 24.854582
1502 21.157236
1500 18.191368
1498 16.074211
1496 14.166
1494 12.45244
1492 10.745262
1490 9.0219488
1488 7.2773733
1486 5.514318
1484 3.7431381
1482 2.1488969
1480 0.92304689
1478 0.17615403
1476 0.00026040152
1474 0.38930762
1472 1.3256264
1470 2.2784209
1468 2.970221
1466 3.4871702
1464 3.7828269
1462 4.1644607
1460 4.7693253
1458 5.5183325
1456 6.4541602
1454 7.1123657
1452 7.351017
1450 7.3126674
1448 6.9108329
1446 6.4820929
1444 6.0196986
1442 5.6128778
1440 5.2785001
1438 5.050777
1436 4.9014754
1434 4.7324557
1432 4.4827118
1430 4.0785127
1428 3.5977101
1426 3.1838515
1424 2.9385903
1422 2.9795885
1420 3.2355177
1418 3.6413255
1416 4.0331631
1414 4.2490039
1412 4.3961768
1410 4.4795351
1408 4.6006651
1406 4.8152757
1404 5.0743823
1402 5.4099026
1400 5.7707801
1398 6.1746202
1396 6.5196285
1394 6.7604799
1392 6.8321028
1390 6.6653342
1388 6.3924923
1386 5.9780102
1384 5.5505853
1382 5.1192789
1380 4.7534337
1378 4.4656453
1376 4.2437859
1374 4.0561094
1372 3.860774
1370 3.6448052
1368 3.3761399
1366 3.0708172
1364 2.7068787
1362 2.2878115
1360 1.8373863
1358 1.3820239
1356 0.95944899
1354 0.59302044
1352 0.29125208
1350 0.066671379
1348 -0.042413741
1346 -0.069625169
1344 0.1345346
1342 0.43073589
1340 0.86026943
1338 1.2053063
1336 1.3735485
1334 1.3828576
1332 1.1787519
1330 0.98929429
1328 0.85137969
1326 0.83015251
1324 0.9597761
1322 1.2053781
1320 1.5686777
1318 1.9743299
1316 2.3854499
1314 2.704932
1312 2.9243257
1310 3.0082695
1308 2.9968348
1306 2.9080265
1304 2.7810173
1302 2.6535339
1300 2.5427117
1298 2.4975698
1296 2.4978571
1294 2.5825992
1292 2.6983578
1290 2.8541033
1288 2.9905078
1286 3.0659037
1284 3.0973063
1282 3.0347474
1280 2.9726622
1278 2.9197953
1276 2.9080842
1274 2.9688029
1272 3.0656652
1270 3.2161176
1268 3.3941431
1266 3.6182015
1264 3.8638217
1262 4.1412773
1260 4.4191399
1258 4.6949229
1256 4.960043
1254 5.2236071
1252 5.5092874
1250 5.8277678
1248 6.2103882
1246 6.6275249
1244 7.0647421
1242 7.4842243
1240 7.8272147
1238 8.1163397
1236 8.2956276
1234 8.4203901
1232 8.4297161
1230 8.3908539
1228 8.2316189
1226 8.0493994
1224 7.8081908
1222 7.5490222
1220 7.2454653
1218 6.9027362
1216 6.4810228
1214 6.0238533
1212 5.5054522
1210 4.9661074
1208 4.4025364
1206 3.8532784
1204 3.329114
1202 2.8427248
1200 2.3833108
1198 1.8972543
1196 1.3883486
1194 0.86762029
1192 0.37152323
1190 0.0076608211
1188 -0.26533642
1186 -0.401207
1184 -0.4914884
1182 -0.57738632
1180 -0.65930951
1178 -0.73282886
1176 -0.77304602
1174 -0.68477225
1172 -0.55493164
1170 -0.29017627
1168 -0.022659913
1166 0.25417995
1164 0.50311702
1162 0.68092012
1160 0.82509631
1158 0.89577746
1156 0.91611624
1154 0.84660089
1152 0.71448511
1150 0.50184739
1148 0.28947499
1146 0.092308037
1144 -0.022041611
1142 -0.055209957
1140 -0.021385506
1138 0.072580516
1136 0.19738972
1134 0.34857589
1132 0.5917536
1130 0.89848745
1128 1.3520119
1126 1.85483
1124 2.4029951
1122 2.9324155
1120 3.32096
1118 3.654227
1116 3.7630744
1114 3.8630924
1112 3.9423606
1110 4.0351968
1108 4.1682076
1106 4.2799053
1104 4.344604
1102 4.4440966
1100 4.6160417
1098 4.8380542
1096 5.1298571
1094 5.380825
1092 5.589222
1090 5.8432775
1088 6.1613092
1086 6.6208634
1084 7.1772833
1082 7.6637082
1080 8.0787039
1078 8.2866755
1076 8.3921585
1074 8.4299107
1072 8.4411564
1070 8.4143248
1068 8.3828859
1066 8.3726015
1064 8.378376
1062 8.4807911
1060 8.5701122
1058 8.5449228
1056 8.4948969
1054 8.3388224
1052 8.2097969
1050 8.1678543
1048 8.1588783
1046 8.2323923
1044 8.3466806
1042 8.5454321
1040 8.827713
1038 9.228303
1036 9.6042194
1034 9.9230804
1032 9.9508476
1030 9.694315
1028 9.1659203
1026 8.4624128
1024 7.8739524
1022 7.3686781
1020 7.102262
1018 6.9239149
1016 6.69946
1014 6.4414949
1012 5.9521189
1010 5.4168754
1008 4.809
1006 4.210145
1004 3.7910104
1002 3.3961513
1000 3.1575141
998 2.9325495
996 2.7682571
994 2.618804
992 2.5136619
990 2.3681602
988 2.1259933
986 1.8014436
984 1.3362558
982 0.92385352
980 0.58706915
978 0.36138266
976 0.24766874
974 0.083102778
972 -0.12201709
970 -0.33340675
968 -0.5381996
966 -0.52685797
964 -0.41144788
962 -0.1583456
960 0.13484201
958 0.31973398
956 0.47380415
954 0.44031247
952 0.379816
950 0.20821227
948 0.041945003
946 0.013824965
944 0.0038204566
942 0.11920531
940 0.35947415
938 0.72353208
936 1.1481972
934 1.7505999
932 2.4046791
930 3.1649055
928 3.7592473
926 4.0849752
924 4.223618
922 4.1351819
920 4.075541
918 4.0427866
916 3.9973314
914 3.9418519
912 3.7508759
910 3.4879351
908 3.3520181
906 3.2659585
904 3.8763218
902 4.66852
900 5.9316282
898 7.2684765
896 7.8811998
