##TITLE=Methyl Ethyl Ketone
##JCAMP-DX=4.24
##DATA TYPE=INFRARED SPECTRUM
##XUNITS=cm-1
##YUNITS=Absorbance
##FIRSTX=900
##LASTX=2300
##XYDATA=(X++(Y..Y))
2296 -0.0059675998
2294 -0.0060917228
2292 -0.0062158448
2290 -0.0063399673
2288 -0.0064641889
2286 -0.0065883119
2284 -0.0067124343
2282 -0.006836656
2280 -0.0069607794
2278 -0.0070849019
2276 -0.0072090244
2274 -0.0073332451
2272 -0.007457369
2270 -0.0075814915
2268 -0.007705614
2266 -0.0078298347
2264 -0.0079539586
2262 -0.0080779837
2260 -0.0082022985
2258 -0.0083263284
2256 -0.0084505463
2254 -0.0085746711
2252 -0.0086987931
2250 -0.008823012
2248 -0.0089470418
2246 -0.009071257
2244 0.0087099085
2242 0.00036241714
2240 -0.017057279
2238 -0.042630468
2236 -0.069347814
2234 -0.077843532
2232 -0.084221765
2230 -0.072649837
2228 -0.058886666
2226 -0.034460198
2224 -0.0095995823
2222 0.014795048
2220 0.038411424
2218 0.059756238
2216 0.07669609
2214 0.084287137
2212 0.078461222
2210 0.051630013
2208 0.025122879
2206 0.00062560395
2204 -0.0046892213
2202 0.0083573051
2200 0.029068759
2198 0.05460814
2196 0.081370786
2194 0.10865663
2192 0.14354064
2190 0.18174651
2188 0.21891646
2186 0.25567934
2184 0.26266402
2182 0.26279956
2180 0.22841465
2178 0.18915759
2176 0.16894314
2174 0.15362149
2172 0.17391996
2170 0.1977326
2168 0.22234897
2166 0.24532007
2164 0.26205823
2162 0.27947733
2160 0.30020127
2158 0.31914276
2156 0.33405799
2154 0.34377685
2152 0.34656709
2150 0.3456693
2148 0.34145314
2146 0.32241645
2144 0.29059455
2142 0.24859539
2140 0.20046106
2138 0.1763279
2136 0.16560657
2134 0.17591076
2132 0.19449212
2130 0.20948783
2128 0.2230888
2126 0.23080727
2124 0.23719354
2122 0.22939676
2120 0.21872023
2118 0.19600119
2116 0.17322186
2114 0.1628641
2112 0.15860577
2110 0.17333968
2108 0.19120957
2106 0.21016243
2104 0.22413246
2102 0.22679283
2100 0.2257518
2098 0.22131006
2096 0.22115856
2094 0.22731702
2092 0.23200488
2090 0.23420778
2088 0.22090822
2086 0.19502901
2084 0.16056053
2082 0.12153537
2080 0.097030051
2078 0.080503583
2076 0.081067301
2074 0.088347167
2072 0.090800919
2070 0.091491573
2068 0.071605094
2066 0.046411626
2064 0.0023113554
2062 -0.044440519
2060 -0.081501611
2058 -0.11098642
2056 -0.10933886
2054 -0.09876164
2052 -0.077974163
2050 -0.061310716
2048 -0.060181949
2046 -0.071266107
2044 -0.10002896
2042 -0.13164775
2040 -0.16266057
2038 -0.18033548
2036 -0.18237413
2034 -0.16933621
2032 -0.14442086
2030 -0.1144854
2028 -0.082078218
2026 -0.051908098
2024 -0.023308629
2022 0.00052534416
2020 0.02208039
2018 0.021842292
2016 0.012434199
2014 -0.023098351
2012 -0.06731277
2010 -0.11359516
2008 -0.15999486
2006 -0.20020773
2004 -0.23687764
2002 -0.259045
2000 -0.27146235
1998 -0.25675559
1996 -0.23104785
1994 -0.19224805
1992 -0.16188978
1990 -0.15868592
1988 -0.1791506
1986 -0.23049779
1984 -0.28446764
1982 -0.33185405
1980 -0.36781982
1978 -0.39214054
1976 -0.41312799
1974 -0.43311059
1972 -0.43658403
1970 -0.42738417
1968 -0.39903855
1966 -0.36004534
1964 -0.34210959
1962 -0.33646667
1960 -0.34788281
1958 -0.36618769
1956 -0.36838499
1954 -0.36473316
1952 -0.36291748
1950 -0.36355603
1948 -0.37767878
1946 -0.39649248
1944 -0.41808286
1942 -0.4398185
1940 -0.46221754
1938 -0.48465711
1936 -0.50742853
1934 -0.5261122
1932 -0.53520238
1930 -0.53327745
1928 -0.51695281
1926 -0.49134049
1924 -0.45809096
1922 -0.4209367
1920 -0.3823455
1918 -0.34478512
1916 -0.30960971
1914 -0.27464458
1912 -0.23935698
1910 -0.22231299
1908 -0.21672255
1906 -0.25379914
1904 -0.31346521
1902 -0.36819792
1900 -0.41973004
1898 -0.41858292
1896 -0.39623284
1894 -0.36637977
1892 -0.33922121
1890 -0.35144851
1888 -0.38390365
1886 -0.44034323
1884 -0.50476217
1882 -0.56665891
1880 -0.62555897
1878 -0.67872614
1876 -0.71706802
1874 -0.72978622
1872 -0.70248991
1870 -0.62657434
1868 -0.54274035
1866 -0.47016278
1864 -0.46306279
1862 -0.52367991
1860 -0.61234438
1858 -0.70962954
1856 -0.77708775
1854 -0.8190133
1852 -0.83421773
1850 -0.83386666
1848 -0.8225804
1846 -0.8051632
1844 -0.80566645
1842 -0.81561881
1840 -0.85085422
1838 -0.89599341
1836 -0.91787273
1834 -0.9205519
1832 -0.87299252
1830 -0.80003458
1828 -0.71836144
1826 -0.65227443
1824 -0.64285189
1822 -0.67252344
1820 -0.7353372
1818 -0.80076963
1816 -0.846012
1814 -0.86978489
1812 -0.87213045
1810 -0.86095542
1808 -0.84263176
1806 -0.80414402
1804 -0.74696428
1802 -0.67991418
1800 -0.60739321
1798 -0.54821348
1796 -0.50042355
1794 -0.45632443
1792 -0.4146812
1790 -0.38535863
1788 -0.36517906
1786 -0.34941372
1784 -0.33504748
1782 -0.29885289
1780 -0.24778369
1778 -0.174061
1776 -0.08426246
1774 0.023040552
1772 0.1283979
1770 0.19410592
1768 0.21721864
1766 0.18028013
1764 0.1244898
1762 0.088938065
1760 0.030161869
1758 -0.079353258
1756 -0.17851429
1754 -0.23496649
1752 -0.21585622
1750 -0.12124328
1748 -0.0039548464
1746 0.11180665
1744 0.12815051
1742 0.047852602
1740 -0.071345434
1738 -0.2058018
1736 -0.24345
1734 -0.20329683
1732 -0.13131708
1730 -0.047246523
1728 -0.06416586
1726 -0.14587694
1724 -0.19165692
1722 -0.17860401
1720 0.038321614
1718 0.45456889
1716 1.1157048
1714 1.8942549
1712 2.6112247
1710 3.2839384
1708 3.9360561
1706 4.7409735
1704 5.8600082
1702 7.5351629
1700 9.882266
1698 13.0441
1696 16.966715
1694 20.944679
1692 24.65519
1690 28.014605
1688 31.075748
1686 34.711578
1684 39.001701
1682 44.181427
1680 50.066681
1678 55.291565
1676 59.882015
1674 64.241669
1672 68.507515
1670 73.472054
1668 78.945213
1666 84.304749
1664 89.415436
1662 93.805519
1660 97.516922
1658 100.58914
1656 103.01514
1654 104.788
1652 105.7054
1650 105.563
1648 104.20332
1646 101.60107
1644 98.317322
1642 94.869812
1640 91.163055
1638 87.182602
1636 82.552902
1634 77.198341
1632 71.874397
1630 66.830811
1628 62.260479
1626 58.142128
1624 54.040882
1622 49.887707
1620 45.891968
1618 42.063004
1616 38.497829
1614 35.212265
1612 32.306911
1610 29.797091
1608 27.680994
1606 25.946087
1604 24.484272
1602 23.306303
1600 22.386864
1598 21.724171
1596 21.273499
1594 21.021259
1592 20.920553
1590 20.957102
1588 21.09742
1586 21.330015
1584 21.63612
1582 22.00741
1580 22.434879
1578 22.978207
1576 23.656286
1574 24.501989
1572 25.517517
1570 26.633863
1568 27.831841
1566 29.062521
1564 30.32354
1562 31.770929
1560 33.497776
1558 36.117455
1556 39.686169
1554 43.57959
1552 47.568642
1550 50.648632
1548 52.868176
1546 54.795998
1544 56.453423
1542 57.980381
1540 59.10154
1538 59.432629
1536 58.919029
1534 57.635006
1532 55.926994
1530 54.21154
1528 52.513504
1526 50.851849
1524 49.08564
1522 47.123878
1520 44.896618
1518 42.349861
1516 39.838215
1514 37.481617
1512 35.259239
1510 33.193737
1508 30.713272
1506 27.679993
1504 24.623362
1502 21.597042
1500 19.020903
1498 16.94203
1496 14.878858
1494 12.828513
1492 10.762791
1490 8.6996784
1488 6.6860733
1486 4.7845535
1484 3.0876222
1482 1.6941738
1480 0.70154548
1478 0.14108238
1476 0.037211336
1474 0.45525765
1472 1.3368909
1470 2.3723271
1468 3.3619046
1466 4.1851459
1464 4.7475171
1462 5.2113109
1460 5.629138
1458 6.0293479
1456 6.4131398
1454 6.7063184
1452 6.8549223
1450 6.8982205
1448 6.7894168
1446 6.622314
1444 6.3757119
1442 6.109024
1440 5.8148189
1438 5.4961033
1436 5.1280575
1434 4.6604238
1432 4.0895801
1430 3.4825478
1428 2.887176
1426 2.4172993
1424 2.1041434
1422 1.9688188
1420 1.996416
1418 2.1520658
1416 2.3774228
1414 2.6127789
1412 2.8439438
1410 3.064023
1408 3.2985263
1406 3.5706294
1404 3.8794143
1402 4.2389669
1400 4.6259441
1398 5.0481458
1396 5.4508142
1394 5.8067155
1392 6.0808749
1390 6.2068443
1388 6.2287631
1386 6.0826049
1384 5.8293586
1382 5.4316249
1380 4.9883704
1378 4.502286
1376 4.0395861
1374 3.6134019
1372 3.2272019
1370 2.8796785
1368 2.5509896
1366 2.2149436
1364 1.8271691
1362 1.3967848
1360 0.93102002
1358 0.50120312
1356 0.20022263
1354 0.013220828
1352 -0.01252216
1350 0.032655574
1348 0.13960752
1346 0.27430356
1344 0.44079959
1342 0.63000685
1340 0.86184025
1338 1.0944301
1336 1.3217571
1334 1.5218152
1332 1.669098
1330 1.8167419
1328 1.9706857
1326 2.1591699
1324 2.403564
1322 2.6858926
1320 3.016511
1318 3.362246
1316 3.7133801
1314 4.0301781
1312 4.300951
1310 4.5147023
1308 4.6736207
1306 4.7851272
1304 4.8522115
1302 4.8649583
1300 4.8386655
1298 4.7659898
1296 4.6777
1294 4.5859318
1292 4.5022063
1290 4.4414458
1288 4.388216
1286 4.345839
1284 4.3066158
1282 4.273715
1280 4.2488976
1278 4.2429452
1276 4.2494783
1274 4.2821217
1272 4.3291535
1270 4.401711
1268 4.4867373
1266 4.5889144
1264 4.6966553
1262 4.8074713
1260 4.9089541
1258 4.9972224
1256 5.0680113
1254 5.1253757
1252 5.1821418
1250 5.2408123
1248 5.3079271
1246 5.3764749
1244 5.4346719
1242 5.4802723
1240 5.4960675
1238 5.4869475
1236 5.4230042
1234 5.3217769
1232 5.13236
1230 4.904489
1228 4.5804429
1226 4.2304544
1224 3.8131251
1222 3.3836048
1220 2.9265454
1218 2.4732819
1216 2.0312514
1214 1.6140492
1212 1.2433493
1210 0.91214013
1208 0.63817918
1206 0.39203858
1204 0.17767124
1202 -0.027637228
1200 -0.22001651
1198 -0.39045629
1196 -0.53464288
1194 -0.633412
1192 -0.69682711
1190 -0.71980202
1188 -0.71778631
1186 -0.68591833
1184 -0.63239908
1182 -0.53017443
1180 -0.39755794
1178 -0.18581215
1176 0.056073993
1174 0.37640309
1172 0.7029435
1170 1.0338353
1168 1.3344611
1166 1.5395836
1164 1.702392
1162 1.7602561
1160 1.7899234
1158 1.7608171
1156 1.7024114
1154 1.5916737
1152 1.4409177
1150 1.2353874
1148 1.0058756
1146 0.75399852
1144 0.51516461
1142 0.29768446
1140 0.13828079
1138 0.032394033
1136 0.0078633446
1134 0.037580773
1132 0.16254114
1130 0.33080328
1128 0.53531224
1126 0.74084014
1124 0.89995748
1122 1.0352817
1120 1.088164
1118 1.1278381
1116 1.1378386
1114 1.1564355
1112 1.2135354
1110 1.2842492
1108 1.397148
1106 1.5057601
1104 1.6001714
1102 1.6617529
1100 1.6572572
1098 1.6252373
1096 1.5534286
1094 1.4964843
1092 1.4625521
1090 1.4650103
1088 1.5043257
1086 1.5562736
1084 1.6154548
1082 1.6574514
1080 1.6835177
1078 1.667967
1076 1.6251729
1074 1.5202818
1072 1.3917909
1070 1.2384262
1068 1.0837649
1066 0.95966125
1064 0.8441292
1062 0.76325279
1060 0.69001895
1058 0.65542954
1056 0.63022369
1054 0.64567757
1052 0.6605764
1050 0.67216957
1048 0.66511971
1046 0.61214322
1044 0.54256898
1042 0.44228309
1040 0.3404561
1038 0.23686133
1036 0.1384927
1034 0.047227405
1032 -0.032166671
1030 -0.10157873
1028 -0.17692289
1026 -0.2597132
1024 -0.3778556
1022 -0.5139578
1020 -0.64500582
1018 -0.76822662
1016 -0.82777369
1014 -0.86894941
1012 -0.89609319
1010 -0.92535549
1008 -1.0058736
1006 -1.0904193
1004 -1.1717557
1002 -1.2463729
1000 -1.2749429
998 -1.301879
996 -1.3223214
994 -1.345647
992 -1.3771045
990 -1.3989135
988 -1.3978974
986 -1.37729
984 -1.3226988
982 -1.2669801
980 -1.210326
978 -1.1631094
976 -1.1254143
974 -1.0816867
972 -1.0328212
970 -0.97971159
968 -0.92390072
966 -0.86958247
964 -0.81586123
962 -0.76118857
960 -0.70576495
958 -0.63914162
956 -0.56910461
954 -0.47495398
952 -0.37771079
950 -0.27560061
948 -0.17227539
946 -0.056519676
944 0.0025398508
942 0.07914789
940 0.23414794
938 0.41790122
936 0.58529288
934 0.70444918
932 0.8056851
930 0.86890244
928 0.9366045
926 1.0114279
924 1.08254
922 1.1487887
920 1.1798761
918 1.1775666
916 1.1176628
914 1.0167924
912 0.88397866
910 0.7350471
908 0.64508414
906 0.578861
904 0.63230675
902 0.71776009
900 0.89490926
898 1.0868721
896 1.2771
