##TITLE=Methyl Ethyl Ketone
##JCAMP-DX=4.24
##DATA TYPE=INFRARED SPECTRUM
##XUNITS=cm-1
##YUNITS=Absorbance
##FIRSTX=900
##LASTX=2300
##XYDATA=(X++(Y..Y))
2296 -0.02282
2294 -0.023294322
2292 -0.023768643
2290 -0.02424396
2288 -0.024718286
2286 -0.0251936
2284 -0.025667928
2282 -0.026142251
2280 -0.026617559
2278 -0.027091892
2276 -0.0275672
2274 -0.028041536
2272 -0.028515857
2270 -0.028991159
2268 -0.0294655
2266 -0.029940801
2264 -0.030415142
2262 -0.030890441
2260 -0.031364784
2258 -0.031839106
2256 -0.032314397
2254 -0.03278875
2252 -0.033264041
2250 -0.033738393
2248 -0.034212712
2246 -0.034688003
2244 -0.0012890429
2242 0.071658157
2240 0.15253012
2238 0.22848764
2236 0.30372199
2234 0.32414329
2232 0.33892983
2230 0.31579763
2228 0.29111019
2226 0.268668
2224 0.24785766
2222 0.23409829
2220 0.22502042
2218 0.22912923
2216 0.24285457
2214 0.27596098
2212 0.3118194
2210 0.35032147
2208 0.37768421
2206 0.39095351
2204 0.39672974
2202 0.39612848
2200 0.38981012
2198 0.37953851
2196 0.35150927
2194 0.31340903
2192 0.29198241
2190 0.27817851
2188 0.32588762
2186 0.393428
2184 0.48210001
2182 0.57533669
2180 0.62126905
2178 0.65964615
2176 0.66091257
2174 0.65870351
2172 0.65572101
2170 0.65162802
2168 0.64164639
2166 0.63208032
2164 0.62618232
2162 0.62509936
2160 0.63543189
2158 0.64361721
2156 0.64550602
2154 0.64352733
2152 0.63688439
2150 0.63198495
2148 0.62961304
2146 0.62420249
2144 0.61587805
2142 0.60150987
2140 0.58318037
2138 0.57009834
2136 0.56009084
2134 0.57268643
2132 0.59460914
2130 0.6349082
2128 0.6807844
2126 0.71967423
2124 0.7568571
2122 0.77156079
2120 0.78147185
2118 0.76811332
2116 0.74942416
2114 0.71543378
2112 0.67939067
2110 0.64384037
2108 0.61121804
2106 0.58725339
2104 0.56832796
2102 0.55777287
2100 0.55488044
2098 0.56283653
2096 0.5817014
2094 0.61285001
2092 0.64884269
2090 0.6879943
2088 0.71982414
2086 0.745049
2084 0.76186132
2082 0.77366412
2080 0.77606344
2078 0.77395266
2076 0.75690198
2074 0.73390859
2072 0.71485519
2070 0.69733208
2068 0.69471258
2066 0.6957612
2064 0.68889356
2062 0.68036908
2060 0.66828108
2058 0.65772039
2056 0.65936399
2054 0.66485745
2052 0.67628056
2050 0.68556887
2048 0.68720341
2046 0.67455536
2044 0.63749939
2042 0.58682311
2040 0.52193123
2038 0.47084436
2036 0.43874627
2034 0.43233079
2032 0.44758639
2030 0.46674198
2028 0.48647249
2026 0.50462294
2024 0.5220775
2022 0.55269307
2020 0.59045482
2018 0.61569136
2016 0.63490599
2014 0.6093843
2012 0.56840247
2010 0.51464546
2008 0.45892537
2006 0.42722663
2004 0.40408328
2002 0.39989349
2000 0.40230897
1998 0.41506562
1996 0.43028498
1994 0.44673952
1992 0.45905972
1990 0.45890692
1988 0.45336178
1986 0.44042265
1984 0.42562053
1982 0.41073859
1980 0.39619383
1978 0.3834084
1976 0.38497627
1974 0.4002609
1972 0.43461409
1970 0.48202646
1968 0.51045978
1966 0.52519178
1964 0.49642277
1962 0.44500884
1960 0.39445361
1958 0.34524792
1956 0.31562772
1954 0.29271728
1952 0.27204919
1950 0.25291604
1948 0.25364527
1946 0.26362753
1944 0.28727508
1942 0.31410673
1940 0.32715604
1938 0.33493936
1936 0.33771688
1934 0.33819535
1932 0.3405318
1930 0.33400336
1928 0.31591526
1926 0.28878942
1924 0.25621113
1922 0.22843954
1920 0.20550588
1918 0.1919058
1916 0.18221143
1914 0.1946246
1912 0.22347012
1910 0.26364776
1908 0.31014535
1906 0.31867906
1904 0.30526799
1902 0.26169127
1900 0.20421483
1898 0.17614289
1896 0.16251428
1894 0.1917142
1892 0.23760881
1890 0.27862099
1888 0.30784434
1886 0.28908521
1884 0.24762788
1882 0.1902335
1880 0.13489521
1878 0.10044426
1876 0.074279703
1874 0.055867102
1872 0.038299449
1870 0.021567965
1868 0.010618519
1866 -0.00039662234
1864 -0.016518367
1862 -0.044271961
1860 -0.074145958
1858 -0.10068432
1856 -0.11912715
1854 -0.12901108
1852 -0.13964306
1850 -0.1491663
1848 -0.1584432
1846 -0.16446428
1844 -0.17307189
1842 -0.18045266
1840 -0.18610926
1838 -0.19029173
1836 -0.16978642
1834 -0.13730109
1832 -0.083500102
1830 -0.023069687
1828 0.021365874
1826 0.043656964
1824 0.011078026
1822 -0.058992509
1820 -0.15973008
1818 -0.26000011
1816 -0.33156401
1814 -0.36798272
1812 -0.36551046
1810 -0.34055418
1808 -0.30586839
1806 -0.26651049
1804 -0.22607988
1802 -0.20001671
1800 -0.18447834
1798 -0.18807833
1796 -0.20423071
1794 -0.19965288
1792 -0.1825932
1790 -0.14554869
1788 -0.10157251
1786 -0.075262912
1784 -0.062611654
1782 -0.058868315
1780 -0.06037046
1778 -0.0510877
1776 -0.0310276
1774 0.01182252
1772 0.069136858
1770 0.1184701
1768 0.15019868
1766 0.13925979
1764 0.099521898
1762 0.051049605
1760 0.012071486
1758 -0.092086226
1756 -0.20794171
1754 -0.27343494
1752 -0.27956206
1750 -0.23045491
1748 -0.17829438
1746 -0.14400285
1744 -0.16676526
1742 -0.24670073
1740 -0.32308316
1738 -0.38396415
1736 -0.349042
1734 -0.23735364
1732 -0.11029607
1730 0.015495677
1728 0.027555155
1726 -0.040182736
1724 -0.093373068
1722 -0.112657
1720 0.013535433
1718 0.27976283
1716 0.74763829
1714 1.332428
1712 1.8861463
1710 2.4139988
1708 2.9364121
1706 3.6045451
1704 4.5684042
1702 6.0776339
1700 8.2525835
1698 11.304095
1696 15.192857
1694 19.18335
1692 22.932205
1690 26.284515
1688 29.287846
1686 32.835896
1684 37.021603
1682 42.098721
1680 47.881439
1678 52.939354
1676 57.305313
1674 61.459305
1672 65.554939
1670 70.536964
1668 76.193153
1666 81.875298
1664 87.393768
1662 92.142982
1660 96.145897
1658 99.403542
1656 101.94485
1654 103.82214
1652 104.834
1650 104.79763
1648 103.59
1646 101.18143
1644 98.246033
1642 95.376884
1640 92.371468
1638 89.143349
1636 85.138489
1634 80.215607
1632 75.118759
1630 70.121964
1628 65.519447
1626 61.330021
1624 57.10968
1622 52.796215
1620 48.583855
1618 44.489372
1616 40.680599
1614 37.179104
1612 34.130463
1610 31.539291
1608 29.35704
1606 27.561092
1604 26.010149
1602 24.721317
1600 23.684515
1598 22.909023
1596 22.369499
1594 22.047354
1592 21.884222
1590 21.855906
1588 21.917912
1586 22.070049
1584 22.305687
1582 22.621851
1580 23.013689
1578 23.517876
1576 24.143057
1574 24.908688
1572 25.807194
1570 26.791426
1568 27.8468
1566 28.9541
1564 30.118734
1562 31.516405
1560 33.240932
1558 35.838543
1556 39.360714
1554 43.122658
1552 46.908016
1550 49.844254
1548 51.979179
1546 53.874966
1544 55.54274
1542 57.081608
1540 58.259079
1538 58.721584
1536 58.414772
1534 57.403267
1532 55.961567
1530 54.456127
1528 52.889942
1526 51.267799
1524 49.469063
1522 47.408901
1520 45.14135
1518 42.659294
1516 40.306583
1514 38.2118
1512 36.18996
1510 34.233349
1508 31.782858
1506 28.688593
1504 25.582121
1502 22.51516
1500 19.919491
1498 17.84403
1496 15.780429
1494 13.723533
1492 11.630507
1490 9.5171938
1488 7.4316592
1486 5.4392886
1484 3.6495519
1482 2.1484523
1480 1.0299444
1478 0.32307741
1476 0.057214744
1474 0.33795744
1472 1.122401
1470 2.1138549
1468 3.1252077
1466 3.9851179
1464 4.5824547
1462 5.073441
1460 5.5102234
1458 5.9537134
1456 6.4184198
1454 6.8097439
1452 7.0665121
1450 7.1853509
1448 7.0994291
1446 6.9417109
1444 6.6884112
1442 6.4182692
1440 6.1259422
1438 5.8026967
1436 5.428843
1434 4.9560633
1432 4.3909965
1430 3.8146315
1428 3.2614939
1426 2.8222141
1424 2.5055342
1422 2.3048103
1420 2.2170801
1418 2.2185395
1416 2.3029144
1414 2.466131
1412 2.6802869
1410 2.9525714
1408 3.2574441
1406 3.5966387
1404 3.9620886
1402 4.3540521
1400 4.7665439
1398 5.2051229
1396 5.6283784
1394 6.0109692
1392 6.3168578
1390 6.4743824
1388 6.5279708
1386 6.41188
1384 6.1918788
1382 5.828702
1380 5.4065199
1378 4.9180818
1376 4.4131975
1374 3.9071562
1372 3.4259081
1370 2.9833558
1368 2.5988674
1366 2.2403686
1364 1.8580246
1362 1.4483774
1360 0.99695194
1358 0.57240915
1356 0.26018363
1354 0.052052833
1352 0.0032589578
1350 0.031595483
1348 0.13159542
1346 0.25531179
1344 0.41889361
1342 0.60134089
1340 0.81806111
1338 1.0410267
1336 1.2687657
1334 1.4835567
1332 1.6583903
1330 1.8242509
1328 1.9779235
1326 2.1500642
1324 2.3621697
1322 2.6125553
1320 2.9177508
1318 3.246314
1316 3.5931101
1314 3.9176283
1312 4.2052231
1310 4.4433613
1308 4.6259351
1306 4.7541466
1304 4.831727
1302 4.8492599
1300 4.8286953
1298 4.7677684
1296 4.6955857
1294 4.6235871
1292 4.5596037
1290 4.5146646
1288 4.4795761
1286 4.4620824
1284 4.4480453
1282 4.4375944
1280 4.4235835
1278 4.4016972
1276 4.3862557
1274 4.3888402
1272 4.4151378
1270 4.4837642
1268 4.569139
1266 4.6747031
1264 4.7781491
1262 4.8779702
1260 4.9813418
1258 5.0918455
1256 5.2176056
1254 5.3548374
1252 5.4925165
1250 5.6233397
1248 5.7295356
1246 5.8149748
1244 5.8676667
1242 5.9007478
1240 5.9078259
1238 5.8924298
1236 5.8273826
1234 5.7238455
1232 5.526176
1230 5.2878823
1228 4.9490385
1226 4.5819855
1224 4.1413488
1222 3.6864095
1220 3.1991191
1218 2.7202029
1216 2.2613542
1214 1.8304412
1212 1.450446
1210 1.1049348
1208 0.81163132
1206 0.55365622
1204 0.33908337
1202 0.15154123
1200 -0.0088025033
1198 -0.15448378
1196 -0.28480786
1194 -0.39509135
1192 -0.48716074
1190 -0.55041599
1188 -0.59516007
1186 -0.61594665
1184 -0.61819273
1182 -0.57670259
1180 -0.49962813
1178 -0.31712446
1176 -0.091209993
1174 0.25273994
1172 0.60418868
1170 0.95506728
1168 1.2666389
1166 1.4543194
1164 1.596164
1162 1.625373
1160 1.6319606
1158 1.5919569
1156 1.5300343
1154 1.4278718
1152 1.288096
1150 1.0969902
1148 0.88392723
1146 0.65136319
1144 0.43581831
1142 0.24453127
1140 0.1101871
1138 0.02714349
1136 0.018325973
1134 0.056774631
1132 0.15435071
1130 0.27773836
1128 0.41850305
1126 0.56110179
1124 0.68917924
1122 0.809232
1120 0.90017039
1118 0.98727894
1116 1.0682329
1114 1.1549153
1112 1.266296
1110 1.3819185
1108 1.5094017
1106 1.62388
1104 1.7037965
1102 1.7566619
1100 1.7563614
1098 1.7450167
1096 1.7184429
1094 1.7044274
1092 1.7076499
1090 1.7277163
1088 1.7651538
1086 1.8118286
1084 1.8638983
1082 1.9029115
1080 1.9277058
1078 1.9040109
1076 1.8519485
1074 1.7513623
1072 1.6372303
1070 1.5402793
1068 1.4539034
1066 1.4182543
1064 1.3904761
1062 1.3728368
1060 1.3540677
1058 1.324555
1056 1.2906314
1054 1.2368286
1052 1.1730143
1050 1.0781896
1048 0.98383033
1046 0.8916921
1044 0.81042051
1042 0.74798876
1040 0.67874825
1038 0.59910893
1036 0.51542103
1034 0.42881683
1032 0.35697937
1030 0.29702246
1028 0.22224703
1026 0.13499211
1024 0.022027105
1022 -0.10226338
1020 -0.20355853
1018 -0.29263961
1016 -0.34334713
1014 -0.38426614
1012 -0.43098062
1010 -0.48107281
1008 -0.55930042
1006 -0.63834518
1004 -0.69987893
1002 -0.75359476
1000 -0.75504094
998 -0.75020528
996 -0.71774858
994 -0.68223172
992 -0.63713169
990 -0.58435321
988 -0.51427323
986 -0.44528043
984 -0.37891829
982 -0.3321214
980 -0.31174901
978 -0.30371407
976 -0.308644
974 -0.315079
972 -0.32335645
970 -0.34221247
968 -0.36750686
966 -0.39864799
964 -0.43098083
962 -0.43591744
960 -0.43032119
958 -0.38386074
956 -0.32878315
954 -0.27199817
952 -0.21554561
950 -0.17047228
948 -0.12324898
946 -0.039830785
944 0.0013676919
942 0.042597078
940 0.12525457
938 0.22070691
936 0.31577572
934 0.40970674
932 0.49286109
930 0.55278701
928 0.59988189
926 0.62659198
924 0.6522938
922 0.67642945
920 0.67272103
918 0.64250743
916 0.5765236
914 0.48579282
912 0.44047171
910 0.42050841
908 0.4855459
906 0.58409327
904 0.68241668
902 0.78112853
900 0.80638915
898 0.81995708
896 0.74801999
