##TITLE=Methyl Ethyl Ketone
##JCAMP-DX=4.24
##DATA TYPE=INFRARED SPECTRUM
##XUNITS=cm-1
##YUNITS=Absorbance
##FIRSTX=900
##LASTX=2300
##XYDATA=(X++(Y..Y))
2296 0.0001853
2294 0.00018915448
2292 0.00019298903
2290 0.00019686337
2288 0.000200708
2286 0.00020457235
2284 0.000208417
2282 0.00021227139
2280 0.00021612587
2278 0.00021998037
2276 0.00022382499
2274 0.00022768919
2272 0.00023155365
2270 0.00023540831
2268 0.00023926281
2266 0.00024310751
2264 0.00024696178
2262 0.00025081626
2260 0.00025467077
2258 0.00025852522
2256 0.00026238943
2254 0.00026623448
2252 0.0002700887
2250 0.00027395284
2248 0.00027779801
2246 0.00028165214
2244 0.0037839036
2242 0.00015116142
2240 -0.00039646082
2238 0.013554346
2236 0.029684771
2234 0.071380138
2232 0.1138944
2230 0.13344881
2228 0.14951432
2226 0.1468415
2224 0.14512332
2222 0.15231407
2220 0.15999255
2218 0.16783209
2216 0.17510572
2214 0.18110266
2212 0.1911508
2210 0.20793219
2208 0.23731045
2206 0.28189728
2204 0.34644616
2202 0.42926127
2200 0.51464957
2198 0.60105801
2196 0.67287213
2194 0.73626578
2192 0.79103297
2190 0.84227252
2188 0.8941378
2186 0.94627625
2184 1.0055984
2182 1.0665246
2180 1.1179074
2178 1.167611
2176 1.1992285
2174 1.2300986
2172 1.2708977
2170 1.3118191
2168 1.3482085
2166 1.3719107
2164 1.3507231
2162 1.3175542
2160 1.2652749
2158 1.2283598
2156 1.22409
2154 1.2405337
2152 1.2822331
2150 1.3249574
2148 1.3658869
2146 1.4053786
2144 1.4436526
2142 1.478238
2140 1.5103455
2138 1.5225053
2136 1.5238657
2134 1.5173563
2132 1.507848
2130 1.5114597
2128 1.5193161
2126 1.5189822
2124 1.5167825
2122 1.4933811
2120 1.4671062
2118 1.4500089
2116 1.4370199
2114 1.4450569
2112 1.4581388
2110 1.4795841
2108 1.5079653
2106 1.5539043
2104 1.6099417
2102 1.6825794
2100 1.745288
2098 1.7873701
2096 1.8135571
2094 1.8232467
2092 1.8385665
2090 1.8621509
2088 1.8815514
2086 1.8960301
2084 1.8935177
2082 1.8800776
2080 1.8620697
2078 1.8425676
2076 1.8193557
2074 1.7947326
2072 1.7733279
2070 1.7530608
2068 1.7729889
2066 1.8039922
2064 1.8710206
2062 1.9436822
2060 1.9967064
2058 2.0414369
2056 2.0614114
2054 2.0746701
2052 2.08268
2050 2.0822513
2048 2.0643733
2046 2.028893
2044 1.9664041
2042 1.901484
2040 1.8393005
2038 1.8026313
2036 1.7942942
2034 1.7994713
2032 1.8129714
2030 1.818554
2028 1.8177446
2026 1.83209
2024 1.8575155
2022 1.9126657
2020 1.9830072
2018 2.0328033
2016 2.07248
2014 2.0559235
2012 2.0195882
2010 1.9644754
2008 1.9041663
2006 1.8450007
2004 1.7857101
2002 1.726295
2000 1.673504
1998 1.6545137
1996 1.65285
1994 1.6806853
1992 1.7070103
1990 1.7087617
1988 1.690328
1986 1.6407878
1984 1.5839583
1982 1.5274721
1980 1.4865385
1978 1.4655478
1976 1.48448
1974 1.5377079
1972 1.6225392
1970 1.7273651
1968 1.7862383
1966 1.8133143
1964 1.7519789
1962 1.6450301
1960 1.5444319
1958 1.4486047
1956 1.4120228
1954 1.3961376
1952 1.3850834
1950 1.3723105
1948 1.351542
1946 1.327875
1944 1.2982452
1942 1.2680351
1940 1.2238854
1938 1.1788747
1936 1.1382086
1934 1.1055347
1932 1.09289
1930 1.0837405
1928 1.0775617
1926 1.0693843
1924 1.0617601
1922 1.0770489
1920 1.1132885
1918 1.161676
1916 1.2098157
1914 1.2386699
1912 1.2534086
1910 1.248081
1908 1.2335957
1906 1.1852928
1904 1.118116
1902 1.0554857
1900 0.99407256
1898 0.99675751
1896 1.0254428
1894 1.0784675
1892 1.135344
1890 1.145136
1888 1.1260486
1886 1.0496172
1884 0.95103312
1882 0.84752518
1880 0.75473785
1878 0.69622278
1876 0.66652101
1874 0.67916125
1872 0.72498655
1870 0.80620188
1868 0.89543635
1866 0.96768528
1864 0.98821336
1862 0.94739401
1860 0.85828435
1858 0.74485606
1856 0.63705915
1854 0.54337221
1852 0.49800125
1850 0.48830873
1848 0.5226596
1846 0.58578038
1844 0.60312712
1842 0.5985353
1840 0.53093219
1838 0.4355647
1836 0.39093828
1834 0.37733608
1832 0.43816954
1830 0.53856564
1828 0.65088159
1826 0.74930781
1824 0.77028143
1822 0.72478759
1820 0.60772079
1818 0.46442944
1816 0.33782026
1814 0.24134183
1812 0.18585895
1810 0.15866908
1808 0.14579834
1806 0.1470975
1804 0.1573142
1802 0.15674879
1800 0.14965811
1798 0.15001264
1796 0.1593
1794 0.23193139
1792 0.3412084
1790 0.44050691
1788 0.52152163
1786 0.53785998
1784 0.51369458
1782 0.4994612
1780 0.49354613
1778 0.53065157
1776 0.59305227
1774 0.66802675
1772 0.73121703
1770 0.70534056
1768 0.61501324
1766 0.45551094
1764 0.27933478
1762 0.15128556
1760 0.042489484
1758 -0.05699975
1756 -0.1003795
1754 -0.068632364
1752 0.024300955
1750 0.16790271
1748 0.28097075
1746 0.33896893
1744 0.31930727
1742 0.22545308
1740 0.14987929
1738 0.10749699
1736 0.17873481
1734 0.34283775
1732 0.45336896
1730 0.50877512
1728 0.38502538
1726 0.14032762
1724 -0.030624535
1722 -0.11885805
1720 0.0035721734
1718 0.29173487
1716 0.77214569
1714 1.353317
1712 1.8295709
1710 2.2332644
1708 2.6289201
1706 3.1989951
1704 4.1342707
1702 5.7048264
1700 8.0333757
1698 11.221389
1696 15.151428
1694 19.00897
1692 22.450245
1690 25.512236
1688 28.315411
1686 31.814413
1684 36.083076
1682 41.24353
1680 47.079201
1678 52.13892
1676 56.465797
1674 60.654766
1672 64.83828
1670 69.760864
1668 75.21994
1666 80.512802
1664 85.531647
1662 89.913872
1660 93.733055
1658 97.128143
1656 100.21028
1654 103.18097
1652 105.7512
1650 107.58093
1648 107.80954
1646 105.71571
1644 102.30123
1642 98.512016
1640 94.627563
1638 90.855629
1636 86.592285
1634 81.626617
1632 76.522987
1630 71.485222
1628 66.80825
1626 62.522442
1624 58.191719
1622 53.757507
1620 49.442345
1618 45.262566
1616 41.346226
1614 37.708279
1612 34.471298
1610 31.65103
1608 29.267006
1606 27.304485
1604 25.63669
1602 24.270496
1600 23.162823
1598 22.313408
1596 21.683498
1594 21.268974
1592 21.029417
1590 20.947573
1588 20.982496
1586 21.110786
1584 21.31052
1582 21.584799
1580 21.936588
1578 22.441387
1576 23.121513
1574 23.992487
1572 25.036589
1570 26.134569
1568 27.253241
1566 28.393364
1564 29.56612
1562 31.045372
1560 32.937084
1558 35.740814
1556 39.486588
1554 43.266182
1552 46.86124
1550 49.567062
1548 51.463245
1546 53.245716
1544 54.953247
1542 56.684731
1540 58.145382
1538 58.811623
1536 58.563572
1534 57.406677
1532 55.729984
1530 54.06424
1528 52.466347
1526 50.977501
1524 49.457588
1522 47.80167
1520 45.86124
1518 43.512836
1516 41.120445
1514 38.804146
1512 36.661037
1510 34.77494
1508 32.489262
1506 29.652086
1504 26.590143
1502 23.296871
1500 20.436907
1498 18.074511
1496 15.833
1494 13.721593
1492 11.618129
1490 9.5287943
1488 7.4362278
1486 5.411119
1484 3.5851619
1482 2.0499647
1480 0.92970139
1478 0.25443187
1476 0.055636868
1474 0.44171974
1472 1.3381808
1470 2.4149611
1468 3.4513154
1466 4.3075366
1464 4.9056883
1462 5.4577136
1460 6.0602555
1458 6.7305098
1456 7.4826002
1454 8.0557642
1452 8.3061771
1450 8.3318577
1448 8.0361176
1446 7.7034216
1444 7.3299446
1442 6.986145
1440 6.6837115
1438 6.3721504
1436 6.032443
1434 5.5634556
1432 4.9705114
1430 4.3439717
1428 3.735492
1426 3.2974222
1424 3.0448422
1422 2.9734719
1420 3.0509593
1418 3.1975634
1416 3.3678257
1414 3.50261
1412 3.6087432
1410 3.7202997
1408 3.8650036
1406 4.0836787
1404 4.3661394
1402 4.7218637
1400 5.109736
1398 5.5282364
1396 5.9293928
1394 6.282186
1392 6.5732722
1390 6.7291474
1388 6.7822142
1386 6.6622353
1384 6.4264007
1382 6.0343084
1380 5.5897517
1378 5.092495
1376 4.5926256
1374 4.1110287
1372 3.6540899
1370 3.2323163
1368 2.8605778
1366 2.5014179
1364 2.1106477
1362 1.6859885
1360 1.2082754
1358 0.74968302
1356 0.39487702
1354 0.13672712
1352 0.037339248
1350 0.024178419
1348 0.094773412
1346 0.18030894
1344 0.31656402
1342 0.47936851
1340 0.69263256
1338 0.90776694
1336 1.1130401
1334 1.2951272
1332 1.4050654
1330 1.5078651
1328 1.6024742
1326 1.7312343
1324 1.9296125
1322 2.1785021
1320 2.5007241
1318 2.843883
1316 3.20188
1314 3.5267663
1312 3.7992828
1310 4.0113649
1308 4.1570296
1306 4.2517872
1304 4.302855
1302 4.311605
1300 4.2926369
1298 4.2372375
1296 4.1704712
1294 4.0955787
1292 4.030303
1290 3.9913313
1288 3.9693642
1286 3.9796
1284 3.9959357
1282 4.018569
1280 4.041471
1278 4.0640483
1276 4.0938101
1274 4.1429324
1272 4.2010655
1270 4.2799883
1268 4.3716593
1266 4.482976
1264 4.6189785
1262 4.7829728
1260 4.9658041
1258 5.1657624
1256 5.364994
1254 5.5602908
1252 5.7439814
1250 5.915956
1248 6.0735178
1246 6.2181001
1244 6.3371167
1242 6.4332008
1240 6.480854
1238 6.4951649
1236 6.4447999
1234 6.3591957
1232 6.1999717
1230 6.0052409
1228 5.7197933
1226 5.395503
1224 4.9661951
1222 4.5060873
1220 3.9747972
1218 3.4503789
1216 2.9442399
1214 2.4752715
1212 2.071342
1210 1.6975194
1208 1.3681469
1206 1.0653362
1204 0.79580176
1202 0.55170178
1200 0.33313268
1198 0.12755865
1196 -0.0616135
1194 -0.22202891
1192 -0.35412595
1190 -0.4357298
1188 -0.48723274
1186 -0.50645798
1184 -0.50759441
1182 -0.47804755
1180 -0.41646048
1178 -0.25093323
1176 -0.037602007
1174 0.31293443
1172 0.67407358
1170 1.0417809
1168 1.3745475
1166 1.5965478
1164 1.7809708
1162 1.870524
1160 1.9239395
1158 1.9017119
1156 1.8355215
1154 1.6955744
1152 1.5210555
1150 1.3005276
1148 1.0629333
1146 0.80995321
1144 0.56816369
1142 0.34439316
1140 0.17089921
1138 0.043843724
1136 -0.011056826
1134 -0.014228851
1132 0.052679189
1130 0.15896434
1128 0.332434
1126 0.52544677
1124 0.72629809
1122 0.91540116
1120 1.03468
1118 1.1434909
1116 1.2315315
1114 1.3341707
1112 1.4998354
1110 1.6704466
1108 1.8542215
1106 2.0176852
1104 2.1289263
1102 2.218869
1100 2.2672949
1098 2.3086729
1096 2.3383143
1094 2.3580749
1092 2.3628778
1090 2.3474362
1088 2.3131542
1086 2.2843885
1084 2.264683
1082 2.2780375
1080 2.3128355
1078 2.3578739
1076 2.4015472
1074 2.4021327
1072 2.3786104
1070 2.2859275
1068 2.1768837
1066 2.0620387
1064 1.956448
1062 1.9250104
1060 1.9028697
1058 1.9158919
1056 1.9226571
1054 1.9013513
1052 1.8693683
1050 1.802999
1048 1.7188766
1046 1.592175
1044 1.4602462
1042 1.320636
1040 1.2074931
1038 1.1329999
1036 1.0716701
1034 1.0246061
1032 0.96925128
1030 0.90636873
1028 0.83426213
1026 0.75440609
1024 0.65683794
1022 0.55028963
1020 0.44903767
1018 0.35128227
1016 0.27308029
1014 0.20057184
1012 0.1326721
1010 0.064832136
1008 -0.012731008
1006 -0.096082404
1004 -0.23913434
1002 -0.38732022
1000 -0.56668741
998 -0.72851688
996 -0.81203002
994 -0.86694586
992 -0.83370626
990 -0.78983963
988 -0.72222304
986 -0.657866
984 -0.59911954
982 -0.5535115
980 -0.5256632
978 -0.51288921
976 -0.51626658
974 -0.52521104
972 -0.53939545
970 -0.56657678
968 -0.6008842
966 -0.63135153
964 -0.65748435
962 -0.63481808
960 -0.59531903
958 -0.52334559
956 -0.44551
954 -0.38408834
952 -0.32429799
950 -0.25352201
948 -0.17892666
946 -0.057465643
944 0.00094717741
942 0.029485058
940 0.086223528
938 0.15050119
936 0.22098827
934 0.30990782
932 0.39340299
930 0.46558589
928 0.54718417
926 0.64433318
924 0.76100779
922 0.90084279
920 0.99488115
918 1.0450213
916 1.0201838
914 0.94270378
912 0.90676123
910 0.89524412
908 1.0309654
906 1.2254364
904 1.4822726
902 1.7567053
900 1.9442983
898 2.1181986
896 2.1171999
