##TITLE=Methyl Ethyl Ketone
##JCAMP-DX=4.24
##DATA TYPE=INFRARED SPECTRUM
##XUNITS=cm-1
##YUNITS=Absorbance
##FIRSTX=900
##LASTX=2300
##XYDATA=(X++(Y..Y))
2296 0.0031240999
2294 0.0031891072
2292 0.003254114
2290 0.003319121
2288 0.003384128
2286 0.0034490358
2284 0.0035140419
2282 0.0035790489
2280 0.0036440562
2278 0.0037090629
2276 0.0037740702
2274 0.003839077
2272 0.0039039857
2270 0.0039689913
2268 0.0040339981
2266 0.0040990049
2264 0.0041640121
2262 0.0042289216
2260 0.0042939261
2258 0.0043589328
2256 0.0044239401
2254 0.0044889469
2252 0.0045539541
2250 0.0046189614
2248 0.0046838713
2246 0.0047489712
2244 0.00017647685
2242 0.007473473
2240 0.0089585157
2238 0.0083154282
2236 0.00740579
2234 -0.0052576298
2232 -0.018815542
2230 -0.033388734
2228 -0.04725153
2226 -0.055036649
2224 -0.062507257
2222 -0.069918856
2220 -0.074143976
2218 -0.068647295
2216 -0.052941427
2214 -0.016123684
2212 0.02025638
2210 0.053888466
2208 0.073360056
2206 0.075386047
2204 0.077731192
2202 0.081448048
2200 0.090711847
2198 0.10405555
2196 0.10401643
2194 0.096107498
2192 0.085293412
2190 0.073440872
2188 0.085552976
2186 0.10547408
2184 0.14037479
2182 0.17860745
2180 0.21412432
2178 0.24899928
2176 0.26692516
2174 0.28086352
2172 0.2671946
2170 0.25044382
2168 0.23101297
2166 0.21540329
2164 0.21467835
2162 0.21578993
2160 0.21781406
2158 0.21952538
2156 0.22047299
2154 0.22715551
2152 0.24225429
2150 0.2617695
2148 0.28528604
2146 0.301945
2144 0.31217098
2142 0.31263149
2140 0.30675763
2138 0.3002547
2136 0.29374516
2134 0.29331833
2132 0.29543471
2130 0.30057549
2128 0.30658919
2126 0.3075133
2124 0.30725053
2122 0.30129895
2120 0.29447988
2118 0.28783295
2116 0.28104684
2114 0.2729142
2112 0.26316166
2110 0.2470392
2108 0.22938626
2106 0.20995629
2104 0.19340526
2102 0.18383479
2100 0.18059461
2098 0.18627
2096 0.19792286
2094 0.21572752
2092 0.23408906
2090 0.25210291
2088 0.26385176
2086 0.27043799
2084 0.26813784
2082 0.26042011
2080 0.24651195
2078 0.22973895
2076 0.21263185
2074 0.19553474
2072 0.18266439
2070 0.17118706
2068 0.16729063
2066 0.16518514
2064 0.1584844
2062 0.14998248
2060 0.13166031
2058 0.11247
2056 0.099188596
2054 0.088317297
2052 0.082101241
2050 0.074304931
2048 0.060286488
2046 0.04343982
2044 0.023576319
2042 0.0037431642
2040 -0.015356784
2038 -0.037114233
2036 -0.062470987
2034 -0.084546201
2032 -0.10275132
2030 -0.1040188
2028 -0.092359886
2026 -0.071673356
2024 -0.046482913
2022 -0.028032515
2020 -0.013383485
2018 -0.020963294
2016 -0.0377868
2014 -0.083495408
2012 -0.13877717
2010 -0.19422257
2008 -0.24873325
2006 -0.28869277
2004 -0.32426614
2002 -0.35457
2000 -0.38116285
1998 -0.39681414
1996 -0.40557072
1994 -0.40138277
1992 -0.39570916
1990 -0.39458001
1988 -0.40327701
1986 -0.42805165
1984 -0.46372938
1982 -0.50924242
1980 -0.556826
1978 -0.60384792
1976 -0.63902599
1974 -0.6631453
1972 -0.65977949
1970 -0.6369437
1968 -0.60858959
1966 -0.57903194
1964 -0.58926582
1962 -0.62082314
1960 -0.66205961
1958 -0.70641333
1956 -0.72615188
1954 -0.7369777
1952 -0.74705511
1950 -0.75778896
1948 -0.77314901
1946 -0.79215753
1944 -0.82323259
1942 -0.86073762
1940 -0.91027367
1938 -0.95883143
1936 -0.99577284
1934 -1.0217494
1932 -1.0320179
1930 -1.0339432
1928 -1.02894
1926 -1.0154021
1924 -0.99270332
1922 -0.96429545
1920 -0.93279147
1918 -0.91591752
1916 -0.91380531
1914 -0.91953814
1912 -0.92869377
1910 -0.93619198
1908 -0.94193792
1906 -0.9672904
1904 -1.003716
1902 -1.0365757
1900 -1.0674597
1898 -1.0525099
1896 -1.0181714
1894 -0.96528602
1892 -0.91017336
1890 -0.88978189
1888 -0.89173758
1886 -0.93398708
1884 -0.99229604
1882 -1.0540404
1880 -1.1078428
1878 -1.1396747
1876 -1.1471801
1874 -1.1224309
1872 -1.0723114
1870 -0.99917412
1868 -0.94384372
1866 -0.92147768
1864 -0.94617748
1862 -1.0121804
1860 -1.0807195
1858 -1.1413728
1856 -1.1891485
1854 -1.2275764
1852 -1.2492063
1850 -1.2600329
1848 -1.237264
1846 -1.1950035
1844 -1.1573385
1842 -1.1234959
1840 -1.1246697
1838 -1.1415349
1836 -1.1469001
1834 -1.138793
1832 -1.08332
1830 -1.0018667
1828 -0.90473241
1826 -0.82220787
1824 -0.80077446
1822 -0.82707924
1820 -0.90108138
1818 -0.98358369
1816 -1.0466685
1814 -1.0810125
1812 -1.0832423
1810 -1.0650537
1808 -1.0354377
1806 -0.98946953
1804 -0.9301154
1802 -0.86544389
1800 -0.79842186
1798 -0.74049056
1796 -0.6900357
1794 -0.63057888
1792 -0.56478721
1790 -0.51119173
1788 -0.46709666
1786 -0.44629994
1784 -0.43790761
1782 -0.41382447
1780 -0.37537625
1778 -0.2964226
1776 -0.18625885
1774 -0.034640178
1772 0.12383571
1770 0.23316169
1768 0.28221008
1766 0.23992987
1764 0.16469079
1762 0.10936859
1760 0.035061292
1758 -0.083078325
1756 -0.18517858
1754 -0.24042305
1752 -0.22138846
1750 -0.13051084
1748 -0.020307191
1746 0.086192146
1744 0.099737488
1742 0.023859009
1740 -0.074050158
1738 -0.17429002
1736 -0.182016
1734 -0.11711287
1732 -0.049266189
1730 0.010978647
1728 -0.030429658
1726 -0.13507348
1724 -0.19359894
1722 -0.1843999
1720 0.047616586
1718 0.49977809
1716 1.2053813
1714 2.0201161
1712 2.7473011
1710 3.4128823
1708 4.0486178
1706 4.8351269
1704 5.9397058
1702 7.6131048
1700 9.976347
1698 13.193929
1696 17.219856
1694 21.314091
1692 25.136301
1690 28.585573
1688 31.712692
1686 35.42762
1684 39.816113
1682 45.053341
1680 50.955959
1678 56.084904
1676 60.487488
1674 64.677757
1672 68.794479
1670 73.642189
1668 79.028442
1666 84.333153
1664 89.434372
1662 93.913322
1660 97.755493
1658 100.87868
1656 103.24
1654 104.78474
1652 105.3988
1650 105.0099
1648 103.462
1646 100.70982
1644 97.307152
1642 93.765053
1640 90.084419
1638 86.289856
1636 81.918198
1634 76.843628
1632 71.668015
1630 66.609596
1628 61.955872
1626 57.717426
1624 53.528839
1622 49.326851
1620 45.285175
1618 41.411827
1616 37.830456
1614 34.560551
1612 31.72933
1610 29.344349
1608 27.359669
1606 25.750914
1604 24.377626
1602 23.252493
1600 22.358887
1598 21.706188
1596 21.271
1594 21.038231
1592 20.957499
1590 21.001623
1588 21.126568
1586 21.336157
1584 21.624748
1582 22.018791
1580 22.526249
1578 23.199612
1576 24.051628
1574 25.045776
1572 26.160975
1570 27.316641
1568 28.49292
1566 29.717136
1564 30.998991
1562 32.50745
1560 34.334255
1558 37.030045
1556 40.641254
1554 44.516338
1552 48.432838
1550 51.452274
1548 53.61351
1546 55.452538
1544 56.948521
1542 58.172424
1540 58.902199
1538 58.871338
1536 58.142315
1534 56.918251
1532 55.415302
1530 53.896942
1528 52.323009
1526 50.663601
1524 48.817917
1522 46.720016
1520 44.369286
1518 41.745983
1516 39.203972
1514 36.867859
1512 34.688198
1510 32.682926
1508 30.248199
1506 27.237709
1504 24.185411
1502 21.148743
1500 18.612751
1498 16.636761
1496 14.708429
1494 12.815449
1492 10.869317
1490 8.8763103
1488 6.8815861
1486 4.9518294
1484 3.21016
1482 1.7653799
1480 0.73252934
1478 0.1470757
1476 0.034339495
1474 0.45444623
1472 1.3511422
1470 2.407722
1468 3.417017
1466 4.2591081
1464 4.8381085
1462 5.3370023
1460 5.8216648
1458 6.3130589
1456 6.81812
1454 7.1874924
1452 7.3370733
1450 7.3399925
1448 7.1378279
1446 6.9034319
1444 6.6285095
1442 6.3639269
1440 6.1076403
1438 5.8270378
1436 5.4925327
1434 5.0420384
1432 4.4709549
1430 3.8583622
1428 3.255048
1426 2.7814722
1424 2.4665856
1422 2.3262386
1420 2.3368647
1418 2.4527383
1416 2.6203315
1414 2.783926
1412 2.9508324
1410 3.1328824
1408 3.3518178
1406 3.636332
1404 3.9641802
1402 4.3439317
1400 4.7430239
1398 5.1623678
1396 5.564714
1394 5.9274631
1392 6.2107997
1390 6.3486376
1388 6.3664799
1386 6.1930652
1384 5.9088798
1382 5.4784517
1380 5.0158072
1378 4.5251808
1376 4.0597401
1374 3.6304827
1372 3.235446
1370 2.8766747
1368 2.5434246
1366 2.2125115
1364 1.84286
1362 1.4371072
1360 0.99401867
1358 0.5767464
1356 0.26591095
1354 0.058591209
1352 0.0064477897
1350 0.039595284
1348 0.17003782
1346 0.3394075
1344 0.55555159
1342 0.78910333
1340 1.0499295
1338 1.3055397
1336 1.5452657
1334 1.7577325
1332 1.9177057
1330 2.0708611
1328 2.2188787
1326 2.3963799
1324 2.6251068
1322 2.9024401
1320 3.2434165
1318 3.6149538
1316 4.0047598
1314 4.3540783
1312 4.6434593
1310 4.8461127
1308 4.9730558
1306 5.0477471
1304 5.0880437
1302 5.11025
1300 5.1160231
1298 5.0959315
1296 5.0592427
1294 4.998951
1292 4.9352832
1290 4.8766336
1288 4.8251882
1286 4.7903676
1284 4.7609897
1282 4.7424645
1280 4.7273607
1278 4.7202268
1276 4.7193942
1274 4.7325602
1272 4.7574902
1270 4.8037586
1268 4.8626084
1266 4.9396505
1264 5.0248823
1262 5.1197987
1260 5.2194662
1258 5.3243222
1256 5.432694
1254 5.5438886
1252 5.6556306
1250 5.7644844
1248 5.8621821
1246 5.9446249
1244 5.9928246
1242 6.0127282
1240 5.9806743
1238 5.9175806
1236 5.7997661
1234 5.6515656
1232 5.4379802
1230 5.193747
1228 4.8713408
1226 4.5235438
1224 4.1082191
1222 3.6748369
1220 3.1995327
1218 2.725003
1216 2.2560086
1214 1.8137747
1212 1.4205471
1210 1.0632055
1208 0.75921178
1206 0.48683834
1204 0.25364578
1202 0.044895336
1200 -0.13659166
1198 -0.29267368
1196 -0.42215073
1194 -0.51532048
1192 -0.58021331
1190 -0.61271095
1188 -0.62465715
1186 -0.61044127
1184 -0.57529747
1182 -0.4894487
1180 -0.369654
1178 -0.15819642
1176 0.086590797
1174 0.4157286
1172 0.74403346
1170 1.0477432
1168 1.3114994
1166 1.4503814
1164 1.5454857
1162 1.532042
1160 1.4918891
1158 1.3979746
1156 1.2889928
1154 1.1558529
1152 1.0176351
1150 0.87253493
1148 0.72406763
1146 0.57131034
1144 0.41409633
1142 0.25809702
1140 0.12906626
1138 0.029493622
1136 -0.0085961316
1134 -0.0041292459
1132 0.091499746
1130 0.23102295
1128 0.41803932
1126 0.61532831
1124 0.79870808
1122 0.96626002
1120 1.06318
1118 1.1387242
1116 1.1353357
1114 1.126994
1112 1.1045085
1110 1.0981716
1108 1.1440891
1106 1.20634
1104 1.305804
1102 1.3882425
1100 1.434268
1098 1.450358
1096 1.4214429
1094 1.3958169
1092 1.377646
1090 1.3855451
1088 1.41956
1086 1.4626129
1084 1.5099212
1082 1.5372992
1080 1.5460583
1078 1.5052099
1076 1.4345728
1074 1.3090422
1072 1.1659868
1070 1.0253627
1068 0.89131629
1066 0.80119956
1064 0.71944404
1062 0.65763557
1060 0.5978902
1058 0.54524833
1056 0.49474686
1054 0.45344955
1052 0.41066161
1050 0.36285141
1048 0.31028792
1046 0.24645214
1044 0.18273917
1042 0.1193005
1040 0.057293959
1038 -0.0038552806
1036 -0.076442003
1034 -0.16264123
1032 -0.25691319
1030 -0.35622755
1028 -0.43552172
1026 -0.49877557
1024 -0.53812677
1022 -0.56632191
1020 -0.60767037
1018 -0.65745711
1016 -0.74300683
1014 -0.83826542
1012 -0.93478388
1010 -1.028388
1008 -1.0868399
1006 -1.1398565
1004 -1.1646128
1002 -1.1867467
1000 -1.1922742
998 -1.1909342
996 -1.1591214
994 -1.1145409
992 -1.0308927
990 -0.94615245
988 -0.86039734
986 -0.79654634
984 -0.7717647
982 -0.76933396
980 -0.79633981
978 -0.81991786
976 -0.83832604
974 -0.82781363
972 -0.79352599
970 -0.74419314
968 -0.68639857
966 -0.64203048
964 -0.60388285
962 -0.56946439
960 -0.53545517
958 -0.48362505
956 -0.42741713
954 -0.35714507
952 -0.28511721
950 -0.21112794
948 -0.13583294
946 -0.044564467
944 0.0017373934
942 0.054384753
940 0.16895317
938 0.33888501
936 0.51463801
934 0.70699024
932 0.8803103
930 1.0125666
928 1.1213366
926 1.1926029
924 1.253054
922 1.3005095
920 1.3385006
918 1.3675661
916 1.39077
914 1.4094411
912 1.4125429
910 1.407333
908 1.3806026
906 1.3461649
904 1.3413178
902 1.344716
900 1.4183434
898 1.5034969
896 1.6411999
