##TITLE=Methyl Ethyl Ketone
##JCAMP-DX=4.24
##DATA TYPE=INFRARED SPECTRUM
##XUNITS=cm-1
##YUNITS=Absorbance
##FIRSTX=900
##LASTX=2300
##XYDATA=(X++(Y..Y))
2296 -0.052319001
2294 -0.053430408
2292 -0.054541819
2290 -0.055654224
2288 -0.056765642
2286 -0.057877049
2284 -0.058988459
2282 -0.06009987
2280 -0.061211281
2278 -0.062322691
2276 -0.063435085
2274 -0.064548478
2272 -0.065657958
2270 -0.066763446
2268 -0.067880616
2266 -0.069014661
2264 -0.070105061
2262 -0.071133032
2260 -0.072325192
2258 -0.07374718
2256 -0.074559256
2254 -0.074515074
2252 -0.076736838
2250 -0.082153432
2248 -0.079148144
2246 -0.054431252
2244 -0.0019878857
2242 0.077514216
2240 0.16478336
2238 0.23728797
2236 0.28055614
2234 0.28362152
2232 0.24014549
2230 0.15402752
2228 0.065086298
2226 0.01629705
2224 0.021242028
2222 0.075746328
2220 0.13907798
2218 0.17152013
2216 0.18073514
2214 0.19163986
2212 0.2413674
2210 0.35615247
2208 0.50404078
2206 0.63571173
2204 0.70319426
2202 0.67433619
2200 0.57839799
2198 0.46169561
2196 0.36279213
2194 0.30780327
2192 0.28344211
2190 0.26517135
2188 0.23297735
2186 0.17271857
2184 0.087544717
2182 -0.0080338893
2180 -0.075678371
2178 -0.074163608
2176 0.018515971
2174 0.20566791
2172 0.4404594
2170 0.66388571
2168 0.83402234
2166 0.92750716
2164 0.97232914
2162 1.010559
2160 1.0719829
2158 1.1714978
2156 1.2809701
2154 1.3628074
2152 1.3997778
2150 1.3883207
2148 1.3485929
2146 1.3068678
2144 1.2791337
2142 1.2781689
2140 1.3183857
2138 1.4084769
2136 1.5310771
2134 1.6567432
2132 1.7432529
2130 1.755885
2128 1.707724
2126 1.6318686
2124 1.5723028
2122 1.5632858
2120 1.5852069
2118 1.6026275
2116 1.5957243
2114 1.5589039
2112 1.5182492
2110 1.5045754
2108 1.5198351
2106 1.5537735
2104 1.5926104
2102 1.6243597
2100 1.649326
2098 1.6724471
2096 1.6991857
2094 1.7362161
2092 1.7951075
2090 1.8853067
2088 1.9990023
2086 2.118145
2084 2.2093318
2082 2.2395122
2080 2.2004836
2078 2.1017015
2076 1.9838414
2074 1.8944882
2072 1.859612
2070 1.8882881
2068 1.9571346
2066 2.0337336
2064 2.1009622
2062 2.1507778
2060 2.183543
2058 2.2021291
2056 2.2047343
2054 2.1903906
2052 2.1680784
2050 2.1479263
2048 2.1270554
2046 2.0961106
2044 2.04387
2042 1.9644489
2040 1.8776817
2038 1.81186
2036 1.7837442
2034 1.7998149
2032 1.8463508
2030 1.903404
2028 1.960346
2026 2.0114765
2024 2.0521202
2022 2.0761683
2020 2.0713687
2018 2.029449
2016 1.97016
2014 1.9275341
2012 1.942778
2010 2.0467911
2008 2.2178309
2006 2.409097
2004 2.5698929
2002 2.6587379
2000 2.6740577
1998 2.6365533
1996 2.5830286
1994 2.5513577
1992 2.5559206
1990 2.5954273
1988 2.652344
1986 2.7033384
1984 2.7311971
1982 2.7264035
1980 2.6961904
1978 2.6579039
1976 2.6383543
1974 2.6619189
1972 2.725852
1970 2.8105922
1968 2.8841875
1966 2.91645
1964 2.9084315
1962 2.8788161
1960 2.853472
1958 2.8558133
1956 2.8866172
1954 2.9339392
1952 2.9812989
1950 3.0127261
1948 3.0206525
1946 3.0049
1944 2.9781656
1942 2.9582238
1940 2.9591947
1938 2.9871988
1936 3.025023
1934 3.0459731
1932 3.03426
1930 2.9866276
1928 2.923933
1926 2.8762207
1924 2.8601334
1922 2.8815317
1920 2.9349098
1918 3.010165
1916 3.1000943
1914 3.1950877
1912 3.267065
1910 3.2826617
1908 3.2308939
1906 3.1225643
1904 3.0050681
1902 2.9373465
1900 2.9437952
1898 3.0200076
1896 3.1281002
1894 3.2176712
1892 3.2581298
1890 3.238575
1888 3.1784544
1886 3.1111042
1884 3.0594194
1882 3.0350132
1880 3.0324383
1878 3.0386307
1876 3.0469201
1874 3.0545297
1872 3.0560029
1870 3.0431075
1868 3.0052462
1866 2.9334929
1864 2.8329799
1862 2.7169759
1860 2.5974779
1858 2.483927
1856 2.3825486
1854 2.2979414
1852 2.2366719
1850 2.2044678
1848 2.1979799
1846 2.207257
1844 2.2179327
1842 2.2162025
1840 2.2007515
1838 2.1799335
1836 2.1703486
1834 2.18786
1832 2.2258484
1830 2.2603145
1828 2.2552884
1826 2.1794114
1824 2.0479903
1822 1.906563
1820 1.79835
1818 1.7534652
1816 1.7645057
1814 1.8010466
1812 1.8351903
1810 1.848442
1808 1.843516
1806 1.8336
1804 1.8170637
1802 1.781914
1800 1.7214645
1798 1.6378123
1796 1.5507857
1794 1.4855421
1792 1.4391841
1790 1.389681
1788 1.3208852
1786 1.2264314
1784 1.1162183
1782 1.0112194
1780 0.93509305
1778 0.9064374
1776 0.91780227
1774 0.9398858
1772 0.92718893
1770 0.8361513
1768 0.67357141
1766 0.48237285
1764 0.301884
1762 0.15711977
1760 0.041390687
1758 -0.067808613
1756 -0.16535428
1754 -0.22776179
1752 -0.25277001
1750 -0.2603116
1748 -0.28694406
1746 -0.36980072
1744 -0.50399381
1742 -0.65126675
1740 -0.76900661
1738 -0.82375008
1736 -0.81830597
1734 -0.782004
1732 -0.74180305
1730 -0.71345532
1728 -0.68691057
1726 -0.63327032
1724 -0.52342856
1722 -0.33692491
1720 -0.081483483
1718 0.21826789
1716 0.55859941
1714 0.94386852
1712 1.324976
1710 1.6334554
1708 1.9193361
1706 2.3379886
1704 3.0703092
1702 4.3023267
1700 6.2217259
1698 8.9406214
1696 12.211715
1694 15.52965
1692 18.533487
1690 21.09586
1688 23.426235
1686 25.959343
1684 29.02038
1682 32.711678
1680 36.691082
1678 40.36446
1676 43.596115
1674 46.695938
1672 50.003601
1670 53.741737
1668 57.799465
1666 61.8218
1664 65.604065
1662 69.120384
1660 72.371811
1658 75.355927
1656 78.094604
1654 80.641037
1652 83.080101
1650 85.482491
1648 87.739021
1646 89.599464
1644 90.91507
1642 91.661835
1640 91.854584
1638 91.515419
1636 90.637428
1634 89.203331
1632 87.279228
1630 84.990791
1628 82.375885
1626 79.379951
1624 75.955681
1622 72.105713
1620 67.940109
1618 63.660072
1616 59.455944
1614 55.478115
1612 51.833366
1610 48.57687
1608 45.685059
1606 43.074665
1604 40.686928
1602 38.504566
1600 36.53619
1598 34.803196
1596 33.301003
1594 31.995741
1592 30.847092
1590 29.819183
1588 28.906363
1586 28.132479
1584 27.521
1582 27.09034
1580 26.859905
1578 26.849125
1576 27.073999
1574 27.539728
1572 28.213385
1570 29.023991
1568 29.90156
1566 30.790579
1564 31.65848
1562 32.526009
1560 33.571949
1558 35.081856
1556 37.098701
1554 39.36705
1552 41.547546
1550 43.33205
1548 44.686802
1546 45.855392
1544 47.024189
1542 48.227482
1540 49.37114
1538 50.260792
1536 50.732456
1534 50.709831
1532 50.284332
1530 49.696022
1528 49.093243
1526 48.482651
1524 47.834076
1522 47.10878
1520 46.272289
1518 45.299393
1516 44.184559
1514 42.930809
1512 41.462399
1510 39.618614
1508 37.269886
1506 34.383686
1504 31.153423
1502 27.982666
1500 25.125242
1498 22.587891
1496 20.27
1494 18.018522
1492 15.740581
1490 13.43196
1488 11.114367
1486 8.827569
1484 6.6592979
1482 4.7349
1480 3.1117473
1478 1.7697113
1476 0.77173817
1474 0.27634591
1472 0.29900569
1470 0.65287185
1468 1.1448243
1466 1.6421993
1464 2.0917513
1462 2.5237367
1460 2.970156
1458 3.4388492
1456 3.9177201
1454 4.374166
1452 4.7662783
1450 5.0481844
1448 5.1860304
1446 5.1675572
1444 5.0076017
1442 4.7488861
1440 4.4265904
1438 4.0543847
1436 3.6235971
1434 3.1087894
1432 2.519696
1430 1.9177983
1428 1.368016
1426 0.92056453
1424 0.60094321
1422 0.4039529
1420 0.31471583
1418 0.31480709
1416 0.38980171
1414 0.53305137
1412 0.74554276
1410 1.0356477
1408 1.4076068
1406 1.85664
1404 2.3715253
1402 2.9328959
1400 3.511548
1398 4.0664177
1396 4.5542145
1394 4.9354229
1392 5.1889372
1390 5.3207126
1388 5.3491058
1386 5.3011599
1384 5.1987796
1382 5.0522399
1380 4.8617983
1378 4.6183424
1376 4.3200884
1374 3.9805613
1372 3.623908
1370 3.2801611
1368 2.9530709
1366 2.6054592
1364 2.1994312
1362 1.7173541
1360 1.1876779
1358 0.69892907
1356 0.32717544
1354 0.10256183
1352 0.014225407
1350 0.0058186585
1348 0.029268185
1346 0.067226857
1344 0.11700036
1342 0.18638617
1340 0.27385101
1338 0.35902774
1336 0.41750714
1334 0.42755076
1332 0.38197133
1330 0.29728848
1328 0.20014264
1326 0.12436146
1324 0.1012367
1322 0.15248665
1320 0.2817229
1318 0.46498892
1316 0.66710001
1314 0.84669942
1312 0.9747259
1310 1.0466135
1308 1.0707883
1306 1.0675735
1304 1.0560943
1302 1.047865
1300 1.0495126
1298 1.0619429
1296 1.0846572
1294 1.1169156
1292 1.1594106
1290 1.2153934
1288 1.2903
1286 1.3911921
1284 1.5221257
1282 1.6802224
1280 1.8573686
1278 2.0398233
1276 2.2152843
1274 2.3766379
1272 2.5240252
1270 2.6686051
1268 2.826755
1266 3.0195215
1264 3.262152
1262 3.5575216
1260 3.9040282
1258 4.298305
1256 4.7414427
1254 5.2428961
1252 5.8079925
1250 6.4302354
1248 7.0964346
1246 7.7864752
1244 8.4805908
1242 9.1627989
1240 9.8165321
1238 10.4228
1236 10.961114
1234 11.408121
1232 11.741401
1230 11.939801
1228 11.986163
1226 11.8792
1224 11.624595
1222 11.243023
1220 10.756251
1218 10.192505
1216 9.5809975
1214 8.9509039
1212 8.3343124
1210 7.7661414
1208 7.2703209
1206 6.8448572
1204 6.467072
1202 6.085434
1200 5.6546202
1198 5.1572747
1196 4.5975218
1194 4.0095105
1192 3.4286675
1190 2.8772941
1188 2.3685286
1186 1.9030521
1184 1.4815114
1182 1.1113464
1180 0.80539912
1178 0.58425659
1176 0.464838
1174 0.45051387
1172 0.52770853
1170 0.65275276
1168 0.77668983
1166 0.85664278
1164 0.86709565
1162 0.81851476
1160 0.73290783
1158 0.63811678
1156 0.55611801
1154 0.49196124
1152 0.44371018
1150 0.40263814
1148 0.3592338
1146 0.30635357
1144 0.24138474
1142 0.1703795
1140 0.096177906
1138 0.011476979
1136 -0.074006826
1134 -0.10618376
1132 -0.032664508
1130 0.16746339
1128 0.48824802
1126 0.87757146
1124 1.274708
1122 1.6270753
1120 1.9054919
1118 2.132334
1116 2.3360329
1114 2.5293856
1112 2.7180035
1110 2.8997781
1108 3.0814884
1106 3.2951801
1104 3.5653434
1102 3.8818083
1100 4.2235403
1098 4.5645947
1096 4.8902574
1094 5.2167969
1092 5.5609579
1090 5.9215851
1088 6.2907314
1086 6.6553073
1084 7.0069299
1082 7.3529615
1080 7.6972084
1078 8.0238543
1076 8.3114529
1074 8.5365257
1072 8.6855278
1070 8.7712936
1068 8.8125677
1066 8.8257904
1064 8.8235235
1062 8.8103523
1060 8.7909784
1058 8.775609
1056 8.7663202
1054 8.7394819
1052 8.6625509
1050 8.4972744
1048 8.2215223
1046 7.8627858
1044 7.4647398
1042 7.0809622
1040 6.755106
1038 6.4938679
1036 6.2841597
1034 6.0827017
1032 5.8447208
1030 5.5440879
1028 5.1762648
1026 4.7861986
1024 4.4212208
1022 4.098947
1020 3.8185885
1018 3.5458975
1016 3.2510772
1014 2.9405584
1012 2.6255531
1010 2.3033214
1008 1.967024
1006 1.6085349
1004 1.2298597
1002 0.86527878
1000 0.54802859
998 0.28308842
996 0.067816071
994 -0.10303101
992 -0.23770542
990 -0.35221478
988 -0.46559727
986 -0.59996259
984 -0.76700443
982 -0.94213867
980 -1.092044
978 -1.1844141
976 -1.1931914
974 -1.1129729
972 -0.94491976
970 -0.69552374
968 -0.37946656
966 -0.035204262
964 0.28940758
962 0.53500438
960 0.65390301
958 0.64845163
956 0.54044473
954 0.37595028
952 0.20501776
950 0.070201822
948 0.00073223468
946 -0.014642986
944 0.0056232065
942 0.052830964
940 0.1087788
938 0.11326782
936 0.027519196
934 -0.071862802
932 -0.091284715
930 0.019161612
928 0.26537076
926 0.53101778
924 0.69417262
922 0.72597474
920 0.6366111
918 0.49602935
916 0.37584686
914 0.29730758
912 0.27072152
910 0.31272969
908 0.43510351
906 0.62456739
904 0.85914046
902 1.1072922
900 1.3383603
898 1.5341083
896 1.6797
