##TITLE=Methyl Ethyl Ketone
##JCAMP-DX=4.24
##DATA TYPE=INFRARED SPECTRUM
##XUNITS=cm-1
##YUNITS=Absorbance
##FIRSTX=900
##LASTX=2300
##XYDATA=(X++(Y..Y))
2296 -0.01495
2294 -0.015267545
2292 -0.015585091
2290 -0.015902637
2288 -0.016220182
2286 -0.016538722
2284 -0.016856275
2282 -0.017173821
2280 -0.017491367
2278 -0.017808912
2276 -0.018126458
2274 -0.018444002
2272 -0.018761547
2270 -0.019079093
2268 -0.01939664
2266 -0.019714186
2264 -0.020032708
2262 -0.020350277
2260 -0.020667823
2258 -0.020985369
2256 -0.021302914
2254 -0.02162046
2252 -0.021938005
2250 -0.022255551
2248 -0.022573099
2246 -0.022890644
2244 -0.00085064577
2242 0.016543303
2240 0.029639959
2238 0.0476989
2236 0.06654796
2234 0.090232067
2232 0.1165214
2230 0.19354884
2228 0.27520296
2226 0.37457898
2224 0.45550469
2222 0.44818798
2220 0.41560376
2218 0.32052177
2216 0.23743229
2214 0.18823808
2212 0.16773221
2210 0.19074945
2208 0.22363995
2206 0.26548916
2204 0.3148689
2202 0.37093106
2200 0.44470823
2198 0.53139311
2196 0.60118359
2194 0.66073507
2192 0.66091055
2190 0.63534701
2188 0.56671435
2186 0.48462537
2184 0.43524638
2182 0.393583
2180 0.46473786
2178 0.55309677
2176 0.67526144
2174 0.79203838
2172 0.81272346
2170 0.81244868
2168 0.74429524
2166 0.66461551
2164 0.56702334
2162 0.47341484
2160 0.39460081
2158 0.34511852
2156 0.348396
2154 0.36767274
2152 0.4022176
2150 0.42635334
2148 0.43698427
2146 0.47107607
2144 0.52717179
2142 0.6082266
2140 0.705082
2138 0.77733612
2136 0.83531457
2134 0.88695049
2132 0.9364202
2130 1.0143889
2128 1.101364
2126 1.1858757
2124 1.2696046
2122 1.3104625
2120 1.3420777
2118 1.3259243
2116 1.3040029
2114 1.290238
2112 1.2876446
2110 1.3291229
2108 1.3646746
2106 1.3632364
2104 1.3211417
2102 1.2015806
2100 1.0884559
2098 1.005482
2096 1.0057943
2094 1.10953
2092 1.2595414
2090 1.4420254
2088 1.5781572
2086 1.671985
2084 1.713712
2082 1.72473
2080 1.6921406
2078 1.6388888
2076 1.5311643
2074 1.401968
2072 1.29584
2070 1.1979231
2068 1.1760889
2066 1.1734793
2064 1.2018994
2062 1.237916
2060 1.2889802
2058 1.341011
2056 1.3821971
2054 1.4158648
2052 1.430748
2050 1.4432509
2048 1.4599
2046 1.4590571
2044 1.4231861
2042 1.3817749
2040 1.3415326
2038 1.3543481
2036 1.4299057
2034 1.5038941
2032 1.5652366
2030 1.573727
2028 1.5427785
2026 1.5461736
2024 1.5760137
2022 1.6681761
2020 1.7908022
2018 1.857875
2016 1.89958
2014 1.8172413
2012 1.6934223
2010 1.5614721
2008 1.4322932
2006 1.3775157
2004 1.3465946
2002 1.351776
2000 1.3707291
1998 1.4123893
1996 1.4687786
1994 1.5542601
1992 1.6475754
1990 1.7396351
1988 1.811258
1986 1.8445636
1984 1.8413514
1982 1.7999592
1980 1.727996
1978 1.6328597
1976 1.5342686
1974 1.4380341
1972 1.3920974
1970 1.3849
1968 1.4205056
1966 1.4786328
1964 1.4904536
1962 1.4751328
1960 1.428952
1958 1.3705132
1956 1.3585986
1954 1.3635564
1952 1.3691239
1950 1.3723822
1948 1.3643585
1946 1.3612
1944 1.4010737
1942 1.4553688
1940 1.5031301
1938 1.5374751
1936 1.5398772
1934 1.5365913
1932 1.544314
1930 1.5351613
1928 1.4972126
1926 1.4162636
1924 1.2917105
1922 1.1856854
1920 1.1102434
1918 1.1002949
1916 1.1393186
1914 1.1830218
1912 1.2222674
1910 1.2241086
1908 1.2033792
1906 1.1818386
1904 1.161268
1902 1.167572
1900 1.1854237
1898 1.2338291
1896 1.2962857
1894 1.3996577
1892 1.513182
1890 1.583143
1888 1.610504
1886 1.5219157
1884 1.3894105
1882 1.2536016
1880 1.1335069
1878 1.0555698
1876 0.97075301
1874 0.85204595
1872 0.72469199
1870 0.60451096
1868 0.57202089
1866 0.63958246
1864 0.77498281
1862 0.94554329
1860 1.0695506
1858 1.1460202
1856 1.1176029
1854 1.0191785
1852 0.77974355
1850 0.45739001
1848 0.056576282
1846 -0.37984145
1844 -0.57807082
1842 -0.63907868
1840 -0.37686741
1838 0.034372866
1836 0.4479354
1834 0.83894944
1832 1.124687
1830 1.3263539
1828 1.3898298
1826 1.3717693
1824 1.2810651
1822 1.184803
1820 1.14142
1818 1.1144356
1816 1.0872171
1814 1.0197365
1812 0.89758396
1810 0.78851813
1808 0.71609199
1806 0.70752901
1804 0.75378346
1802 0.6940124
1800 0.52676916
1798 0.22634941
1796 -0.16092001
1794 -0.35296166
1792 -0.39934
1790 -0.19182262
1788 0.16014382
1786 0.46366373
1784 0.72094369
1782 0.83547431
1780 0.85072017
1778 0.74524671
1776 0.58170712
1774 0.44616589
1772 0.37448713
1770 0.44157255
1768 0.54094368
1766 0.5456773
1764 0.46263218
1762 0.30076599
1760 0.086732455
1758 -0.15260479
1756 -0.36170787
1754 -0.51359457
1752 -0.73401475
1750 -1.0586017
1748 -1.4516437
1746 -1.8866322
1744 -2.1952753
1742 -2.3805194
1740 -2.4152586
1738 -2.341351
1736 -2.1403999
1734 -1.8496314
1732 -1.4627908
1730 -1.0217359
1728 -0.69548422
1726 -0.46231747
1724 -0.31474531
1722 -0.2030822
1720 0.068289265
1718 0.55568087
1716 1.3338203
1714 2.2364941
1712 3.0408771
1710 3.7244911
1708 4.2679644
1706 4.8453178
1704 5.6320524
1702 6.9177799
1700 8.8573103
1698 11.83773
1696 15.895572
1694 20.24102
1692 24.470295
1690 28.220629
1688 31.488092
1686 35.117706
1684 39.23288
1682 44.059555
1680 49.451958
1678 54.191269
1676 58.315269
1674 62.328182
1672 66.337845
1670 70.97818
1668 76.079178
1666 81.071449
1664 85.892914
1662 90.330978
1660 94.380836
1658 98.012688
1656 101.16366
1654 103.74904
1652 105.5946
1650 106.53851
1648 106.35178
1646 104.90179
1644 102.60894
1642 99.913895
1640 96.8834
1638 93.616028
1636 89.762802
1634 85.246101
1632 80.524536
1630 75.779922
1628 71.163139
1626 66.69825
1624 62.029758
1622 57.132629
1620 52.408932
1618 47.890835
1616 43.805515
1614 40.162846
1612 37.015244
1610 34.35453
1608 32.068417
1606 30.135065
1604 28.420097
1602 26.965683
1600 25.816793
1598 24.974943
1596 24.3955
1594 24.039915
1592 23.821915
1590 23.724215
1588 23.712839
1586 23.781706
1584 23.920069
1582 24.11574
1580 24.361448
1578 24.743032
1576 25.289028
1574 26.071989
1572 27.098141
1570 28.244638
1568 29.47916
1566 30.67775
1564 31.827282
1562 33.064457
1560 34.462303
1558 36.555111
1556 39.400387
1554 42.525188
1552 45.739456
1550 48.232296
1548 49.964172
1546 51.222717
1544 51.981937
1542 52.350834
1540 52.312401
1538 51.895428
1536 51.10043
1534 49.995041
1532 48.629379
1530 47.11956
1528 45.49844
1526 43.796303
1524 41.992474
1522 40.064705
1520 38.173702
1518 36.376175
1516 34.692471
1514 33.143875
1512 31.386162
1510 29.336842
1508 26.821354
1506 23.745972
1504 20.837914
1502 18.182199
1500 15.977689
1498 14.26812
1496 12.556714
1494 10.850935
1492 9.1603642
1490 7.5242949
1488 6.011085
1486 4.651792
1484 3.4489522
1482 2.416378
1480 1.5532743
1478 0.87257767
1476 0.36548501
1474 0.16791651
1472 0.40984708
1470 0.97975087
1468 1.7692683
1466 2.5299091
1464 3.1207607
1462 3.5596321
1460 3.8250678
1458 4.067431
1456 4.3196998
1454 4.6371675
1452 5.0384264
1450 5.3640294
1448 5.5603352
1446 5.6589036
1444 5.6198144
1442 5.513217
1440 5.3135295
1438 5.0330482
1436 4.6563368
1434 4.2089076
1432 3.711096
1430 3.2525074
1428 2.856272
1426 2.5669208
1424 2.4001229
1422 2.3614938
1420 2.4736757
1418 2.7480626
1416 3.1410913
1414 3.610862
1412 4.0673385
1410 4.4489903
1408 4.756196
1406 4.9677544
1404 5.1254106
1402 5.2133927
1400 5.2751122
1398 5.3030648
1396 5.3527861
1394 5.4442945
1392 5.580811
1390 5.7694969
1388 5.8934617
1386 5.8986449
1384 5.7707243
1382 5.4597402
1380 5.0751185
1378 4.6072574
1376 4.1197314
1374 3.638423
1372 3.2174382
1370 2.8700814
1368 2.5984452
1366 2.3489857
1364 2.0306273
1362 1.6540328
1360 1.222898
1358 0.8106913
1356 0.50600529
1354 0.27635631
1352 0.14123857
1350 0.045747884
1348 -0.00088475773
1346 -0.0019734874
1344 0.00041686196
1342 -0.0047783805
1340 -0.023241404
1338 0.001467146
1336 0.11624166
1334 0.30570036
1332 0.60707623
1330 0.89463556
1328 1.1490234
1326 1.3487092
1324 1.4848797
1322 1.62313
1320 1.7892423
1318 2.0316625
1316 2.3611398
1314 2.7342629
1312 3.1145468
1310 3.4167569
1308 3.6345901
1306 3.7673323
1304 3.8444703
1302 3.895422
1300 3.9257927
1298 3.9248869
1296 3.9147716
1294 3.9022317
1292 3.9072187
1290 3.9584916
1288 4.020256
1286 4.090857
1284 4.1516685
1282 4.1832643
1280 4.2082705
1278 4.2174282
1276 4.2218385
1274 4.2230301
1272 4.2441564
1270 4.3108883
1268 4.4428067
1266 4.6738596
1264 4.970789
1262 5.344666
1260 5.7427859
1258 6.1614485
1256 6.5729027
1254 6.9738126
1252 7.3566198
1250 7.7293005
1248 8.1062937
1246 8.4943504
1244 8.9099894
1242 9.3240242
1240 9.6960049
1238 10.011727
1236 10.181972
1234 10.289069
1232 10.27724
1230 10.235381
1228 10.134389
1226 9.9952869
1224 9.7506733
1222 9.4578695
1220 9.0502701
1218 8.6188059
1216 8.1410942
1214 7.6598816
1212 7.1730809
1210 6.6835032
1208 6.1892948
1206 5.69029
1204 5.1848202
1202 4.6756945
1200 4.1638746
1198 3.6537151
1196 3.1507001
1194 2.6721575
1192 2.2262127
1190 1.8590701
1188 1.5491548
1186 1.3328714
1184 1.1556126
1182 1.0129601
1180 0.89643717
1178 0.85538381
1176 0.85733598
1174 0.99218041
1172 1.128756
1170 1.2392735
1168 1.3082452
1166 1.249035
1164 1.1665488
1162 1.0274447
1160 0.88383508
1158 0.73187685
1156 0.57997602
1154 0.42986655
1152 0.28869611
1150 0.16256756
1148 0.056359299
1146 -0.023897965
1144 -0.073298447
1142 -0.085364744
1140 -0.036117658
1138 0.051106945
1136 0.2272097
1134 0.47351241
1132 0.79348898
1130 1.1366018
1128 1.4536211
1126 1.7569557
1124 2.0259805
1122 2.2953453
1120 2.5987198
1118 2.9036164
1116 3.1988442
1114 3.475374
1112 3.6747787
1110 3.8678665
1108 4.0426903
1106 4.2298651
1104 4.4475317
1102 4.6726408
1100 4.9119153
1098 5.1521316
1096 5.396286
1094 5.6584082
1092 5.9455223
1090 6.2559719
1088 6.584239
1086 6.8807364
1084 7.1430006
1082 7.3327966
1080 7.4693351
1078 7.5298581
1076 7.5487056
1074 7.5127215
1072 7.4622941
1070 7.4376016
1068 7.4251966
1066 7.4626188
1064 7.5092483
1062 7.5770864
1060 7.6405034
1058 7.6670318
1056 7.6651917
1054 7.5380936
1052 7.3840461
1050 7.143714
1048 6.8866434
1046 6.5871606
1044 6.2578316
1042 5.8730659
1040 5.4819236
1038 5.0855379
1036 4.7330599
1034 4.4350715
1032 4.1873412
1030 3.9832649
1028 3.7693911
1026 3.5450692
1024 3.2802057
1022 2.9967251
1020 2.7405849
1018 2.499778
1016 2.3141258
1014 2.1369667
1012 1.8914808
1010 1.6243536
1008 1.2415729
1006 0.85096049
1004 0.48014766
1002 0.11680087
1000 -0.19666165
998 -0.49972934
996 -0.75579929
994 -0.98499227
992 -1.1312549
990 -1.2707257
988 -1.3950217
986 -1.5269022
984 -1.6678314
982 -1.7506133
980 -1.7487459
978 -1.6305366
976 -1.3889743
974 -1.0868649
972 -0.7383709
970 -0.41929874
968 -0.11977868
966 0.1416655
964 0.38194686
962 0.54114097
960 0.66572911
958 0.61680037
956 0.52798855
954 0.37898558
952 0.22680879
950 0.17352036
948 0.12455023
946 0.080899999
944 0.034816895
942 -0.003320545
940 -0.10313366
938 -0.16851901
936 -0.21621944
934 -0.21031526
932 -0.1403164
930 0.067994088
928 0.35822403
926 0.7797575
924 1.231482
922 1.7189157
920 2.1544497
918 2.5388069
916 2.734293
914 2.7949731
912 2.722168
910 2.5800662
908 2.4869702
906 2.4140821
904 2.4116971
902 2.4296029
900 2.6633689
898 2.9323311
896 3.3735001
