##TITLE=Methyl Ethyl Ketone
##JCAMP-DX=4.24
##DATA TYPE=INFRARED SPECTRUM
##XUNITS=cm-1
##YUNITS=Absorbance
##FIRSTX=900
##LASTX=2300
##XYDATA=(X++(Y..Y))
2296 -0.0086040003
2294 -0.0087830443
2292 -0.0089619877
2290 -0.0091410317
2288 -0.009319976
2286 -0.009499019
2284 -0.0096779643
2282 -0.0098570073
2280 -0.010035952
2278 -0.010214699
2276 -0.010394429
2274 -0.010573188
2272 -0.010751931
2270 -0.010930676
2268 -0.011110401
2266 -0.011289163
2264 -0.011467909
2262 -0.011646653
2260 -0.011826372
2258 -0.012005141
2256 -0.012183886
2254 -0.01236263
2252 -0.012542343
2250 -0.012721119
2248 -0.012899863
2246 -0.013078608
2244 -0.00048601429
2242 0.021414861
2240 0.062646799
2238 0.10901856
2236 0.15607928
2234 0.20057194
2232 0.24376515
2230 0.26192904
2228 0.27610707
2226 0.26825899
2224 0.25697732
2222 0.23530659
2220 0.21482797
2218 0.19979179
2216 0.19867772
2214 0.22727001
2212 0.2649956
2210 0.31475356
2208 0.34940422
2206 0.36428314
2204 0.37711886
2202 0.38914496
2200 0.42212155
2198 0.47078538
2196 0.52451497
2194 0.58059669
2192 0.6270237
2190 0.66916603
2188 0.70366174
2186 0.73575646
2184 0.76874042
2182 0.80195087
2180 0.83589792
2178 0.86988175
2176 0.8980757
2174 0.92543495
2172 0.94942993
2170 0.97288769
2168 0.99519753
2166 1.0172507
2164 1.0388634
2162 1.0590762
2160 1.0757165
2158 1.096861
2156 1.12726
2154 1.1622993
2152 1.2027726
2150 1.2180173
2148 1.204276
2146 1.1670536
2144 1.1117212
2142 1.0797789
2140 1.0654929
2138 1.0851253
2136 1.1220771
2134 1.1638168
2132 1.2068394
2130 1.2332306
2128 1.254228
2126 1.2582815
2124 1.2585877
2122 1.2504559
2120 1.2410817
2118 1.2316952
2116 1.2231801
2114 1.221491
2112 1.2213131
2110 1.2237279
2108 1.2260046
2106 1.2267321
2104 1.2309418
2102 1.2434877
2100 1.265696
2098 1.3019692
2096 1.3451144
2094 1.3946136
2092 1.4351317
2090 1.4653622
2088 1.4699405
2086 1.454275
2084 1.4168782
2082 1.366818
2080 1.3034211
2078 1.2339468
2076 1.1717542
2074 1.1128081
2072 1.1068599
2070 1.1178982
2068 1.1781651
2066 1.2502564
2064 1.3126743
2062 1.3702561
2060 1.393768
2058 1.406477
2056 1.3967342
2054 1.3807348
2052 1.3597343
2050 1.3387549
2048 1.321852
2046 1.3048714
2044 1.286958
2042 1.2661825
2040 1.2401555
2038 1.2181516
2036 1.2007015
2034 1.1984941
2032 1.2107091
2030 1.230834
2028 1.2560846
2026 1.2665886
2024 1.2677388
2022 1.2511317
2020 1.2263863
2018 1.1974975
2016 1.16664
2014 1.1343665
2012 1.1007768
2010 1.068278
2008 1.0365211
2006 1.0189793
2004 1.0062863
2002 1.0050429
2000 1.0051634
1998 1.0031321
1996 0.99586642
1994 0.97708941
1992 0.95496446
1990 0.92777896
1988 0.90794241
1986 0.89783472
1984 0.88776565
1982 0.87468517
1980 0.8494609
1978 0.81346369
1976 0.78644311
1974 0.7711463
1972 0.78476268
1970 0.81961483
1968 0.8569808
1966 0.8932842
1964 0.88665205
1962 0.8560819
1960 0.79582882
1958 0.72343814
1956 0.67630827
1954 0.63889325
1952 0.63025486
1950 0.62832719
1948 0.62124783
1946 0.61177248
1944 0.59507471
1942 0.58387208
1940 0.58457845
1938 0.59117937
1936 0.59993684
1934 0.59934169
1932 0.58418339
1930 0.5548619
1928 0.51527262
1926 0.48145965
1924 0.46237585
1922 0.47829041
1920 0.52479309
1918 0.5876528
1916 0.65302914
1914 0.6958546
1912 0.72155327
1910 0.72979319
1908 0.73055387
1906 0.72188288
1904 0.70775437
1902 0.69835752
1900 0.6898514
1898 0.71047485
1896 0.74213713
1894 0.78001207
1892 0.81652862
1890 0.81972593
1888 0.80548787
1886 0.76221538
1884 0.70695996
1882 0.64618182
1880 0.58117253
1878 0.51530379
1876 0.449963
1874 0.39551336
1872 0.35667348
1870 0.34139347
1868 0.34565213
1866 0.35401592
1864 0.35828847
1862 0.34695601
1860 0.32232329
1858 0.29344115
1856 0.25690058
1854 0.21980414
1852 0.16649477
1850 0.10672417
1848 0.02730523
1846 -0.057867229
1844 -0.11685945
1842 -0.15621841
1840 -0.14545812
1838 -0.11433607
1836 -0.080788933
1834 -0.051070731
1832 -0.017966615
1830 0.02563517
1828 0.092570812
1826 0.17119029
1824 0.23210366
1822 0.26198763
1820 0.24301299
1818 0.19169675
1816 0.12898485
1814 0.064309217
1812 0.0081113447
1810 -0.036755882
1808 -0.07417082
1806 -0.095410749
1804 -0.10320586
1802 -0.12220931
1800 -0.15008286
1798 -0.19122812
1796 -0.23994072
1794 -0.23259257
1792 -0.1905904
1790 -0.10798329
1788 -0.010025352
1786 0.049167708
1784 0.079523556
1782 0.08471103
1780 0.071749106
1778 0.0517723
1776 0.02949243
1774 0.015422934
1772 0.017613864
1770 0.030601956
1768 0.049527504
1766 0.055543192
1764 0.04433034
1762 0.026211355
1760 0.0072103487
1758 -0.085559659
1756 -0.20890257
1754 -0.30553797
1752 -0.36006269
1750 -0.36776111
1748 -0.35704318
1746 -0.34672573
1744 -0.37532726
1742 -0.45257044
1740 -0.54959148
1738 -0.65106678
1736 -0.66632199
1734 -0.60686505
1732 -0.46957308
1730 -0.28965777
1728 -0.19141406
1726 -0.16003615
1724 -0.14507918
1722 -0.1242829
1720 0.0063673109
1718 0.24857521
1716 0.68186659
1714 1.2362288
1712 1.7632428
1710 2.25473
1708 2.7238159
1706 3.3281171
1704 4.2324033
1702 5.713325
1700 7.9057741
1698 11.011435
1696 14.967143
1694 18.99547
1692 22.740971
1690 26.080978
1688 29.083673
1686 32.63728
1684 36.83292
1682 41.902809
1680 47.65696
1678 52.729401
1676 57.147285
1674 61.402664
1672 65.632996
1670 70.658035
1668 76.277893
1666 81.845154
1664 87.226524
1662 91.993736
1660 96.167595
1658 99.762115
1656 102.70029
1654 104.87209
1652 105.9886
1650 105.75913
1648 104.2396
1646 101.58572
1644 98.499817
1642 95.583694
1640 92.569092
1638 89.333229
1636 85.356087
1634 80.502296
1632 75.481087
1630 70.550987
1628 65.970604
1626 61.762028
1624 57.497921
1622 53.122581
1620 48.848274
1618 44.692944
1616 40.825771
1614 37.268925
1612 34.179634
1610 31.561541
1608 29.367548
1606 27.573107
1604 26.028711
1602 24.750866
1600 23.726051
1598 22.958527
1596 22.415501
1594 22.082869
1592 21.907263
1590 21.87141
1588 21.937359
1586 22.087151
1584 22.3034
1582 22.566179
1580 22.866343
1578 23.256035
1576 23.751913
1574 24.419693
1572 25.260569
1570 26.2295
1568 27.30928
1566 28.435366
1564 29.607643
1562 30.995512
1560 32.696022
1558 35.293839
1556 38.863186
1554 42.771698
1552 46.785446
1550 49.928143
1548 52.22226
1546 54.199501
1544 55.87109
1542 57.35931
1540 58.470459
1538 58.895206
1536 58.588402
1534 57.620243
1532 56.231831
1530 54.778034
1528 53.268127
1526 51.712002
1524 49.980183
1522 47.976837
1520 45.718616
1518 43.165642
1516 40.69936
1514 38.458614
1512 36.2934
1510 34.215595
1508 31.641592
1506 28.421743
1504 25.218588
1502 22.086756
1500 19.458218
1498 17.384171
1496 15.318571
1494 13.256689
1492 11.151907
1490 9.0326214
1488 6.9699607
1486 5.0379877
1484 3.3474541
1482 1.9603209
1480 0.9379825
1478 0.29766724
1476 0.053583458
1474 0.32262871
1472 1.0690639
1470 2.029434
1468 3.0339241
1466 3.8990014
1464 4.5198584
1462 5.0269513
1460 5.4626245
1458 5.8811231
1456 6.2839599
1454 6.6292791
1452 6.864203
1450 7.0048971
1448 7.0003719
1446 6.9273715
1444 6.7599769
1442 6.5473447
1440 6.2740908
1438 5.9352851
1436 5.50876
1434 4.9635239
1432 4.313776
1430 3.6653428
1428 3.0531821
1426 2.5750878
1424 2.2410862
1422 2.0455761
1420 1.9955345
1418 2.0718272
1416 2.2522285
1414 2.513526
1412 2.7956169
1410 3.08216
1408 3.3605144
1406 3.6292157
1404 3.9059646
1402 4.1885228
1400 4.4950399
1398 4.836904
1396 5.2046642
1394 5.6041112
1392 5.9645724
1390 6.2274799
1388 6.3681808
1386 6.307725
1384 6.1238403
1382 5.7723689
1380 5.3607721
1378 4.8842721
1376 4.3941689
1374 3.9149232
1372 3.477114
1370 3.089637
1368 2.755569
1366 2.4275436
1364 2.038733
1362 1.5976639
1360 1.1013662
1358 0.6339066
1356 0.29757535
1354 0.071756646
1352 0.010543806
1350 0.030231863
1348 0.13150847
1346 0.26331857
1344 0.42458239
1342 0.59986109
1340 0.80283833
1338 1.0123869
1336 1.2267058
1334 1.4439139
1332 1.6410545
1330 1.84504
1328 2.0590429
1326 2.28897
1324 2.5546594
1322 2.835572
1320 3.144237
1318 3.4569461
1316 3.77192
1314 4.0682082
1312 4.3305554
1310 4.5510592
1308 4.7212291
1306 4.8475127
1304 4.9385595
1302 5.0000668
1300 5.0412688
1298 5.0526781
1296 5.0443568
1294 5.0007005
1292 4.9448152
1290 4.8742218
1288 4.8082242
1286 4.7576284
1284 4.7224736
1282 4.7214031
1280 4.7313061
1278 4.7637224
1276 4.7949929
1274 4.8289037
1272 4.8684583
1270 4.9245791
1268 5.0031657
1266 5.1123705
1264 5.2350807
1262 5.3690701
1260 5.5011778
1258 5.6303349
1256 5.7555714
1254 5.8736892
1252 5.9780097
1250 6.0688457
1248 6.1438732
1246 6.2098503
1244 6.267221
1242 6.3153481
1240 6.3399982
1238 6.3433867
1236 6.2991071
1234 6.2237139
1232 6.077116
1230 5.8881898
1228 5.5848455
1226 5.2336049
1224 4.7541962
1222 4.2522244
1220 3.7004037
1218 3.1712439
1216 2.6907971
1214 2.248745
1212 1.8726881
1210 1.5235173
1208 1.2149074
1206 0.93437165
1204 0.68960524
1202 0.47379494
1200 0.28850484
1198 0.12480657
1196 -0.01763951
1194 -0.13661602
1192 -0.23553839
1190 -0.3061536
1188 -0.35501167
1186 -0.36568299
1184 -0.3506752
1182 -0.28180394
1180 -0.18020582
1178 0.0065102726
1176 0.23121801
1174 0.56365281
1172 0.90576673
1170 1.2574344
1168 1.5708909
1166 1.7634065
1164 1.9095383
1162 1.940565
1160 1.940016
1158 1.8744495
1156 1.7770371
1154 1.6251578
1152 1.4408023
1150 1.2133749
1148 0.97170657
1146 0.71938604
1144 0.48898679
1142 0.28608596
1140 0.13649757
1138 0.032755181
1136 -0.01369697
1134 -0.020546218
1132 0.044015758
1130 0.14584926
1128 0.30091846
1126 0.47094506
1124 0.64440227
1122 0.80805063
1120 0.91627759
1118 1.0073497
1116 1.0339071
1114 1.0594953
1112 1.0870537
1110 1.1307685
1108 1.2251643
1106 1.3246549
1104 1.432912
1102 1.5131434
1100 1.5358689
1098 1.5269046
1096 1.4700714
1094 1.4123416
1092 1.3553981
1090 1.3134199
1088 1.2871879
1086 1.2733165
1084 1.2718829
1082 1.2907451
1080 1.3226497
1078 1.359874
1076 1.3913372
1074 1.3639243
1072 1.3057275
1070 1.1667374
1068 1.0092589
1066 0.84957105
1064 0.69984722
1062 0.62621075
1060 0.56585497
1058 0.56667805
1056 0.57070255
1054 0.58830398
1052 0.60166794
1050 0.60113591
1048 0.58963597
1046 0.55053782
1044 0.4969677
1042 0.41442502
1040 0.31378376
1038 0.18729708
1036 0.065513097
1034 -0.048062392
1032 -0.13486862
1030 -0.19936413
1028 -0.282166
1026 -0.37949106
1024 -0.50011462
1022 -0.62834233
1020 -0.70686829
1018 -0.76323825
1016 -0.78350598
1014 -0.79748708
1012 -0.8492015
1010 -0.91068751
1008 -1.01186
1006 -1.1154015
1004 -1.2091583
1002 -1.294732
1000 -1.3249383
998 -1.3447058
996 -1.3188357
994 -1.294598
992 -1.2761275
990 -1.2593473
988 -1.2456731
986 -1.2159522
984 -1.1570377
982 -1.0866988
980 -1.001038
978 -0.92401773
976 -0.85715061
974 -0.80801946
972 -0.77442366
970 -0.76536226
968 -0.77154475
966 -0.79375798
964 -0.82132214
962 -0.81404436
960 -0.79225445
958 -0.6933043
956 -0.57728326
954 -0.44118714
952 -0.3047868
950 -0.21690784
948 -0.13072996
946 -0.041819144
944 0.0016503073
942 0.05153425
940 0.15601654
938 0.29552159
936 0.428498
934 0.54214436
932 0.63416517
930 0.6798957
928 0.71339297
926 0.72787499
924 0.75976723
922 0.81345302
920 0.8887006
918 0.98296648
916 1.0318357
914 1.046761
912 0.94204903
910 0.7746402
908 0.56383222
906 0.33902937
904 0.24547869
902 0.18819068
900 0.27229694
898 0.37957475
896 0.48774001
