##TITLE=Methyl Ethyl Ketone
##JCAMP-DX=4.24
##DATA TYPE=INFRARED SPECTRUM
##XUNITS=cm-1
##YUNITS=Absorbance
##FIRSTX=900
##LASTX=2300
##XYDATA=(X++(Y..Y))
2296 0.067822002
2294 0.069232978
2292 0.070643961
2290 0.072054945
2288 0.073465921
2286 0.074876904
2284 0.076287888
2282 0.077698871
2280 0.079109855
2278 0.080520838
2276 0.081931815
2274 0.083342798
2272 0.084753782
2270 0.086164758
2268 0.087575741
2266 0.088986717
2264 0.090397701
2262 0.091808684
2260 0.09321966
2258 0.094629675
2256 0.096040629
2254 0.097451612
2252 0.098862596
2250 0.10027357
2248 0.10168166
2246 0.10309929
2244 0.021686509
2242 0.00071526854
2240 -0.023521921
2238 -0.0087767318
2236 0.011831667
2234 0.025589826
2232 0.040386725
2230 0.08992666
2228 0.14010189
2226 0.1824875
2224 0.21664223
2222 0.21534914
2220 0.2208543
2218 0.25306851
2216 0.28899658
2214 0.32971507
2212 0.36117539
2210 0.37702408
2208 0.40045953
2206 0.43453285
2204 0.45689452
2202 0.46727476
2200 0.4598352
2198 0.4396356
2196 0.45593286
2194 0.49381089
2192 0.53109807
2190 0.56752253
2188 0.51433641
2186 0.43202043
2184 0.3426736
2182 0.25211045
2180 0.25594583
2178 0.2740289
2176 0.3048023
2174 0.33162117
2172 0.30088982
2170 0.26107979
2168 0.20058343
2166 0.14796978
2164 0.13156781
2162 0.13352501
2160 0.17321554
2158 0.20807153
2156 0.22638699
2154 0.21212731
2152 0.15317303
2150 0.085295819
2148 0.012655742
2146 -0.022164689
2144 -0.023074891
2142 -0.0047540609
2140 0.024558667
2138 0.012585251
2136 -0.022517856
2134 -0.09875375
2132 -0.1915382
2130 -0.26452917
2128 -0.330764
2126 -0.3624517
2124 -0.38614234
2122 -0.39740688
2120 -0.40516588
2118 -0.38309276
2116 -0.35513085
2114 -0.31555161
2112 -0.28394914
2110 -0.29559723
2108 -0.32880944
2106 -0.40796179
2104 -0.49243063
2102 -0.5735001
2100 -0.62737042
2098 -0.63631189
2096 -0.61912858
2094 -0.57620531
2092 -0.56174576
2090 -0.58065122
2088 -0.65971279
2086 -0.78494698
2084 -0.91065568
2082 -1.0326065
2080 -1.0923862
2078 -1.1193186
2076 -1.0968558
2074 -1.0553979
2072 -0.98702043
2070 -0.91044652
2068 -0.84227324
2066 -0.77726901
2064 -0.78479075
2062 -0.81076217
2060 -0.88723511
2058 -0.97163302
2056 -1.0450652
2054 -1.1091619
2052 -1.1457623
2050 -1.1716423
2048 -1.1815954
2046 -1.1873178
2044 -1.1897759
2042 -1.1795404
2040 -1.1529309
2038 -1.1120164
2036 -1.0599471
2034 -1.0294161
2032 -1.0215354
2030 -1.043642
2028 -1.0849006
2026 -1.1076057
2024 -1.1156731
2022 -1.081331
2020 -1.0255723
2018 -0.98901147
2016 -0.96261197
2014 -0.99496508
2012 -1.0481631
2010 -1.1184216
2008 -1.193092
2006 -1.2593222
2004 -1.319136
2002 -1.344198
2000 -1.3565108
1998 -1.3460696
1996 -1.3501428
1994 -1.4119626
1992 -1.4994051
1990 -1.618107
1988 -1.7002439
1986 -1.7130307
1984 -1.6810588
1982 -1.6094998
1980 -1.5497434
1978 -1.5102409
1976 -1.4656343
1974 -1.4102939
1972 -1.2847117
1970 -1.1056031
1968 -0.93946046
1966 -0.78808093
1964 -0.81660855
1962 -0.94087034
1960 -1.13624
1958 -1.3580509
1956 -1.4741585
1954 -1.5499984
1952 -1.5506005
1950 -1.5290147
1948 -1.4944943
1946 -1.4612501
1944 -1.4622331
1942 -1.4728209
1940 -1.5028423
1938 -1.5251505
1936 -1.5172685
1934 -1.4986905
1932 -1.4682441
1930 -1.4501418
1928 -1.4488903
1926 -1.4278964
1924 -1.3698748
1922 -1.222424
1920 -0.99337912
1918 -0.78527391
1916 -0.62221617
1914 -0.59920585
1912 -0.67455292
1910 -0.7886073
1908 -0.91298252
1906 -1.0325679
1904 -1.149972
1902 -1.2408168
1900 -1.3217319
1898 -1.2691921
1896 -1.1607
1894 -0.98625094
1892 -0.80068672
1890 -0.72492689
1888 -0.71593815
1886 -0.82642287
1884 -0.98076528
1882 -1.1361095
1880 -1.2753583
1878 -1.369692
1876 -1.4220099
1874 -1.4114869
1872 -1.3273543
1870 -1.1554701
1868 -0.95205754
1866 -0.75991273
1864 -0.6618709
1862 -0.67466962
1860 -0.75041062
1858 -0.85086668
1856 -0.9302243
1854 -0.98204392
1852 -0.9976455
1850 -0.98602659
1848 -0.95574921
1846 -0.90920925
1844 -0.94120145
1842 -1.0100653
1840 -1.1459543
1838 -1.3105412
1836 -1.4085171
1834 -1.463163
1832 -1.4084314
1830 -1.264022
1828 -0.98635924
1826 -0.66238296
1824 -0.40130493
1822 -0.2807644
1820 -0.4013074
1818 -0.64727008
1816 -0.93026972
1814 -1.1487041
1812 -1.2466475
1810 -1.2456267
1808 -1.1773137
1806 -1.05472
1804 -0.89820141
1802 -0.72647995
1800 -0.5421465
1798 -0.40021843
1796 -0.29235214
1794 -0.21102163
1792 -0.15339801
1790 -0.096141897
1788 -0.048503499
1786 -0.018186444
1784 -0.00099531026
1782 0.052508533
1780 0.1326232
1778 0.2864067
1776 0.46544001
1774 0.58769399
1772 0.62710595
1770 0.4575581
1768 0.21459098
1766 0.018315293
1764 -0.070973784
1762 0.032883778
1760 0.040169373
1758 -0.045651518
1756 -0.10354125
1754 -0.13126028
1752 0.013026282
1750 0.3648352
1748 0.80880022
1746 1.2762079
1744 1.4691263
1742 1.3776186
1740 1.1252823
1738 0.79193056
1736 0.70612001
1734 0.83178544
1732 0.98552752
1730 1.1251067
1728 0.91803688
1726 0.47636485
1724 0.1153053
1722 -0.12731327
1720 0.083786517
1718 0.73136997
1716 1.7924072
1714 3.0031254
1712 3.954493
1710 4.6904764
1708 5.2889881
1706 6.0306902
1704 7.206408
1702 9.1119432
1700 11.876198
1698 15.449027
1696 19.622999
1694 23.50668
1692 26.765808
1690 29.602137
1688 32.20919
1686 35.494244
1684 39.522739
1682 44.239674
1680 49.4454
1678 53.902447
1676 57.6688
1674 61.391369
1672 65.173576
1670 69.58934
1668 74.480446
1666 79.310303
1664 84.00882
1662 88.373642
1660 92.378014
1658 95.964371
1656 99.078743
1654 101.65987
1652 103.5254
1650 104.48929
1648 104.31178
1646 102.7975
1644 100.43345
1642 97.737686
1640 94.737
1638 91.520477
1636 87.696213
1634 83.161758
1632 78.476006
1630 73.841934
1628 69.456688
1626 65.346352
1624 61.079239
1622 56.615875
1620 52.247112
1618 47.998013
1616 44.030716
1614 40.363483
1612 37.143429
1610 34.376041
1608 32.038364
1606 30.101557
1604 28.399246
1602 26.956676
1600 25.780647
1598 24.878845
1596 24.223499
1594 23.785532
1592 23.490623
1590 23.33242
1588 23.282011
1586 23.368729
1584 23.609377
1582 23.99873
1580 24.529768
1578 25.242636
1576 26.140343
1574 27.251886
1572 28.559029
1570 29.908188
1568 31.257721
1566 32.499573
1564 33.627926
1562 34.926098
1560 36.485085
1558 38.795563
1556 41.868942
1554 44.826221
1552 47.481838
1550 49.364914
1548 50.534737
1546 51.598072
1544 52.531353
1542 53.312462
1540 53.719898
1538 53.358337
1536 52.308056
1534 50.802639
1532 49.077251
1530 47.488731
1528 46.002914
1526 44.586399
1524 43.072773
1522 41.336617
1520 39.330326
1518 36.966839
1516 34.628784
1514 32.452038
1512 30.363321
1510 28.408611
1508 26.059717
1506 23.191729
1504 20.311319
1502 17.456657
1500 15.104723
1498 13.315451
1496 11.593
1494 9.9478302
1492 8.3035879
1490 6.6964016
1488 5.1769133
1486 3.7794631
1484 2.5300641
1482 1.4663063
1480 0.65734655
1478 0.15752229
1476 0.027078196
1474 0.36475512
1472 1.1369934
1470 2.075736
1468 2.9766746
1466 3.7279286
1464 4.2834206
1462 4.8318782
1460 5.4714146
1458 6.1466842
1456 6.8368001
1454 7.3010545
1452 7.3773503
1450 7.3050699
1448 7.0250473
1446 6.7190895
1444 6.3769202
1442 5.9942517
1440 5.576241
1438 5.1707344
1436 4.7996016
1434 4.4372315
1432 4.0987897
1430 3.7805429
1428 3.5005581
1426 3.3319092
1424 3.2838891
1422 3.3612685
1420 3.5520711
1418 3.8013425
1416 4.0936518
1414 4.402195
1412 4.7013202
1410 5.0112915
1408 5.307445
1406 5.5834765
1404 5.8386512
1402 6.04211
1400 6.2302437
1398 6.3934402
1396 6.5304928
1394 6.6090074
1392 6.6343474
1390 6.5381498
1388 6.3886685
1386 6.1484604
1384 5.8671551
1382 5.5314698
1380 5.1778131
1378 4.8115239
1376 4.4446087
1374 4.0976682
1372 3.7633021
1370 3.4371541
1368 3.1108422
1366 2.7504034
1364 2.3329093
1362 1.8730674
1360 1.3730235
1358 0.89791548
1356 0.52505958
1354 0.23910972
1352 0.095463246
1350 0.020268787
1348 0.015128238
1346 0.055356964
1344 0.14786839
1342 0.28860661
1340 0.52747381
1338 0.76455951
1336 0.97635484
1334 1.1339024
1332 1.1573892
1330 1.174601
1328 1.1863502
1326 1.2443621
1324 1.3924186
1322 1.5949653
1320 1.877404
1318 2.1776586
1316 2.48014
1314 2.7113073
1312 2.8483801
1310 2.894634
1308 2.8604794
1306 2.8020921
1304 2.729388
1302 2.6599429
1300 2.5977724
1298 2.5406845
1296 2.4980857
1294 2.4790876
1292 2.4824839
1290 2.5258684
1288 2.5828519
1286 2.6573172
1284 2.7179561
1282 2.7339876
1280 2.7366571
1278 2.7114339
1276 2.7128987
1274 2.7759919
1272 2.8818252
1270 3.0623703
1268 3.2564483
1266 3.4666178
1264 3.6837287
1262 3.9078324
1260 4.1502438
1258 4.4141345
1256 4.6968226
1254 5.0060005
1252 5.3607421
1250 5.7588191
1248 6.2122908
1246 6.6886997
1244 7.1434093
1242 7.561316
1240 7.8786836
1238 8.140439
1236 8.3116007
1234 8.4348392
1232 8.4590359
1230 8.4196424
1228 8.2072697
1226 7.9448118
1224 7.553638
1222 7.1544394
1220 6.7346668
1218 6.3068419
1216 5.8599515
1214 5.3950052
1212 4.9028645
1210 4.4141765
1208 3.9306948
1206 3.4519548
1204 2.9777739
1202 2.5057402
1200 2.0406332
1198 1.5973389
1196 1.1744521
1194 0.76977402
1192 0.38130325
1190 0.017195106
1188 -0.32455862
1186 -0.61880356
1184 -0.88553429
1182 -1.1034505
1180 -1.2890248
1178 -1.3856013
1176 -1.4361401
1174 -1.34764
1172 -1.2359997
1170 -1.068956
1168 -0.91334748
1166 -0.79213107
1164 -0.64697403
1162 -0.43800712
1160 -0.17860332
1158 0.17150372
1156 0.47212273
1154 0.67612398
1152 0.75739324
1150 0.67493737
1148 0.5421778
1146 0.36282322
1144 0.21219531
1142 0.094360009
1140 0.02928229
1138 0.009173857
1136 0.044874087
1134 0.12225479
1132 0.25581858
1130 0.4276875
1128 0.68937904
1126 0.98822194
1124 1.3553531
1122 1.7348044
1120 2.115308
1118 2.485661
1116 2.799763
1114 3.0904381
1112 3.2851493
1110 3.4493859
1108 3.5137994
1106 3.5381498
1104 3.4628029
1102 3.3665297
1100 3.2397668
1098 3.1872861
1096 3.2658572
1094 3.4824519
1092 3.8789999
1090 4.3734188
1088 4.9673505
1086 5.6025028
1084 6.2581644
1082 6.8362188
1080 7.3391724
1078 7.6294413
1076 7.8064628
1074 7.8527198
1072 7.8569326
1070 7.8676543
1068 7.8720155
1066 7.8231997
1064 7.7572479
1062 7.6175866
1060 7.4853721
1058 7.4252648
1056 7.3912969
1054 7.4719458
1052 7.5678015
1050 7.7136459
1048 7.8771224
1046 8.0836391
1044 8.3028727
1042 8.5370855
1040 8.6958733
1038 8.7330074
1036 8.6378098
1034 8.3917351
1032 8.1203079
1030 7.8297148
1028 7.5623965
1026 7.3022466
1024 6.9482718
1022 6.5318627
1020 5.9781666
1018 5.3651867
1016 4.687326
1014 4.0008688
1012 3.4108152
1010 2.8584175
1008 2.545212
1006 2.2577357
1004 2.0364575
1002 1.798317
1000 1.4406823
998 1.0745015
996 0.67022645
994 0.26630759
992 -0.13671207
990 -0.52803338
988 -0.88869631
986 -1.1791322
984 -1.3412691
982 -1.4035263
980 -1.3291939
978 -1.2008345
976 -1.018284
974 -0.85279977
972 -0.70327675
970 -0.59493887
968 -0.51027626
966 -0.41479498
964 -0.3133947
962 -0.19524322
960 -0.075295657
958 -0.019587077
956 0.019455191
954 0.0016587563
952 -0.022855802
950 -0.040775731
948 -0.054781377
946 -0.016163357
944 0.0013904572
942 0.043432139
940 0.13191313
938 0.2527079
936 0.38331485
934 0.54306746
932 0.69756025
930 0.84018207
928 0.95433801
926 1.023735
924 1.114444
922 1.2309232
920 1.3177148
918 1.37568
916 1.3609514
914 1.2960567
912 1.3399737
910 1.4435149
908 1.6450734
906 1.8861507
904 2.0609114
902 2.2205732
900 2.470659
898 2.7362835
896 3.2140999
