##TITLE=Methyl Ethyl Ketone
##JCAMP-DX=4.24
##DATA TYPE=INFRARED SPECTRUM
##XUNITS=cm-1
##YUNITS=Absorbance
##FIRSTX=900
##LASTX=2300
##XYDATA=(X++(Y..Y))
2296 0.1506
2294 0.15372553
2292 0.15686102
2290 0.15999654
2288 0.16313206
2286 0.16625765
2284 0.16939309
2282 0.17252861
2280 0.17566411
2278 0.17878975
2276 0.18192515
2274 0.18506067
2272 0.18819618
2270 0.19132186
2268 0.1944572
2266 0.19759272
2264 0.20072822
2262 0.20385399
2260 0.20698924
2258 0.21012476
2256 0.21325058
2254 0.2163858
2252 0.21952131
2250 0.22265683
2248 0.22578268
2246 0.22891785
2244 0.091775678
2242 0.0033356957
2240 -0.05903424
2238 -0.095016204
2236 -0.12739508
2234 -0.15509082
2232 -0.18026257
2230 -0.1564642
2228 -0.13011229
2226 -0.102895
2224 -0.087793738
2222 -0.12887578
2220 -0.16835766
2218 -0.19414435
2216 -0.20007515
2214 -0.16430269
2212 -0.12705441
2210 -0.091360867
2208 -0.056043003
2206 -0.021053221
2204 0.02396306
2202 0.078766026
2200 0.13276879
2198 0.18575999
2196 0.25143355
2194 0.3244006
2192 0.4194895
2190 0.52401727
2188 0.56766766
2186 0.59135449
2184 0.53258401
2182 0.45516619
2180 0.3997854
2178 0.3480725
2176 0.31293601
2174 0.27606434
2172 0.20184706
2170 0.12715499
2168 0.069661766
2166 0.036295317
2164 0.084505208
2162 0.16525599
2160 0.30862343
2158 0.43904158
2156 0.53301603
2154 0.57551277
2152 0.54887688
2150 0.51707649
2148 0.48752376
2146 0.47827712
2144 0.48672172
2142 0.4960013
2140 0.50442958
2138 0.52836359
2136 0.56085515
2134 0.57981783
2132 0.59309173
2130 0.58263785
2128 0.56487322
2126 0.56903964
2124 0.57827038
2122 0.57941377
2120 0.57982093
2118 0.59230953
2116 0.61316943
2114 0.68477964
2112 0.75334984
2110 0.77691144
2108 0.77287626
2106 0.70526361
2104 0.6364277
2102 0.58512092
2100 0.53678763
2098 0.48883432
2096 0.42865857
2094 0.35192755
2092 0.29841644
2090 0.27143666
2088 0.28671736
2086 0.33464751
2084 0.37729597
2082 0.41379383
2080 0.39194342
2078 0.33935073
2076 0.28500515
2074 0.23128322
2072 0.2673724
2070 0.3321633
2068 0.44626155
2066 0.56908435
2064 0.6082266
2062 0.61840302
2060 0.51247728
2058 0.38332969
2056 0.25277057
2054 0.14208694
2052 0.10012705
2050 0.085460983
2048 0.10190482
2046 0.11235464
2044 0.097131215
2042 0.045218848
2040 -0.050938889
2038 -0.15480511
2036 -0.25335914
2034 -0.30452079
2032 -0.3114078
2030 -0.26811558
2028 -0.19411477
2026 -0.080929406
2024 0.052229621
2022 0.18516919
2020 0.31528282
2018 0.34171149
2016 0.32648
2014 0.19591865
2012 0.030878592
2010 -0.10732365
2008 -0.23032182
2006 -0.25598529
2004 -0.24884346
2002 -0.194849
2000 -0.12591252
1998 -0.056853116
1996 0.013356571
1994 0.078801163
1992 0.12533124
1990 0.14425381
1988 0.1150456
1986 0.029817123
1984 -0.087875575
1982 -0.2327368
1980 -0.35521504
1978 -0.4521715
1976 -0.48037001
1974 -0.45393988
1972 -0.34513217
1970 -0.18467915
1968 -0.064622082
1966 0.024327114
1964 -0.074318863
1962 -0.26510325
1960 -0.47116163
1958 -0.67716712
1956 -0.74996287
1954 -0.77194774
1952 -0.76972055
1950 -0.75756747
1948 -0.77469122
1946 -0.81076252
1944 -0.8883456
1942 -0.99082518
1940 -1.0865549
1938 -1.1664913
1936 -1.1989743
1934 -1.2132127
1932 -1.236802
1930 -1.2476667
1928 -1.2515063
1926 -1.1683079
1924 -0.98478854
1922 -0.72603738
1920 -0.40486342
1918 -0.20028919
1916 -0.097339913
1914 -0.10829417
1912 -0.19028103
1910 -0.28669778
1908 -0.38884291
1906 -0.59268475
1904 -0.84885556
1902 -1.0948756
1900 -1.3283035
1898 -1.3191942
1896 -1.2003857
1894 -0.92973518
1892 -0.62184644
1890 -0.43663162
1888 -0.36005947
1886 -0.51997691
1884 -0.79406607
1882 -1.1415236
1880 -1.4725863
1878 -1.7171683
1876 -1.8184201
1874 -1.739823
1872 -1.4482681
1870 -0.94271505
1868 -0.48252693
1866 -0.12726061
1864 -0.14287522
1862 -0.48659909
1860 -0.96124732
1858 -1.4900247
1856 -1.8781257
1854 -2.1625149
1852 -2.1894207
1850 -2.0705435
1848 -1.742612
1846 -1.3211929
1844 -1.1383771
1842 -1.1065724
1840 -1.4051589
1838 -1.8309703
1836 -2.109143
1834 -2.2407081
1832 -2.0533793
1830 -1.6975564
1828 -1.2210715
1826 -0.82333058
1824 -0.70889705
1822 -0.83195686
1820 -1.2162688
1818 -1.6350158
1816 -1.9735
1814 -2.1481206
1812 -2.1453478
1810 -2.0599184
1808 -1.9369617
1806 -1.7781301
1804 -1.5897126
1802 -1.2972592
1800 -0.93121964
1798 -0.53501678
1796 -0.13241507
1794 0.12297925
1792 0.29201159
1790 0.22056887
1788 0.02698284
1786 -0.16985451
1784 -0.33960497
1782 -0.36275983
1780 -0.2732611
1778 -0.041506439
1776 0.28508732
1774 0.68659449
1772 1.0258322
1770 1.1344087
1768 1.0300285
1766 0.72446221
1764 0.42573678
1762 0.27453193
1760 0.091376513
1758 -0.1033538
1756 -0.13613215
1754 0.0060991272
1752 0.52172446
1750 1.3978598
1748 2.3340652
1746 3.2306144
1744 3.5478153
1742 3.3598964
1740 3.0097585
1738 2.5990412
1736 2.51894
1734 2.6752453
1732 2.5587132
1730 2.2268021
1728 1.4388678
1726 0.42760333
1724 -0.22439554
1722 -0.46918511
1720 0.13297668
1718 1.4035835
1716 3.1754558
1714 4.8918014
1712 5.836792
1710 6.3331385
1708 6.6672101
1706 7.3391733
1704 8.7368479
1702 11.026331
1700 14.247705
1698 17.847015
1696 21.551287
1694 24.692049
1692 27.0718
1690 29.342487
1688 31.681942
1686 34.90292
1684 38.993515
1682 43.442486
1680 48.113201
1678 51.984688
1676 55.174156
1674 58.575901
1672 62.194805
1670 66.31694
1668 70.750916
1666 74.871902
1664 78.752487
1662 82.461975
1660 86.057297
1658 89.589119
1656 93.074463
1654 96.501328
1652 99.593941
1650 102.05716
1648 102.94331
1646 101.64393
1644 98.933708
1642 95.530685
1640 91.99498
1638 88.609612
1636 84.834373
1634 80.510658
1632 75.962357
1630 71.352325
1628 67.132065
1626 63.321259
1624 59.467121
1622 55.495049
1620 51.456089
1618 47.369476
1616 43.381458
1614 39.531322
1612 35.989491
1610 32.810612
1608 30.092703
1606 27.816835
1604 25.862633
1602 24.22887
1600 22.865108
1598 21.784603
1596 20.953501
1594 20.341768
1592 19.88756
1590 19.560217
1588 19.322098
1586 19.251122
1584 19.372847
1582 19.78264
1580 20.492483
1578 21.563387
1576 23.003799
1574 24.601021
1572 26.315483
1570 27.824713
1568 29.072121
1566 30.211929
1564 31.260496
1562 32.66111
1560 34.520397
1558 37.312611
1556 40.917286
1554 44.134869
1552 46.839436
1550 48.648975
1548 49.800076
1546 51.12225
1544 52.648506
1542 54.413406
1540 55.796379
1538 56.06308
1536 55.192173
1534 53.337021
1532 51.274277
1530 49.64566
1528 48.454319
1526 47.684998
1524 47.037605
1522 46.374107
1520 45.173908
1518 43.268764
1516 41.012627
1514 38.465302
1512 36.163078
1510 34.153664
1508 31.779083
1506 28.876928
1504 25.729206
1502 22.417336
1500 19.640427
1498 17.48987
1496 15.510286
1494 13.688152
1492 11.8931
1490 10.07535
1488 8.1731138
1486 6.1764464
1484 4.100872
1482 2.2112694
1480 0.80879837
1478 0.030191898
1476 0.023374707
1474 0.64645606
1472 1.7202897
1470 2.6982388
1468 3.2358544
1466 3.5855708
1464 3.7783761
1462 4.1835918
1460 4.988625
1458 5.9600883
1456 7.1080203
1454 7.8032022
1452 7.8250995
1450 7.5141468
1448 6.7837925
1446 6.0723071
1444 5.3959618
1442 4.8444366
1440 4.4618478
1438 4.2785349
1436 4.2644143
1434 4.2399821
1432 4.1218381
1430 3.7941749
1428 3.361068
1426 3.0161815
1424 2.8602338
1422 2.9946024
1420 3.3194301
1418 3.7467663
1416 4.120986
1414 4.2923241
1412 4.399467
1410 4.4520059
1408 4.5746512
1406 4.8417401
1404 5.1997838
1402 5.711544
1400 6.2679758
1398 6.8874865
1396 7.4001002
1394 7.7216945
1392 7.8143835
1390 7.5874157
1388 7.2455401
1386 6.7512302
1384 6.2313633
1382 5.6938238
1380 5.233891
1378 4.8761625
1376 4.6397057
1374 4.4748139
1372 4.2804122
1370 4.0311699
1368 3.6771011
1366 3.2717829
1364 2.8474731
1362 2.3823051
1360 1.8716137
1358 1.3373228
1356 0.8091892
1354 0.38186607
1352 0.13464811
1350 0.014180366
1348 0.071200565
1346 0.23098287
1344 0.55766159
1342 0.94682384
1340 1.4163043
1338 1.7754713
1336 1.9110457
1334 1.8464565
1332 1.520064
1330 1.228637
1328 1.0304788
1326 0.99353963
1324 1.1599866
1322 1.4581047
1320 1.8838788
1318 2.3522074
1316 2.8080099
1314 3.1177692
1312 3.2684388
1310 3.2164857
1308 3.0417058
1306 2.8222799
1304 2.6076446
1302 2.4638691
1300 2.3632894
1298 2.3238153
1296 2.2974856
1294 2.2768202
1292 2.2520893
1290 2.2245195
1288 2.1915441
1286 2.1519759
1284 2.1058874
1282 2.0569448
1280 2.0303926
1278 2.0621793
1276 2.1412015
1274 2.3005519
1272 2.4936099
1270 2.7302539
1268 2.9770443
1266 3.2446587
1264 3.5162137
1262 3.8034883
1260 4.094326
1258 4.3846345
1256 4.6582713
1254 4.9205108
1252 5.1853213
1250 5.465158
1248 5.788136
1246 6.1324749
1244 6.4914832
1242 6.8443651
1240 7.168911
1238 7.4645996
1236 7.6881342
1234 7.8559704
1232 7.8814759
1230 7.8474803
1228 7.6637244
1226 7.451457
1224 7.1663632
1222 6.8676457
1220 6.5359097
1218 6.1720338
1216 5.7436399
1214 5.2841072
1212 4.7769198
1210 4.2876053
1208 3.8264492
1206 3.3867514
1204 2.97294
1202 2.5608361
1200 2.156512
1198 1.7817352
1196 1.4302071
1194 1.0931572
1192 0.76723552
1190 0.4544189
1188 0.16874215
1186 -0.026729882
1184 -0.17246023
1182 -0.23404334
1180 -0.26863953
1178 -0.27574185
1176 -0.269234
1174 -0.22560877
1172 -0.16726486
1170 -0.055178579
1168 0.070097715
1166 0.24053335
1164 0.41401285
1162 0.58899581
1160 0.71903664
1158 0.75190634
1156 0.72463018
1154 0.60588396
1152 0.51144052
1150 0.45507586
1148 0.44922942
1146 0.48490393
1144 0.46175256
1142 0.37892604
1140 0.22877692
1138 0.057061985
1136 0.0062640915
1134 0.065146327
1132 0.38610807
1130 0.83311445
1128 1.4124622
1126 2.0059764
1124 2.4800394
1122 2.897891
1120 3.1314721
1118 3.3356683
1116 3.4750171
1114 3.6121321
1112 3.7439029
1110 3.8691111
1108 3.9739215
1106 4.0748501
1104 4.170258
1102 4.287425
1100 4.4541497
1098 4.6816993
1096 5.0051003
1094 5.3611765
1092 5.7511883
1090 6.0983691
1088 6.4041429
1086 6.7027507
1084 6.9995027
1082 7.3262763
1080 7.6560216
1078 7.8898039
1076 8.0571375
1074 8.0598555
1072 8.0036783
1070 7.9021416
1068 7.8014283
1066 7.7720833
1064 7.760756
1062 7.8122792
1060 7.862711
1058 7.8874712
1056 7.8965569
1054 7.8374496
1052 7.7756329
1050 7.7055769
1048 7.6508894
1046 7.6336679
1044 7.6204982
1042 7.6168079
1040 7.6143513
1038 7.6132989
1036 7.5964398
1034 7.55545
1032 7.4593687
1030 7.3112397
1028 7.1443624
1026 6.9619246
1024 6.7590075
1022 6.5329719
1020 6.1692276
1018 5.7388649
1016 5.1512313
1014 4.5254793
1012 3.9453731
1010 3.3913538
1008 3.0501642
1006 2.7305207
1004 2.4583929
1002 2.1748915
1000 1.8142554
998 1.4697152
996 1.1973943
994 0.95208222
992 0.79061675
990 0.61047149
988 0.38683316
986 0.13699408
984 -0.15956557
982 -0.44506648
980 -0.7161926
978 -0.96613669
976 -1.1893115
974 -1.3398758
972 -1.4220303
970 -1.313197
968 -1.082875
966 -0.71409202
964 -0.29277989
962 -0.058873311
960 0.098344289
958 -0.11246282
956 -0.40104356
954 -0.6923784
952 -0.96673679
950 -0.83232474
948 -0.66160136
946 -0.21805392
944 0.015428215
942 0.46415406
940 0.89160895
938 1.2248211
936 1.5001029
934 1.6045045
932 1.6881081
930 1.7290249
928 1.8438166
926 2.0770056
924 2.353256
922 2.6800251
920 2.976625
918 3.2464986
916 3.5453801
914 3.8659949
912 4.2230768
910 4.596199
908 4.915421
906 5.2083154
904 5.3920665
902 5.5434108
900 5.6856995
898 5.8257308
896 6.1967001
