##TITLE=Methyl Ethyl Ketone
##JCAMP-DX=4.24
##DATA TYPE=INFRARED SPECTRUM
##XUNITS=cm-1
##YUNITS=Absorbance
##FIRSTX=900
##LASTX=2300
##XYDATA=(X++(Y..Y))
2296 0.0081313001
2294 0.0083005577
2292 0.0084697157
2290 0.0086388737
2288 0.0088080326
2286 0.0089771906
2284 0.0091463476
2282 0.0093155056
2280 0.0094846636
2278 0.0096538216
2276 0.0098229805
2274 0.0099921385
2272 0.0101611
2270 0.010330843
2268 0.01049962
2266 0.010668379
2264 0.010838115
2262 0.011006895
2260 0.011176628
2258 0.011345414
2256 0.011514171
2254 0.0116839
2252 0.011852689
2250 0.012022414
2248 0.012191205
2246 0.012359964
2244 0.00045930856
2242 0.0075125066
2240 0.0047992123
2238 0.020121362
2236 0.038238671
2234 0.051730998
2232 0.064604521
2230 0.071199812
2228 0.075494908
2226 0.064195447
2224 0.047229987
2222 0.0082763806
2220 -0.031856257
2218 -0.071824543
2216 -0.10484394
2214 -0.12271429
2212 -0.1333168
2210 -0.13356397
2208 -0.13487074
2206 -0.13830985
2204 -0.14822854
2202 -0.1643208
2200 -0.1881289
2198 -0.21743031
2196 -0.26022786
2194 -0.31056082
2192 -0.3633236
2190 -0.41690338
2188 -0.44183579
2186 -0.45743829
2184 -0.4265396
2182 -0.38508734
2180 -0.32809886
2178 -0.26942515
2176 -0.25511685
2174 -0.24870808
2172 -0.28553036
2170 -0.32568738
2168 -0.36130896
2166 -0.38883236
2164 -0.38834926
2162 -0.38378081
2160 -0.37591755
2158 -0.37916741
2156 -0.40420702
2154 -0.43370843
2152 -0.46640751
2150 -0.4899188
2148 -0.50269628
2146 -0.51993895
2144 -0.54209542
2142 -0.5847168
2140 -0.64115494
2138 -0.70645422
2136 -0.77583367
2134 -0.81306332
2132 -0.8367455
2130 -0.80879444
2128 -0.76481599
2126 -0.70959133
2124 -0.65195853
2122 -0.62686282
2120 -0.60935968
2118 -0.637568
2116 -0.67674255
2114 -0.74970388
2112 -0.82571244
2110 -0.89402139
2108 -0.9495008
2106 -0.96958923
2104 -0.97866815
2102 -0.97477651
2100 -0.97766799
2098 -0.9950465
2096 -1.0181158
2094 -1.0455456
2092 -1.0648917
2090 -1.075261
2088 -1.080857
2086 -1.083895
2084 -1.094992
2082 -1.1118097
2080 -1.1453686
2078 -1.1871355
2076 -1.2368699
2074 -1.2894115
2072 -1.3146839
2070 -1.3308978
2068 -1.313476
2066 -1.287955
2064 -1.2847846
2062 -1.2883315
2060 -1.3223403
2058 -1.360059
2056 -1.3851258
2054 -1.4071971
2052 -1.4256977
2050 -1.4550947
2048 -1.5124577
2046 -1.5761714
2044 -1.640572
2042 -1.669963
2040 -1.6479149
2038 -1.590139
2036 -1.5029972
2034 -1.4449133
2032 -1.4198395
2030 -1.4477091
2028 -1.5114574
2026 -1.5792822
2024 -1.6450742
2022 -1.6746095
2020 -1.684882
2018 -1.6582699
2016 -1.6180999
2014 -1.5599692
2012 -1.4975786
2010 -1.4569705
2008 -1.425336
2006 -1.4335885
2004 -1.4566317
2002 -1.5077569
2000 -1.5698377
1998 -1.6427867
1996 -1.7120929
1994 -1.7585989
1992 -1.7777337
1990 -1.7536407
1988 -1.70788
1986 -1.6499186
1984 -1.5993526
1982 -1.5629463
1980 -1.5380785
1978 -1.5196296
1976 -1.5075228
1974 -1.498324
1972 -1.496838
1970 -1.4995316
1968 -1.5122452
1966 -1.5311093
1964 -1.5611268
1962 -1.5983912
1960 -1.617936
1958 -1.6299994
1956 -1.6150829
1954 -1.591943
1952 -1.5798131
1950 -1.5755167
1948 -1.5856206
1946 -1.596475
1944 -1.5914142
1942 -1.569549
1940 -1.5278022
1938 -1.4841678
1936 -1.4565115
1934 -1.4490689
1932 -1.464928
1930 -1.5004644
1928 -1.548668
1926 -1.5955014
1924 -1.6309237
1922 -1.618367
1920 -1.5613285
1918 -1.477646
1916 -1.3874643
1914 -1.3399223
1912 -1.3252765
1910 -1.3338643
1908 -1.3510838
1906 -1.3579036
1904 -1.3595361
1902 -1.3416482
1900 -1.3171451
1898 -1.2630628
1896 -1.1987286
1894 -1.1348772
1892 -1.0750948
1890 -1.0519099
1888 -1.045332
1886 -1.0626514
1884 -1.087296
1882 -1.1100056
1880 -1.137756
1878 -1.1729335
1876 -1.2198
1874 -1.2702382
1872 -1.3073601
1870 -1.3148824
1868 -1.2847012
1866 -1.2345935
1864 -1.1849114
1862 -1.155748
1860 -1.1411749
1858 -1.1291169
1856 -1.1229
1854 -1.1142044
1852 -1.1444331
1850 -1.1948528
1848 -1.279644
1846 -1.3754821
1844 -1.4144706
1842 -1.4151187
1840 -1.3315418
1838 -1.2143523
1836 -1.1055628
1834 -1.0160409
1832 -0.96583718
1830 -0.92918873
1828 -0.89063388
1826 -0.83109653
1824 -0.74839699
1822 -0.6648035
1820 -0.5974142
1818 -0.5664407
1816 -0.57115716
1814 -0.6113106
1812 -0.67631328
1810 -0.72773409
1808 -0.75648034
1806 -0.73780799
1804 -0.67815053
1802 -0.64578724
1800 -0.64179891
1798 -0.70221579
1796 -0.80716568
1794 -0.84336877
1792 -0.83382362
1790 -0.70839554
1788 -0.52389097
1786 -0.36436641
1784 -0.23165286
1782 -0.15705147
1780 -0.12285046
1778 -0.1136576
1776 -0.117652
1774 -0.1181874
1772 -0.10381523
1770 -0.086350374
1768 -0.06048353
1766 -0.038331106
1764 -0.01999888
1762 0.016063513
1760 0.012885056
1758 -0.0537888
1756 -0.14376372
1754 -0.23064162
1752 -0.31279802
1750 -0.38095611
1748 -0.44129419
1746 -0.50451428
1744 -0.56745893
1742 -0.64592379
1740 -0.70628816
1738 -0.74315858
1736 -0.668558
1734 -0.4998444
1732 -0.27351016
1730 -0.024184667
1728 0.077151395
1726 0.061708689
1724 0.010971848
1722 -0.049234681
1720 0.0040436313
1718 0.17961729
1716 0.55365944
1714 1.0720503
1712 1.6033572
1710 2.1184168
1708 2.616276
1706 3.2172387
1704 4.061285
1702 5.4009786
1700 7.3601599
1698 10.246345
1696 14.042429
1694 18.04538
1692 21.908375
1690 25.403185
1688 28.56332
1686 32.232986
1684 36.502193
1682 41.583282
1680 47.293278
1678 52.236271
1676 56.455517
1674 60.434608
1672 64.32798
1670 68.951691
1668 74.13829
1666 79.362045
1664 84.485962
1662 89.107979
1660 93.248955
1658 96.94281
1656 100.17971
1654 102.97606
1652 104.9438
1650 105.65231
1648 104.92263
1646 102.65214
1644 99.689354
1642 96.793839
1640 93.736267
1638 90.438774
1636 86.440071
1634 81.622238
1632 76.687073
1630 71.880669
1628 67.379333
1626 63.195412
1624 58.918602
1622 54.502323
1620 50.228443
1618 46.11618
1616 42.311371
1614 38.824745
1612 35.749241
1610 33.08955
1608 30.821199
1606 28.930435
1604 27.300772
1602 25.955114
1600 24.888481
1598 24.10251
1596 23.560001
1594 23.237858
1592 23.069244
1590 23.034924
1588 23.093924
1586 23.233715
1584 23.442451
1582 23.69434
1580 23.978525
1578 24.334217
1576 24.7728
1574 25.371887
1572 26.133974
1570 27.038353
1568 28.071239
1566 29.148436
1564 30.2684
1562 31.580891
1560 33.181644
1558 35.674297
1556 39.148472
1554 43.012352
1552 47.015011
1550 50.108902
1548 52.288864
1546 54.064857
1544 55.446125
1542 56.576199
1540 57.37862
1538 57.701916
1536 57.496826
1534 56.79583
1532 55.681328
1530 54.366173
1528 52.853725
1526 51.154953
1524 49.225433
1522 47.014278
1520 44.646965
1518 42.126411
1516 39.748158
1514 37.63147
1512 35.57312
1510 33.58363
1508 31.131283
1506 28.078251
1504 25.015451
1502 21.98101
1500 19.421181
1498 17.38365
1496 15.365143
1494 13.361327
1492 11.302446
1490 9.2111645
1488 7.1447406
1486 5.1830406
1484 3.4614501
1482 2.0402198
1480 0.99362141
1478 0.33116984
1476 0.062293127
1474 0.31871501
1472 1.0511169
1470 2.002387
1468 3.0077209
1466 3.8665195
1464 4.4749188
1462 4.9731855
1460 5.4126983
1458 5.8715625
1456 6.36554
1454 6.7956567
1452 7.086946
1450 7.2472639
1448 7.2083116
1446 7.1118145
1444 6.9379587
1442 6.729135
1440 6.4745193
1438 6.1538281
1436 5.7481327
1434 5.2160215
1432 4.5736451
1430 3.9292314
1428 3.3187342
1426 2.8569307
1424 2.5522485
1422 2.3980882
1420 2.3902912
1418 2.4850016
1416 2.6503229
1414 2.8448091
1412 3.0331185
1410 3.2257547
1408 3.430217
1406 3.6689506
1404 3.9444635
1402 4.2558341
1400 4.590992
1398 4.9498963
1396 5.322093
1394 5.70228
1392 6.0541725
1390 6.3186679
1388 6.4699416
1386 6.4267049
1384 6.236166
1382 5.8414693
1380 5.3556342
1378 4.7740221
1376 4.1836286
1374 3.6237741
1372 3.140696
1370 2.7449226
1368 2.4283588
1366 2.1362801
1364 1.7948526
1362 1.410336
1360 0.97288227
1358 0.55774522
1356 0.25374877
1354 0.047803454
1352 0.0013694743
1350 0.039870933
1348 0.16855358
1346 0.31988749
1344 0.49363241
1342 0.66703701
1340 0.84044588
1338 1.0239397
1336 1.2197057
1334 1.4340626
1332 1.6447097
1330 1.8595171
1328 2.0767851
1326 2.2978036
1324 2.5409045
1322 2.7872446
1320 3.0532622
1318 3.3283305
1316 3.61922
1314 3.9168024
1312 4.2031093
1310 4.4638057
1308 4.6782589
1306 4.8389182
1304 4.948132
1302 4.997623
1300 5.0092854
1298 4.9749074
1296 4.922843
1294 4.8519187
1292 4.7791777
1290 4.707756
1288 4.644412
1286 4.5986605
1284 4.5627618
1282 4.5441647
1280 4.5273323
1278 4.5125976
1276 4.4994059
1274 4.496767
1272 4.5090966
1270 4.5551429
1268 4.6295767
1266 4.7432194
1264 4.8793373
1262 5.0364242
1260 5.196732
1258 5.3562341
1256 5.5020399
1254 5.6327276
1252 5.7477255
1250 5.8542681
1248 5.9672689
1246 6.0845003
1244 6.1988111
1242 6.3009653
1240 6.3615909
1238 6.3962011
1236 6.384203
1234 6.3409119
1232 6.2264719
1230 6.0641041
1228 5.7703981
1226 5.4297523
1224 4.9648514
1222 4.4803433
1220 3.9506381
1218 3.4314392
1216 2.9357743
1214 2.467746
1212 2.0516005
1210 1.6763455
1208 1.3632097
1206 1.09492
1204 0.88026857
1202 0.69501597
1200 0.53847802
1198 0.39340502
1196 0.25910145
1194 0.13347325
1192 0.020250186
1190 -0.061634973
1188 -0.11813646
1186 -0.12717357
1184 -0.11015666
1182 -0.050223906
1180 0.036186099
1178 0.19302772
1176 0.38373801
1174 0.67414886
1172 0.98017764
1170 1.3203511
1168 1.6319811
1166 1.8498492
1164 2.0135276
1162 2.0432661
1160 2.0399978
1158 1.9716402
1156 1.8890486
1154 1.7803166
1152 1.6428378
1150 1.463562
1148 1.250406
1146 1.0003446
1144 0.73831129
1142 0.47293222
1140 0.24622679
1138 0.060959116
1136 -0.039053142
1134 -0.07782203
1132 -0.014585584
1130 0.10184558
1128 0.2940689
1126 0.50795591
1124 0.72870779
1122 0.93743479
1120 1.075736
1118 1.1973243
1116 1.2642757
1114 1.3354347
1112 1.4286194
1110 1.5295836
1108 1.6533598
1106 1.7618799
1104 1.8284469
1102 1.8563315
1100 1.8080803
1098 1.7416227
1096 1.6521429
1094 1.5961089
1092 1.5861341
1090 1.6210669
1088 1.6996845
1086 1.7856722
1084 1.87168
1082 1.9170229
1080 1.9305537
1078 1.884462
1076 1.8094072
1074 1.7161112
1072 1.6177233
1070 1.5283753
1068 1.4375172
1066 1.3242536
1064 1.207464
1062 1.0875458
1060 0.97844636
1058 0.94005913
1056 0.91952801
1054 0.97688919
1052 1.0385797
1050 1.112085
1048 1.157268
1046 1.1309251
1044 1.0622305
1042 0.91496158
1040 0.76557744
1038 0.61684841
1036 0.51065201
1034 0.45499605
1032 0.42304748
1030 0.40864757
1028 0.35270151
1026 0.26517987
1024 0.14106292
1022 0.0020902604
1020 -0.089636758
1018 -0.15996596
1016 -0.19089429
1014 -0.21312429
1012 -0.25637025
1010 -0.30364704
1008 -0.3581008
1006 -0.41389573
1004 -0.47985232
1002 -0.54717195
1000 -0.62333739
998 -0.69277662
996 -0.73234212
994 -0.76273096
992 -0.76522994
990 -0.76180279
988 -0.74483234
986 -0.72208101
984 -0.68700695
982 -0.62934047
980 -0.53868502
978 -0.41074896
976 -0.2460777
974 -0.10269991
972 0.01947188
970 0.066290893
968 0.066492885
966 0.035626836
964 -0.0089909881
962 -0.052017093
960 -0.094827592
958 -0.13275363
956 -0.16801314
954 -0.1578362
952 -0.14117168
950 -0.096997023
948 -0.052420024
946 -0.017277107
944 0.00079450198
942 0.02558127
940 0.10182287
938 0.27183029
936 0.43722028
934 0.58853525
932 0.69900584
930 0.72213
928 0.72849733
926 0.70942652
924 0.74367917
922 0.84345227
920 0.96763456
918 1.1129895
916 1.1878557
914 1.2126353
912 1.2308841
910 1.247574
908 1.3250846
906 1.4277058
904 1.470364
902 1.4986266
900 1.4348768
898 1.356922
896 1.3024
