##TITLE=Methyl Ethyl Ketone
##JCAMP-DX=4.24
##DATA TYPE=INFRARED SPECTRUM
##XUNITS=cm-1
##YUNITS=Absorbance
##FIRSTX=900
##LASTX=2300
##XYDATA=(X++(Y..Y))
2296 0.057381999
2294 0.05857629
2292 0.059769586
2290 0.060963873
2288 0.062157173
2286 0.063351452
2284 0.064544752
2282 0.065739043
2280 0.066932343
2278 0.068126619
2276 0.069319934
2274 0.070513226
2272 0.071707495
2270 0.072900802
2268 0.074095085
2266 0.075288393
2264 0.076482661
2262 0.077675983
2260 0.078870244
2258 0.080063567
2256 0.081257835
2254 0.08245115
2252 0.083645411
2250 0.084838733
2248 0.086032994
2246 0.087226324
2244 0.032432359
2242 0.00116937
2240 -0.0185664
2238 0.018095089
2236 0.063022755
2234 0.1109395
2232 0.15699577
2230 0.15675597
2228 0.15280575
2226 0.1370395
2224 0.12443875
2222 0.12899981
2220 0.13890791
2218 0.1622645
2216 0.20045686
2214 0.2693902
2212 0.32880259
2210 0.36975086
2208 0.37104732
2206 0.32432464
2204 0.3240256
2202 0.37141392
2200 0.47220948
2198 0.61058438
2196 0.64700782
2194 0.62319195
2192 0.51074082
2190 0.36117598
2188 0.25727201
2186 0.16900793
2184 0.126858
2182 0.095081888
2180 0.093145065
2178 0.096123874
2176 0.14366798
2174 0.19561422
2172 0.2509439
2170 0.30400079
2168 0.3422136
2166 0.37050828
2164 0.36790648
2162 0.3537153
2160 0.31771767
2158 0.30425555
2156 0.33775899
2154 0.39997122
2152 0.49674082
2150 0.57340765
2148 0.62338501
2146 0.63813895
2144 0.62420923
2142 0.57992589
2140 0.51659411
2138 0.43786839
2136 0.35182914
2134 0.29046994
2132 0.23982668
2130 0.21767594
2128 0.20430399
2126 0.21174143
2124 0.22385657
2122 0.24813983
2120 0.27457353
2118 0.30559704
2116 0.34026071
2114 0.39719751
2112 0.44883206
2110 0.46270934
2108 0.44693857
2106 0.3583495
2104 0.25536308
2102 0.14428958
2100 0.049335442
2098 -0.016552988
2096 -0.043512002
2094 -0.025133327
2092 0.038899064
2090 0.1433647
2088 0.23206657
2086 0.30296901
2084 0.3094399
2082 0.27500984
2080 0.25868684
2078 0.25469241
2076 0.32043898
2074 0.41454002
2072 0.47586438
2070 0.52565807
2068 0.51230496
2066 0.48378384
2064 0.45729858
2062 0.43388423
2060 0.43712547
2058 0.44383049
2056 0.44064286
2054 0.41522697
2052 0.3169677
2050 0.19504088
2048 0.049127638
2046 -0.078059927
2044 -0.15972738
2042 -0.21425515
2040 -0.24100675
2038 -0.24157926
2036 -0.21696143
2034 -0.15359579
2032 -0.057172149
2030 0.050473168
2028 0.1623491
2026 0.2637645
2024 0.35802925
2022 0.42987019
2020 0.49058959
2018 0.46306008
2016 0.39900398
2014 0.26500341
2012 0.10871252
2010 -0.0020605642
2008 -0.098744452
2006 -0.16925322
2004 -0.23848565
2002 -0.34575689
2000 -0.45729789
1998 -0.54556507
1996 -0.60636002
1994 -0.60192311
1992 -0.58678967
1990 -0.58399409
1988 -0.60148859
1986 -0.64906013
1984 -0.69036394
1982 -0.71301091
1980 -0.7193777
1978 -0.71221644
1976 -0.67340833
1974 -0.60805088
1972 -0.4490363
1970 -0.22247505
1968 -0.02239831
1966 0.15298998
1964 0.079058893
1962 -0.12433504
1960 -0.4007248
1958 -0.7017554
1956 -0.86128587
1954 -0.96731508
1952 -1.0196157
1950 -1.0538465
1948 -1.0742228
1946 -1.092
1944 -1.1192816
1942 -1.160895
1940 -1.24287
1938 -1.3350021
1936 -1.4210229
1934 -1.4771023
1932 -1.476594
1930 -1.4226419
1928 -1.3092715
1926 -1.1348728
1924 -0.90235311
1922 -0.6356225
1920 -0.34829429
1918 -0.170828
1916 -0.096920513
1914 -0.14287458
1912 -0.26271632
1910 -0.38073415
1908 -0.4885042
1906 -0.6415363
1904 -0.82024682
1902 -0.99500704
1900 -1.1664183
1898 -1.1629392
1896 -1.0825857
1894 -0.89654636
1892 -0.68146718
1890 -0.5478456
1888 -0.48401898
1886 -0.58534497
1884 -0.77236152
1882 -1.0331023
1880 -1.2883617
1878 -1.4690214
1876 -1.54008
1874 -1.456812
1872 -1.2341366
1870 -0.87859964
1868 -0.55506885
1866 -0.322862
1864 -0.32157028
1862 -0.53594571
1860 -0.8181048
1858 -1.1111224
1856 -1.3004543
1854 -1.4078227
1852 -1.3878709
1850 -1.2930731
1848 -1.093208
1846 -0.83855784
1844 -0.72037804
1842 -0.68316936
1840 -0.88892055
1838 -1.1991994
1836 -1.4281129
1834 -1.571902
1832 -1.4678234
1830 -1.2205744
1828 -0.85686141
1826 -0.52143228
1824 -0.39689064
1822 -0.46602163
1820 -0.76194417
1818 -1.11869
1816 -1.4279486
1814 -1.6135085
1812 -1.6458031
1810 -1.5827279
1808 -1.4658645
1806 -1.31969
1804 -1.1597641
1802 -0.96408677
1800 -0.73907757
1798 -0.50523651
1796 -0.26957929
1794 -0.070113868
1792 0.10357536
1790 0.2097006
1788 0.27516648
1786 0.31668371
1784 0.34716508
1782 0.39175805
1780 0.45334992
1778 0.57449776
1776 0.74551743
1774 0.99403447
1772 1.2244903
1770 1.2751511
1768 1.1590645
1766 0.84918106
1764 0.50888878
1762 0.28361934
1760 0.082789034
1758 -0.15935302
1756 -0.282675
1754 -0.21535328
1752 0.20684777
1750 0.98116475
1748 1.8313403
1746 2.64695
1744 2.9883468
1742 2.8872521
1740 2.6089635
1738 2.2579823
1736 2.1312602
1734 2.1851795
1732 2.0839992
1730 1.8486055
1728 1.2834399
1726 0.53049964
1724 0.012080655
1722 -0.2481478
1720 0.1047141
1718 0.98941767
1716 2.3125644
1714 3.7044094
1712 4.6394119
1710 5.2846737
1708 5.825036
1706 6.6282802
1704 8.0290871
1702 10.205968
1700 13.205392
1698 16.699171
1696 20.422144
1694 23.69603
1692 26.307669
1690 28.703203
1688 31.079571
1686 34.280678
1684 38.32
1682 42.94574
1680 47.969803
1678 52.16782
1676 55.626659
1674 59.088558
1672 62.637764
1670 66.821732
1668 71.481415
1666 76.130402
1664 80.726776
1662 85.127037
1660 89.306435
1658 93.191666
1656 96.77774
1654 100.06155
1652 102.8022
1650 104.73863
1648 105.15532
1646 103.51714
1644 100.60563
1642 97.175606
1640 93.6567
1638 90.318604
1636 86.624657
1634 82.384521
1632 77.854752
1630 73.16613
1628 68.68235
1626 64.460777
1624 60.20644
1622 55.877361
1620 51.691021
1618 47.655155
1616 43.791912
1614 40.117123
1612 36.734604
1610 33.684792
1608 31.083189
1606 28.912521
1604 27.044065
1602 25.48317
1600 24.188805
1598 23.18021
1596 22.4415
1594 21.94709
1592 21.628641
1590 21.439661
1588 21.316031
1586 21.315329
1584 21.468166
1582 21.848949
1580 22.482794
1578 23.403881
1576 24.608229
1574 25.977417
1572 27.46508
1570 28.848785
1568 30.07972
1566 31.217808
1564 32.278633
1562 33.677536
1560 35.525589
1558 38.281387
1556 41.886742
1554 45.113129
1552 47.775753
1550 49.487297
1548 50.409103
1546 51.396393
1544 52.463531
1542 53.614326
1540 54.46656
1538 54.444283
1536 53.583656
1534 52.078106
1532 50.368492
1530 48.931946
1528 47.727264
1526 46.7113
1524 45.651817
1522 44.405476
1520 42.727497
1518 40.481487
1516 38.094486
1514 35.690159
1512 33.465759
1510 31.487961
1508 29.101362
1506 26.1528
1504 23.062229
1502 19.87571
1500 17.242926
1498 15.24691
1496 13.397715
1494 11.707682
1492 10.065857
1490 8.4582148
1488 6.8182321
1486 5.1429911
1484 3.4411821
1482 1.8817677
1480 0.72228956
1478 0.065589391
1476 0.02611129
1474 0.57140452
1472 1.5410851
1470 2.5038929
1468 3.1543231
1466 3.5926492
1464 3.8482206
1462 4.2289343
1460 4.9035692
1458 5.720674
1456 6.6774802
1454 7.3080935
1452 7.4034376
1450 7.2475247
1448 6.7580519
1446 6.2791071
1444 5.8223886
1442 5.4197121
1440 5.0980549
1438 4.8573766
1436 4.6936202
1434 4.4963603
1432 4.2416677
1430 3.9026864
1428 3.5386221
1426 3.3004928
1424 3.2433515
1422 3.4233308
1420 3.7826743
1418 4.2291727
1416 4.6423259
1414 4.884521
1412 5.0159616
1410 5.0603046
1408 5.1230044
1406 5.2769499
1404 5.5118251
1402 5.8616529
1400 6.2405958
1398 6.6419477
1396 6.9457712
1394 7.0637875
1392 7.0621519
1390 6.8649583
1388 6.6337352
1386 6.3462901
1384 6.0136571
1382 5.6232424
1380 5.2283759
1378 4.8415623
1376 4.5038915
1374 4.2032795
1372 3.8706381
1370 3.4997644
1368 3.0926857
1366 2.6698341
1364 2.2720675
1362 1.8828912
1360 1.4785514
1358 1.0809274
1356 0.71747589
1354 0.41068617
1352 0.20786387
1350 0.060909562
1348 -0.031004615
1346 -0.082533926
1344 -0.035620078
1342 0.097175434
1340 0.39246893
1338 0.67387593
1336 0.90581715
1334 1.0187666
1332 0.92510194
1330 0.82899165
1328 0.74786687
1326 0.76539296
1324 0.93213969
1322 1.1923034
1320 1.5640628
1318 1.9650335
1316 2.3632202
1314 2.6535475
1312 2.8133051
1310 2.8267965
1308 2.7323265
1306 2.6028109
1304 2.4645481
1302 2.3557439
1300 2.2747183
1298 2.2367225
1296 2.234457
1294 2.2925401
1292 2.3809412
1290 2.5138593
1288 2.654336
1286 2.7978866
1284 2.9366755
1282 3.0627227
1280 3.1888149
1278 3.3144798
1276 3.4370842
1274 3.552316
1272 3.6567538
1270 3.7461984
1268 3.8455193
1266 3.9671028
1264 4.1308365
1262 4.3481278
1260 4.5934162
1258 4.863904
1256 5.1315484
1254 5.4056888
1252 5.7119498
1250 6.060638
1248 6.4890189
1246 6.9665999
1244 7.4785738
1242 7.9866681
1240 8.4385023
1238 8.8386278
1236 9.1194973
1234 9.3273916
1232 9.3696918
1230 9.3413954
1228 9.1378231
1226 8.8881283
1224 8.51861
1222 8.1235199
1220 7.6682892
1218 7.2039709
1216 6.7234573
1214 6.2499557
1212 5.7879653
1210 5.3272958
1208 4.8654666
1206 4.3896899
1204 3.899982
1202 3.4148922
1200 2.9431176
1198 2.5131202
1196 2.1192214
1194 1.7531085
1192 1.4020965
1190 1.0485122
1188 0.70827693
1186 0.42782527
1184 0.19763966
1182 0.093406767
1180 0.038220853
1178 0.066713929
1176 0.1184096
1174 0.21794449
1172 0.33538729
1170 0.51092935
1168 0.6841563
1166 0.84793776
1164 0.98735207
1162 1.068884
1160 1.1539675
1158 1.248481
1156 1.3601586
1154 1.4908466
1152 1.5732583
1150 1.575133
1148 1.465336
1146 1.2278607
1144 0.91781867
1142 0.56092393
1140 0.27418274
1138 0.071108982
1136 0.070037574
1134 0.2089949
1132 0.53182006
1130 0.9290657
1128 1.347512
1126 1.7480493
1124 2.0236332
1122 2.2652378
1120 2.444376
1118 2.6223106
1116 2.8244901
1114 3.0244765
1112 3.2130435
1110 3.395638
1108 3.5587952
1106 3.717895
1104 3.8673086
1102 4.0194602
1100 4.1813712
1098 4.3804936
1096 4.6458569
1094 4.9861698
1092 5.4210501
1090 5.8877945
1088 6.3697333
1086 6.7429199
1084 7.0185432
1082 7.1868901
1080 7.3027773
1078 7.494606
1076 7.7234015
1074 7.9729505
1072 8.1972132
1070 8.1908913
1068 8.1110687
1066 7.8664637
1064 7.6155682
1062 7.4758906
1060 7.3665743
1058 7.4186125
1056 7.4898686
1054 7.6447783
1052 7.8064804
1050 7.9871058
1048 8.1448154
1046 8.2452898
1044 8.3172827
1042 8.3354626
1040 8.3383455
1038 8.3184795
1036 8.2896099
1034 8.2469406
1032 8.1656704
1030 8.0386829
1028 7.7943664
1026 7.4646935
1024 7.0811224
1022 6.6794748
1020 6.381269
1018 6.1280193
1016 5.9314427
1014 5.7388067
1012 5.4206371
1010 5.0650673
1008 4.5262079
1006 3.9704113
1004 3.395699
1002 2.8445411
1000 2.4560361
998 2.0929837
996 1.8422714
994 1.5971611
992 1.3704515
990 1.15453
988 0.96298456
986 0.76918954
984 0.57000113
982 0.3473081
980 0.095406801
978 -0.12230451
976 -0.29974288
974 -0.38970381
972 -0.41026747
970 -0.43196505
968 -0.45641378
966 -0.51973903
964 -0.59322673
962 -0.52009743
960 -0.39469004
958 -0.16318882
956 0.082012862
954 0.12670219
952 0.14170228
950 0.023929738
948 -0.08720088
946 -0.028739572
944 0.0086204559
942 0.26031294
940 0.5331977
938 0.89524996
936 1.2319057
934 1.4926643
932 1.6940312
930 1.767965
928 1.7977766
926 1.7585057
924 1.769336
922 1.8424839
920 1.9934331
918 2.2155776
916 2.3659272
914 2.4654274
912 2.5450909
910 2.6161141
908 2.8777716
906 3.2112107
904 3.3942218
902 3.5350587
900 3.0358768
898 2.433661
896 1.8473001
