##TITLE=Methyl Ethyl Ketone
##JCAMP-DX=4.24
##DATA TYPE=INFRARED SPECTRUM
##XUNITS=cm-1
##YUNITS=Absorbance
##FIRSTX=900
##LASTX=2300
##XYDATA=(X++(Y..Y))
2296 0.17502999
2294 0.17867479
2292 0.1823096
2290 0.18595435
2288 0.18959914
2286 0.193234
2284 0.1968787
2282 0.20052351
2280 0.2041584
2278 0.20780307
2276 0.21144786
2274 0.21509264
2272 0.21872759
2270 0.22235259
2268 0.22600681
2266 0.22970071
2264 0.23328795
2262 0.23675573
2260 0.24057151
2258 0.24486302
2256 0.24787486
2254 0.2490755
2252 0.25505704
2250 0.26777452
2248 0.26274371
2246 0.21637036
2244 0.13820915
2242 0.050369702
2240 -0.0118984
2238 -0.017648485
2236 0.032120172
2234 0.1277235
2232 0.26125073
2230 0.42373717
2228 0.59940666
2226 0.77702302
2224 0.97159338
2222 1.1970782
2220 1.4316266
2218 1.6422279
2216 1.7925
2214 1.8581389
2212 1.8666819
2210 1.8607116
2208 1.8801675
2206 1.9562635
2204 2.0882759
2202 2.2580245
2200 2.4159276
2198 2.5116088
2196 2.5295143
2194 2.4776456
2192 2.4147172
2190 2.4038997
2188 2.4624629
2186 2.5855269
2184 2.737648
2182 2.8804371
2180 3.0007732
2178 3.0962193
2176 3.1733115
2174 3.2399571
2172 3.2991097
2170 3.349345
2168 3.380512
2166 3.3814764
2164 3.3502338
2162 3.292562
2160 3.2325382
2158 3.1979444
2156 3.2051501
2154 3.2632694
2152 3.3673091
2150 3.5058706
2148 3.6597614
2146 3.8088787
2144 3.9374766
2142 4.0358391
2140 4.110188
2138 4.1681461
2136 4.2006288
2134 4.1948037
2132 4.1479564
2130 4.0668025
2128 3.982868
2126 3.92852
2124 3.9052081
2122 3.9018366
2120 3.9029241
2118 3.9005687
2116 3.9212887
2114 3.9985242
2112 4.1395383
2110 4.333756
2108 4.537971
2106 4.707675
2104 4.8419127
2102 4.9560075
2100 5.0618
2098 5.1614985
2096 5.2256432
2094 5.2236457
2092 5.1706429
2090 5.1002383
2088 5.0476246
2086 5.0363898
2084 5.0450344
2082 5.036365
2080 4.9846873
2078 4.8788447
2076 4.7472987
2074 4.6332059
2072 4.5764718
2070 4.6038847
2068 4.6959047
2066 4.8121171
2064 4.9032817
2062 4.9267445
2060 4.8792963
2058 4.7770042
2056 4.6488118
2054 4.5244617
2052 4.4183989
2050 4.3374419
2048 4.2840915
2046 4.2591534
2044 4.263308
2042 4.2956963
2040 4.3486686
2038 4.4107981
2036 4.4666343
2034 4.5024676
2032 4.5191917
2030 4.5244541
2028 4.5280108
2026 4.5365295
2024 4.5413003
2022 4.5277643
2020 4.4869671
2018 4.4151282
2016 4.3181601
2014 4.207242
2012 4.0983882
2010 4.0075116
2008 3.940316
2006 3.8966579
2004 3.8712678
2002 3.858721
2000 3.8608582
1998 3.8793957
1996 3.9001286
1994 3.9021471
1992 3.8679938
1990 3.7898562
1988 3.690026
1986 3.6005764
1984 3.5331841
1982 3.4864874
1980 3.4474998
1978 3.4030395
1976 3.3603315
1974 3.3340139
1972 3.326848
1970 3.3322604
1968 3.3322623
1966 3.3072429
1964 3.2535472
1962 3.1776767
1960 3.094636
1958 3.0206413
1956 2.9618571
1954 2.9187248
1952 2.889715
1950 2.8727846
1948 2.866219
1946 2.8659501
1944 2.8565435
1942 2.8206499
1940 2.7585931
1938 2.6829224
1936 2.6189971
1934 2.5920856
1932 2.6025782
1930 2.6353965
1928 2.6679041
1926 2.6788692
1924 2.6659486
1922 2.6375952
1920 2.6055479
1918 2.5800371
1916 2.5602486
1914 2.5397844
1912 2.5151312
1910 2.4860542
1908 2.4573154
1906 2.4335566
1904 2.4068079
1902 2.3638773
1900 2.2999284
1898 2.2194791
1896 2.1454
1894 2.1047983
1892 2.1001282
1890 2.1179299
1888 2.1398344
1886 2.1492822
1884 2.1446719
1882 2.13234
1880 2.1147051
1878 2.092797
1876 2.07393
1874 2.0689397
1872 2.0868468
1870 2.1293161
1868 2.1731045
1866 2.1841757
1864 2.1460247
1862 2.059541
1860 1.9497716
1858 1.8517013
1856 1.7856228
1854 1.7599833
1852 1.7764492
1850 1.8295796
1848 1.8958321
1846 1.9433893
1844 1.9520434
1842 1.9166495
1840 1.8623354
1838 1.8263384
1836 1.8192772
1834 1.83005
1832 1.834064
1830 1.8041791
1828 1.73125
1826 1.6213558
1824 1.494031
1822 1.3743987
1820 1.279534
1818 1.2165518
1816 1.1747829
1814 1.13466
1812 1.0851303
1810 1.0251436
1808 0.96708906
1806 0.92723447
1804 0.90233541
1802 0.87808251
1800 0.85320395
1798 0.83719939
1796 0.84125572
1794 0.87024051
1792 0.9007712
1790 0.89719123
1788 0.85533059
1786 0.79397172
1784 0.72729009
1782 0.66300684
1780 0.60741937
1778 0.56655419
1776 0.54610544
1774 0.54666102
1772 0.5463537
1770 0.51196331
1768 0.43070373
1766 0.31168535
1764 0.1886078
1762 0.099026255
1760 0.027378116
1758 -0.071650669
1756 -0.19496173
1754 -0.30264789
1752 -0.37178344
1750 -0.40270659
1748 -0.42064291
1746 -0.46055821
1744 -0.52931124
1742 -0.60639888
1740 -0.6510365
1738 -0.62225503
1736 -0.53345603
1734 -0.43928984
1732 -0.38861197
1730 -0.40766189
1728 -0.46590021
1726 -0.49523744
1724 -0.44690597
1722 -0.3020561
1720 -0.084176227
1718 0.16486306
1716 0.45568314
1714 0.83030117
1712 1.2661772
1710 1.7034748
1708 2.1763639
1706 2.8095369
1704 3.76442
1702 5.2190204
1700 7.3528962
1698 10.270207
1696 13.722143
1694 17.2087
1692 20.380146
1690 23.120781
1688 25.6506
1686 28.407949
1684 31.703089
1682 35.607841
1680 39.748001
1678 43.506828
1676 46.745628
1674 49.787262
1672 52.990532
1670 56.60397
1668 60.556492
1666 64.536499
1664 68.338005
1662 71.893173
1660 75.161812
1658 78.117073
1656 80.79686
1654 83.292923
1652 85.687645
1650 87.999634
1648 90.023453
1646 91.410965
1644 92.052765
1642 92.081238
1640 91.626724
1638 90.756264
1636 89.4487
1634 87.632706
1632 85.337715
1630 82.682426
1628 79.72448
1626 76.449326
1624 72.84568
1622 68.935196
1620 64.814621
1618 60.641537
1616 56.557087
1614 52.672039
1612 49.076683
1610 45.83387
1608 42.932903
1606 40.301495
1604 37.8908
1602 35.692017
1600 33.727741
1598 32.035282
1596 30.619999
1594 29.449017
1592 28.480011
1590 27.675137
1588 27.020304
1586 26.521986
1584 26.170433
1582 25.940739
1580 25.829037
1578 25.862484
1576 26.097858
1574 26.602144
1572 27.37464
1570 28.336277
1568 29.378439
1566 30.3883
1564 31.296141
1562 32.119572
1560 33.090122
1558 34.596119
1556 36.763145
1554 39.36462
1552 41.984402
1550 44.148659
1548 45.743908
1546 47.047573
1544 48.282852
1542 49.500408
1540 50.616058
1538 51.448605
1536 51.866543
1534 51.838867
1532 51.459499
1530 50.920422
1528 50.317734
1526 49.614002
1524 48.74585
1522 47.661827
1520 46.360542
1518 44.898354
1516 43.364117
1514 41.844624
1512 40.291359
1510 38.508312
1508 36.327934
1506 33.694786
1504 30.764616
1502 27.884239
1500 25.258919
1498 22.861431
1496 20.580286
1494 18.277088
1492 15.876317
1490 13.39083
1488 10.868074
1486 8.3852482
1484 6.0647459
1482 4.0635891
1480 2.4615285
1478 1.2472999
1476 0.47246203
1474 0.2594628
1472 0.57041878
1470 1.1570628
1468 1.8023568
1466 2.4001257
1464 2.9332833
1462 3.4624443
1460 4.0261269
1458 4.6066461
1456 5.1463199
1454 5.5591211
1452 5.7968197
1450 5.8708267
1448 5.8113256
1446 5.6556711
1444 5.4386873
1442 5.1861749
1440 4.9037862
1438 4.5718341
1436 4.1602402
1434 3.640588
1432 3.0272384
1430 2.3910999
1428 1.8052781
1426 1.3256993
1424 0.98661554
1422 0.7956332
1420 0.7462042
1418 0.81915915
1416 0.98919034
1414 1.228569
1412 1.5221863
1410 1.873316
1408 2.2878313
1406 2.7681122
1404 3.3082445
1402 3.8901293
1400 4.4865561
1398 5.061029
1396 5.5755858
1394 5.9958463
1392 6.3018174
1390 6.4935369
1388 6.5749011
1386 6.5492349
1384 6.420856
1382 6.1964808
1380 5.8881259
1378 5.5146284
1376 5.0949459
1374 4.647121
1372 4.1945481
1370 3.7659912
1368 3.3725972
1366 2.9953299
1364 2.6011283
1362 2.1518044
1360 1.6444679
1358 1.1320655
1356 0.67664814
1354 0.33060917
1352 0.11613646
1350 0.011488454
1348 -0.01348425
1346 0.014825631
1344 0.079634234
1342 0.17678258
1340 0.29640311
1338 0.41521779
1336 0.50928056
1334 0.56189346
1332 0.57831371
1330 0.59522849
1328 0.64494634
1326 0.73983592
1324 0.88174111
1322 1.0627439
1320 1.2747114
1318 1.5120299
1316 1.7641699
1314 2.0116761
1312 2.23176
1310 2.4013867
1308 2.507128
1306 2.5528843
1304 2.5500941
1302 2.5165601
1300 2.4707701
1298 2.4303026
1296 2.4108002
1294 2.4239273
1292 2.474273
1290 2.5555894
1288 2.6590562
1286 2.77671
1284 2.9036541
1282 3.0399752
1280 3.1860013
1278 3.340039
1276 3.5008571
1274 3.6685641
1272 3.8438802
1270 4.0291462
1268 4.2314277
1266 4.4661403
1264 4.7524567
1262 5.1109924
1260 5.5513639
1258 6.06213
1256 6.626657
1254 7.22894
1252 7.8599334
1250 8.5233498
1248 9.2204771
1246 9.9420252
1244 10.671468
1242 11.383045
1240 12.05108
1238 12.65438
1236 13.178957
1234 13.617329
1232 13.95896
1230 14.178244
1228 14.249669
1226 14.156258
1224 13.893909
1222 13.491434
1220 12.980928
1218 12.395249
1216 11.764743
1214 11.111086
1212 10.454421
1210 9.8106594
1208 9.1877251
1206 8.5839043
1204 7.9914837
1202 7.3965364
1200 6.7859082
1198 6.1515484
1196 5.4933071
1194 4.8251438
1192 4.1669159
1190 3.5435009
1188 2.976198
1186 2.4759908
1184 2.0463166
1182 1.6798813
1180 1.3701023
1178 1.1172178
1176 0.924694
1174 0.79808718
1172 0.73597717
1170 0.72043574
1168 0.73160368
1166 0.75424761
1164 0.77690756
1162 0.79356003
1160 0.79441577
1158 0.75952393
1156 0.67590755
1154 0.55263627
1152 0.40947157
1150 0.27732354
1148 0.17815819
1146 0.10747822
1144 0.057202354
1142 0.0251814
1140 0.0083099892
1138 -0.00051272893
1136 0.0035741776
1134 0.05435928
1132 0.17893152
1130 0.37153533
1128 0.61448461
1126 0.88115686
1124 1.1514577
1122 1.4261842
1120 1.711308
1118 2.0121388
1116 2.3241827
1114 2.6206331
1112 2.8797629
1110 3.1063721
1108 3.3115497
1106 3.506485
1104 3.6962984
1102 3.8731666
1100 4.0357323
1098 4.2068305
1096 4.4183145
1094 4.7080846
1092 5.1023722
1090 5.591145
1088 6.1384883
1086 6.664773
1084 7.0943012
1082 7.3912044
1080 7.5512404
1078 7.6273742
1076 7.6781316
1074 7.7401714
1072 7.8362279
1070 7.9661527
1068 8.1211376
1066 8.2823048
1064 8.4256592
1062 8.5197744
1060 8.5405626
1058 8.4907274
1056 8.3847313
1054 8.2505894
1052 8.1089954
1050 7.9502101
1048 7.7551179
1046 7.4996748
1044 7.1697268
1042 6.7832108
1040 6.3693109
1038 5.9646106
1036 5.5988197
1034 5.2751846
1032 4.9876018
1030 4.7223587
1028 4.4670701
1026 4.2192221
1024 3.9722428
1022 3.7005889
1020 3.3770316
1018 2.9841225
1016 2.5190945
1014 2.0170307
1012 1.5188904
1010 1.0542662
1008 0.64193797
1006 0.27628553
1004 -0.051795334
1002 -0.34344369
1000 -0.59333867
998 -0.78253376
996 -0.89611572
994 -0.94294
992 -0.94608927
990 -0.95454401
988 -1.0110211
986 -1.1168265
984 -1.2526921
982 -1.3657688
980 -1.407752
978 -1.3729839
976 -1.2714372
974 -1.129689
972 -0.97322208
970 -0.81069589
968 -0.64560711
966 -0.47892803
964 -0.31191373
962 -0.14906739
960 0.0020883977
958 0.12652496
956 0.21102728
954 0.25504905
952 0.2610532
950 0.23129208
948 0.17322795
946 0.11238785
944 0.064673886
942 -0.0036586449
940 -0.11416097
938 -0.20086171
936 -0.20162629
934 -0.14721315
932 -0.089930177
930 -0.075892121
928 -0.13340697
926 -0.23060691
924 -0.32284918
922 -0.37410495
920 -0.36536074
918 -0.3337273
916 -0.32538158
914 -0.36754358
912 -0.47229338
910 -0.61142451
908 -0.74104273
906 -0.79520011
904 -0.72193229
902 -0.54559624
900 -0.31408632
898 -0.092723593
896 0.048769001
