##TITLE=Methyl Ethyl Ketone
##JCAMP-DX=4.24
##DATA TYPE=INFRARED SPECTRUM
##XUNITS=cm-1
##YUNITS=Absorbance
##FIRSTX=900
##LASTX=2300
##XYDATA=(X++(Y..Y))
2296 -0.0027657
2294 -0.0028232178
2292 -0.0028806357
2290 -0.0029381532
2288 -0.0029957704
2286 -0.0030533879
2284 -0.0031109063
2282 -0.0031683249
2280 -0.0032258418
2278 -0.0032833593
2276 -0.0033409758
2274 -0.0033984948
2272 -0.0034560126
2270 -0.0035135304
2268 -0.0035710479
2266 -0.0036286637
2264 -0.0036861834
2262 -0.0037437011
2260 -0.0038012189
2258 -0.0038587365
2256 -0.0039163516
2254 -0.0039738719
2252 -0.0040312926
2250 -0.0040889042
2248 -0.0041464251
2246 -0.0042039426
2244 -0.00015622286
2242 0.020442855
2240 0.045268759
2238 0.074799925
2236 0.10504112
2234 0.12416407
2232 0.14146097
2230 0.13590397
2228 0.12564757
2226 0.086874954
2224 0.04615644
2222 0.0033031057
2220 -0.029495835
2218 -0.031238558
2216 -0.022485457
2214 0.0053662928
2212 0.031545486
2210 0.053139929
2208 0.068465032
2206 0.076318055
2204 0.071181677
2202 0.053956389
2200 0.01880281
2198 -0.02917207
2196 -0.069303289
2194 -0.10440362
2192 -0.10436652
2190 -0.089062713
2188 -0.066187769
2186 -0.041183878
2184 -0.047151119
2182 -0.060277618
2180 -0.088946559
2178 -0.11957965
2176 -0.12469343
2174 -0.12425449
2172 -0.08726985
2170 -0.046386559
2168 -0.0029198341
2166 0.033272967
2164 0.042097386
2162 0.043123335
2160 0.031147651
2158 0.017086167
2156 0.0015261916
2154 -0.018377017
2152 -0.044347681
2150 -0.064798065
2148 -0.078305073
2146 -0.080885679
2144 -0.074436426
2142 -0.077387914
2140 -0.087494776
2138 -0.10336492
2136 -0.12198772
2134 -0.11841983
2132 -0.10547774
2130 -0.081480525
2128 -0.05425328
2126 -0.056100305
2124 -0.064733475
2122 -0.09332379
2120 -0.12381627
2118 -0.1317337
2116 -0.13477001
2114 -0.1258558
2112 -0.1175996
2110 -0.12021067
2108 -0.12550546
2106 -0.13402721
2104 -0.14172143
2102 -0.14644553
2100 -0.1500414
2098 -0.15243603
2096 -0.14964715
2094 -0.14017923
2092 -0.12614617
2090 -0.10838566
2088 -0.1008624
2086 -0.102468
2084 -0.1091964
2082 -0.11855423
2080 -0.11646263
2078 -0.10805946
2076 -0.10901529
2074 -0.11412993
2072 -0.13416201
2070 -0.15879944
2068 -0.16035369
2066 -0.15559115
2064 -0.13589513
2062 -0.11484323
2060 -0.11308274
2058 -0.1182191
2056 -0.14046115
2054 -0.1686569
2052 -0.20515576
2050 -0.24258058
2048 -0.27709246
2046 -0.30341572
2044 -0.31438181
2042 -0.3116453
2040 -0.29362535
2038 -0.27142197
2036 -0.24881828
2034 -0.24036689
2032 -0.24551629
2030 -0.25946259
2028 -0.27777901
2026 -0.27742463
2024 -0.26417479
2022 -0.23547286
2020 -0.19944808
2018 -0.18243471
2016 -0.174302
2014 -0.17980959
2012 -0.19036046
2010 -0.19261591
2008 -0.19351754
2006 -0.2033515
2004 -0.21689251
2002 -0.2380569
2000 -0.25820041
1998 -0.26224491
1996 -0.25934643
1994 -0.24563497
1992 -0.23148794
1990 -0.22554931
1988 -0.22322801
1986 -0.22790186
1984 -0.23834932
1982 -0.25441191
1980 -0.27697805
1978 -0.30371994
1976 -0.31792569
1974 -0.31869379
1972 -0.29530889
1970 -0.25478613
1968 -0.21908171
1966 -0.18858837
1964 -0.18937114
1962 -0.20730031
1960 -0.23489921
1958 -0.26616463
1956 -0.28464958
1954 -0.29864711
1952 -0.30415446
1950 -0.3090786
1948 -0.3198854
1946 -0.33554751
1944 -0.36962047
1942 -0.40616864
1940 -0.44349951
1938 -0.47444171
1936 -0.49096143
1934 -0.50533813
1932 -0.51966655
1930 -0.54403955
1928 -0.58003753
1926 -0.61729747
1924 -0.64925152
1922 -0.65293217
1920 -0.62998962
1918 -0.58520472
1916 -0.53093672
1914 -0.48953834
1912 -0.45915681
1910 -0.45391327
1908 -0.46219254
1906 -0.49001193
1904 -0.52811003
1902 -0.55316782
1900 -0.57284945
1898 -0.56425738
1896 -0.54561281
1894 -0.53122842
1892 -0.5206576
1890 -0.53075647
1888 -0.55087876
1886 -0.58713549
1884 -0.63218874
1882 -0.68731582
1880 -0.74304461
1878 -0.78828317
1876 -0.81773001
1874 -0.81731683
1872 -0.79324698
1870 -0.74406946
1868 -0.69276464
1866 -0.65741527
1864 -0.6520499
1862 -0.68144798
1860 -0.71915305
1858 -0.75300521
1856 -0.77647483
1854 -0.78892756
1852 -0.81193918
1850 -0.83998561
1848 -0.8759672
1846 -0.91206175
1844 -0.93096513
1842 -0.93753099
1840 -0.93718755
1838 -0.93768883
1836 -0.94979799
1834 -0.97004277
1832 -0.98169601
1830 -0.97833604
1828 -0.9419015
1826 -0.88467789
1824 -0.82733244
1822 -0.78694761
1820 -0.78147697
1818 -0.7983644
1816 -0.82117146
1814 -0.84190905
1812 -0.85234141
1810 -0.85349476
1808 -0.84983492
1806 -0.82977051
1804 -0.79492652
1802 -0.75114608
1800 -0.69909698
1798 -0.64235026
1796 -0.58210647
1794 -0.4951795
1792 -0.3945708
1790 -0.29422912
1788 -0.2011888
1786 -0.14395364
1784 -0.11073784
1782 -0.083929054
1780 -0.062557787
1778 -0.037150901
1776 -0.011149
1774 0.0098478356
1772 0.031071093
1770 0.039606631
1768 0.043589264
1766 0.039924581
1764 0.034472182
1762 0.044745065
1760 0.019812858
1758 -0.066460207
1756 -0.14501214
1754 -0.17836536
1752 -0.14312229
1750 -0.037994269
1748 0.09687826
1746 0.23688321
1744 0.293764
1742 0.26099879
1740 0.17604405
1738 0.065502398
1736 0.0546326
1734 0.12962142
1732 0.23093113
1730 0.3359082
1728 0.29184732
1726 0.14301454
1724 0.010089286
1722 -0.081501521
1720 0.03398063
1718 0.3684637
1716 0.98520803
1714 1.7643226
1712 2.5266771
1710 3.2487235
1708 3.9193339
1706 4.7036986
1704 5.7699757
1702 7.4073663
1700 9.7618141
1698 13.04337
1696 17.199286
1694 21.40568
1692 25.290886
1690 28.711365
1688 31.737764
1686 35.270451
1684 39.413151
1682 44.404594
1680 50.063641
1678 55.060444
1676 59.422756
1674 63.601871
1672 67.72625
1670 72.518692
1668 77.783997
1666 82.83345
1664 87.548813
1662 91.507019
1660 94.749435
1658 97.321198
1656 99.258171
1654 100.64474
1652 101.3722
1650 101.34919
1648 100.35429
1646 98.238754
1644 95.470932
1642 92.501991
1640 89.270927
1638 85.795731
1636 81.720642
1634 76.966537
1632 72.201508
1630 67.648323
1628 63.437328
1626 59.557926
1624 55.561798
1622 51.397888
1620 47.303467
1618 43.304909
1616 39.614056
1614 36.252441
1612 33.365009
1610 30.951559
1608 28.947075
1606 27.323786
1604 25.925444
1602 24.762302
1600 23.811686
1598 23.088587
1596 22.5835
1594 22.292799
1592 22.177559
1590 22.212111
1588 22.348454
1586 22.573578
1584 22.872663
1582 23.239941
1580 23.671743
1578 24.223642
1576 24.911085
1574 25.786266
1572 26.848211
1570 28.015343
1568 29.26296
1566 30.491636
1564 31.694527
1562 33.050369
1560 34.653542
1558 37.136002
1556 40.567715
1554 44.34013
1552 48.221657
1550 51.229145
1548 53.378536
1546 55.175072
1544 56.622471
1542 57.84296
1540 58.684742
1538 58.926426
1536 58.524429
1534 57.535633
1532 56.14629
1530 54.639713
1528 53.041531
1526 51.375099
1524 49.512936
1522 47.36253
1520 44.948639
1518 42.241997
1516 39.69236
1514 37.467064
1512 35.399281
1510 33.503044
1508 31.124643
1506 28.104401
1504 25.035212
1502 21.959698
1500 19.360786
1498 17.286171
1496 15.221857
1494 13.163824
1492 11.063781
1490 8.9459181
1488 6.8768978
1486 4.9319243
1484 3.2272358
1482 1.8365138
1480 0.8311249
1478 0.23019797
1476 0.045883693
1474 0.38867372
1472 1.2269007
1470 2.2844
1468 3.3832779
1466 4.3305745
1464 5.0069952
1462 5.5553441
1460 6.0182877
1458 6.4613242
1456 6.8905196
1454 7.2378817
1452 7.4408431
1450 7.5266242
1448 7.4385529
1446 7.2950644
1444 7.0770149
1442 6.8345032
1440 6.5574236
1438 6.2283311
1436 5.82377
1434 5.3025999
1432 4.6759887
1430 4.0455217
1428 3.451932
1426 2.9994102
1424 2.6954989
1422 2.5268927
1420 2.4920084
1418 2.5644681
1416 2.7291744
1414 2.971736
1412 3.2446649
1410 3.5385962
1408 3.8417542
1406 4.1577487
1404 4.4896336
1402 4.8353291
1400 5.1899157
1398 5.5513053
1396 5.9045858
1394 6.2322569
1392 6.4987807
1390 6.6376257
1388 6.6654086
1386 6.5122099
1384 6.2527738
1382 5.8486938
1380 5.3914824
1378 4.8784337
1376 4.3607998
1374 3.860692
1372 3.403666
1370 2.9948831
1368 2.6284227
1366 2.2653756
1364 1.8502786
1362 1.396328
1360 0.91080129
1358 0.46920609
1356 0.16965753
1354 -0.011782292
1352 -0.023637086
1350 0.04001686
1348 0.1714702
1346 0.33509713
1344 0.53166759
1342 0.74587709
1340 0.99367523
1338 1.2393196
1336 1.4711428
1334 1.683056
1332 1.8401614
1330 2.0005121
1328 2.1700737
1326 2.3754094
1324 2.6455011
1322 2.9552341
1320 3.3202839
1318 3.698271
1316 4.0815897
1314 4.4298601
1312 4.7268467
1310 4.9634743
1308 5.1390238
1306 5.2694964
1304 5.3612361
1302 5.414268
1300 5.4362998
1298 5.4110312
1296 5.3656287
1294 5.3008399
1292 5.2433033
1290 5.2141614
1288 5.1982121
1286 5.2045794
1284 5.2083392
1282 5.1988358
1280 5.1893845
1278 5.1804538
1276 5.1837254
1274 5.2140718
1272 5.2540426
1270 5.3116746
1268 5.3689079
1266 5.4249892
1264 5.4865856
1262 5.5560155
1260 5.6442299
1258 5.7523975
1256 5.87146
1254 5.9984736
1252 6.1246381
1250 6.2486935
1248 6.3683448
1246 6.4782753
1244 6.5590739
1242 6.612175
1240 6.6067433
1238 6.5649676
1236 6.4574327
1234 6.3157034
1232 6.1033239
1230 5.8585453
1228 5.5317554
1226 5.1756415
1224 4.7411504
1222 4.287178
1220 3.7876782
1218 3.289505
1216 2.7975545
1214 2.3301013
1212 1.9080983
1210 1.5200784
1208 1.1823543
1206 0.87500083
1204 0.60659361
1202 0.36963987
1200 0.17063008
1198 0.01675915
1196 -0.093915716
1194 -0.158525
1192 -0.19051509
1190 -0.19526489
1188 -0.18358535
1186 -0.15376222
1184 -0.11187967
1182 -0.045026843
1180 0.044588149
1178 0.20501912
1176 0.40377599
1174 0.71941203
1172 1.0471619
1170 1.3919469
1168 1.6957937
1166 1.8698529
1164 1.9928914
1162 1.989957
1160 1.9568777
1158 1.8632319
1156 1.7496829
1154 1.6025405
1152 1.4373593
1150 1.2463806
1148 1.0353148
1146 0.80336714
1144 0.57055491
1142 0.34569779
1140 0.1697664
1138 0.041847039
1136 -0.0015471114
1134 0.017100342
1132 0.14642888
1130 0.32923722
1128 0.57125396
1126 0.81812108
1124 1.0064956
1122 1.167778
1120 1.240352
1118 1.3011063
1116 1.3416371
1114 1.3877401
1112 1.4597114
1110 1.5464911
1108 1.6806242
1106 1.8237051
1104 1.9847527
1102 2.116627
1100 2.1866105
1098 2.2078683
1096 2.1530142
1094 2.0777006
1092 1.978844
1090 1.8901252
1088 1.8136578
1086 1.7558964
1084 1.713976
1082 1.6828583
1080 1.6598731
1078 1.6466689
1076 1.6406171
1074 1.6532521
1072 1.6685828
1070 1.6613464
1068 1.6371192
1066 1.5276314
1064 1.405288
1062 1.2706537
1060 1.1533422
1058 1.1517818
1056 1.1614772
1054 1.2187964
1052 1.2515303
1050 1.2051899
1048 1.1383275
1046 1.0247006
1044 0.93231666
1042 0.87982762
1040 0.843445
1038 0.82714301
1036 0.78396201
1034 0.70813513
1032 0.60561424
1030 0.48076946
1028 0.36331511
1026 0.25240564
1024 0.15485996
1022 0.066032633
1020 -0.0025382228
1018 -0.059426054
1016 -0.071884319
1014 -0.075134464
1012 -0.10849337
1010 -0.15580668
1008 -0.30463359
1006 -0.46029502
1004 -0.59741712
1002 -0.71910119
1000 -0.73666757
998 -0.74442124
996 -0.70936573
994 -0.67459571
992 -0.64127082
990 -0.60986054
988 -0.58340377
986 -0.56423163
984 -0.55821502
982 -0.57015884
980 -0.60639483
978 -0.65629208
976 -0.7197817
974 -0.77206302
972 -0.81357026
970 -0.82047778
968 -0.80420381
966 -0.75256097
964 -0.68432122
962 -0.60503221
960 -0.52219146
958 -0.43349048
956 -0.34317943
954 -0.2398825
952 -0.13682596
950 -0.075437352
948 -0.018834755
946 -0.0062072999
944 0.0009062402
942 0.029037833
940 0.11169258
938 0.30072778
936 0.48644429
934 0.66187942
932 0.80460382
930 0.87665176
928 0.90255082
926 0.85405821
924 0.76298559
922 0.62096459
920 0.50549674
918 0.41551331
916 0.39353842
914 0.41918862
912 0.43690288
910 0.45096028
908 0.44794938
906 0.44028699
904 0.51128989
902 0.60415596
900 0.7593537
898 0.92484444
896 1.0468
