##TITLE=Methyl Ethyl Ketone
##JCAMP-DX=4.24
##DATA TYPE=INFRARED SPECTRUM
##XUNITS=cm-1
##YUNITS=Absorbance
##FIRSTX=900
##LASTX=2300
##XYDATA=(X++(Y..Y))
2296 0.038112
2294 0.03892184
2292 0.039731681
2290 0.040541526
2288 0.041351367
2286 0.042161208
2284 0.042971049
2282 0.043780889
2280 0.04459073
2278 0.045399584
2276 0.046209414
2274 0.047019254
2272 0.047829099
2270 0.04863894
2268 0.049448781
2266 0.050258622
2264 0.051068462
2262 0.051878303
2260 0.052688144
2258 0.053497013
2256 0.054306827
2254 0.055116668
2252 0.055926513
2250 0.056736354
2248 0.057546195
2246 0.058356036
2244 0.026859133
2242 0.00098908716
2240 -0.03856992
2238 -0.066037342
2236 -0.091605209
2234 -0.16412053
2232 -0.23876286
2230 -0.28500143
2228 -0.31751814
2226 -0.25132549
2224 -0.17244342
2222 -0.058419444
2220 0.056394648
2218 0.16790858
2216 0.27859798
2214 0.38784698
2212 0.4616574
2210 0.47772971
2208 0.41108194
2206 0.24572943
2204 0.063445047
2202 -0.1291078
2200 -0.20634994
2198 -0.1969161
2196 -0.092369072
2194 0.063712269
2192 0.16158044
2190 0.23240511
2188 0.20987123
2186 0.15757172
2184 0.1373848
2182 0.12501389
2180 0.17787629
2178 0.23980731
2176 0.25135943
2174 0.25219646
2172 0.18431857
2170 0.1123365
2168 0.054302212
2166 0.008160308
2164 0.00048821967
2162 -0.014074004
2160 -0.056108065
2158 -0.12971765
2156 -0.25795302
2154 -0.37562123
2152 -0.46981949
2150 -0.50420666
2148 -0.47396779
2146 -0.41470179
2144 -0.33572948
2142 -0.25919101
2140 -0.18573214
2138 -0.12551247
2136 -0.072352804
2134 -0.062122881
2132 -0.069762915
2130 -0.093222417
2128 -0.12123104
2126 -0.13341692
2124 -0.14180502
2122 -0.19077286
2120 -0.24821863
2118 -0.34314358
2116 -0.44051701
2114 -0.51650131
2112 -0.58806676
2110 -0.65395433
2108 -0.71723652
2106 -0.77514714
2104 -0.81652695
2102 -0.82311046
2100 -0.81872618
2098 -0.80451757
2096 -0.76671141
2094 -0.69981891
2092 -0.58750415
2090 -0.43253416
2088 -0.32598153
2086 -0.26462701
2084 -0.28932548
2082 -0.36678511
2080 -0.42135143
2078 -0.4601548
2076 -0.48380387
2074 -0.50190705
2072 -0.54239756
2070 -0.59024233
2068 -0.6042816
2066 -0.61011982
2064 -0.63638395
2062 -0.67088652
2060 -0.75134587
2058 -0.83782339
2056 -0.90768087
2054 -0.97194791
2052 -1.027174
2050 -1.0789508
2048 -1.1255223
2046 -1.1557785
2044 -1.1558441
2042 -1.1185373
2040 -1.0340154
2038 -0.91703206
2036 -0.77252257
2034 -0.67695838
2032 -0.63360918
2030 -0.70196354
2028 -0.85042584
2026 -0.9965831
2024 -1.132388
2022 -1.1208595
2020 -1.0332609
2018 -0.91638601
2016 -0.79168802
2014 -0.87292975
2012 -1.0244651
2010 -1.3261063
2008 -1.660056
2006 -1.8859822
2004 -2.0652835
2002 -2.108494
2000 -2.119132
1998 -2.1358259
1996 -2.1543143
1994 -2.172025
1992 -2.1646051
1990 -2.1032834
1988 -2.0384059
1986 -1.9933236
1984 -2.0030515
1982 -2.0824807
1980 -2.209048
1978 -2.3693855
1976 -2.47716
1974 -2.528677
1972 -2.4047065
1970 -2.1545563
1968 -1.8553429
1966 -1.5397986
1964 -1.4849157
1962 -1.5697795
1960 -1.81898
1958 -2.1326427
1956 -2.3044672
1954 -2.4199691
1952 -2.4184599
1950 -2.3837039
1948 -2.3729203
1946 -2.3854499
1944 -2.4831719
1942 -2.6222379
1940 -2.8231299
1938 -3.0170417
1936 -3.1451485
1934 -3.2058711
1932 -3.1671278
1930 -3.1062195
1928 -3.0525684
1926 -2.9968171
1924 -2.9336042
1922 -2.7572434
1920 -2.4626098
1918 -2.1156008
1916 -1.7505572
1914 -1.4848297
1912 -1.2974417
1910 -1.2177244
1908 -1.1967257
1906 -1.3378299
1904 -1.5633039
1902 -1.8070745
1900 -2.0558422
1898 -2.0411868
1896 -1.9128714
1894 -1.649552
1892 -1.3647646
1890 -1.2938391
1888 -1.3661566
1886 -1.7068036
1884 -2.137934
1882 -2.5412183
1880 -2.8539376
1878 -2.9766009
1876 -2.93799
1874 -2.7174823
1872 -2.3098924
1870 -1.7078848
1868 -1.1341724
1866 -0.67807657
1864 -0.63942122
1862 -1.0115513
1860 -1.5712328
1858 -2.2014439
1856 -2.6173315
1854 -2.8523993
1852 -2.7867084
1850 -2.5398841
1848 -2.0963161
1846 -1.5501928
1844 -1.2151572
1842 -1.0054463
1840 -1.2267147
1838 -1.6451104
1836 -2.0015285
1834 -2.264606
1832 -2.1718175
1830 -1.8776833
1828 -1.4374797
1826 -1.0387855
1824 -0.93509036
1822 -1.0672545
1820 -1.4413381
1818 -1.8690703
1816 -2.2195685
1814 -2.4449778
1812 -2.5273185
1810 -2.4990103
1808 -2.39572
1806 -2.1917701
1804 -1.9065535
1802 -1.5642402
1800 -1.1865731
1798 -0.80656564
1796 -0.43007642
1794 -0.08446607
1792 0.2359457
1790 0.31916302
1788 0.2493058
1786 0.061633978
1784 -0.17673239
1782 -0.23808002
1780 -0.16939095
1778 0.1224902
1776 0.55441058
1774 1.0777643
1772 1.5355794
1770 1.6251276
1768 1.4290817
1766 0.96296573
1764 0.48879659
1762 0.25311875
1760 0.077429034
1758 -0.16086766
1756 -0.32377356
1754 -0.34531456
1752 0.019226819
1750 0.79944515
1748 1.716168
1746 2.6395142
1744 3.0186851
1742 2.8712232
1740 2.5410037
1738 2.150588
1736 2.1728001
1734 2.5239112
1732 2.7310069
1730 2.7867756
1728 2.2121761
1726 1.2371056
1724 0.42960304
1722 -0.131336
1720 0.12407744
1718 1.0986516
1716 2.6715755
1714 4.3339329
1712 5.3333445
1710 5.8652177
1708 6.1540418
1706 6.6507077
1704 7.7839098
1702 9.7883739
1700 12.73854
1698 16.30134
1696 20.17
1694 23.540112
1692 26.153042
1690 28.522158
1688 30.885744
1686 34.191895
1684 38.453026
1682 43.331589
1680 48.608799
1678 52.950893
1676 56.459499
1674 60.03236
1672 63.751656
1670 68.124969
1668 72.964745
1666 77.61985
1664 82.074005
1662 86.244461
1660 90.15155
1658 93.833763
1656 97.317261
1654 100.65414
1652 103.6404
1650 106.03023
1648 106.97388
1646 105.78143
1644 103.13043
1642 99.735764
1640 96.12587
1638 92.655869
1636 88.720169
1634 84.106331
1632 79.12941
1630 73.946793
1628 69.127243
1626 64.760857
1624 60.459198
1622 56.155033
1620 51.915173
1618 47.738377
1616 43.614117
1614 39.567829
1612 35.801079
1610 32.377251
1608 29.52692
1606 27.226213
1604 25.29903
1602 23.721554
1600 22.378103
1598 21.282063
1596 20.4175
1594 19.788763
1592 19.363405
1590 19.104362
1588 18.951595
1586 18.925613
1584 19.03212
1582 19.38448
1580 20.033895
1578 21.084438
1576 22.555344
1574 24.206877
1572 25.943449
1570 27.401718
1568 28.501921
1566 29.465878
1564 30.336023
1562 31.664032
1560 33.578262
1558 36.471157
1556 40.290043
1554 43.691761
1552 46.496319
1550 48.39687
1548 49.580212
1546 50.980572
1544 52.627743
1542 54.495083
1540 56.02792
1538 56.319592
1536 55.343399
1534 53.285168
1532 50.854565
1530 48.864555
1528 47.337807
1526 46.269749
1524 45.375698
1522 44.47123
1520 43.168823
1518 41.248108
1516 39.029488
1514 36.590725
1512 34.314838
1510 32.323891
1508 29.957842
1506 27.061279
1504 23.853481
1502 20.336002
1500 17.377731
1498 15.08266
1496 13.050143
1494 11.312722
1492 9.6867428
1490 8.1608095
1488 6.6186624
1486 5.0328102
1484 3.361012
1482 1.7762847
1480 0.58202428
1478 -0.066623643
1476 0.006949693
1474 0.77153444
1472 2.0514073
1470 3.3281729
1468 4.2079611
1466 4.7969127
1464 5.1358762
1462 5.6167622
1460 6.4561591
1458 7.4309411
1456 8.5082207
1454 9.1077566
1452 8.9302416
1450 8.4824677
1448 7.6867075
1446 6.9440179
1444 6.2852325
1442 5.7057071
1440 5.2613802
1438 4.9939032
1436 4.926796
1434 4.8791246
1432 4.7969589
1430 4.529501
1428 4.1255021
1426 3.7864866
1424 3.594775
1422 3.6726258
1420 3.9636376
1418 4.3621178
1416 4.722414
1414 4.872509
1412 4.8973536
1410 4.8570004
1408 4.8817368
1406 5.0832157
1404 5.4088216
1402 5.8856959
1400 6.4059958
1398 6.9603605
1396 7.4294572
1394 7.726305
1392 7.870028
1390 7.7435713
1388 7.5152168
1386 7.1227098
1384 6.6404834
1382 6.0527086
1380 5.4945412
1378 5.0053639
1376 4.6432629
1374 4.4129324
1372 4.1948638
1370 3.9777901
1368 3.7357922
1366 3.477277
1364 3.2364156
1362 2.9677999
1360 2.5937743
1358 2.1312091
1356 1.5693072
1354 1.0046571
1352 0.53007042
1350 0.15303577
1348 -0.057894744
1346 -0.14057724
1344 -0.0095911548
1342 0.23346803
1340 0.66995931
1338 1.0492653
1336 1.2815286
1334 1.3452309
1332 1.1000657
1330 0.85584837
1328 0.6396262
1326 0.57424563
1324 0.75079399
1322 1.0978765
1320 1.655416
1318 2.267853
1316 2.88521
1314 3.3275938
1312 3.5543721
1310 3.545192
1308 3.3605103
1306 3.1320071
1304 2.9178081
1302 2.817471
1300 2.7874405
1298 2.8148541
1296 2.8439429
1294 2.8220038
1292 2.7834105
1290 2.7291682
1288 2.6839321
1286 2.6668887
1284 2.6485739
1282 2.6205108
1280 2.5986862
1278 2.5953014
1276 2.6410286
1274 2.7862291
1272 2.973593
1270 3.2244341
1268 3.4522066
1266 3.6431372
1264 3.8103633
1262 3.962153
1260 4.1678081
1258 4.4391704
1256 4.7724714
1254 5.1471734
1252 5.5006099
1250 5.8318481
1248 6.1320338
1246 6.4240499
1244 6.7379632
1242 7.0691299
1240 7.4280281
1238 7.7900534
1236 8.1379833
1234 8.4382734
1232 8.5940113
1230 8.6615105
1228 8.490613
1226 8.2633982
1224 7.8949189
1222 7.5271416
1220 7.1637902
1218 6.8244801
1216 6.5262604
1214 6.1990986
1212 5.817883
1210 5.3879128
1208 4.8988323
1206 4.4328065
1204 3.9991701
1202 3.6024089
1200 3.241044
1198 2.8919492
1196 2.5538001
1194 2.2237301
1192 1.8988663
1190 1.576422
1188 1.2683468
1186 1.0151868
1184 0.8096835
1182 0.72608829
1180 0.69741422
1178 0.78102738
1176 0.88585997
1174 1.0147707
1172 1.1264871
1170 1.1649717
1168 1.1880012
1166 1.1633364
1164 1.1386526
1162 1.112311
1160 1.0740348
1158 1.0127192
1156 0.94744974
1154 0.87668556
1152 0.80832416
1150 0.73780262
1148 0.63523859
1146 0.49789181
1144 0.35036486
1142 0.20159993
1140 0.093131907
1138 0.02619067
1136 0.040913686
1134 0.12495448
1132 0.33151993
1130 0.61295414
1128 1.0420442
1126 1.5178037
1124 2.027781
1122 2.512948
1120 2.8345199
1118 3.1132998
1116 3.2445657
1114 3.3758647
1112 3.5173624
1110 3.65886
1108 3.8000243
1106 3.9379001
1104 4.0704479
1102 4.2262583
1100 4.4307475
1098 4.6711931
1096 4.9666858
1094 5.2674894
1092 5.572072
1090 5.8586726
1088 6.1309223
1086 6.4241309
1084 6.729548
1082 7.0078411
1080 7.2537875
1078 7.3818154
1076 7.4547644
1074 7.5103445
1072 7.5604119
1070 7.6121755
1068 7.6364965
1066 7.4597621
1064 7.2496758
1062 6.9856615
1060 6.7769947
1058 6.9434643
1056 7.1742773
1054 7.6813564
1052 8.1496878
1050 8.4865036
1048 8.7107553
1046 8.6593714
1044 8.5255766
1042 8.2388754
1040 7.9397326
1038 7.6257305
1036 7.3435497
1034 7.0975008
1032 6.8524971
1030 6.6025476
1028 6.2886457
1026 5.9291511
1024 5.5490055
1022 5.1657867
1020 4.8635349
1018 4.600554
1016 4.42696
1014 4.2726793
1012 4.0666771
1010 3.8360224
1008 3.425396
1006 2.9935923
1004 2.4906983
1002 2.0016806
1000 1.6128297
998 1.257955
996 1.0534042
994 0.87681377
992 0.7850799
990 0.6738137
988 0.51684213
986 0.34114563
984 0.13597371
982 -0.029694244
980 -0.1387344
978 -0.18434668
976 -0.16055599
974 -0.062463216
972 0.094491482
970 0.24995551
968 0.40202793
966 0.50211149
964 0.58136523
962 0.71096343
960 0.8546347
958 0.9578703
956 1.0426326
954 0.90944505
952 0.74540997
950 0.47130758
948 0.20297942
946 0.082023695
944 0.0012413291
942 0.0081843883
940 0.26727551
938 0.84565037
936 1.4442201
934 2.0993381
932 2.6543071
930 2.9942341
928 3.2473285
926 3.3640242
924 3.5676961
922 3.8770683
920 4.1872315
918 4.4939451
916 4.5578656
914 4.4488525
912 4.2035785
910 3.8882411
908 3.6830099
906 3.5221937
904 3.5215418
902 3.5640795
900 3.6758525
898 3.7991819
896 3.9963
