##TITLE=Methyl Ethyl Ketone
##JCAMP-DX=4.24
##DATA TYPE=INFRARED SPECTRUM
##XUNITS=cm-1
##YUNITS=Absorbance
##FIRSTX=900
##LASTX=2300
##XYDATA=(X++(Y..Y))
2296 0.15245999
2294 0.15562548
2292 0.15880091
2290 0.16197637
2288 0.16514188
2286 0.16831729
2284 0.17148283
2282 0.17465819
2280 0.17783366
2278 0.18099925
2276 0.18417457
2274 0.18735002
2272 0.19051565
2270 0.19367132
2268 0.19685619
2266 0.20009057
2264 0.20320868
2262 0.20617788
2260 0.20954308
2258 0.21347278
2256 0.21591142
2254 0.2162613
2252 0.22213955
2250 0.23581196
2248 0.22894989
2246 0.17473821
2244 0.086650938
2242 -0.0068020057
2240 -0.062176399
2238 -0.042463191
2236 0.046810016
2234 0.1839868
2232 0.33137521
2230 0.44889057
2228 0.50496697
2226 0.48208052
2224 0.40908492
2222 0.32736382
2220 0.27408874
2218 0.27549151
2216 0.31931886
2214 0.38132647
2212 0.43518779
2210 0.46096265
2208 0.46671337
2206 0.46736494
2204 0.47126728
2202 0.48321006
2200 0.50228733
2198 0.52715904
2196 0.56170857
2194 0.6090017
2192 0.66199017
2190 0.7111668
2188 0.75024313
2186 0.77504706
2184 0.78569597
2182 0.78336442
2180 0.76826894
2178 0.74016368
2176 0.69847715
2174 0.64426422
2172 0.58545607
2170 0.53036928
2168 0.47948447
2166 0.43075472
2164 0.38255739
2162 0.33839324
2160 0.32197532
2158 0.35727602
2156 0.441533
2154 0.56038123
2152 0.68996584
2150 0.8071506
2148 0.90390992
2146 0.97725928
2144 1.0229597
2142 1.036945
2140 1.0180182
2138 0.96688455
2136 0.88894826
2134 0.79457748
2132 0.70861787
2130 0.65472436
2128 0.63058519
2126 0.62088692
2124 0.5961194
2122 0.53154254
2120 0.44230205
2118 0.35582885
2116 0.28914857
2114 0.25154009
2112 0.23813424
2110 0.24124445
2108 0.26278505
2106 0.30613148
2104 0.36515057
2102 0.42835993
2100 0.47758281
2098 0.49448001
2096 0.46990857
2094 0.40016198
2092 0.28891522
2090 0.14689349
2088 0.0028526336
2086 -0.10916415
2084 -0.16216619
2082 -0.14192404
2080 -0.074585944
2078 -0.0010692114
2076 0.042751029
2074 0.032631256
2072 -0.018443361
2070 -0.083325133
2068 -0.1382183
2066 -0.16502857
2064 -0.16096795
2062 -0.1309413
2060 -0.08597824
2058 -0.040540028
2056 -0.014058571
2054 -0.022113597
2052 -0.055859983
2050 -0.09676607
2048 -0.12930056
2046 -0.14428321
2044 -0.1519032
2042 -0.16657731
2040 -0.18615617
2038 -0.2022036
2036 -0.21165086
2034 -0.21844545
2032 -0.24444914
2030 -0.31354389
2028 -0.42571965
2026 -0.56066233
2024 -0.6587379
2022 -0.65438515
2020 -0.52864718
2018 -0.30081061
2016 -0.05971
2014 0.092382774
2012 0.12423594
2010 0.050711673
2008 -0.062606789
2006 -0.1416062
2004 -0.16625562
2002 -0.1454322
2000 -0.099136598
1998 -0.049498465
1996 -0.012627658
1994 0.00044392317
1992 -0.012703338
1990 -0.048060052
1988 -0.090754285
1986 -0.12536107
1984 -0.15520366
1982 -0.19183323
1980 -0.24206494
1978 -0.30377969
1976 -0.34899342
1974 -0.34246981
1972 -0.27112874
1970 -0.14361931
1968 -0.011544479
1966 0.060031265
1964 0.036084548
1962 -0.089774132
1960 -0.27149159
1958 -0.4439356
1956 -0.56834674
1954 -0.62868458
1952 -0.64118731
1950 -0.63413107
1948 -0.62136549
1946 -0.60538495
1944 -0.57660693
1942 -0.52379787
1940 -0.45285109
1938 -0.37922898
1936 -0.31931829
1934 -0.28688276
1932 -0.28543881
1930 -0.31049147
1928 -0.34626019
1926 -0.37014422
1924 -0.35425815
1922 -0.27889073
1920 -0.1703656
1918 -0.076005541
1916 -0.025164384
1914 -0.028342616
1912 -0.065745078
1910 -0.10824983
1908 -0.15425752
1906 -0.21479851
1904 -0.28370041
1902 -0.34272459
1900 -0.36923856
1898 -0.34529203
1896 -0.27988285
1894 -0.19787665
1892 -0.12622443
1890 -0.089653403
1888 -0.10409348
1886 -0.17703836
1884 -0.30092624
1882 -0.45826238
1880 -0.623891
1878 -0.77038693
1876 -0.87659401
1874 -0.92802662
1872 -0.92192382
1870 -0.86780274
1868 -0.80049765
1866 -0.76376259
1864 -0.77709395
1862 -0.83757597
1860 -0.91368753
1858 -0.96552306
1856 -0.98545486
1854 -0.98715824
1852 -0.98475748
1850 -0.9865045
1848 -0.9830628
1846 -0.95699072
1844 -0.9022516
1842 -0.82311422
1840 -0.73323125
1838 -0.64753979
1836 -0.56443644
1834 -0.47096789
1832 -0.35249519
1830 -0.20398439
1828 -0.062908895
1826 0.011353293
1824 -0.017014952
1822 -0.15427622
1820 -0.3555522
1818 -0.5495764
1816 -0.68609172
1814 -0.74114156
1812 -0.7315616
1810 -0.69425535
1808 -0.6447342
1806 -0.58285904
1804 -0.51479912
1802 -0.45338106
1800 -0.41345799
1798 -0.40151674
1796 -0.38323358
1794 -0.30835065
1792 -0.17975241
1790 -0.038377192
1788 0.081614248
1786 0.16202092
1784 0.21392407
1782 0.26413724
1780 0.32438242
1778 0.3950161
1776 0.48334026
1774 0.59674603
1772 0.71328795
1770 0.78880179
1768 0.77591217
1766 0.64428544
1764 0.43932679
1762 0.24423653
1760 0.067264169
1758 -0.12990341
1756 -0.31854758
1754 -0.42302078
1752 -0.41316167
1750 -0.31032389
1748 -0.18501927
1746 -0.12919393
1744 -0.19283034
1742 -0.37179303
1740 -0.57457775
1738 -0.66748446
1736 -0.60016799
1734 -0.40866995
1732 -0.20051165
1730 -0.10579803
1728 -0.15553227
1726 -0.28773436
1724 -0.38772929
1722 -0.3139573
1720 0.067981347
1718 0.84306192
1716 1.9103558
1714 3.0392358
1712 4.0613184
1710 4.9163098
1708 5.7211981
1706 6.7200489
1704 8.1490669
1702 10.198989
1700 12.97184
1698 16.437214
1696 20.26757
1694 23.95224
1692 27.19832
1690 29.998318
1688 32.69128
1686 35.837303
1684 39.859409
1682 44.89468
1680 50.445278
1678 55.642506
1676 60.233273
1674 64.564125
1672 69.007095
1670 73.767242
1668 78.607178
1666 82.983551
1664 86.609215
1662 89.489136
1660 91.704506
1658 93.350349
1656 94.498489
1654 95.187599
1652 95.415939
1650 95.151176
1648 94.361908
1646 93.056534
1644 91.397385
1642 89.643097
1640 87.87149
1638 85.961578
1636 83.735329
1634 81.032608
1632 77.858246
1630 74.349602
1628 70.554802
1626 66.418907
1624 61.911678
1622 57.072849
1620 52.069771
1618 47.169697
1616 42.599514
1614 38.514347
1612 35.00111
1610 32.074539
1608 29.649988
1606 27.56955
1604 25.730091
1602 24.109007
1600 22.744011
1598 21.70878
1596 21.0285
1594 20.665312
1592 20.554508
1590 20.62587
1588 20.853724
1586 21.258415
1584 21.855034
1582 22.649019
1580 23.678141
1578 25.014996
1576 26.735285
1574 28.891411
1572 31.434025
1570 34.21096
1568 37.055202
1566 39.815529
1564 42.377274
1562 44.712368
1560 47.049641
1558 49.783905
1556 52.870171
1554 55.76152
1552 57.936138
1550 59.091133
1548 59.331718
1546 59.105354
1544 58.607571
1542 57.681595
1540 56.167938
1538 54.033081
1536 51.503571
1534 49.026741
1532 46.849068
1530 44.92897
1528 43.149708
1526 41.379852
1524 39.501419
1522 37.433418
1520 35.180702
1518 32.846039
1516 30.586987
1514 28.560619
1512 26.729321
1510 24.840595
1508 22.683277
1506 20.190979
1504 17.526142
1502 15.050474
1500 12.959914
1498 11.1944
1496 9.6284428
1494 8.1370516
1492 6.6758513
1490 5.2910185
1488 4.0046377
1486 2.7953329
1484 1.685644
1482 0.7624507
1480 0.11402433
1478 -0.18162642
1476 -0.021279693
1474 0.69904226
1472 1.9066925
1470 3.3187571
1468 4.6937137
1466 5.9179316
1464 6.990633
1462 8.0172749
1460 9.100955
1458 10.293047
1456 11.5332
1454 12.63465
1452 13.41706
1450 13.76416
1448 13.674194
1446 13.274608
1444 12.699311
1442 12.04553
1440 11.368829
1438 10.677451
1436 9.9520855
1434 9.1561279
1432 8.2822857
1430 7.372561
1428 6.4893661
1426 5.70612
1424 5.0825968
1422 4.65241
1420 4.4240398
1418 4.3773918
1416 4.4780345
1414 4.6825061
1412 4.9587946
1410 5.2937121
1408 5.6798759
1406 6.1097035
1404 6.561213
1402 6.9911423
1400 7.3468919
1398 7.573276
1396 7.6366572
1394 7.5390291
1392 7.3105278
1390 7.0080862
1388 6.6757083
1386 6.3287001
1384 5.969698
1382 5.5913658
1380 5.1819959
1378 4.727459
1376 4.2171974
1374 3.6490626
1372 3.0345058
1370 2.4019213
1368 1.7762222
1366 1.1722529
1364 0.60838211
1362 0.1129342
1360 -0.27633372
1358 -0.51464057
1356 -0.57979584
1354 -0.48521164
1352 -0.23885897
1350 0.16778219
1348 0.71956635
1346 1.3600179
1344 2.036772
1342 2.7166464
1340 3.357187
1338 3.8953459
1336 4.2714458
1334 4.4449019
1332 4.4157476
1330 4.2422762
1328 3.9891977
1326 3.7079229
1324 3.436151
1322 3.1922004
1320 2.983005
1318 2.8027642
1316 2.63905
1314 2.4738693
1312 2.2952993
1310 2.1044922
1308 1.9124223
1306 1.7412064
1304 1.6112931
1302 1.5358809
1300 1.525516
1298 1.5892591
1296 1.7363428
1294 1.9760275
1292 2.3143432
1290 2.749943
1288 3.2720399
1286 3.8544731
1284 4.4587183
1282 5.0313053
1280 5.523922
1278 5.9062376
1276 6.1719284
1274 6.3510981
1272 6.4859381
1270 6.6240783
1268 6.8045998
1266 7.0485592
1264 7.3709254
1262 7.782496
1260 8.2910624
1258 8.8997078
1256 9.6035252
1254 10.386266
1252 11.233568
1250 12.137709
1248 13.100697
1246 14.13
1244 15.221897
1242 16.338835
1240 17.417732
1238 18.359543
1236 19.066542
1234 19.461971
1232 19.489161
1230 19.130497
1228 18.39196
1226 17.315392
1224 15.964463
1222 14.435497
1220 12.846518
1218 11.34665
1216 10.076759
1214 9.1439857
1212 8.602746
1210 8.4172592
1208 8.5072565
1206 8.7454176
1204 8.9987545
1202 9.1480026
1200 9.0969048
1198 8.7953234
1196 8.2369289
1194 7.4862456
1192 6.6285281
1190 5.7550087
1188 4.931911
1186 4.1697683
1184 3.4689944
1182 2.8382947
1180 2.2982357
1178 1.888254
1176 1.6335399
1174 1.517496
1172 1.5035889
1170 1.5364022
1168 1.5722948
1166 1.6046486
1164 1.6402183
1162 1.694003
1160 1.7646371
1158 1.8108579
1156 1.7897799
1154 1.6779803
1152 1.4755223
1150 1.2239927
1148 0.96444118
1146 0.71478105
1144 0.48829895
1142 0.29990351
1140 0.15360662
1138 0.027926549
1136 -0.098357312
1134 -0.23046169
1132 -0.36143371
1130 -0.46493408
1128 -0.51514059
1126 -0.5007565
1124 -0.43368202
1122 -0.37107533
1120 -0.3583824
1118 -0.3851209
1116 -0.41822714
1114 -0.40443942
1112 -0.30713439
1110 -0.14339262
1108 0.052627325
1106 0.23732251
1104 0.37415716
1102 0.45198998
1100 0.4834705
1098 0.52541757
1096 0.63774717
1094 0.85882348
1092 1.199214
1090 1.6116104
1088 2.0379863
1086 2.4303658
1084 2.7508731
1082 2.9818251
1080 3.1094303
1078 3.1193471
1076 3.0090055
1074 2.808234
1072 2.564539
1070 2.3505588
1068 2.2304499
1066 2.2273886
1064 2.3363039
1062 2.5030978
1060 2.6673186
1058 2.7847047
1056 2.8243685
1054 2.7808087
1052 2.6570184
1050 2.4639459
1048 2.2214684
1046 1.9707822
1044 1.756686
1042 1.6206685
1040 1.59554
1038 1.691064
1036 1.89546
1034 2.1515191
1032 2.3878143
1030 2.5251651
1028 2.509083
1026 2.364042
1024 2.1350989
1022 1.8710021
1020 1.6097611
1018 1.3550578
1016 1.1079561
1014 0.88614261
1012 0.70634359
1010 0.56898588
1008 0.46692199
1006 0.38145408
1004 0.28675842
1002 0.1441274
1000 -0.080636263
998 -0.39618471
996 -0.78026569
994 -1.1338691
992 -1.359136
990 -1.4233607
988 -1.3370225
986 -1.1969564
984 -1.0951291
982 -1.0382562
980 -1.0010695
978 -0.92183053
976 -0.74967313
974 -0.49937341
972 -0.20181862
970 0.11243948
968 0.41644681
966 0.69494802
964 0.93205976
962 1.0999687
960 1.1701479
958 1.1217475
956 0.944498
954 0.65982938
952 0.31475249
950 0.018394709
948 -0.12410474
946 -0.07628493
944 0.17675251
942 0.63268167
940 1.2532828
938 1.887356
936 2.3869998
934 2.7182422
932 2.894469
930 2.9983492
928 3.1120045
926 3.2523708
924 3.4086821
922 3.5260313
920 3.5590556
918 3.5389323
916 3.5163028
914 3.545697
912 3.6707914
910 3.8892641
908 4.1857085
906 4.5364294
904 4.9180775
902 5.3160295
900 5.7190466
898 6.119761
896 6.5116
