##TITLE=Methyl Ethyl Ketone
##JCAMP-DX=4.24
##DATA TYPE=INFRARED SPECTRUM
##XUNITS=cm-1
##YUNITS=Absorbance
##FIRSTX=900
##LASTX=2300
##XYDATA=(X++(Y..Y))
2296 0.18727
2294 0.19116443
2292 0.19505885
2290 0.19895329
2288 0.20285766
2286 0.20675215
2284 0.21064657
2282 0.214541
2280 0.21843544
2278 0.22232985
2276 0.22622429
2274 0.23012856
2272 0.23402314
2270 0.23791757
2268 0.24181201
2266 0.24570644
2264 0.24960086
2262 0.25349528
2260 0.25739944
2258 0.26129416
2256 0.26518857
2254 0.26908299
2252 0.27297741
2250 0.27687186
2248 0.28077593
2246 0.28467071
2244 0.12199085
2242 0.0044630999
2240 -0.064679042
2238 -0.080118209
2236 -0.088024639
2234 -0.031640004
2232 0.031707291
2230 0.14784782
2228 0.26516673
2226 0.37116149
2224 0.46983635
2222 0.53719354
2220 0.59871793
2218 0.64727187
2216 0.6858629
2214 0.70427966
2212 0.70332539
2210 0.67273396
2208 0.64586824
2206 0.62596297
2204 0.63954645
2202 0.68507797
2200 0.72468024
2198 0.75833833
2196 0.73394573
2194 0.67626143
2192 0.59462988
2190 0.50344193
2188 0.46248195
2186 0.43806937
2184 0.475054
2182 0.52593851
2180 0.57832748
2178 0.63055354
2176 0.66001141
2174 0.6884495
2172 0.72892833
2170 0.77433443
2168 0.84118778
2166 0.90828764
2164 0.96843624
2162 1.0091815
2160 1.0019754
2158 0.96836662
2156 0.89422405
2154 0.82783806
2152 0.7787323
2150 0.75800586
2148 0.76717758
2146 0.78140855
2144 0.79730308
2142 0.81481189
2140 0.83319855
2138 0.87230706
2136 0.92269629
2134 0.96695912
2132 1.0084596
2130 0.98726261
2128 0.94621921
2126 0.87594515
2124 0.79909301
2122 0.78633237
2120 0.78517056
2118 0.80999881
2116 0.832784
2114 0.81355548
2112 0.79370499
2110 0.79889154
2108 0.83098465
2106 0.93313313
2104 1.0384851
2102 1.1278304
2100 1.17602
2098 1.1588902
2096 1.1144714
2094 1.0465164
2092 0.97371757
2090 0.8993516
2088 0.82271487
2086 0.74504501
2084 0.68205541
2082 0.62908578
2080 0.60511988
2078 0.59535974
2076 0.60414684
2074 0.61978579
2072 0.63142681
2070 0.64132607
2068 0.63986957
2066 0.63491762
2064 0.63357615
2062 0.63465434
2060 0.66359091
2058 0.69802845
2056 0.73277396
2054 0.75622755
2052 0.73599207
2050 0.70135814
2048 0.64855856
2046 0.60082179
2044 0.56817579
2042 0.54718345
2040 0.54233903
2038 0.54369408
2036 0.55226982
2034 0.55636722
2032 0.55423474
2030 0.54699421
2028 0.53456473
2026 0.53153801
2024 0.53363764
2022 0.53601182
2020 0.53723878
2018 0.51266587
2016 0.478706
2014 0.43743539
2012 0.3963044
2010 0.38017833
2008 0.37284625
2006 0.38171372
2004 0.39477354
2002 0.40100181
2000 0.40500543
1998 0.39690381
1996 0.39243144
1994 0.40185395
1992 0.41274172
1990 0.428675
1988 0.42137721
1986 0.38396731
1984 0.32232243
1982 0.23653972
1980 0.16624568
1978 0.11442418
1976 0.11808629
1974 0.1664024
1972 0.25818792
1970 0.37407291
1968 0.46165553
1966 0.52890366
1964 0.49435037
1962 0.41105148
1960 0.29784521
1958 0.17547537
1956 0.13033186
1954 0.11584289
1952 0.13395543
1950 0.16269286
1948 0.15331353
1946 0.12207
1944 0.046435699
1942 -0.049870081
1940 -0.13228288
1938 -0.1970928
1936 -0.21819399
1934 -0.22462048
1932 -0.2412712
1930 -0.26052901
1928 -0.29291382
1926 -0.27358043
1924 -0.19027886
1922 -0.042445704
1920 0.16433267
1918 0.3127096
1916 0.40881827
1914 0.4223727
1912 0.38082206
1910 0.31109595
1908 0.22600992
1906 0.1123172
1904 -0.013471361
1902 -0.084457904
1900 -0.1253275
1898 -0.060202338
1896 0.048562288
1894 0.15688312
1892 0.24766403
1890 0.2404699
1888 0.17393863
1886 0.035145365
1884 -0.13291472
1882 -0.30337849
1880 -0.45484298
1878 -0.57047766
1876 -0.62185699
1874 -0.60008132
1872 -0.49870655
1870 -0.32708114
1868 -0.19146433
1866 -0.10123414
1864 -0.13876508
1862 -0.27313152
1860 -0.42328107
1858 -0.57487524
1856 -0.64763224
1854 -0.67031127
1852 -0.56389648
1850 -0.38777107
1848 -0.12709799
1846 0.1646018
1844 0.29694846
1842 0.32948458
1840 0.16548011
1838 -0.078990258
1836 -0.29663143
1834 -0.46612519
1832 -0.51922882
1830 -0.49912456
1828 -0.38147619
1826 -0.26816049
1824 -0.2266221
1822 -0.27027839
1820 -0.4357146
1818 -0.61152619
1816 -0.751086
1814 -0.79146361
1812 -0.72067899
1810 -0.59405315
1808 -0.43766001
1806 -0.295353
1804 -0.1744298
1802 -0.030468974
1800 0.1285952
1798 0.32889611
1796 0.55599713
1794 0.68960446
1792 0.76813883
1790 0.67248535
1788 0.48896202
1786 0.31622493
1784 0.17049183
1782 0.12177763
1780 0.15516725
1778 0.3248623
1776 0.57860345
1774 0.87617368
1772 1.0971454
1770 1.0729601
1768 0.86478323
1766 0.53292274
1764 0.2342076
1762 0.07600385
1760 0.024112541
1758 -0.051901329
1756 -0.097831689
1754 -0.064452544
1752 0.15635878
1750 0.55608213
1748 0.97992134
1746 1.3820071
1744 1.5006217
1742 1.3830212
1740 1.2333992
1738 1.0891964
1736 1.1295999
1734 1.2921467
1732 1.2253731
1730 0.9882735
1728 0.51410866
1726 -0.057826161
1724 -0.36410934
1722 -0.39050022
1720 0.050400317
1718 0.84720111
1716 2.0109859
1714 3.2460396
1712 4.1870832
1710 4.9654999
1708 5.6704803
1706 6.6170039
1704 8.0384216
1702 10.128167
1700 12.966831
1698 16.250568
1696 19.815714
1694 23.03348
1692 25.684723
1690 28.109531
1688 30.42104
1686 33.31385
1684 36.819477
1682 40.798668
1680 45.14024
1678 49.010654
1676 52.456799
1674 55.965897
1672 59.557404
1670 63.523514
1668 67.722046
1666 71.694397
1664 75.473045
1662 79.036774
1660 82.419052
1658 85.630112
1656 88.693459
1654 91.616158
1652 94.298096
1650 96.65316
1648 98.09079
1646 98.249855
1644 97.426994
1642 95.931107
1640 94.01326
1638 91.830055
1636 88.979813
1634 85.40155
1632 81.395271
1630 77.141426
1628 73.045494
1626 69.156464
1624 65.155441
1622 61.001705
1620 56.784042
1618 52.527416
1616 48.425488
1614 44.52232
1612 41.038715
1610 38.009598
1608 35.452179
1606 33.3293
1604 31.458824
1602 29.833298
1600 28.40127
1598 27.189398
1596 26.198999
1594 25.426977
1592 24.844875
1590 24.421074
1588 24.110945
1586 23.952936
1584 23.946081
1582 24.15671
1580 24.590378
1578 25.290171
1576 26.260828
1574 27.383703
1572 28.641817
1570 29.874271
1568 31.055561
1566 32.229794
1564 33.397846
1562 34.746368
1560 36.33152
1558 38.456856
1556 41.024788
1554 43.272999
1552 45.128635
1550 46.392101
1548 47.22221
1546 48.151894
1544 49.198196
1542 50.38448
1540 51.3172
1538 51.568138
1536 51.091858
1534 49.940201
1532 48.588501
1530 47.40691
1528 46.378456
1526 45.4851
1524 44.554569
1522 43.515591
1520 42.124435
1518 40.327629
1516 38.403099
1514 36.413891
1512 34.600521
1510 32.963058
1508 30.898685
1506 28.239729
1504 25.335829
1502 22.248533
1500 19.636864
1498 17.57497
1496 15.628
1494 13.767107
1492 11.851789
1490 9.8583307
1488 7.822495
1486 5.7852588
1484 3.8376503
1482 2.1609356
1480 0.91095221
1478 0.17322311
1476 0.061368346
1474 0.56112874
1472 1.5564017
1470 2.584661
1468 3.3906493
1466 4.1075158
1464 4.729146
1462 5.4716353
1460 6.4382987
1458 7.3367958
1456 8.08076
1454 8.3512564
1452 7.9645581
1450 7.4260683
1448 6.7290535
1446 6.0866356
1444 5.5201383
1442 5.0235348
1440 4.6129975
1438 4.2948303
1436 4.038496
1434 3.760792
1432 3.4270468
1430 3.0259104
1428 2.63779
1426 2.3664508
1424 2.2678943
1422 2.3738244
1420 2.5888138
1418 2.820667
1416 2.9604828
1414 2.899858
1412 2.8090746
1410 2.7539144
1408 2.8264651
1406 3.1084366
1404 3.4972312
1402 4.031641
1400 4.5809517
1398 5.1354451
1396 5.5915928
1394 5.8790474
1392 6.0139618
1390 5.9417138
1388 5.7868795
1386 5.5176249
1384 5.1971159
1382 4.8170228
1380 4.4676585
1378 4.1609039
1376 3.9315457
1374 3.7394269
1372 3.515722
1370 3.2506673
1368 2.929332
1366 2.5920472
1364 2.2586751
1362 1.8989564
1360 1.4897572
1358 1.0577629
1356 0.63568413
1354 0.29648805
1352 0.10380629
1350 0.01113208
1348 0.021556385
1346 0.044253863
1344 0.20566079
1342 0.44511443
1340 0.80977857
1338 1.117468
1336 1.3028085
1334 1.3113719
1332 1.0714045
1330 0.80562788
1328 0.53059
1326 0.37187895
1324 0.36570731
1322 0.48869097
1320 0.74115902
1318 1.0272821
1316 1.30821
1314 1.4897869
1312 1.5743543
1310 1.5515946
1308 1.4682055
1306 1.3549778
1304 1.2340629
1302 1.1269029
1300 1.0360833
1298 0.99373424
1296 0.98480713
1294 1.0429431
1292 1.1268429
1290 1.2477971
1288 1.3697441
1286 1.4853164
1284 1.5889859
1282 1.6713399
1280 1.7451892
1278 1.8052815
1276 1.87836
1274 1.970598
1272 2.0915954
1270 2.2510643
1268 2.4206264
1266 2.6107073
1264 2.8098714
1262 3.0398445
1260 3.323544
1258 3.6729548
1256 4.0829172
1254 4.5473351
1252 5.0402689
1250 5.5581384
1248 6.0983338
1246 6.649375
1244 7.2105451
1242 7.7598443
1240 8.2650547
1238 8.7268753
1236 9.0835524
1234 9.3820181
1232 9.5507078
1230 9.6600895
1228 9.616128
1226 9.5130434
1224 9.2486172
1222 8.9370327
1220 8.5143728
1218 8.0598879
1216 7.5440969
1214 7.0142174
1212 6.4642625
1210 5.9335785
1208 5.4334817
1206 4.9586101
1204 4.5117898
1202 4.0607753
1200 3.6046491
1198 3.1438634
1196 2.6804714
1194 2.2237694
1192 1.7766045
1190 1.353302
1188 0.9640851
1186 0.67416853
1184 0.44940057
1182 0.35973626
1180 0.31798095
1178 0.34311777
1176 0.38067201
1174 0.42916918
1172 0.47664368
1170 0.52032506
1168 0.55013871
1166 0.54048008
1164 0.51301408
1162 0.4427357
1160 0.37086576
1158 0.29560989
1156 0.22612886
1154 0.16462329
1152 0.10316747
1150 0.042014692
1148 -0.011008929
1146 -0.051014394
1144 -0.065655693
1142 -0.053814754
1140 -0.017203627
1138 0.036618892
1136 0.10055543
1134 0.2014644
1132 0.3883
1130 0.62217402
1128 0.92818046
1126 1.2597456
1124 1.6189615
1122 1.9832797
1120 2.3493559
1118 2.706917
1116 3.0188673
1114 3.3213201
1112 3.5876498
1110 3.8630145
1108 4.1672583
1106 4.47545
1104 4.7913795
1102 5.0850801
1100 5.3357439
1098 5.5786734
1096 5.8130856
1094 6.0732832
1092 6.367734
1090 6.6837678
1088 7.0190029
1086 7.3414378
1084 7.6478767
1082 7.9129858
1080 8.1451521
1078 8.3242893
1076 8.4724884
1074 8.5719309
1072 8.6562481
1070 8.7409515
1068 8.8262587
1066 8.9096394
1064 8.9791603
1062 8.9462576
1060 8.8959122
1058 8.7677708
1056 8.6479006
1054 8.5645504
1052 8.4878368
1050 8.4279156
1048 8.3349905
1046 8.1586399
1044 7.9272976
1042 7.5970464
1040 7.2707753
1038 6.9561434
1036 6.69209
1034 6.4801173
1032 6.2259274
1030 5.9250627
1028 5.5410066
1026 5.1042395
1024 4.7169485
1022 4.3664594
1020 4.1260982
1018 3.9353948
1016 3.8156514
1014 3.7151823
1012 3.6178463
1010 3.5078218
1008 3.250716
1006 2.9674337
1004 2.5217788
1002 2.0781317
1000 1.6591852
998 1.2659053
996 0.98680931
994 0.73831582
992 0.58638507
990 0.44927227
988 0.34528151
986 0.22331336
984 0.068372212
982 -0.091247901
980 -0.25410318
978 -0.34610415
976 -0.35795057
974 -0.25505632
972 -0.058197677
970 0.18694487
968 0.45632285
966 0.65227902
964 0.80964339
962 0.86403376
960 0.88394964
958 0.85774183
956 0.82079458
954 0.74826199
952 0.66858363
950 0.51500654
948 0.35732359
946 0.18178853
944 0.02350452
942 -0.0020367801
940 -0.061082788
938 -0.032808229
936 -0.022870343
934 -0.068475336
932 -0.15453236
930 -0.32595211
928 -0.46803811
926 -0.56063241
924 -0.51301455
922 -0.29449174
920 0.0078881085
918 0.38665473
916 0.6462819
914 0.82100964
912 0.87614489
910 0.86711943
908 0.96023029
906 1.089605
904 1.3841159
902 1.7185144
900 1.954828
898 2.1739151
896 2.1145999
