##TITLE=Methyl Ethyl Ketone
##JCAMP-DX=4.24
##DATA TYPE=INFRARED SPECTRUM
##XUNITS=cm-1
##YUNITS=Absorbance
##FIRSTX=900
##LASTX=2300
##XYDATA=(X++(Y..Y))
2296 0.033675
2294 0.034390975
2292 0.035105955
2290 0.035821926
2288 0.03653691
2286 0.037252877
2284 0.037967864
2282 0.038683828
2280 0.039398815
2278 0.040114779
2276 0.04082977
2274 0.041545734
2272 0.042260725
2270 0.042976685
2268 0.04369168
2266 0.044407636
2264 0.045122635
2262 0.045838587
2260 0.046553589
2258 0.047269538
2256 0.047984544
2254 0.048700489
2252 0.049415495
2250 0.05013144
2248 0.05084645
2246 0.051562391
2244 0.042743195
2242 0.0016355057
2240 -0.04519584
2238 0.0012728765
2236 0.061706584
2234 0.15396596
2232 0.24412023
2230 0.23582427
2228 0.22354548
2226 0.217896
2224 0.23969376
2222 0.38597333
2220 0.55355525
2218 0.7660808
2216 0.9501797
2214 1.0666054
2212 1.14511
2210 1.1682837
2208 1.1720302
2206 1.155825
2204 1.1306888
2202 1.0979359
2200 1.0581634
2198 1.0134571
2196 0.94959933
2194 0.87491214
2192 0.82551265
2190 0.78758812
2188 0.81647015
2186 0.86678553
2184 0.95656639
2182 1.0551239
2180 1.1865557
2178 1.3222371
2176 1.4116886
2174 1.4822609
2172 1.3885897
2170 1.268517
2168 1.0874245
2166 0.93340307
2164 0.89995342
2162 0.91726363
2160 1.033693
2158 1.1420022
2156 1.21577
2154 1.2465223
2152 1.2204018
2150 1.2237282
2148 1.2669785
2146 1.3892322
2144 1.5776634
2142 1.735248
2140 1.8667258
2138 1.8734705
2136 1.8137772
2134 1.741824
2132 1.6670974
2130 1.7296076
2128 1.835912
2126 2.0211241
2124 2.2241004
2122 2.3455286
2120 2.4481149
2118 2.4414353
2116 2.4174242
2114 2.3794999
2112 2.3543229
2110 2.3930097
2108 2.4453695
2106 2.5105801
2104 2.5444639
2102 2.5055008
2100 2.4269619
2098 2.3003373
2096 2.1830857
2094 2.0878031
2092 2.0195694
2090 1.9760857
2088 1.9442314
2086 1.91811
2084 1.9251617
2082 1.9532766
2080 2.0272641
2078 2.1244974
2076 2.2066016
2074 2.2814341
2072 2.290596
2070 2.2790308
2068 2.2760627
2066 2.277822
2064 2.3308434
2062 2.3886895
2060 2.3779962
2058 2.3382099
2056 2.2124143
2054 2.081943
2052 1.9998531
2050 1.9585973
2048 2.0022006
2046 2.0518358
2044 2.0833418
2042 2.0891366
2040 2.0573497
2038 2.0489764
2036 2.0727215
2034 2.1206312
2032 2.1868753
2030 2.2076139
2028 2.1927435
2026 2.1393223
2024 2.0669909
2022 2.0465288
2020 2.0556977
2018 2.1133583
2016 2.18788
2014 2.2347236
2012 2.2685275
2010 2.2929239
2008 2.3128297
2006 2.3225086
2004 2.3230503
2002 2.2878819
2000 2.234519
1998 2.1553206
1996 2.0523999
1994 1.9059318
1992 1.775552
1990 1.6926153
1988 1.710752
1986 1.8676835
1984 2.0640182
1982 2.2699587
1980 2.394748
1978 2.4326479
1976 2.4269171
1974 2.4022632
1972 2.4495232
1970 2.5578337
1968 2.6817441
1966 2.8078585
1964 2.7403593
1962 2.5660377
1960 2.304832
1958 2.009939
1956 1.89116
1954 1.8376585
1952 1.8804137
1950 1.9392048
1948 1.9229186
1946 1.8716249
1944 1.7506794
1942 1.6348305
1940 1.5628334
1938 1.5291162
1936 1.5482057
1934 1.5509944
1932 1.5076081
1930 1.4125957
1928 1.2750028
1926 1.2049056
1924 1.2498728
1922 1.4864662
1920 1.8874213
1918 2.2677701
1916 2.5749657
1914 2.6780956
1912 2.6397207
1910 2.5562971
1908 2.4668489
1906 2.3711836
1904 2.2694962
1902 2.165725
1900 2.0559366
1898 2.0561209
1896 2.1012287
1894 2.2076557
1892 2.3301024
1890 2.372736
1888 2.3604407
1886 2.2137735
1884 2.0086997
1882 1.7714695
1880 1.5456423
1878 1.3878294
1876 1.30292
1874 1.3401842
1872 1.4945474
1870 1.7825338
1868 2.0737565
1866 2.2798278
1864 2.2823122
1862 2.0623431
1860 1.7725617
1858 1.4851832
1856 1.2898571
1854 1.1806723
1852 1.1286634
1850 1.118454
1848 1.166568
1846 1.2623535
1844 1.3451772
1842 1.427698
1840 1.359068
1838 1.2058558
1836 1.0344238
1834 0.85940421
1832 0.80659622
1830 0.86237818
1828 1.0822204
1826 1.3814751
1824 1.6305228
1822 1.7456132
1820 1.625192
1818 1.3530846
1816 1.016112
1814 0.70157802
1812 0.47117895
1810 0.34986493
1808 0.3177093
1806 0.38697299
1804 0.53058237
1802 0.64507508
1800 0.73036653
1798 0.705724
1796 0.60301501
1794 0.60746437
1792 0.67739481
1790 0.86177754
1788 1.0879155
1786 1.1761435
1784 1.1660622
1782 1.1043627
1780 1.0200824
1778 1.0429727
1776 1.1407743
1774 1.3217479
1772 1.4945508
1770 1.4185474
1768 1.1793063
1766 0.78761345
1764 0.4010888
1762 0.21494251
1760 0.068378285
1758 -0.1222747
1756 -0.28386515
1754 -0.37716603
1752 -0.25413084
1750 0.12678099
1748 0.60972577
1746 1.1014296
1744 1.2956874
1742 1.1656743
1740 0.93725049
1738 0.69500828
1736 0.80102402
1734 1.2026942
1732 1.534624
1730 1.764751
1728 1.4670074
1726 0.80227649
1724 0.25862101
1722 -0.12597233
1720 0.074537486
1718 0.79437184
1716 1.96754
1714 3.2880492
1712 4.1718946
1710 4.7171259
1708 5.1059599
1706 5.6818805
1704 6.8337541
1702 8.8523607
1700 11.839488
1698 15.603071
1696 19.799856
1694 23.463739
1692 26.279583
1690 28.655773
1688 30.895937
1686 33.968399
1684 37.91954
1682 42.608692
1680 47.786682
1678 52.16824
1676 55.810913
1674 59.476261
1672 63.263794
1670 67.619972
1668 72.398582
1666 77.024399
1664 81.479332
1662 85.766884
1660 89.869324
1658 93.799866
1656 97.514343
1654 100.98737
1652 104.0096
1650 106.31483
1648 107.31743
1646 106.42964
1644 104.24429
1642 101.43774
1640 98.272453
1638 95.029556
1636 91.189972
1634 86.576683
1632 81.748222
1630 76.904297
1628 72.453125
1626 68.469902
1624 64.362839
1622 60.067734
1620 55.694576
1618 51.272339
1616 47.054028
1614 43.060802
1612 39.507008
1610 36.40527
1608 33.805141
1606 31.683342
1604 29.864376
1602 28.357403
1600 27.116961
1598 26.139221
1596 25.386002
1594 24.834702
1592 24.416492
1590 24.127491
1588 23.936857
1586 23.867901
1584 23.9438
1582 24.18111
1580 24.598774
1578 25.236919
1576 26.094114
1574 27.136318
1572 28.302288
1570 29.42424
1568 30.45072
1566 31.392843
1564 32.272205
1562 33.52182
1560 35.254189
1558 37.786018
1556 41.106358
1554 43.940281
1552 46.101177
1550 47.481533
1548 48.167892
1546 48.954678
1544 49.821449
1542 50.659752
1540 51.251522
1538 51.039444
1536 50.05743
1534 48.500637
1532 46.597031
1530 44.819389
1528 43.16172
1526 41.610897
1524 40.144665
1522 38.699318
1520 37.26368
1518 35.724812
1516 34.061401
1514 32.272999
1512 30.402081
1510 28.551661
1508 26.33778
1506 23.653564
1504 20.804846
1502 17.764414
1500 15.235263
1498 13.29554
1496 11.527143
1494 9.9603252
1492 8.4245224
1490 6.9610929
1488 5.5691633
1486 4.2529292
1484 2.9938879
1482 1.8153288
1480 0.85829008
1478 0.22221491
1476 0.031352073
1474 0.39290294
1472 1.2057006
1470 2.154732
1468 2.9641848
1466 3.5628293
1464 3.9785028
1462 4.4622498
1460 5.1755691
1458 5.9972615
1456 6.8903799
1454 7.4385452
1452 7.364336
1450 7.1053939
1448 6.5935559
1446 6.1436253
1444 5.7853351
1442 5.4285889
1440 5.1042299
1438 4.818439
1436 4.6082897
1434 4.3692551
1432 4.0966992
1430 3.7336009
1428 3.298454
1426 2.979902
1424 2.8268056
1422 2.9272265
1420 3.248286
1418 3.6601126
1416 4.0547485
1414 4.2789459
1412 4.3711052
1410 4.4311013
1408 4.5321231
1406 4.7667565
1404 5.080976
1402 5.4425101
1400 5.8103681
1398 6.15236
1396 6.4585929
1394 6.6731367
1392 6.8106537
1390 6.7470241
1388 6.589498
1386 6.2686
1384 5.8767138
1382 5.4016218
1380 4.9403543
1378 4.5299401
1376 4.1934943
1374 3.9722972
1372 3.7745321
1370 3.5766811
1368 3.33392
1366 3.0012555
1364 2.588675
1362 2.1182148
1360 1.5822486
1358 1.0617055
1356 0.64226604
1354 0.30468911
1352 0.12988526
1350 0.034139253
1348 0.025447661
1346 0.081412107
1344 0.1924744
1342 0.34809774
1340 0.6000939
1338 0.83799356
1336 1.013868
1334 1.1386504
1332 1.0872056
1330 1.0317583
1328 0.96993607
1326 0.96359491
1324 1.0842115
1322 1.2754246
1320 1.5844171
1318 1.9186133
1316 2.27161
1314 2.5627213
1312 2.7569399
1310 2.8639805
1308 2.8777583
1306 2.8678565
1304 2.8392582
1302 2.808481
1300 2.7761281
1298 2.7165596
1296 2.6617427
1294 2.6185079
1292 2.6033959
1290 2.6442468
1288 2.699456
1286 2.7640443
1284 2.8142059
1282 2.8143616
1280 2.8212838
1278 2.8428309
1276 2.90417
1274 3.0560269
1272 3.2357993
1270 3.471802
1268 3.713098
1266 3.9565022
1264 4.2099867
1262 4.4639516
1260 4.7201538
1258 4.9772458
1256 5.2322574
1254 5.493104
1252 5.7839251
1250 6.1060343
1248 6.4772725
1246 6.8777499
1244 7.2803183
1242 7.6701307
1240 8.0033426
1238 8.3032494
1236 8.548605
1234 8.7633877
1232 8.9170074
1230 9.0177164
1228 8.9682417
1226 8.8401756
1224 8.4980316
1222 8.0999994
1220 7.5691013
1218 7.0303741
1216 6.4769115
1214 5.9367852
1212 5.4217567
1210 4.9175634
1208 4.4274569
1206 3.9398429
1204 3.4554441
1202 2.9849067
1200 2.5372372
1198 2.1351662
1196 1.7710214
1194 1.4243671
1192 1.0803303
1190 0.70471561
1188 0.32653299
1186 -0.006472528
1184 -0.28490332
1182 -0.40118369
1180 -0.43817171
1178 -0.29647538
1176 -0.10547599
1174 0.1893409
1172 0.47811973
1170 0.71361125
1168 0.91027784
1166 0.98363626
1164 1.0463594
1162 1.086233
1160 1.1463269
1158 1.246016
1156 1.3390558
1154 1.4149239
1152 1.4400063
1150 1.3858501
1148 1.2355721
1146 0.97611964
1144 0.65927446
1142 0.31808418
1140 0.10960637
1138 0.02972392
1136 0.171508
1134 0.4503136
1132 0.8544361
1130 1.3121666
1128 1.8028743
1126 2.2920992
1124 2.7310753
1122 3.133384
1120 3.388072
1118 3.5969038
1116 3.632163
1114 3.6472712
1112 3.5918093
1110 3.5508573
1108 3.5584979
1106 3.598465
1104 3.7168834
1102 3.8478777
1100 4.005662
1098 4.1887317
1096 4.4271998
1094 4.7911491
1092 5.3210659
1090 5.9586368
1088 6.6818213
1086 7.2828007
1084 7.7598376
1082 8.0097237
1080 8.1188107
1078 8.1689463
1076 8.1962872
1074 8.2460203
1072 8.2905502
1070 8.2532654
1068 8.1863899
1066 8.0443068
1064 7.8990278
1062 7.8042998
1060 7.7313104
1058 7.7820778
1056 7.8542457
1054 8.0194187
1052 8.1914616
1050 8.3848658
1048 8.5597687
1046 8.6879177
1044 8.7927322
1042 8.8547678
1040 8.9394007
1038 9.0559082
1036 9.1823997
1034 9.3085747
1032 9.3075981
1030 9.1797876
1028 8.8817568
1026 8.4729462
1024 8.1124163
1022 7.7911282
1020 7.6263294
1018 7.5133953
1016 7.3223114
1014 7.0907507
1012 6.6426058
1010 6.1441283
1008 5.486032
1006 4.8115606
1004 4.0992775
1002 3.4193714
1000 2.9632673
998 2.5685618
996 2.4419641
994 2.315505
992 2.1829989
990 1.9824839
988 1.626188
986 1.2603464
984 0.88798857
982 0.63788325
980 0.56112456
978 0.63504946
976 0.8645857
974 1.1188713
972 1.3862989
970 1.5407356
968 1.6222984
966 1.5904649
964 1.5074168
962 1.415046
960 1.3188536
958 1.2282966
956 1.1345345
954 0.96249962
952 0.77784801
950 0.52366436
948 0.27331382
946 0.12166376
944 0.0067746788
942 0.0059021264
940 0.19339696
938 0.63084388
936 1.0694857
934 1.5121158
932 1.9268544
930 2.2814641
928 2.5993452
926 2.8566113
924 2.99877
922 3.000562
920 2.9109931
918 2.7368982
916 2.62942
914 2.5694599
912 2.62924
910 2.7555659
908 2.932127
906 3.1328316
904 3.2629628
902 3.3784363
900 3.4101563
898 3.4300468
896 3.6025
