##TITLE=Methyl Ethyl Ketone
##JCAMP-DX=4.24
##DATA TYPE=INFRARED SPECTRUM
##XUNITS=cm-1
##YUNITS=Absorbance
##FIRSTX=900
##LASTX=2300
##XYDATA=(X++(Y..Y))
2296 -0.0073209
2294 -0.0074731819
2292 -0.007625564
2290 -0.0077778464
2288 -0.0079301279
2286 -0.00808251
2284 -0.0082346937
2282 -0.0083868764
2280 -0.0085393544
2278 -0.0086921332
2276 -0.0088439286
2274 -0.0089945309
2272 -0.0091485549
2270 -0.0093073454
2268 -0.0094532818
2266 -0.0095812613
2264 -0.0097572478
2262 -0.010000058
2260 -0.010064457
2258 -0.0098797949
2256 -0.010356816
2254 -0.01176489
2252 -0.010711578
2250 -0.0061872001
2248 -0.010811413
2246 -0.027020928
2244 -0.0010257
2242 0.11152571
2240 0.25357762
2238 0.35329795
2236 0.39511928
2234 0.38857174
2232 0.37858987
2230 0.40848804
2228 0.47456345
2226 0.55526602
2224 0.61238414
2222 0.61288267
2220 0.56375259
2218 0.47956145
2216 0.35741201
2214 0.19278017
2212 -0.0037885997
2210 -0.210182
2208 -0.37606725
2206 -0.45487171
2204 -0.44977
2202 -0.38044971
2200 -0.27117136
2198 -0.1444965
2196 -0.011375515
2194 0.1162235
2192 0.20730537
2190 0.23340015
2188 0.20077123
2186 0.13235036
2184 0.073434956
2182 0.066572301
2180 0.11467633
2178 0.20415564
2176 0.30683801
2174 0.39465562
2172 0.45818818
2170 0.496299
2168 0.51626587
2166 0.52908969
2164 0.55026436
2162 0.59372109
2160 0.66107428
2158 0.74450749
2156 0.81471097
2154 0.83905721
2152 0.80088288
2150 0.69629145
2148 0.55037302
2146 0.39858928
2144 0.27811658
2142 0.2214818
2140 0.24058346
2138 0.33372274
2136 0.47323659
2134 0.62190765
2132 0.74035776
2130 0.79590344
2128 0.78552759
2126 0.72188389
2124 0.63802588
2122 0.56912994
2120 0.52972543
2118 0.52057147
2116 0.51766789
2114 0.49248409
2112 0.43457115
2110 0.34926367
2108 0.2780447
2106 0.26787928
2104 0.33316907
2102 0.46499696
2100 0.61099297
2098 0.71335894
2096 0.7588529
2094 0.75719881
2092 0.73948961
2090 0.7346999
2088 0.73126078
2086 0.70269549
2084 0.6280908
2082 0.49854249
2080 0.34317824
2078 0.20461011
2076 0.118965
2074 0.11111031
2072 0.17263201
2070 0.27895018
2068 0.39372092
2066 0.47910643
2064 0.50854361
2062 0.46561641
2060 0.35617119
2058 0.1980219
2056 0.021374298
2054 -0.14046565
2052 -0.26106012
2050 -0.32104582
2048 -0.31756046
2046 -0.25791177
2044 -0.16318199
2042 -0.060180757
2040 0.023621384
2038 0.066413447
2036 0.070181333
2034 0.04968382
2032 0.029886093
2030 0.034407072
2028 0.064629346
2026 0.11116385
2024 0.16154583
2022 0.20254999
2020 0.22124957
2018 0.20651686
2016 0.15423
2014 0.067139946
2012 -0.036337607
2010 -0.13475578
2008 -0.22340427
2006 -0.304187
2004 -0.37259522
2002 -0.42150033
2000 -0.44727805
1998 -0.45042843
1996 -0.44130573
1994 -0.43058872
1992 -0.41116327
1990 -0.36931559
1988 -0.3003386
1986 -0.20776692
1984 -0.10970256
1982 -0.027561197
1980 0.031590421
1978 0.069221325
1976 0.091691546
1974 0.10642536
1972 0.11728563
1970 0.12341201
1968 0.11159646
1966 0.06458772
1964 -0.026583869
1962 -0.16081096
1960 -0.313232
1958 -0.45033073
1956 -0.55129772
1954 -0.60560787
1952 -0.6156581
1950 -0.59081864
1948 -0.54439217
1946 -0.49090499
1944 -0.44341967
1942 -0.41019353
1940 -0.38262096
1938 -0.3457453
1936 -0.29496172
1934 -0.23676828
1932 -0.19926359
1930 -0.2150235
1928 -0.28860927
1926 -0.40149736
1924 -0.50355726
1922 -0.5390414
1920 -0.49608025
1918 -0.39163929
1916 -0.25928801
1914 -0.13589448
1912 -0.042453084
1910 0.0088783111
1908 0.0037937174
1906 -0.066785313
1904 -0.1803522
1902 -0.29527408
1900 -0.36396387
1898 -0.34343833
1896 -0.21860287
1894 0.001314573
1892 0.27026448
1890 0.52067238
1888 0.6762439
1886 0.67483491
1884 0.53075188
1882 0.30452931
1880 0.064417966
1878 -0.1306936
1876 -0.264532
1874 -0.34306535
1872 -0.36011863
1870 -0.30611569
1868 -0.19895945
1866 -0.076626748
1864 0.010531697
1862 0.01842864
1860 -0.043923594
1858 -0.13738272
1856 -0.23381029
1854 -0.31799227
1852 -0.38769299
1850 -0.44634426
1848 -0.49191958
1846 -0.51845896
1844 -0.52062851
1842 -0.49534488
1840 -0.44585034
1838 -0.37862515
1836 -0.29731801
1834 -0.2008604
1832 -0.076834425
1830 0.085871488
1828 0.2612699
1826 0.39909914
1824 0.44982874
1822 0.38050196
1820 0.2182194
1818 0.028191175
1816 -0.12632966
1814 -0.19844219
1812 -0.18946762
1810 -0.13079709
1808 -0.049593117
1806 0.033015698
1804 0.094050206
1802 0.11129875
1800 0.075011097
1798 -0.0066347979
1796 -0.08316572
1794 -0.088439807
1792 -0.010244159
1790 0.12185048
1788 0.27040762
1786 0.40211371
1784 0.50443912
1782 0.57964855
1780 0.63170707
1778 0.66771936
1776 0.71190882
1774 0.79098314
1772 0.88773859
1770 0.95064741
1768 0.91992146
1766 0.75442535
1764 0.50632501
1762 0.27565473
1760 0.074875377
1758 -0.13920069
1756 -0.33491302
1754 -0.42790526
1752 -0.38541874
1750 -0.23299211
1748 -0.051398255
1746 0.055012286
1744 0.031140499
1742 -0.11763721
1740 -0.29648462
1738 -0.36992109
1736 -0.29650199
1734 -0.12626937
1732 0.033483814
1730 0.065972388
1728 -0.041027442
1726 -0.20872857
1724 -0.326377
1722 -0.27146831
1720 0.076437891
1718 0.79746044
1716 1.7988515
1714 2.8660147
1712 3.8408291
1710 4.665637
1708 5.4515018
1706 6.4359698
1704 7.8722215
1702 9.98244
1700 12.872091
1698 16.488445
1696 20.461287
1694 24.234301
1692 27.525219
1690 30.384554
1688 33.206886
1686 36.585426
1684 40.922344
1682 46.293076
1680 52.138802
1678 57.556282
1676 62.342487
1674 66.954742
1672 71.83168
1670 77.177048
1668 82.676079
1666 87.6567
1664 91.730347
1662 94.845818
1660 97.077934
1658 98.553917
1656 99.387543
1654 99.668907
1652 99.471306
1650 98.849297
1648 97.815315
1646 96.365288
1644 94.588997
1642 92.637085
1640 90.52713
1638 88.135666
1636 85.310867
1634 81.939346
1632 78.089691
1630 73.968285
1628 69.649223
1626 65.062386
1624 60.170639
1622 55.026981
1620 49.832611
1618 44.895935
1616 40.433372
1614 36.537071
1612 33.226837
1610 30.463881
1608 28.16144
1606 26.203506
1604 24.508476
1602 23.042675
1600 21.813343
1598 20.855335
1596 20.188499
1594 19.807844
1592 19.685509
1590 19.781656
1588 20.077726
1586 20.580629
1584 21.294954
1582 22.22407
1580 23.413128
1578 24.945705
1576 26.883171
1574 29.237129
1572 31.919312
1570 34.755661
1568 37.612038
1566 40.414333
1564 43.090755
1562 45.595802
1560 48.080017
1558 50.82251
1556 53.737957
1554 56.334251
1552 58.166481
1550 59.00079
1548 58.953384
1546 58.434284
1544 57.646675
1542 56.492001
1540 54.818459
1538 52.531582
1536 49.797199
1534 47.033081
1532 44.537239
1530 42.3951
1528 40.563671
1526 38.8974
1524 37.224625
1522 35.382763
1520 33.30019
1518 31.026264
1516 28.709499
1514 26.547224
1512 24.54248
1510 22.469774
1508 20.14427
1506 17.525585
1504 14.801931
1502 12.357998
1500 10.393198
1498 8.8269186
1496 7.5024858
1494 6.259378
1492 5.0272417
1490 3.843384
1488 2.7439766
1486 1.74124
1484 0.871207
1482 0.20307544
1480 -0.20450634
1478 -0.30801427
1476 -0.028986007
1474 0.73123741
1472 1.9284344
1470 3.33881
1468 4.7481875
1466 6.0201645
1464 7.1187925
1462 8.1175995
1460 9.1163225
1458 10.198548
1456 11.3398
1454 12.381091
1452 13.151223
1450 13.520802
1448 13.470543
1446 13.109393
1444 12.551529
1442 11.878981
1440 11.141412
1438 10.353201
1436 9.5100346
1434 8.5967941
1432 7.6353683
1430 6.6995811
1428 5.86411
1426 5.184453
1424 4.6871738
1422 4.3634787
1420 4.1943078
1418 4.158638
1416 4.2434545
1414 4.4464269
1412 4.7607989
1410 5.1684146
1408 5.6384239
1406 6.1258936
1404 6.5847335
1402 6.9721808
1400 7.2504082
1398 7.3903885
1396 7.3796287
1394 7.2295456
1392 6.9699821
1390 6.6478229
1388 6.2986746
1386 5.93572
1384 5.5681791
1382 5.2056479
1380 4.8529987
1378 4.5056477
1376 4.1450343
1374 3.7376037
1372 3.2647719
1370 2.7368834
1368 2.1781142
1366 1.6218107
1364 1.0906348
1362 0.59044039
1360 0.14023897
1358 -0.2150719
1356 -0.42572001
1354 -0.44562835
1352 -0.24270239
1350 0.18756038
1348 0.80428958
1346 1.5086607
1344 2.2155919
1342 2.8830214
1340 3.478837
1338 3.9706328
1336 4.3189173
1334 4.4777727
1332 4.4311805
1330 4.2162848
1328 3.8932204
1326 3.5388021
1324 3.2213686
1322 2.9840584
1320 2.8351302
1318 2.7344797
1316 2.63482
1314 2.4988201
1312 2.3145211
1310 2.1085377
1308 1.9118583
1306 1.7468278
1304 1.6258006
1302 1.548702
1300 1.5194783
1298 1.5546597
1296 1.6770144
1294 1.9127731
1292 2.2751594
1290 2.7510164
1288 3.3099041
1286 3.9018784
1284 4.475986
1282 4.9888406
1280 5.4068828
1278 5.7132835
1276 5.9081016
1274 6.0159483
1272 6.0759759
1270 6.1424079
1268 6.267251
1266 6.4903007
1264 6.8362994
1262 7.3063645
1260 7.8904061
1258 8.5677605
1256 9.3207798
1254 10.141951
1252 11.026995
1250 11.971823
1248 12.967714
1246 13.994249
1244 15.024549
1242 16.023279
1240 16.943205
1238 17.721876
1236 18.291586
1234 18.587036
1232 18.55744
1230 18.178213
1228 17.446939
1226 16.392757
1224 15.069726
1222 13.572414
1220 12.018543
1218 10.558218
1216 9.3265314
1214 8.4138584
1212 7.8625164
1210 7.6378055
1208 7.6675911
1206 7.839334
1204 8.0313797
1202 8.1253424
1200 8.0267563
1198 7.6930933
1196 7.1216288
1194 6.3691287
1192 5.5139699
1190 4.64851
1188 3.8546867
1186 3.1828015
1184 2.6585019
1182 2.2715182
1180 2.0039177
1178 1.8395073
1176 1.7604201
1174 1.7441735
1172 1.765762
1170 1.7989562
1168 1.8289223
1166 1.8673686
1164 1.925804
1162 2.00138
1160 2.0776811
1158 2.1173553
1156 2.0868371
1154 1.973015
1152 1.7739559
1150 1.502815
1148 1.1789974
1146 0.82933712
1144 0.49293435
1142 0.22945631
1140 0.076270372
1138 0.0071020406
1136 -0.017023601
1134 -0.028629171
1132 -0.052727632
1130 -0.098767146
1128 -0.16079983
1126 -0.20628443
1124 -0.2090968
1122 -0.17396222
1120 -0.11269984
1118 -0.035554484
1116 0.054939255
1114 0.17329071
1112 0.32844067
1110 0.50537056
1108 0.68307281
1106 0.84055549
1104 0.96280479
1102 1.0504172
1100 1.1139905
1098 1.1800032
1096 1.2824857
1094 1.4625676
1092 1.749004
1090 2.1334748
1088 2.5964308
1086 3.11145
1084 3.6485252
1082 4.1700764
1080 4.6159844
1078 4.8743153
1076 4.8524046
1074 4.5460806
1072 4.014709
1070 3.4284437
1068 2.9539986
1066 2.6738555
1064 2.615216
1062 2.7110813
1060 2.8751349
1058 3.0317526
1056 3.1231999
1054 3.1355476
1052 3.0757029
1050 2.9798732
1048 2.8873606
1046 2.8248072
1044 2.807476
1042 2.8269842
1040 2.8724017
1038 2.9422052
1036 3.04105
1034 3.1831539
1032 3.3696613
1030 3.5568159
1028 3.6904542
1026 3.7208941
1024 3.6200719
1022 3.4211121
1020 3.1648018
1018 2.8706582
1016 2.55284
1014 2.2238133
1012 1.8993754
1010 1.6051311
1008 1.3540521
1006 1.1145525
1004 0.85236001
1002 0.56041658
1000 0.24399096
998 -0.073536336
996 -0.3609207
994 -0.57684129
992 -0.68805569
990 -0.69626236
988 -0.63253808
986 -0.59319603
984 -0.65943331
982 -0.81039822
980 -0.98573738
978 -1.0795631
976 -1.0076046
974 -0.79482579
972 -0.49833387
970 -0.19292942
968 0.054416895
966 0.21772051
964 0.28632617
962 0.26740533
960 0.17763704
958 0.050991707
956 -0.07688453
954 -0.1796876
952 -0.2364324
950 -0.23689517
948 -0.17710462
946 -0.065571181
944 0.094290748
942 0.3274301
940 0.64113647
938 0.95427018
936 1.1811657
934 1.2994751
932 1.3156643
930 1.2836261
928 1.2703005
926 1.3477658
924 1.57271
922 1.939714
920 2.4140234
918 2.9095073
916 3.3407016
914 3.6750085
912 3.908129
910 4.0942707
908 4.2913218
906 4.5153313
904 4.7571068
902 4.9500613
900 5.0339923
898 5.0313349
896 4.9857001
