##TITLE=Methyl Ethyl Ketone
##JCAMP-DX=4.24
##DATA TYPE=INFRARED SPECTRUM
##XUNITS=cm-1
##YUNITS=Absorbance
##FIRSTX=900
##LASTX=2300
##XYDATA=(X++(Y..Y))
2296 0.12557
2294 0.12817627
2292 0.13079251
2290 0.13340877
2288 0.13601509
2286 0.13863128
2284 0.14123763
2282 0.1438538
2280 0.14647007
2278 0.14907645
2276 0.15169257
2274 0.15429899
2272 0.15691508
2270 0.15953135
2268 0.16213781
2266 0.16475385
2264 0.16736034
2262 0.16997637
2260 0.17259263
2258 0.17519917
2256 0.17781514
2254 0.1804217
2252 0.18303765
2250 0.18565391
2248 0.18826053
2246 0.19087644
2244 0.10853017
2242 0.0040635001
2240 -0.10968
2238 -0.23544218
2236 -0.3629933
2234 -0.37472039
2232 -0.37072524
2230 -0.20109247
2228 -0.019307386
2226 0.19589925
2224 0.39106742
2222 0.48663434
2220 0.53772163
2218 0.46948302
2216 0.37779343
2214 0.24957708
2212 0.1354374
2210 0.047817737
2208 -0.018626194
2206 -0.060685251
2204 -0.06124131
2202 -0.023245389
2200 0.064864926
2198 0.18856257
2196 0.2881957
2194 0.37255934
2192 0.39755234
2190 0.3969349
2188 0.36271578
2186 0.3181293
2184 0.25453079
2182 0.18671854
2180 0.14363134
2178 0.10468282
2176 0.10002303
2174 0.1005749
2172 0.12457412
2170 0.15582891
2168 0.21587549
2166 0.2808755
2164 0.3536368
2162 0.42807588
2160 0.50487542
2158 0.58424091
2156 0.66809601
2154 0.73725647
2152 0.78445452
2150 0.78517467
2148 0.73611557
2146 0.64995927
2144 0.53560281
2142 0.44767171
2140 0.38010749
2138 0.38040283
2136 0.41655058
2134 0.49851805
2132 0.59843659
2130 0.67610455
2128 0.746198
2126 0.73831397
2124 0.7123608
2122 0.64034021
2120 0.5621509
2118 0.50331652
2116 0.44983742
2114 0.41613442
2112 0.38891178
2110 0.37808999
2108 0.370278
2106 0.36422715
2104 0.33959925
2102 0.27325305
2100 0.192799
2098 0.098948911
2096 0.045786429
2094 0.04827825
2092 0.10417689
2090 0.20697431
2088 0.314596
2086 0.421
2084 0.50405657
2082 0.57191604
2080 0.57947135
2078 0.5561552
2076 0.45714384
2074 0.32814899
2072 0.249126
2070 0.18713517
2068 0.22781809
2066 0.29234585
2064 0.33249187
2062 0.36332402
2060 0.35422233
2058 0.33762348
2056 0.32325971
2054 0.30512947
2052 0.27044633
2050 0.22942255
2048 0.17883241
2046 0.13787036
2044 0.1183866
2042 0.11647131
2040 0.13629594
2038 0.14339001
2036 0.13190787
2034 0.079803884
2032 -0.0086670574
2030 -0.099521831
2028 -0.18822901
2026 -0.22035429
2024 -0.21719588
2022 -0.15720104
2020 -0.070844017
2018 -0.0031731175
2016 0.055888761
2014 0.051682003
2012 0.027586609
2010 0.018052215
2008 0.015386411
2006 0.046559192
2004 0.080389135
2002 0.068295032
2000 0.034979075
1998 -0.044716433
1996 -0.1246325
1994 -0.1730618
1992 -0.1935772
1990 -0.16409595
1988 -0.13154779
1986 -0.10864671
1984 -0.11376314
1982 -0.15488803
1980 -0.19828868
1978 -0.23758866
1976 -0.23141199
1974 -0.1854616
1972 -0.096290477
1970 0.018665273
1968 0.11025555
1966 0.18422064
1964 0.18577811
1962 0.15223515
1960 0.1166936
1958 0.082857035
1956 0.088405803
1954 0.10764612
1952 0.083295353
1950 0.044601448
1948 -0.017332023
1946 -0.078340247
1944 -0.091242924
1942 -0.094559684
1940 -0.098422088
1938 -0.11518846
1936 -0.16086085
1934 -0.20993112
1932 -0.25511998
1930 -0.28883976
1928 -0.31279394
1926 -0.31900349
1924 -0.30974177
1922 -0.30168369
1920 -0.295638
1918 -0.3080633
1916 -0.33005816
1914 -0.31214252
1912 -0.26278561
1910 -0.19039938
1908 -0.10905055
1906 -0.083665296
1904 -0.088599078
1902 -0.11406646
1900 -0.14554355
1898 -0.13941441
1896 -0.11607714
1894 -0.078879885
1892 -0.044353031
1890 -0.054704659
1888 -0.093829855
1886 -0.17196465
1884 -0.26024485
1882 -0.33274883
1880 -0.39731228
1878 -0.46183479
1876 -0.50969201
1874 -0.53805494
1872 -0.49331594
1870 -0.35485357
1868 -0.20081723
1866 -0.05023209
1864 -0.0051506516
1862 -0.058203217
1860 -0.14166513
1858 -0.2345227
1856 -0.31625199
1854 -0.39330268
1852 -0.49736407
1850 -0.62529522
1848 -0.76330841
1846 -0.91137284
1844 -0.95358723
1842 -0.94163573
1840 -0.79525363
1838 -0.58023357
1836 -0.34842056
1834 -0.10304371
1832 0.13763504
1830 0.34851775
1828 0.47059977
1826 0.49066237
1824 0.36550578
1822 0.17765668
1820 -0.018135197
1818 -0.17513399
1816 -0.27363771
1814 -0.3226884
1812 -0.33756229
1810 -0.31479299
1808 -0.25647527
1806 -0.14722049
1804 0.0057827495
1802 0.1122784
1800 0.16004315
1798 0.091339305
1796 -0.062226072
1794 -0.16868083
1792 -0.223858
1790 -0.19437876
1788 -0.10634207
1786 -0.0070344061
1784 0.10206335
1782 0.21447483
1780 0.32523021
1778 0.38840318
1776 0.43369114
1774 0.50842553
1772 0.60022819
1770 0.73081326
1768 0.80332577
1766 0.70546973
1764 0.52581459
1762 0.31967801
1760 0.090293027
1758 -0.17081147
1756 -0.37170058
1754 -0.47102988
1752 -0.4660776
1750 -0.38527709
1748 -0.32503775
1746 -0.30618429
1744 -0.46467221
1742 -0.76765496
1740 -1.0357214
1738 -1.2530391
1736 -1.2249
1734 -1.0236268
1732 -0.79102778
1730 -0.55136228
1728 -0.48644567
1726 -0.51828277
1724 -0.4955551
1722 -0.37106171
1720 0.11989111
1718 0.97499758
1716 2.1578515
1714 3.3678977
1712 4.2584519
1710 4.9410543
1708 5.5083361
1706 6.2357979
1704 7.3493934
1702 9.078208
1700 11.529414
1698 14.799813
1696 18.855572
1694 22.995159
1692 26.888197
1690 30.443764
1688 33.678566
1686 37.393864
1684 41.671879
1682 46.4632
1680 51.647758
1678 56.089745
1676 59.868629
1674 63.683727
1672 67.603958
1670 72.197548
1668 77.270027
1666 82.211555
1664 86.987709
1662 91.41217
1660 95.48185
1658 99.140121
1656 102.33486
1654 104.96529
1652 106.8084
1650 107.65773
1648 107.12245
1646 105.03
1644 102.02029
1642 98.679916
1640 95.201721
1638 91.690392
1636 87.705986
1634 83.12896
1632 78.356522
1630 73.559807
1628 68.939445
1626 64.505852
1624 59.873119
1622 55.005962
1620 50.263004
1618 45.678093
1616 41.496399
1614 37.740891
1612 34.495792
1610 31.7675
1608 29.463554
1606 27.551758
1604 25.871843
1602 24.457342
1600 23.339365
1598 22.530001
1596 21.994999
1594 21.680866
1592 21.488863
1590 21.400213
1588 21.38538
1586 21.502457
1584 21.777121
1582 22.237589
1580 22.876114
1578 23.714682
1576 24.752029
1574 25.901281
1572 27.14233
1570 28.352531
1568 29.50976
1566 30.6567
1564 31.799099
1562 33.130367
1560 34.728798
1558 37.07502
1556 40.140556
1554 43.164169
1552 45.984844
1550 47.991096
1548 49.261772
1546 50.312214
1544 51.127621
1542 51.769638
1540 52.01194
1538 51.658001
1536 50.73317
1534 49.363602
1532 47.80785
1530 46.282032
1528 44.79504
1526 43.353748
1524 41.893768
1522 40.392319
1520 38.785275
1518 37.076939
1516 35.334942
1514 33.570267
1512 31.7304
1510 29.754612
1508 27.314266
1506 24.285635
1504 21.29545
1502 18.445717
1500 16.11898
1498 14.38857
1496 12.755571
1494 11.213201
1492 9.6735697
1490 8.11094
1488 6.4928603
1486 4.8501096
1484 3.262136
1482 1.8779972
1480 0.85970008
1478 0.24319528
1476 0.021063458
1474 0.19381991
1472 0.75932789
1470 1.430045
1468 2.0577793
1466 2.5893207
1464 2.9386766
1462 3.2488353
1460 3.5641003
1458 3.9774511
1456 4.55898
1454 5.1104975
1452 5.6050901
1450 5.8629575
1448 5.7795596
1446 5.6024785
1444 5.3040261
1442 5.0421352
1440 4.8174009
1438 4.6017995
1436 4.3640957
1434 4.0629888
1432 3.6864252
1430 3.2829659
1428 2.8933241
1426 2.5672135
1424 2.347841
1422 2.2739902
1420 2.3578568
1418 2.6334248
1416 3.007777
1414 3.3992159
1412 3.77016
1410 4.0477691
1408 4.2983866
1406 4.5425048
1404 4.7849045
1402 5.0436306
1400 5.2871318
1398 5.5066981
1396 5.6839285
1394 5.7934742
1392 5.8391042
1390 5.7993279
1388 5.7053223
1386 5.5292902
1384 5.2911525
1382 4.9653049
1380 4.6007028
1378 4.1925645
1376 3.8031027
1374 3.4326777
1372 3.1115861
1370 2.8343062
1368 2.5628498
1366 2.2850435
1364 1.9482751
1362 1.5627601
1360 1.1514605
1358 0.76184058
1356 0.46014398
1354 0.23901197
1352 0.11156582
1350 0.02867326
1348 -0.011885986
1346 -0.025213765
1344 0.013806777
1342 0.083727986
1340 0.20369923
1338 0.32538551
1336 0.45209914
1334 0.543522
1332 0.60422742
1330 0.66028565
1328 0.72158301
1326 0.82721144
1324 0.99067914
1322 1.216778
1320 1.5136251
1318 1.8592666
1316 2.23734
1314 2.5823507
1312 2.8721881
1310 3.043329
1308 3.1214795
1306 3.1244693
1304 3.0872886
1302 3.0454378
1300 2.998745
1298 2.9532588
1296 2.9085143
1294 2.874191
1292 2.8545256
1290 2.8720789
1288 2.9043159
1286 2.9639306
1284 3.0191944
1282 3.0623596
1280 3.09604
1278 3.1116025
1276 3.1343057
1274 3.1689661
1272 3.226464
1270 3.322855
1268 3.4577465
1266 3.6586807
1264 3.9177697
1262 4.260951
1260 4.6688099
1258 5.1438031
1256 5.6468287
1254 6.164392
1252 6.6556396
1250 7.1248155
1248 7.5715709
1246 8.005475
1244 8.4386568
1242 8.8607998
1240 9.251235
1238 9.6069565
1236 9.8762312
1234 10.09097
1232 10.177999
1230 10.206848
1228 10.085484
1226 9.9042635
1224 9.5607529
1222 9.1603823
1220 8.6276665
1218 8.0786076
1216 7.5033798
1214 6.9551158
1212 6.4509974
1210 5.9594297
1208 5.481144
1206 4.98634
1204 4.4746499
1202 3.9627728
1200 3.4581275
1198 2.9874463
1196 2.5472572
1194 2.1363428
1192 1.7461509
1190 1.373403
1188 1.0266297
1186 0.75605381
1184 0.54068857
1182 0.4499414
1180 0.4103719
1178 0.46249488
1176 0.54004604
1174 0.66859686
1172 0.79619592
1170 0.90905523
1168 0.99683326
1166 1.0086349
1164 0.99467438
1162 0.91656578
1160 0.82011843
1158 0.6868096
1156 0.54785025
1154 0.40319192
1152 0.28114229
1150 0.19245723
1148 0.13422801
1146 0.1068159
1144 0.076454833
1142 0.045097418
1140 0.018913811
1138 0.020616673
1136 0.15208314
1134 0.37595829
1132 0.77289224
1130 1.2411349
1128 1.7350886
1126 2.2123199
1124 2.5630474
1122 2.8752995
1120 3.102668
1118 3.3212502
1116 3.5348244
1114 3.7434053
1112 3.9308426
1110 4.1121087
1108 4.2744188
1106 4.4391198
1104 4.6102705
1102 4.7865567
1100 4.973794
1098 5.1680789
1096 5.3763285
1094 5.6110897
1092 5.887218
1090 6.2309313
1088 6.644464
1086 7.0916066
1084 7.5543489
1082 7.9485049
1080 8.2879333
1078 8.5292883
1076 8.7112799
1074 8.7844572
1072 8.8065233
1070 8.713397
1068 8.5886688
1066 8.4160767
1064 8.2392673
1062 8.0761147
1060 7.9203095
1058 7.8083448
1056 7.70472
1054 7.6377401
1052 7.5722585
1050 7.51088
1048 7.4488058
1046 7.3851285
1044 7.3187261
1042 7.2444978
1040 7.1331005
1038 6.9624934
1036 6.7257099
1034 6.4120574
1032 6.076149
1030 5.7210212
1028 5.3766503
1026 5.038033
1024 4.686059
1022 4.3289924
1020 3.9889436
1018 3.6634848
1016 3.4213257
1014 3.2043145
1012 3.0189526
1010 2.8314409
1008 2.560312
1006 2.281662
1004 1.9982929
1002 1.729321
1000 1.5592932
998 1.3860321
996 1.1980572
994 0.99930549
992 0.77070999
990 0.5814606
988 0.48387727
986 0.41690698
984 0.4009389
982 0.3684653
980 0.3154228
978 0.29547518
976 0.31366745
974 0.39725378
972 0.53397179
970 0.69139779
968 0.85962272
966 1.005342
964 1.1358563
962 1.1683661
960 1.1647537
958 1.0556768
956 0.92161429
954 0.72567642
952 0.5212968
950 0.29072413
948 0.071168035
946 0.023457214
944 0.0042798892
942 0.13384897
940 0.41272774
938 0.83843911
936 1.2539172
934 1.6369441
932 1.9432977
930 2.084981
928 2.147012
926 2.0833571
924 2.0829139
922 2.1616833
920 2.4108942
918 2.8179138
916 3.1998158
914 3.5611155
912 3.6695018
910 3.642525
908 3.5248759
906 3.3710737
904 3.2835903
902 3.2116234
900 3.0539074
898 2.8818851
896 2.8016
