##TITLE=Methyl Ethyl Ketone
##JCAMP-DX=4.24
##DATA TYPE=INFRARED SPECTRUM
##XUNITS=cm-1
##YUNITS=Absorbance
##FIRSTX=900
##LASTX=2300
##XYDATA=(X++(Y..Y))
2296 0.1234
2294 0.12597632
2292 0.12854265
2290 0.13110898
2288 0.13367531
2286 0.13624164
2284 0.13880798
2282 0.14137429
2280 0.14394063
2278 0.14650697
2276 0.14907329
2274 0.15164946
2272 0.15421593
2270 0.15676264
2268 0.1593482
2266 0.16196385
2264 0.1644824
2262 0.16685243
2260 0.16960877
2258 0.17290989
2256 0.174768
2254 0.17460661
2252 0.17979154
2250 0.19254252
2248 0.18537949
2246 0.13357857
2244 0.056777045
2242 -0.014847412
2240 -0.05860468
2238 -0.058763947
2236 -0.018679814
2234 0.049571414
2232 0.12056656
2230 0.16686055
2228 0.16819079
2226 0.1154155
2224 0.035799075
2222 -0.037106842
2220 -0.087256521
2218 -0.11067513
2216 -0.13080429
2214 -0.16936237
2212 -0.20835941
2210 -0.2186497
2208 -0.17466509
2206 -0.062257573
2204 0.091559805
2202 0.24762759
2200 0.36856881
2198 0.42496702
2196 0.41662142
2194 0.3570675
2192 0.27890274
2190 0.21536154
2188 0.17868145
2186 0.17062885
2184 0.17794399
2182 0.18561034
2180 0.19056809
2178 0.19373462
2176 0.19618429
2174 0.19931114
2172 0.20607936
2170 0.2203054
2168 0.24728081
2166 0.28858593
2164 0.3287333
2162 0.347267
2160 0.32683641
2158 0.25826907
2156 0.16102101
2154 0.063872054
2152 -0.0061955829
2150 -0.03129027
2148 -0.02732954
2146 -0.019995822
2144 -0.027067965
2142 -0.05756332
2140 -0.097179815
2138 -0.1285172
2136 -0.15489657
2134 -0.18656391
2132 -0.23087846
2130 -0.28954238
2128 -0.34632438
2126 -0.38213557
2124 -0.39298293
2122 -0.38346645
2120 -0.3701247
2118 -0.36941507
2116 -0.37983415
2114 -0.39080688
2112 -0.38210982
2110 -0.33695403
2108 -0.2667439
2106 -0.19489478
2104 -0.15023154
2102 -0.15386283
2100 -0.1878652
2098 -0.22169033
2096 -0.23469572
2094 -0.21965885
2092 -0.20697175
2090 -0.23262261
2088 -0.29573947
2086 -0.37638649
2084 -0.43796927
2082 -0.44782436
2080 -0.41464812
2078 -0.36296856
2076 -0.31348756
2074 -0.28092372
2072 -0.2644532
2070 -0.25808424
2068 -0.26021165
2066 -0.27163592
2064 -0.29464385
2062 -0.3303636
2060 -0.37281725
2058 -0.41172978
2056 -0.43142399
2054 -0.41821268
2052 -0.37583199
2050 -0.31673983
2048 -0.25872558
2046 -0.21834964
2044 -0.1989142
2042 -0.19960986
2040 -0.22646503
2038 -0.2849299
2036 -0.36416143
2034 -0.44313419
2032 -0.48850879
2030 -0.4709774
2028 -0.39946121
2026 -0.29835093
2024 -0.18485805
2022 -0.070790946
2020 0.037308946
2018 0.1281039
2016 0.160956
2014 0.094539776
2012 -0.058820084
2010 -0.2561976
2008 -0.43193451
2006 -0.52346784
2004 -0.51951563
2002 -0.43685561
2000 -0.30845749
1998 -0.17159761
1996 -0.056153715
1994 0.014345145
1992 0.026948944
1990 -0.022053301
1988 -0.1172801
1986 -0.23477522
1984 -0.35150325
1982 -0.4475342
1980 -0.5119611
1978 -0.53822905
1976 -0.52013803
1974 -0.45304951
1972 -0.33943424
1970 -0.18966089
1968 -0.032876644
1966 0.09535937
1964 0.17084663
1962 0.18270749
1960 0.1502952
1958 0.10374727
1956 0.056294959
1954 0.010714537
1952 -0.033680338
1950 -0.076392591
1948 -0.10728762
1946 -0.116075
1944 -0.113606
1942 -0.12000649
1940 -0.14663894
1938 -0.19499189
1936 -0.24745314
1934 -0.28137016
1932 -0.2939468
1930 -0.2932207
1928 -0.2852945
1926 -0.27027076
1924 -0.23058303
1922 -0.1487489
1920 -0.048279177
1918 0.029824249
1916 0.068402037
1914 0.070589207
1912 0.062932774
1910 0.07372833
1908 0.088299915
1906 0.075378172
1904 0.039476279
1902 0.010193309
1900 0.030167494
1898 0.13458663
1896 0.30245429
1894 0.47943574
1892 0.606372
1890 0.63304251
1888 0.54763985
1886 0.36689556
1884 0.13602713
1882 -0.08896178
1880 -0.2681365
1878 -0.37483168
1876 -0.39367598
1874 -0.31838474
1872 -0.15808435
1870 0.058546513
1868 0.254188
1866 0.33704498
1864 0.27566975
1862 0.088857204
1860 -0.15433267
1858 -0.37007004
1856 -0.52632058
1854 -0.62512296
1852 -0.66827285
1850 -0.65567183
1848 -0.59510201
1846 -0.50205785
1844 -0.40317991
1842 -0.32668474
1840 -0.2795276
1838 -0.25292563
1836 -0.23021472
1834 -0.19073869
1832 -0.11154293
1830 0.021106865
1828 0.17484891
1826 0.28921264
1824 0.31027383
1822 0.20594382
1820 0.0085817948
1818 -0.20997903
1816 -0.38422573
1814 -0.46813756
1812 -0.46384594
1810 -0.40199119
1808 -0.30372024
1806 -0.18038151
1804 -0.043545384
1802 0.093414351
1800 0.21494766
1798 0.31129822
1796 0.40489641
1794 0.52734989
1792 0.6526528
1790 0.72230148
1788 0.72051662
1786 0.67233396
1784 0.63183302
1782 0.658894
1780 0.76808292
1778 0.93973017
1776 1.1507086
1774 1.3712206
1772 1.5320026
1770 1.5453637
1768 1.3674794
1766 1.011566
1764 0.59351021
1762 0.26976639
1760 0.06648016
1758 -0.078068554
1756 -0.15602228
1754 -0.10061254
1752 0.13012771
1750 0.53128511
1748 1.0053229
1746 1.3977821
1744 1.5891994
1742 1.5285763
1740 1.3212051
1738 1.1598595
1736 1.12602
1734 1.1822631
1732 1.1990368
1730 1.0226986
1728 0.64547718
1726 0.18957008
1724 -0.17095523
1722 -0.24909911
1720 0.097919196
1718 0.92470121
1716 2.0477057
1714 3.1346331
1712 3.9964988
1710 4.6249642
1708 5.206356
1706 6.05196
1704 7.4389343
1702 9.565444
1700 12.477983
1698 16.053043
1696 19.897572
1694 23.482311
1692 26.575054
1690 29.27726
1688 31.992538
1686 35.279385
1684 39.469528
1682 44.564384
1680 50.028641
1678 55.058609
1676 59.521027
1674 63.890705
1672 68.55484
1670 73.62558
1668 78.74231
1666 83.250946
1664 86.854332
1662 89.640137
1660 91.781853
1658 93.445
1656 94.718315
1654 95.610664
1652 96.084259
1650 96.071739
1648 95.495743
1646 94.3125
1644 92.658669
1642 90.796371
1640 88.817635
1638 86.622574
1636 84.043304
1634 80.925079
1632 77.321495
1630 73.454697
1628 69.435333
1626 65.234734
1624 60.81216
1622 56.167747
1620 51.420471
1618 46.784721
1616 42.428516
1614 38.450912
1612 34.921261
1610 31.882038
1608 29.305668
1606 27.104414
1604 25.208448
1602 23.584589
1600 22.237057
1598 21.196743
1596 20.476
1594 20.057392
1592 19.895639
1590 19.928007
1588 20.117975
1586 20.460985
1584 20.972315
1582 21.693562
1580 22.718103
1578 24.17886
1576 26.162628
1574 28.668018
1572 31.543089
1570 34.512772
1568 37.373962
1566 40.036922
1564 42.474834
1562 44.742329
1560 47.096203
1558 49.900097
1556 53.047199
1554 55.921741
1552 57.996223
1550 59.027012
1548 59.17305
1546 58.917786
1544 58.504017
1542 57.819714
1540 56.649239
1538 54.800545
1536 52.368401
1534 49.748966
1532 47.286144
1530 45.163666
1528 43.39259
1526 41.818748
1524 40.237614
1522 38.445919
1520 36.351242
1518 34.011276
1516 31.606415
1514 29.379009
1512 27.35556
1510 25.299931
1508 22.988209
1506 20.324629
1504 17.473234
1502 14.836337
1500 12.648048
1498 10.867751
1496 9.3639708
1494 7.979651
1492 6.6279497
1490 5.3111711
1488 4.0266957
1486 2.7566929
1484 1.5534718
1482 0.55646616
1480 -0.1034953
1478 -0.32922971
1476 -0.026862293
1474 0.86604917
1472 2.2168646
1470 3.678458
1468 5.0000911
1466 6.1279163
1464 7.1193609
1462 8.1130915
1460 9.2185726
1458 10.462971
1456 11.743
1454 12.823352
1452 13.525331
1450 13.794979
1448 13.673406
1446 13.28675
1444 12.75758
1442 12.17195
1440 11.580909
1438 10.993586
1436 10.375886
1434 9.6609173
1432 8.8294582
1430 7.9419894
1428 7.0906982
1426 6.3798652
1424 5.8736978
1422 5.5730591
1420 5.4451675
1418 5.432272
1416 5.4891973
1414 5.5987
1412 5.7645211
1410 6.0072756
1408 6.3273892
1406 6.6914077
1404 7.0591326
1402 7.3919826
1400 7.6559157
1398 7.8226624
1396 7.8667355
1394 7.7692046
1392 7.5376768
1390 7.2148895
1388 6.8403964
1386 6.43681
1384 6.020679
1382 5.6047506
1380 5.1995082
1378 4.8096895
1376 4.4179659
1374 3.9797122
1372 3.468178
1370 2.8949659
1368 2.290489
1366 1.6976135
1364 1.1426511
1362 0.62540776
1360 0.16260892
1358 -0.19495289
1356 -0.39596871
1354 -0.40450355
1352 -0.21263599
1350 0.14794564
1348 0.63275182
1346 1.1945393
1344 1.806196
1342 2.4684258
1340 3.1552808
1338 3.7866113
1336 4.2637858
1334 4.4898443
1332 4.4397421
1330 4.2031631
1328 3.8826401
1326 3.555665
1324 3.2753901
1322 3.0616796
1320 2.9156246
1318 2.8175282
1316 2.73317
1314 2.6145058
1312 2.4278908
1310 2.1713309
1308 1.8635865
1306 1.5449493
1304 1.2548858
1302 1.0221102
1300 0.87006873
1298 0.81747323
1296 0.88169718
1294 1.0782037
1292 1.4115971
1290 1.8663135
1288 2.411268
1286 2.9967279
1284 3.5720983
1282 4.0945454
1280 4.5341187
1278 4.8819366
1276 5.1451387
1274 5.3509779
1272 5.5325217
1270 5.723896
1268 5.9511981
1266 6.2252631
1264 6.5508852
1262 6.9284635
1260 7.3597741
1258 7.8515267
1256 8.41572
1254 9.0707664
1252 9.8308849
1250 10.698202
1248 11.660703
1246 12.68325
1244 13.722283
1242 14.730516
1240 15.654206
1238 16.433121
1236 17.006014
1234 17.314831
1232 17.31616
1230 16.999876
1228 16.375563
1226 15.479665
1224 14.360971
1222 13.084013
1220 11.732191
1218 10.421677
1216 9.2662878
1214 8.358778
1212 7.7549243
1210 7.4435377
1208 7.3794169
1206 7.4785104
1204 7.6416883
1202 7.7583566
1200 7.7289381
1198 7.4870858
1196 7.0112786
1194 6.3594241
1192 5.6165423
1190 4.8822641
1188 4.2337527
1186 3.6915357
1184 3.2526126
1182 2.8930402
1180 2.5919628
1178 2.3453093
1176 2.1526
1174 2.0112479
1172 1.9139874
1170 1.844329
1168 1.7877303
1166 1.7377356
1164 1.6917026
1162 1.650223
1160 1.61062
1158 1.5611988
1156 1.4879757
1154 1.3777994
1152 1.2226388
1150 1.0267217
1148 0.80098724
1146 0.56645858
1144 0.3495118
1142 0.18150172
1140 0.076933995
1138 0.0093868114
1136 -0.045456745
1134 -0.083737746
1132 -0.092812695
1130 -0.056457721
1128 0.030664116
1126 0.14585716
1124 0.2610772
1122 0.35305861
1120 0.41335481
1118 0.46554989
1116 0.5287683
1114 0.59274185
1112 0.64356488
1110 0.67676508
1108 0.69943243
1106 0.74034595
1104 0.81888908
1102 0.91793853
1100 1.0128305
1098 1.0840505
1096 1.1315143
1094 1.2015009
1092 1.3458641
1090 1.6012913
1088 1.9841114
1086 2.467767
1084 3.0079978
1082 3.5419331
1080 3.9986057
1078 4.2996979
1076 4.385283
1074 4.2505922
1072 3.9339097
1070 3.5506485
1068 3.2165861
1066 2.9956064
1064 2.9101479
1062 2.9058683
1060 2.9217067
1058 2.9294808
1056 2.916337
1054 2.8889322
1052 2.8559215
1050 2.8179579
1048 2.7763829
1046 2.7409251
1044 2.7188728
1042 2.705924
1040 2.6989245
1038 2.7066951
1036 2.74261
1034 2.8233328
1032 2.9459634
1030 3.0484407
1028 3.0610154
1026 2.9354699
1024 2.6620884
1022 2.328234
1020 2.0277743
1018 1.8015157
1016 1.65476
1014 1.5263855
1012 1.3600849
1010 1.1640717
1008 0.96302164
1006 0.78378648
1004 0.64034605
1002 0.50546277
1000 0.34824175
998 0.15836105
996 -0.065096632
994 -0.30938509
992 -0.55818594
990 -0.79462755
988 -1.0020013
986 -1.1648099
984 -1.2717823
982 -1.323915
980 -1.3242661
978 -1.2720857
976 -1.1618279
974 -0.97573406
972 -0.70450234
970 -0.37726057
968 -0.038676172
966 0.24664199
964 0.42097157
962 0.46688193
960 0.38413405
958 0.19743159
956 -0.056248367
954 -0.31865835
952 -0.52083361
950 -0.57627547
948 -0.43301612
946 -0.1756196
944 0.10465217
942 0.41274121
940 0.76088941
938 1.10201
936 1.3868513
934 1.610798
932 1.7784234
930 1.8866993
928 1.9397274
926 1.9764757
924 2.0418599
922 2.1711648
920 2.37942
918 2.6129925
916 2.8084514
914 2.9298465
912 2.9723897
910 3.024986
908 3.1845775
906 3.4858465
904 3.9259999
902 4.4151068
900 4.8591738
898 5.2344298
896 5.5346999
