##TITLE=Methyl Ethyl Ketone
##JCAMP-DX=4.24
##DATA TYPE=INFRARED SPECTRUM
##XUNITS=cm-1
##YUNITS=Absorbance
##FIRSTX=900
##LASTX=2300
##XYDATA=(X++(Y..Y))
2296 -0.015366
2294 -0.015692532
2292 -0.016019065
2290 -0.0163456
2288 -0.016671138
2286 -0.016997665
2284 -0.017324196
2282 -0.017650729
2280 -0.017977264
2278 -0.018303797
2276 -0.018630328
2274 -0.018956861
2272 -0.019283393
2270 -0.019609928
2268 -0.019936461
2266 -0.020262992
2264 -0.020589525
2262 -0.020916058
2260 -0.021242592
2258 -0.021568151
2256 -0.021894656
2254 -0.022221189
2252 -0.022547722
2250 -0.022874257
2248 -0.023200789
2246 -0.02352732
2244 -0.00087430567
2242 0.034667194
2240 0.073035277
2238 0.07079827
2236 0.062462915
2234 -0.0027749743
2232 -0.072238408
2230 -0.14468329
2228 -0.21105652
2226 -0.228273
2224 -0.23686416
2222 -0.21785462
2220 -0.20890166
2218 -0.23528661
2216 -0.29423344
2214 -0.41995451
2212 -0.55687582
2210 -0.70557785
2208 -0.81093961
2206 -0.86134982
2204 -0.86866772
2202 -0.83773792
2200 -0.8143
2198 -0.79829711
2196 -0.7826407
2194 -0.766936
2192 -0.72420692
2190 -0.66965532
2188 -0.64075512
2186 -0.62044573
2184 -0.67272842
2182 -0.74156302
2180 -0.83388329
2178 -0.92842817
2176 -0.92960769
2174 -0.91577923
2172 -0.82916468
2170 -0.7439568
2168 -0.70663059
2166 -0.68085259
2164 -0.68039483
2162 -0.66321868
2160 -0.59670836
2158 -0.50775605
2156 -0.38565999
2154 -0.27575675
2152 -0.18849491
2150 -0.14495151
2148 -0.14803641
2146 -0.1954425
2144 -0.27774635
2142 -0.37829721
2140 -0.48910779
2138 -0.54815614
2136 -0.57841945
2134 -0.52895385
2132 -0.44686824
2130 -0.34295616
2128 -0.23296559
2126 -0.12886329
2124 -0.026349351
2122 0.066324562
2120 0.15752965
2118 0.25079671
2116 0.33849815
2114 0.3830184
2112 0.38960686
2110 0.25645742
2108 0.086882532
2106 -0.13100827
2104 -0.31294379
2102 -0.40008244
2100 -0.43938401
2098 -0.42204756
2096 -0.37805572
2094 -0.31040314
2092 -0.22145882
2090 -0.11406367
2088 -0.074603446
2086 -0.092911355
2084 -0.19643107
2082 -0.35074249
2080 -0.44987899
2078 -0.51678663
2076 -0.49633613
2074 -0.44129813
2072 -0.3707372
2070 -0.2964958
2068 -0.21361096
2066 -0.13032365
2064 -0.095419921
2062 -0.080889396
2060 -0.17125823
2058 -0.28956681
2056 -0.44755259
2054 -0.60124946
2052 -0.7135585
2050 -0.79053628
2048 -0.80014884
2046 -0.78196609
2044 -0.73673999
2042 -0.68907893
2040 -0.643399
2038 -0.59652299
2036 -0.54506814
2034 -0.50834125
2032 -0.48715103
2030 -0.4883275
2028 -0.50651318
2026 -0.50506335
2024 -0.49037516
2022 -0.43420386
2020 -0.35818332
2018 -0.28496912
2016 -0.212918
2014 -0.17240664
2012 -0.14071204
2010 -0.099170119
2008 -0.055026658
2006 -0.028349392
2004 -0.013103371
2002 -0.052801158
2000 -0.10299234
1998 -0.14596049
1996 -0.180885
1994 -0.2019546
1992 -0.24127692
1990 -0.3220737
1988 -0.41300142
1986 -0.49412894
1984 -0.53219533
1982 -0.5138191
1980 -0.48260906
1978 -0.45552754
1976 -0.42611915
1974 -0.3960731
1972 -0.25415736
1970 -0.028494293
1968 0.23535281
1966 0.51402348
1964 0.55890322
1962 0.48169124
1960 0.25260401
1958 -0.035165556
1956 -0.23215058
1954 -0.3911109
1952 -0.47523284
1950 -0.52848792
1948 -0.54527801
1946 -0.54806501
1944 -0.53195661
1942 -0.52940845
1940 -0.56681341
1938 -0.62215787
1936 -0.68545574
1934 -0.72504413
1932 -0.72249681
1930 -0.69369119
1928 -0.6529628
1926 -0.55756199
1924 -0.40154278
1922 -0.13368386
1920 0.24352978
1918 0.57791567
1916 0.86008054
1914 0.99598253
1912 1.0284166
1910 0.99650419
1908 0.93271196
1906 0.79177272
1904 0.61306161
1902 0.450358
1900 0.30018276
1898 0.32146779
1896 0.41944572
1894 0.61861783
1892 0.83724993
1890 0.93622023
1888 0.9322843
1886 0.70040977
1884 0.36827937
1882 -0.0069145858
1880 -0.33210796
1878 -0.51280755
1876 -0.55457896
1874 -0.44994423
1872 -0.23970366
1870 0.04645177
1868 0.26169115
1866 0.37971812
1864 0.27968204
1862 -0.0021348968
1860 -0.33408967
1858 -0.67643642
1856 -0.89229172
1854 -1.0172136
1852 -0.98968685
1850 -0.87969857
1848 -0.70630604
1846 -0.51252252
1844 -0.46801078
1842 -0.51288182
1840 -0.68436176
1838 -0.89759809
1836 -1.0162089
1834 -1.050379
1832 -0.92615986
1830 -0.70528787
1828 -0.37491053
1826 -0.065455571
1824 0.10181657
1822 0.099104919
1820 -0.14300758
1818 -0.46207887
1816 -0.77454257
1814 -0.97232288
1812 -1.0182606
1810 -0.95277578
1808 -0.80781257
1806 -0.625745
1804 -0.42764059
1802 -0.25282425
1800 -0.11186948
1798 -0.028511547
1796 0.011817642
1794 0.058388092
1792 0.126102
1790 0.20196372
1788 0.29529208
1786 0.39030385
1784 0.49430025
1782 0.60611266
1780 0.73545688
1778 0.91225696
1776 1.1205842
1774 1.3515295
1772 1.5031954
1770 1.4207366
1768 1.1581812
1766 0.76087594
1764 0.38925242
1762 0.16163637
1760 0.037077799
1758 -0.19250306
1756 -0.37691042
1754 -0.39012882
1752 -0.019076794
1750 0.73584461
1748 1.5642958
1746 2.353925
1744 2.6125822
1742 2.3974783
1740 2.0756443
1738 1.7395773
1736 1.79096
1734 2.1268942
1732 2.2464879
1730 2.1800091
1728 1.590672
1726 0.70686716
1724 0.065510511
1722 -0.27578431
1720 0.099721551
1718 1.07101
1716 2.5667458
1714 4.1183
1712 5.1085634
1710 5.7290001
1708 6.1426201
1706 6.8008671
1704 8.0768509
1702 10.201399
1700 13.261543
1698 16.83526
1696 20.662287
1694 24.009991
1692 26.64106
1690 29.073395
1688 31.485451
1686 34.757751
1684 38.901283
1682 43.562878
1680 48.576878
1678 52.699764
1676 56.041485
1674 59.421101
1672 62.907295
1670 67.052788
1668 71.669678
1666 76.20295
1664 80.631226
1662 84.804855
1660 88.733643
1658 92.381042
1656 95.768715
1654 98.909332
1652 101.6516
1650 103.84867
1648 104.72463
1646 103.76107
1644 101.49277
1642 98.464516
1640 95.142059
1638 91.799431
1636 87.981728
1634 83.569939
1632 78.923363
1630 74.210701
1628 69.839722
1626 65.839188
1624 61.765682
1622 57.554741
1620 53.29911
1618 49.020615
1616 44.898685
1614 40.974037
1612 37.455681
1610 34.380138
1608 31.784412
1606 29.622972
1604 27.687851
1602 25.976416
1600 24.45149
1598 23.173346
1596 22.193501
1594 21.520775
1592 21.128693
1590 20.942558
1588 20.865631
1586 20.903286
1584 21.037052
1582 21.360159
1580 21.899166
1578 22.745241
1576 23.9226
1574 25.273573
1572 26.760908
1570 28.096348
1568 29.22508
1566 30.254507
1564 31.199533
1562 32.476463
1560 34.194622
1558 36.855759
1556 40.374771
1554 43.582729
1552 46.321022
1550 48.123085
1548 49.183342
1546 50.320286
1544 51.575485
1542 53.02029
1540 54.187962
1538 54.487827
1536 53.836372
1534 52.277382
1532 50.392727
1530 48.710541
1528 47.27771
1526 46.123001
1524 45.029293
1522 43.88916
1520 42.394817
1518 40.446209
1516 38.343727
1514 36.158188
1512 34.058559
1510 32.032822
1508 29.514999
1506 26.343794
1504 23.128521
1502 19.981815
1500 17.468212
1498 15.67363
1496 13.982285
1494 12.372456
1492 10.724904
1490 9.0256805
1488 7.3126888
1486 5.5947928
1484 3.891386
1482 2.3573027
1480 1.1495953
1478 0.35871059
1476 0.050883342
1474 0.1951617
1472 0.81316304
1470 1.560017
1468 2.186111
1466 2.7531428
1464 3.2317188
1462 3.8206582
1460 4.6180859
1458 5.4581604
1456 6.3217402
1454 6.83078
1452 6.8217654
1450 6.5981946
1448 6.1069965
1446 5.6151104
1444 5.127265
1442 4.7067571
1440 4.3861251
1438 4.2206345
1436 4.1936684
1434 4.1577692
1432 4.0450521
1430 3.7480206
1428 3.3368361
1426 2.9707522
1424 2.729388
1422 2.7060785
1420 2.8544269
1418 3.1379423
1416 3.4472458
1414 3.6808331
1412 3.8925323
1410 4.0669456
1408 4.2872
1406 4.6045914
1404 4.9737024
1402 5.4248295
1400 5.8598118
1398 6.2561064
1396 6.56915
1394 6.7460651
1392 6.8289676
1390 6.7881994
1388 6.6675611
1386 6.4271951
1384 6.0990901
1382 5.6578722
1380 5.211175
1378 4.7689691
1376 4.400877
1374 4.094378
1372 3.82849
1370 3.5937815
1368 3.3451719
1366 3.086813
1364 2.7812424
1362 2.4111052
1360 1.9629571
1358 1.482379
1356 1.0189829
1354 0.62003303
1352 0.32661515
1350 0.09959352
1348 -0.034745887
1346 -0.076873429
1344 0.026517279
1342 0.23224935
1340 0.61739731
1338 0.97526103
1336 1.2653228
1334 1.4041419
1332 1.3268006
1330 1.235914
1328 1.1479669
1326 1.1524299
1324 1.2766343
1322 1.4951985
1320 1.8148115
1318 2.188622
1316 2.5839801
1314 2.8988409
1312 3.1140606
1310 3.1755846
1308 3.1344159
1306 3.04246
1304 2.9416103
1302 2.8864782
1300 2.848316
1298 2.8176658
1296 2.7707286
1294 2.6865938
1292 2.6114528
1290 2.590266
1288 2.608516
1286 2.7142086
1284 2.8154535
1282 2.8959749
1280 2.9577715
1278 2.9846051
1276 3.039227
1274 3.142992
1272 3.2784278
1270 3.4535251
1268 3.6117127
1266 3.7518358
1264 3.8935285
1262 4.0580587
1260 4.2843919
1258 4.5826659
1256 4.9375515
1254 5.3398633
1252 5.7558985
1250 6.1691594
1248 6.5402727
1246 6.8749752
1244 7.1641388
1242 7.432127
1240 7.6932106
1238 7.9271178
1236 8.0766592
1234 8.1694908
1232 8.1256199
1230 8.0460615
1228 7.8927178
1226 7.7084231
1224 7.4381595
1222 7.1360021
1220 6.758976
1218 6.362134
1216 5.9237084
1214 5.4541721
1212 4.9330387
1210 4.4044323
1208 3.8726091
1206 3.373035
1204 2.9161758
1202 2.490159
1200 2.0884371
1198 1.6743293
1196 1.2428114
1194 0.77828228
1192 0.30361652
1190 -0.13439038
1188 -0.5343411
1186 -0.8423655
1184 -1.1027178
1182 -1.2901103
1180 -1.440184
1178 -1.5085613
1176 -1.52896
1174 -1.4014964
1172 -1.2291803
1170 -0.91509998
1168 -0.60677534
1166 -0.31737691
1164 -0.074124999
1162 0.055200592
1160 0.15792851
1158 0.20811123
1156 0.25613543
1154 0.29771951
1152 0.32535487
1150 0.33330879
1148 0.33499479
1146 0.32687572
1144 0.29948372
1142 0.24883184
1140 0.15405519
1138 0.034291461
1136 -0.065800831
1134 -0.1394877
1132 -0.085352547
1130 0.036857203
1128 0.25802952
1126 0.51473671
1124 0.81392229
1122 1.1250753
1120 1.46058
1118 1.800333
1116 2.1511757
1114 2.4844637
1112 2.7428944
1110 2.9801304
1108 3.1520152
1106 3.329175
1104 3.518779
1102 3.7031648
1100 3.8801565
1098 4.0739999
1096 4.3018432
1094 4.5930023
1092 4.9650478
1090 5.3673768
1088 5.805799
1086 6.2936177
1084 6.8157215
1082 7.3189659
1080 7.7712684
1078 7.947803
1076 7.966383
1074 7.7403708
1072 7.436614
1070 7.1415844
1068 6.8609939
1066 6.6674395
1064 6.5082402
1062 6.5195169
1060 6.5730395
1058 6.8439193
1056 7.1055946
1054 7.3223081
1052 7.4716463
1050 7.40767
1048 7.3452487
1046 7.2940211
1044 7.3194075
1042 7.48915
1040 7.6844659
1038 7.9159765
1036 8.1357603
1034 8.3299208
1032 8.4014664
1030 8.3401432
1028 8.0352688
1026 7.5589824
1024 7.0347691
1022 6.5032272
1020 6.1507902
1018 5.8726883
1016 5.6481485
1014 5.4218349
1012 5.0190811
1010 4.5750937
1008 4.0050802
1006 3.4319143
1004 2.9476733
1002 2.4913435
1000 2.2217171
998 1.9802663
996 1.8606
994 1.718444
992 1.5040709
990 1.2269094
988 0.80523622
986 0.34458917
984 -0.1826008
982 -0.67654765
980 -1.115206
978 -1.3519868
976 -1.3648885
974 -1.1036782
972 -0.62178713
970 -0.08671841
968 0.47109607
966 0.86674953
964 1.1823421
962 1.3640764
960 1.4995052
958 1.553443
956 1.5827671
954 1.4389766
952 1.2655261
950 0.87652892
948 0.48679799
946 0.21114001
944 0.0049357712
942 0.15599787
940 0.53390366
938 1.2819521
936 1.9964144
934 2.6085403
932 3.0881991
930 3.2842875
928 3.400012
926 3.3879807
924 3.401686
922 3.4472227
920 3.5624943
918 3.7433605
916 3.9636543
914 4.2111168
912 4.3827891
910 4.5131249
908 4.6654534
906 4.8256707
904 5.3393564
902 5.9436855
900 6.6159525
898 7.2974935
896 7.3627
