##TITLE=Methyl Ethyl Ketone
##JCAMP-DX=4.24
##DATA TYPE=INFRARED SPECTRUM
##XUNITS=cm-1
##YUNITS=Absorbance
##FIRSTX=900
##LASTX=2300
##XYDATA=(X++(Y..Y))
2296 0.029270001
2294 0.029879129
2292 0.030488256
2290 0.031097384
2288 0.031706512
2286 0.032314651
2284 0.032923769
2282 0.033532903
2280 0.034142029
2278 0.034751158
2276 0.035359301
2274 0.035968415
2272 0.036577541
2270 0.037186671
2268 0.037795801
2266 0.038403951
2264 0.039013058
2262 0.039622184
2260 0.040231314
2258 0.040840439
2256 0.041448601
2254 0.0420577
2252 0.04266683
2250 0.04327596
2248 0.043885086
2246 0.044493251
2244 0.013798894
2242 0.00048654
2240 -0.035493121
2238 -0.04336663
2236 -0.047012143
2234 -0.10753261
2232 -0.17275937
2230 -0.25110194
2228 -0.32704341
2226 -0.37920851
2224 -0.4371376
2222 -0.52716345
2220 -0.62257212
2218 -0.72930902
2216 -0.80438316
2214 -0.8088336
2212 -0.78060299
2210 -0.70583546
2208 -0.65669566
2206 -0.64309025
2204 -0.67327553
2202 -0.74343663
2200 -0.83371401
2198 -0.93704551
2196 -1.0469108
2194 -1.1600307
2192 -1.2349515
2190 -1.2930768
2188 -1.259932
2186 -1.1974599
2184 -1.09948
2182 -0.99362725
2180 -0.96318704
2178 -0.94431591
2176 -0.94660914
2174 -0.9440397
2172 -0.86437458
2170 -0.77731711
2168 -0.68984276
2166 -0.62398148
2164 -0.63725209
2162 -0.68266475
2160 -0.79014057
2158 -0.90485626
2156 -1.021229
2154 -1.0780982
2152 -1.0483909
2150 -0.95069039
2148 -0.78643686
2146 -0.68061358
2144 -0.6326322
2142 -0.6849677
2140 -0.80293816
2138 -0.91305178
2136 -1.0151989
2134 -1.0717217
2132 -1.109118
2130 -1.1145339
2128 -1.1102999
2126 -1.0682315
2124 -1.017678
2122 -0.97290361
2120 -0.93152434
2118 -0.93425065
2116 -0.94787014
2114 -0.99546331
2112 -1.0498109
2110 -1.1120635
2108 -1.1763386
2106 -1.24308
2104 -1.3175184
2102 -1.4082713
2100 -1.486818
2098 -1.5409437
2096 -1.5474143
2094 -1.4962994
2092 -1.4315735
2090 -1.3614471
2088 -1.3184755
2086 -1.2981801
2084 -1.2710763
2082 -1.2372195
2080 -1.1961262
2078 -1.1519449
2076 -1.1254457
2074 -1.1065701
2072 -1.0197001
2070 -0.91080308
2068 -0.72776008
2066 -0.53013349
2064 -0.46407005
2062 -0.43724653
2060 -0.54315645
2058 -0.6674155
2056 -0.7484377
2054 -0.80685264
2052 -0.81617928
2050 -0.82657194
2048 -0.86633873
2046 -0.925825
2044 -1.013342
2042 -1.0977958
2040 -1.1679572
2038 -1.205995
2036 -1.2067515
2034 -1.1782068
2032 -1.1283263
2030 -1.081345
2028 -1.0405997
2026 -0.99362761
2024 -0.94277406
2022 -0.88309926
2020 -0.81959504
2018 -0.82434499
2016 -0.85731399
2014 -0.93496192
2012 -1.0255671
2010 -1.0622423
2008 -1.0815942
2006 -1.0644686
2004 -1.0339909
2002 -0.97776431
2000 -0.9156943
1998 -0.86187899
1996 -0.8407343
1994 -0.91519076
1992 -1.0390391
1990 -1.2158152
1988 -1.3665
1986 -1.442535
1984 -1.4602959
1982 -1.421518
1980 -1.3916268
1978 -1.3890823
1976 -1.4005457
1974 -1.421102
1972 -1.3632772
1970 -1.2452618
1968 -1.0809703
1966 -0.894059
1964 -0.81215012
1962 -0.78588307
1960 -0.81034279
1958 -0.85326368
1956 -0.85177219
1954 -0.83315897
1952 -0.82533252
1950 -0.82173264
1948 -0.84550428
1946 -0.87643498
1944 -0.89525861
1942 -0.90332603
1940 -0.86694992
1938 -0.81823498
1936 -0.76842314
1934 -0.74747705
1932 -0.79228944
1930 -0.88342845
1928 -1.0253761
1926 -1.1101543
1924 -1.1059742
1922 -0.93741018
1920 -0.61267644
1918 -0.3082456
1916 -0.04949037
1914 0.036149014
1912 -0.0028071422
1910 -0.08185944
1908 -0.17343254
1906 -0.28679842
1904 -0.40986639
1902 -0.53891814
1900 -0.66826105
1898 -0.65727246
1896 -0.58403713
1894 -0.43535578
1892 -0.27636319
1890 -0.23608899
1888 -0.27263388
1886 -0.43273729
1884 -0.64121062
1882 -0.85431284
1880 -1.0583863
1878 -1.243005
1876 -1.3899601
1874 -1.4916441
1872 -1.4848765
1870 -1.344267
1868 -1.1335106
1866 -0.87314093
1864 -0.72053051
1862 -0.6841355
1860 -0.72604585
1858 -0.81633794
1856 -0.88087314
1854 -0.92274296
1852 -0.86074221
1850 -0.7374171
1848 -0.4951092
1846 -0.19498792
1844 -0.052167289
1842 -0.0069428957
1840 -0.22608809
1838 -0.56152529
1836 -0.8684473
1834 -1.1268436
1832 -1.2366195
1830 -1.2369229
1828 -1.0716926
1826 -0.84932613
1824 -0.63793933
1822 -0.52281815
1820 -0.60434699
1818 -0.78351444
1816 -1.0132663
1814 -1.1921147
1812 -1.2774092
1810 -1.2961124
1808 -1.2680491
1806 -1.2286301
1804 -1.1906894
1802 -1.1217752
1800 -1.0298407
1798 -0.8909077
1796 -0.72020644
1794 -0.553891
1792 -0.38710999
1790 -0.26598006
1788 -0.16476497
1786 -0.10592868
1784 -0.06460841
1782 -0.015339648
1780 0.061673041
1778 0.26544645
1776 0.54698831
1774 0.86967289
1772 1.1186243
1770 1.1042243
1768 0.89986092
1766 0.56174749
1764 0.2553958
1762 0.11412697
1760 0.032987356
1758 -0.075615868
1756 -0.12362086
1754 -0.072355829
1752 0.2280212
1750 0.78210676
1748 1.4263361
1746 2.0894644
1744 2.4083259
1742 2.4092493
1740 2.3257539
1738 2.2219479
1736 2.3724
1734 2.7108591
1732 2.7540865
1730 2.5636766
1728 1.9265331
1726 1.0367987
1724 0.36756814
1722 -0.053879708
1720 0.057645127
1718 0.63894749
1716 1.7119329
1714 2.9571042
1712 3.9804137
1710 4.8427434
1708 5.577116
1706 6.5105343
1704 7.9150038
1702 10.046843
1700 13.021481
1698 16.546124
1696 20.406715
1694 23.833281
1692 26.564054
1690 29.031889
1688 31.414257
1686 34.600471
1684 38.618114
1682 43.197052
1680 48.167358
1678 52.282936
1676 55.640728
1674 59.024433
1672 62.516495
1670 66.762878
1668 71.563095
1666 76.324295
1664 80.975746
1662 85.235115
1660 89.126717
1658 92.649246
1656 95.855743
1654 98.818207
1652 101.3682
1650 103.33403
1648 104.0248
1646 102.96357
1644 100.72208
1642 97.862747
1640 94.73819
1638 91.570061
1636 87.922058
1634 83.679031
1632 79.231697
1630 74.750961
1628 70.520432
1626 66.559265
1624 62.445641
1622 58.130768
1620 53.838589
1618 49.595276
1616 45.555401
1614 41.746479
1612 38.299046
1610 35.252399
1608 32.680092
1606 30.559908
1604 28.749926
1602 27.243872
1600 25.976326
1598 24.960178
1596 24.171501
1594 23.583746
1592 23.137064
1590 22.779474
1588 22.451784
1586 22.222044
1584 22.125887
1582 22.24902
1580 22.614994
1578 23.290583
1576 24.287657
1574 25.53495
1572 27.012806
1570 28.41634
1568 29.68276
1566 30.788857
1564 31.732285
1562 32.929726
1560 34.483147
1558 36.907536
1556 40.154987
1554 43.241081
1552 46.014355
1550 47.971737
1548 49.236263
1546 50.430462
1544 51.556343
1542 52.655575
1540 53.405483
1538 53.435699
1536 52.739887
1534 51.428566
1532 49.911636
1530 48.562721
1528 47.402962
1526 46.442299
1524 45.451019
1522 44.304852
1520 42.692532
1518 40.485039
1516 38.112873
1514 35.690601
1512 33.458839
1510 31.457367
1508 29.092707
1506 26.223558
1504 23.246229
1502 20.2271
1500 17.685652
1498 15.693199
1496 13.814428
1494 12.052781
1492 10.333565
1490 8.6515579
1488 6.9928441
1486 5.3620448
1484 3.75562
1482 2.3038192
1480 1.1479805
1478 0.37706363
1476 0.059338715
1474 0.23171195
1472 0.90587729
1470 1.6339121
1468 2.1760588
1466 2.596415
1464 2.8773103
1462 3.2856965
1460 3.9606302
1458 4.7655749
1456 5.7105999
1454 6.3545012
1452 6.5277386
1450 6.446775
1448 6.0306234
1446 5.5929427
1444 5.129632
1442 4.7066269
1440 4.3388281
1438 4.0459409
1436 3.8049386
1434 3.5183172
1432 3.159915
1430 2.7324286
1428 2.3182759
1426 2.0643921
1424 2.0170834
1422 2.1958554
1420 2.5241618
1418 2.910207
1416 3.2588115
1414 3.4715941
1412 3.6297402
1410 3.7520974
1408 3.9217749
1406 4.1965051
1404 4.5323443
1402 4.9562058
1400 5.3781638
1398 5.7812753
1396 6.118957
1394 6.3448915
1392 6.47544
1390 6.4652443
1388 6.3568273
1386 6.099185
1384 5.7528553
1382 5.2960758
1380 4.8492112
1378 4.4302897
1376 4.0981998
1374 3.8488786
1372 3.6459601
1370 3.4733062
1368 3.2725978
1366 3.039772
1364 2.7408407
1362 2.3752968
1360 1.9483685
1358 1.497937
1356 1.0648731
1354 0.67797327
1352 0.36423546
1350 0.11183747
1348 -0.039598428
1346 -0.1012091
1344 -0.027414117
1342 0.12374118
1340 0.40539032
1338 0.66812938
1336 0.88039917
1334 0.95991623
1332 0.83715945
1330 0.68932867
1328 0.53131086
1326 0.49850836
1324 0.64519477
1322 0.92873192
1320 1.3593166
1318 1.8141896
1316 2.2569602
1314 2.592
1312 2.8104756
1310 2.9040284
1308 2.9057689
1306 2.8477063
1304 2.761852
1302 2.6832161
1300 2.6224291
1298 2.6128476
1296 2.6318285
1294 2.6930156
1292 2.7689886
1290 2.8634171
1288 2.9514961
1286 3.0182335
1284 3.0636783
1282 3.0625486
1280 3.0583298
1278 3.0510819
1276 3.0618587
1274 3.104213
1272 3.1654658
1270 3.2548258
1268 3.3593318
1266 3.4918706
1264 3.6500058
1262 3.8501966
1260 4.0901499
1258 4.3786564
1256 4.7117028
1254 5.0898943
1252 5.5080519
1250 5.9559212
1248 6.4197226
1246 6.8789997
1244 7.3013425
1242 7.67732
1240 7.9494772
1238 8.1638975
1236 8.2810345
1234 8.3696957
1232 8.4215641
1230 8.446476
1228 8.3930655
1226 8.2758951
1224 7.9782505
1222 7.614399
1220 7.0983582
1218 6.5782828
1216 6.0589314
1214 5.5883694
1212 5.1967483
1210 4.8185778
1208 4.4482203
1206 4.0275435
1204 3.5456879
1202 3.0278108
1200 2.4860926
1198 1.981365
1196 1.5158999
1194 1.1081891
1192 0.74005854
1190 0.40035355
1188 0.080152646
1186 -0.21037135
1184 -0.47326094
1182 -0.66228753
1180 -0.79336131
1178 -0.7586816
1176 -0.65438801
1174 -0.36109629
1172 -0.057865828
1170 0.24054681
1168 0.48853767
1166 0.58462435
1164 0.6562075
1162 0.67146742
1160 0.70490909
1158 0.77368468
1156 0.84828812
1154 0.92794114
1152 0.98568416
1150 1.0075899
1148 0.98620981
1146 0.90680677
1144 0.75152069
1142 0.53081936
1140 0.29226092
1138 0.06978479
1136 -0.0058266921
1134 0.028025702
1132 0.28666458
1130 0.64482224
1128 1.0727401
1126 1.5070872
1124 1.8736143
1122 2.2057009
1120 2.419512
1118 2.6146674
1116 2.7692657
1114 2.9380701
1112 3.1685858
1110 3.3971567
1108 3.6160495
1106 3.800045
1104 3.898181
1102 3.9791217
1100 4.0324798
1098 4.1253324
1096 4.2893858
1094 4.5400486
1092 4.906992
1090 5.3570814
1088 5.8878989
1086 6.4228091
1084 6.9457402
1082 7.3624315
1080 7.6953311
1078 7.8825731
1076 7.993403
1074 8.0254517
1072 8.0296783
1070 8.0163126
1068 7.9957156
1066 7.9474101
1064 7.8987198
1062 7.8727913
1060 7.8674808
1058 7.9888511
1056 8.1335144
1054 8.3786669
1052 8.6173248
1050 8.8316278
1048 9.0040693
1046 9.0730677
1044 9.0965099
1042 9.0344772
1040 8.9456577
1038 8.8201437
1036 8.7057695
1034 8.6064053
1032 8.5351048
1030 8.4848576
1028 8.403964
1026 8.2927637
1024 8.0874586
1022 7.8157392
1020 7.3564978
1018 6.8073053
1016 6.0633516
1014 5.2718358
1012 4.5325737
1010 3.8156068
1008 3.2539239
1006 2.7103834
1004 2.2305965
1002 1.7726393
1000 1.4627401
998 1.1937647
996 1.1046
994 1.0223818
992 0.95925248
990 0.84819382
988 0.62575376
986 0.36241215
984 0.032379568
982 -0.21889518
980 -0.35684019
978 -0.34008098
976 -0.16256645
974 0.036504313
972 0.2455053
970 0.32335952
968 0.31926936
966 0.27738148
964 0.22696602
962 0.34889895
960 0.52853066
958 0.744519
956 0.95526946
954 0.86655807
952 0.73472965
950 0.43114501
948 0.13542899
946 0.050326068
944 0.0038423985
942 0.12025307
940 0.37275955
938 0.74181485
936 1.0838029
934 1.345987
932 1.6066266
930 1.8655516
928 2.1908698
926 2.6222091
924 3.060858
922 3.5063314
920 3.8559811
918 4.1150403
916 4.2497759
914 4.2953382
912 4.2120562
910 4.0597353
908 3.9134459
906 3.7703865
904 4.0487161
902 4.4376469
900 5.2176094
898 6.0591097
896 6.4154
