##TITLE=Methyl Ethyl Ketone
##JCAMP-DX=4.24
##DATA TYPE=INFRARED SPECTRUM
##XUNITS=cm-1
##YUNITS=Absorbance
##FIRSTX=900
##LASTX=2300
##XYDATA=(X++(Y..Y))
2296 0.047245
2294 0.048227597
2292 0.049210187
2290 0.050192785
2288 0.051176373
2286 0.05215897
2284 0.053141564
2282 0.054125149
2280 0.055107754
2278 0.05608936
2276 0.05707293
2274 0.058058493
2272 0.059039164
2270 0.060012892
2268 0.061004139
2266 0.062021166
2264 0.062971286
2262 0.063827232
2260 0.064932384
2258 0.066387206
2256 0.066915631
2254 0.066143334
2252 0.068810657
2250 0.076329522
2248 0.071062945
2246 0.039696462
2244 0.0075661154
2242 0.0066925096
2240 0.052354939
2238 0.14443269
2236 0.24014871
2234 0.29859236
2232 0.33521616
2230 0.37634593
2228 0.42624247
2226 0.477121
2224 0.49918213
2222 0.46732679
2220 0.40133274
2218 0.33219212
2216 0.28245059
2214 0.26572746
2212 0.270735
2210 0.28347099
2208 0.30935797
2206 0.35892984
2204 0.43890616
2202 0.55014199
2200 0.67462635
2198 0.79048693
2196 0.88368213
2194 0.9454506
2192 0.97805202
2190 0.9866606
2188 0.97441685
2186 0.94426972
2184 0.90148479
2182 0.85331905
2180 0.81226158
2178 0.79141068
2176 0.7995646
2174 0.84215194
2172 0.91671103
2170 1.0166903
2168 1.1290228
2166 1.2391857
2164 1.3347183
2162 1.4046394
2160 1.4397206
2158 1.4356787
2156 1.40412
2154 1.363589
2152 1.3391246
2150 1.3501461
2148 1.3840731
2146 1.4190607
2144 1.440272
2142 1.439819
2140 1.4281263
2138 1.4184495
2136 1.4106686
2134 1.4000729
2132 1.3838797
2130 1.3618915
2128 1.340368
2126 1.3298929
2124 1.3485357
2122 1.4126
2120 1.5202692
2118 1.6589694
2116 1.7988386
2114 1.90728
2112 1.9656183
2110 1.9661565
2108 1.9252906
2106 1.8696629
2104 1.831441
2102 1.8370234
2100 1.881442
2098 1.9466112
2096 2.0117428
2094 2.0600207
2092 2.0955603
2090 2.1285589
2088 2.1602201
2086 2.1872549
2084 2.2030799
2082 2.2014725
2080 2.1826172
2078 2.1500878
2076 2.1108172
2074 2.0739563
2072 2.052408
2070 2.0567794
2068 2.0833144
2066 2.1201243
2064 2.1480079
2062 2.1494682
2060 2.1247885
2058 2.0837119
2056 2.0431571
2054 2.020998
2052 2.0254793
2050 2.0580931
2048 2.1090519
2046 2.1643536
2044 2.211118
2042 2.2396643
2040 2.2505739
2038 2.249716
2036 2.2459428
2034 2.2466631
2032 2.249759
2030 2.2485371
2028 2.2345161
2026 2.2032115
2024 2.168864
2022 2.1518247
2020 2.1641529
2018 2.2084324
2016 2.26666
2014 2.3150349
2012 2.344049
2010 2.3544312
2008 2.3597715
2006 2.377212
2004 2.4159272
2002 2.4786408
2000 2.5566165
1998 2.6353333
1996 2.6969428
1994 2.7256701
1992 2.7186136
1990 2.6814859
1988 2.6306601
1986 2.5855994
1984 2.5600131
1982 2.5630021
1980 2.5982618
1978 2.6645505
1976 2.7501657
1974 2.8372819
1972 2.9033911
1970 2.9285769
1968 2.9125509
1966 2.8665514
1964 2.810946
1962 2.7671189
1960 2.744072
1958 2.7431376
1956 2.7600999
1954 2.7886271
1952 2.8235052
1950 2.8593524
1948 2.8874366
1946 2.899425
1944 2.8941884
1942 2.8763342
1940 2.8583484
1938 2.8537767
1936 2.8642485
1934 2.8843596
1932 2.9074161
1930 2.9273112
1928 2.9426672
1926 2.9539778
1924 2.9598575
1922 2.9607067
1920 2.9691577
1918 3.0015728
1916 3.0606313
1914 3.1370623
1912 3.2059538
1910 3.2408657
1908 3.2429907
1906 3.2290356
1904 3.212852
1902 3.2015736
1900 3.1857047
1898 3.1525156
1896 3.1127572
1894 3.0888963
1892 3.092366
1890 3.122638
1888 3.1591086
1886 3.1743379
1884 3.1577399
1882 3.1104896
1880 3.0388663
1878 2.9495955
1876 2.84443
1874 2.7236595
1872 2.5963566
1870 2.477284
1868 2.383533
1866 2.3292928
1864 2.3113761
1862 2.314796
1860 2.3180196
1858 2.2989225
1856 2.2449799
1854 2.1517656
1852 2.0238609
1850 1.8724705
1848 1.716324
1846 1.5777428
1844 1.4768562
1842 1.4272448
1840 1.4198669
1838 1.4320657
1836 1.4415971
1834 1.4316399
1832 1.4018989
1830 1.363948
1828 1.3358549
1826 1.3360722
1824 1.3709555
1822 1.4361087
1820 1.515256
1818 1.585873
1816 1.6277486
1814 1.6265249
1812 1.5851685
1810 1.5197554
1808 1.455228
1806 1.413525
1804 1.3810323
1802 1.3211231
1800 1.2028503
1798 1.0136852
1796 0.79397428
1794 0.61424321
1792 0.52407598
1790 0.54175389
1788 0.62724268
1786 0.70987505
1784 0.75114089
1782 0.74390531
1780 0.70153368
1778 0.64392012
1776 0.57114542
1774 0.47148728
1772 0.34893006
1770 0.22183
1768 0.11473434
1766 0.050057635
1764 0.028068841
1762 0.028581802
1760 0.011733806
1758 -0.063024521
1756 -0.18406001
1754 -0.30778745
1752 -0.42497319
1750 -0.55576998
1748 -0.71546423
1746 -0.90777326
1744 -1.1187167
1742 -1.3221213
1740 -1.4902285
1738 -1.5966513
1736 -1.61852
1734 -1.5412298
1732 -1.3774751
1730 -1.160339
1728 -0.92384583
1726 -0.69500309
1724 -0.47868401
1722 -0.2629607
1720 -0.034729
1718 0.22268297
1716 0.5498966
1714 0.99156022
1712 1.5227263
1710 2.0756252
1708 2.650182
1706 3.3188379
1704 4.2033167
1702 5.4800901
1700 7.443944
1698 10.378807
1696 14.094714
1694 18.021561
1692 21.664139
1690 24.746103
1688 27.442474
1686 30.26565
1684 33.668583
1682 37.876957
1680 42.527599
1678 46.890144
1676 50.735245
1674 54.348572
1672 58.109596
1670 62.315636
1668 66.878654
1666 71.4132
1664 75.662148
1662 79.540169
1660 83.00412
1658 86.024796
1656 88.611855
1654 90.812973
1652 92.697319
1650 94.318161
1648 95.589813
1646 96.331894
1644 96.49585
1642 96.157799
1640 95.338875
1638 93.978981
1636 91.983658
1634 89.280159
1632 85.971237
1630 82.296761
1628 78.386024
1626 74.236374
1624 69.833878
1622 65.201485
1620 60.477531
1618 55.891758
1616 51.627686
1614 47.793072
1612 44.431694
1610 41.529099
1608 39.012295
1606 36.773277
1604 34.747982
1602 32.928131
1600 31.329258
1598 29.974243
1596 28.862999
1594 27.968636
1592 27.258789
1590 26.704571
1588 26.289484
1586 26.006065
1584 25.840942
1582 25.778629
1580 25.828184
1578 26.029732
1576 26.435486
1574 27.092943
1572 28.002342
1570 29.110788
1568 30.343481
1566 31.616699
1564 32.865498
1562 34.083519
1560 35.459412
1558 37.322594
1556 39.72963
1554 42.392532
1552 44.903057
1550 46.864216
1548 48.204178
1546 49.183784
1544 49.980167
1542 50.59679
1540 50.995739
1538 51.135036
1536 50.987198
1534 50.549305
1532 49.852577
1530 48.953407
1528 47.874508
1526 46.595001
1524 45.102802
1522 43.417297
1520 41.614452
1518 39.821056
1516 38.126587
1514 36.538319
1512 34.921959
1510 33.018948
1508 30.673805
1506 27.917286
1504 24.974977
1502 22.218544
1500 19.836622
1498 17.753201
1496 15.829429
1494 13.932604
1492 11.99958
1490 10.052935
1488 8.1315365
1486 6.2805514
1484 4.5758638
1482 3.1181939
1480 1.9460566
1478 1.028787
1476 0.40574503
1474 0.20128465
1472 0.44013971
1470 0.99559212
1468 1.7066846
1466 2.423218
1464 3.066488
1462 3.6472979
1460 4.1930466
1458 4.7260213
1456 5.2579203
1454 5.7821655
1452 6.2586956
1450 6.6150131
1448 6.8090696
1446 6.8503108
1444 6.7659688
1442 6.5875649
1440 6.3215599
1438 5.9412303
1436 5.4228926
1434 4.7657661
1432 4.0236616
1430 3.31089
1428 2.7119679
1426 2.2490785
1424 1.9157246
1422 1.6880783
1420 1.5605903
1418 1.5566946
1416 1.6943715
1414 1.9716811
1412 2.3638673
1410 2.8223958
1408 3.3053782
1406 3.788245
1404 4.2514725
1402 4.6780763
1400 5.057704
1398 5.3899341
1396 5.6836572
1394 5.9545836
1392 6.2006593
1390 6.3923759
1388 6.4971566
1386 6.4895849
1384 6.3611794
1382 6.1247792
1380 5.7911515
1378 5.3638363
1376 4.8605857
1374 4.3243871
1372 3.809232
1370 3.3689742
1368 3.0089605
1366 2.6626813
1364 2.2643688
1362 1.7828245
1360 1.2457511
1358 0.75378752
1356 0.38484156
1354 0.15254505
1352 0.038504623
1350 -0.00016174233
1348 0.0078978576
1346 0.064275071
1344 0.1703328
1342 0.31571329
1340 0.48452249
1338 0.65603614
1336 0.80787659
1334 0.91804528
1332 0.97267532
1330 0.97303587
1328 0.9353261
1326 0.89366877
1324 0.87941569
1322 0.91108435
1320 0.99539292
1318 1.1234775
1316 1.27879
1314 1.4377066
1312 1.5754235
1310 1.6692982
1308 1.7088126
1306 1.7037657
1304 1.6722091
1302 1.637982
1300 1.6218966
1298 1.6370621
1296 1.6948285
1294 1.804884
1292 1.9691906
1290 2.1757627
1288 2.4057322
1286 2.6352007
1284 2.8472188
1282 3.0399389
1280 3.2176673
1278 3.3895681
1276 3.56691
1274 3.7620418
1272 3.9850101
1270 4.2407737
1268 4.5291853
1266 4.8440957
1264 5.1847582
1262 5.5633235
1260 5.9948702
1258 6.4924831
1256 7.0588083
1254 7.6782122
1252 8.3342581
1250 9.0178051
1248 9.7260189
1246 10.4635
1244 11.225903
1242 11.986134
1240 12.708874
1238 13.3518
1236 13.877485
1234 14.260495
1232 14.48088
1230 14.523381
1228 14.381125
1226 14.058986
1224 13.56932
1222 12.930685
1220 12.171609
1218 11.33774
1216 10.48216
1214 9.6614122
1212 8.922061
1210 8.2838764
1208 7.7490587
1206 7.2950702
1204 6.8881397
1202 6.4838238
1200 6.0422125
1198 5.5388036
1196 4.96415
1194 4.3330612
1192 3.6704772
1190 3.0111709
1188 2.3907769
1186 1.8411964
1184 1.3866479
1182 1.0358129
1180 0.7893073
1178 0.6377362
1176 0.56753802
1174 0.5608772
1172 0.59608006
1170 0.64597547
1168 0.68852061
1166 0.71669477
1164 0.73351586
1162 0.75577348
1160 0.79671121
1158 0.85349178
1156 0.91343302
1154 0.95065242
1152 0.93993717
1150 0.86594856
1148 0.72468936
1146 0.53392464
1144 0.32472244
1142 0.14547245
1140 0.036073804
1138 0.006966833
1136 0.062976465
1134 0.21126901
1132 0.45168608
1130 0.76479447
1128 1.1219337
1126 1.4844186
1124 1.8202181
1122 2.1199825
1120 2.38866
1118 2.651634
1116 2.9286585
1114 3.2141631
1112 3.496928
1110 3.7673481
1108 4.0190434
1106 4.2532001
1104 4.4735012
1102 4.6857944
1100 4.9000416
1098 5.1341624
1096 5.4023428
1094 5.7031908
1092 6.0337343
1090 6.3964634
1088 6.7979832
1086 7.2501574
1084 7.7518735
1082 8.2651548
1080 8.7407131
1078 9.1260195
1076 9.383853
1074 9.522007
1072 9.5630999
1070 9.5412502
1068 9.4855051
1066 9.4048204
1064 9.3020115
1062 9.1772852
1060 9.0325727
1058 8.8768015
1056 8.7175493
1054 8.5532503
1052 8.374444
1050 8.1568232
1048 7.880332
1046 7.5489254
1044 7.1829543
1042 6.8314624
1040 6.5383964
1038 6.3124137
1036 6.1416698
1034 5.9800673
1032 5.7799788
1030 5.5140147
1028 5.1687541
1026 4.7586236
1024 4.3089185
1022 3.857621
1020 3.4395716
1018 3.0721281
1016 2.7591457
1014 2.4783297
1012 2.2026293
1010 1.9114709
1008 1.593372
1006 1.2598114
1004 0.92861915
1002 0.61992037
1000 0.34923232
998 0.11638045
996 -0.082648709
994 -0.25168359
992 -0.39433891
990 -0.51361609
988 -0.6116482
986 -0.68825632
984 -0.74177307
982 -0.76781845
980 -0.76526082
978 -0.74560994
976 -0.71979201
974 -0.68626177
972 -0.63544768
970 -0.5418458
968 -0.3883251
966 -0.19937651
964 -0.014546365
962 0.11131155
960 0.13725354
958 0.083186328
956 -0.012329608
954 -0.098915443
952 -0.13548401
950 -0.12378515
948 -0.079065368
946 -0.026497178
944 0.010545806
942 0.024184516
940 0.020068325
938 0.038430907
936 0.11887029
934 0.26729369
932 0.47448602
930 0.70663047
928 0.925156
926 1.0970143
924 1.204224
922 1.2804526
920 1.3642297
918 1.4651821
916 1.5781486
914 1.6718686
912 1.7237302
910 1.77045
908 1.8557674
906 1.9920379
904 2.1647966
902 2.2859452
900 2.2728202
898 2.1399937
896 1.9259
