##TITLE=Methyl Ethyl Ketone
##JCAMP-DX=4.24
##DATA TYPE=INFRARED SPECTRUM
##XUNITS=cm-1
##YUNITS=Absorbance
##FIRSTX=900
##LASTX=2300
##XYDATA=(X++(Y..Y))
2296 0.095101997
2294 0.097080171
2292 0.099058338
2290 0.10104149
2288 0.10301869
2286 0.10499586
2284 0.10697303
2282 0.1089502
2280 0.11092737
2278 0.11290454
2276 0.11488172
2274 0.11686873
2272 0.11884606
2270 0.12082323
2268 0.1228004
2266 0.12477757
2264 0.12675475
2262 0.12873192
2260 0.13071883
2258 0.13269626
2256 0.13467343
2254 0.13665061
2252 0.13862777
2250 0.14060494
2248 0.1425821
2246 0.14455928
2244 0.072938547
2242 0.002706673
2240 -0.05826528
2238 -0.063725919
2236 -0.060991313
2234 0.034483835
2232 0.13902375
2230 0.29753491
2228 0.45120332
2226 0.54598403
2224 0.61513031
2222 0.58108526
2220 0.53176105
2218 0.45287445
2216 0.39031884
2214 0.36706764
2212 0.36682701
2210 0.4003219
2208 0.44470018
2206 0.50004232
2204 0.54082519
2202 0.56687337
2200 0.53826994
2198 0.46954501
2196 0.38328999
2194 0.28850713
2192 0.25711113
2190 0.25380054
2188 0.28111732
2186 0.31777006
2184 0.35079321
2182 0.38283184
2180 0.45670202
2178 0.53678179
2176 0.61491084
2174 0.68714315
2172 0.69443905
2170 0.68946224
2168 0.64943713
2166 0.60592675
2164 0.56220067
2162 0.52230549
2160 0.49222881
2158 0.4709838
2156 0.464524
2154 0.47727492
2152 0.51566052
2150 0.58517861
2148 0.68676943
2146 0.80246037
2144 0.92765987
2142 1.0370728
2140 1.1348249
2138 1.1954575
2136 1.2366085
2134 1.2334951
2132 1.2123709
2130 1.1969192
2128 1.183848
2126 1.2020679
2124 1.2276057
2122 1.2462126
2120 1.2635251
2118 1.2770472
2116 1.2900286
2114 1.3024011
2112 1.3116435
2110 1.3069035
2108 1.3001132
2106 1.2932364
2104 1.2891074
2102 1.2911843
2100 1.291772
2098 1.2885374
2096 1.2802857
2094 1.2665921
2092 1.2498063
2090 1.2306693
2088 1.220052
2086 1.2163199
2084 1.2332957
2082 1.2630002
2080 1.2886046
2078 1.3113121
2076 1.3097428
2074 1.298198
2072 1.28738
2070 1.2772304
2068 1.2711631
2066 1.2662885
2064 1.2476462
2062 1.2257771
2060 1.1937482
2058 1.1593649
2056 1.1231743
2054 1.0907623
2052 1.0748135
2050 1.0672421
2048 1.0746578
2046 1.0795393
2044 1.07446
2042 1.0716448
2040 1.0737514
2038 1.0921642
2036 1.12755
2034 1.1490875
2032 1.1545908
2030 1.126102
2028 1.0741009
2026 1.0270785
2024 0.98634869
2022 0.98853683
2020 1.0129884
2018 1.0662452
2016 1.1297001
2014 1.1645607
2012 1.1882749
2010 1.1475443
2008 1.087528
2006 0.99915528
2004 0.90473992
2002 0.82225126
2000 0.74441993
1998 0.67851871
1996 0.61522144
1994 0.55379212
1992 0.50266361
1990 0.46899971
1988 0.45856759
1986 0.47507685
1984 0.50265044
1982 0.53689831
1980 0.56643194
1978 0.59148818
1976 0.61107314
1974 0.62796813
1972 0.64796382
1970 0.67186517
1968 0.69944757
1966 0.728697
1964 0.72581154
1962 0.70422441
1960 0.63741481
1958 0.55126679
1956 0.465426
1954 0.38076389
1952 0.3377707
1950 0.30869725
1948 0.30618382
1946 0.31200999
1944 0.31352234
1942 0.31834668
1940 0.32111093
1938 0.32391894
1936 0.3241483
1934 0.3183274
1932 0.30847421
1930 0.29042634
1928 0.26781508
1926 0.23660685
1924 0.19992477
1922 0.17396303
1920 0.15752235
1918 0.1587081
1916 0.16713986
1914 0.17184141
1912 0.17301658
1910 0.17034425
1908 0.16759574
1906 0.16650993
1904 0.165224
1902 0.16936012
1900 0.17413332
1898 0.18799961
1896 0.20318286
1894 0.20148724
1892 0.19084629
1890 0.1548526
1888 0.11285412
1886 0.076071694
1884 0.045104854
1882 0.023636177
1880 -0.00014518388
1878 -0.032182146
1876 -0.080173403
1874 -0.14125729
1872 -0.20897594
1870 -0.27369565
1868 -0.30446318
1866 -0.30714419
1864 -0.28475708
1862 -0.25629568
1860 -0.25038967
1858 -0.26137552
1856 -0.29435199
1854 -0.33589312
1852 -0.39650223
1850 -0.46367422
1848 -0.55133522
1846 -0.64430141
1844 -0.70630759
1842 -0.74565405
1840 -0.73908049
1838 -0.71568114
1836 -0.69789129
1834 -0.6866399
1832 -0.66153693
1830 -0.61415064
1828 -0.51950276
1826 -0.3960515
1824 -0.2759797
1822 -0.18201032
1820 -0.13870761
1818 -0.13912483
1816 -0.16728742
1814 -0.21940415
1812 -0.2852056
1810 -0.3503089
1808 -0.41241148
1806 -0.4519825
1804 -0.47022629
1802 -0.49702701
1800 -0.531349
1798 -0.57724905
1796 -0.62932074
1794 -0.60676235
1792 -0.53763521
1790 -0.38868201
1788 -0.2018066
1786 -0.041766264
1784 0.091947757
1782 0.16535425
1780 0.1938196
1778 0.17087771
1776 0.11685817
1774 0.049516581
1772 -0.0044306405
1770 -0.02701488
1768 -0.020466194
1766 0.0028021354
1764 0.02271284
1762 0.039194427
1760 0.017503463
1758 -0.053679816
1756 -0.13217759
1754 -0.19275209
1752 -0.23890503
1750 -0.26709399
1748 -0.29929498
1746 -0.34730035
1744 -0.41176385
1742 -0.50181717
1740 -0.5617246
1738 -0.58695334
1736 -0.49673998
1734 -0.31247321
1732 -0.11199664
1730 0.083360508
1728 0.13116097
1726 0.068525389
1724 -0.0017673038
1722 -0.0602035
1720 -0.0060360171
1718 0.16435218
1716 0.55582428
1714 1.1122137
1712 1.7005908
1710 2.2714951
1708 2.793474
1706 3.3925736
1704 4.2101035
1702 5.5027804
1700 7.4009676
1698 10.213175
1696 13.932571
1694 17.86747
1692 21.672672
1690 25.076694
1688 28.101028
1686 31.550243
1684 35.524147
1682 40.378891
1680 45.941563
1678 50.962799
1676 55.444729
1674 59.707878
1672 63.889507
1670 68.773376
1668 74.193008
1666 79.624649
1664 84.900787
1662 89.502022
1660 93.407417
1658 96.536079
1656 98.956573
1654 100.80655
1652 102.1256
1650 102.99469
1648 103.08051
1646 102.09643
1644 100.24862
1642 97.82547
1640 94.850136
1638 91.436142
1636 87.298325
1634 82.404137
1632 77.445274
1630 72.658401
1628 68.159828
1626 63.947166
1624 59.594318
1622 55.057465
1620 50.670727
1618 46.459126
1616 42.591457
1614 39.077412
1612 35.987198
1610 33.32045
1608 31.026348
1606 29.089064
1604 27.388258
1602 25.952223
1600 24.794216
1598 23.929417
1596 23.338501
1594 23.001856
1592 22.853634
1590 22.848341
1588 22.918406
1586 23.038029
1584 23.187595
1582 23.362631
1580 23.565975
1578 23.859243
1576 24.262228
1574 24.86187
1572 25.664635
1570 26.625164
1568 27.725321
1566 28.841829
1564 29.964878
1562 31.229368
1560 32.726845
1558 35.085327
1556 38.397926
1554 42.152088
1552 46.115108
1550 49.254494
1548 51.554214
1546 53.444069
1544 54.929798
1542 56.152573
1540 57.04554
1538 57.489494
1536 57.430859
1534 56.891582
1532 55.973179
1530 54.89193
1528 53.657475
1526 52.283051
1524 50.629593
1522 48.592327
1520 46.231651
1518 43.517117
1516 40.916817
1514 38.602596
1512 36.385319
1510 34.278194
1508 31.727623
1506 28.599007
1504 25.527458
1502 22.567177
1500 20.066299
1498 18.0634
1496 16.032572
1494 13.968125
1492 11.849903
1490 9.6980286
1488 7.5703883
1486 5.5410066
1484 3.735774
1482 2.2275689
1480 1.1055045
1478 0.38140604
1476 0.063092053
1474 0.2751345
1472 0.97513145
1470 1.8953609
1468 2.8633349
1466 3.6678777
1464 4.1887455
1462 4.5719962
1460 4.8631868
1458 5.1769013
1456 5.5433998
1454 5.9188948
1452 6.2702217
1450 6.5028415
1448 6.5459628
1446 6.4981146
1444 6.3285031
1442 6.125936
1440 5.8793879
1438 5.5713029
1436 5.1782513
1434 4.6515298
1432 4.0054035
1430 3.3543284
1428 2.734082
1426 2.2530015
1424 1.9149623
1422 1.7057132
1420 1.6324948
1418 1.6730553
1416 1.8211343
1414 2.0700359
1412 2.3493016
1410 2.6414969
1408 2.9227931
1406 3.1854842
1404 3.4543545
1402 3.7269337
1400 4.0089202
1398 4.2985716
1396 4.604393
1394 4.9290872
1392 5.2546716
1390 5.5472827
1388 5.7511787
1386 5.8003702
1384 5.7235665
1382 5.4701276
1380 5.1299796
1378 4.6882691
1376 4.2012601
1374 3.6943974
1372 3.2208261
1370 2.7974222
1368 2.4480262
1366 2.1245208
1364 1.7602346
1362 1.36034
1360 0.91669559
1358 0.50406134
1356 0.21409391
1354 0.026150562
1352 -0.006813657
1350 0.041093484
1348 0.17099662
1346 0.3260693
1344 0.52102244
1342 0.71955836
1340 0.92124677
1338 1.1222388
1336 1.3133914
1334 1.5028119
1332 1.6570126
1330 1.8013589
1328 1.9286555
1326 2.0654016
1324 2.2341726
1322 2.4291332
1320 2.6697989
1318 2.9303234
1316 3.214
1314 3.4977071
1312 3.7647965
1310 4.0014539
1308 4.1896243
1306 4.3207102
1304 4.402482
1302 4.4347501
1300 4.4421682
1298 4.4298353
1296 4.409543
1294 4.3759785
1292 4.3336043
1290 4.2715449
1288 4.2103839
1286 4.1566815
1284 4.1179371
1282 4.1124969
1280 4.1130285
1278 4.1241736
1276 4.1302156
1274 4.1330309
1272 4.1450109
1270 4.1823006
1268 4.2549024
1266 4.3780136
1264 4.5308137
1262 4.7106762
1260 4.882978
1258 5.0425344
1256 5.1804657
1254 5.3012881
1252 5.4212108
1250 5.5430727
1248 5.6756496
1246 5.8107252
1244 5.9307847
1242 6.0301323
1240 6.074924
1238 6.0795846
1236 6.0029845
1234 5.8826175
1232 5.6707921
1230 5.4278178
1228 5.1148787
1226 4.78545
1224 4.4133401
1222 4.0223274
1220 3.5841589
1218 3.1255069
1216 2.6282172
1214 2.138144
1212 1.6680634
1210 1.2421162
1208 0.88312852
1206 0.57193929
1204 0.31955862
1202 0.10555999
1200 -0.066520281
1198 -0.20334548
1196 -0.30750713
1194 -0.38134474
1192 -0.42915469
1190 -0.43986461
1188 -0.42648241
1186 -0.38140321
1184 -0.32356891
1182 -0.25619161
1180 -0.1779712
1178 -0.062602848
1176 0.081967592
1174 0.32555568
1172 0.58845711
1170 0.90034139
1168 1.1867503
1166 1.390545
1164 1.5547426
1162 1.621303
1160 1.6646681
1158 1.6600204
1156 1.6289285
1154 1.5500839
1152 1.4285269
1150 1.2470274
1148 1.0285364
1146 0.77324432
1144 0.52542639
1142 0.29572985
1140 0.13365485
1138 0.032986008
1136 0.022884799
1134 0.072579853
1132 0.20498751
1130 0.37324071
1128 0.5646733
1126 0.75504392
1124 0.90800786
1122 1.0466523
1120 1.144024
1118 1.2308128
1116 1.2802014
1114 1.3213326
1112 1.3313217
1110 1.3512498
1108 1.4038005
1106 1.4750299
1104 1.589712
1102 1.692848
1100 1.7708865
1098 1.8249538
1096 1.8430001
1094 1.8637518
1092 1.891058
1090 1.9447194
1088 2.0251896
1086 2.1184056
1084 2.2125955
1082 2.2441623
1080 2.2241497
1078 2.0965459
1076 1.9188372
1074 1.7257495
1072 1.540608
1070 1.4498627
1068 1.3890003
1066 1.3959064
1064 1.40976
1062 1.4101408
1060 1.4080014
1058 1.3934759
1056 1.3781857
1054 1.3585159
1052 1.3234849
1050 1.240045
1048 1.1468514
1046 1.03211
1044 0.93417352
1042 0.8646909
1040 0.77872306
1038 0.66405267
1036 0.50283903
1034 0.29091448
1032 0.091983311
1030 -0.090569019
1028 -0.22948526
1026 -0.33499271
1024 -0.40638623
1022 -0.45608622
1020 -0.46164039
1018 -0.45011255
1016 -0.43339255
1014 -0.41818756
1012 -0.43534678
1010 -0.46076545
1008 -0.51931399
1006 -0.58445734
1004 -0.69564062
1002 -0.80677676
1000 -0.91491199
998 -1.0111203
996 -1.0547928
994 -1.090696
992 -1.1032102
990 -1.111406
988 -1.1092851
986 -1.09545
984 -1.0598338
982 -1.0133166
980 -0.95124161
978 -0.87960994
976 -0.79915714
974 -0.73083013
972 -0.67320323
970 -0.63317692
968 -0.60146457
966 -0.53569001
964 -0.45335326
962 -0.35010844
960 -0.24288286
958 -0.18446669
956 -0.13822958
954 -0.12371127
952 -0.1125756
950 -0.087959945
948 -0.061656553
946 -0.018822856
944 0.00076680072
942 0.024395309
940 0.088768929
938 0.2356862
936 0.39618114
934 0.59647226
932 0.78304201
930 0.93954813
928 1.060688
926 1.1249171
924 1.152784
922 1.1363473
920 1.0845429
918 0.99942029
916 0.89887142
914 0.78710836
912 0.67359215
910 0.56008631
908 0.43587539
906 0.31012672
904 0.2692619
902 0.25295204
900 0.430599
898 0.64004278
896 0.91463
