##TITLE=Methyl Ethyl Ketone
##JCAMP-DX=4.24
##DATA TYPE=INFRARED SPECTRUM
##XUNITS=cm-1
##YUNITS=Absorbance
##FIRSTX=900
##LASTX=2300
##XYDATA=(X++(Y..Y))
2296 0.046376999
2294 0.047342617
2292 0.04830724
2290 0.049271863
2288 0.050236478
2286 0.051201101
2284 0.052166712
2282 0.053131342
2280 0.054095957
2278 0.05506058
2276 0.056025203
2274 0.056990806
2272 0.05795544
2270 0.058920059
2268 0.059884682
2266 0.060849298
2264 0.061813921
2262 0.062779516
2260 0.063744158
2258 0.064708784
2256 0.065673403
2254 0.066638015
2252 0.06760361
2250 0.068568259
2248 0.069532879
2246 0.070497498
2244 0.037013017
2242 0.0013777714
2240 -0.034782719
2238 -0.046004634
2236 -0.053532831
2234 -0.031641155
2232 -0.0063354485
2230 0.048218466
2228 0.10476794
2226 0.16610651
2224 0.2233724
2222 0.26096594
2220 0.2938154
2218 0.3154389
2216 0.32589716
2214 0.31333649
2212 0.28344581
2210 0.22748137
2208 0.191468
2206 0.18233764
2204 0.21655002
2202 0.29089463
2200 0.35583046
2198 0.41178921
2196 0.43499357
2194 0.4396601
2192 0.42924577
2190 0.41276956
2188 0.36988759
2186 0.31856021
2184 0.285914
2182 0.25768244
2180 0.30532008
2178 0.36445236
2176 0.43976116
2174 0.51083422
2172 0.51717228
2170 0.50754398
2168 0.44154537
2166 0.36849737
2164 0.2897763
2162 0.21461326
2160 0.14998315
2158 0.098218367
2156 0.068802595
2154 0.065350272
2152 0.096165493
2150 0.13743727
2148 0.1864638
2146 0.218115
2144 0.23368868
2142 0.2371313
2140 0.23330034
2138 0.22932127
2136 0.22566487
2134 0.19572371
2132 0.15467405
2130 0.078588441
2128 -0.0083596408
2126 -0.061764199
2124 -0.10715229
2122 -0.077778406
2120 -0.03540295
2118 0.029215321
2116 0.097585656
2114 0.1703798
2112 0.24510893
2110 0.32550341
2108 0.39617413
2106 0.43500993
2104 0.45655337
2102 0.45035008
2100 0.4422034
2098 0.43770146
2096 0.43344572
2094 0.42883381
2092 0.41429493
2090 0.38952544
2088 0.35990429
2086 0.32743651
2084 0.29770476
2082 0.27002594
2080 0.23702496
2078 0.20110554
2076 0.16301686
2074 0.12417953
2072 0.096196115
2070 0.071762986
2068 0.071848817
2066 0.07866554
2064 0.12253255
2062 0.17357732
2060 0.22350019
2058 0.2685926
2056 0.28824857
2054 0.30277839
2052 0.31717202
2050 0.32952198
2048 0.33693564
2046 0.33293787
2044 0.3087616
2042 0.2860598
2040 0.27130651
2038 0.27573201
2036 0.30118743
2034 0.3264412
2032 0.34778845
2030 0.34715399
2028 0.32991856
2026 0.29263395
2024 0.24437846
2022 0.19540477
2020 0.14698368
2018 0.12529835
2016 0.114738
2014 0.14635806
2012 0.19166191
2010 0.24289457
2008 0.29109058
2006 0.26921842
2004 0.22192091
2002 0.12184097
2000 0.019082816
1998 -0.036444295
1996 -0.060485501
1994 -0.024939787
1992 0.024613012
1990 0.071676992
1988 0.10450702
1986 0.112644
1984 0.10676742
1982 0.089568444
1980 0.079578571
1978 0.081007831
1976 0.09846326
1974 0.12867221
1972 0.15265438
1970 0.17005073
1968 0.17258188
1966 0.16640671
1964 0.14477046
1962 0.11548303
1960 0.083252721
1958 0.050082605
1956 0.044585541
1954 0.049138494
1952 0.057947692
1950 0.065033741
1948 0.046619862
1946 0.020918749
1944 -0.00098086288
1942 -0.015803762
1940 -0.012219336
1938 -0.0043254597
1936 -0.00056078698
1934 -0.0062332111
1932 -0.027512252
1930 -0.071377695
1928 -0.14329556
1926 -0.23033187
1924 -0.32639715
1922 -0.3858417
1920 -0.4036971
1918 -0.35644469
1916 -0.26045144
1914 -0.15745959
1912 -0.057222508
1910 -0.0116864
1908 -0.00079562562
1906 -0.0055373237
1904 -0.016016876
1902 -0.00054158084
1900 0.027095156
1898 0.03177432
1896 0.023729287
1894 -0.029192755
1892 -0.099499762
1890 -0.1704898
1888 -0.23051572
1886 -0.24397458
1884 -0.23048589
1882 -0.18801695
1880 -0.13985692
1878 -0.10209958
1876 -0.084023803
1874 -0.09406738
1872 -0.125938
1870 -0.17576388
1868 -0.2182122
1866 -0.24633336
1864 -0.25214058
1862 -0.2404221
1860 -0.22020371
1858 -0.19575411
1856 -0.17718942
1854 -0.16315004
1852 -0.17234181
1850 -0.19579971
1848 -0.25015801
1846 -0.32046786
1844 -0.38987494
1842 -0.45636389
1840 -0.49521515
1838 -0.52230453
1836 -0.5558303
1834 -0.5945698
1832 -0.64016902
1830 -0.68150467
1828 -0.69797778
1826 -0.68782336
1824 -0.63846517
1822 -0.57415843
1820 -0.51216078
1818 -0.47450083
1816 -0.4754363
1814 -0.50711852
1812 -0.56196666
1810 -0.61246198
1808 -0.64862359
1806 -0.67142397
1804 -0.6849286
1802 -0.71384561
1800 -0.75835162
1798 -0.79342663
1796 -0.81790429
1794 -0.79505521
1792 -0.74092597
1790 -0.64670318
1788 -0.53078091
1786 -0.41555265
1784 -0.30557528
1782 -0.23950545
1780 -0.20544493
1778 -0.21856
1776 -0.26366514
1774 -0.33770654
1772 -0.40675476
1770 -0.41836756
1768 -0.37151074
1766 -0.25235742
1764 -0.10811332
1762 0.022939567
1760 0.027169839
1758 -0.064686947
1756 -0.19146544
1754 -0.34828776
1752 -0.52426219
1750 -0.70966101
1748 -0.87454915
1746 -1.0151292
1744 -1.0970743
1742 -1.131228
1740 -1.1191354
1738 -1.0753706
1736 -0.97800601
1734 -0.8418209
1732 -0.65616214
1730 -0.44159457
1728 -0.28476062
1726 -0.17418543
1724 -0.114059
1722 -0.077246569
1720 0.022607662
1718 0.25327486
1716 0.7813313
1714 1.539968
1712 2.4765337
1710 3.4935033
1708 4.4814157
1706 5.5642834
1704 6.8583713
1702 8.6575813
1700 11.12165
1698 14.466721
1696 18.672571
1694 22.859501
1692 26.641247
1690 29.876356
1688 32.640972
1686 35.845177
1684 39.610073
1682 44.28294
1680 49.694481
1678 54.636597
1676 59.1035
1674 63.459347
1672 67.795769
1670 72.684227
1668 77.934151
1666 82.832153
1664 87.300766
1662 90.998741
1660 93.967819
1658 96.245468
1656 97.836517
1654 98.761078
1652 99.03746
1650 98.731468
1648 97.977852
1646 96.947426
1644 95.76799
1642 94.559311
1640 93.052155
1638 91.13308
1636 88.403389
1634 84.801338
1632 80.74897
1630 76.455788
1628 72.082336
1626 67.680977
1624 62.928921
1622 57.825546
1620 52.791145
1618 47.871937
1616 43.362717
1614 39.28788
1612 35.776234
1610 32.825279
1608 30.327623
1606 28.258699
1604 26.46488
1602 24.969496
1600 23.770132
1598 22.874872
1596 22.2495
1594 21.892859
1592 21.762526
1590 21.85169
1588 22.123955
1586 22.570158
1584 23.165869
1582 23.909149
1580 24.78644
1578 25.926386
1576 27.369713
1574 29.186012
1572 31.380121
1570 33.72913
1568 36.178238
1566 38.509464
1564 40.69083
1562 42.716583
1560 44.613319
1558 46.84708
1556 49.4128
1554 51.920849
1552 54.194286
1550 55.666512
1548 56.332966
1546 56.576855
1544 56.31044
1542 55.512512
1540 54.16732
1538 52.375381
1536 50.415516
1534 48.687302
1532 47.110493
1530 45.596054
1528 44.064327
1526 42.451653
1524 40.707825
1522 38.798153
1520 36.685738
1518 34.336273
1516 32.032902
1514 29.873577
1512 27.81184
1510 25.858101
1508 23.527885
1506 20.699749
1504 17.867931
1502 15.091256
1500 12.769506
1498 10.962268
1496 9.2301569
1494 7.5857172
1492 5.9868412
1490 4.4736671
1488 3.1045337
1486 1.94546
1484 1.0526036
1482 0.44477433
1480 0.081466064
1478 -0.052641273
1476 0.025688753
1474 0.45957619
1472 1.2957141
1470 2.376663
1468 3.6289415
1466 4.8301458
1464 5.8383932
1462 6.7290478
1460 7.5104427
1458 8.2940054
1456 9.1127596
1454 9.8801861
1452 10.551717
1450 10.981449
1448 11.045588
1446 10.924214
1444 10.544254
1442 10.075335
1440 9.4779415
1438 8.7668781
1436 7.9119916
1434 6.9591374
1432 5.959579
1430 5.1043191
1428 4.4288077
1426 3.9345913
1424 3.595341
1422 3.3264139
1420 3.1516399
1418 3.0964525
1416 3.1994629
1414 3.518687
1412 3.9666629
1410 4.5054002
1408 5.057312
1406 5.5800457
1404 6.0372167
1402 6.3792701
1400 6.598032
1398 6.6194119
1396 6.5461931
1394 6.3276167
1392 6.1131749
1390 5.9023118
1388 5.6898618
1386 5.4656549
1384 5.1927423
1382 4.8496079
1380 4.465323
1378 4.0266728
1376 3.5506027
1374 3.0362964
1372 2.507014
1370 1.9737601
1368 1.4662268
1366 0.97994274
1364 0.50720048
1362 0.076919392
1360 -0.26468414
1358 -0.4866941
1356 -0.51630342
1354 -0.41857541
1352 -0.18387772
1350 0.11976521
1348 0.49424958
1346 0.8810904
1344 1.268888
1342 1.6349747
1340 1.9531586
1338 2.2358787
1336 2.4442744
1334 2.596693
1332 2.6377664
1330 2.612247
1328 2.4805424
1326 2.3217595
1324 2.1362171
1322 1.9791902
1320 1.8667303
1318 1.7973901
1316 1.7785
1314 1.7904694
1312 1.827572
1310 1.8695524
1308 1.9066094
1306 1.9229935
1304 1.9187022
1302 1.8870879
1300 1.8464557
1298 1.8120401
1296 1.8097857
1294 1.8889169
1292 2.0325732
1290 2.2985539
1288 2.615736
1286 3.0211992
1284 3.4333758
1282 3.8445816
1280 4.2156248
1278 4.4921155
1276 4.7079186
1274 4.8081222
1272 4.8811255
1270 4.9208703
1268 5.0065475
1266 5.1716728
1264 5.4245787
1262 5.790247
1260 6.2222919
1258 6.7256117
1256 7.2671828
1254 7.8525167
1252 8.4914598
1250 9.1791735
1248 9.9219265
1246 10.68725
1244 11.437434
1242 12.142826
1240 12.71644
1238 13.176498
1236 13.380129
1234 13.432848
1232 13.14868
1230 12.731649
1228 11.992483
1226 11.178343
1224 10.174934
1222 9.1628122
1220 8.1393042
1218 7.1793461
1216 6.3602886
1214 5.6645107
1212 5.1883168
1210 4.8471375
1208 4.6975045
1206 4.6228065
1204 4.6172361
1202 4.5577912
1200 4.4197273
1198 4.1422677
1196 3.7470071
1194 3.2726569
1192 2.758399
1190 2.2643609
1188 1.8000957
1186 1.4225621
1184 1.108111
1182 0.93584234
1180 0.824992
1178 0.83329111
1176 0.86795402
1174 0.94364011
1172 1.0232952
1170 1.108951
1168 1.1953554
1166 1.2833943
1164 1.3700843
1162 1.450577
1160 1.5087851
1158 1.5162033
1156 1.4706172
1154 1.3368381
1152 1.1699628
1150 0.9628914
1148 0.76594245
1146 0.58214998
1144 0.4137646
1142 0.26239681
1140 0.1347298
1138 0.029765585
1136 -0.0387206
1134 -0.081006259
1132 -0.042452667
1130 0.039264709
1128 0.18543051
1126 0.35608751
1124 0.56320029
1122 0.77438205
1120 0.97298998
1118 1.1586518
1116 1.2809743
1114 1.3885258
1112 1.4385662
1110 1.4786452
1108 1.4889014
1106 1.5134051
1104 1.5761366
1102 1.6739933
1100 1.8372983
1098 1.9883178
1096 2.1185143
1094 2.2329204
1092 2.3402421
1090 2.5336289
1088 2.8215868
1086 3.1933715
1084 3.617455
1082 3.9616516
1080 4.2327194
1078 4.31849
1076 4.3105574
1074 4.2249742
1072 4.1182442
1070 4.0416999
1068 3.9685936
1066 3.8722057
1064 3.7716079
1062 3.6628418
1060 3.5650599
1058 3.5409677
1056 3.5335944
1054 3.5977051
1052 3.6553228
1050 3.6872981
1048 3.6627047
1046 3.5011251
1044 3.3129246
1042 3.082258
1040 2.9151521
1038 2.8450365
1036 2.8363202
1034 2.8961089
1032 2.9526069
1030 2.9993823
1028 2.9776416
1026 2.8983843
1024 2.7073886
1022 2.4531331
1020 2.1452601
1018 1.8245902
1016 1.5882658
1014 1.3807651
1012 1.2404031
1010 1.1018416
1008 0.85384721
1006 0.59001166
1004 0.24721864
1002 -0.078960434
1000 -0.28623173
998 -0.46157101
996 -0.49693286
994 -0.52744764
992 -0.54442585
990 -0.58283424
988 -0.66973138
986 -0.75149322
984 -0.82221073
982 -0.85984254
980 -0.8516922
978 -0.81530356
976 -0.74871254
974 -0.6616447
972 -0.55948287
970 -0.47838771
968 -0.41299555
966 -0.40495101
964 -0.42239437
962 -0.43286175
960 -0.43724722
958 -0.35926363
956 -0.26361343
954 -0.16511965
952 -0.069771484
950 -0.058031805
948 -0.048057742
946 -0.015838394
944 0.0040896013
942 0.12357444
940 0.25585526
938 0.44237939
936 0.62364888
934 0.78887659
932 0.92586052
930 1.0027312
928 1.0779641
926 1.1513093
924 1.255018
922 1.3953341
920 1.5151314
918 1.6150742
916 1.6573243
914 1.6587712
912 1.6408811
910 1.613542
908 1.6378806
906 1.6832515
904 1.8723993
902 2.0997095
900 2.3815317
898 2.6718333
896 2.6952
