##TITLE=Methyl Ethyl Ketone
##JCAMP-DX=4.24
##DATA TYPE=INFRARED SPECTRUM
##XUNITS=cm-1
##YUNITS=Absorbance
##FIRSTX=900
##LASTX=2300
##XYDATA=(X++(Y..Y))
2296 -0.0062099998
2294 -0.0063391151
2292 -0.00646833
2290 -0.0065975455
2288 -0.0067267604
2286 -0.0068559758
2284 -0.0069850916
2282 -0.0071142069
2280 -0.0072435201
2278 -0.0073728347
2276 -0.0075018541
2274 -0.0076305745
2272 -0.0077602733
2270 -0.0078910673
2268 -0.0080186464
2266 -0.0081419563
2264 -0.0082769049
2262 -0.0084282113
2260 -0.0085359532
2258 -0.008582673
2256 -0.0087913973
2254 -0.0092277927
2252 -0.0090619139
2250 -0.0080467891
2248 -0.009270343
2246 -0.01250775
2244 -0.00046896571
2242 0.040375192
2240 0.089173242
2238 0.11692553
2236 0.10106985
2234 0.028856976
2232 -0.0805448
2230 -0.20034432
2228 -0.30994454
2226 -0.38995799
2224 -0.41822085
2222 -0.37729743
2220 -0.27209356
2218 -0.12168595
2216 0.024412286
2214 0.11621705
2212 0.1382924
2210 0.092346631
2208 0.0068603116
2206 -0.085328184
2204 -0.1660697
2202 -0.22508122
2200 -0.26521051
2198 -0.29277608
2196 -0.31201428
2194 -0.3270995
2192 -0.3448984
2190 -0.37211075
2188 -0.41120887
2186 -0.45841798
2184 -0.48999161
2182 -0.47994497
2180 -0.41904229
2178 -0.31037492
2176 -0.18460943
2174 -0.076627642
2172 -0.0022390666
2170 0.033329148
2168 0.041670613
2166 0.038572285
2164 0.034763623
2162 0.039624631
2160 0.064467467
2158 0.11765024
2156 0.192534
2154 0.2745249
2152 0.33722302
2150 0.35677823
2148 0.33574036
2146 0.28847179
2144 0.23987681
2142 0.21093601
2140 0.19255775
2138 0.16782042
2136 0.13153744
2134 0.089317136
2132 0.072738484
2130 0.11099615
2128 0.1856676
2126 0.26167178
2124 0.30735913
2122 0.30264449
2120 0.26774737
2118 0.23114927
2116 0.19439915
2114 0.1502838
2112 0.098790444
2110 0.044300202
2108 -0.003080064
2106 -0.033485968
2104 -0.046520025
2102 -0.044705097
2100 -0.02746376
2098 0.0050843726
2096 0.044415671
2094 0.080117404
2092 0.10761209
2090 0.12735431
2088 0.15070458
2086 0.1892775
2084 0.23837075
2082 0.28596431
2080 0.31717983
2078 0.32037801
2076 0.30100188
2074 0.27071464
2072 0.2383212
2070 0.20859016
2068 0.1755662
2066 0.1288175
2064 0.057200834
2062 -0.047798678
2060 -0.18333015
2058 -0.33820659
2056 -0.48596686
2054 -0.59644043
2052 -0.64956629
2050 -0.63744968
2048 -0.58418012
2046 -0.5244804
2044 -0.481738
2042 -0.46691537
2040 -0.46190506
2038 -0.44284907
2036 -0.4133043
2034 -0.39057004
2032 -0.39700761
2030 -0.4472
2028 -0.51643312
2026 -0.56554705
2024 -0.56790072
2022 -0.51452947
2020 -0.44355637
2018 -0.40853712
2016 -0.44036999
2014 -0.54760271
2012 -0.69242549
2010 -0.82409346
2008 -0.92383116
2006 -0.99047971
2004 -1.0299668
2002 -1.047212
2000 -1.032788
1998 -0.97609901
1996 -0.89051789
1994 -0.80339104
1992 -0.75102538
1990 -0.76220375
1988 -0.81877476
1986 -0.87961411
1984 -0.90215796
1982 -0.85615391
1980 -0.76077998
1978 -0.65501803
1976 -0.56028342
1974 -0.48265719
1972 -0.40604043
1970 -0.31377223
1968 -0.23059841
1966 -0.19822407
1964 -0.24008997
1962 -0.35898176
1960 -0.51449519
1958 -0.65381622
1956 -0.76076955
1954 -0.84024918
1952 -0.90125477
1950 -0.94803172
1948 -0.96165043
1946 -0.91972995
1944 -0.8367511
1942 -0.74729633
1940 -0.68629897
1938 -0.67675489
1936 -0.69575173
1934 -0.70273036
1932 -0.68488258
1930 -0.65035564
1928 -0.62621474
1926 -0.63825065
1924 -0.66864347
1922 -0.68160462
1920 -0.6681723
1918 -0.63877249
1916 -0.61625469
1914 -0.62133998
1912 -0.64198929
1910 -0.65375316
1908 -0.65857857
1906 -0.67199808
1904 -0.69806761
1902 -0.72794306
1900 -0.73036879
1898 -0.67096186
1896 -0.55363142
1894 -0.40895975
1892 -0.28492251
1890 -0.23086651
1888 -0.26772156
1886 -0.39219323
1884 -0.56930649
1882 -0.74981916
1880 -0.89551103
1878 -0.97919017
1876 -0.98713797
1874 -0.91389823
1872 -0.7589637
1870 -0.53420609
1868 -0.29635456
1866 -0.12317625
1864 -0.068502992
1862 -0.15501083
1860 -0.34238178
1858 -0.55904812
1856 -0.75594062
1854 -0.90431827
1852 -0.98869467
1850 -1.0039301
1848 -0.9624368
1846 -0.88911104
1844 -0.8188042
1842 -0.78390568
1840 -0.78307188
1838 -0.79110825
1836 -0.77288598
1834 -0.69448054
1832 -0.5447458
1830 -0.33621225
1828 -0.12077778
1826 0.031767085
1824 0.076848626
1822 0.00079127401
1820 -0.15586816
1818 -0.32402596
1816 -0.45449716
1814 -0.52329993
1812 -0.54443747
1810 -0.54946095
1808 -0.5451445
1806 -0.52036703
1804 -0.46936142
1802 -0.39438713
1800 -0.30761206
1798 -0.22117686
1796 -0.12027014
1794 0.019603692
1792 0.18084919
1790 0.31961286
1788 0.41340771
1786 0.46320835
1784 0.49277639
1782 0.53418553
1780 0.59606802
1778 0.67140383
1776 0.76389515
1774 0.8786847
1772 0.98265612
1770 1.0169879
1768 0.93361121
1766 0.71526164
1764 0.433285
1762 0.20254001
1760 0.054085761
1758 -0.039502703
1756 -0.059359901
1754 0.047257416
1752 0.2921192
1750 0.63838434
1748 0.98952585
1746 1.2247678
1744 1.2915732
1742 1.2123616
1740 1.0982234
1738 1.0909206
1736 1.20472
1734 1.3401221
1732 1.3520023
1730 1.1111162
1728 0.6548807
1726 0.15371805
1724 -0.20616104
1722 -0.2604683
1720 0.08417125
1718 0.83269405
1716 1.8272042
1714 2.814096
1712 3.646656
1710 4.3140736
1708 4.9675899
1706 5.8646369
1704 7.2344995
1702 9.2439852
1700 11.953175
1698 15.28411
1696 18.890285
1694 22.275848
1692 25.20961
1690 27.773262
1688 30.359257
1686 33.532135
1684 37.654015
1682 42.761139
1680 48.293999
1678 53.38028
1676 57.851784
1674 62.195145
1672 66.862793
1670 72.058495
1668 77.459068
1666 82.38105
1664 86.430412
1662 89.563156
1660 91.890434
1658 93.599648
1656 94.858452
1654 95.781723
1652 96.379982
1650 96.562149
1648 96.165703
1646 95.044075
1644 93.348869
1642 91.464432
1640 89.59301
1638 87.694389
1636 85.570396
1634 82.959808
1632 79.793686
1630 76.190628
1628 72.248329
1626 68.002884
1624 63.46376
1622 58.647591
1620 53.667908
1618 48.7258
1616 44.008629
1614 39.668926
1612 35.827087
1610 32.559219
1608 29.840778
1606 27.561029
1604 25.625299
1602 23.98052
1600 22.619526
1598 21.565218
1596 20.819
1594 20.352978
1592 20.119377
1590 20.065392
1588 20.171913
1586 20.45627
1584 20.944366
1582 21.66844
1580 22.705454
1578 24.168476
1576 26.139372
1574 28.632145
1572 31.512264
1570 34.519691
1568 37.450798
1566 40.203342
1564 42.743843
1562 45.128742
1560 47.623661
1558 50.596157
1556 53.90567
1554 56.872128
1552 58.937172
1550 59.875683
1548 59.902821
1546 59.577179
1544 59.152332
1542 58.445797
1540 57.14642
1538 54.98061
1536 52.090683
1534 49.048466
1532 46.309284
1530 44.061928
1528 42.291676
1526 40.806549
1524 39.364937
1522 37.727989
1520 35.741646
1518 33.387516
1516 30.840385
1514 28.427433
1512 26.284321
1510 24.275295
1508 22.182106
1506 19.803064
1504 17.182325
1502 14.63068
1500 12.368492
1498 10.42775
1496 8.7551718
1494 7.2514873
1492 5.8623967
1490 4.5949087
1488 3.4306052
1486 2.3179872
1484 1.27457
1482 0.41077754
1480 -0.15761907
1478 -0.33271128
1476 -0.019659966
1474 0.84460026
1472 2.1467919
1470 3.5787849
1468 4.9096298
1466 6.0757141
1464 7.1211228
1462 8.1764679
1460 9.3527622
1458 10.68443
1456 12.0482
1454 13.154793
1452 13.785717
1450 13.882964
1448 13.529354
1446 12.939643
1444 12.293703
1442 11.67719
1440 11.111452
1438 10.55478
1436 9.9353533
1434 9.1725044
1432 8.2597609
1430 7.2938027
1428 6.3960037
1426 5.6802936
1424 5.2053347
1422 4.9519567
1420 4.8682036
1418 4.883492
1416 4.9442201
1414 5.0304632
1412 5.1523714
1410 5.3483062
1408 5.6402655
1406 6.0158272
1404 6.4419217
1402 6.8654571
1400 7.22258
1398 7.4432011
1396 7.4728932
1394 7.2902226
1392 6.9252343
1390 6.4693456
1388 6.0066009
1386 5.585875
1384 5.2243109
1382 4.9040341
1380 4.6028576
1378 4.3017678
1376 3.9741514
1374 3.583684
1372 3.111136
1370 2.5690703
1368 1.9915303
1366 1.431245
1364 0.92569387
1362 0.48351982
1360 0.11340266
1358 -0.16477466
1356 -0.32436928
1354 -0.33457261
1352 -0.17898914
1350 0.13188052
1348 0.56615531
1346 1.0716525
1344 1.616092
1342 2.2015622
1340 2.808778
1338 3.3699
1336 3.7966685
1334 3.9949956
1332 3.926996
1330 3.6499219
1328 3.2467055
1326 2.8053272
1324 2.4038815
1322 2.0981526
1320 1.9149269
1318 1.8376728
1316 1.8219399
1314 1.795718
1312 1.7019588
1310 1.52362
1308 1.2774256
1306 1.0206472
1304 0.8077358
1302 0.67032921
1300 0.62362736
1298 0.66461229
1296 0.79472286
1294 1.0293454
1292 1.3803692
1290 1.8450402
1288 2.3993721
1286 2.9885302
1284 3.5557265
1282 4.0561771
1280 4.4638038
1278 4.7822523
1276 5.0262384
1274 5.218071
1272 5.3840575
1270 5.5540166
1268 5.7563181
1266 6.014329
1264 6.3434687
1262 6.747314
1260 7.2291479
1258 7.7973719
1256 8.4617319
1254 9.2319546
1252 10.110216
1250 11.084719
1248 12.136817
1246 13.238
1244 14.349192
1242 15.416389
1240 16.374435
1238 17.145151
1236 17.656485
1234 17.853584
1232 17.70048
1230 17.194822
1228 16.352072
1226 15.220386
1224 13.863726
1222 12.375729
1220 10.869159
1218 9.4854078
1216 8.3471146
1214 7.5258121
1212 7.0455098
1210 6.8570704
1208 6.8872495
1206 7.0486455
1204 7.2490478
1202 7.3948355
1200 7.4012966
1198 7.2071519
1196 6.7850499
1194 6.1690092
1192 5.4187884
1190 4.6165857
1188 3.8373969
1186 3.1282272
1184 2.5203698
1182 2.0257041
1180 1.6513752
1178 1.4028504
1176 1.27878
1174 1.2615249
1172 1.3223877
1170 1.4172776
1168 1.5060114
1166 1.5662965
1164 1.5891852
1162 1.5854701
1160 1.5651188
1158 1.5255527
1156 1.45785
1154 1.3466542
1152 1.1847892
1150 0.98757184
1148 0.77599043
1146 0.57043785
1144 0.38841075
1142 0.23934549
1140 0.12204765
1138 0.016693637
1136 -0.08592777
1134 -0.16080269
1132 -0.186444
1130 -0.16885641
1128 -0.11779911
1126 -0.036903895
1124 0.066672444
1122 0.17340572
1120 0.258488
1118 0.2928333
1116 0.25917369
1114 0.17235966
1112 0.059449363
1110 -0.042140603
1108 -0.10105708
1106 -0.10783785
1104 -0.063571885
1102 0.018027
1100 0.12732223
1098 0.27277774
1096 0.46795428
1094 0.72736621
1092 1.0557899
1090 1.4322623
1088 1.8305063
1086 2.2261357
1084 2.6016936
1082 2.9548497
1080 3.2739933
1078 3.5130429
1076 3.6234872
1074 3.5740292
1072 3.3664069
1070 3.0787318
1068 2.7967358
1066 2.5755448
1064 2.4406681
1062 2.359215
1060 2.2934427
1058 2.2327309
1056 2.17524
1054 2.1262324
1052 2.0875432
1050 2.0475419
1048 2.0011675
1046 1.9700106
1044 1.9783403
1042 2.0384758
1040 2.1534829
1038 2.3067849
1036 2.4779799
1034 2.6470211
1032 2.7854183
1030 2.8400753
1028 2.7655635
1026 2.5584636
1024 2.242023
1022 1.8861501
1020 1.5548526
1018 1.2593893
1016 0.99311829
1014 0.73552495
1012 0.47648084
1010 0.24715087
1008 0.076121718
1006 -0.047880679
1004 -0.15637572
1002 -0.31185111
1000 -0.55971217
998 -0.8677851
996 -1.1814643
994 -1.436264
992 -1.5847486
990 -1.6405361
988 -1.6285139
986 -1.5618258
984 -1.4471668
982 -1.2818229
980 -1.0746677
978 -0.879933
976 -0.75182313
974 -0.70766801
972 -0.74215418
970 -0.805632
968 -0.85035944
966 -0.87184
964 -0.87709397
962 -0.8755492
960 -0.86881417
958 -0.82987005
956 -0.73360962
954 -0.58612943
952 -0.40704039
950 -0.23570877
948 -0.10746269
946 -0.025890464
944 0.016418839
942 0.037698366
940 0.048187599
938 0.020134613
936 -0.068831086
934 -0.187269
932 -0.29145232
930 -0.34189099
928 -0.30693239
926 -0.18005255
924 0.041970044
922 0.37328124
920 0.82114881
918 1.3564546
916 1.9311886
914 2.4599929
912 2.8615046
910 3.104949
908 3.1888902
906 3.1758149
904 3.121568
902 2.9931946
900 2.7587979
898 2.4785526
896 2.2356999
