##TITLE=Methyl Ethyl Ketone
##JCAMP-DX=4.24
##DATA TYPE=INFRARED SPECTRUM
##XUNITS=cm-1
##YUNITS=Absorbance
##FIRSTX=900
##LASTX=2300
##XYDATA=(X++(Y..Y))
2296 0.080541998
2294 0.082217604
2292 0.08389321
2290 0.08556781
2288 0.087243408
2286 0.088919014
2284 0.09059462
2282 0.092270218
2280 0.093945824
2278 0.095621422
2276 0.097297035
2274 0.098972633
2272 0.10065118
2270 0.10231898
2268 0.1039964
2266 0.105674
2264 0.1073516
2262 0.10900968
2260 0.11069654
2258 0.11242305
2256 0.11405343
2254 0.1155453
2252 0.11740123
2250 0.11975212
2248 0.1207764
2246 0.11477357
2244 0.082559071
2242 0.012074262
2240 -0.064954244
2238 -0.11020789
2236 -0.10867043
2234 -0.058539964
2232 0.016040241
2230 0.087748483
2228 0.14628407
2226 0.1882495
2224 0.21775217
2222 0.24006766
2220 0.25639927
2218 0.26762882
2216 0.27836627
2214 0.2936286
2212 0.31554899
2210 0.34360173
2208 0.36999688
2206 0.38529271
2204 0.38221258
2202 0.35769436
2200 0.32300538
2198 0.29385179
2196 0.286185
2194 0.30949414
2192 0.34726846
2190 0.37639049
2188 0.38033032
2186 0.35157478
2184 0.31007439
2182 0.28164893
2180 0.28018206
2178 0.31172308
2176 0.36680743
2174 0.43016851
2172 0.48324454
2170 0.50779808
2168 0.49096256
2166 0.42664951
2164 0.32914516
2162 0.22008005
2160 0.1233352
2158 0.060830642
2156 0.0440786
2154 0.076759018
2152 0.14505817
2150 0.22616729
2148 0.28466901
2146 0.28931999
2144 0.24337731
2142 0.167401
2140 0.1029759
2138 0.090436265
2136 0.135858
2134 0.22769183
2132 0.33270708
2130 0.41458893
2128 0.45461559
2126 0.44716772
2124 0.41335133
2122 0.38016912
2120 0.35979459
2118 0.35413316
2116 0.34660015
2114 0.32030389
2112 0.28443629
2110 0.25727707
2108 0.25330594
2106 0.27942514
2104 0.31843394
2102 0.34933186
2100 0.37299219
2098 0.3985801
2096 0.43353856
2094 0.477009
2092 0.49777782
2090 0.46098858
2088 0.36556074
2086 0.2304015
2084 0.10053642
2082 0.022563778
2080 0.0089453394
2078 0.055151422
2076 0.1442638
2074 0.25639609
2072 0.3776252
2070 0.49457139
2068 0.58545494
2066 0.62805468
2064 0.61307985
2062 0.54353577
2060 0.45072421
2058 0.3742871
2056 0.3406457
2054 0.36274993
2052 0.42251465
2050 0.48898932
2048 0.53095996
2046 0.52324283
2044 0.46392259
2042 0.36447582
2040 0.25072461
2038 0.1513059
2036 0.082772739
2034 0.05183569
2032 0.047292117
2030 0.05020887
2028 0.040929124
2026 0.0055525796
2024 -0.045873638
2022 -0.091968074
2020 -0.10851406
2018 -0.079053231
2016 -0.022994
2014 0.025553944
2012 0.038998991
2010 0.0030576773
2008 -0.056691114
2006 -0.10070947
2004 -0.1069264
2002 -0.068263523
2000 -0.0023691552
1998 0.064859241
1996 0.11913364
1994 0.15258899
1992 0.15858428
1990 0.13318828
1988 0.083253816
1986 0.02225953
1984 -0.029921288
1982 -0.055310324
1980 -0.055717293
1978 -0.040911287
1976 -0.012932152
1974 0.031747721
1972 0.10151301
1970 0.20041111
1968 0.30498993
1966 0.38020384
1964 0.40031508
1962 0.35272491
1960 0.2572152
1958 0.14727378
1956 0.047244668
1954 -0.027574457
1952 -0.07579387
1950 -0.10325564
1948 -0.11822274
1946 -0.1291475
1944 -0.14209777
1942 -0.16059504
1940 -0.18286125
1938 -0.2049752
1936 -0.22534285
1934 -0.24333121
1932 -0.25632259
1930 -0.26012981
1928 -0.24887635
1926 -0.21737672
1924 -0.16699274
1922 -0.10543986
1920 -0.052530747
1918 -0.029879238
1916 -0.039652959
1914 -0.072362408
1912 -0.1162279
1910 -0.16284624
1908 -0.21989597
1906 -0.29849213
1904 -0.38577801
1902 -0.4534162
1900 -0.46720648
1898 -0.40037185
1896 -0.26757857
1894 -0.11044791
1892 0.014818482
1890 0.053916689
1888 -0.012021655
1886 -0.17288661
1884 -0.38300478
1882 -0.58167809
1880 -0.72397077
1878 -0.78168744
1876 -0.75215799
1874 -0.64802313
1872 -0.48802087
1870 -0.2984587
1868 -0.12927906
1866 -0.037295058
1864 -0.048473574
1862 -0.16034211
1860 -0.3322826
1858 -0.50909626
1856 -0.66408688
1854 -0.79044038
1852 -0.88323677
1850 -0.93746656
1848 -0.95143443
1846 -0.92871535
1844 -0.88681746
1842 -0.84788644
1840 -0.81719422
1838 -0.78535527
1836 -0.728535
1834 -0.61950582
1832 -0.45093125
1830 -0.23733541
1828 -0.030846834
1826 0.10180908
1824 0.12946521
1822 0.052791204
1820 -0.098525882
1818 -0.28087169
1816 -0.45962945
1814 -0.60809535
1812 -0.70059085
1810 -0.71449262
1808 -0.64200664
1806 -0.49349248
1804 -0.31680351
1802 -0.17782952
1800 -0.11632577
1798 -0.13971621
1796 -0.20127286
1794 -0.23025386
1792 -0.20190841
1790 -0.12805294
1788 -0.025579147
1786 0.090561733
1784 0.2101616
1782 0.32546425
1780 0.42555973
1778 0.50298017
1776 0.57790917
1774 0.68119031
1772 0.80238062
1770 0.89526284
1768 0.89458156
1766 0.74794257
1764 0.50510359
1762 0.27216047
1760 0.072953425
1758 -0.12621528
1756 -0.30595398
1754 -0.40225428
1752 -0.36546177
1750 -0.1792675
1748 0.096876204
1746 0.35303178
1744 0.49238974
1742 0.46026117
1740 0.31792358
1738 0.19612801
1736 0.15819
1734 0.19169427
1732 0.22258408
1730 0.15728423
1728 -0.013399012
1726 -0.22087859
1724 -0.35841572
1722 -0.30228519
1720 0.061588168
1718 0.79850149
1716 1.7932442
1714 2.8088529
1712 3.6873412
1710 4.3892021
1708 5.0429721
1706 5.8921633
1704 7.1577172
1702 9.008338
1700 11.537058
1698 14.728095
1696 18.303858
1694 21.82098
1692 25.000401
1690 27.801361
1688 30.531435
1686 33.728207
1684 37.791981
1682 42.837189
1680 48.351238
1678 53.46497
1676 57.967373
1674 62.274685
1672 66.808128
1670 71.78186
1668 76.905502
1666 81.542053
1664 85.351311
1662 88.338173
1660 90.613693
1658 92.317818
1656 93.555656
1654 94.389885
1652 94.849602
1650 94.927528
1648 94.549652
1646 93.624825
1644 92.238647
1642 90.614532
1640 88.853485
1638 86.901024
1636 84.618614
1634 81.848595
1632 78.589821
1630 74.974205
1628 71.050652
1626 66.774864
1624 62.130001
1622 57.170841
1620 52.089912
1618 47.181686
1616 42.670742
1614 38.679661
1612 35.247307
1610 32.339832
1608 29.86532
1606 27.698879
1604 25.774656
1602 24.095837
1600 22.695927
1598 21.619204
1596 20.870499
1594 20.409969
1592 20.186338
1590 20.150299
1588 20.284719
1586 20.606972
1584 21.132092
1582 21.874889
1580 22.893934
1578 24.285786
1576 26.116943
1574 28.394621
1572 31.018721
1570 33.801666
1568 36.608921
1566 39.380199
1564 42.06493
1562 44.645889
1560 47.303528
1558 50.33543
1556 53.615158
1554 56.559299
1552 58.688744
1550 59.810001
1548 60.09277
1546 59.98386
1544 59.664848
1542 58.959034
1540 57.651058
1538 55.626045
1536 53.086399
1534 50.528172
1532 48.280621
1530 46.393143
1528 44.776829
1526 43.248199
1524 41.610409
1522 39.697975
1520 37.46273
1518 35.005402
1516 32.53347
1514 30.294838
1512 28.30896
1510 26.322018
1508 24.088432
1506 21.487236
1504 18.663406
1502 16.014187
1500 13.781457
1498 11.94351
1496 10.381543
1494 8.938879
1492 7.5268407
1490 6.1465683
1488 4.7917051
1486 3.4380472
1484 2.133888
1482 1.0186099
1480 0.22468513
1478 -0.1484597
1476 -0.0074310005
1474 0.70875245
1472 1.8798989
1470 3.18663
1468 4.394115
1466 5.4419928
1464 6.361814
1462 7.253221
1460 8.214613
1458 9.3067112
1456 10.4938
1454 11.62213
1452 12.508277
1450 12.985229
1448 13.00568
1446 12.679464
1444 12.140749
1442 11.50399
1440 10.845543
1438 10.188731
1436 9.5232382
1434 8.814147
1432 8.0539351
1430 7.2801743
1428 6.5477839
1426 5.9174623
1424 5.4279594
1422 5.0839672
1420 4.8731976
1418 4.7725368
1416 4.7680373
1414 4.8620558
1412 5.0606561
1410 5.3672886
1408 5.7714562
1406 6.2416592
1404 6.7330236
1402 7.1883073
1400 7.5489278
1398 7.7621136
1396 7.7949643
1394 7.6463299
1392 7.3457971
1390 6.9553943
1388 6.5304127
1386 6.1046052
1384 5.6988058
1382 5.3200817
1380 4.9629159
1378 4.6061649
1376 4.2190571
1374 3.7665517
1372 3.2409239
1370 2.6769402
1368 2.1145492
1366 1.5842779
1364 1.0977521
1362 0.64451396
1360 0.23284853
1358 -0.093248621
1356 -0.28807771
1354 -0.31886196
1352 -0.17381737
1350 0.12947106
1348 0.56276429
1346 1.0925531
1344 1.691704
1342 2.3405252
1340 2.9935453
1338 3.5613229
1336 3.9480429
1334 4.0745597
1332 3.9320626
1330 3.618485
1328 3.2409801
1326 2.8789451
1324 2.5853043
1322 2.3779221
1320 2.2573996
1318 2.2063184
1316 2.1896999
1314 2.1515455
1312 2.0454743
1310 1.8539251
1308 1.5919346
1306 1.3184956
1304 1.0955527
1302 0.96963608
1300 0.96379423
1298 1.0666015
1296 1.2603571
1294 1.5314263
1292 1.8737246
1290 2.2909751
1288 2.77652
1286 3.3008127
1284 3.8249376
1282 4.3039784
1280 4.7032471
1278 5.010222
1276 5.2276611
1274 5.3771958
1272 5.4889851
1270 5.6001954
1268 5.7453303
1266 5.9498672
1264 6.2321172
1262 6.6010447
1260 7.061964
1258 7.6178932
1256 8.2732458
1254 9.0344696
1252 9.9004145
1250 10.852615
1248 11.859715
1246 12.876249
1244 13.859894
1242 14.790485
1240 15.646378
1238 16.401228
1236 17.012444
1234 17.409595
1232 17.52384
1230 17.303192
1228 16.727407
1226 15.83595
1224 14.697989
1222 13.411738
1220 12.082375
1218 10.817384
1216 9.7084341
1214 8.82372
1212 8.2084017
1210 7.8730683
1208 7.7953734
1206 7.8993063
1204 8.0813055
1202 8.2102604
1200 8.1756191
1198 7.9278879
1196 7.4632854
1194 6.8432536
1192 6.1390266
1190 5.4083009
1188 4.6942315
1186 4.0159631
1184 3.3915479
1182 2.8475115
1180 2.407645
1178 2.083873
1176 1.8739001
1174 1.7508851
1172 1.6848226
1170 1.6526338
1168 1.6380618
1166 1.6358871
1164 1.6383749
1162 1.6259041
1160 1.5788468
1158 1.4845989
1156 1.3422371
1154 1.1732763
1152 0.99780321
1150 0.82062143
1148 0.64135557
1146 0.45777178
1144 0.27894297
1142 0.13879636
1140 0.055788446
1138 0.0003948994
1136 -0.050466254
1134 -0.07765995
1132 -0.051657908
1130 0.05562833
1128 0.25241193
1126 0.49905869
1124 0.73604202
1122 0.88604176
1120 0.8915596
1118 0.75626647
1116 0.52073914
1114 0.27819997
1112 0.11555114
1110 0.070465833
1108 0.1469126
1106 0.29525602
1104 0.46334371
1102 0.62606931
1100 0.77435589
1098 0.92305547
1096 1.0892285
1094 1.2812295
1092 1.5061259
1090 1.773277
1088 2.0866377
1086 2.434432
1084 2.7949152
1082 3.131258
1080 3.4008446
1078 3.557739
1076 3.5701244
1074 3.4475429
1072 3.2239537
1070 2.9710481
1068 2.7529809
1066 2.5877986
1064 2.472152
1062 2.3756671
1060 2.2673066
1058 2.1345057
1056 1.9750428
1054 1.8042705
1052 1.6460954
1050 1.535028
1048 1.4975686
1046 1.5286893
1044 1.6079452
1042 1.693424
1040 1.7533932
1038 1.8010118
1036 1.86252
1034 1.9682152
1032 2.1245451
1030 2.2647057
1028 2.3134191
1026 2.2239592
1024 1.9860016
1022 1.675413
1020 1.3764811
1018 1.1352277
1016 0.97139174
1014 0.85401314
1012 0.7427237
1010 0.60717082
1008 0.42534441
1006 0.19386554
1004 -0.07976684
1002 -0.36835128
1000 -0.63945639
998 -0.85963207
996 -1.0003278
994 -1.049948
992 -1.013117
990 -0.9319334
988 -0.8551653
986 -0.82173449
984 -0.85392433
982 -0.92773747
980 -1.00764
978 -1.0582887
976 -1.0533571
974 -0.9964757
972 -0.90695757
970 -0.82971358
968 -0.81045341
966 -0.87454802
964 -1.0238534
962 -1.197524
960 -1.3222281
958 -1.3358738
956 -1.2021321
954 -0.96327925
952 -0.6799888
950 -0.40910059
948 -0.19687359
946 -0.055359535
944 0.017340308
942 0.042365417
940 0.035783313
938 -0.02137173
936 -0.14198285
934 -0.28539869
932 -0.40317661
930 -0.46736747
928 -0.46220496
926 -0.39824301
924 -0.29624021
922 -0.19050163
920 -0.11748429
918 -0.1083703
916 -0.16919601
914 -0.21497652
912 -0.14580068
910 0.1079545
908 0.57785189
906 1.1770693
904 1.8017108
902 2.3974447
900 2.9201391
898 3.3180139
896 3.5374999
