##TITLE=Methyl Ethyl Ketone
##JCAMP-DX=4.24
##DATA TYPE=INFRARED SPECTRUM
##XUNITS=cm-1
##YUNITS=Absorbance
##FIRSTX=900
##LASTX=2300
##XYDATA=(X++(Y..Y))
2296 0.090457998
2294 0.092380248
2292 0.094301499
2290 0.096223749
2288 0.098145001
2286 0.10006625
2284 0.10199346
2282 0.1039108
2280 0.10583795
2278 0.10775532
2276 0.10967258
2274 0.11159967
2272 0.11351708
2270 0.11544415
2268 0.1173616
2266 0.11928864
2264 0.12120612
2262 0.12313313
2260 0.12505063
2258 0.12697761
2256 0.12889515
2254 0.13082209
2252 0.13273965
2250 0.13465691
2248 0.13658382
2246 0.13850142
2244 0.077004917
2242 0.0028785856
2240 -0.087009601
2238 -0.15517081
2236 -0.22001158
2234 -0.1847048
2232 -0.14184846
2230 -0.091309056
2228 -0.057234846
2226 -0.1572699
2224 -0.27440915
2222 -0.43840608
2220 -0.57947814
2218 -0.64305669
2216 -0.68290514
2214 -0.68047881
2212 -0.66811097
2210 -0.64359415
2208 -0.61247319
2206 -0.57405329
2204 -0.56344044
2202 -0.58010924
2200 -0.60475683
2198 -0.63401729
2196 -0.62433428
2194 -0.59199983
2192 -0.55838901
2190 -0.52488023
2188 -0.50507331
2186 -0.48972565
2184 -0.44794041
2182 -0.40002462
2180 -0.36167881
2178 -0.3257966
2176 -0.37107259
2174 -0.42892912
2172 -0.54497737
2170 -0.66038269
2168 -0.74038106
2166 -0.79809928
2164 -0.78711396
2162 -0.77777976
2160 -0.79023296
2158 -0.82930362
2156 -0.91469002
2154 -0.98646724
2152 -1.0316337
2150 -1.0463903
2148 -1.0301615
2146 -1.0141715
2144 -1.0012324
2142 -0.99717218
2140 -0.99900812
2138 -1.0095886
2136 -1.0246285
2134 -1.0600028
2132 -1.1039521
2130 -1.1557394
2128 -1.20996
2126 -1.2284486
2124 -1.2385205
2122 -1.1875074
2120 -1.1253697
2118 -1.034404
2116 -0.94439429
2114 -0.8916707
2112 -0.85776782
2110 -0.88352108
2108 -0.92214125
2106 -0.97318393
2104 -1.018189
2102 -1.045908
2100 -1.070556
2098 -1.0945199
2096 -1.1161572
2094 -1.134774
2092 -1.1467971
2090 -1.1525791
2088 -1.1739898
2086 -1.2091349
2084 -1.2556012
2082 -1.3083916
2080 -1.3495829
2078 -1.3841369
2076 -1.41359
2074 -1.4411552
2072 -1.451128
2070 -1.4554704
2068 -1.4429568
2066 -1.4268615
2064 -1.4403852
2062 -1.4601738
2060 -1.4859486
2058 -1.507847
2056 -1.5017056
2054 -1.4941581
2052 -1.5007617
2050 -1.5155061
2048 -1.5431503
2046 -1.5670643
2044 -1.578234
2042 -1.5951073
2040 -1.624812
2038 -1.6533768
2036 -1.6783686
2034 -1.6574576
2032 -1.5926902
2030 -1.5045609
2028 -1.4038171
2026 -1.3302635
2024 -1.2751806
2022 -1.2258313
2020 -1.1779234
2018 -1.1417323
2016 -1.11062
2014 -1.1359638
2012 -1.1805686
2010 -1.2655724
2008 -1.3618869
2006 -1.4702035
2004 -1.5803571
2002 -1.680799
2000 -1.770952
1998 -1.8253363
1996 -1.8582571
1994 -1.8522867
1992 -1.8276062
1990 -1.7843478
1988 -1.742154
1986 -1.71249
1984 -1.7008492
1982 -1.71006
1980 -1.7293051
1978 -1.7533214
1976 -1.7466571
1974 -1.710198
1972 -1.6012543
1970 -1.4410625
1968 -1.3119115
1966 -1.2085299
1964 -1.2847291
1962 -1.4541277
1960 -1.651704
1958 -1.8566657
1956 -1.9222243
1954 -1.9360663
1952 -1.9030714
1950 -1.858726
1948 -1.8348501
1946 -1.821425
1944 -1.8307514
1942 -1.8465555
1940 -1.8678752
1938 -1.8807219
1936 -1.8688371
1934 -1.8488491
1932 -1.8248039
1930 -1.7966337
1928 -1.7607675
1926 -1.6601335
1924 -1.4760435
1922 -1.2169528
1920 -0.90203559
1918 -0.68854499
1916 -0.58156461
1914 -0.59528804
1912 -0.68281949
1910 -0.74293727
1908 -0.77544445
1906 -0.83896917
1904 -0.92234796
1902 -1.0449162
1900 -1.1854777
1898 -1.2051591
1896 -1.1710714
1894 -1.0562664
1892 -0.92332208
1890 -0.88373357
1888 -0.9063713
1886 -1.0470039
1884 -1.2338037
1882 -1.428126
1880 -1.6019794
1878 -1.7194699
1876 -1.75304
1874 -1.6632475
1872 -1.4361686
1870 -1.061192
1868 -0.7159946
1866 -0.47094598
1864 -0.46068722
1862 -0.67271072
1860 -0.95033562
1858 -1.2331173
1856 -1.4365143
1854 -1.5753568
1852 -1.5747749
1850 -1.4869031
1848 -1.237408
1846 -0.89849395
1844 -0.71694255
1842 -0.62768137
1840 -0.81521356
1838 -1.1226822
1836 -1.3293629
1834 -1.447861
1832 -1.3346183
1830 -1.0846398
1828 -0.72024441
1826 -0.375247
1824 -0.22621657
1822 -0.28002405
1820 -0.59235084
1818 -0.99019605
1816 -1.3559972
1814 -1.5979514
1812 -1.6756288
1810 -1.6270543
1808 -1.4929714
1806 -1.2825
1804 -1.0195392
1802 -0.73485506
1800 -0.44068748
1798 -0.18702832
1796 0.033147857
1794 0.21050468
1792 0.35860398
1790 0.37994233
1788 0.3194598
1786 0.20158522
1784 0.061314084
1782 0.044749215
1780 0.11939022
1778 0.35352498
1776 0.67620713
1774 1.0151122
1772 1.2662885
1770 1.2034299
1768 0.93907893
1766 0.54773664
1764 0.20684659
1762 0.088883586
1760 0.030767931
1758 -0.079642646
1756 -0.15476914
1754 -0.15114309
1752 0.1254283
1750 0.70537281
1748 1.3954732
1746 2.1014571
1744 2.4320648
1742 2.3957655
1740 2.2608168
1738 2.1086581
1736 2.2463
1734 2.6126232
1732 2.6751695
1730 2.4871168
1728 1.7930599
1726 0.79994845
1724 0.11355601
1722 -0.25081265
1720 0.10331142
1718 1.0433598
1716 2.4053514
1714 3.8058844
1712 4.6572275
1710 5.1630759
1708 5.562324
1706 6.222692
1704 7.4902554
1702 9.5783167
1700 12.551392
1698 16.131672
1696 20.047142
1694 23.505951
1692 26.246643
1690 28.706785
1688 31.105059
1686 34.33638
1684 38.426083
1682 43.039124
1680 47.98172
1678 52.054478
1676 55.356956
1674 58.797012
1672 62.437313
1670 66.719124
1668 71.451431
1666 75.962906
1664 80.260368
1662 84.329445
1660 88.199905
1658 91.931274
1656 95.501427
1654 98.884056
1652 101.7994
1650 103.92635
1648 104.58572
1646 103.25928
1644 100.68247
1642 97.584045
1640 94.303604
1638 91.075699
1636 87.389816
1634 83.077438
1632 78.561104
1630 74.011635
1628 69.779945
1626 65.908669
1624 61.936001
1622 57.806004
1620 53.651447
1618 49.49424
1616 45.482944
1614 41.645657
1612 38.181953
1610 35.127319
1608 32.572453
1606 30.490658
1604 28.713602
1602 27.230436
1600 25.964794
1598 24.917606
1596 24.0555
1594 23.379362
1592 22.86124
1590 22.510149
1588 22.311731
1586 22.2953
1584 22.466383
1582 22.862478
1580 23.490396
1578 24.414188
1576 25.642742
1574 27.05702
1572 28.60257
1570 30.017267
1568 31.24152
1566 32.328735
1564 33.294441
1562 34.553005
1560 36.210678
1558 38.72715
1556 42.066246
1554 45.104382
1552 47.664673
1550 49.363792
1548 50.330208
1546 51.327213
1544 52.329361
1542 53.274208
1540 53.783558
1538 53.282982
1536 51.92934
1534 50.080784
1532 48.144718
1530 46.58334
1528 45.327526
1526 44.307201
1524 43.292561
1522 42.133877
1520 40.544361
1518 38.351925
1516 36.009842
1514 33.652489
1512 31.544239
1510 29.79278
1508 27.681561
1506 25.055536
1504 22.194567
1502 19.109966
1500 16.529926
1498 14.52961
1496 12.663571
1494 10.943433
1492 9.2555294
1490 7.6147571
1488 6.0252333
1486 4.4869061
1484 2.9774799
1482 1.616363
1480 0.59097272
1478 0.01439932
1476 0.021910712
1474 0.60435557
1472 1.6109428
1470 2.633316
1468 3.3755107
1466 3.9315164
1464 4.346982
1462 4.8899732
1460 5.7165775
1458 6.6366072
1456 7.6154599
1454 8.1816893
1452 8.082345
1450 7.7336969
1448 7.0620537
1446 6.4438891
1444 5.9113622
1442 5.4675694
1440 5.1576819
1438 4.9682684
1436 4.9027557
1434 4.7983618
1432 4.6199079
1430 4.3080487
1428 3.9180522
1426 3.6346922
1424 3.5086207
1422 3.5997746
1420 3.8527997
1418 4.1688051
1416 4.4509087
1414 4.5830431
1412 4.6283865
1410 4.6345301
1408 4.6930394
1406 4.8851843
1404 5.1771026
1402 5.5943561
1400 6.0404758
1398 6.5017171
1396 6.8765216
1394 7.0810733
1392 7.1450982
1390 6.9632463
1388 6.6938887
1386 6.2902303
1384 5.8461361
1382 5.3610082
1380 4.9182687
1378 4.5468626
1376 4.2601857
1374 4.0589948
1372 3.8547421
1370 3.6260598
1368 3.3331308
1366 2.9764779
1364 2.5787663
1362 2.1449206
1360 1.6736658
1358 1.205292
1356 0.78529811
1354 0.43171513
1352 0.20166117
1350 0.046852678
1348 -0.024839658
1346 -0.0472476
1344 0.050943598
1342 0.22794189
1340 0.54774427
1338 0.81775939
1336 0.96166801
1334 0.95900953
1332 0.69022852
1330 0.43166369
1328 0.21185334
1326 0.12413923
1324 0.23955715
1322 0.46766767
1320 0.83301622
1318 1.2240258
1316 1.6108601
1314 1.8903883
1312 2.0406182
1310 2.0584283
1308 1.9752294
1306 1.8640364
1304 1.7400571
1302 1.624958
1300 1.5104958
1298 1.383114
1296 1.2528143
1294 1.1220577
1292 1.0030062
1290 0.91384333
1288 0.84766084
1286 0.82963395
1284 0.82940304
1282 0.86539483
1280 0.90881872
1278 0.96902454
1276 1.0408214
1274 1.1371839
1272 1.2412914
1270 1.359764
1268 1.4807892
1266 1.6107521
1264 1.7708211
1262 1.9734913
1260 2.2210181
1258 2.5130594
1256 2.817317
1254 3.1287229
1252 3.4325585
1250 3.7349684
1248 4.0494847
1246 4.3733249
1244 4.7062678
1242 5.0286293
1240 5.3022838
1238 5.5321183
1236 5.662797
1234 5.7411399
1232 5.7096519
1230 5.637239
1228 5.4680099
1226 5.2664385
1224 4.9767113
1222 4.6432905
1220 4.2052884
1218 3.7428079
1216 3.2384858
1214 2.7681041
1212 2.3573296
1210 1.9770858
1208 1.6300532
1206 1.2486086
1204 0.82189
1202 0.35849509
1200 -0.12657169
1198 -0.5640527
1196 -0.94745076
1194 -1.2447376
1192 -1.4859995
1190 -1.697364
1188 -1.8963566
1186 -2.0989571
1184 -2.2935319
1182 -2.4507999
1180 -2.5691133
1178 -2.5624261
1176 -2.49754
1174 -2.2654073
1172 -2.0058961
1170 -1.6795647
1168 -1.3674371
1166 -1.0989969
1164 -0.83229685
1162 -0.5663482
1160 -0.27330157
1158 0.067468375
1156 0.37591344
1154 0.61653548
1152 0.74921846
1150 0.73367524
1148 0.65156138
1146 0.49991572
1144 0.3421208
1142 0.18727139
1140 0.077151239
1138 0.019952189
1136 0.088520311
1134 0.2433506
1132 0.52064818
1130 0.85481668
1128 1.2420337
1126 1.6479456
1124 2.0769475
1122 2.5006518
1120 2.874352
1118 3.2185965
1116 3.4296927
1114 3.6224577
1112 3.7485723
1110 3.8831947
1108 4.0447125
1106 4.2144399
1104 4.4050913
1102 4.6069274
1100 4.8338475
1098 5.0932984
1096 5.4054141
1094 5.7433438
1092 6.1156039
1090 6.5123973
1088 6.9364872
1086 7.389051
1084 7.8623862
1082 8.3294992
1080 8.7835493
1078 9.1691284
1076 9.4988918
1074 9.6486959
1072 9.7117691
1070 9.5741549
1068 9.3884563
1066 9.1754742
1064 8.9799356
1062 8.9394083
1060 8.9361877
1058 9.1244297
1056 9.3267488
1054 9.5891447
1052 9.8382654
1050 10.044889
1048 10.240674
1046 10.411465
1044 10.572012
1042 10.712662
1040 10.841725
1038 10.957085
1036 11.0881
1034 11.233462
1032 11.324274
1030 11.34591
1028 11.140963
1026 10.759493
1024 10.161794
1022 9.4523745
1020 8.7718859
1018 8.1115599
1016 7.5533257
1014 7.0122709
1012 6.3598037
1010 5.6812353
1008 4.9195161
1006 4.1665769
1004 3.5991468
1002 3.0555518
1000 2.6638594
998 2.2843466
996 1.9588715
994 1.65798
992 1.4325223
990 1.2106247
988 0.99470407
986 0.74456346
984 0.43658143
982 0.14111328
980 -0.1339734
978 -0.35082155
976 -0.50368917
974 -0.58434314
972 -0.60149544
970 -0.5069328
968 -0.34577876
966 -0.2084592
964 -0.086880699
962 -0.065811284
960 -0.0740669
958 -0.014310487
956 0.057351112
954 0.073722899
952 0.077955753
950 -0.047869019
948 -0.1630255
946 -0.053102251
944 0.0063065141
942 0.19589376
940 0.55857182
938 0.90088862
936 1.1894715
934 1.3198144
932 1.3944737
930 1.3493956
928 1.2484572
926 1.0591302
924 0.88858217
922 0.74548209
920 0.84796399
918 1.1816933
916 1.75563
914 2.4980974
912 3.196636
910 3.8717659
908 4.4672575
906 5.0333462
904 5.6270432
902 6.2282782
900 6.7124319
898 7.1774864
896 7.3077002
