##TITLE=Methyl Ethyl Ketone
##JCAMP-DX=4.24
##DATA TYPE=INFRARED SPECTRUM
##XUNITS=cm-1
##YUNITS=Absorbance
##FIRSTX=900
##LASTX=2300
##XYDATA=(X++(Y..Y))
2296 0.0018811
2294 0.001920244
2292 0.0019592883
2290 0.001998432
2288 0.0020375759
2286 0.0020767199
2284 0.0021158641
2282 0.002155107
2280 0.0021941531
2278 0.0022331972
2276 0.00227234
2274 0.0023115824
2272 0.002350728
2270 0.0023894794
2268 0.0024288122
2266 0.0024693299
2264 0.0025072335
2262 0.0025416645
2260 0.0025853687
2258 0.0026423419
2256 0.0026642999
2254 0.0026370611
2252 0.0027397403
2250 0.0030258924
2248 0.0028289338
2246 0.0015987892
2244 5.7701425e-05
2242 0.00013023512
2240 0.0071484908
2238 0.02582543
2236 0.054517843
2234 0.087077156
2232 0.10650865
2230 0.1001178
2228 0.085100338
2226 0.083734497
2224 0.10369599
2222 0.14175646
2220 0.16829509
2218 0.15417594
2216 0.10346772
2214 0.034015268
2212 -0.02112616
2210 -0.033208326
2208 -0.0089091677
2206 0.034648146
2204 0.081878409
2202 0.11984208
2200 0.14372629
2198 0.1518472
2196 0.14512499
2194 0.12777944
2192 0.11445349
2190 0.11938694
2188 0.14200935
2186 0.17485686
2184 0.20192601
2182 0.20876227
2180 0.19800919
2178 0.17896043
2176 0.16530457
2174 0.16881731
2172 0.18825418
2170 0.2179369
2168 0.25170863
2166 0.28383136
2164 0.31055689
2162 0.32839382
2160 0.33228618
2158 0.31901759
2156 0.29521999
2154 0.27138993
2152 0.26008034
2150 0.27135816
2148 0.3024624
2146 0.34560394
2144 0.39077738
2142 0.42937759
2140 0.46130785
2138 0.48899126
2136 0.51270717
2134 0.53172046
2132 0.54439253
2130 0.54929811
2128 0.54692763
2126 0.53975743
2124 0.5354079
2122 0.54260129
2120 0.56715584
2118 0.60884845
2116 0.64730024
2114 0.65854448
2112 0.63459808
2110 0.57772613
2108 0.50689495
2106 0.44157913
2104 0.37822253
2102 0.30637145
2100 0.22405601
2098 0.13669562
2096 0.065467432
2094 0.030017685
2092 0.018938871
2090 0.010081351
2088 -0.012138666
2086 -0.053422
2084 -0.091114074
2082 -0.096483029
2080 -0.061674539
2078 0.0088753961
2076 0.096163668
2074 0.17857082
2072 0.24647841
2070 0.29732046
2068 0.336734
2066 0.37144634
2064 0.39964414
2062 0.41357461
2060 0.39595637
2058 0.33078751
2056 0.22344486
2054 0.092211209
2052 -0.028583139
2050 -0.10638121
2048 -0.14256628
2046 -0.15589501
2044 -0.17609541
2042 -0.22808373
2040 -0.29970971
2038 -0.36421162
2036 -0.40137443
2034 -0.40042639
2032 -0.37482548
2030 -0.34399229
2028 -0.30846012
2026 -0.25879252
2024 -0.18101668
2022 -0.068018317
2020 0.051888771
2018 0.13642731
2016 0.15185401
2014 0.08136785
2012 -0.040331803
2010 -0.16095115
2008 -0.25197709
2006 -0.30409643
2004 -0.33736813
2002 -0.3773782
2000 -0.41865143
1998 -0.43997726
1996 -0.41820216
1994 -0.34279913
1992 -0.25678867
1990 -0.22160934
1988 -0.26909959
1986 -0.40233749
1984 -0.56882483
1982 -0.70024949
1980 -0.77033675
1978 -0.77908206
1976 -0.74438745
1974 -0.68766254
1972 -0.61425638
1970 -0.52462447
1968 -0.43437982
1966 -0.36430934
1964 -0.32280329
1962 -0.30783328
1960 -0.30174279
1958 -0.28532615
1956 -0.2644107
1954 -0.25507089
1952 -0.26041052
1950 -0.27532834
1948 -0.29208139
1946 -0.30867499
1944 -0.35121423
1942 -0.45119697
1940 -0.60005885
1938 -0.76407582
1936 -0.89586514
1934 -0.95294052
1932 -0.93756342
1930 -0.87637371
1928 -0.79701203
1926 -0.72152513
1924 -0.65377122
1922 -0.59082019
1920 -0.54219419
1918 -0.52044821
1916 -0.51844305
1914 -0.52005893
1912 -0.5195083
1910 -0.52338982
1908 -0.56335479
1906 -0.67157876
1904 -0.82440919
1902 -0.96529812
1900 -1.0351148
1898 -0.99148738
1896 -0.85959429
1894 -0.70200664
1892 -0.5779413
1890 -0.53265607
1888 -0.57362354
1886 -0.68420476
1884 -0.83483905
1882 -0.99119329
1880 -1.1220754
1878 -1.1983322
1876 -1.1896
1874 -1.0711994
1872 -0.84723312
1870 -0.55290365
1868 -0.28408781
1866 -0.15485515
1864 -0.20759863
1862 -0.42380968
1860 -0.72043478
1858 -0.99219048
1856 -1.1875172
1854 -1.2915109
1852 -1.2927389
1850 -1.1839336
1848 -0.98392081
1846 -0.7359339
1844 -0.52032733
1842 -0.42213422
1840 -0.45191988
1838 -0.56291741
1836 -0.67040384
1834 -0.6859504
1832 -0.58810705
1830 -0.41244313
1828 -0.2508077
1826 -0.20947492
1824 -0.32026029
1822 -0.55203319
1820 -0.82148457
1818 -1.0262021
1816 -1.1040515
1814 -1.0362487
1812 -0.86701459
1810 -0.67359728
1808 -0.51049936
1806 -0.40221849
1804 -0.32564384
1802 -0.23162103
1800 -0.086178347
1798 0.12156846
1796 0.35991144
1794 0.56386483
1792 0.64057839
1790 0.50984341
1788 0.22021675
1786 -0.095631287
1784 -0.33251381
1782 -0.42711908
1780 -0.36938319
1778 -0.18338421
1776 0.102406
1774 0.44751874
1772 0.75126177
1770 0.88909054
1768 0.82243401
1766 0.5945484
1764 0.3188552
1762 0.12496786
1760 0.026611252
1758 -0.036631919
1756 -0.05723013
1754 0.030666757
1752 0.27970099
1750 0.70013094
1748 1.1892719
1746 1.5766929
1744 1.7510148
1742 1.6825116
1740 1.465602
1738 1.2564603
1736 1.10384
1734 0.95820802
1732 0.74424595
1730 0.40331239
1728 -0.016478583
1726 -0.38385645
1724 -0.56273454
1722 -0.4339872
1720 0.081044137
1718 0.99100244
1716 2.11678
1714 3.1697114
1712 4.0092783
1710 4.6690989
1708 5.3568821
1706 6.3867102
1704 8.0264454
1702 10.441729
1700 13.572443
1698 17.153601
1696 20.768715
1694 23.975199
1692 26.652939
1690 29.00528
1688 31.465778
1686 34.565281
1684 38.619923
1682 43.633381
1680 49.049679
1678 54.02195
1676 58.356644
1674 62.468544
1672 66.736748
1670 71.318649
1668 75.945793
1666 80.07225
1664 83.448753
1662 86.144989
1660 88.280678
1658 89.956902
1656 91.233772
1654 92.132164
1652 92.641502
1650 92.721527
1648 92.295128
1646 91.294891
1644 89.837524
1642 88.178146
1640 86.431686
1638 84.53624
1636 82.339355
1634 79.670998
1632 76.53537
1630 73.090073
1628 69.423737
1626 65.528946
1624 61.38036
1622 56.971722
1620 52.395729
1618 47.832485
1616 43.438744
1614 39.331753
1612 35.613373
1610 32.363918
1608 29.595686
1606 27.25515
1604 25.283186
1602 23.633564
1600 22.281046
1598 21.218685
1596 20.436001
1594 19.913069
1592 19.61904
1590 19.520035
1588 19.604477
1586 19.885242
1584 20.385195
1582 21.13953
1580 22.227745
1578 23.759985
1576 25.788828
1574 28.279837
1572 31.091393
1570 34.002995
1568 36.8694
1566 39.643669
1564 42.28735
1562 44.794979
1560 47.389977
1558 50.434109
1556 53.78923
1554 56.77877
1552 58.846424
1550 59.772274
1548 59.792149
1546 59.500748
1544 59.202126
1542 58.7696
1540 57.9044
1538 56.285248
1536 53.932659
1534 51.248444
1532 48.632195
1530 46.355247
1528 44.499596
1526 42.95015
1524 41.505741
1522 39.926338
1520 38.030098
1518 35.752842
1516 33.247128
1514 30.845551
1512 28.687241
1510 26.628281
1508 24.441648
1506 21.926222
1504 19.156828
1502 16.500843
1500 14.200903
1498 12.26178
1496 10.586443
1494 9.0273027
1492 7.4972997
1490 5.9934173
1488 4.5116944
1486 3.0413394
1484 1.6563532
1482 0.53085059
1480 -0.18274418
1478 -0.38982534
1476 -0.026023448
1474 0.91586095
1472 2.2533212
1470 3.612468
1468 4.7679739
1466 5.7463717
1464 6.6655207
1462 7.6805682
1460 8.8941069
1458 10.303013
1456 11.7438
1454 12.896366
1452 13.545866
1450 13.675729
1448 13.378223
1446 12.827965
1444 12.167174
1442 11.47
1440 10.774497
1438 10.08464
1436 9.3718443
1434 8.5801373
1432 7.6982331
1430 6.788106
1428 5.944922
1426 5.27986
1424 4.8633776
1422 4.6965227
1420 4.7240601
1418 4.8382697
1416 4.9485803
1414 5.0141697
1412 5.0564041
1410 5.1634417
1408 5.4034142
1406 5.7905388
1404 6.3008952
1402 6.8707695
1400 7.4160199
1398 7.8385925
1396 8.0552425
1394 8.0175686
1392 7.7353911
1390 7.2904367
1388 6.7660604
1386 6.2229347
1384 5.7057972
1382 5.2418571
1380 4.8474789
1378 4.5231233
1376 4.2354488
1374 3.9100962
1372 3.490762
1370 2.9675491
1368 2.3698468
1366 1.766525
1364 1.2066178
1362 0.6972931
1360 0.24912496
1358 -0.10636291
1356 -0.32760072
1354 -0.36837396
1352 -0.20339155
1350 0.15524855
1348 0.67192483
1346 1.2907858
1344 1.974316
1342 2.7154114
1340 3.478188
1338 4.1683979
1336 4.675046
1334 4.8940568
1332 4.7963738
1330 4.4725571
1328 4.035923
1326 3.5902772
1324 3.2200429
1322 2.9758565
1320 2.869329
1318 2.8569551
1316 2.8724101
1314 2.8374395
1312 2.7051656
1310 2.4884636
1308 2.2217238
1306 1.951715
1304 1.716656
1302 1.535447
1300 1.4232575
1298 1.396662
1296 1.4740572
1294 1.6754289
1292 2.0140612
1290 2.4880011
1288 3.0762999
1286 3.7297001
1284 4.3905411
1282 5.0001574
1280 5.51647
1278 5.9290533
1276 6.2452273
1274 6.4904838
1272 6.6922951
1270 6.8740592
1268 7.061142
1266 7.284708
1264 7.5767813
1262 7.9669232
1260 8.4725046
1258 9.0889778
1256 9.8070688
1254 10.618006
1252 11.513861
1250 12.489696
1248 13.533554
1246 14.628
1244 15.746152
1242 16.852678
1240 17.896904
1238 18.801947
1236 19.485144
1234 19.86804
1232 19.887239
1230 19.521067
1228 18.782465
1226 17.737129
1224 16.470217
1222 15.079014
1220 13.664944
1218 12.3337
1216 11.179372
1214 10.273589
1212 9.6615257
1210 9.3389006
1208 9.2701645
1206 9.3775387
1204 9.5649519
1202 9.720479
1200 9.7413721
1198 9.5558071
1196 9.127243
1194 8.4804449
1192 7.6695614
1190 6.780251
1188 5.8973761
1186 5.0868402
1184 4.3961015
1182 3.8410928
1180 3.4208889
1178 3.1143684
1176 2.89744
1174 2.7507842
1172 2.6606555
1170 2.6229327
1168 2.6308668
1166 2.6667786
1164 2.7090342
1162 2.7328081
1160 2.7158725
1158 2.6430264
1156 2.5033729
1154 2.2921429
1152 2.0126543
1150 1.6836562
1148 1.330512
1146 0.98535711
1144 0.67640746
1142 0.41878617
1140 0.21412629
1138 0.042147681
1136 -0.10489914
1134 -0.19486339
1132 -0.20282891
1130 -0.14481278
1128 -0.055663846
1126 0.010177271
1124 0.012763519
1122 -0.039948329
1120 -0.1151456
1118 -0.15037872
1116 -0.10361288
1114 -0.0010783225
1112 0.10888663
1110 0.16675471
1108 0.13846822
1106 0.060185649
1104 -0.016626213
1102 -0.045530003
1100 0.0065458566
1098 0.14199615
1096 0.35762143
1094 0.65439284
1092 1.0308588
1090 1.4762018
1088 1.9710857
1086 2.4799356
1084 2.9609685
1082 3.3674326
1080 3.6591761
1078 3.8179269
1076 3.8408713
1074 3.7523539
1072 3.5851765
1070 3.3765175
1068 3.1619759
1066 2.9679286
1064 2.8092918
1062 2.6746533
1060 2.5473487
1058 2.4144454
1056 2.274323
1054 2.1532395
1052 2.0701909
1050 2.0057449
1048 1.9316977
1046 1.8232893
1044 1.6802711
1042 1.5681572
1040 1.5546389
1038 1.6643622
1036 1.88632
1034 2.1362889
1032 2.3197784
1030 2.3661544
1028 2.2381532
1026 1.98162
1024 1.6674731
1022 1.379045
1020 1.175814
1018 1.0361784
1016 0.91883481
1014 0.78334111
1012 0.60674012
1010 0.41750944
1008 0.24539454
1006 0.084831096
1004 -0.084902257
1002 -0.30374962
1000 -0.59895909
998 -0.94304109
996 -1.2921643
994 -1.594365
992 -1.8070782
990 -1.9262723
988 -1.9621645
986 -1.9414436
984 -1.8916594
982 -1.830524
980 -1.766662
978 -1.6876918
976 -1.5779343
974 -1.429487
972 -1.2416381
970 -1.0326185
968 -0.82426059
966 -0.63594949
964 -0.48311496
962 -0.37025642
960 -0.29350761
958 -0.22970708
956 -0.15677503
954 -0.072892196
952 0.012655281
950 0.069797195
948 0.074339449
946 0.041367371
944 0.0065262727
942 0.043020919
940 0.20129083
938 0.416493
936 0.60052001
934 0.6855337
932 0.63383633
930 0.49980915
928 0.35464257
926 0.24661471
924 0.20907821
922 0.24049143
920 0.32768315
918 0.44613335
916 0.56521159
914 0.64192915
912 0.64270914
910 0.5820334
908 0.49064234
906 0.4155415
904 0.38923836
902 0.37130103
900 0.31315446
898 0.20629957
896 0.052221
