##TITLE=Methyl Ethyl Ketone
##JCAMP-DX=4.24
##DATA TYPE=INFRARED SPECTRUM
##XUNITS=cm-1
##YUNITS=Absorbance
##FIRSTX=900
##LASTX=2300
##XYDATA=(X++(Y..Y))
2296 -0.01415
2294 -0.014444578
2292 -0.01473816
2290 -0.015032736
2288 -0.015327314
2286 -0.015621892
2284 -0.01591548
2282 -0.016210049
2280 -0.016504629
2278 -0.016799208
2276 -0.017093785
2274 -0.017387381
2272 -0.017681943
2270 -0.017976522
2268 -0.0182711
2266 -0.018565679
2264 -0.01885928
2262 -0.019153837
2260 -0.019448413
2258 -0.019742992
2256 -0.020037571
2254 -0.02033118
2252 -0.020625727
2250 -0.020920306
2248 -0.021214886
2246 -0.0215085
2244 0.034917906
2242 0.0014308071
2240 -0.049005121
2238 -0.10229511
2236 -0.15597557
2234 -0.075399496
2232 0.017462498
2230 0.16899393
2228 0.3098225
2226 0.34277451
2224 0.35047698
2222 0.26770821
2220 0.19141322
2218 0.14953801
2216 0.13484544
2214 0.1752869
2212 0.216437
2210 0.25342065
2208 0.28807703
2206 0.32016477
2204 0.34745505
2202 0.37030324
2200 0.3538155
2198 0.30814758
2196 0.24969
2194 0.18494466
2192 0.13974555
2190 0.10328117
2188 0.087269932
2186 0.077724241
2184 0.133286
2182 0.20373844
2180 0.3187542
2178 0.43938482
2176 0.48384744
2174 0.51422662
2172 0.46433994
2170 0.41009089
2168 0.37441126
2166 0.35034591
2164 0.36195779
2162 0.36941254
2160 0.35714817
2158 0.33360291
2156 0.29251599
2154 0.27704176
2152 0.30131269
2150 0.35486576
2148 0.43672958
2146 0.46888858
2144 0.45445651
2142 0.37974492
2140 0.26645172
2138 0.19433065
2136 0.14679457
2134 0.16865377
2132 0.21883135
2130 0.26966435
2128 0.3199164
2126 0.35753465
2124 0.39218774
2122 0.4561362
2120 0.52242655
2118 0.54466206
2116 0.54335243
2114 0.4133257
2112 0.26007971
2110 0.086801372
2108 -0.058119163
2106 -0.10859313
2104 -0.12394017
2102 -0.092601597
2100 -0.05710556
2098 -0.02627502
2096 0.0066585713
2094 0.04312909
2092 0.070746794
2090 0.088657372
2088 0.098534331
2086 0.10313695
2084 0.14303431
2082 0.20678316
2080 0.24936858
2078 0.27905351
2076 0.18891357
2074 0.049587455
2072 -0.099652082
2070 -0.25052717
2068 -0.27750164
2066 -0.27352056
2064 -0.22477703
2062 -0.16879657
2060 -0.12302017
2058 -0.078526512
2056 -0.029894486
2054 0.016492205
2052 0.05096532
2050 0.078341857
2048 0.092459023
2046 0.087508641
2044 0.050018057
2042 -0.026114933
2040 -0.15030387
2038 -0.27467579
2036 -0.38718972
2034 -0.41622686
2032 -0.36661559
2030 -0.2525619
2028 -0.099341556
2026 -0.023446215
2024 -0.0016505591
2022 -0.078927524
2020 -0.20380238
2018 -0.27982739
2016 -0.33222601
2014 -0.32753429
2012 -0.3036862
2010 -0.37629333
2008 -0.47836328
2006 -0.64374763
2004 -0.81592703
2002 -0.92455769
2000 -1.0085073
1998 -1.0584664
1996 -1.1086285
1994 -1.1871133
1992 -1.2613394
1990 -1.3069632
1988 -1.298552
1986 -1.2037193
1984 -1.0659583
1982 -0.89707261
1980 -0.74330962
1978 -0.61632425
1976 -0.50158769
1974 -0.3937681
1972 -0.24288075
1970 -0.058671616
1968 0.11439891
1966 0.27664655
1964 0.26838714
1962 0.17207983
1960 -0.0465944
1958 -0.31349972
1956 -0.47747099
1954 -0.59717143
1952 -0.54042572
1950 -0.42931119
1948 -0.34884652
1946 -0.3066425
1944 -0.41408429
1942 -0.55534834
1940 -0.63798183
1938 -0.66289932
1936 -0.58113945
1934 -0.49585697
1932 -0.47209242
1930 -0.51742542
1928 -0.64940709
1926 -0.78775519
1924 -0.90572506
1922 -0.9280777
1920 -0.85064232
1918 -0.71767467
1916 -0.55223012
1914 -0.41726479
1912 -0.31123236
1910 -0.26911256
1908 -0.26588145
1906 -0.38031286
1904 -0.55518562
1902 -0.71251011
1900 -0.85714453
1898 -0.8159467
1896 -0.69767141
1894 -0.5396508
1892 -0.38948721
1890 -0.39047408
1888 -0.48158821
1886 -0.70440286
1884 -0.97244334
1882 -1.2272123
1880 -1.4408578
1878 -1.5732695
1876 -1.66575
1874 -1.7437642
1872 -1.7979594
1870 -1.8277318
1868 -1.7612445
1866 -1.5752935
1864 -1.362
1862 -1.148229
1860 -1.0352346
1858 -1.0160491
1856 -1.0641829
1854 -1.1514546
1852 -1.2303194
1850 -1.3018948
1848 -1.345744
1846 -1.3778571
1844 -1.4662714
1842 -1.589959
1840 -1.7915081
1838 -2.0277288
1836 -2.27232
1834 -2.512387
1832 -2.7309675
1830 -2.8887627
1828 -2.8558767
1826 -2.6791286
1824 -2.3193662
1822 -1.941326
1820 -1.685756
1818 -1.5367935
1816 -1.4984028
1814 -1.4711732
1812 -1.4061164
1810 -1.3163381
1808 -1.2096748
1806 -1.169885
1804 -1.2049769
1802 -1.3362851
1800 -1.5410068
1798 -1.6920888
1796 -1.7881215
1794 -1.6699114
1792 -1.40176
1790 -0.99807793
1788 -0.51518607
1786 -0.14114016
1784 0.15953813
1782 0.30599993
1780 0.36566573
1778 0.39903742
1776 0.40312544
1774 0.34036323
1772 0.21000525
1770 -0.0046899095
1768 -0.19928868
1766 -0.2336577
1764 -0.13843539
1762 0.056795344
1760 0.056322113
1758 -0.1336531
1756 -0.30772629
1754 -0.42527997
1752 -0.37253219
1750 -0.1408926
1748 0.14787066
1746 0.44254643
1744 0.53317368
1742 0.43700647
1740 0.26257503
1738 0.051678073
1736 0.087614805
1734 0.31145817
1732 0.6091187
1730 0.93369019
1728 0.91871202
1726 0.6789313
1724 0.37214324
1722 0.073512204
1720 0.051249087
1718 0.37859374
1716 1.2421067
1714 2.4075963
1712 3.6484029
1710 4.843812
1708 5.825264
1706 6.8202715
1704 8.0251932
1702 9.7452822
1700 12.151531
1698 15.314894
1696 19.182142
1694 23.02096
1692 26.510162
1690 29.656713
1688 32.521606
1686 35.913143
1684 39.906094
1682 44.521057
1680 49.615841
1678 53.992695
1676 57.715755
1674 61.378578
1672 65.079346
1670 69.521706
1668 74.515381
1666 79.4972
1664 84.379181
1662 88.841888
1660 92.873383
1658 96.396523
1656 99.389946
1654 101.82242
1652 103.627
1650 104.76009
1648 104.87829
1646 103.79678
1644 101.80046
1642 99.222672
1640 96.19455
1638 92.834419
1636 88.846497
1634 84.195412
1632 79.409012
1630 74.691711
1628 70.181709
1626 65.873116
1624 61.383759
1622 56.677525
1620 52.141224
1618 47.800926
1616 43.788826
1614 40.120354
1612 36.859627
1610 34.029987
1608 31.635868
1606 29.656357
1604 27.955923
1602 26.529181
1600 25.318949
1598 24.331699
1596 23.540501
1594 22.96917
1592 22.616674
1590 22.466274
1588 22.477003
1586 22.622036
1584 22.862125
1582 23.184299
1580 23.568428
1578 24.102308
1576 24.817657
1574 25.773161
1572 26.98678
1570 28.246675
1568 29.506161
1566 30.5804
1564 31.442389
1562 32.315815
1560 33.294331
1558 35.208115
1556 38.123398
1554 41.54705
1552 45.262001
1550 48.116081
1548 50.113434
1546 51.633751
1544 52.66296
1542 53.349182
1540 53.54306
1538 53.169415
1536 52.317345
1534 51.183701
1532 49.956944
1530 48.797195
1528 47.647633
1526 46.462151
1524 45.020763
1522 43.196625
1520 41.005051
1518 38.45697
1516 36.072327
1514 34.032177
1512 32.0644
1510 30.099577
1508 27.621683
1506 24.486549
1504 21.50004
1502 18.775959
1500 16.560398
1498 14.89919
1496 13.202001
1494 11.460209
1492 9.7059326
1490 7.9705963
1488 6.3541336
1486 4.8932366
1484 3.6001401
1482 2.5162671
1480 1.6283308
1478 0.9367035
1476 0.41431856
1474 0.16956872
1472 0.35394418
1470 0.82272494
1468 1.4574643
1466 2.0868406
1464 2.5787623
1462 3.0122058
1460 3.4021239
1458 3.8146567
1456 4.2843199
1454 4.7158341
1452 5.0915709
1450 5.3596945
1448 5.4729128
1446 5.5097609
1444 5.4347506
1442 5.3025951
1440 5.0828638
1438 4.7932539
1436 4.3989072
1434 3.9238286
1432 3.3731732
1430 2.8386273
1428 2.362612
1426 1.9918699
1424 1.7389435
1422 1.5887448
1420 1.556486
1418 1.6735615
1416 1.9547971
1414 2.4410548
1412 3.030828
1410 3.6405675
1408 4.1980538
1406 4.631568
1404 4.9803677
1402 5.2320681
1400 5.4294519
1398 5.5588627
1396 5.6325359
1394 5.6187801
1392 5.5752931
1390 5.4996653
1388 5.4265299
1386 5.3576751
1384 5.2709646
1382 5.1469965
1380 4.9597082
1378 4.6789465
1376 4.3218913
1374 3.8912196
1372 3.486558
1370 3.1284533
1368 2.8433619
1366 2.5904486
1364 2.2674506
1362 1.8746459
1360 1.4130749
1358 0.95388681
1356 0.58295512
1354 0.29817724
1352 0.12753531
1350 0.022411417
1348 -0.006350277
1346 -0.0081020705
1344 0.030061958
1342 0.080690742
1340 0.14621408
1338 0.21666911
1336 0.30002972
1334 0.3714039
1332 0.44423288
1330 0.53459471
1328 0.6619336
1326 0.83215207
1324 1.0566292
1322 1.3133736
1320 1.5998286
1318 1.8903487
1316 2.16785
1314 2.3955526
1312 2.5667925
1310 2.6679568
1308 2.7118769
1306 2.7026644
1304 2.655051
1302 2.5748861
1300 2.4905152
1298 2.4393103
1296 2.4148855
1294 2.4401922
1292 2.4707198
1290 2.4876964
1288 2.5031641
1286 2.5217421
1284 2.5621541
1282 2.661485
1280 2.7737017
1278 2.916101
1276 3.0672414
1274 3.233429
1272 3.4123011
1270 3.605468
1268 3.783494
1266 3.9392045
1264 4.076385
1262 4.2076402
1260 4.3893142
1258 4.641572
1256 4.9860687
1254 5.4169288
1252 5.9062815
1250 6.4350386
1248 6.9739766
1246 7.506525
1244 8.0036592
1242 8.4669714
1240 8.864296
1238 9.2187157
1236 9.4907837
1234 9.7060108
1232 9.7849684
1230 9.7889509
1228 9.5929508
1226 9.3391371
1224 8.9345379
1222 8.5103207
1220 8.0419216
1218 7.5754871
1216 7.1130714
1214 6.6505508
1212 6.1845922
1210 5.7031412
1208 5.19699
1206 4.6680727
1204 4.1136999
1202 3.5528388
1200 2.9928029
1198 2.4629366
1196 1.9693214
1194 1.540411
1192 1.1577419
1190 0.81497407
1188 0.48404521
1186 0.12990043
1184 -0.22507611
1182 -0.55228615
1180 -0.82722169
1178 -0.91641706
1176 -0.93308997
1174 -0.75951993
1172 -0.56834853
1170 -0.35081667
1168 -0.14315309
1166 0.035464957
1164 0.20739199
1162 0.35790151
1160 0.46677959
1158 0.4873457
1156 0.45648715
1154 0.34805343
1152 0.25930876
1150 0.20302999
1148 0.1923902
1146 0.22406572
1144 0.22978023
1142 0.20498449
1140 0.12904358
1138 0.028074129
1136 -0.029444031
1134 -0.037219875
1132 0.14540766
1130 0.42348912
1128 0.81958294
1126 1.2425914
1124 1.6366329
1122 2.0150352
1120 2.337796
1118 2.651176
1116 2.9406714
1114 3.2013736
1112 3.338448
1110 3.4112036
1108 3.28299
1106 3.152895
1104 3.0313725
1102 3.0205581
1100 3.2314589
1098 3.5287843
1096 3.9522288
1094 4.3395224
1092 4.6806602
1090 5.0009961
1088 5.3138227
1086 5.7147551
1084 6.1856627
1082 6.6796913
1080 7.1699853
1078 7.5402102
1076 7.8342185
1074 7.9681382
1072 8.0349722
1070 7.9932594
1068 7.9329762
1066 7.9098897
1064 7.9043641
1062 7.991878
1060 8.0751858
1058 8.1005659
1056 8.0949087
1054 7.9537005
1052 7.8045778
1050 7.634872
1048 7.5146394
1046 7.5192499
1044 7.5984082
1042 7.8132553
1040 8.0123158
1038 8.1755104
1036 8.2006798
1034 8.0587292
1032 7.7963157
1030 7.4262085
1028 7.04354
1026 6.6581173
1024 6.3346486
1022 6.0454907
1020 5.7765474
1018 5.5101008
1016 5.1854973
1014 4.8444409
1012 4.4940929
1010 4.1421046
1008 3.7901919
1006 3.4277322
1004 2.9435387
1002 2.4501874
1000 1.9031925
998 1.3906747
996 1.0307807
994 0.70959914
992 0.50669062
990 0.28227139
988 0.0075863004
986 -0.29132026
984 -0.62953717
982 -0.91796428
980 -1.132486
978 -1.2117682
976 -1.1427085
974 -0.92073983
972 -0.57774484
970 -0.24221626
968 0.079595149
966 0.23411649
964 0.30717325
962 0.2617783
960 0.17612262
958 0.040482134
956 -0.10397717
954 -0.21192282
952 -0.30979481
950 -0.27311695
948 -0.22373921
946 -0.073743753
944 0.0095146298
942 0.28698468
940 0.57658684
938 0.91758019
936 1.2758943
934 1.6857685
932 2.1395991
930 2.684782
928 3.132704
926 3.4207273
924 3.4815998
922 3.2654548
920 2.9714136
918 2.6076779
916 2.3981571
914 2.3000939
912 2.4174342
910 2.6478379
908 2.9013398
906 3.1610677
904 3.2541766
902 3.3027096
900 3.3981941
898 3.501693
896 4.1259999
