##TITLE=Methyl Ethyl Ketone
##JCAMP-DX=4.24
##DATA TYPE=INFRARED SPECTRUM
##XUNITS=cm-1
##YUNITS=Absorbance
##FIRSTX=900
##LASTX=2300
##XYDATA=(X++(Y..Y))
2296 0.0066686999
2294 0.0068074018
2292 0.0069462028
2290 0.0070849047
2288 0.0072236066
2286 0.0073624072
2284 0.0075010103
2282 0.00763981
2280 0.0077786115
2278 0.0079173138
2276 0.0080561144
2274 0.0081947185
2272 0.0083335163
2270 0.0084723188
2268 0.0086109238
2266 0.0087497216
2264 0.0088884253
2262 0.0090271272
2260 0.0091659259
2258 0.0093045328
2256 0.0094434265
2254 0.009582133
2252 0.0097208349
2250 0.0098595368
2248 0.0099982377
2246 0.010137036
2244 0.00037670287
2242 0.016002016
2240 0.05719056
2238 0.092218153
2236 0.12623154
2234 0.19892895
2232 0.2769601
2230 0.41191041
2228 0.54553038
2226 0.64700103
2224 0.72620672
2222 0.71137238
2220 0.67998147
2218 0.61362255
2216 0.56159228
2214 0.54517937
2212 0.54962283
2210 0.58466834
2208 0.6256721
2206 0.67174327
2204 0.72743309
2202 0.7920742
2200 0.87023848
2198 0.95804942
2196 1.0372821
2194 1.1111377
2192 1.1638041
2190 1.2072519
2188 1.2409543
2186 1.2716036
2184 1.2963561
2182 1.3198864
2180 1.3222585
2178 1.3213843
2176 1.3096886
2174 1.3002017
2172 1.3270162
2170 1.3636429
2168 1.436324
2166 1.5083421
2164 1.5647237
2162 1.6046245
2160 1.6062233
2158 1.5989689
2156 1.58209
2154 1.5792217
2152 1.5981194
2150 1.6326352
2148 1.682098
2146 1.7160714
2144 1.7350109
2142 1.7205241
2140 1.6838458
2138 1.6417964
2136 1.5980287
2134 1.5912313
2132 1.6000935
2130 1.654362
2128 1.7225721
2126 1.781418
2124 1.8378708
2122 1.828249
2120 1.8060538
2118 1.7456788
2116 1.6813543
2114 1.627947
2112 1.5848069
2110 1.5796468
2108 1.5906945
2106 1.6342314
2104 1.6815268
2102 1.7265059
2100 1.7671
2098 1.8010328
2096 1.8381
2094 1.8807236
2092 1.9183522
2090 1.9500532
2088 1.9643914
2086 1.9648249
2084 1.9524654
2082 1.9327642
2080 1.9261326
2078 1.9271041
2076 1.9544557
2074 1.9923998
2072 2.017668
2070 2.0385745
2068 2.0265803
2066 2.006635
2064 1.9797732
2062 1.9531125
2060 1.9385566
2058 1.9283659
2056 1.9290199
2054 1.9303272
2052 1.9274448
2050 1.9241623
2048 1.9229417
2046 1.9288785
2044 1.948568
2042 1.9705267
2040 1.9910063
2038 2.0017967
2036 1.99998
2034 1.9932661
2032 1.9841914
2030 1.9713839
2028 1.9565905
2026 1.9327143
2024 1.9037703
2022 1.8902788
2020 1.8854294
2018 1.9052166
2016 1.93454
2014 1.9479469
2012 1.9549814
2010 1.9326673
2008 1.9029303
2006 1.8849864
2004 1.8727986
2002 1.881776
2000 1.8914241
1998 1.8835182
1996 1.8610214
1994 1.8097976
1992 1.7519509
1990 1.6924361
1988 1.643186
1986 1.6087085
1984 1.5842366
1982 1.5688829
1980 1.5487108
1978 1.5225236
1976 1.48822
1974 1.4484841
1972 1.4284937
1970 1.4251466
1968 1.4450085
1966 1.4774679
1964 1.4830827
1962 1.4723253
1960 1.4284639
1958 1.3706167
1956 1.3163985
1954 1.2640005
1952 1.2286469
1950 1.1984885
1948 1.1797285
1946 1.16505
1944 1.1506954
1942 1.1396285
1940 1.128226
1938 1.1155988
1936 1.0969971
1934 1.0751661
1932 1.0546
1930 1.0434176
1928 1.0509566
1926 1.0736021
1924 1.1117806
1922 1.1501424
1920 1.1819429
1918 1.194891
1916 1.1879572
1914 1.1825913
1912 1.1820903
1910 1.1822724
1908 1.1835289
1906 1.1277286
1904 1.03976
1902 0.93675357
1900 0.82727003
1898 0.79625618
1896 0.79865712
1894 0.84061921
1892 0.8928566
1890 0.90457809
1888 0.88877553
1886 0.81468457
1884 0.71371263
1882 0.59546512
1880 0.48220161
1878 0.39834395
1876 0.342958
1874 0.3283855
1872 0.33909267
1870 0.37170205
1868 0.39933008
1866 0.40376428
1864 0.37296093
1862 0.30440411
1860 0.22325175
1858 0.14263679
1856 0.076354913
1854 0.024559276
1852 -0.011726506
1850 -0.036184255
1848 -0.056730479
1846 -0.0720945
1844 -0.10505117
1842 -0.14385279
1840 -0.1782728
1838 -0.20890909
1836 -0.2024357
1834 -0.1778603
1832 -0.12601572
1830 -0.061726883
1828 -0.0033101207
1826 0.043096166
1824 0.04724744
1822 0.020499237
1820 -0.033745296
1818 -0.089936048
1816 -0.122178
1814 -0.13754088
1812 -0.13713123
1810 -0.14751378
1808 -0.17978692
1806 -0.21418451
1804 -0.24477175
1802 -0.25982648
1800 -0.25808349
1798 -0.24361877
1796 -0.22079358
1794 -0.15948018
1792 -0.076480716
1790 0.017060827
1788 0.10973915
1786 0.158664
1784 0.17847617
1782 0.18546788
1780 0.18797691
1778 0.2231226
1776 0.28079915
1774 0.36195242
1772 0.43925202
1770 0.44647068
1768 0.40025532
1766 0.29556993
1764 0.17371599
1762 0.082587212
1760 0.020395182
1758 -0.095404923
1756 -0.21898928
1754 -0.2948744
1752 -0.28970003
1750 -0.20070168
1748 -0.0861478
1746 0.024621714
1744 0.049331304
1742 -0.015774731
1740 -0.10346447
1738 -0.19163874
1736 -0.16064599
1734 -0.032021005
1732 0.11301444
1730 0.25372097
1728 0.23499885
1726 0.1048412
1724 -0.011922497
1722 -0.089674629
1720 0.0073557645
1718 0.26350838
1716 0.74396998
1714 1.3517382
1712 1.9084754
1710 2.4232216
1708 2.9234419
1706 3.5762792
1704 4.5493393
1702 6.0954556
1700 8.3335953
1698 11.420362
1696 15.286142
1694 19.179829
1692 22.765018
1690 25.979099
1688 28.898245
1686 32.417019
1684 36.615421
1682 41.591682
1680 47.159641
1678 51.956604
1676 56.035301
1674 60.048523
1672 64.111763
1670 68.947693
1668 74.329758
1666 79.455849
1664 84.22847
1662 88.281128
1660 91.699677
1658 94.635544
1656 97.121681
1654 99.229172
1652 100.7696
1650 101.55004
1648 101.31103
1646 99.854996
1644 97.681412
1642 95.282387
1640 92.604683
1638 89.674522
1636 86.033829
1634 81.573959
1632 76.852753
1630 72.093483
1628 67.605652
1626 63.432064
1624 59.236599
1622 54.971664
1620 50.80661
1618 46.752968
1616 42.919914
1614 39.331432
1612 36.16124
1610 33.421833
1608 31.107012
1606 29.194786
1604 27.54314
1602 26.165436
1600 25.041267
1598 24.174885
1596 23.532
1594 23.099012
1592 22.824543
1590 22.69083
1588 22.659908
1586 22.722706
1584 22.866474
1582 23.0893
1580 23.387251
1578 23.819031
1576 24.401543
1574 25.172449
1572 26.127064
1570 27.1772
1568 28.297039
1566 29.41078
1564 30.516197
1562 31.816183
1560 33.406853
1558 35.883476
1556 39.301098
1554 42.97065
1552 46.67453
1550 49.532284
1548 51.58054
1546 53.362213
1544 54.873573
1542 56.190868
1540 57.121578
1538 57.378666
1536 56.976887
1534 56.054115
1532 54.826141
1530 53.594345
1528 52.337498
1526 51.03965
1524 49.578373
1522 47.864849
1520 45.893417
1518 43.62315
1516 41.377026
1514 39.266468
1512 37.212959
1510 35.232697
1508 32.789967
1506 29.741199
1504 26.649261
1502 23.553442
1500 20.8988
1498 18.7276
1496 16.554571
1494 14.377275
1492 12.168677
1490 9.949935
1488 7.7722998
1486 5.7022724
1484 3.845264
1482 2.2870378
1480 1.1233311
1478 0.37544692
1476 0.066368043
1474 0.29885238
1472 1.0106006
1470 1.922637
1468 2.8652701
1466 3.684463
1464 4.288507
1462 4.7998734
1460 5.2597561
1458 5.7040019
1456 6.13134
1454 6.4822631
1452 6.6985235
1450 6.803546
1448 6.7422862
1446 6.6164074
1444 6.404881
1442 6.1763778
1440 5.9270897
1438 5.6503282
1436 5.325623
1434 4.8916998
1432 4.3514967
1430 3.7830324
1428 3.2264481
1426 2.7954984
1424 2.5027492
1422 2.3461514
1420 2.309988
1418 2.3487997
1416 2.4417143
1414 2.563947
1412 2.7037518
1410 2.8780277
1408 3.0833223
1406 3.335885
1404 3.6308546
1402 3.975683
1400 4.3559842
1398 4.7824802
1396 5.2085786
1394 5.6174006
1392 5.9531488
1390 6.1417565
1388 6.209897
1386 6.0822949
1384 5.840662
1382 5.4469318
1380 5.0104103
1378 4.534174
1376 4.0716887
1374 3.6417289
1372 3.2481201
1370 2.8971169
1368 2.5880086
1366 2.2895634
1364 1.9589031
1362 1.5906632
1360 1.1649203
1358 0.74407548
1356 0.39894211
1354 0.14177266
1352 0.03984759
1350 0.031473227
1348 0.1261615
1346 0.24001428
1344 0.40650758
1342 0.58975613
1340 0.79985791
1338 1.0039842
1336 1.1870915
1334 1.3471169
1332 1.4471674
1330 1.547083
1328 1.6508389
1326 1.7897543
1324 1.9929602
1322 2.2395899
1320 2.548332
1318 2.8812113
1316 3.2333601
1314 3.5627732
1312 3.850327
1310 4.0761442
1308 4.2384329
1306 4.3505754
1304 4.4227567
1302 4.4599919
1300 4.4698954
1298 4.4387827
1296 4.3911285
1294 4.328835
1292 4.2756133
1290 4.252975
1288 4.2414079
1286 4.2457547
1284 4.2415147
1282 4.2097769
1280 4.1757383
1278 4.1377773
1276 4.1171904
1274 4.1349201
1272 4.1741233
1270 4.2520943
1268 4.3432784
1266 4.4527535
1264 4.5736866
1262 4.7095361
1260 4.8654437
1258 5.0439391
1256 5.2392111
1254 5.4457865
1252 5.647779
1250 5.8378434
1248 5.996757
1246 6.1282501
1244 6.2145247
1242 6.2747378
1240 6.3021474
1238 6.3078365
1236 6.2727571
1234 6.2010646
1232 6.0361719
1230 5.824791
1228 5.4936986
1226 5.1327639
1224 4.6953754
1222 4.2426929
1220 3.752867
1218 3.2556942
1216 2.7470143
1214 2.2561328
1212 1.8013332
1210 1.3879572
1208 1.0373836
1206 0.73131561
1204 0.4806498
1202 0.26799107
1200 0.093194515
1198 -0.062693991
1196 -0.20405643
1194 -0.34227842
1192 -0.47385156
1190 -0.58498412
1188 -0.67290276
1186 -0.70223904
1184 -0.69139957
1182 -0.59448993
1180 -0.456296
1178 -0.22815326
1176 0.026968002
1174 0.34229761
1172 0.66036892
1170 0.97310042
1168 1.2621795
1166 1.4744372
1164 1.6429131
1162 1.701492
1160 1.7207023
1158 1.6614386
1156 1.5811515
1154 1.4655455
1152 1.331728
1150 1.1718137
1148 0.99244678
1146 0.79238141
1144 0.58881724
1142 0.38606396
1140 0.20523354
1138 0.050272405
1136 -0.043962114
1134 -0.085271604
1132 0.00059636682
1130 0.15338314
1128 0.40285042
1126 0.67200398
1124 0.90681058
1122 1.1170352
1120 1.22936
1118 1.3269243
1116 1.3942372
1114 1.4723021
1112 1.5975263
1110 1.7328424
1108 1.898038
1106 2.0469251
1104 2.1523762
1102 2.2246537
1100 2.2323253
1098 2.2280536
1096 2.207443
1094 2.2007003
1092 2.2130079
1090 2.2428713
1088 2.2905192
1086 2.3454514
1084 2.4041638
1082 2.4487891
1080 2.4806738
1078 2.4782119
1076 2.4542341
1074 2.3847563
1072 2.2975109
1070 2.1896682
1068 2.0799148
1066 1.9918056
1064 1.909124
1062 1.8471265
1060 1.7895712
1058 1.7539971
1056 1.7266486
1054 1.7351624
1052 1.7466066
1050 1.765913
1048 1.7696847
1046 1.7339892
1044 1.6722186
1042 1.5606354
1040 1.4362811
1038 1.2945216
1036 1.16427
1034 1.050072
1032 0.96553475
1030 0.90888065
1028 0.86517453
1026 0.82770497
1024 0.76160866
1022 0.67899489
1020 0.58115238
1018 0.4789556
1016 0.39526314
1014 0.31617153
1012 0.2329658
1010 0.14791718
1008 0.048822403
1006 -0.049407892
1004 -0.12440303
1002 -0.19556813
1000 -0.24213257
998 -0.28683457
996 -0.32311574
994 -0.35307789
992 -0.3639321
990 -0.37317541
988 -0.37951571
986 -0.39561802
984 -0.42747834
982 -0.44996217
980 -0.45845261
978 -0.44797164
976 -0.41835743
974 -0.39208516
972 -0.36859757
970 -0.34650776
968 -0.32463035
966 -0.29712051
964 -0.26688865
962 -0.23498152
960 -0.20284863
958 -0.17138006
956 -0.14108914
954 -0.12928559
952 -0.1201368
950 -0.11948048
948 -0.1140655
946 -0.036637072
944 0.0026492551
942 0.082552776
940 0.24408932
938 0.43539071
936 0.60606575
934 0.716043
932 0.80082226
930 0.83106238
928 0.8231588
926 0.75375611
924 0.64877784
922 0.50105023
920 0.36248368
918 0.2324869
916 0.11934853
914 0.018265154
912 -0.053924229
910 -0.10950107
908 -0.094384588
906 -0.050672036
904 0.038449503
902 0.14047587
900 0.25601771
898 0.37405783
896 0.49834999
