##TITLE=Methyl Ethyl Ketone
##JCAMP-DX=4.24
##DATA TYPE=INFRARED SPECTRUM
##XUNITS=cm-1
##YUNITS=Absorbance
##FIRSTX=900
##LASTX=2300
##XYDATA=(X++(Y..Y))
2296 0.054600999
2294 0.055736374
2292 0.056872748
2290 0.058008127
2288 0.059144497
2286 0.06027988
2284 0.061416246
2282 0.062551633
2280 0.063687988
2278 0.064823382
2276 0.065959744
2274 0.067095131
2272 0.068231493
2270 0.069366887
2268 0.070503235
2266 0.071638636
2264 0.072774991
2262 0.073911369
2260 0.075046763
2258 0.07618311
2256 0.077318512
2254 0.07845486
2252 0.079590268
2250 0.080726609
2248 0.081862018
2246 0.082998358
2244 0.042473827
2242 0.0015779185
2240 -0.0359568
2238 -0.046938147
2236 -0.05405087
2234 -0.037236068
2232 -0.018891778
2230 -0.0047255787
2228 0.0062018028
2226 -0.00727168
2224 -0.023593048
2222 -0.047366433
2220 -0.06373582
2218 -0.056398045
2216 -0.036724973
2214 0.006992925
2212 0.04585259
2210 0.074477792
2208 0.074769922
2206 0.040526979
2204 -0.005085865
2202 -0.059517309
2200 -0.086489603
2198 -0.092499599
2196 -0.07812836
2194 -0.052825533
2192 -0.033251338
2190 -0.01652498
2188 -0.0010054096
2186 0.014188113
2184 0.04052376
2182 0.069432162
2180 0.097501174
2178 0.12517639
2176 0.13210885
2174 0.13505948
2172 0.1143736
2170 0.088664532
2168 0.046990037
2166 0.010362066
2164 -0.0022494593
2162 0.0043368572
2160 0.053973358
2158 0.10641058
2156 0.15590401
2154 0.18500157
2152 0.18500268
2150 0.17298301
2148 0.15085468
2146 0.13392679
2144 0.12252691
2142 0.1234059
2140 0.13239466
2138 0.1541072
2136 0.18230942
2134 0.21871765
2132 0.25837311
2130 0.29163593
2128 0.32278642
2126 0.33824772
2124 0.3500624
2122 0.35282984
2120 0.35319483
2118 0.33482891
2116 0.31043398
2114 0.26117221
2112 0.21175607
2110 0.17789228
2108 0.16036665
2106 0.18524843
2104 0.22127628
2102 0.26802313
2100 0.30518261
2098 0.32352513
2096 0.32623571
2094 0.31200391
2092 0.28807908
2090 0.25667509
2088 0.22290736
2086 0.188253
2084 0.15517987
2082 0.12330474
2080 0.1175028
2078 0.12524095
2076 0.18332314
2074 0.26161501
2072 0.34305838
2070 0.42477709
2068 0.4580898
2066 0.47893992
2064 0.47935835
2062 0.47723091
2060 0.49196053
2058 0.51081318
2056 0.53415114
2054 0.55631691
2052 0.57030237
2050 0.58329934
2048 0.59703946
2046 0.60086358
2044 0.58470255
2042 0.54088181
2040 0.46176109
2038 0.37781549
2036 0.29698843
2034 0.24978331
2032 0.23447914
2030 0.24881759
2028 0.28154069
2026 0.31194243
2024 0.33855081
2022 0.33983791
2020 0.32802522
2018 0.29052791
2016 0.24329999
2014 0.20583576
2012 0.17257008
2010 0.17337768
2008 0.18400536
2006 0.20360771
2004 0.2269285
2002 0.2586768
2000 0.29703531
1998 0.3521978
1996 0.40825287
1994 0.45258296
1992 0.47632384
1990 0.46269158
1988 0.42993081
1986 0.38287336
1984 0.3373625
1982 0.29865342
1980 0.25900564
1978 0.21520963
1976 0.17206457
1974 0.1295827
1972 0.11067168
1970 0.10912441
1968 0.13305102
1966 0.1712365
1964 0.21237229
1962 0.25469539
1960 0.28797638
1958 0.31752649
1956 0.33851114
1954 0.3565653
1952 0.36245349
1950 0.36409187
1948 0.35111713
1946 0.3328625
1944 0.31316626
1942 0.29332897
1940 0.28430313
1938 0.27723622
1936 0.26887658
1934 0.25977212
1932 0.24654381
1930 0.23604853
1928 0.22838731
1926 0.22023171
1924 0.20828743
1922 0.18396685
1920 0.14922205
1918 0.123774
1916 0.112389
1914 0.13971473
1912 0.19388194
1910 0.24567723
1908 0.29161736
1906 0.29710266
1904 0.28148881
1902 0.24934112
1900 0.21159767
1898 0.18700799
1896 0.16983286
1894 0.17371716
1892 0.18601017
1890 0.20450291
1888 0.22051001
1886 0.22121692
1884 0.20819688
1882 0.17185435
1880 0.12880075
1878 0.087071598
1876 0.063239001
1874 0.06587249
1872 0.091771379
1870 0.13618004
1868 0.17103159
1866 0.193591
1864 0.18645765
1862 0.1578773
1860 0.11886263
1858 0.072982132
1856 0.027307572
1854 -0.019838002
1852 -0.033028722
1850 -0.025949409
1848 0.025640123
1846 0.098309606
1844 0.13609676
1842 0.15031286
1840 0.10259181
1838 0.028396249
1836 -0.041909575
1834 -0.10006868
1832 -0.12207954
1830 -0.12501383
1828 -0.11199246
1826 -0.10355949
1824 -0.11249366
1822 -0.13006699
1820 -0.1517362
1818 -0.15983026
1816 -0.148782
1814 -0.12056392
1812 -0.080901444
1810 -0.050536048
1808 -0.034442522
1806 -0.026811151
1804 -0.02280766
1802 0.010875752
1800 0.069767825
1798 0.14902137
1796 0.23920214
1794 0.26816764
1792 0.2560412
1790 0.18962716
1788 0.096765131
1786 0.034206435
1784 -0.0057362635
1782 -0.022124322
1780 -0.0197031
1778 0.0078852288
1776 0.052097656
1774 0.10878863
1772 0.1585176
1770 0.18299879
1768 0.17805007
1766 0.14006285
1764 0.098015897
1762 0.068350807
1760 0.022444617
1758 -0.06234723
1756 -0.13537744
1754 -0.17177823
1752 -0.1663028
1750 -0.12945759
1748 -0.096256688
1746 -0.074412107
1744 -0.10918247
1742 -0.18787652
1740 -0.27585432
1738 -0.36627951
1736 -0.41936001
1734 -0.44830588
1732 -0.45195317
1730 -0.43751812
1728 -0.42414841
1726 -0.40061134
1724 -0.33552083
1722 -0.2155405
1720 0.040460005
1718 0.44923782
1716 1.0878518
1714 1.8468952
1712 2.6183765
1710 3.4140151
1708 4.2340922
1706 5.2511978
1704 6.606173
1702 8.5365601
1700 11.157194
1698 14.520019
1696 18.557428
1694 22.48562
1692 25.97695
1690 29.021971
1688 31.702765
1686 34.890465
1684 38.678143
1682 43.309166
1680 48.623478
1678 53.427757
1676 57.732471
1674 61.993343
1672 66.290924
1670 71.231117
1668 76.598015
1666 81.624695
1664 86.224785
1662 90.005005
1660 93.024742
1658 95.339539
1656 96.986572
1654 98.027588
1652 98.468742
1650 98.366028
1648 97.705185
1646 96.56089
1644 95.162834
1642 93.707436
1640 92.09391
1638 90.272469
1636 87.792229
1634 84.55098
1632 80.789642
1630 76.672523
1628 72.436646
1626 68.150818
1624 63.563763
1622 58.676037
1620 53.821163
1618 49.038433
1616 44.558826
1614 40.412849
1612 36.76762
1610 33.63652
1608 30.971252
1606 28.748642
1604 26.820688
1602 25.202965
1600 23.877262
1598 22.853188
1596 22.095001
1594 21.600058
1592 21.328434
1590 21.273811
1588 21.402765
1586 21.727871
1584 22.235029
1582 22.933271
1580 23.806395
1578 24.965923
1576 26.444714
1574 28.292089
1572 30.515572
1570 32.892685
1568 35.372002
1566 37.758835
1564 40.022297
1562 42.17831
1560 44.254589
1558 46.672558
1556 49.391899
1554 51.927597
1552 54.12989
1550 55.561836
1548 56.274193
1546 56.723106
1544 56.817989
1542 56.488995
1540 55.530598
1538 53.796768
1536 51.608799
1534 49.468178
1532 47.522095
1530 45.866676
1528 44.377136
1526 42.945099
1524 41.408054
1522 39.673355
1520 37.606731
1518 35.148514
1516 32.711342
1514 30.427343
1512 28.344561
1510 26.483082
1508 24.216629
1506 21.395828
1504 18.495525
1502 15.580418
1500 13.167817
1498 11.328839
1496 9.5929289
1494 7.9676294
1492 6.3892021
1490 4.8848152
1488 3.5000942
1486 2.2885079
1484 1.2926576
1482 0.56912768
1480 0.11920825
1478 -0.060588002
1476 0.026745155
1474 0.48146835
1472 1.323627
1470 2.3835621
1468 3.5942597
1466 4.7992778
1464 5.8803945
1462 6.9095817
1460 7.9016957
1458 8.8931293
1456 9.9009199
1454 10.724004
1452 11.263926
1450 11.515643
1448 11.355211
1446 11.062964
1444 10.589897
1442 10.078416
1440 9.4984312
1438 8.8294773
1436 8.022851
1434 7.0806456
1432 6.0424905
1430 5.1191607
1428 4.3876338
1426 3.9157364
1424 3.6889257
1422 3.612694
1420 3.651437
1418 3.7607508
1416 3.9345315
1414 4.1786141
1412 4.4883852
1410 4.8574653
1408 5.2616692
1406 5.6927075
1404 6.1027818
1402 6.4694214
1400 6.7442517
1398 6.8658366
1396 6.8663788
1394 6.6705003
1392 6.4186401
1390 6.0891924
1388 5.7586637
1386 5.4303198
1384 5.1050324
1382 4.782702
1380 4.4589415
1378 4.1201344
1376 3.7413971
1374 3.3014042
1372 2.807354
1370 2.2726769
1368 1.7462995
1366 1.2430485
1364 0.7725904
1362 0.34563613
1360 -0.010803238
1358 -0.2711041
1356 -0.37302873
1354 -0.34475973
1352 -0.15650845
1350 0.13250637
1348 0.54951775
1346 1.000766
1344 1.486428
1342 1.9498771
1340 2.3523152
1338 2.6833744
1336 2.8710887
1334 2.9665387
1332 2.9104083
1330 2.8059368
1328 2.6306491
1326 2.4559464
1324 2.2815027
1322 2.1363509
1320 2.0261097
1318 1.9474683
1316 1.90079
1314 1.8692812
1312 1.8504314
1310 1.821292
1308 1.7802949
1306 1.7080821
1304 1.6173189
1302 1.518553
1300 1.4355831
1298 1.4117048
1296 1.4456285
1294 1.590358
1292 1.8019729
1290 2.1271234
1288 2.4941559
1286 2.9300992
1284 3.3659124
1282 3.7894728
1280 4.173676
1278 4.4665995
1276 4.7032213
1274 4.8299708
1272 4.9324126
1270 5.0001593
1268 5.0965104
1266 5.2433429
1264 5.4425378
1262 5.7169824
1260 6.0550761
1258 6.4715266
1256 6.9636345
1254 7.5359964
1252 8.1907291
1250 8.9109573
1248 9.6819124
1246 10.46425
1244 11.202468
1242 11.880681
1240 12.41612
1238 12.84059
1236 13.0297
1234 13.074366
1232 12.78844
1230 12.361107
1228 11.581285
1226 10.71452
1224 9.6276932
1222 8.5375967
1220 7.451478
1218 6.4559488
1216 5.656786
1214 5.0045958
1212 4.607523
1210 4.3385124
1208 4.2484903
1206 4.2161093
1204 4.2380939
1202 4.2211218
1200 4.1398249
1198 3.9250777
1196 3.5892143
1194 3.1425791
1192 2.6402812
1190 2.1686101
1188 1.733438
1186 1.3941964
1184 1.1035858
1182 0.88444185
1180 0.7055499
1178 0.62362593
1176 0.57930201
1174 0.63308072
1172 0.70045871
1170 0.80017769
1168 0.91127092
1166 1.0584985
1164 1.21487
1162 1.3870161
1160 1.5117663
1158 1.5333594
1156 1.4801799
1154 1.3060857
1152 1.1099901
1150 0.88813281
1148 0.68165076
1146 0.4948318
1144 0.32957914
1142 0.1894587
1140 0.087754384
1138 0.014864704
1136 -0.041516457
1134 -0.088409349
1132 -0.056772228
1130 0.017087303
1128 0.15434413
1126 0.30980685
1124 0.469226
1122 0.61752242
1120 0.70366156
1118 0.77134866
1116 0.77175581
1114 0.77658176
1112 0.80567938
1110 0.85298824
1108 0.9574163
1106 1.0636801
1104 1.1748252
1102 1.2868302
1100 1.403282
1098 1.5426058
1096 1.7200428
1094 1.9250307
1092 2.1657522
1090 2.4250813
1088 2.7024806
1086 2.9805369
1084 3.2535675
1082 3.4885454
1080 3.6887372
1078 3.803345
1076 3.8646414
1074 3.8187397
1072 3.7287138
1070 3.5710607
1068 3.4005027
1066 3.2422359
1064 3.09266
1062 2.9962134
1060 2.906666
1058 2.8462927
1056 2.7936742
1054 2.7760036
1052 2.7700319
1050 2.799171
1048 2.809917
1046 2.7747571
1044 2.7162018
1042 2.6206317
1040 2.5814097
1038 2.6304309
1036 2.7520499
1034 2.9494829
1032 3.0886002
1030 3.1618476
1028 3.0915847
1026 2.9159594
1024 2.667624
1022 2.383353
1020 2.1161094
1018 1.8576206
1016 1.61886
1014 1.3836577
1012 1.1293286
1010 0.87100577
1008 0.60404199
1006 0.34041542
1004 0.12502271
1002 -0.081672281
1000 -0.23135835
998 -0.37535238
996 -0.49406999
994 -0.60798299
992 -0.70636934
990 -0.798702
988 -0.87711906
986 -0.95572007
984 -1.034456
982 -1.1027786
980 -1.155432
978 -1.1701708
976 -1.1442171
974 -1.0907992
972 -1.0156958
970 -0.94400692
968 -0.87522769
966 -0.81798804
964 -0.7655915
962 -0.70462
960 -0.63809478
958 -0.51773459
956 -0.3854
954 -0.2462613
952 -0.11087992
950 -0.086561732
948 -0.065062039
946 -0.021443784
944 0.010310054
942 0.31100151
940 0.62568772
938 0.99760276
936 1.3108429
934 1.4509981
932 1.5478234
930 1.5524733
928 1.5511485
926 1.5396072
924 1.50201
922 1.4324087
920 1.3520486
918 1.2615569
916 1.1634214
914 1.0602205
912 0.9686771
910 0.88425231
908 0.94386548
906 1.0587542
904 1.3461989
902 1.6778231
900 1.9627935
898 2.2397532
896 2.277
