##TITLE=Methyl Ethyl Ketone
##JCAMP-DX=4.24
##DATA TYPE=INFRARED SPECTRUM
##XUNITS=cm-1
##YUNITS=Absorbance
##FIRSTX=900
##LASTX=2300
##XYDATA=(X++(Y..Y))
2296 -0.033296999
2294 -0.034004986
2292 -0.034711976
2290 -0.03541996
2288 -0.036126953
2286 -0.036834937
2284 -0.037541933
2282 -0.038248919
2280 -0.038956899
2278 -0.039663896
2276 -0.040371872
2274 -0.041078873
2272 -0.041786846
2270 -0.04249385
2268 -0.043201823
2266 -0.043908827
2264 -0.044616796
2262 -0.045323804
2260 -0.046030793
2258 -0.046738755
2256 -0.04744577
2254 -0.048153728
2252 -0.048860747
2250 -0.049568705
2248 -0.050275724
2246 -0.050983679
2244 -0.00189462
2242 0.14094542
2240 0.30371359
2238 0.4224512
2236 0.53467226
2234 0.5254119
2232 0.50406152
2230 0.40742218
2228 0.30942145
2226 0.22961
2224 0.16541623
2222 0.16857162
2220 0.17852899
2218 0.19832455
2216 0.21552628
2214 0.22586721
2212 0.2550824
2210 0.31572089
2208 0.3823117
2206 0.4539195
2204 0.5081045
2202 0.54516351
2200 0.55572069
2198 0.54727107
2196 0.5104779
2194 0.45810714
2192 0.43078017
2190 0.41491556
2188 0.4666405
2186 0.540075
2184 0.6355496
2182 0.73576665
2180 0.80283141
2178 0.86448473
2176 0.89149404
2174 0.90872085
2172 0.85083598
2170 0.771815
2168 0.61264777
2166 0.45350531
2164 0.32308406
2162 0.22662494
2160 0.20979902
2158 0.22166915
2156 0.272524
2154 0.31937227
2152 0.35459667
2150 0.3651672
2148 0.34933841
2146 0.34519142
2144 0.35382643
2142 0.40085179
2140 0.47371489
2138 0.52663022
2136 0.5672226
2134 0.55970377
2132 0.53227997
2130 0.50853306
2128 0.48649278
2126 0.50694007
2124 0.53731263
2122 0.60556376
2120 0.67627722
2118 0.68089664
2116 0.6613003
2114 0.53079271
2112 0.38687891
2110 0.25436828
2108 0.14892551
2106 0.12022278
2104 0.12261434
2102 0.16881035
2100 0.2297668
2098 0.30475596
2096 0.38199571
2094 0.45970157
2092 0.53674561
2090 0.61304301
2088 0.66940427
2086 0.70902753
2084 0.69672519
2082 0.65153712
2080 0.57114398
2078 0.47469786
2076 0.40012398
2074 0.33552307
2072 0.3179372
2070 0.31531924
2068 0.34032986
2066 0.37212491
2064 0.39784166
2062 0.41559216
2060 0.35794502
2058 0.2736975
2056 0.12467171
2054 -0.013298662
2052 -0.064035319
2050 -0.056131616
2048 0.0602144
2046 0.18109857
2044 0.27040061
2042 0.30916312
2040 0.27908859
2038 0.21452864
2036 0.12234528
2034 0.010060745
2032 -0.11647317
2030 -0.2279474
2028 -0.32453126
2026 -0.33447242
2024 -0.28975657
2022 -0.16551292
2020 -0.0036831498
2018 0.1107066
2016 0.20230599
2014 0.1990857
2012 0.16347061
2010 0.11934016
2008 0.07217247
2006 0.013322002
2004 -0.055594504
2002 -0.17070188
2000 -0.29369399
1998 -0.39466065
1996 -0.47474143
1994 -0.50514144
1992 -0.51976079
1990 -0.53174984
1988 -0.53431678
1986 -0.52826494
1984 -0.51208514
1982 -0.48445913
1980 -0.47516906
1978 -0.48675162
1976 -0.48517057
1974 -0.46560431
1972 -0.337825
1970 -0.1288262
1968 0.078126319
1966 0.27406773
1964 0.23298006
1962 0.06599877
1960 -0.20949137
1958 -0.52601248
1956 -0.70996213
1954 -0.84144092
1952 -0.83162552
1950 -0.7765094
1948 -0.69313502
1946 -0.61651498
1944 -0.62779438
1942 -0.6689899
1940 -0.73894906
1938 -0.78962129
1936 -0.77141315
1934 -0.72453719
1932 -0.65429264
1930 -0.5839541
1928 -0.51701522
1926 -0.39497915
1924 -0.19530971
1922 0.099970259
1920 0.47266203
1918 0.74590057
1916 0.90530241
1914 0.87596357
1912 0.72262555
1910 0.55372411
1908 0.39223504
1906 0.25258371
1904 0.12306193
1902 0.033427909
1900 -0.040190853
1898 0.034888584
1896 0.17306629
1894 0.39141697
1892 0.62346792
1890 0.7272473
1888 0.73611766
1886 0.53732193
1884 0.24755675
1882 -0.086207636
1880 -0.39877239
1878 -0.61948359
1876 -0.74221098
1874 -0.73089033
1872 -0.5757724
1870 -0.26385924
1868 0.072805166
1866 0.36526591
1864 0.43524274
1862 0.27110279
1860 -0.013141751
1858 -0.34569424
1856 -0.59188116
1854 -0.75691855
1852 -0.80152804
1850 -0.77022731
1848 -0.68747163
1846 -0.57450783
1844 -0.58977747
1842 -0.6715467
1840 -0.89695179
1838 -1.181264
1836 -1.3556871
1834 -1.44042
1832 -1.2844938
1830 -0.98076606
1828 -0.54383117
1826 -0.12541494
1824 0.060160734
1822 0.022877995
1820 -0.28198111
1818 -0.67850041
1816 -1.0383034
1814 -1.2990524
1812 -1.4294488
1810 -1.456058
1808 -1.4129736
1806 -1.28293
1804 -1.0851328
1802 -0.88437843
1800 -0.69143862
1798 -0.59524351
1796 -0.57339859
1794 -0.54435658
1792 -0.50879318
1790 -0.39319733
1788 -0.23711263
1786 -0.089426339
1784 0.044893567
1782 0.15747637
1780 0.26626894
1778 0.45512491
1776 0.70930427
1774 1.062979
1772 1.3964204
1770 1.4726498
1768 1.3292383
1766 0.935619
1764 0.50796318
1762 0.25962719
1760 0.074561425
1758 -0.11864814
1756 -0.1980627
1754 -0.1116023
1752 0.2592622
1750 0.91548109
1748 1.5994418
1746 2.2129714
1744 2.4147577
1742 2.2271171
1740 1.96387
1738 1.7099378
1736 1.77
1734 2.0804355
1732 2.1762331
1730 2.0810289
1728 1.5084223
1726 0.64112306
1724 0.03417553
1722 -0.2868261
1720 0.13160616
1718 1.1866983
1716 2.7066972
1714 4.2532473
1712 5.1389508
1710 5.5747705
1708 5.8218222
1706 6.325799
1704 7.5234957
1702 9.6488886
1700 12.765932
1698 16.466772
1696 20.384142
1694 23.694269
1692 26.153288
1690 28.353683
1688 30.577898
1686 33.819302
1684 38.084846
1682 43.042202
1680 48.447159
1678 52.85136
1676 56.357372
1674 59.887573
1672 63.545616
1670 67.922165
1668 72.823898
1666 77.586746
1664 82.172127
1662 86.458549
1660 90.467484
1658 94.247643
1656 97.830544
1654 101.28948
1652 104.3836
1650 106.83177
1648 107.74554
1646 106.35607
1644 103.39946
1642 99.662872
1640 95.713814
1638 91.945999
1636 87.881287
1634 83.335228
1632 78.580376
1630 73.732491
1628 69.132912
1626 64.840012
1624 60.527279
1622 56.151176
1620 51.911339
1618 47.811214
1616 43.837658
1614 40.001503
1612 36.412281
1610 33.119389
1608 30.31424
1606 27.988508
1604 26.023262
1602 24.4044
1600 23.034052
1598 21.910509
1596 20.995998
1594 20.299866
1592 19.798138
1590 19.484978
1588 19.326504
1586 19.344593
1584 19.543652
1582 19.96328
1580 20.617031
1578 21.544037
1576 22.741743
1574 24.072157
1572 25.466932
1570 26.729311
1568 27.811958
1566 28.8615
1564 29.911909
1562 31.403963
1560 33.461662
1558 36.49152
1556 40.45977
1554 44.0494
1552 47.051132
1550 49.072628
1548 50.26791
1546 51.566463
1544 53.026562
1542 54.706871
1540 56.152279
1538 56.550728
1536 55.774513
1534 53.862652
1532 51.463032
1530 49.376534
1528 47.671295
1526 46.383949
1524 45.249172
1522 44.084869
1520 42.597034
1518 40.590229
1516 38.36813
1514 36.014248
1512 33.745361
1510 31.658596
1508 29.188194
1506 26.198471
1504 23.056314
1502 19.784483
1500 17.08049
1498 15.02653
1496 13.12
1494 11.369937
1492 9.621767
1490 7.8994689
1488 6.2257538
1486 4.6126971
1484 3.0623221
1482 1.6722929
1480 0.61724597
1478 0.018356517
1476 0.016365439
1474 0.64813334
1472 1.7937696
1470 2.98856
1468 3.8717682
1466 4.4531336
1464 4.7323751
1462 5.081409
1460 5.6974349
1458 6.4847879
1456 7.4537997
1454 8.1037436
1452 8.193428
1450 8.0084753
1448 7.4476347
1446 6.9025574
1444 6.3913894
1442 5.94064
1440 5.5921197
1438 5.348114
1436 5.2234011
1434 5.0687208
1432 4.8555217
1430 4.5163388
1428 4.1039324
1426 3.8205571
1424 3.7244012
1422 3.8913908
1420 4.252737
1418 4.671679
1416 5.0341372
1414 5.1950369
1412 5.2297673
1410 5.2100449
1408 5.2272472
1406 5.3645153
1404 5.5906014
1402 5.916111
1400 6.2762241
1398 6.6633925
1396 6.9816856
1394 7.1553278
1392 7.2170286
1390 7.0689898
1388 6.881659
1386 6.624445
1384 6.3255672
1382 5.9711127
1380 5.5970507
1378 5.224144
1376 4.913837
1374 4.6874337
1372 4.4933181
1370 4.3092113
1368 4.080739
1366 3.7855079
1364 3.4221208
1362 2.9901388
1360 2.468276
1358 1.909562
1356 1.3586934
1354 0.8481527
1352 0.44812298
1350 0.13438606
1348 -0.056713082
1346 -0.14088914
1344 -0.023019992
1342 0.20308506
1340 0.62019861
1338 0.99448353
1336 1.2491515
1334 1.3684653
1332 1.2172351
1330 1.0530926
1328 0.88592958
1326 0.8279103
1324 0.95624399
1322 1.2146784
1320 1.6384085
1318 2.0917532
1316 2.5446401
1314 2.8794999
1312 3.0758605
1310 3.1533217
1308 3.1350591
1306 3.0971158
1304 3.0535359
1302 3.030097
1300 3.0115633
1298 2.9726548
1296 2.918
1294 2.8281801
1292 2.7463884
1290 2.703156
1288 2.6751239
1286 2.6695478
1284 2.6428788
1282 2.5546885
1280 2.4772594
1278 2.4293418
1276 2.4493043
1274 2.608429
1272 2.8260241
1270 3.1422482
1268 3.4723575
1266 3.8144186
1264 4.1394877
1262 4.4364104
1260 4.7121119
1258 4.9719796
1256 5.2474027
1254 5.5391231
1252 5.848146
1250 6.1618996
1248 6.4562349
1246 6.745225
1244 7.0432668
1242 7.3483076
1240 7.6607523
1238 7.9549408
1236 8.1840754
1234 8.3843689
1232 8.5317554
1230 8.655632
1228 8.7196293
1226 8.7195549
1224 8.5382214
1222 8.2881126
1220 7.8752131
1218 7.4386868
1216 6.9542656
1214 6.4575033
1212 5.939765
1210 5.4104524
1208 4.868896
1206 4.3428054
1204 3.8427858
1202 3.3919449
1200 2.9965703
1198 2.6548522
1196 2.3527856
1194 2.0546305
1192 1.7569355
1190 1.4516521
1188 1.1570652
1186 0.91952431
1184 0.71591377
1182 0.57467008
1180 0.46034679
1178 0.40020615
1176 0.368828
1174 0.42516178
1172 0.48363182
1170 0.52776462
1168 0.54965329
1166 0.5046581
1164 0.47965372
1162 0.505979
1160 0.55930567
1158 0.66071224
1156 0.73068172
1154 0.74542546
1152 0.71918923
1150 0.64106041
1148 0.56017083
1146 0.47459894
1144 0.37910336
1142 0.27285066
1140 0.15551779
1138 0.041842327
1136 -0.012660866
1134 -0.020906191
1132 0.026717324
1130 0.11130372
1128 0.27908194
1126 0.49970543
1124 0.88042259
1122 1.3012085
1120 1.78364
1118 2.2427011
1116 2.5445557
1114 2.8014817
1112 2.8797131
1110 2.9270489
1108 2.8779466
1106 2.8308802
1104 2.7971594
1102 2.8402689
1100 3.0401812
1098 3.3248477
1096 3.7380145
1094 4.1537871
1092 4.5721641
1090 4.9889045
1088 5.4021726
1086 5.8023915
1084 6.1714258
1082 6.3876595
1080 6.4917464
1078 6.4358382
1076 6.3038626
1074 6.1380324
1072 5.958045
1070 5.7583466
1068 5.5652275
1066 5.4547448
1064 5.3858919
1062 5.546401
1060 5.7243605
1058 5.9405012
1056 6.1261687
1054 6.1783352
1052 6.219491
1050 6.2268009
1048 6.2365937
1046 6.2499003
1044 6.2389169
1042 6.179853
1040 6.0945969
1038 5.9688492
1036 5.8186302
1034 5.631238
1032 5.3435936
1030 4.957448
1028 4.4608216
1026 3.898453
1024 3.4319468
1022 3.0317309
1020 2.8044047
1018 2.6463897
1016 2.5222342
1014 2.4032362
1012 2.2395065
1010 2.0533218
1008 1.695492
1006 1.3108269
1004 0.77936715
1002 0.26843581
1000 -0.093179792
998 -0.41085741
996 -0.53620142
994 -0.65879786
992 -0.77589941
990 -0.9302662
988 -1.1700461
986 -1.4160508
984 -1.6682475
982 -1.8659663
980 -1.9882841
978 -2.072124
976 -2.1172085
974 -2.1683257
972 -2.2224996
970 -2.2434106
968 -2.2375107
966 -2.11654
964 -1.9384534
962 -1.6583537
960 -1.3478702
958 -1.0767627
956 -0.81892699
954 -0.66351908
952 -0.52047443
950 -0.37527627
948 -0.22921515
946 -0.073923104
944 0.00031889789
942 0.01015226
940 0.037182122
938 0.10155375
936 0.218566
934 0.49085245
932 0.7959336
930 1.1692966
928 1.4792931
926 1.6875193
924 1.840844
922 1.9297079
920 2.1144955
918 2.3882539
916 2.6777987
914 2.9740889
912 2.9479716
910 2.750792
908 2.309834
906 1.7804236
904 1.6025189
902 1.5208473
900 1.9981246
898 2.5658457
896 3.0871
