##TITLE=Methyl Ethyl Ketone
##JCAMP-DX=4.24
##DATA TYPE=INFRARED SPECTRUM
##XUNITS=cm-1
##YUNITS=Absorbance
##FIRSTX=900
##LASTX=2300
##XYDATA=(X++(Y..Y))
2296 0.20836
2294 0.2126938
2292 0.2170276
2290 0.2213614
2288 0.22569521
2286 0.230029
2284 0.23436281
2282 0.23869659
2280 0.2430304
2278 0.24737407
2276 0.251708
2274 0.25604182
2272 0.26037562
2270 0.26470941
2268 0.26904318
2266 0.273377
2264 0.2777108
2262 0.28204459
2260 0.28637838
2258 0.29071218
2256 0.295046
2254 0.29938948
2252 0.3037236
2250 0.3080574
2248 0.31239119
2246 0.31672499
2244 0.17192185
2242 0.0064155855
2240 -0.08454144
2238 -0.10161436
2236 -0.10831615
2234 -0.035684291
2232 0.046639193
2230 0.2189519
2228 0.39568335
2226 0.57280999
2224 0.71432823
2222 0.69275528
2220 0.62835461
2218 0.45992494
2216 0.33390802
2214 0.31335992
2212 0.36899519
2210 0.53883976
2208 0.68993533
2206 0.80890274
2204 0.85743576
2202 0.840105
2200 0.8221544
2198 0.80700862
2196 0.82817143
2194 0.87009019
2192 0.89440256
2190 0.91032475
2188 0.906968
2186 0.89754158
2184 0.93070877
2182 0.9737832
2180 1.0508581
2178 1.1328633
2176 1.2135829
2174 1.2918854
2172 1.3445449
2170 1.384035
2168 1.3616056
2166 1.3282478
2164 1.2768254
2162 1.2463896
2160 1.274036
2158 1.3355323
2156 1.4499
2154 1.5657748
2152 1.6759166
2150 1.7616339
2148 1.8207377
2146 1.8675036
2144 1.9059176
2142 1.9228159
2140 1.9251108
2138 1.904707
2136 1.8726943
2134 1.8680158
2132 1.8756692
2130 1.9082552
2128 1.9484921
2126 1.9845892
2124 2.0195122
2122 2.0626819
2120 2.1062315
2118 2.1311648
2116 2.1496856
2114 2.1409512
2112 2.1363468
2110 2.1682444
2108 2.2234981
2106 2.3326807
2104 2.4435143
2102 2.540091
2100 2.6103899
2098 2.6397047
2096 2.6767714
2094 2.7317746
2092 2.8118601
2090 2.9151852
2088 2.9812195
2086 3.014055
2084 3.0066745
2082 2.9759665
2080 2.9524479
2078 2.9340715
2076 2.9078686
2074 2.8780048
2072 2.835568
2070 2.7889872
2068 2.7738657
2066 2.7673857
2064 2.836313
2062 2.9236581
2060 3.0582089
2058 3.196542
2056 3.3047457
2054 3.3927727
2052 3.4273999
2050 3.4441292
2048 3.4391475
2046 3.4365144
2044 3.4455659
2042 3.4675729
2040 3.5081995
2038 3.5533335
2036 3.6022515
2034 3.6549065
2032 3.7099345
2030 3.7771809
2028 3.8522749
2026 3.9058044
2024 3.9436224
2022 3.9162376
2020 3.8555536
2018 3.7851574
2016 3.7135398
2014 3.7036719
2012 3.7163587
2010 3.7434101
2008 3.7720783
2006 3.7563343
2004 3.7275112
2002 3.6803992
2000 3.6337779
1998 3.6022387
1996 3.5739071
1994 3.5393305
1992 3.4936881
1990 3.4338138
1988 3.3798301
1986 3.3516052
1984 3.3499086
1982 3.3763986
1980 3.4132228
1978 3.4503958
1976 3.4778543
1974 3.4939721
1972 3.5063999
1970 3.516181
1968 3.5196784
1966 3.5197945
1964 3.4685886
1962 3.3930039
1960 3.2965519
1958 3.1931846
1956 3.1779428
1954 3.1981034
1952 3.2918515
1950 3.4028873
1948 3.4244146
1946 3.3947001
1944 3.2488606
1942 3.0746408
1940 2.9573743
1938 2.8850121
1936 2.8909371
1934 2.9125388
1932 2.9083719
1930 2.8919797
1928 2.8577404
1926 2.8611786
1924 2.9141488
1922 3.0288234
1920 3.2015159
1918 3.351691
1916 3.4787972
1914 3.5214891
1912 3.5029833
1910 3.4222715
1908 3.305933
1906 3.1692407
1904 3.0261359
1902 2.9086535
1900 2.8063271
1898 2.7210722
1896 2.6445713
1894 2.5760226
1892 2.5121379
1890 2.4728839
1888 2.4414132
1886 2.4188471
1884 2.3904643
1882 2.3379385
1880 2.2822971
1878 2.2318196
1876 2.2184999
1874 2.2536793
1872 2.3148904
1870 2.3814042
1868 2.3735814
1866 2.2908056
1864 2.1383233
1862 1.953169
1860 1.822
1858 1.7396196
1856 1.7415485
1854 1.7918043
1852 1.9064243
1850 2.0502434
1848 2.184968
1846 2.3027356
1844 2.2429843
1842 2.0816853
1840 1.7995052
1838 1.4713215
1836 1.1760601
1834 0.91623402
1832 0.70941234
1830 0.55759895
1828 0.5344221
1826 0.5799793
1824 0.70119387
1822 0.80872291
1820 0.81829983
1818 0.76022696
1816 0.63030803
1814 0.50218064
1812 0.40479279
1810 0.36074772
1808 0.37463057
1806 0.45332399
1804 0.58396041
1802 0.77173245
1800 0.99086475
1798 1.1668428
1796 1.2999142
1794 1.2708206
1792 1.1428879
1790 0.96279913
1788 0.77108276
1786 0.65307224
1784 0.58536768
1782 0.52021104
1780 0.46964294
1778 0.46774989
1776 0.49027944
1774 0.50255942
1772 0.45137295
1770 0.26645386
1768 0.039826524
1766 -0.10373875
1764 -0.1359318
1762 -0.050527841
1760 0.041151702
1758 -0.011215478
1756 -0.13825087
1754 -0.27517146
1752 -0.2682004
1750 -0.093248092
1748 0.17932215
1746 0.50979
1744 0.67196923
1742 0.68077344
1740 0.5987038
1738 0.45955575
1736 0.40509599
1734 0.40805563
1732 0.33509958
1730 0.20658
1728 -0.031888053
1726 -0.30407184
1724 -0.4110654
1722 -0.33843309
1720 -0.0049001724
1718 0.51164466
1716 1.3405857
1714 2.3171129
1712 3.2287333
1710 4.1039615
1708 4.9300742
1706 5.9324827
1704 7.2761846
1702 9.1675835
1700 11.707149
1698 14.703927
1696 18.037001
1694 21.12742
1692 23.759977
1690 26.173651
1688 28.459463
1686 31.269058
1684 34.636299
1682 38.495525
1680 42.736122
1678 46.490719
1676 49.803356
1674 53.11364
1672 56.474018
1670 60.368496
1668 64.649803
1666 68.903404
1664 73.07621
1662 76.929146
1660 80.481453
1658 83.715187
1656 86.718597
1654 89.615082
1652 92.393303
1650 95.062744
1648 97.022148
1646 97.849854
1644 97.688774
1642 96.742065
1640 95.227783
1638 93.315964
1636 90.737671
1634 87.486885
1632 83.918739
1630 80.213318
1628 76.569351
1626 73.00663
1624 69.147156
1622 64.968033
1620 60.678741
1618 56.321907
1616 52.151371
1614 48.203728
1612 44.654247
1610 41.530048
1608 38.829124
1606 36.52145
1604 34.454155
1602 32.632996
1600 31.033342
1598 29.662153
1596 28.488998
1594 27.500814
1592 26.65769
1590 25.960196
1588 25.395363
1586 25.008436
1584 24.805149
1582 24.81638
1580 25.029938
1578 25.472439
1576 26.144199
1574 26.975555
1572 27.958031
1570 28.947653
1568 29.9188
1566 30.882771
1564 31.83926
1562 33.014
1560 34.476028
1558 36.576267
1556 39.248901
1554 41.719402
1552 43.890362
1550 45.43869
1548 46.471809
1546 47.446785
1544 48.359531
1542 49.242832
1540 49.9174
1538 50.264084
1536 50.258144
1534 49.917255
1532 49.406143
1530 48.805756
1528 48.065605
1526 47.15295
1524 46.00185
1522 44.596943
1520 42.913349
1518 40.982643
1516 39.060101
1514 37.218197
1512 35.474922
1510 33.791813
1508 31.629053
1506 28.823778
1504 25.852646
1502 22.778996
1500 20.152018
1498 18.03344
1496 15.987714
1494 14.000413
1492 12.000206
1490 9.9751968
1488 7.9502392
1486 5.9619279
1484 4.0734177
1482 2.434833
1480 1.1749985
1478 0.35834903
1476 0.077535644
1474 0.36634988
1472 1.1443458
1470 2.0384851
1468 2.8599422
1466 3.6463184
1464 4.3590412
1462 5.1226478
1460 5.9885464
1458 6.7090902
1456 7.1821804
1454 7.275465
1452 6.8628173
1450 6.4068842
1448 5.9339552
1446 5.4827642
1444 5.0559707
1442 4.6351042
1440 4.2231855
1438 3.8788412
1436 3.5706487
1434 3.2138031
1432 2.7680984
1430 2.218641
1428 1.643656
1426 1.1806977
1424 0.89289284
1422 0.83155906
1420 0.93911612
1418 1.1616948
1416 1.4057685
1414 1.5863659
1412 1.7742826
1410 1.9776506
1408 2.247875
1406 2.6246135
1404 3.0561352
1402 3.5707333
1400 4.098948
1398 4.6426806
1396 5.1113501
1394 5.4475164
1392 5.6378098
1390 5.6201324
1388 5.525363
1386 5.3266301
1384 5.1090331
1382 4.8734336
1380 4.6708331
1378 4.5035329
1376 4.3653345
1374 4.2134142
1372 3.9913421
1370 3.6865458
1368 3.2982869
1366 2.8578079
1364 2.3875284
1362 1.8881761
1360 1.3766526
1358 0.89184821
1356 0.49392101
1354 0.20465833
1352 0.066198677
1350 0.020007782
1348 0.070496827
1346 0.1468946
1344 0.332948
1342 0.57026505
1340 0.8843714
1338 1.1539431
1336 1.3311743
1334 1.3961328
1332 1.3123794
1330 1.223881
1328 1.1487108
1326 1.1514179
1324 1.2548335
1322 1.4491001
1320 1.7378818
1318 2.0682831
1316 2.4102001
1314 2.6771739
1312 2.8593805
1310 2.9235845
1308 2.9073725
1306 2.8381858
1304 2.7504828
1302 2.683856
1300 2.6517434
1298 2.705924
1296 2.8139143
1294 3.0069284
1292 3.2151725
1290 3.4184673
1288 3.594372
1286 3.7038257
1284 3.785737
1282 3.8142545
1280 3.8393114
1278 3.8630867
1276 3.9186072
1274 4.0313272
1272 4.1795845
1270 4.3783689
1268 4.583818
1266 4.8053269
1264 5.0429688
1262 5.3195744
1260 5.6590099
1258 6.0754542
1256 6.5641942
1254 7.1157756
1252 7.6939287
1250 8.2901154
1248 8.8893061
1246 9.4933996
1244 10.117224
1242 10.747194
1240 11.379028
1238 11.992112
1236 12.536685
1234 13.011739
1232 13.2988
1230 13.476803
1228 13.357986
1226 13.160007
1224 12.755709
1222 12.332255
1220 11.864534
1218 11.38715
1216 10.888514
1214 10.362869
1212 9.7935562
1210 9.2156515
1208 8.6301012
1206 8.0591955
1204 7.5082479
1202 6.9706788
1200 6.442842
1198 5.9062867
1196 5.354557
1194 4.7672977
1192 4.1611414
1190 3.560689
1188 2.981529
1186 2.4813449
1184 2.0321093
1182 1.686963
1180 1.4016626
1178 1.2608876
1176 1.17682
1174 1.240278
1172 1.3135868
1170 1.3925847
1168 1.4371588
1166 1.3796643
1164 1.3051283
1162 1.192216
1160 1.0961372
1158 1.0319277
1156 0.96880114
1154 0.90042675
1152 0.79335392
1150 0.63191712
1148 0.44490722
1146 0.2406593
1144 0.086365074
1142 -0.009593619
1140 -0.016718697
1138 0.043019608
1136 0.14932029
1134 0.28422302
1132 0.48720425
1130 0.72982544
1128 1.0421252
1126 1.3815808
1124 1.7615072
1122 2.1429973
1120 2.4956479
1118 2.8332534
1116 3.1062469
1114 3.3825357
1112 3.6785183
1110 3.9922876
1108 4.3613229
1106 4.7242799
1104 5.0706191
1102 5.3968511
1100 5.685667
1098 5.9801474
1096 6.2896571
1094 6.649683
1092 7.0797601
1090 7.5728931
1088 8.1212826
1086 8.628849
1084 9.0809345
1082 9.3607092
1080 9.5232639
1078 9.5804739
1076 9.6077843
1074 9.7596769
1072 9.9703388
1070 10.307488
1068 10.647411
1066 10.801908
1064 10.89624
1062 10.72159
1060 10.530869
1058 10.325395
1056 10.124738
1054 9.9449253
1052 9.7290945
1050 9.3950434
1048 9.0130596
1046 8.516036
1044 7.9997406
1042 7.4501686
1040 6.9083037
1038 6.3821058
1036 5.8947001
1034 5.4561319
1032 5.0758944
1030 4.7504034
1028 4.4709325
1026 4.2232609
1024 3.9846148
1022 3.747386
1020 3.4718053
1018 3.1766822
1016 2.8232284
1014 2.4530342
1012 2.0693507
1010 1.6874598
1008 1.354972
1006 1.0305771
1004 0.7559917
1002 0.48704752
1000 0.25470027
998 0.023697928
996 -0.20188786
994 -0.43687242
992 -0.69883502
990 -0.94484514
988 -1.1511312
986 -1.3084507
984 -1.3789011
982 -1.3948846
980 -1.333994
978 -1.1833138
976 -0.93381453
974 -0.58167052
972 -0.14905493
970 0.26345706
968 0.6547941
966 0.89196104
964 1.0539685
962 1.1092088
960 1.1296183
958 1.1298361
956 1.1233943
954 1.0553788
952 0.97578001
950 0.7913183
948 0.59939682
946 0.35945928
944 0.122356
942 -0.010053635
940 -0.31531617
938 -0.61019498
936 -0.84302825
934 -0.89217031
932 -0.83233762
930 -0.54124242
928 -0.27671951
926 -0.057444517
924 0.03657718
922 -0.020436693
920 -0.0026955605
918 0.08852461
916 0.41852388
914 0.91804922
912 1.4845698
910 2.0831671
908 2.5186775
906 2.8873878
904 3.0531313
902 3.1630635
900 3.1777959
898 3.1762886
896 3.0985
