##TITLE=Methyl Ethyl Ketone
##JCAMP-DX=4.24
##DATA TYPE=INFRARED SPECTRUM
##XUNITS=cm-1
##YUNITS=Absorbance
##FIRSTX=900
##LASTX=2300
##XYDATA=(X++(Y..Y))
2296 0.098422997
2294 0.10046708
2292 0.10251414
2290 0.10456122
2288 0.10661823
2286 0.10866536
2284 0.11071243
2282 0.1127595
2280 0.11480657
2278 0.11685364
2276 0.11890071
2274 0.12094779
2272 0.12299486
2270 0.12503213
2268 0.1270888
2266 0.12916543
2264 0.13118382
2262 0.13313265
2260 0.13527472
2258 0.13770376
2256 0.13938257
2254 0.140012
2252 0.14342
2250 0.1507739
2248 0.14775589
2246 0.120505
2244 0.074303485
2242 0.016133757
2240 -0.061826959
2238 -0.1667324
2236 -0.28605416
2234 -0.39840245
2232 -0.4696165
2230 -0.47538176
2228 -0.44597766
2226 -0.42536551
2224 -0.44894698
2222 -0.53633744
2220 -0.654342
2218 -0.7563262
2216 -0.80419058
2214 -0.77439308
2212 -0.69120163
2210 -0.58958179
2208 -0.48974314
2206 -0.40439278
2204 -0.33486798
2202 -0.2795566
2200 -0.2388664
2198 -0.2108254
2196 -0.18107215
2194 -0.13303642
2192 -0.056951199
2190 0.051083606
2188 0.18007721
2186 0.31249809
2184 0.42335722
2182 0.48847193
2180 0.49648741
2178 0.44378594
2176 0.34122771
2174 0.2063148
2172 0.064697564
2170 -0.054211482
2168 -0.11628197
2166 -0.09411329
2164 0.0059371665
2162 0.16017611
2160 0.32026634
2158 0.43890134
2156 0.505817
2154 0.52597278
2152 0.51395828
2150 0.48303849
2148 0.42853841
2146 0.34475002
2144 0.24750732
2142 0.1574031
2140 0.082932211
2138 0.024208063
2136 -0.034794599
2134 -0.10777728
2132 -0.17588277
2130 -0.21367687
2128 -0.2175944
2126 -0.19866437
2124 -0.19407643
2122 -0.23580801
2120 -0.29615057
2118 -0.32878533
2116 -0.30235314
2114 -0.2054216
2112 -0.082873099
2110 0.010016775
2108 0.060992472
2106 0.080243476
2104 0.10072337
2102 0.1511578
2100 0.20941959
2098 0.23763897
2096 0.2146157
2094 0.13790503
2092 0.05304702
2090 0.014208459
2088 0.034861054
2086 0.10319715
2084 0.17169069
2082 0.18969372
2080 0.14939784
2078 0.066109076
2076 -0.022017058
2074 -0.074145988
2072 -0.073368043
2070 -0.019353196
2068 0.060970657
2066 0.13084866
2064 0.15706731
2062 0.11692134
2060 0.023476735
2058 -0.093393512
2056 -0.19520058
2054 -0.24595284
2052 -0.23249622
2050 -0.15622458
2048 -0.038682092
2046 0.092331961
2044 0.2168162
2042 0.3211
2040 0.40241793
2038 0.45935684
2036 0.47714844
2034 0.4403649
2032 0.35618567
2030 0.24836691
2028 0.16736189
2026 0.16515379
2024 0.25262612
2022 0.41138324
2020 0.57918334
2018 0.68269378
2016 0.68033999
2014 0.56123221
2012 0.3790777
2010 0.21166946
2008 0.11805834
2006 0.13289879
2004 0.23106329
2002 0.36062679
2000 0.47069833
1998 0.52256572
1996 0.52017641
1994 0.48619953
1992 0.43813702
1990 0.38771784
1988 0.337953
1986 0.28947949
1984 0.24963383
1982 0.22575571
1980 0.21028289
1978 0.19275895
1976 0.18220113
1974 0.1980993
1972 0.26196745
1970 0.38649368
1968 0.54510677
1966 0.69426394
1964 0.80109847
1962 0.84558582
1960 0.83410883
1958 0.78494489
1956 0.71239328
1954 0.62743258
1952 0.53936607
1950 0.45894727
1948 0.40600851
1946 0.40156752
1944 0.45138669
1942 0.54729187
1940 0.6565848
1938 0.73967737
1936 0.77978373
1934 0.7733739
1932 0.7183044
1930 0.61344427
1928 0.46350193
1926 0.28474891
1924 0.13017695
1922 0.060839687
1920 0.088154927
1918 0.1884097
1916 0.30895087
1914 0.39456517
1912 0.43738225
1910 0.45695981
1908 0.47401467
1906 0.50402522
1904 0.5468632
1902 0.59514964
1900 0.64711177
1898 0.70715845
1896 0.78964001
1894 0.90616256
1892 1.0330485
1890 1.125577
1888 1.1377006
1886 1.0383731
1884 0.85836881
1882 0.66146982
1880 0.49961096
1878 0.40707594
1876 0.385593
1874 0.41902196
1872 0.49226156
1870 0.58970076
1868 0.68311417
1866 0.74098653
1864 0.75143164
1862 0.71823788
1860 0.65916532
1858 0.5929814
1856 0.51091117
1854 0.38851014
1852 0.20929995
1850 -0.028789438
1848 -0.2933628
1846 -0.53162825
1844 -0.69149065
1842 -0.73353624
1840 -0.66331202
1838 -0.51139486
1836 -0.29569358
1834 -0.022574075
1832 0.30417609
1830 0.66876203
1828 0.99966526
1826 1.2030085
1824 1.2448828
1822 1.1438653
1820 0.9626376
1818 0.77680987
1816 0.61258054
1814 0.46016088
1812 0.30519569
1810 0.14173511
1808 -0.0028613582
1806 -0.088128105
1804 -0.11348677
1802 -0.10964154
1800 -0.11689428
1798 -0.16475387
1796 -0.22031143
1794 -0.21695608
1792 -0.12813976
1790 0.031561516
1788 0.20815518
1786 0.33635706
1784 0.40420914
1782 0.43817201
1780 0.45905465
1778 0.47454521
1776 0.47331601
1774 0.4352341
1772 0.35561362
1770 0.24517207
1768 0.12800965
1766 0.035023216
1764 -0.0079159904
1762 0.005246182
1760 0.010719333
1758 -0.083789304
1756 -0.27319455
1754 -0.47967139
1752 -0.64619511
1750 -0.75114959
1748 -0.81789011
1746 -0.89699179
1744 -1.0283287
1742 -1.2235054
1740 -1.4194951
1738 -1.5095037
1736 -1.43452
1734 -1.1981455
1732 -0.89202869
1730 -0.65114546
1728 -0.53159106
1726 -0.50622427
1724 -0.48007843
1722 -0.32289219
1720 0.064741433
1718 0.7226069
1716 1.5515642
1714 2.3651967
1712 3.0527184
1710 3.6072564
1708 4.1597462
1706 4.9372606
1704 6.1631851
1702 8.0272398
1700 10.643696
1698 13.999949
1696 17.757572
1694 21.377621
1692 24.570871
1690 27.363092
1688 30.130468
1686 33.45652
1684 37.729256
1682 43.002388
1680 48.692081
1678 53.873116
1676 58.359756
1674 62.663467
1672 67.299698
1670 72.549095
1668 78.109009
1666 83.256805
1664 87.525574
1662 90.789185
1660 93.123146
1658 94.722015
1656 95.767395
1654 96.395142
1652 96.676659
1650 96.620209
1648 96.157356
1646 95.190964
1644 93.778694
1642 92.104233
1640 90.25415
1638 88.187889
1636 85.793114
1634 82.940384
1632 79.629738
1630 75.968513
1628 71.984001
1626 67.621719
1624 62.891041
1622 57.902027
1620 52.874008
1618 48.087524
1616 43.710972
1614 39.785839
1612 36.322971
1610 33.321182
1608 30.747601
1606 28.543936
1604 26.659058
1602 25.056187
1600 23.718548
1598 22.64716
1596 21.852001
1594 21.34701
1592 21.133698
1590 21.198639
1588 21.509577
1586 22.019714
1584 22.688641
1582 23.50112
1580 24.524651
1578 25.899481
1576 27.736544
1574 30.073658
1572 32.797867
1570 35.66555
1568 38.48856
1566 41.176678
1564 43.701614
1562 46.107441
1560 48.591206
1558 51.414413
1556 54.416355
1554 57.002769
1552 58.737064
1550 59.506123
1548 59.506477
1546 59.145786
1544 58.576206
1542 57.619213
1540 56.06382
1538 53.796074
1536 51.002888
1534 48.153797
1532 45.570896
1530 43.324303
1528 41.36076
1526 39.543301
1524 37.721275
1522 35.764309
1520 33.622154
1518 31.346148
1516 29.078714
1514 27.011639
1512 25.17436
1510 23.392799
1508 21.45912
1506 19.213579
1504 16.709452
1502 14.223068
1500 11.961549
1498 9.9801846
1496 8.2453861
1494 6.6629696
1492 5.1793375
1490 3.8069072
1488 2.5696497
1486 1.4913985
1484 0.61088777
1482 -0.017942905
1480 -0.35710251
1478 -0.38338864
1476 -0.028522968
1474 0.80747402
1472 2.0770764
1470 3.5463901
1468 5.0023098
1466 6.3276987
1464 7.5179486
1462 8.6801004
1460 9.9030457
1458 11.201309
1456 12.475
1454 13.511234
1452 14.158077
1450 14.387482
1448 14.242732
1446 13.8235
1444 13.230917
1442 12.54771
1440 11.838115
1438 11.135711
1436 10.428041
1434 9.6583281
1432 8.8069706
1430 7.923768
1428 7.0866699
1426 6.3848028
1424 5.8710794
1422 5.5419288
1420 5.366271
1418 5.2944684
1416 5.2887974
1414 5.3371658
1412 5.4508781
1410 5.6629171
1408 5.9887085
1406 6.4080572
1404 6.872992
1402 7.3082414
1400 7.6427479
1398 7.825119
1396 7.8322644
1394 7.6783895
1392 7.3950834
1390 7.0263047
1388 6.6105232
1386 6.1733599
1384 5.7347641
1382 5.3081927
1380 4.8941236
1378 4.4756098
1376 4.0300117
1374 3.5361891
1372 2.9961879
1370 2.4453974
1368 1.9158292
1366 1.4214849
1364 0.96384913
1362 0.53521234
1360 0.14986068
1358 -0.14320865
1356 -0.3043023
1354 -0.31953499
1352 -0.17575932
1350 0.14265329
1348 0.61990583
1346 1.192245
1344 1.802828
1342 2.4214931
1340 3.0144019
1338 3.5314775
1336 3.9164257
1334 4.1137104
1332 4.0976844
1330 3.893867
1328 3.5520904
1326 3.143538
1324 2.7445881
1322 2.4274709
1320 2.2342217
1318 2.1544785
1316 2.1437302
1314 2.1239915
1312 2.0350039
1310 1.863425
1308 1.629658
1306 1.3916243
1304 1.2018125
1302 1.086856
1300 1.0556391
1298 1.0986587
1296 1.2132
1294 1.4154354
1292 1.7227709
1290 2.1451154
1288 2.6723521
1286 3.2619386
1284 3.8597751
1282 4.4066014
1280 4.8551221
1278 5.1847129
1276 5.3975587
1274 5.5264301
1272 5.6122146
1270 5.6977248
1268 5.8227158
1266 6.0201116
1264 6.3155236
1262 6.7226982
1260 7.241672
1258 7.8525481
1256 8.5358543
1254 9.2822008
1252 10.090642
1250 10.970939
1248 11.932217
1246 12.978001
1244 14.095852
1242 15.245978
1240 16.360594
1238 17.330206
1236 18.046114
1234 18.426004
1232 18.418081
1230 18.018909
1228 17.247032
1226 16.149036
1224 14.793977
1222 13.287907
1220 11.752717
1218 10.322451
1216 9.1123171
1214 8.1955538
1212 7.6178575
1210 7.3847952
1208 7.4634809
1206 7.7583556
1204 8.1398277
1202 8.4422522
1200 8.5259285
1198 8.3281059
1196 7.8423429
1194 7.142909
1192 6.3222179
1190 5.4684429
1188 4.6514049
1186 3.9031115
1184 3.2413697
1182 2.6727796
1180 2.2091832
1178 1.8775395
1176 1.69708
1174 1.6590135
1172 1.7289885
1170 1.8324506
1168 1.902352
1166 1.912165
1164 1.8666737
1162 1.8162429
1160 1.803364
1158 1.8256617
1156 1.8543586
1154 1.8267388
1152 1.6943177
1150 1.4601364
1148 1.1513802
1146 0.82102394
1144 0.52096951
1142 0.28459221
1140 0.12475655
1138 0.017970767
1136 -0.0569636
1134 -0.096698761
1132 -0.10408083
1130 -0.10867833
1128 -0.12976262
1126 -0.14673357
1124 -0.13070887
1122 -0.05722671
1120 0.085484475
1118 0.28103858
1116 0.50885373
1114 0.75416917
1112 1.0000627
1110 1.2213799
1108 1.3970642
1106 1.521695
1104 1.596624
1102 1.631133
1100 1.6355288
1098 1.6197555
1096 1.6049714
1094 1.6414866
1092 1.7782019
1090 2.0407908
1088 2.4317904
1086 2.9074442
1084 3.4070427
1082 3.8566713
1080 4.1914997
1078 4.380816
1076 4.4184732
1074 4.3416533
1072 4.1902933
1070 3.9833238
1068 3.7381554
1066 3.4811714
1064 3.2441919
1062 3.0660923
1060 2.9692233
1058 2.9252286
1056 2.8916371
1054 2.8220029
1052 2.6830378
1050 2.483037
1048 2.2532296
1046 2.0595
1044 1.9630044
1042 1.9849946
1040 2.1217182
1038 2.3258474
1036 2.5470901
1034 2.7587752
1032 2.9386742
1030 3.0621474
1028 3.1003623
1026 3.0164688
1024 2.7893999
1022 2.4519658
1020 2.0633368
1018 1.72047
1016 1.4990144
1014 1.3806131
1012 1.3133771
1010 1.2137321
1008 1.021456
1006 0.77030927
1004 0.50869656
1002 0.25677061
1000 0.018597424
998 -0.22987136
996 -0.50638282
994 -0.7870996
992 -1.0421801
990 -1.2550966
988 -1.4104295
986 -1.4844964
984 -1.4489515
982 -1.2682941
980 -0.9312644
978 -0.51148617
976 -0.10361113
974 0.19934042
972 0.33451885
970 0.33864096
968 0.27540952
966 0.21589151
964 0.21650136
962 0.27728409
960 0.37742075
958 0.47268069
956 0.52364957
954 0.5274874
952 0.48941278
950 0.41120607
948 0.2978659
946 0.16886204
944 0.053352818
942 0.0017435625
940 0.05823642
938 0.22537851
936 0.48507029
934 0.78207648
932 1.0630134
930 1.315325
928 1.5425091
926 1.7707222
924 2.0290282
922 2.33606
920 2.7001486
918 3.0990684
916 3.4965043
914 3.8308582
912 4.0517082
910 4.1741543
908 4.239645
906 4.3270378
904 4.5004015
902 4.7278357
900 4.9692893
898 5.2451959
896 5.5917001
