##TITLE=Methyl Ethyl Ketone
##JCAMP-DX=4.24
##DATA TYPE=INFRARED SPECTRUM
##XUNITS=cm-1
##YUNITS=Absorbance
##FIRSTX=900
##LASTX=2300
##XYDATA=(X++(Y..Y))
2296 0.00091116002
2294 0.00093012286
2292 0.00094905583
2290 0.0009679987
2288 0.00098694162
2286 0.0010059639
2284 0.001024838
2282 0.00104381
2280 0.0010627828
2278 0.0010817557
2276 0.00110063
2274 0.0011196014
2272 0.0011385743
2270 0.0011575471
2268 0.00117652
2266 0.0011954929
2264 0.0012144658
2262 0.0012333409
2260 0.0012523114
2258 0.0012712843
2256 0.0012902572
2254 0.001309133
2252 0.0013281029
2250 0.0013470757
2248 0.0013660486
2246 0.0013850214
2244 5.1468855e-05
2242 0.036026649
2240 0.077513598
2238 0.12554619
2236 0.17453615
2234 0.21614923
2232 0.25642815
2230 0.27876595
2228 0.29701039
2226 0.28949201
2224 0.28005755
2222 0.26792014
2220 0.2614255
2218 0.27261972
2216 0.29084656
2214 0.32225224
2212 0.34806299
2210 0.36343393
2208 0.3609663
2206 0.33704773
2204 0.31130609
2202 0.28510386
2200 0.27320608
2198 0.2720322
2196 0.27061641
2194 0.26866499
2192 0.2565783
2190 0.24007352
2188 0.22480948
2186 0.21004893
2184 0.199966
2182 0.19093205
2180 0.19064939
2178 0.19205441
2176 0.22491144
2174 0.26167354
2172 0.30997837
2170 0.35316241
2168 0.36071607
2166 0.35679922
2164 0.32376334
2162 0.28950673
2160 0.25953349
2158 0.23647702
2156 0.225693
2154 0.22368868
2152 0.23256835
2150 0.24778812
2148 0.26886389
2146 0.27826715
2144 0.2768023
2142 0.25938752
2140 0.2316969
2138 0.21527156
2136 0.20554772
2134 0.20388216
2132 0.20527437
2130 0.197449
2128 0.18657561
2126 0.19246186
2124 0.20232791
2122 0.22111931
2120 0.23970559
2118 0.22809793
2116 0.21129929
2114 0.18773541
2112 0.16588308
2110 0.1558367
2108 0.14396916
2106 0.1214275
2104 0.09311679
2102 0.055615507
2100 0.023692001
2098 0.0034483112
2096 -0.0056589274
2094 -0.0023786235
2092 0.0018314216
2090 0.0051380619
2088 0.004653892
2086 0.0010239671
2084 0.003852387
2082 0.011185568
2080 0.022198983
2078 0.034905303
2076 0.040805414
2074 0.043821208
2072 0.049131718
2070 0.055323035
2068 0.070344746
2066 0.08744178
2064 0.093805209
2062 0.095685661
2060 0.071124643
2058 0.040035829
2056 0.0016492684
2054 -0.032912243
2052 -0.048021711
2050 -0.056878205
2048 -0.058912303
2046 -0.070360683
2044 -0.10239794
2042 -0.1389152
2040 -0.17671131
2038 -0.1945861
2036 -0.18881758
2034 -0.17334904
2032 -0.15258765
2030 -0.14515281
2028 -0.14856648
2026 -0.16473429
2024 -0.18765686
2022 -0.21213564
2020 -0.23672634
2018 -0.24916953
2016 -0.25675398
2014 -0.24979499
2012 -0.2385288
2010 -0.23190315
2008 -0.22778966
2006 -0.23989393
2004 -0.25626317
2002 -0.27222729
2000 -0.28446299
1998 -0.2791675
1996 -0.27058429
1994 -0.26429251
1992 -0.26913279
1990 -0.29950622
1988 -0.33412018
1986 -0.36757758
1984 -0.38338423
1982 -0.37491673
1980 -0.35928077
1978 -0.34084749
1976 -0.32911742
1974 -0.32361129
1972 -0.30511963
1970 -0.27532443
1968 -0.24785657
1966 -0.22326486
1964 -0.24897684
1962 -0.30158558
1960 -0.36209202
1958 -0.42475
1956 -0.44381386
1954 -0.44727936
1952 -0.44897303
1950 -0.4536114
1948 -0.48223922
1946 -0.51853997
1944 -0.55654234
1942 -0.58929187
1940 -0.60841739
1938 -0.62328798
1936 -0.6396243
1934 -0.66153443
1932 -0.69131041
1930 -0.72014493
1928 -0.74128306
1926 -0.74508226
1924 -0.72748774
1922 -0.69011623
1920 -0.63877279
1918 -0.59541559
1916 -0.56478888
1914 -0.55237091
1912 -0.5514825
1910 -0.56274325
1908 -0.57967013
1906 -0.62390226
1904 -0.68302441
1902 -0.73750448
1900 -0.78972107
1898 -0.79178596
1896 -0.77281284
1894 -0.73117942
1892 -0.68308479
1890 -0.6544109
1888 -0.64084125
1886 -0.66407454
1884 -0.70626551
1882 -0.76535213
1880 -0.82361126
1878 -0.86382037
1876 -0.88546598
1874 -0.88025278
1872 -0.85814863
1870 -0.82153612
1868 -0.79110241
1866 -0.77896732
1864 -0.79624712
1862 -0.84347069
1860 -0.89619815
1858 -0.94510412
1856 -0.97820657
1854 -0.99772543
1852 -1.0100017
1850 -1.0172522
1848 -1.025696
1846 -1.0328715
1844 -1.0404203
1842 -1.0461408
1840 -1.0455772
1838 -1.0419085
1836 -1.02368
1834 -0.99586952
1832 -0.94033921
1830 -0.86717069
1828 -0.7790634
1826 -0.69370925
1824 -0.64290589
1822 -0.62674606
1820 -0.65324098
1818 -0.69972318
1816 -0.74687517
1814 -0.78155822
1812 -0.79554743
1810 -0.78752321
1808 -0.76236778
1806 -0.72216702
1804 -0.67212403
1802 -0.6390928
1800 -0.62195504
1798 -0.61975777
1796 -0.626055
1794 -0.58262545
1792 -0.5055328
1790 -0.40231392
1788 -0.28866339
1786 -0.21238899
1784 -0.16059211
1782 -0.12084793
1780 -0.088406108
1778 -0.05104683
1776 -0.011181012
1774 0.029129444
1772 0.0648093
1770 0.073296256
1768 0.062750578
1766 0.031486772
1764 0.0061312201
1762 0.018186012
1760 0.01116488
1758 -0.048535526
1756 -0.10981994
1754 -0.14431338
1752 -0.13599297
1750 -0.083800003
1748 -0.03044495
1746 0.0076044286
1744 -0.032887373
1742 -0.14953138
1740 -0.2790947
1738 -0.40450481
1736 -0.41626
1734 -0.33764496
1732 -0.21841776
1730 -0.082946286
1728 -0.057509586
1726 -0.10761428
1724 -0.14100483
1722 -0.1370364
1720 0.020963542
1718 0.32806173
1716 0.83836174
1714 1.4587121
1712 2.0401762
1710 2.5880344
1708 3.1178339
1706 3.7808485
1704 4.7237363
1702 6.203723
1700 8.3486519
1698 11.388241
1696 15.297857
1694 19.334702
1692 23.145868
1690 26.541126
1688 29.557108
1686 33.081501
1684 37.213833
1682 42.256863
1680 48.03064
1678 53.131599
1676 57.581787
1674 61.755409
1672 65.806557
1670 70.618454
1668 76.013885
1666 81.470299
1664 86.817032
1662 91.513206
1660 95.503342
1658 98.615906
1656 100.80423
1654 102.01734
1652 102.3254
1650 101.86683
1648 100.7932
1646 99.29982
1644 97.493721
1642 95.505051
1640 93.003708
1638 89.877151
1636 85.765213
1634 80.646049
1632 75.379097
1630 70.2752
1628 65.59864
1626 61.354385
1624 57.096722
1622 52.759251
1620 48.546234
1618 44.472168
1616 40.668484
1614 37.157974
1612 34.091675
1610 31.47962
1608 29.295143
1606 27.512192
1604 25.980286
1602 24.714918
1600 23.699572
1598 22.941544
1596 22.410999
1594 22.08836
1592 21.917753
1590 21.876966
1588 21.925486
1586 22.055771
1584 22.255045
1582 22.517021
1580 22.834625
1578 23.267647
1576 23.834858
1574 24.60026
1572 25.571203
1570 26.685638
1568 27.92544
1566 29.184307
1564 30.45245
1562 31.868153
1560 33.519833
1558 36.01849
1556 39.428928
1554 43.193771
1552 47.097588
1550 50.179668
1548 52.455013
1546 54.381966
1544 55.962807
1542 57.320251
1540 58.299599
1538 58.697216
1536 58.458
1534 57.620358
1532 56.396973
1530 55.076664
1528 53.670658
1526 52.191101
1524 50.478622
1522 48.425854
1520 46.05653
1518 43.348331
1516 40.762142
1514 38.462841
1512 36.313358
1510 34.321629
1508 31.849611
1506 28.738571
1504 25.574823
1502 22.409039
1500 19.733606
1498 17.60425
1496 15.515714
1494 13.465658
1492 11.393128
1490 9.3130016
1488 7.2664185
1486 5.3165193
1484 3.5660899
1482 2.101114
1480 1.009804
1478 0.31920272
1476 0.063133411
1474 0.35038859
1472 1.1343739
1470 2.1141748
1468 3.1084113
1466 3.95505
1464 4.5437527
1462 5.0275917
1460 5.4558115
1458 5.8895226
1456 6.3447399
1454 6.7278671
1452 6.9821601
1450 7.096283
1448 7.0045676
1446 6.8524928
1444 6.6205397
1442 6.3792529
1440 6.1202607
1438 5.8151808
1436 5.4396386
1434 4.9594293
1432 4.3846502
1430 3.8122683
1428 3.2787099
1426 2.8656635
1424 2.5870275
1422 2.4403422
1420 2.4218471
1418 2.5098474
1416 2.6700115
1414 2.867605
1412 3.0762057
1410 3.2892685
1408 3.5166039
1406 3.7739201
1404 4.0632367
1402 4.3943748
1400 4.7482963
1398 5.1294746
1396 5.5089717
1394 5.8751984
1392 6.1930399
1390 6.4116421
1388 6.5281763
1386 6.4757199
1384 6.3019748
1382 5.9596133
1380 5.5432024
1378 5.0437174
1376 4.53022
1374 4.0203586
1372 3.5501001
1370 3.1283343
1368 2.7568691
1366 2.3995001
1364 1.9953572
1362 1.5479306
1360 1.053442
1358 0.5902319
1356 0.25703859
1354 0.041161045
1352 -0.0025150185
1350 0.035013132
1348 0.14891151
1346 0.28849715
1344 0.45670319
1342 0.63998675
1340 0.85100472
1338 1.06155
1336 1.26422
1334 1.4449155
1332 1.5755479
1330 1.704105
1328 1.8356588
1326 2.0066128
1324 2.2456779
1322 2.5364954
1320 2.8938606
1318 3.2685709
1316 3.64961
1314 3.9892163
1312 4.2733846
1310 4.4934835
1308 4.6524734
1306 4.7654128
1304 4.839798
1302 4.8758478
1300 4.8823295
1298 4.8478479
1296 4.7957001
1294 4.7281861
1292 4.6678433
1290 4.6343822
1288 4.6184678
1286 4.637712
1284 4.6636109
1282 4.698657
1280 4.7282176
1278 4.7444654
1276 4.7550969
1274 4.7588601
1272 4.7737508
1270 4.8129859
1268 4.880794
1266 4.9889708
1264 5.1134157
1262 5.2510939
1260 5.3748603
1258 5.4824948
1256 5.5775857
1254 5.6653419
1252 5.761786
1250 5.8617215
1248 5.9558315
1246 6.04
1244 6.0979805
1242 6.1422849
1240 6.1724129
1238 6.1882892
1236 6.1706715
1234 6.1186275
1232 5.9756479
1230 5.7902374
1228 5.4966626
1226 5.1718707
1224 4.7647123
1222 4.3349299
1220 3.8520415
1218 3.364521
1216 2.8717487
1214 2.4031014
1212 1.9803011
1210 1.5992587
1208 1.28008
1206 0.99774635
1204 0.7588042
1202 0.53832841
1200 0.33810765
1198 0.1552746
1196 -0.0060165748
1194 -0.12860961
1192 -0.21664086
1190 -0.2515597
1188 -0.25141647
1186 -0.2028355
1184 -0.13153799
1182 -0.031976484
1180 0.085059404
1178 0.24787574
1176 0.43668801
1174 0.70587015
1172 0.9793309
1170 1.248664
1168 1.4836097
1166 1.6115786
1164 1.7091473
1162 1.732354
1160 1.7437258
1158 1.7286055
1156 1.6856729
1154 1.5907241
1152 1.4416189
1150 1.2176619
1148 0.95782918
1146 0.66733468
1144 0.41110879
1142 0.19903952
1140 0.074026592
1138 0.018967895
1136 0.032809027
1134 0.087612338
1132 0.17414474
1130 0.2779786
1128 0.40932766
1126 0.54970241
1124 0.69856793
1122 0.83846986
1120 0.92299443
1118 0.98999429
1116 0.99069244
1114 0.99009639
1112 0.98944402
1110 0.99939662
1108 1.0433806
1106 1.09673
1104 1.1725389
1102 1.2459382
1100 1.3116652
1098 1.3532503
1096 1.3540572
1094 1.3220596
1092 1.2512879
1090 1.1864827
1088 1.1341795
1086 1.1311686
1084 1.1685275
1082 1.2271993
1080 1.2915131
1078 1.305747
1076 1.2862543
1074 1.1857147
1072 1.0544153
1070 0.89311779
1068 0.7311734
1066 0.61389524
1064 0.5119676
1062 0.48116258
1060 0.46391022
1058 0.51124334
1056 0.55894232
1054 0.60631645
1052 0.62872666
1050 0.57122928
1048 0.49713567
1046 0.38433108
1044 0.28022265
1042 0.19071828
1040 0.090708949
1038 -0.025183655
1036 -0.14757699
1034 -0.27548099
1032 -0.38640308
1030 -0.48270851
1028 -0.58481467
1026 -0.6912002
1024 -0.80199349
1022 -0.91374779
1020 -1.0104866
1018 -1.1010462
1016 -1.1850629
1014 -1.2656847
1012 -1.3280134
1010 -1.3843136
1008 -1.407532
1006 -1.4267558
1004 -1.4324626
1002 -1.4359671
1000 -1.4247154
998 -1.4083805
996 -1.3696285
994 -1.3291219
992 -1.2832863
990 -1.2293456
988 -1.156518
986 -1.073504
984 -0.9739629
982 -0.89666384
980 -0.8506456
978 -0.83594435
976 -0.85245001
974 -0.84943986
972 -0.82859254
970 -0.76481807
968 -0.67599744
966 -0.60869253
964 -0.55351287
962 -0.54779029
960 -0.55585128
958 -0.51499081
956 -0.4602707
954 -0.3258993
952 -0.18426201
950 -0.097362459
948 -0.01746651
946 -0.0057566892
944 0.0012424104
942 0.036031086
940 0.030832745
938 0.057946026
936 0.074518606
934 0.060639981
932 0.055111974
930 0.068162024
928 0.11532594
926 0.21716622
924 0.32956019
922 0.45425466
920 0.54482007
918 0.60286826
916 0.61114532
914 0.58385581
912 0.52587599
910 0.45212799
908 0.37803915
906 0.30457959
904 0.23602822
902 0.16943075
900 0.13001026
898 0.095258743
896 0.13352001
