##TITLE=Methyl Ethyl Ketone
##JCAMP-DX=4.24
##DATA TYPE=INFRARED SPECTRUM
##XUNITS=cm-1
##YUNITS=Absorbance
##FIRSTX=900
##LASTX=2300
##XYDATA=(X++(Y..Y))
2296 0.080105998
2294 0.081772618
2292 0.083438233
2290 0.085104845
2288 0.086771466
2286 0.088438079
2284 0.090104692
2282 0.091771312
2280 0.093437925
2278 0.095104545
2276 0.096770175
2274 0.098436773
2272 0.10010142
2270 0.10176899
2268 0.1034366
2266 0.10510422
2264 0.10677183
2262 0.10843945
2260 0.11010706
2258 0.11176495
2256 0.11343229
2254 0.1150999
2252 0.11676751
2250 0.11843513
2248 0.12010274
2246 0.12177036
2244 0.061185405
2242 0.0022697742
2240 -0.052833598
2238 -0.058780141
2236 -0.057487145
2234 -0.0068721687
2232 0.04596699
2230 0.069167815
2228 0.080087997
2226 0.0043964735
2224 -0.069798797
2222 -0.11704566
2220 -0.11947946
2218 0.010177983
2216 0.15430845
2214 0.31379226
2212 0.39396319
2210 0.34324509
2208 0.2431324
2206 0.09146522
2204 0.0036645611
2202 -0.019415772
2200 -0.022970589
2198 -0.01509822
2196 -0.068241499
2194 -0.15700932
2192 -0.24887201
2190 -0.34105855
2188 -0.35950267
2186 -0.35396394
2184 -0.2881912
2182 -0.20891488
2180 -0.15960528
2178 -0.11585148
2176 -0.15258229
2174 -0.20189418
2172 -0.31021577
2170 -0.41940078
2168 -0.50139511
2166 -0.55845308
2164 -0.53420484
2162 -0.50207722
2160 -0.47048777
2158 -0.45098695
2156 -0.45432898
2154 -0.44999379
2152 -0.43112034
2150 -0.43309548
2148 -0.46027336
2146 -0.53794789
2144 -0.65793526
2142 -0.78635007
2140 -0.91757488
2138 -1.0243798
2136 -1.1176744
2134 -1.1590616
2132 -1.1792562
2130 -1.1032172
2128 -0.99711442
2126 -0.85751301
2124 -0.71065897
2122 -0.64215142
2120 -0.59026277
2118 -0.61543614
2116 -0.65501046
2114 -0.72013038
2112 -0.78387946
2110 -0.82518214
2108 -0.84556317
2106 -0.81267715
2104 -0.76225418
2102 -0.69048703
2100 -0.64269716
2098 -0.64044785
2096 -0.67773139
2094 -0.75794482
2092 -0.83991051
2090 -0.91719973
2088 -0.97055912
2086 -1.00476
2084 -0.99427664
2082 -0.95611554
2080 -0.87923813
2078 -0.78390169
2076 -0.73129243
2074 -0.69735217
2072 -0.72245955
2070 -0.76600444
2068 -0.79319566
2066 -0.81632489
2064 -0.85503322
2062 -0.90227193
2060 -1.0063401
2058 -1.119009
2056 -1.2167314
2054 -1.295532
2052 -1.3165269
2050 -1.3128421
2048 -1.2749182
2046 -1.2282286
2044 -1.1773239
2042 -1.1304276
2040 -1.0910486
2038 -1.0630546
2036 -1.0472257
2034 -1.0440497
2032 -1.0508783
2030 -1.067647
2028 -1.0907674
2026 -1.1144485
2024 -1.1378537
2022 -1.115939
2020 -1.0704008
2018 -0.9955557
2016 -0.90971804
2014 -0.89408082
2012 -0.90256518
2010 -0.95841622
2008 -1.0239142
2006 -1.0471314
2004 -1.0573769
2002 -1.0514209
2000 -1.0483537
1998 -1.0757287
1996 -1.1195786
1994 -1.1900468
1992 -1.2693286
1990 -1.3541373
1988 -1.416914
1986 -1.4392657
1984 -1.4215834
1982 -1.3614776
1980 -1.3001946
1978 -1.2483344
1976 -1.1972715
1974 -1.144998
1972 -1.0176681
1970 -0.83302426
1968 -0.61963481
1966 -0.39468542
1964 -0.32644212
1962 -0.3419641
1960 -0.48331958
1958 -0.67508239
1956 -0.82125628
1954 -0.94730872
1952 -1.0012633
1950 -1.0316364
1948 -1.0547298
1946 -1.082325
1944 -1.1466166
1942 -1.2212875
1940 -1.293344
1938 -1.352659
1936 -1.3809886
1934 -1.406141
1932 -1.44317
1930 -1.4901116
1928 -1.54686
1926 -1.5319679
1924 -1.4195951
1922 -1.175648
1920 -0.81730777
1918 -0.51697588
1916 -0.294462
1914 -0.23084502
1912 -0.27507693
1910 -0.35469604
1908 -0.44369641
1906 -0.58645058
1904 -0.75792319
1902 -0.95163149
1900 -1.1542386
1898 -1.2155933
1896 -1.2135286
1894 -1.1093773
1892 -0.9755854
1890 -0.91055912
1888 -0.89692211
1886 -0.99130529
1884 -1.1262126
1882 -1.2618532
1880 -1.3754783
1878 -1.436942
1876 -1.4404501
1874 -1.3698262
1872 -1.1923994
1870 -0.89070058
1868 -0.56798065
1866 -0.26799244
1864 -0.16457446
1862 -0.26230732
1860 -0.48227674
1858 -0.76503885
1856 -0.98261631
1854 -1.1385109
1852 -1.1541909
1850 -1.0834007
1848 -0.92713082
1846 -0.72791898
1844 -0.67328751
1842 -0.70053905
1840 -0.90915072
1838 -1.1948822
1836 -1.4121186
1834 -1.5609699
1832 -1.5156811
1830 -1.342441
1828 -1.0218329
1826 -0.68938071
1824 -0.49771276
1822 -0.47556174
1820 -0.69007838
1818 -0.9921509
1816 -1.2852371
1814 -1.472369
1812 -1.5111374
1810 -1.4471066
1808 -1.318428
1806 -1.1844751
1804 -1.0656143
1802 -0.95084327
1800 -0.83581686
1798 -0.68306339
1796 -0.49995071
1794 -0.31110474
1792 -0.12238544
1790 -0.010548058
1788 0.052089699
1786 0.095037945
1784 0.13218035
1782 0.22110221
1780 0.34692296
1778 0.528355
1776 0.72840202
1774 0.88151598
1772 0.94302511
1770 0.7906996
1768 0.53327256
1766 0.27162477
1764 0.10172918
1762 0.11882064
1760 0.059637658
1758 -0.065801382
1756 -0.096949905
1754 -0.021046501
1752 0.34138247
1750 1.0087795
1748 1.7747608
1746 2.5455821
1744 2.8844919
1742 2.8102307
1740 2.5232415
1738 2.1284318
1736 1.9475601
1734 1.9441814
1732 1.842392
1730 1.647602
1728 1.1630551
1726 0.51071632
1724 0.052004978
1722 -0.1914008
1720 0.10317561
1718 0.89014006
1716 2.1057529
1714 3.4090688
1712 4.3301997
1710 4.9894624
1708 5.5189381
1706 6.2638221
1704 7.5413456
1702 9.6090202
1700 12.568501
1698 16.226164
1696 20.358572
1694 24.118061
1692 27.20233
1690 29.934616
1688 32.501823
1686 35.828236
1684 39.962658
1682 44.723183
1680 49.9226
1678 54.30986
1676 57.964859
1674 61.647484
1672 65.435684
1670 69.832993
1668 74.657722
1666 79.28405
1664 83.698967
1662 87.809425
1660 91.62252
1658 95.133926
1656 98.29097
1654 101.01366
1652 103.1004
1650 104.35163
1648 104.33789
1646 102.77857
1644 100.23041
1642 97.240181
1640 93.983627
1638 90.603683
1636 86.626053
1634 81.923569
1632 77.042976
1630 72.195259
1628 67.72908
1626 63.673851
1624 59.54892
1622 55.289589
1620 51.069344
1618 46.906662
1616 42.940773
1614 39.19635
1612 35.829609
1610 32.867161
1608 30.354469
1606 28.26757
1604 26.455778
1602 24.932333
1600 23.674908
1598 22.70577
1596 22.014999
1594 21.581989
1592 21.341892
1590 21.248711
1588 21.236853
1586 21.332308
1584 21.544281
1582 21.93276
1580 22.519526
1578 23.380602
1576 24.532913
1574 25.906473
1572 27.466606
1570 28.979036
1568 30.390961
1566 31.698114
1564 32.904388
1562 34.337578
1560 36.094162
1558 38.676807
1556 42.062885
1554 45.288128
1552 48.175301
1550 50.220299
1548 51.525116
1546 52.75082
1544 53.857372
1542 54.7976
1540 55.243
1538 54.752789
1536 53.490116
1534 51.803486
1532 50.027599
1530 48.524055
1528 47.216
1526 46.031898
1524 44.750637
1522 43.233597
1520 41.334652
1518 38.96384
1516 36.583588
1514 34.344147
1512 32.268318
1510 30.386311
1508 28.065351
1506 25.153099
1504 22.166138
1502 19.163357
1500 16.714741
1498 14.89658
1496 13.19
1494 11.596707
1492 10.005858
1490 8.4108276
1488 6.7928104
1486 5.1619205
1484 3.54707
1482 2.0781054
1480 0.94614291
1478 0.23472457
1476 0.038440786
1474 0.3833209
1472 1.1819373
1470 2.090621
1468 2.8767867
1466 3.5204856
1464 3.9896359
1462 4.5165825
1460 5.2209144
1458 6.0237246
1456 6.9301801
1454 7.5444984
1452 7.6799178
1450 7.5491271
1448 7.0564737
1446 6.5486712
1444 6.0287452
1442 5.5585489
1440 5.1628852
1438 4.8389597
1436 4.5967569
1434 4.373045
1432 4.1649256
1430 3.949456
1428 3.7460361
1426 3.5969543
1424 3.5257239
1422 3.5571172
1420 3.6743383
1418 3.8470325
1416 4.0255685
1414 4.1547337
1412 4.2650642
1410 4.3801455
1408 4.5391383
1406 4.7832265
1404 5.090075
1402 5.4786582
1400 5.8849883
1398 6.3009114
1396 6.6232572
1394 6.766489
1392 6.7691984
1390 6.5371795
1388 6.2401671
1386 5.84515
1384 5.4216619
1382 4.9649792
1380 4.519433
1378 4.0940576
1376 3.6979971
1374 3.3343759
1372 2.982682
1370 2.6532357
1368 2.36182
1366 2.1003628
1364 1.8507689
1362 1.584816
1360 1.2574126
1358 0.90450984
1356 0.55915302
1354 0.26841891
1352 0.10171235
1350 0.013655169
1348 0.013361784
1346 0.034144592
1344 0.12498216
1342 0.26340106
1340 0.48773009
1338 0.68031865
1336 0.79351485
1334 0.80262601
1332 0.62881601
1330 0.45447981
1328 0.29591772
1326 0.22646922
1324 0.29626578
1322 0.4653708
1320 0.75732523
1318 1.0931793
1316 1.45346
1314 1.7518846
1312 1.9682376
1310 2.0792947
1308 2.0921497
1306 2.0187278
1304 1.8839365
1302 1.70557
1300 1.5233955
1298 1.3824319
1296 1.2841715
1294 1.266299
1292 1.2740694
1290 1.3008304
1288 1.322184
1286 1.3220378
1284 1.3275574
1282 1.3524785
1280 1.4013206
1278 1.505151
1276 1.6372329
1274 1.823154
1272 2.0187223
1270 2.2282047
1268 2.4301438
1266 2.627017
1264 2.8470101
1262 3.104511
1260 3.412426
1258 3.7736897
1256 4.1609368
1254 4.5677223
1252 4.9732876
1250 5.37252
1248 5.7520037
1246 6.1068501
1244 6.4106674
1242 6.6784806
1240 6.8899336
1238 7.0660195
1236 7.1767187
1234 7.2400837
1232 7.188828
1230 7.0842962
1228 6.8438563
1226 6.5596914
1224 6.1590257
1222 5.727107
1220 5.2214866
1218 4.7054129
1216 4.1717029
1214 3.6532643
1212 3.1656301
1210 2.7147231
1208 2.3165348
1206 1.9416115
1204 1.589182
1202 1.224892
1200 0.84398293
1198 0.43511769
1196 0.0056660771
1194 -0.42676964
1192 -0.84776253
1190 -1.213378
1188 -1.5370028
1186 -1.7873592
1184 -1.996044
1182 -2.1323347
1180 -2.2228286
1178 -2.1937349
1176 -2.1216998
1174 -1.9418664
1172 -1.7524786
1170 -1.550033
1168 -1.3443314
1166 -1.1273495
1164 -0.89297086
1162 -0.61727142
1160 -0.34545571
1158 -0.086789913
1156 0.133387
1154 0.28321552
1152 0.37022483
1150 0.36785156
1148 0.30925819
1146 0.19490393
1144 0.091654286
1142 0.0094383014
1140 -0.0080888905
1138 0.035378456
1136 0.17648914
1134 0.37780091
1132 0.67241001
1130 1.0071952
1128 1.3655188
1126 1.7148364
1124 1.9833634
1122 2.2206981
1120 2.3688321
1118 2.5081816
1116 2.644747
1114 2.7966342
1112 3.0130818
1110 3.2391078
1108 3.4939089
1106 3.7356448
1104 3.9438469
1102 4.1367168
1100 4.3020439
1098 4.4803972
1096 4.6875429
1094 4.963686
1092 5.33812
1090 5.8224401
1088 6.4188342
1086 7.0625534
1084 7.7327085
1082 8.336544
1080 8.8798075
1078 9.2708416
1076 9.5590658
1074 9.6006804
1072 9.5330076
1070 9.257268
1068 8.9453087
1066 8.7036076
1064 8.5089083
1062 8.5944538
1060 8.7152576
1058 8.9737406
1056 9.2121792
1054 9.3611212
1052 9.4835567
1050 9.5236568
1048 9.5757074
1046 9.6613207
1044 9.8056402
1042 10.062807
1040 10.376526
1038 10.764384
1036 11.0958
1034 11.347646
1032 11.44024
1030 11.376857
1028 11.166677
1026 10.847765
1024 10.442858
1022 9.989954
1020 9.4998798
1018 8.9946556
1016 8.4782114
1014 7.9627662
1012 7.4915133
1010 7.0293941
1008 6.5867801
1006 6.1388001
1004 5.607676
1002 5.0805459
1000 4.5870519
998 4.1276631
996 3.8181214
994 3.520637
992 3.2590401
990 2.9800611
988 2.6619995
986 2.3565493
984 2.0751543
982 1.8279853
980 1.6255859
978 1.4133502
976 1.1911063
974 0.97296917
972 0.76502365
970 0.68251276
968 0.68305695
966 0.81763649
964 1.0115738
962 1.1833739
960 1.3373549
958 1.2664212
956 1.1361711
954 0.75439405
952 0.34793821
950 0.076697543
948 -0.16433209
946 -0.054027002
944 0.0027394965
942 0.085286885
940 0.2495738
938 0.43464649
936 0.66584516
934 1.032021
932 1.4008377
930 1.7728826
928 2.0524218
926 2.1835995
924 2.2758
922 2.322721
920 2.4761252
918 2.7291696
916 3.0520229
914 3.4230788
912 3.7160835
910 3.9683981
908 4.2579083
906 4.5626063
904 4.9830809
902 5.4333606
900 5.7270684
898 5.9956818
896 6.1928
