##TITLE=Methyl Ethyl Ketone
##JCAMP-DX=4.24
##DATA TYPE=INFRARED SPECTRUM
##XUNITS=cm-1
##YUNITS=Absorbance
##FIRSTX=900
##LASTX=2300
##XYDATA=(X++(Y..Y))
2296 0.028599
2294 0.02919315
2292 0.029788297
2290 0.030383447
2288 0.030978596
2286 0.031573743
2284 0.0321679
2282 0.032763038
2280 0.03335819
2278 0.033953339
2276 0.034548484
2274 0.035142649
2272 0.035737783
2270 0.036332931
2268 0.03692808
2266 0.037523229
2264 0.038117398
2262 0.038712528
2260 0.039307673
2258 0.039902821
2256 0.04049797
2254 0.04109215
2252 0.041687269
2250 0.042282417
2248 0.042877566
2246 0.043472715
2244 0.0016154915
2242 0.01821138
2240 0.074421361
2238 0.21576133
2236 0.36945713
2234 0.51235485
2232 0.65167832
2230 0.72899973
2228 0.79717863
2226 0.81614548
2224 0.8247388
2222 0.79742765
2220 0.76859617
2218 0.74105269
2216 0.7169857
2214 0.70035005
2212 0.66893458
2210 0.61266547
2208 0.54781145
2206 0.47416708
2204 0.44969526
2202 0.47316131
2200 0.56096745
2198 0.69450539
2196 0.80587
2194 0.90271497
2192 0.93788874
2190 0.94644433
2188 0.96684754
2186 0.99166548
2184 1.0356472
2182 1.0839427
2180 1.11037
2178 1.1335529
2176 1.1652143
2174 1.1974852
2172 1.2280986
2170 1.252731
2168 1.2446332
2166 1.2320794
2164 1.2145972
2162 1.2052135
2160 1.217672
2158 1.2455119
2156 1.29817
2154 1.362197
2152 1.4389566
2150 1.5113124
2148 1.5771968
2146 1.632225
2144 1.6783817
2142 1.714895
2140 1.7453682
2138 1.7640476
2136 1.77654
2134 1.7758662
2132 1.7698613
2130 1.7430978
2128 1.709944
2126 1.6894706
2124 1.6721131
2122 1.727797
2120 1.7963257
2118 1.8860884
2116 1.9703157
2114 1.9900481
2112 1.9930502
2110 1.9632968
2108 1.9380095
2106 1.94085
2104 1.9519818
2102 1.9723791
2100 1.983398
2098 1.9762861
2096 1.9713
2094 1.9725826
2092 2.0018601
2090 2.0590801
2088 2.1344261
2086 2.221395
2084 2.2853596
2082 2.3329451
2080 2.3270452
2078 2.294137
2076 2.2282357
2074 2.1500223
2072 2.0826321
2070 2.0191183
2068 1.9779257
2066 1.9429007
2064 1.94012
2062 1.9456972
2060 1.9713935
2058 1.9979799
2056 2.0072887
2054 2.0126011
2052 2.0160596
2050 2.0239363
2048 2.045084
2046 2.062607
2044 2.0684519
2042 2.0695093
2040 2.0661678
2038 2.0702941
2036 2.0836957
2034 2.092515
2032 2.0953605
2030 2.0895441
2028 2.0781546
2026 2.0705535
2024 2.0662384
2022 2.0504599
2020 2.0286553
2018 1.9843689
2016 1.93066
2014 1.878334
2012 1.8263688
2010 1.7987717
2008 1.778832
2006 1.78035
2004 1.7852824
2002 1.776957
2000 1.7580978
1998 1.7103285
1996 1.6524786
1994 1.5874312
1992 1.524228
1990 1.4670181
1988 1.4150981
1986 1.367385
1984 1.3206297
1982 1.2738966
1980 1.2400166
1978 1.2217617
1976 1.2384572
1974 1.284979
1972 1.35359
1970 1.43504
1968 1.4936514
1966 1.5362478
1964 1.5190762
1962 1.4709773
1960 1.3863
1958 1.2871877
1956 1.2050543
1954 1.130426
1952 1.0970634
1950 1.0774946
1948 1.0723994
1946 1.066075
1944 1.0269457
1942 0.97537214
1940 0.90837145
1938 0.84635788
1936 0.80808371
1934 0.78402257
1932 0.77696002
1930 0.76663917
1928 0.74590611
1926 0.70898241
1924 0.65632534
1922 0.62162942
1920 0.60932076
1918 0.63663733
1916 0.69217432
1914 0.74143779
1912 0.7814213
1910 0.77872074
1908 0.75043845
1906 0.67820746
1904 0.58364636
1902 0.50283206
1900 0.42888466
1898 0.43608895
1896 0.47659287
1894 0.54088181
1892 0.60317057
1890 0.58572739
1888 0.52312529
1886 0.39346042
1884 0.24569319
1882 0.11802595
1880 0.012280792
1878 -0.057271324
1876 -0.1143797
1874 -0.16726001
1872 -0.21177965
1870 -0.24320038
1868 -0.24467544
1866 -0.21909514
1864 -0.19633389
1862 -0.1894908
1860 -0.21009538
1858 -0.24975374
1856 -0.28052059
1854 -0.29887798
1852 -0.30726355
1850 -0.30848435
1848 -0.348308
1846 -0.40877715
1844 -0.49783942
1842 -0.59661323
1840 -0.64505434
1838 -0.66661656
1836 -0.64777017
1834 -0.61240584
1832 -0.57417661
1830 -0.53342378
1828 -0.49246237
1826 -0.45036843
1824 -0.41596857
1822 -0.39983037
1820 -0.4150126
1818 -0.45057821
1816 -0.49477285
1814 -0.53261149
1812 -0.55421835
1810 -0.55744171
1808 -0.5462324
1806 -0.517115
1804 -0.47431764
1802 -0.44987658
1800 -0.44334725
1798 -0.47754261
1796 -0.54053926
1794 -0.57255751
1792 -0.58190358
1790 -0.52544332
1788 -0.43266848
1786 -0.33664909
1784 -0.2444832
1782 -0.18354268
1780 -0.14397603
1778 -0.1214936
1776 -0.10620314
1774 -0.081754796
1772 -0.051040016
1770 -0.028182924
1768 -0.011968787
1766 -0.0096037276
1764 -0.01222378
1762 -0.0047884542
1760 0.0071915654
1758 -0.059236031
1756 -0.157488
1754 -0.22980163
1752 -0.23593725
1750 -0.1690442
1748 -0.079770476
1746 0.0072003566
1744 0.015249421
1742 -0.056792878
1740 -0.12795943
1738 -0.18241058
1736 -0.1059348
1734 0.072972603
1732 0.23289877
1730 0.3634994
1728 0.31374532
1726 0.14384574
1724 0.0025970265
1722 -0.086316653
1720 -0.013090741
1718 0.19091372
1716 0.61620688
1714 1.1746867
1712 1.6935811
1710 2.1667175
1708 2.595788
1706 3.1445129
1704 3.9723914
1702 5.3486419
1700 7.4084301
1698 10.347515
1696 14.122285
1694 17.98455
1692 21.586782
1690 24.801489
1688 27.680828
1686 31.130186
1684 35.238953
1682 40.262947
1680 46.012642
1678 51.026073
1676 55.335003
1674 59.331047
1672 63.170727
1670 67.68145
1668 72.697929
1666 77.705299
1664 82.585106
1662 86.953079
1660 90.798141
1658 94.061241
1656 96.721428
1654 98.759933
1652 100.10963
1650 100.72387
1648 100.48086
1646 99.334641
1644 97.644554
1642 95.763466
1640 93.573761
1638 91.060219
1636 87.735497
1634 83.495171
1632 78.905235
1630 74.206078
1628 69.723442
1626 65.508469
1624 61.19136
1622 56.730873
1620 52.337288
1618 48.032009
1616 43.978172
1614 40.201042
1612 36.87273
1610 34.005081
1608 31.574594
1606 29.555014
1604 27.791477
1602 26.301973
1600 25.074989
1598 24.117765
1596 23.399
1594 22.897612
1592 22.554239
1590 22.354601
1588 22.263241
1586 22.2696
1584 22.358446
1582 22.514589
1580 22.725348
1578 23.061752
1576 23.547943
1574 24.241329
1572 25.145819
1570 26.159239
1568 27.25396
1566 28.343857
1564 29.422792
1562 30.671602
1560 32.18528
1558 34.599304
1556 37.986385
1554 41.76862
1552 45.721268
1550 48.826603
1548 51.097424
1546 52.998928
1544 54.556881
1542 55.943707
1540 57.080959
1538 57.862049
1536 58.162914
1534 57.903332
1532 57.170422
1530 56.132347
1528 54.8097
1526 53.231949
1524 51.350021
1522 49.123158
1520 46.694416
1518 44.103088
1516 41.684299
1514 39.567505
1512 37.517838
1510 35.511978
1508 33.017559
1506 29.88965
1504 26.801167
1502 23.820118
1500 21.331577
1498 19.37475
1496 17.369572
1494 15.291031
1492 13.096006
1490 10.800222
1488 8.5085278
1486 6.3023028
1484 4.3301563
1482 2.6808219
1480 1.4380791
1478 0.61082554
1476 0.15126072
1474 0.20524779
1472 0.82239902
1470 1.64399
1468 2.519062
1466 3.2880487
1464 3.8494942
1462 4.3145185
1460 4.7155704
1458 5.1062694
1456 5.4952397
1454 5.8375859
1452 6.0951405
1450 6.2562203
1448 6.2724686
1446 6.2310929
1444 6.1095877
1442 5.952167
1440 5.739171
1438 5.4497476
1436 5.0563154
1434 4.5514164
1432 3.9497399
1430 3.3633189
1428 2.826118
1426 2.4099791
1424 2.1188281
1422 1.9343796
1420 1.8517194
1418 1.8478992
1416 1.9199457
1414 2.0680141
1412 2.2656574
1410 2.5165372
1408 2.7952313
1406 3.1003871
1404 3.4266582
1402 3.7749794
1400 4.1362238
1398 4.5117798
1396 4.8957787
1394 5.2877426
1392 5.6540775
1390 5.9566002
1388 6.152771
1386 6.1709499
1384 6.052907
1382 5.7467589
1380 5.3632698
1378 4.8938217
1376 4.4120059
1374 3.9381912
1372 3.5125439
1370 3.1413567
1368 2.8173742
1366 2.4960771
1364 2.1032879
1362 1.6500365
1360 1.1413267
1358 0.66194272
1356 0.31726387
1354 0.086663917
1352 0.01705808
1350 0.02927684
1348 0.12125559
1346 0.24482608
1344 0.42987162
1342 0.64237779
1340 0.90186226
1338 1.1589396
1336 1.4024487
1334 1.6203638
1332 1.7804369
1330 1.933413
1328 2.0805085
1326 2.2609272
1324 2.5008888
1322 2.7879179
1320 3.1354053
1318 3.4961057
1316 3.8614399
1314 4.192461
1312 4.478931
1310 4.7192168
1308 4.9127688
1306 5.0686235
1304 5.1889548
1302 5.2666187
1300 5.3127127
1298 5.3172464
1296 5.3060145
1294 5.2848749
1292 5.2677951
1290 5.2656689
1288 5.2680879
1286 5.275568
1284 5.2872982
1282 5.3083792
1280 5.3424878
1278 5.4052176
1276 5.4749441
1274 5.5587511
1272 5.6376252
1270 5.7107291
1268 5.7856741
1266 5.8649573
1264 5.95751
1262 6.0646491
1260 6.1780181
1258 6.2984662
1256 6.4240255
1254 6.5581455
1252 6.7095199
1250 6.8701239
1248 7.026547
1246 7.1668997
1244 7.2570477
1242 7.3145833
1240 7.3247137
1238 7.3148494
1236 7.2830329
1234 7.2281046
1232 7.1119757
1230 6.9536939
1228 6.6788359
1226 6.3661036
1224 5.9530358
1222 5.5157523
1220 5.0208712
1218 4.5174389
1216 3.9987857
1214 3.4884284
1212 2.9956279
1210 2.5263939
1208 2.0976269
1206 1.71796
1204 1.400882
1202 1.1311264
1200 0.90810812
1198 0.70683026
1196 0.52908289
1194 0.38501945
1192 0.27078012
1190 0.20163229
1188 0.15714249
1186 0.13257693
1184 0.12220177
1182 0.14315549
1180 0.19318621
1178 0.33334801
1176 0.50929797
1174 0.7808032
1172 1.0624837
1170 1.360229
1168 1.6344206
1166 1.8323828
1164 1.9855248
1162 2.0261629
1160 2.0252256
1158 1.9393259
1156 1.8197014
1154 1.6425982
1152 1.4343879
1150 1.1864412
1148 0.9355408
1146 0.68703568
1144 0.46960253
1142 0.28523088
1140 0.1422478
1138 0.032724444
1136 -0.044195458
1134 -0.096973762
1132 -0.081315011
1130 -0.024312161
1128 0.11283344
1126 0.2767075
1124 0.46669248
1122 0.645751
1120 0.74261999
1118 0.81371993
1116 0.78767467
1114 0.75870764
1112 0.72550178
1110 0.70955551
1108 0.74840194
1106 0.796206
1104 0.86245501
1102 0.90233266
1100 0.88945973
1098 0.85687792
1096 0.79689145
1094 0.75471824
1092 0.73485798
1090 0.72158027
1088 0.71539259
1086 0.71544093
1084 0.72180527
1082 0.73882616
1080 0.75343269
1078 0.70518804
1076 0.6212908
1074 0.48333716
1072 0.33673149
1070 0.25519818
1068 0.19311157
1066 0.16917314
1064 0.14440769
1062 0.077601865
1060 0.01161438
1058 -0.035725731
1056 -0.074742772
1054 -0.078520596
1052 -0.09412808
1050 -0.1486979
1048 -0.22471136
1046 -0.35125214
1044 -0.47266287
1042 -0.58199561
1040 -0.66049576
1038 -0.69347268
1036 -0.71082401
1034 -0.71266264
1032 -0.73664534
1030 -0.78238696
1028 -0.85364312
1026 -0.94024044
1024 -1.0065109
1022 -1.0593879
1020 -1.0814123
1018 -1.0947651
1016 -1.1410228
1014 -1.1993819
1012 -1.2945018
1010 -1.3904071
1008 -1.425608
1006 -1.450935
1004 -1.4212174
1002 -1.4013236
1000 -1.4521674
998 -1.5108902
996 -1.6017643
994 -1.655593
992 -1.5934051
990 -1.4959552
988 -1.320662
986 -1.1832392
984 -1.1131245
982 -1.0801952
980 -1.0928019
978 -1.0457449
976 -0.93360001
974 -0.75577176
972 -0.53035748
970 -0.38607001
968 -0.29816222
966 -0.35165799
964 -0.4673155
962 -0.55247498
960 -0.62127835
958 -0.54885715
956 -0.44590086
954 -0.33122557
952 -0.21792321
950 -0.17038147
948 -0.12290537
946 -0.039908893
944 0.0016322732
942 0.050946027
940 0.15339132
938 0.28693998
936 0.43389112
934 0.62012959
932 0.80314547
930 0.97760826
928 1.0826766
926 1.0758121
924 1.0001158
922 0.84109348
920 0.67993814
918 0.51717383
916 0.38235143
914 0.26844802
912 0.2572768
910 0.30176449
908 0.45335951
906 0.64606446
904 0.75141525
902 0.83371866
900 0.74244952
898 0.62335557
896 0.43155
