##TITLE=Methyl Ethyl Ketone
##JCAMP-DX=4.24
##DATA TYPE=INFRARED SPECTRUM
##XUNITS=cm-1
##YUNITS=Absorbance
##FIRSTX=900
##LASTX=2300
##XYDATA=(X++(Y..Y))
2296 0.16212
2294 0.16549517
2292 0.16887034
2290 0.17224552
2288 0.17561075
2286 0.17898586
2284 0.18236104
2282 0.18573621
2280 0.18910149
2278 0.19247654
2276 0.19585171
2274 0.19922689
2272 0.20259222
2270 0.20595741
2268 0.2093422
2266 0.21274692
2264 0.21608366
2262 0.21934083
2260 0.22283
2258 0.2266655
2256 0.22959685
2254 0.2312417
2252 0.23626846
2250 0.24605307
2248 0.24329938
2246 0.20719323
2244 0.12378605
2242 -0.0035985908
2240 -0.10973528
2238 -0.13064831
2236 -0.077700123
2234 0.014260118
2232 0.10263526
2230 0.14961527
2228 0.1448136
2226 0.087644301
2224 -0.014989635
2222 -0.14714624
2220 -0.26478344
2218 -0.32371727
2216 -0.31274316
2214 -0.23766777
2212 -0.13280839
2210 -0.035811577
2208 0.036522068
2206 0.075651698
2204 0.080343552
2202 0.05379457
2200 0.0085221035
2198 -0.03929507
2196 -0.070171282
2194 -0.068037979
2192 -0.034735613
2190 0.017358361
2188 0.055961695
2186 0.048604637
2184 -0.012644
2182 -0.12010895
2180 -0.23504497
2178 -0.31749171
2176 -0.36289257
2174 -0.38155475
2172 -0.3963789
2170 -0.4255169
2168 -0.45176566
2166 -0.45146298
2164 -0.42294076
2162 -0.37664855
2160 -0.34138089
2158 -0.34413761
2156 -0.37995398
2154 -0.43204141
2152 -0.48038137
2150 -0.50828403
2148 -0.51599485
2146 -0.51031321
2144 -0.50054765
2142 -0.49473301
2140 -0.49264833
2138 -0.4932673
2136 -0.50417572
2134 -0.53466296
2132 -0.58785701
2130 -0.65952998
2128 -0.72466278
2126 -0.75659853
2124 -0.75261712
2122 -0.72164059
2120 -0.68358135
2118 -0.65780634
2116 -0.64588016
2114 -0.64262122
2112 -0.64271218
2110 -0.64225841
2108 -0.64262152
2106 -0.64713246
2104 -0.65923697
2102 -0.68174148
2100 -0.7148518
2098 -0.75705642
2096 -0.8037957
2094 -0.85059887
2092 -0.89810795
2090 -0.94995439
2088 -1.0136389
2086 -1.0937799
2084 -1.1771406
2082 -1.2447796
2080 -1.2830315
2078 -1.2860893
2076 -1.2690114
2074 -1.2517639
2072 -1.240952
2070 -1.2355425
2068 -1.2265123
2066 -1.2060964
2064 -1.1836286
2062 -1.1742365
2060 -1.1866523
2058 -1.223596
2056 -1.2742658
2054 -1.3240782
2052 -1.3658763
2050 -1.39598
2048 -1.4121732
2046 -1.4132857
2044 -1.4010279
2042 -1.3794092
2040 -1.3555886
2038 -1.3370066
2036 -1.3254129
2034 -1.3195982
2032 -1.3150486
2030 -1.305128
2028 -1.2797132
2026 -1.2298878
2024 -1.156696
2022 -1.0701795
2020 -0.99877572
2018 -0.97590083
2016 -1.021824
2014 -1.1405092
2012 -1.2931094
2010 -1.4275084
2008 -1.5154365
2006 -1.5490807
2004 -1.5567074
2002 -1.5755119
2000 -1.6134989
1998 -1.6610487
1996 -1.6948357
1994 -1.6921808
1992 -1.6565069
1990 -1.6044776
1988 -1.553422
1986 -1.5180308
1984 -1.503251
1982 -1.5087572
1980 -1.5311314
1978 -1.5628908
1976 -1.5843858
1974 -1.5731771
1972 -1.5188735
1970 -1.4242706
1968 -1.3213845
1966 -1.2513665
1964 -1.2351403
1962 -1.2750841
1960 -1.340544
1958 -1.3896668
1956 -1.4006814
1954 -1.3680264
1952 -1.3086731
1950 -1.2504895
1948 -1.2227737
1946 -1.24955
1944 -1.3336594
1942 -1.4620287
1940 -1.5997849
1938 -1.7070701
1936 -1.76726
1934 -1.7796483
1932 -1.75528
1930 -1.7071126
1928 -1.6321383
1926 -1.52079
1924 -1.3720689
1922 -1.1977658
1920 -1.0414948
1918 -0.95413828
1916 -0.94547874
1914 -0.99563348
1912 -1.059428
1910 -1.0898647
1908 -1.0834512
1906 -1.0611365
1904 -1.039656
1902 -1.0267425
1900 -1.0112783
1898 -0.97522366
1896 -0.9157443
1894 -0.84105188
1892 -0.76666129
1890 -0.70986152
1888 -0.68113112
1886 -0.68401074
1884 -0.70993882
1882 -0.74437892
1880 -0.77557296
1878 -0.79467416
1876 -0.79586303
1874 -0.77512962
1872 -0.72949678
1870 -0.66069704
1868 -0.58921498
1866 -0.5431211
1864 -0.53490186
1862 -0.56269503
1860 -0.60727519
1858 -0.64237255
1856 -0.65215117
1854 -0.62820733
1852 -0.5627287
1850 -0.45384103
1848 -0.32791439
1846 -0.22750179
1844 -0.18945111
1842 -0.23433717
1840 -0.33402085
1838 -0.43405643
1836 -0.49596384
1834 -0.49933439
1832 -0.44531605
1830 -0.35098639
1828 -0.25016728
1826 -0.18258736
1824 -0.17269634
1822 -0.22657061
1820 -0.3166256
1818 -0.3976818
1816 -0.43801171
1814 -0.42357311
1812 -0.36997694
1810 -0.30656454
1808 -0.24241303
1806 -0.1689745
1804 -0.068208411
1802 0.075901076
1800 0.24986155
1798 0.41684067
1796 0.52632284
1794 0.53103763
1792 0.429322
1790 0.25875407
1788 0.090410292
1786 0.00013006479
1784 -0.0012993524
1782 0.054006323
1780 0.15384141
1778 0.30129141
1776 0.47888428
1774 0.6460979
1772 0.73422873
1770 0.67612171
1768 0.49272776
1766 0.27051634
1764 0.099086918
1762 0.035238635
1760 0.013806542
1758 -0.087290496
1756 -0.25185585
1754 -0.36259869
1752 -0.35197079
1750 -0.21780089
1748 -0.021959096
1746 0.14031124
1744 0.20440291
1742 0.15065046
1740 0.036843549
1738 -0.040285561
1736 -0.052797999
1734 -0.037591718
1732 -0.057693101
1730 -0.17010486
1728 -0.35125491
1726 -0.51286077
1724 -0.55826849
1722 -0.3988921
1720 0.029070511
1718 0.74640095
1716 1.6599571
1714 2.5981832
1712 3.4239457
1710 4.0723748
1708 4.630486
1706 5.3019724
1704 6.3036175
1702 7.828723
1700 9.993063
1698 12.795671
1696 15.973858
1694 19.09939
1692 21.920223
1690 24.41486
1688 26.827827
1686 29.562029
1684 32.870094
1682 36.767242
1680 40.8736
1678 44.608128
1676 47.859459
1674 50.961941
1672 54.27459
1670 58.037193
1668 62.173779
1666 66.375504
1664 70.441902
1662 74.313843
1660 77.959373
1658 81.356522
1656 84.54174
1654 87.59053
1652 90.515564
1650 93.223595
1648 95.407639
1646 96.657288
1644 96.914581
1642 96.446152
1640 95.446342
1638 93.963707
1636 91.939529
1634 89.278526
1632 86.061119
1630 82.520508
1628 78.80851
1626 74.962128
1624 70.97364
1622 66.827965
1620 62.573456
1618 58.32156
1616 54.182915
1614 50.254528
1612 46.635082
1610 43.409801
1608 40.585846
1606 38.097244
1604 35.882034
1602 33.904995
1600 32.158337
1598 30.654026
1596 29.387501
1594 28.328381
1592 27.430376
1590 26.644674
1588 25.962564
1586 25.416836
1584 25.052719
1582 24.920509
1580 25.072435
1578 25.553514
1576 26.354885
1574 27.400476
1572 28.543905
1570 29.60006
1568 30.48596
1566 31.240393
1564 31.940569
1562 32.702698
1560 33.77607
1558 35.478672
1556 37.792728
1554 40.321991
1552 42.642342
1550 44.444897
1548 45.75079
1546 46.888393
1544 48.063671
1542 49.252796
1540 50.286499
1538 50.912621
1536 51.005772
1534 50.622105
1532 49.937382
1530 49.193924
1528 48.497673
1526 47.77425
1524 46.881935
1522 45.660194
1520 44.036995
1518 42.069672
1516 39.944931
1514 37.928024
1512 36.064838
1510 34.128471
1508 31.879513
1506 29.184364
1504 26.18964
1502 23.310078
1500 20.798008
1498 18.62813
1496 16.665714
1494 14.731966
1492 12.721751
1490 10.633865
1488 8.4982424
1486 6.367713
1484 4.350914
1482 2.6121645
1480 1.2758901
1478 0.40683165
1476 0.086894542
1474 0.39590114
1472 1.2061691
1470 2.156878
1468 3.0067172
1466 3.739465
1464 4.4210153
1462 5.1407104
1460 5.8850956
1458 6.5032659
1456 6.8334599
1454 6.769021
1452 6.3748398
1450 5.9024258
1448 5.507473
1446 5.1676178
1444 4.8437996
1442 4.5262942
1440 4.2124324
1438 3.8973367
1436 3.5566115
1434 3.1474612
1432 2.6631222
1430 2.1528652
1428 1.6813539
1426 1.3131428
1424 1.0874006
1422 1.0058786
1420 1.0508826
1418 1.188499
1416 1.3811285
1414 1.593917
1412 1.8104386
1410 2.0403969
1408 2.3024521
1406 2.6177592
1404 2.9975903
1402 3.4346681
1400 3.8990521
1398 4.3349981
1396 4.6866856
1394 4.9125319
1392 5.0050211
1390 5.0006394
1388 4.9341841
1386 4.8229799
1384 4.6766095
1382 4.4993987
1380 4.3001022
1378 4.0940905
1376 3.8871486
1374 3.6692348
1372 3.433928
1370 3.1846194
1368 2.9218531
1366 2.6371393
1364 2.3120186
1362 1.9216105
1360 1.4722216
1358 1.019886
1356 0.62428546
1354 0.32790601
1352 0.13780183
1350 0.014681015
1348 -0.07080251
1346 -0.11494036
1344 -0.10239032
1342 -0.01622951
1340 0.13016814
1338 0.27648658
1336 0.36738828
1334 0.37812537
1332 0.32256341
1330 0.26308781
1328 0.25203794
1326 0.30602229
1324 0.42679536
1322 0.60416085
1320 0.82142305
1318 1.0551097
1316 1.27792
1314 1.4607464
1312 1.5870268
1310 1.6630802
1308 1.7019917
1306 1.7194992
1304 1.7279571
1302 1.7328631
1300 1.7401246
1298 1.7586153
1296 1.7943001
1294 1.8467383
1292 1.9117283
1290 1.981503
1288 2.049752
1286 2.1147778
1284 2.1789241
1282 2.2494192
1280 2.3335235
1278 2.4351878
1276 2.5529742
1274 2.677731
1272 2.8042755
1270 2.9389632
1268 3.0956104
1266 3.2962179
1264 3.556324
1262 3.8758588
1260 4.2494183
1258 4.6685276
1256 5.1286745
1254 5.6336694
1252 6.1860166
1250 6.7824163
1248 7.4152846
1246 8.0713005
1244 8.7320452
1242 9.3717852
1240 9.9613628
1238 10.469776
1236 10.877628
1234 11.187184
1232 11.40912
1230 11.555187
1228 11.628371
1226 11.61455
1224 11.498377
1222 11.27428
1220 10.94566
1218 10.53044
1216 10.047183
1214 9.5159178
1212 8.9546852
1210 8.3823328
1208 7.81567
1206 7.2661123
1204 6.7347841
1202 6.20435
1200 5.65453
1198 5.069222
1196 4.4459715
1194 3.808764
1192 3.1898584
1190 2.62415
1188 2.1374958
1186 1.7345614
1184 1.4107012
1182 1.1535037
1180 0.9539628
1178 0.81479406
1176 0.73956603
1174 0.72665775
1172 0.76388842
1170 0.81900769
1168 0.8585273
1166 0.85805744
1164 0.80609292
1162 0.71523535
1160 0.60438168
1158 0.49319521
1156 0.39619771
1154 0.31555244
1152 0.24723896
1150 0.1802884
1148 0.10632518
1146 0.027729031
1144 -0.042172063
1142 -0.071602181
1140 -0.034129545
1138 0.073958501
1136 0.25161028
1134 0.49884591
1132 0.81214482
1130 1.179075
1128 1.5860875
1126 2.0214944
1124 2.470062
1122 2.9078314
1120 3.316776
1118 3.6990101
1116 4.0617399
1114 4.4132729
1112 4.7601666
1110 5.1040149
1108 5.4474545
1106 5.7986803
1104 6.1624455
1102 6.5326076
1100 6.9054356
1098 7.2908521
1096 7.7021856
1094 8.1520042
1092 8.6400757
1090 9.1338978
1088 9.5953598
1086 9.9929838
1084 10.309914
1082 10.564095
1080 10.779234
1078 10.96901
1076 11.143057
1074 11.295402
1072 11.42296
1070 11.542785
1068 11.671937
1066 11.820279
1064 11.98632
1062 12.142585
1060 12.257794
1058 12.305066
1056 12.257971
1054 12.094288
1052 11.798869
1050 11.37259
1048 10.83616
1046 10.249857
1044 9.6758347
1042 9.1526451
1040 8.6965046
1038 8.2754307
1036 7.8559799
1034 7.4335623
1032 7.0146194
1030 6.6156893
1028 6.24299
1026 5.8659515
1024 5.4564376
1022 5.0217447
1020 4.5873632
1018 4.2078505
1016 3.9276173
1014 3.7377019
1012 3.6101193
1010 3.4968803
1008 3.3486559
1006 3.1269464
1004 2.808598
1002 2.4114571
1000 1.9715543
998 1.5514232
996 1.2035364
994 0.93000591
992 0.7130295
990 0.51333207
988 0.30125725
986 0.095425352
984 -0.070590146
982 -0.15397248
980 -0.12425892
978 0.00097368658
976 0.19020087
974 0.40539956
972 0.61533082
970 0.81661463
968 1.0114223
966 1.19748
964 1.3670669
962 1.4992168
960 1.569948
958 1.558012
956 1.4512343
954 1.2681264
952 1.0337608
950 0.77049363
948 0.50462735
946 0.27935502
944 0.12284852
942 -0.0042579621
940 -0.13170359
938 -0.1951801
936 -0.13800797
934 -0.01597134
932 0.091180131
930 0.11862829
928 0.023345202
926 -0.17079744
924 -0.42104059
922 -0.67657083
920 -0.8983162
918 -1.0990068
916 -1.2961915
914 -1.4767768
912 -1.6137005
910 -1.6560429
908 -1.5593148
906 -1.3272412
904 -0.98316199
902 -0.5815832
900 -0.17932725
898 0.18852457
896 0.49228999
