##TITLE=Methyl Ethyl Ketone
##JCAMP-DX=4.24
##DATA TYPE=INFRARED SPECTRUM
##XUNITS=cm-1
##YUNITS=Absorbance
##FIRSTX=900
##LASTX=2300
##XYDATA=(X++(Y..Y))
2296 0.21665999
2294 0.22117355
2292 0.22567712
2290 0.23018067
2288 0.23469418
2286 0.23919779
2284 0.24370135
2282 0.24821481
2280 0.25271848
2278 0.257222
2276 0.26173541
2274 0.26624897
2272 0.2707527
2270 0.27523661
2268 0.27976918
2266 0.28435165
2264 0.28877872
2262 0.29297799
2260 0.29778582
2258 0.30343583
2256 0.30684426
2254 0.3070952
2252 0.31569123
2250 0.33601886
2248 0.3253915
2246 0.24460715
2244 0.12011743
2242 -0.0048713456
2240 -0.093864068
2238 -0.12481394
2236 -0.12560757
2234 -0.13052149
2232 -0.14239228
2230 -0.15517516
2228 -0.16394326
2226 -0.16465451
2224 -0.15499456
2222 -0.13226897
2220 -0.090203516
2218 -0.023583416
2216 0.064078972
2214 0.1626628
2212 0.2458514
2210 0.28837979
2208 0.2889657
2206 0.25710058
2204 0.21627794
2202 0.18801837
2200 0.16892993
2198 0.1497203
2196 0.128545
2194 0.10763344
2192 0.095644802
2190 0.099911682
2188 0.11427438
2186 0.13092922
2184 0.1530052
2182 0.18613328
2180 0.23137371
2178 0.28499737
2176 0.3299
2174 0.34899774
2172 0.34291339
2170 0.3190023
2168 0.28794464
2166 0.25813508
2164 0.22454043
2162 0.18075469
2160 0.13302355
2158 0.091699719
2156 0.065953404
2154 0.058822297
2152 0.050372716
2150 0.018480452
2148 -0.035647884
2146 -0.099486075
2144 -0.14808646
2142 -0.1612412
2140 -0.15505145
2138 -0.15619043
2136 -0.18173714
2134 -0.239021
2132 -0.31093585
2130 -0.37412685
2128 -0.4150596
2126 -0.42661586
2124 -0.41239667
2122 -0.38199317
2120 -0.35410327
2118 -0.34710002
2116 -0.36468828
2114 -0.40282121
2112 -0.44842172
2110 -0.48704651
2108 -0.511751
2106 -0.51947719
2104 -0.51108956
2102 -0.48989606
2100 -0.46349999
2098 -0.44216222
2096 -0.44048715
2094 -0.47159842
2092 -0.53580695
2090 -0.62423056
2088 -0.71078557
2086 -0.76739848
2084 -0.78483069
2082 -0.76527131
2080 -0.72638363
2078 -0.68976456
2076 -0.66896802
2074 -0.67174232
2072 -0.69599241
2070 -0.73396963
2068 -0.77024066
2066 -0.78977078
2064 -0.79146886
2062 -0.78112578
2060 -0.76863897
2058 -0.76348221
2056 -0.76729286
2054 -0.77911174
2052 -0.80100071
2050 -0.83450931
2048 -0.87317413
2046 -0.90757751
2044 -0.93072718
2042 -0.93990254
2040 -0.9454962
2038 -0.9598577
2036 -0.98009402
2034 -0.99496919
2032 -0.98716861
2030 -0.94360578
2028 -0.87868416
2026 -0.8184467
2024 -0.78630394
2022 -0.79691333
2020 -0.83566034
2018 -0.87620896
2016 -0.89761001
2014 -0.88688523
2012 -0.85133266
2010 -0.8072874
2008 -0.77104843
2006 -0.75524133
2004 -0.75928724
2002 -0.77421618
2000 -0.78124917
1998 -0.76201558
1996 -0.71773785
1994 -0.66199869
1992 -0.62082565
1990 -0.61909366
1988 -0.65411478
1986 -0.70945126
1984 -0.76755542
1982 -0.81308103
1980 -0.83859962
1978 -0.83998215
1976 -0.81089914
1974 -0.74773061
1972 -0.6642614
1970 -0.58360916
1968 -0.53183657
1966 -0.52948982
1964 -0.56976533
1962 -0.63188326
1960 -0.6940428
1958 -0.74000382
1956 -0.77532673
1954 -0.81331825
1952 -0.85311878
1950 -0.88547301
1948 -0.8994751
1946 -0.88875252
1944 -0.86753231
1942 -0.85759878
1940 -0.86707729
1938 -0.89344859
1936 -0.92243856
1934 -0.93751311
1932 -0.9363324
1930 -0.92354429
1928 -0.8994866
1926 -0.85874993
1924 -0.78366363
1922 -0.65835524
1920 -0.50233763
1918 -0.3530952
1916 -0.24048986
1914 -0.18287267
1912 -0.17380148
1910 -0.19754018
1908 -0.25520912
1906 -0.35338041
1904 -0.47666079
1902 -0.59593368
1900 -0.67965078
1898 -0.70388246
1896 -0.6788857
1894 -0.63403714
1892 -0.59765083
1890 -0.59146911
1888 -0.61870879
1886 -0.67157692
1884 -0.73971736
1882 -0.81210089
1880 -0.87700737
1878 -0.92081183
1876 -0.923033
1874 -0.86387342
1872 -0.74406892
1870 -0.58443379
1868 -0.43915698
1866 -0.37059757
1864 -0.39473468
1862 -0.4918884
1860 -0.61564285
1858 -0.71408248
1856 -0.76927799
1854 -0.78362805
1852 -0.75203961
1850 -0.66798991
1848 -0.54897642
1846 -0.43162036
1844 -0.3685993
1842 -0.40620774
1840 -0.52503622
1838 -0.66292125
1836 -0.75425327
1834 -0.74713802
1832 -0.64065862
1830 -0.47157511
1828 -0.30191118
1826 -0.19704814
1824 -0.18086594
1822 -0.24202357
1820 -0.33722982
1818 -0.41126674
1816 -0.43415114
1814 -0.40068173
1812 -0.33412865
1810 -0.26894158
1808 -0.21517479
1806 -0.1634575
1804 -0.098260216
1802 -0.005861057
1800 0.11027208
1798 0.23563187
1796 0.35902715
1794 0.47096044
1792 0.5529384
1790 0.58522481
1788 0.57226884
1786 0.53515697
1784 0.49149823
1782 0.45581266
1780 0.44945934
1778 0.4939211
1776 0.58696997
1774 0.70085549
1772 0.77012306
1770 0.72114736
1768 0.55456364
1766 0.33242792
1764 0.14234634
1762 0.056497473
1760 0.025907537
1758 -0.05943032
1756 -0.18239872
1754 -0.2332072
1752 -0.15443087
1750 0.044347502
1748 0.28568521
1746 0.45982394
1744 0.50495815
1742 0.41941458
1740 0.28831938
1738 0.2350592
1736 0.28731799
1734 0.38343388
1732 0.41882443
1730 0.29381257
1728 0.029153101
1726 -0.25569993
1724 -0.42221808
1722 -0.3443844
1720 0.041704178
1718 0.72748715
1716 1.5896957
1714 2.4385893
1712 3.1560395
1710 3.7221284
1708 4.2579041
1706 4.9847331
1704 6.1229777
1702 7.8551126
1700 10.260827
1698 13.283815
1696 16.602142
1694 19.74559
1692 22.487818
1690 24.888788
1688 27.265829
1686 30.062664
1684 33.50634
1682 37.535809
1680 41.6982
1678 45.36507
1676 48.44413
1674 51.333794
1672 54.404922
1670 57.865986
1668 61.645439
1666 65.477203
1664 69.21817
1662 72.85881
1660 76.350883
1658 79.60743
1656 82.620514
1654 85.464043
1652 88.238258
1650 90.988762
1648 93.453438
1646 95.159317
1644 95.918312
1642 95.843933
1640 95.072716
1638 93.684433
1636 91.641472
1634 88.853752
1632 85.457962
1630 81.787987
1628 78.05899
1626 74.314468
1624 70.492676
1622 66.484856
1620 62.290318
1618 58.026901
1616 53.83963
1614 49.872219
1612 46.245174
1610 43.038589
1608 40.242577
1606 37.772823
1604 35.55899
1602 33.564884
1600 31.789747
1598 30.255484
1596 28.965
1594 27.896381
1592 27.01528
1590 26.287819
1588 25.705397
1586 25.285372
1584 25.046726
1582 25.003891
1580 25.181082
1578 25.6068
1576 26.273342
1574 27.12829
1572 28.075508
1570 28.996656
1568 29.843241
1566 30.645029
1564 31.450689
1562 32.341492
1560 33.547623
1558 35.381672
1556 37.802387
1554 40.370762
1552 42.648388
1550 44.353706
1548 45.546097
1546 46.591892
1544 47.721802
1542 48.921635
1540 50.020359
1538 50.753399
1536 50.981972
1534 50.748283
1532 50.21825
1530 49.626945
1528 49.068554
1526 48.456551
1524 47.665726
1522 46.583443
1520 45.155495
1518 43.411526
1516 41.481129
1514 39.560177
1512 37.685642
1510 35.693913
1508 33.406082
1506 30.718794
1504 27.774
1502 24.951286
1500 22.472618
1498 20.29637
1496 18.288286
1494 16.283367
1492 14.188863
1490 12.011086
1488 9.774087
1486 7.5115647
1484 5.3327579
1482 3.4222865
1480 1.8929298
1478 0.76624185
1476 0.14629972
1474 0.21334806
1472 0.88484043
1470 1.757768
1468 2.5551517
1466 3.2568994
1464 3.9278533
1462 4.6542645
1460 5.4346786
1458 6.1425295
1456 6.6017003
1454 6.641767
1452 6.2826715
1450 5.773591
1448 5.2974849
1446 4.8825965
1444 4.5228028
1442 4.211679
1440 3.9469912
1438 3.7262297
1436 3.5132086
1434 3.2338455
1432 2.8485246
1430 2.3821907
1428 1.9050601
1426 1.5228857
1424 1.3071394
1422 1.2652562
1420 1.3609651
1418 1.521145
1416 1.6887228
1414 1.844986
1412 2.0028579
1410 2.2035666
1408 2.4696965
1406 2.7884328
1404 3.1416121
1402 3.5145152
1400 3.8925519
1398 4.2593966
1396 4.5914998
1394 4.8578892
1392 5.0397587
1390 5.1377196
1388 5.1531129
1386 5.0833049
1384 4.934186
1382 4.7262049
1380 4.4865394
1378 4.2437549
1376 4.0059485
1374 3.752039
1372 3.4679501
1370 3.1610744
1368 2.8463778
1366 2.539155
1364 2.2321243
1362 1.8876171
1360 1.489508
1358 1.0673825
1356 0.67046654
1354 0.35699841
1352 0.15025897
1350 0.017526109
1348 -0.072420955
1346 -0.12649143
1344 -0.134556
1342 -0.073379904
1340 0.05062861
1338 0.18007281
1336 0.25604916
1334 0.24196513
1332 0.14265978
1330 0.020586621
1328 -0.061413176
1326 -0.063304514
1324 0.037638433
1322 0.24117628
1320 0.5254879
1318 0.8413347
1316 1.1335599
1314 1.3512928
1312 1.4677086
1310 1.4962013
1308 1.4651909
1306 1.4116886
1304 1.3657286
1302 1.341076
1300 1.3416883
1298 1.3614994
1296 1.3942
1294 1.437727
1292 1.4932232
1290 1.5655999
1288 1.6560121
1286 1.7577728
1284 1.8629506
1282 1.9653027
1280 2.0635719
1278 2.1647232
1276 2.2781973
1274 2.4142869
1272 2.5816686
1270 2.7854176
1268 3.0287995
1266 3.3126066
1264 3.6352949
1262 3.9921598
1260 4.3765078
1258 4.7811828
1256 5.2060685
1254 5.663909
1252 6.169301
1250 6.7327695
1248 7.3523035
1246 8.0037498
1244 8.6574869
1242 9.2835159
1240 9.855073
1238 10.352043
1236 10.7569
1234 11.057907
1232 11.24668
1230 11.328716
1228 11.309895
1226 11.201928
1224 11.012257
1222 10.737829
1220 10.3798
1218 9.9440012
1216 9.440877
1214 8.8870163
1212 8.2997265
1210 7.6966157
1208 7.0928755
1206 6.4978209
1204 5.91291
1202 5.3267751
1200 4.7286777
1198 4.1166391
1196 3.4960284
1194 2.8836925
1192 2.2983897
1190 1.7570831
1188 1.2737803
1186 0.85703516
1184 0.51044786
1182 0.23053905
1180 0.014529325
1178 -0.13543096
1176 -0.218252
1174 -0.23853429
1172 -0.20891452
1170 -0.15624911
1168 -0.1067583
1166 -0.076752089
1164 -0.071999826
1162 -0.08011321
1160 -0.085529648
1158 -0.076202027
1156 -0.048768327
1154 -0.017472196
1152 0.0012023292
1150 -0.0039939769
1148 -0.03639444
1146 -0.083238035
1144 -0.12219823
1142 -0.11883098
1140 -0.046142407
1138 0.098299026
1136 0.30874342
1134 0.5734033
1132 0.87498224
1130 1.1883312
1128 1.5021503
1126 1.8419421
1124 2.2300096
1122 2.6598465
1120 3.1092041
1118 3.5367267
1116 3.9082799
1114 4.2200294
1112 4.4820127
1110 4.72018
1108 4.9599299
1106 5.2148204
1104 5.4928226
1102 5.7943239
1100 6.1131473
1098 6.4317784
1096 6.7318568
1094 7.001852
1092 7.2463918
1090 7.5060782
1088 7.8193135
1086 8.1933784
1084 8.6105366
1082 9.0088615
1080 9.3260403
1078 9.5291691
1076 9.6072626
1074 9.58916
1072 9.5170422
1070 9.4419918
1068 9.4083834
1066 9.4358549
1064 9.5262718
1062 9.6488523
1060 9.7630816
1058 9.8231039
1056 9.7900572
1054 9.6487036
1052 9.3996639
1050 9.0713692
1048 8.6979771
1046 8.3105965
1044 7.9325709
1042 7.5667973
1040 7.2097211
1038 6.8530931
1036 6.4918003
1034 6.1323113
1032 5.7837391
1030 5.4543433
1028 5.1468897
1026 4.8472815
1024 4.5366874
1022 4.1934719
1020 3.8001957
1018 3.3556838
1016 2.8733742
1014 2.398828
1012 1.9813843
1010 1.6560831
1008 1.4331599
1006 1.2568264
1004 1.0638564
1002 0.818784
1000 0.51058453
998 0.18271518
996 -0.11457001
994 -0.35235733
992 -0.51492417
990 -0.61192244
988 -0.65960532
986 -0.67524225
984 -0.67316711
982 -0.65737647
980 -0.62821221
978 -0.5824886
976 -0.51705289
974 -0.43175009
972 -0.32614243
970 -0.19657908
968 -0.040961012
966 0.13471499
964 0.31780457
962 0.48009354
960 0.59360087
958 0.64451081
956 0.62683511
954 0.54959577
952 0.42844442
950 0.28906322
948 0.15853982
946 0.05998221
944 0.0094580064
942 0.0013414379
940 0.019766629
938 0.031641308
936 0.007729046
934 -0.051528871
932 -0.13401783
930 -0.21207619
928 -0.26196307
926 -0.2888535
924 -0.30013222
922 -0.28453159
920 -0.2296471
918 -0.13639903
916 -0.014338911
914 0.10668293
912 0.1965124
910 0.2434189
908 0.24190257
906 0.19302721
904 0.11028053
902 0.049510077
900 0.05827127
898 0.10938807
896 0.15696999
