##TITLE=Methyl Ethyl Ketone
##JCAMP-DX=4.24
##DATA TYPE=INFRARED SPECTRUM
##XUNITS=cm-1
##YUNITS=Absorbance
##FIRSTX=900
##LASTX=2300
##XYDATA=(X++(Y..Y))
2296 0.022221001
2294 0.022683339
2292 0.023145678
2290 0.023608016
2288 0.024070354
2286 0.024532693
2284 0.024995031
2282 0.02545638
2280 0.025919696
2278 0.026382048
2276 0.026843401
2274 0.027302772
2272 0.02776801
2270 0.02824316
2268 0.028693
2266 0.029107127
2264 0.029616296
2262 0.030260263
2260 0.030546851
2258 0.030333161
2256 0.031447057
2254 0.034425892
2252 0.032472346
2250 0.023563413
2248 0.03298581
2246 0.076518461
2244 0.10117073
2242 0.052479129
2240 -0.052292399
2238 -0.16983502
2236 -0.23404413
2234 -0.19457211
2232 -0.090230867
2230 0.020590741
2228 0.10400894
2226 0.14483149
2224 0.17340589
2222 0.22759639
2220 0.32202843
2218 0.45668492
2216 0.60079855
2214 0.71832281
2212 0.78849483
2210 0.80337113
2208 0.78790492
2206 0.77066958
2204 0.75486368
2202 0.73581654
2200 0.70929694
2198 0.6787588
2196 0.67791855
2194 0.73967499
2192 0.85529101
2190 0.9975729
2188 1.1184123
2186 1.1755143
2184 1.177392
2182 1.1486324
2180 1.1143669
2178 1.0940099
2176 1.0853599
2174 1.0813224
2172 1.0844635
2170 1.0984499
2168 1.1191525
2166 1.1417829
2164 1.169894
2162 1.2123885
2160 1.2889189
2158 1.4127139
2156 1.55716
2154 1.6820546
2152 1.7487772
2150 1.733682
2148 1.6732502
2146 1.6214893
2144 1.6222509
2142 1.701676
2140 1.8321569
2138 1.9680401
2136 2.0670114
2134 2.0981386
2132 2.0687523
2130 2.0012133
2128 1.92406
2126 1.8597014
2124 1.7993838
2122 1.725183
2120 1.6284463
2118 1.5122919
2116 1.4116257
2114 1.3671581
2112 1.39584
2110 1.4954185
2108 1.6245205
2106 1.7305436
2104 1.7746863
2102 1.734275
2100 1.628702
2098 1.495505
2096 1.3812286
2094 1.3281764
2092 1.3501769
2090 1.4436971
2088 1.5792217
2086 1.7180101
2084 1.8227237
2082 1.8612505
2080 1.8192394
2078 1.6960616
2076 1.5212471
2074 1.3372723
2072 1.1928359
2070 1.1288037
2068 1.1469026
2066 1.2279664
2064 1.3347549
2062 1.4279571
2060 1.4876478
2058 1.5060791
2056 1.4920086
2054 1.4609081
2052 1.4309065
2050 1.4164032
2048 1.4132479
2046 1.407825
2044 1.3793119
2042 1.3104336
2040 1.2098829
2038 1.0999557
2036 1.0119143
2034 0.97414643
2032 0.98791438
2030 1.0373379
2028 1.0853368
2026 1.0935543
2024 1.0560954
2022 0.98747832
2020 0.92540878
2018 0.90905768
2016 0.942788
2014 1.0111554
2012 1.083674
2010 1.1270252
2008 1.1207383
2006 1.0557536
2004 0.94466525
2002 0.8134914
2000 0.70404923
1998 0.65784496
1996 0.68618071
1994 0.77836591
1992 0.89245158
1990 0.97765529
1988 1.004696
1986 0.96286327
1984 0.87258893
1982 0.76691419
1980 0.67153245
1978 0.60436541
1976 0.5694617
1974 0.56198192
1972 0.56680244
1970 0.56439388
1968 0.53614497
1966 0.46927223
1964 0.372702
1962 0.26701751
1960 0.1765548
1958 0.12176533
1956 0.10150853
1954 0.10358059
1952 0.1156216
1950 0.12769797
1948 0.13723771
1946 0.143785
1944 0.14004239
1942 0.11789553
1940 0.082184546
1938 0.045107745
1936 0.020125428
1934 0.017797412
1932 0.03563866
1930 0.066103011
1928 0.10970397
1926 0.16844851
1924 0.22979066
1922 0.27306372
1920 0.27797359
1918 0.2350875
1916 0.17840785
1914 0.15860169
1912 0.19612229
1910 0.28536206
1908 0.38802418
1906 0.4571653
1904 0.4800888
1902 0.46847826
1900 0.45105451
1898 0.4588348
1896 0.49904856
1894 0.56322396
1892 0.63604999
1890 0.70152944
1888 0.75218678
1886 0.78531808
1884 0.79670513
1882 0.78325999
1880 0.75289279
1878 0.72245079
1876 0.71941203
1874 0.77031577
1872 0.87292725
1870 1.0009331
1868 1.0993034
1866 1.1096958
1864 1.0279316
1862 0.88806653
1860 0.74295044
1858 0.64430904
1856 0.60356569
1854 0.60679376
1852 0.63976687
1850 0.69015187
1848 0.74327278
1846 0.78339607
1844 0.79761225
1842 0.7799027
1840 0.74637198
1838 0.72539169
1836 0.73909575
1834 0.79895353
1832 0.89280587
1830 0.99167627
1828 1.055688
1826 1.046955
1824 0.96122777
1822 0.82021493
1820 0.66236138
1818 0.53096515
1816 0.45341542
1814 0.44107354
1812 0.48416913
1810 0.5605669
1808 0.64893794
1806 0.73099601
1804 0.79308772
1802 0.82724255
1800 0.83839822
1798 0.84013683
1796 0.84744644
1794 0.86908931
1792 0.88581079
1790 0.86716038
1788 0.8184278
1786 0.76950085
1784 0.74000418
1782 0.73809838
1780 0.76729226
1778 0.82821363
1776 0.91715997
1774 1.0182778
1772 1.0731188
1770 1.0070618
1768 0.80722153
1766 0.52030259
1764 0.24728319
1762 0.095659167
1760 0.053638741
1758 0.03243525
1756 0.0037985444
1754 -0.0068155695
1752 0.015554654
1750 0.066461086
1748 0.12228987
1746 0.14963429
1744 0.12524126
1742 0.042826772
1740 -0.067779884
1738 -0.15924348
1736 -0.221974
1734 -0.27891931
1732 -0.3558239
1730 -0.46636447
1728 -0.57938683
1726 -0.63198489
1724 -0.57044399
1722 -0.36301631
1720 -0.024688572
1718 0.39347255
1716 0.83191985
1714 1.2367229
1712 1.5877182
1710 1.9086152
1708 2.304584
1706 2.9393065
1704 3.9685764
1702 5.5307064
1700 7.7538157
1698 10.693932
1696 14.095
1694 17.481581
1692 20.533779
1690 23.162798
1688 25.592726
1686 28.252649
1684 31.450493
1682 35.271858
1680 39.38448
1678 43.222794
1676 46.64587
1674 49.922409
1672 53.335411
1670 57.050426
1668 60.950012
1666 64.721703
1664 68.217422
1662 71.47052
1660 74.523315
1658 77.397545
1656 80.12397
1654 82.733765
1652 85.209244
1650 87.465309
1648 89.30835
1646 90.505501
1644 91.051598
1642 91.130844
1640 90.810188
1638 90.008911
1636 88.623886
1634 86.595428
1632 84.041756
1630 81.213951
1628 78.233101
1626 75.063721
1624 71.62616
1622 67.854164
1620 63.797031
1618 59.616455
1616 55.489914
1614 51.575886
1612 47.982868
1610 44.75909
1608 41.869923
1606 39.221237
1604 36.773075
1602 34.554008
1600 32.617908
1598 31.020473
1596 29.759499
1594 28.770746
1592 27.971579
1590 27.282795
1588 26.670774
1586 26.150343
1584 25.757217
1582 25.53965
1580 25.553308
1578 25.848701
1576 26.435057
1574 27.269619
1572 28.25341
1570 29.250023
1568 30.169121
1566 30.986629
1564 31.719477
1562 32.455627
1560 33.49712
1558 35.283318
1556 37.87323
1554 40.863079
1552 43.709034
1550 45.901756
1548 47.365021
1546 48.466213
1544 49.487801
1542 50.500889
1540 51.460541
1538 52.239025
1536 52.695629
1534 52.721729
1532 52.356136
1530 51.784966
1528 51.136028
1526 50.426399
1524 49.611736
1522 48.607597
1520 47.349205
1518 45.821377
1516 44.105698
1514 42.356651
1512 40.596478
1510 38.670895
1508 36.390347
1506 33.620049
1504 30.492811
1502 27.412758
1500 24.644934
1498 22.203749
1496 19.983429
1494 17.81015
1492 15.574669
1490 13.263807
1488 10.890309
1486 8.4878483
1484 6.1675858
1482 4.1178932
1480 2.4597564
1478 1.2185707
1476 0.45216414
1474 0.25294286
1472 0.55107546
1470 1.0796123
1468 1.6356542
1466 2.1625292
1464 2.6825652
1462 3.2709944
1460 3.9647052
1458 4.7273383
1456 5.4651399
1454 6.0413818
1452 6.3739786
1450 6.4683695
1448 6.3634348
1446 6.1177821
1444 5.7954006
1442 5.4574356
1440 5.1407175
1438 4.8442187
1436 4.5284543
1434 4.1205235
1432 3.584204
1430 2.9475946
1428 2.274312
1426 1.6541121
1424 1.162775
1422 0.84556293
1420 0.72427493
1418 0.79330981
1416 1.0211201
1414 1.3504109
1412 1.7320499
1410 2.1395555
1408 2.5680325
1406 3.03477
1404 3.5533051
1402 4.122179
1400 4.7231798
1398 5.3179765
1396 5.8605785
1394 6.303164
1392 6.6123924
1390 6.7780237
1388 6.800765
1386 6.6919699
1384 6.4732065
1382 6.1770053
1380 5.8345823
1378 5.4686651
1376 5.0869856
1374 4.6794224
1372 4.245234
1370 3.8027301
1368 3.3669958
1366 2.9391193
1364 2.503866
1362 2.0313087
1360 1.5223428
1358 1.0299327
1356 0.61233526
1354 0.31196079
1352 0.13318817
1350 0.029264545
1348 -0.038385246
1346 -0.07396429
1344 -0.055803064
1342 0.060519725
1340 0.28672695
1338 0.57196105
1336 0.84261602
1334 1.0194306
1332 1.0722251
1330 1.052382
1328 1.0232451
1326 1.034675
1324 1.1173854
1322 1.2738873
1320 1.4908634
1318 1.7386711
1316 1.98033
1314 2.1753242
1312 2.2950904
1310 2.3353965
1308 2.3085313
1306 2.2451386
1304 2.1759937
1302 2.12342
1300 2.0999207
1298 2.1048915
1296 2.1370571
1294 2.1985233
1292 2.2909439
1290 2.4129658
1288 2.5572839
1286 2.709002
1284 2.8577399
1282 3.0050814
1280 3.1563919
1278 3.3184588
1276 3.4950757
1274 3.6845059
1272 3.8860252
1270 4.1040049
1268 4.3456144
1266 4.6218643
1264 4.9464569
1262 5.3351436
1260 5.7944679
1258 6.31249
1256 6.8705883
1254 7.4470468
1252 8.0321188
1250 8.6395636
1248 9.2834139
1246 9.9667749
1244 10.680717
1242 11.397988
1240 12.088206
1238 12.719731
1236 13.265172
1234 13.699603
1232 14.00064
1230 14.14534
1228 14.117346
1226 13.913565
1224 13.541434
1222 13.024491
1220 12.391843
1218 11.67405
1216 10.904885
1214 10.121283
1212 9.3600054
1210 8.6546345
1208 8.0265493
1206 7.4704385
1204 6.964242
1202 6.4654741
1200 5.9381084
1198 5.3707361
1196 4.7693
1194 4.1625886
1192 3.5796587
1190 3.0383739
1188 2.5508156
1186 2.1228309
1184 1.7568475
1182 1.452276
1180 1.2058158
1178 1.0111756
1176 0.86422402
1174 0.76636714
1172 0.71595877
1170 0.70106494
1168 0.70163238
1166 0.68621927
1164 0.63045233
1162 0.53284299
1160 0.40591258
1158 0.28067178
1156 0.18544528
1154 0.13149388
1152 0.1176764
1150 0.12401447
1148 0.128172
1146 0.11398554
1144 0.077798203
1142 0.040272042
1140 0.016380521
1138 -0.0042896233
1136 -0.025864115
1134 -0.02372166
1132 0.030296035
1130 0.15567268
1128 0.36289406
1126 0.64519536
1124 0.98613203
1122 1.3558868
1120 1.722636
1118 2.05937
1116 2.3522358
1114 2.6184192
1112 2.882508
1110 3.1682487
1108 3.4863229
1106 3.8149149
1104 4.1281333
1102 4.4104595
1100 4.6575708
1098 4.887404
1096 5.1244287
1094 5.396142
1092 5.7255383
1090 6.1199169
1088 6.5657358
1086 7.0052719
1084 7.3757958
1082 7.6328068
1080 7.7601056
1078 7.8054399
1076 7.8240705
1074 7.8508878
1072 7.9068322
1070 7.9893889
1068 8.0966263
1066 8.2412786
1064 8.4271278
1062 8.6231127
1060 8.7869864
1058 8.8706017
1056 8.838623
1054 8.6949406
1052 8.4562483
1050 8.1478329
1048 7.7960048
1046 7.4220285
1044 7.0433407
1042 6.6690087
1040 6.3078313
1038 5.9733829
1036 5.6802702
1034 5.4409094
1032 5.2544436
1030 5.0827112
1028 4.8803935
1026 4.6093025
1024 4.2517343
1022 3.84532
1020 3.4361849
1018 3.0540183
1016 2.7102284
1014 2.3742595
1012 2.0150075
1010 1.6302843
1008 1.2275016
1006 0.82152927
1004 0.42841208
1002 0.062560469
1000 -0.2598868
998 -0.51688373
996 -0.69694072
994 -0.82636011
992 -0.93646157
990 -1.0445132
988 -1.1548078
986 -1.2415065
984 -1.280944
982 -1.2799783
980 -1.252758
978 -1.2114543
976 -1.1569972
974 -1.0564885
972 -0.87816334
970 -0.62253749
968 -0.31124705
966 -0.0087541044
964 0.22129035
962 0.35471624
960 0.38987327
958 0.36866629
956 0.33647886
954 0.31304193
952 0.30268961
950 0.27853498
948 0.21826829
946 0.14292397
944 0.073984332
942 -0.0031038821
940 -0.096526586
938 -0.1600264
936 -0.15974
934 -0.15558097
932 -0.21745306
930 -0.36590439
928 -0.59197617
926 -0.82320809
924 -0.9863804
922 -1.0648762
920 -1.0686549
918 -1.0548295
916 -1.0692387
914 -1.0710335
912 -1.002478
910 -0.82464015
908 -0.53198791
906 -0.23077351
904 -0.036398128
902 0.0090598539
900 -0.097409233
898 -0.2767483
896 -0.42934
