##TITLE=Methyl Ethyl Ketone
##JCAMP-DX=4.24
##DATA TYPE=INFRARED SPECTRUM
##XUNITS=cm-1
##YUNITS=Absorbance
##FIRSTX=900
##LASTX=2300
##XYDATA=(X++(Y..Y))
2296 0.02218
2294 0.02264134
2292 0.02310268
2290 0.023565017
2288 0.02402636
2286 0.0244877
2284 0.02494904
2282 0.02541038
2280 0.02587172
2278 0.02633306
2276 0.0267944
2274 0.02725574
2272 0.02771708
2270 0.02817842
2268 0.028640741
2266 0.0291021
2264 0.02956344
2262 0.03002478
2260 0.03048612
2258 0.03094746
2256 0.031408802
2254 0.031870138
2252 0.032331478
2250 0.032792818
2248 0.033254161
2246 0.033716463
2244 0.019682989
2242 0.00073829573
2240 -0.008829792
2238 -0.02816524
2236 -0.048942383
2234 -0.05568115
2232 -0.059098277
2230 -0.010644329
2228 0.044326447
2226 0.13181651
2224 0.21588412
2222 0.27705696
2220 0.32614443
2218 0.34227383
2216 0.35710913
2214 0.37314522
2212 0.39233539
2210 0.41653255
2208 0.43846035
2206 0.45719686
2204 0.49322015
2202 0.54606295
2200 0.61269182
2198 0.68877256
2196 0.73443145
2194 0.76221055
2192 0.75941032
2190 0.74372387
2188 0.73917538
2186 0.73851299
2184 0.76462638
2182 0.79682708
2180 0.82478398
2178 0.85177594
2176 0.85575974
2174 0.85724366
2172 0.85456282
2170 0.84958529
2168 0.83382875
2166 0.81122613
2164 0.76757014
2162 0.72225875
2160 0.6780408
2158 0.64518368
2156 0.633591
2154 0.62748325
2152 0.62612844
2150 0.61688578
2148 0.59822047
2146 0.59525609
2144 0.60708624
2142 0.6523903
2140 0.71994781
2138 0.77746433
2136 0.82824403
2134 0.84217733
2132 0.84071618
2130 0.82007188
2128 0.79371196
2126 0.74881935
2124 0.69979054
2122 0.65247506
2120 0.60728586
2118 0.5957033
2116 0.59189457
2114 0.60984313
2112 0.63023067
2110 0.64703447
2108 0.65926826
2106 0.65934342
2104 0.65718585
2102 0.65422684
2100 0.65212297
2098 0.65173835
2096 0.64604568
2094 0.63326544
2092 0.60777718
2090 0.57020152
2088 0.52171087
2086 0.4652915
2084 0.41972867
2082 0.38193128
2080 0.373932
2078 0.38126743
2076 0.41017714
2074 0.44736683
2072 0.4784756
2070 0.50746799
2068 0.50953484
2066 0.5051105
2064 0.48212299
2062 0.45548105
2060 0.42286783
2058 0.38804358
2056 0.34739602
2054 0.30926833
2052 0.28578204
2050 0.27435106
2048 0.28824022
2046 0.3017675
2044 0.30578399
2042 0.29574323
2040 0.26567981
2038 0.2336037
2036 0.20190643
2034 0.17699727
2032 0.15889874
2030 0.14745609
2028 0.14136393
2026 0.12987907
2024 0.11511508
2022 0.091045894
2020 0.062849142
2018 0.048269503
2016 0.038912799
2014 0.05983258
2012 0.089591466
2010 0.13334668
2008 0.17852251
2006 0.1986535
2004 0.20624274
2002 0.17423889
2000 0.12750915
1998 0.065818116
1996 0.0039395001
1994 -0.043839075
1992 -0.077027068
1990 -0.090195887
1988 -0.093044959
1986 -0.092958733
1984 -0.10132952
1982 -0.12226854
1980 -0.15479742
1978 -0.19445351
1976 -0.22232513
1974 -0.2362823
1972 -0.22150946
1970 -0.18572935
1968 -0.15188588
1966 -0.1219535
1964 -0.12350009
1962 -0.1430261
1960 -0.14878359
1958 -0.14811075
1956 -0.12337914
1954 -0.092014439
1952 -0.098395191
1950 -0.12183919
1948 -0.1693836
1946 -0.2190825
1944 -0.24344891
1942 -0.2498489
1940 -0.24021475
1938 -0.23226382
1936 -0.24616429
1934 -0.27739811
1932 -0.32341519
1930 -0.36737829
1928 -0.39406326
1926 -0.39513803
1924 -0.36466724
1922 -0.30703399
1920 -0.23277126
1918 -0.1635305
1916 -0.10939588
1914 -0.079242788
1912 -0.064266481
1910 -0.064184725
1908 -0.06974642
1906 -0.09957429
1904 -0.1433972
1902 -0.20035903
1900 -0.26471609
1898 -0.29498193
1896 -0.31004429
1894 -0.28704304
1892 -0.24949257
1890 -0.22359119
1888 -0.20820858
1886 -0.22994787
1884 -0.26845923
1882 -0.31841612
1880 -0.3685745
1878 -0.4041912
1876 -0.43099999
1874 -0.43913695
1872 -0.4440169
1870 -0.44641569
1868 -0.44765615
1866 -0.46238208
1864 -0.48068246
1862 -0.51123571
1860 -0.55706429
1858 -0.60869002
1856 -0.66711748
1854 -0.72400892
1852 -0.77368963
1850 -0.81333363
1848 -0.8511796
1846 -0.8823868
1844 -0.91546047
1842 -0.9438796
1840 -0.95446461
1838 -0.95899063
1836 -0.94686586
1834 -0.93232113
1832 -0.90874714
1830 -0.86994928
1828 -0.802113
1826 -0.71115667
1824 -0.61924517
1822 -0.55652046
1820 -0.55467743
1818 -0.59729308
1816 -0.66125602
1814 -0.71719164
1812 -0.74369997
1810 -0.74167776
1808 -0.72049987
1806 -0.69483304
1804 -0.67204976
1802 -0.68010849
1800 -0.70989984
1798 -0.75771445
1796 -0.81424212
1794 -0.80751097
1792 -0.7623868
1790 -0.65031815
1788 -0.5082913
1786 -0.38454422
1784 -0.2800307
1782 -0.20678838
1780 -0.15709931
1778 -0.1225004
1776 -0.098690517
1774 -0.084017202
1772 -0.069577217
1770 -0.075018466
1768 -0.079303309
1766 -0.075435318
1764 -0.0597395
1762 -0.0085136704
1760 0.0067593427
1758 -0.049602557
1756 -0.12173595
1754 -0.17595915
1752 -0.21263863
1750 -0.22707319
1748 -0.24864115
1746 -0.2911025
1744 -0.35392386
1742 -0.44557247
1740 -0.50869489
1738 -0.53768688
1736 -0.45735401
1734 -0.28707111
1732 -0.096668474
1730 0.091925703
1728 0.14518383
1726 0.094231412
1724 0.026338995
1722 -0.039319403
1720 0.0079772957
1718 0.18829238
1716 0.593108
1714 1.1623747
1712 1.7726617
1710 2.3802524
1708 2.9634039
1706 3.6559172
1704 4.606729
1702 6.0879197
1700 8.2346201
1698 11.317273
1696 15.301857
1694 19.417299
1692 23.300394
1690 26.745678
1688 29.806395
1686 33.376198
1684 37.557789
1682 42.61644
1680 48.362919
1678 53.364929
1676 57.65786
1674 61.67561
1672 65.572426
1670 70.139297
1668 75.211906
1666 80.255745
1664 85.157822
1662 89.572098
1660 93.475609
1658 96.799706
1656 99.476852
1654 101.41839
1652 102.471
1650 102.5061
1648 101.53337
1646 99.607498
1644 97.209442
1642 94.787827
1640 92.115364
1638 89.120468
1636 85.363716
1634 80.747925
1632 75.988762
1630 71.341988
1628 67.039772
1626 63.100292
1624 59.095963
1622 54.972263
1620 50.912361
1618 46.932648
1616 43.143631
1614 39.569103
1612 36.402168
1610 33.660339
1608 31.371948
1606 29.51623
1604 27.944195
1602 26.660326
1600 25.617977
1598 24.815966
1596 24.219
1594 23.82246
1592 23.586926
1590 23.496136
1588 23.510151
1586 23.610987
1584 23.782269
1582 24.006031
1580 24.276129
1578 24.634523
1576 25.091486
1574 25.732882
1572 26.564671
1570 27.570457
1568 28.736961
1566 29.929508
1564 31.137434
1562 32.470154
1560 34.012341
1558 36.372414
1556 39.634228
1554 43.265789
1552 47.035332
1550 49.967655
1548 52.05714
1546 53.765251
1544 55.095909
1542 56.175282
1540 56.9109
1538 57.14085
1536 56.827541
1534 56.020802
1532 54.833153
1530 53.495716
1528 52.025162
1526 50.440502
1524 48.654716
1522 46.593349
1520 44.301388
1518 41.746086
1516 39.268402
1514 36.994076
1512 34.773281
1510 32.622581
1508 30.080156
1506 27.034786
1504 24.088589
1502 21.295868
1500 18.921677
1498 16.994209
1496 15.006286
1494 12.953252
1492 10.849481
1490 8.7361708
1488 6.7149839
1486 4.8597002
1484 3.265866
1482 1.9693886
1480 0.99636161
1478 0.35637093
1476 0.061725959
1474 0.26608789
1472 0.96119112
1470 1.9095631
1468 2.962708
1466 3.8922293
1464 4.5753722
1462 5.1445193
1460 5.6451416
1458 6.1608434
1456 6.7094398
1454 7.1975012
1452 7.5553575
1450 7.76967
1448 7.7652259
1446 7.6833467
1444 7.4966092
1442 7.2697167
1440 6.9919696
1438 6.6585183
1436 6.2561417
1434 5.7547956
1432 5.1706142
1430 4.5929055
1428 4.0526419
1426 3.6460285
1424 3.3823354
1422 3.2579789
1420 3.2665608
1418 3.3649321
1416 3.528177
1414 3.7235739
1412 3.9238591
1410 4.1443439
1408 4.3790698
1406 4.641355
1404 4.9231052
1402 5.2127118
1400 5.50668
1398 5.7971869
1396 6.082571
1394 6.3468437
1392 6.5723433
1390 6.6990027
1388 6.7284265
1386 6.5940051
1384 6.3521385
1382 5.963872
1380 5.5198874
1378 5.0169663
1376 4.5002027
1374 3.9994602
1372 3.5489039
1370 3.15927
1368 2.8345947
1366 2.5200329
1364 2.139806
1362 1.7048949
1360 1.2130229
1358 0.7469396
1356 0.40570754
1354 0.15898812
1352 0.048758946
1350 0.010541232
1348 0.04494375
1346 0.11608464
1344 0.25934398
1342 0.43686152
1340 0.67658806
1338 0.91046262
1336 1.1180714
1334 1.3042539
1332 1.4208174
1330 1.540099
1328 1.6656932
1326 1.82461
1324 2.0492625
1322 2.3078067
1320 2.6162679
1318 2.9242442
1316 3.22946
1314 3.5096116
1312 3.7515361
1310 3.9591022
1308 4.1147537
1306 4.212482
1304 4.2577801
1302 4.2460198
1300 4.2050333
1298 4.1402445
1296 4.0717139
1294 4.0044928
1292 3.9437289
1290 3.8948543
1288 3.8555
1286 3.8342299
1284 3.8206565
1282 3.8192794
1280 3.8192761
1278 3.8208818
1276 3.8248458
1274 3.840246
1272 3.8694983
1270 3.9298892
1268 4.0163279
1266 4.1394506
1264 4.2848606
1262 4.4487367
1260 4.604176
1258 4.7465487
1256 4.8691916
1254 4.9793048
1252 5.1002216
1250 5.2314587
1248 5.3772216
1246 5.5244751
1244 5.647161
1242 5.7465987
1240 5.794805
1238 5.8116279
1236 5.7726812
1234 5.6982751
1232 5.5441518
1230 5.3432741
1228 5.0173807
1226 4.648097
1224 4.1642065
1222 3.6595109
1220 3.1063366
1218 2.5592129
1216 2.0279028
1214 1.5273995
1212 1.0857797
1210 0.69605887
1208 0.38478601
1206 0.12744457
1204 -0.068317205
1202 -0.24372406
1200 -0.40198708
1198 -0.56472087
1196 -0.7271136
1194 -0.87647337
1192 -1.0092074
1190 -1.1031491
1188 -1.1656312
1186 -1.168865
1184 -1.1342531
1182 -1.0239394
1180 -0.87441421
1178 -0.63302505
1176 -0.35885218
1174 -0.0016948283
1172 0.355436
1170 0.68992126
1168 0.98618567
1166 1.1618344
1164 1.301618
1162 1.353066
1160 1.3864303
1158 1.3818449
1156 1.3525829
1154 1.2796216
1152 1.1718972
1150 1.01596
1148 0.83294117
1146 0.62359536
1144 0.42256424
1142 0.23782115
1140 0.10711785
1138 0.027959403
1136 0.034927059
1134 0.10585983
1132 0.27707267
1130 0.49792761
1128 0.77918297
1126 1.0701842
1124 1.3272748
1122 1.5629698
1120 1.71664
1118 1.8548912
1116 1.9507743
1114 2.0538304
1112 2.1906636
1110 2.3441887
1108 2.5507271
1106 2.765285
1104 2.996964
1102 3.2125216
1100 3.3925943
1098 3.5360837
1096 3.6244571
1094 3.7120478
1092 3.803494
1090 3.9309623
1088 4.0924606
1086 4.2513614
1084 4.4037962
1082 4.5227723
1080 4.6180215
1078 4.6814351
1076 4.7278557
1074 4.7528505
1072 4.7687273
1070 4.7716503
1068 4.7646408
1066 4.7096443
1064 4.6464601
1062 4.5697479
1060 4.5046411
1058 4.5174904
1056 4.5400829
1054 4.6038456
1052 4.6580749
1050 4.6818171
1048 4.6927505
1046 4.6714678
1044 4.6340008
1042 4.5647988
1040 4.4832249
1038 4.3869967
1036 4.32651
1034 4.3099308
1032 4.3266659
1030 4.368526
1028 4.3589044
1026 4.3074107
1024 4.1832247
1022 4.018003
1020 3.823863
1018 3.6181004
1016 3.4106543
1014 3.201597
1012 2.9798234
1010 2.7519131
1008 2.478276
1006 2.19927
1004 1.9016426
1002 1.6080751
1000 1.3430115
998 1.0846596
996 0.85633576
994 0.6468336
992 0.49640894
990 0.376421
988 0.32528204
986 0.27192172
984 0.21402863
982 0.13117138
980 0.017271765
978 -0.071672648
976 -0.13227886
974 -0.14138219
972 -0.10972264
970 -0.078482188
968 -0.048202489
966 -0.042158749
964 -0.046811555
962 -0.049988538
960 -0.053031754
958 -0.053475983
956 -0.054680802
954 -0.077347912
952 -0.1028368
950 -0.13081728
948 -0.1503004
946 -0.047952965
944 0.0030624717
942 0.094950363
940 0.26490465
938 0.40043572
936 0.51463604
934 0.56668317
932 0.60970426
930 0.63283765
928 0.62586606
926 0.57116568
924 0.52027041
922 0.47579539
920 0.50851476
918 0.61253011
916 0.71995711
914 0.82720542
912 0.75743639
910 0.59419334
908 0.30353445
906 -0.032205373
904 -0.14613029
902 -0.19909412
900 0.040072322
898 0.32658657
896 0.48497
