##TITLE=Methyl Ethyl Ketone
##JCAMP-DX=4.24
##DATA TYPE=INFRARED SPECTRUM
##XUNITS=cm-1
##YUNITS=Absorbance
##FIRSTX=900
##LASTX=2300
##XYDATA=(X++(Y..Y))
2296 -0.03308
2294 -0.033768017
2292 -0.034456033
2290 -0.035144046
2288 -0.035832062
2286 -0.036520079
2284 -0.037209082
2282 -0.03789711
2280 -0.038585126
2278 -0.039273143
2276 -0.039961159
2274 -0.040650155
2272 -0.041338187
2270 -0.042026203
2268 -0.04271422
2266 -0.043402236
2264 -0.044090252
2262 -0.044778265
2260 -0.045467257
2258 -0.0461553
2256 -0.046843316
2254 -0.047531329
2252 -0.048219346
2250 -0.048907362
2248 -0.049595378
2246 -0.050284356
2244 -0.0018686199
2242 0.063522547
2240 0.13621724
2238 0.15344189
2236 0.16246371
2234 0.023105014
2232 -0.13304971
2230 -0.4266012
2228 -0.71610391
2226 -0.92069197
2224 -1.0785832
2222 -1.0427473
2220 -0.96861488
2218 -0.80925
2216 -0.65962315
2214 -0.54180074
2212 -0.48799059
2210 -0.53560716
2208 -0.64651334
2206 -0.82854015
2204 -0.97765642
2202 -1.0906606
2200 -1.1221309
2198 -1.094419
2196 -1.0381572
2194 -0.96765369
2192 -0.94144481
2190 -0.93506461
2188 -1.0419345
2186 -1.1852443
2184 -1.4284481
2182 -1.6941341
2180 -1.9105177
2178 -2.1171033
2176 -2.13834
2174 -2.1315796
2172 -2.0009303
2170 -1.861173
2168 -1.7375726
2166 -1.63877
2164 -1.6248186
2162 -1.6358749
2160 -1.6893755
2158 -1.7320486
2156 -1.7461801
2154 -1.7722803
2152 -1.8200468
2150 -1.9326857
2148 -2.1159191
2146 -2.2949393
2144 -2.4636707
2142 -2.568764
2140 -2.6303263
2138 -2.666863
2136 -2.6921344
2134 -2.6758878
2132 -2.6427648
2130 -2.6219528
2128 -2.6055319
2126 -2.7066565
2124 -2.835104
2122 -2.9503186
2120 -3.0562
2118 -3.0292487
2116 -2.9771271
2114 -2.8790371
2112 -2.7850573
2110 -2.7388213
2108 -2.7214799
2106 -2.7704198
2104 -2.8328464
2102 -2.903609
2100 -2.9601259
2098 -2.9907095
2096 -3.0153286
2094 -3.0371978
2092 -3.0701146
2090 -3.114943
2088 -3.1643713
2086 -3.2162552
2084 -3.252697
2082 -3.2787244
2080 -3.314045
2078 -3.3550067
2076 -3.4096272
2074 -3.4696748
2072 -3.4544361
2070 -3.4146478
2068 -3.3020852
2066 -3.1736927
2064 -3.1256361
2062 -3.1051419
2060 -3.2071924
2058 -3.3327479
2056 -3.4545228
2054 -3.5461035
2052 -3.5313394
2050 -3.4784453
2048 -3.3812771
2046 -3.3109963
2044 -3.3095582
2042 -3.3370757
2040 -3.388705
2038 -3.4070756
2036 -3.3803999
2034 -3.3586183
2032 -3.3496635
2030 -3.3897099
2028 -3.4661882
2026 -3.5396299
2024 -3.6072216
2022 -3.6251864
2020 -3.6176488
2018 -3.5694981
2016 -3.50578
2014 -3.4627535
2012 -3.4275391
2010 -3.4390402
2008 -3.4629424
2006 -3.4877214
2004 -3.5080955
2002 -3.4957471
2000 -3.4735785
1998 -3.4443986
1996 -3.4373286
1994 -3.5014329
1992 -3.6010652
1990 -3.7417176
1988 -3.8443542
1986 -3.8643894
1984 -3.8127422
1982 -3.6885242
1980 -3.5553911
1978 -3.4304295
1976 -3.3218629
1974 -3.2264671
1972 -3.097039
1970 -2.9393022
1968 -2.8068109
1966 -2.6936758
1964 -2.7521482
1962 -2.899848
1960 -3.1191599
1958 -3.3649807
1956 -3.5338016
1954 -3.6717794
1952 -3.725843
1950 -3.7465279
1948 -3.697974
1946 -3.6301498
1944 -3.5781422
1942 -3.5436616
1940 -3.5581477
1938 -3.5773108
1936 -3.5704544
1934 -3.5454211
1932 -3.498188
1930 -3.4810979
1928 -3.5214274
1926 -3.5773263
1924 -3.6319716
1922 -3.5588236
1920 -3.3487973
1918 -3.064692
1916 -2.7450471
1914 -2.5566268
1912 -2.4738703
1910 -2.5334017
1908 -2.6712453
1906 -2.8396552
1904 -3.0183439
1902 -3.0636983
1900 -3.0466399
1898 -2.8719344
1896 -2.6377571
1894 -2.4232674
1892 -2.2330394
1890 -2.1567831
1888 -2.1438987
1886 -2.2178106
1884 -2.3363676
1882 -2.4931624
1880 -2.6607959
1878 -2.820214
1876 -2.94449
1874 -3.0068305
1872 -2.968369
1870 -2.8075442
1868 -2.5740228
1866 -2.2998121
1864 -2.1405063
1862 -2.1170869
1860 -2.2146835
1858 -2.3883443
1856 -2.5357344
1854 -2.6484344
1852 -2.6490545
1850 -2.577991
1848 -2.403388
1846 -2.1731534
1844 -2.0579257
1842 -2.0119689
1840 -2.2154806
1838 -2.5342705
1836 -2.8302271
1834 -3.0752518
1832 -3.1020977
1830 -2.9728246
1828 -2.6354406
1826 -2.2421308
1824 -1.9452457
1822 -1.8157394
1820 -1.956952
1818 -2.2216461
1816 -2.5143485
1814 -2.7218685
1812 -2.7906287
1810 -2.7577229
1808 -2.6582239
1806 -2.51614
1804 -2.3506105
1802 -2.1509995
1800 -1.9247131
1798 -1.7282903
1796 -1.5602286
1794 -1.4449694
1792 -1.3652
1790 -1.2519289
1788 -1.1165123
1786 -0.9509787
1784 -0.76935226
1782 -0.57811666
1780 -0.37344149
1778 -0.11053441
1776 0.17277054
1774 0.41114521
1772 0.560839
1770 0.49793306
1768 0.33367541
1766 0.17035542
1764 0.078200236
1762 0.13024935
1760 0.066509947
1758 -0.10364319
1756 -0.200967
1754 -0.19716021
1752 0.082528904
1750 0.65792072
1748 1.3468912
1746 2.0590358
1744 2.4167297
1742 2.4285364
1740 2.2322049
1738 1.9206692
1736 1.74886
1734 1.6998127
1732 1.5585848
1730 1.3339028
1728 0.87059325
1726 0.27306998
1724 -0.11539152
1722 -0.2774097
1720 0.10442099
1718 0.9794848
1716 2.296253
1714 3.7107661
1712 4.7332549
1710 5.4566569
1708 5.9818559
1706 6.6493196
1704 7.7786217
1702 9.6562405
1700 12.409177
1698 15.883933
1696 19.871
1694 23.49155
1692 26.427906
1690 28.935816
1688 31.20023
1686 34.159264
1684 37.880692
1682 42.418442
1680 47.57584
1678 52.044907
1676 55.865456
1674 59.555798
1672 63.224171
1670 67.503304
1668 72.235466
1666 76.920898
1664 81.495445
1662 85.737251
1660 89.622253
1658 93.072548
1656 96.071144
1654 98.599792
1652 100.58948
1650 101.99243
1648 102.39257
1646 101.48035
1644 99.600449
1642 97.139091
1640 94.267426
1638 91.152939
1636 87.386772
1634 82.878197
1632 78.163734
1630 73.454994
1628 69.125275
1626 65.211418
1624 61.256321
1622 57.195339
1620 53.084236
1618 48.939365
1616 44.8908
1614 40.978241
1612 37.476372
1610 34.413219
1608 31.835649
1606 29.710793
1604 27.856009
1602 26.288153
1600 24.993315
1598 23.998243
1596 23.2995
1594 22.862007
1592 22.602468
1590 22.457541
1588 22.348526
1586 22.329599
1584 22.434172
1582 22.74477
1580 23.294289
1578 24.125578
1576 25.239485
1574 26.54598
1572 28.002043
1570 29.370823
1568 30.600241
1566 31.643528
1564 32.498093
1562 33.502392
1560 34.76313
1558 36.974014
1556 40.168598
1554 43.536629
1552 46.857697
1550 49.263042
1548 50.814133
1546 52.118534
1544 53.160954
1542 53.996616
1540 54.378902
1538 53.982998
1536 52.945999
1534 51.56097
1532 50.07999
1530 48.790119
1528 47.61792
1526 46.497452
1524 45.227322
1522 43.679264
1520 41.804897
1518 39.555038
1516 37.3633
1514 35.378357
1512 33.44524
1510 31.547031
1508 29.121174
1506 26.012184
1504 22.936073
1502 19.973536
1500 17.580235
1498 15.81777
1496 14.075571
1494 12.342218
1492 10.559198
1490 8.7440376
1488 6.9652047
1486 5.2471123
1484 3.6177797
1482 2.1723771
1480 1.0365463
1478 0.29413459
1476 0.050389785
1474 0.36561638
1472 1.1668506
1470 2.0805559
1468 2.853735
1466 3.4597979
1464 3.8641839
1462 4.3091879
1460 4.9165955
1458 5.6032386
1456 6.3652997
1454 6.8881536
1452 7.0169778
1450 6.9420419
1448 6.5872135
1446 6.188807
1444 5.7369308
1442 5.3065639
1440 4.9276648
1438 4.6646228
1436 4.5352783
1434 4.4356236
1432 4.3340182
1430 4.1300135
1428 3.8529902
1426 3.6158135
1424 3.4643047
1422 3.4646547
1420 3.5881889
1418 3.7818842
1416 3.9928772
1414 4.161808
1412 4.3101068
1410 4.4583368
1408 4.6394424
1406 4.8885098
1404 5.1837945
1402 5.5342035
1400 5.8864598
1398 6.22505
1396 6.4912
1394 6.6196456
1392 6.6358547
1390 6.4585338
1388 6.2109461
1386 5.85987
1384 5.4972582
1382 5.1266551
1380 4.7838864
1378 4.4758682
1376 4.178926
1374 3.8998802
1372 3.6362519
1370 3.3946033
1368 3.1821258
1366 2.9628928
1364 2.6747882
1362 2.3070476
1360 1.8327
1358 1.325478
1356 0.85932565
1354 0.46384633
1352 0.2039572
1350 0.036242612
1348 -0.013734989
1346 0.0015949607
1344 0.14512083
1342 0.34039569
1340 0.61671436
1338 0.83065182
1336 0.90276146
1334 0.8675915
1332 0.64478892
1330 0.45851189
1328 0.3497093
1326 0.36390221
1324 0.56127846
1322 0.84807318
1320 1.2393737
1318 1.6394049
1316 2.0220299
1314 2.310827
1312 2.4868479
1310 2.5445578
1308 2.5116668
1306 2.4474027
1304 2.3747787
1302 2.3286109
1300 2.2992058
1298 2.2832701
1296 2.2781858
1294 2.2891643
1292 2.3122609
1290 2.357193
1288 2.405256
1286 2.4529994
1284 2.4989796
1282 2.5395665
1280 2.5789115
1278 2.6170783
1276 2.6712172
1274 2.7636991
1272 2.906296
1270 3.134691
1268 3.3982916
1266 3.7031093
1264 3.9869955
1262 4.2380919
1260 4.4526858
1258 4.6381555
1256 4.8416286
1254 5.0818319
1252 5.4067945
1250 5.8022342
1248 6.2616525
1246 6.7440748
1244 7.196918
1242 7.611527
1240 7.9347458
1238 8.2012577
1236 8.3642197
1234 8.4741001
1232 8.4734678
1230 8.4231558
1228 8.247447
1226 8.0274525
1224 7.689086
1222 7.3216839
1220 6.8868117
1218 6.4488649
1216 6.0072856
1214 5.5801525
1212 5.1750507
1210 4.7650504
1208 4.3410807
1206 3.8795214
1204 3.37339
1202 2.8491967
1200 2.3163784
1198 1.8158886
1196 1.3445629
1194 0.89913982
1192 0.47203529
1190 0.060322911
1188 -0.31660709
1186 -0.57758641
1184 -0.75818223
1182 -0.76455492
1180 -0.70915669
1178 -0.56225801
1176 -0.39576399
1174 -0.20045272
1172 -0.015641063
1170 0.12026949
1168 0.22660035
1166 0.24331494
1164 0.25663352
1162 0.2665661
1160 0.31325257
1158 0.4368155
1156 0.59975642
1154 0.81682014
1152 0.98719478
1150 1.0767486
1148 1.0402768
1146 0.86409926
1144 0.63104081
1142 0.36343992
1140 0.16410238
1138 0.04048647
1136 0.08163394
1134 0.2431739
1132 0.61680746
1130 1.0839689
1128 1.6164086
1126 2.1440322
1124 2.55287
1122 2.9203458
1120 3.1797841
1118 3.4232695
1116 3.63396
1114 3.8303378
1112 3.9677634
1110 4.0803499
1108 4.1126957
1106 4.119535
1104 4.0674405
1102 4.0402722
1100 4.0767779
1098 4.2417283
1096 4.6155429
1094 5.0972815
1092 5.6990438
1090 6.2263298
1088 6.6687303
1086 7.0166793
1084 7.3008246
1082 7.6390634
1080 7.9962697
1078 8.2611074
1076 8.4507828
1074 8.3995962
1072 8.2738667
1070 8.1759653
1068 8.1088896
1066 8.2217388
1064 8.3659277
1062 8.570261
1060 8.7690039
1058 8.9117556
1056 9.0312033
1054 9.0480299
1052 9.0449018
1050 8.9799128
1048 8.9196587
1046 8.8756714
1044 8.8863239
1042 9.0003405
1040 9.1479702
1038 9.3339014
1036 9.4198399
1034 9.3827991
1032 9.2401028
1030 9.0061378
1028 8.7863808
1026 8.5770845
1024 8.3739862
1022 8.1622105
1020 7.8270683
1018 7.4226255
1016 6.7833171
1014 6.0756865
1012 5.3092785
1010 4.5603471
1008 4.122932
1006 3.7384491
1004 3.6709943
1002 3.6152148
1000 3.6206753
998 3.6008775
996 3.4661143
994 3.2594841
992 2.8277376
990 2.3382843
988 1.7204806
986 1.1447392
984 0.65104872
982 0.30381417
980 0.1595028
978 0.15058416
976 0.28344369
974 0.46013916
972 0.67338365
970 0.91844392
968 1.1796091
966 1.380285
964 1.5448532
962 1.5328472
960 1.4616829
958 1.3428783
956 1.2118315
954 1.0352414
952 0.84652519
950 0.50143129
948 0.16585031
946 0.05746498
944 0.00050353311
942 0.012672991
940 0.40010622
938 0.85653657
936 1.2672229
934 1.5434997
932 1.7959968
930 1.997184
928 2.1723607
926 2.3058851
924 2.4307919
922 2.5465841
920 2.7350903
918 2.9920013
916 3.3232872
914 3.7063949
912 4.0552897
910 4.384841
908 4.5581779
906 4.6708097
904 4.6020355
902 4.4861388
900 4.425251
898 4.3735709
896 4.5630002
