##TITLE=Methyl Ethyl Ketone
##JCAMP-DX=4.24
##DATA TYPE=INFRARED SPECTRUM
##XUNITS=cm-1
##YUNITS=Absorbance
##FIRSTX=900
##LASTX=2300
##XYDATA=(X++(Y..Y))
2296 -0.034828998
2294 -0.035552964
2292 -0.036277924
2290 -0.037002888
2288 -0.037726857
2286 -0.038451813
2284 -0.039175786
2282 -0.039900739
2280 -0.040625703
2278 -0.041349679
2276 -0.042074628
2274 -0.042799592
2272 -0.043523572
2270 -0.044248518
2268 -0.044972502
2266 -0.045697443
2264 -0.046421431
2262 -0.047146369
2260 -0.047871333
2258 -0.048595324
2256 -0.049320258
2254 -0.050045218
2252 -0.050769214
2250 -0.051494148
2248 -0.052218143
2246 -0.052943073
2244 -0.0019674201
2242 0.061740059
2240 0.12643749
2238 0.17699692
2236 0.22549142
2234 0.24792671
2232 0.26775533
2230 0.27108026
2228 0.27196115
2226 0.25984001
2224 0.24454458
2222 0.21788354
2220 0.19430083
2218 0.18201019
2216 0.18285915
2214 0.21101399
2212 0.24592321
2210 0.28924328
2208 0.325396
2206 0.35198727
2204 0.37100035
2202 0.38327438
2200 0.37688869
2198 0.35687652
2196 0.31390285
2194 0.25823373
2192 0.22601457
2190 0.20447016
2188 0.2380324
2186 0.2892805
2184 0.36802119
2182 0.45282739
2180 0.51335865
2178 0.56950748
2176 0.56782997
2174 0.55894125
2172 0.52836454
2170 0.50162798
2168 0.50876462
2166 0.5272097
2164 0.57492876
2162 0.61792511
2160 0.64135432
2158 0.65399575
2156 0.649921
2154 0.65956575
2152 0.69160867
2150 0.73585123
2148 0.79121554
2146 0.82972682
2144 0.85231435
2142 0.85519522
2140 0.84555793
2138 0.82714719
2136 0.80465943
2134 0.78491139
2132 0.76642543
2130 0.76718748
2128 0.77403921
2126 0.79417831
2124 0.81733006
2122 0.83447415
2120 0.85001647
2118 0.85371441
2116 0.85451031
2114 0.84611619
2112 0.83804905
2110 0.83716738
2108 0.84128481
2106 0.85737342
2104 0.8724063
2102 0.88131005
2100 0.88062263
2098 0.86538225
2096 0.84239143
2094 0.81215191
2092 0.7854442
2090 0.76349413
2088 0.75485975
2086 0.75650948
2084 0.76530296
2082 0.77781135
2080 0.78601605
2078 0.79177672
2076 0.79104543
2074 0.78776294
2072 0.78267241
2070 0.77712238
2068 0.77143157
2066 0.76571131
2064 0.7517134
2062 0.73608583
2060 0.71827984
2058 0.7021026
2056 0.69716626
2054 0.69713837
2052 0.70737803
2050 0.71882617
2048 0.72881639
2046 0.72912717
2044 0.71154261
2042 0.68509191
2040 0.64988476
2038 0.62546164
2036 0.61532211
2034 0.61954498
2032 0.63525099
2030 0.64528251
2028 0.64966381
2026 0.63275045
2024 0.60310555
2022 0.57145804
2020 0.53994393
2018 0.52651715
2016 0.52040201
2014 0.51049578
2012 0.49859267
2010 0.47131169
2008 0.4397532
2006 0.40836602
2004 0.37829334
2002 0.35860258
2000 0.34389323
1998 0.34136653
1996 0.34312427
1994 0.34983644
1992 0.35688344
1990 0.35996193
1988 0.35908398
1986 0.35041821
1984 0.33881977
1982 0.32577541
1980 0.31227842
1978 0.29969841
1976 0.28603828
1974 0.2717936
1972 0.26742402
1970 0.27116585
1968 0.2747201
1966 0.27711907
1964 0.24706469
1962 0.19932106
1960 0.1552148
1958 0.11346033
1956 0.118399
1954 0.14003976
1952 0.16908914
1950 0.19626394
1948 0.19340239
1946 0.1783925
1944 0.1478956
1942 0.11809988
1940 0.10041327
1938 0.090758331
1936 0.090585224
1934 0.089984052
1932 0.085529022
1930 0.068790428
1928 0.03690673
1926 -0.0048736781
1924 -0.052412789
1922 -0.079654075
1920 -0.084839411
1918 -0.064840838
1916 -0.029647816
1914 0.0054984819
1912 0.038285114
1910 0.057235088
1908 0.068370856
1906 0.061109681
1904 0.043977719
1902 0.040634643
1900 0.043477934
1898 0.074229702
1896 0.11423143
1894 0.13663621
1892 0.1474048
1890 0.1221535
1888 0.081404917
1886 0.02890108
1884 -0.026860589
1882 -0.080146328
1880 -0.1319214
1878 -0.18014401
1876 -0.220708
1874 -0.24482495
1872 -0.24718982
1870 -0.22231485
1868 -0.189431
1866 -0.16256042
1864 -0.16783759
1862 -0.21011689
1860 -0.2759963
1858 -0.35249999
1856 -0.4284277
1854 -0.49979576
1852 -0.56009948
1850 -0.61146486
1848 -0.62972999
1846 -0.62694681
1844 -0.59003818
1842 -0.53539193
1840 -0.49930468
1838 -0.47575948
1836 -0.46893972
1834 -0.46847332
1832 -0.44668555
1830 -0.41001809
1828 -0.35849181
1826 -0.30866921
1824 -0.29145378
1822 -0.30933443
1820 -0.37245959
1818 -0.45802698
1816 -0.54625714
1814 -0.61960828
1812 -0.66753048
1810 -0.68082207
1808 -0.66361135
1806 -0.61052901
1804 -0.52999079
1802 -0.45919245
1800 -0.401692
1798 -0.37593418
1796 -0.37256214
1794 -0.33638418
1792 -0.2771036
1790 -0.19571455
1788 -0.10596874
1786 -0.056727294
1784 -0.033641543
1782 -0.019803295
1780 -0.0088771088
1778 0.026470941
1776 0.080242798
1774 0.1581683
1772 0.2435163
1770 0.30033398
1768 0.32135281
1766 0.28162199
1764 0.2103288
1762 0.13910782
1760 0.042971887
1758 -0.090374544
1756 -0.19754457
1754 -0.24669032
1752 -0.22808635
1750 -0.14818969
1748 -0.069149107
1746 -0.013531845
1744 -0.039542068
1742 -0.14315176
1740 -0.25126448
1738 -0.34762362
1736 -0.337964
1734 -0.2443299
1732 -0.13158819
1730 -0.017357126
1728 -0.01336137
1726 -0.08410795
1724 -0.1284454
1722 -0.13004979
1720 0.017649718
1718 0.30400553
1716 0.7732051
1714 1.3409113
1712 1.8648548
1710 2.3538277
1708 2.8286939
1706 3.4379742
1704 4.3265972
1702 5.7584639
1700 7.8653269
1698 10.880588
1696 14.778286
1694 18.80315
1692 22.597065
1690 25.96768
1688 28.953571
1686 32.441929
1684 36.533192
1682 41.54607
1680 47.299438
1678 52.453602
1676 57.020199
1674 61.409679
1672 65.753525
1670 70.875031
1668 76.574249
1666 82.208153
1664 87.649979
1662 92.475372
1660 96.679504
1658 100.20953
1656 102.93829
1654 104.6843
1652 105.3542
1650 104.90527
1648 103.51149
1646 101.41286
1644 98.932533
1642 96.377365
1640 93.502571
1638 90.218163
1636 86.082542
1634 81.017113
1632 75.77243
1630 70.626839
1628 65.88652
1626 61.571365
1624 57.249039
1622 52.854729
1620 48.596096
1618 44.487152
1616 40.674171
1614 37.17408
1612 34.093777
1610 31.44269
1608 29.19544
1606 27.336693
1604 25.746517
1602 24.437241
1600 23.385481
1598 22.5965
1596 22.0385
1594 21.706352
1592 21.558144
1590 21.565222
1588 21.67758
1586 21.875315
1584 22.13604
1582 22.45742
1580 22.836405
1578 23.31675
1576 23.911028
1574 24.65436
1572 25.545746
1570 26.548164
1568 27.6488
1566 28.773964
1564 29.918283
1562 31.216349
1560 32.759087
1558 35.173119
1556 38.537315
1554 42.335117
1552 46.351284
1550 49.578484
1548 52.030308
1546 54.148678
1544 55.928139
1542 57.468159
1540 58.562599
1538 58.937233
1536 58.575001
1534 57.582977
1532 56.195557
1530 54.727261
1528 53.168816
1526 51.514751
1524 49.634338
1522 47.437599
1520 45.011696
1518 42.367764
1516 39.91584
1514 37.812332
1512 35.827961
1510 33.948433
1508 31.56996
1506 28.534557
1504 25.464333
1502 22.411951
1500 19.846767
1498 17.81996
1496 15.810714
1494 13.806328
1492 11.740209
1490 9.6221504
1488 7.505578
1486 5.4630699
1484 3.6268601
1482 2.0957785
1480 0.97686481
1478 0.29128289
1476 0.0572218
1474 0.35595244
1472 1.1169391
1470 2.046921
1468 2.9648292
1466 3.7439234
1464 4.2987909
1462 4.7816377
1460 5.2494082
1458 5.7338409
1456 6.2448401
1454 6.6645985
1452 6.924427
1450 7.0478725
1448 6.9722972
1446 6.8353324
1444 6.6151495
1442 6.3722229
1440 6.0981197
1438 5.7881746
1436 5.4196315
1434 4.9478335
1432 4.3713779
1430 3.7589674
1428 3.1496882
1426 2.6502023
1424 2.2857599
1422 2.0751061
1420 2.0182228
1418 2.0962136
1416 2.266403
1414 2.486532
1412 2.7092938
1410 2.9095116
1408 3.1066275
1406 3.3163321
1404 3.5658522
1402 3.8791704
1400 4.2447762
1398 4.6859875
1396 5.1504354
1394 5.6383061
1392 6.05337
1390 6.3239799
1388 6.4513726
1386 6.3505001
1384 6.1265445
1382 5.7363663
1380 5.2924776
1378 4.7909851
1376 4.2860684
1374 3.7964406
1372 3.3502481
1370 2.9591646
1368 2.6287184
1366 2.3218665
1364 1.9758837
1362 1.5844438
1360 1.1281916
1358 0.68263626
1356 0.33646989
1354 0.09410914
1352 0.019325703
1350 0.031466417
1348 0.13637863
1346 0.27466464
1344 0.44961882
1342 0.64037913
1340 0.85907948
1338 1.0849983
1336 1.3194143
1334 1.5461529
1332 1.7456449
1330 1.937176
1328 2.118155
1326 2.3147693
1324 2.5468788
1322 2.8210189
1320 3.1549783
1318 3.5209987
1316 3.9109399
1314 4.2715631
1312 4.5857506
1310 4.8348641
1308 5.0222259
1306 5.1647863
1304 5.2707982
1302 5.3425231
1300 5.38622
1298 5.3883862
1296 5.3668571
1294 5.3134432
1292 5.2554803
1290 5.2029629
1288 5.1653442
1286 5.1638737
1284 5.1730261
1282 5.2013373
1280 5.2256241
1278 5.2402382
1276 5.2509742
1274 5.2584939
1272 5.2782235
1270 5.3239961
1268 5.397902
1266 5.5105786
1264 5.6357164
1262 5.7705412
1260 5.8953562
1258 6.0113597
1256 6.1295056
1254 6.2509503
1252 6.3791184
1250 6.5073566
1248 6.6211786
1246 6.7210999
1244 6.7951074
1242 6.8498549
1240 6.871273
1238 6.8659873
1236 6.8036232
1234 6.7052979
1232 6.5252118
1230 6.3076282
1228 5.9951329
1226 5.6490765
1224 5.2137222
1222 4.7573509
1220 4.2523909
1218 3.750536
1216 3.2579658
1214 2.7877703
1212 2.3585057
1210 1.9579272
1208 1.6019229
1206 1.2818351
1204 1.0068282
1202 0.76330948
1200 0.54945946
1198 0.34370205
1196 0.14920065
1194 -0.022450641
1192 -0.16390938
1190 -0.23276579
1188 -0.25419819
1186 -0.2114667
1184 -0.14439777
1182 -0.063389413
1180 0.031044833
1178 0.16802615
1176 0.33798
1174 0.61849844
1172 0.91656584
1170 1.2547487
1168 1.5582824
1166 1.7514857
1164 1.8904037
1162 1.8959091
1160 1.875368
1158 1.804245
1156 1.7296801
1154 1.6458292
1152 1.5362794
1150 1.3863087
1148 1.1905168
1146 0.94517428
1144 0.68609607
1142 0.42471641
1140 0.21347734
1138 0.054401595
1136 -0.0013465056
1134 0.014731862
1132 0.12634915
1130 0.28239495
1128 0.48027384
1126 0.68402827
1124 0.85925877
1122 1.0164801
1120 1.104852
1118 1.1807344
1116 1.2238044
1114 1.2693158
1112 1.3274879
1110 1.3902005
1108 1.4674265
1106 1.54603
1104 1.6263595
1102 1.6917443
1100 1.7243491
1098 1.722824
1096 1.6679429
1094 1.5999058
1092 1.521274
1090 1.4814258
1088 1.4859983
1086 1.5424421
1084 1.6387674
1082 1.7376788
1080 1.82776
1078 1.8437899
1076 1.81271
1074 1.6814358
1072 1.5132457
1070 1.3140475
1068 1.1127607
1066 0.94644618
1064 0.79074997
1062 0.68014032
1060 0.58086765
1058 0.54092097
1056 0.51671827
1054 0.56136197
1052 0.61184973
1050 0.67877388
1048 0.72103184
1046 0.70151895
1044 0.64937246
1042 0.53639168
1040 0.4162845
1038 0.28691769
1036 0.16935951
1034 0.066972859
1032 -0.017533321
1030 -0.085427627
1028 -0.14720708
1026 -0.20572858
1024 -0.27500445
1022 -0.35010588
1020 -0.42657214
1018 -0.50254756
1016 -0.56603086
1014 -0.62496722
1012 -0.67081511
1010 -0.71267027
1008 -0.73509324
1006 -0.75282693
1004 -0.73504281
1002 -0.7155214
1000 -0.68674147
998 -0.66457546
996 -0.67156076
994 -0.68187094
992 -0.70252252
990 -0.72012043
988 -0.73033309
986 -0.73243058
984 -0.7190392
982 -0.68722069
980 -0.63095921
978 -0.57968104
976 -0.53544801
974 -0.52200735
972 -0.53398836
970 -0.5624634
968 -0.60011631
966 -0.62696701
964 -0.64674288
962 -0.62413722
960 -0.58554399
958 -0.49380502
956 -0.39030185
954 -0.27401349
952 -0.15855961
950 -0.099008709
948 -0.043532629
946 -0.014346643
944 0.00064412504
942 0.020699222
940 0.08161521
938 0.2287014
936 0.37479341
934 0.51784563
932 0.64714551
930 0.74703324
928 0.84153801
926 0.92711198
924 0.99384075
922 1.0368384
920 1.0272963
918 0.9683131
916 0.87666804
914 0.76273638
912 0.7139293
910 0.70065075
908 0.76288897
906 0.85402393
904 0.83623821
902 0.78992105
900 0.61068654
898 0.41044953
896 0.34720001
