##TITLE=Methyl Ethyl Ketone
##JCAMP-DX=4.24
##DATA TYPE=INFRARED SPECTRUM
##XUNITS=cm-1
##YUNITS=Absorbance
##FIRSTX=900
##LASTX=2300
##XYDATA=(X++(Y..Y))
2296 0.032958001
2294 0.033643018
2292 0.034329038
2290 0.035015058
2288 0.035700083
2286 0.036386095
2284 0.037072111
2282 0.037757143
2280 0.038443148
2278 0.039128177
2276 0.039814185
2274 0.040500205
2272 0.041185237
2270 0.041871242
2268 0.042557262
2266 0.043242302
2264 0.043928299
2262 0.044613339
2260 0.045299336
2258 0.045985352
2256 0.0466704
2254 0.047356393
2252 0.048042409
2250 0.048727456
2248 0.049413446
2246 0.050098497
2244 0.019582134
2242 0.00070986856
2240 -0.023172479
2238 -0.01357646
2236 0.00103643
2234 0.043614402
2232 0.088284239
2230 0.1349047
2228 0.18045709
2226 0.2169745
2224 0.2484608
2222 0.25920048
2220 0.26198918
2218 0.24401805
2216 0.22661029
2214 0.21293895
2212 0.20550421
2210 0.20784879
2208 0.20945445
2206 0.20937222
2204 0.20652911
2202 0.20109667
2200 0.20104599
2198 0.20514339
2196 0.21371429
2194 0.22473399
2192 0.22674417
2190 0.22473262
2188 0.22024103
2186 0.21502407
2184 0.22169401
2182 0.23109154
2180 0.23138392
2178 0.23008546
2176 0.21354942
2174 0.19712131
2172 0.19795123
2170 0.2021558
2168 0.21638754
2166 0.22712357
2164 0.22160414
2162 0.21189618
2160 0.19560045
2158 0.18474641
2156 0.18545
2154 0.19095056
2152 0.20165183
2150 0.20301601
2148 0.19325651
2146 0.17551072
2144 0.1517424
2142 0.14642
2140 0.15438926
2138 0.18702115
2136 0.23232315
2134 0.26967883
2132 0.30307493
2130 0.31307593
2128 0.31570402
2126 0.32412952
2124 0.33409283
2122 0.35548896
2120 0.37727827
2118 0.37208319
2116 0.35995001
2114 0.32451311
2112 0.2873055
2110 0.25696334
2108 0.23244734
2106 0.22250858
2104 0.21767068
2102 0.21945617
2100 0.2151272
2098 0.19894864
2096 0.17779285
2094 0.152527
2092 0.14582562
2090 0.15898277
2088 0.18626133
2086 0.22262099
2084 0.25124085
2082 0.27385008
2080 0.29336005
2078 0.31177732
2076 0.32862145
2074 0.34491163
2072 0.34365958
2070 0.33684197
2068 0.31099939
2066 0.28101993
2064 0.2571317
2062 0.23714595
2060 0.24144769
2058 0.25176969
2056 0.26874945
2054 0.28234509
2052 0.28000507
2050 0.26979327
2048 0.24850754
2046 0.22903858
2044 0.21788719
2042 0.22257122
2040 0.24780971
2038 0.2817634
2036 0.3203373
2034 0.34394151
2032 0.35241249
2030 0.34660879
2028 0.3323682
2026 0.31593299
2024 0.29946601
2022 0.28509849
2020 0.27212751
2018 0.263455
2016 0.25603399
2014 0.24532852
2012 0.23269294
2010 0.21928807
2008 0.20628166
2006 0.20896593
2004 0.21643026
2002 0.2318076
2000 0.24517731
1998 0.24452123
1996 0.23574358
1994 0.21522203
1992 0.19828622
1990 0.19275512
1988 0.20148219
1986 0.22598228
1984 0.25294971
1982 0.27826181
1980 0.29253975
1978 0.29654616
1976 0.29309201
1974 0.2858108
1972 0.28385705
1970 0.28734121
1968 0.28798118
1966 0.28602335
1964 0.26017889
1962 0.22082731
1960 0.1837672
1958 0.14806865
1956 0.14776857
1954 0.15989399
1952 0.17882772
1950 0.19526275
1948 0.1828118
1946 0.15852499
1944 0.1174688
1942 0.079464711
1940 0.058190294
1938 0.046983179
1936 0.045678943
1934 0.03926529
1932 0.021133261
1930 -0.0044165924
1928 -0.031786907
1926 -0.045133315
1924 -0.036678184
1922 -0.0059892628
1920 0.040065899
1918 0.081814848
1916 0.11178286
1914 0.12430906
1912 0.12588359
1910 0.1169082
1908 0.10384203
1906 0.086099759
1904 0.0653788
1902 0.054960795
1900 0.048202757
1898 0.052944694
1896 0.060952999
1894 0.062657006
1892 0.060020745
1890 0.038246691
1888 0.0072123441
1886 -0.039410368
1884 -0.090447411
1882 -0.13881809
1880 -0.18298931
1878 -0.21609351
1876 -0.24624601
1874 -0.27039942
1872 -0.29079285
1870 -0.30403671
1868 -0.30359748
1866 -0.29793215
1864 -0.29187462
1862 -0.29516882
1860 -0.31295153
1858 -0.33827296
1856 -0.37347943
1854 -0.41123858
1852 -0.45725942
1850 -0.50496179
1848 -0.55688
1846 -0.60691178
1844 -0.64047706
1842 -0.66133016
1840 -0.65505284
1838 -0.63785911
1836 -0.61179084
1834 -0.58516759
1832 -0.55315536
1830 -0.51301646
1828 -0.45959955
1826 -0.39985344
1824 -0.35648966
1822 -0.34284154
1820 -0.37670821
1818 -0.43900481
1816 -0.50897914
1814 -0.56909531
1812 -0.60662687
1810 -0.62359822
1808 -0.62707597
1806 -0.62099898
1804 -0.61014038
1802 -0.61896521
1800 -0.64318371
1798 -0.67635125
1796 -0.71274143
1794 -0.67252123
1792 -0.58245802
1790 -0.43453777
1788 -0.26026303
1786 -0.14619358
1784 -0.075094134
1782 -0.059453543
1780 -0.077696599
1778 -0.10029646
1776 -0.11981914
1774 -0.11454006
1772 -0.086866967
1770 -0.05073503
1768 -0.012267632
1766 0.0099594984
1764 0.0220541
1762 0.041465249
1760 0.019376399
1758 -0.068565942
1756 -0.16933015
1754 -0.25132042
1752 -0.30784217
1750 -0.33574459
1748 -0.35676748
1746 -0.38369143
1744 -0.435168
1742 -0.5180952
1740 -0.59528339
1738 -0.65893465
1736 -0.62866199
1734 -0.52132267
1732 -0.35456115
1730 -0.15860024
1728 -0.067644536
1726 -0.058187548
1724 -0.076560736
1722 -0.09392342
1720 0.029434673
1718 0.32372731
1716 0.87694752
1714 1.5884722
1712 2.3062925
1710 2.9908104
1708 3.6122918
1706 4.3288169
1704 5.3031449
1702 6.8278084
1700 9.0528822
1698 12.215075
1696 16.273285
1694 20.438969
1692 24.34506
1690 27.816395
1688 30.906103
1686 34.51598
1684 38.746807
1682 43.87809
1680 49.72316
1678 54.871471
1676 59.35083
1674 63.610878
1672 67.801376
1670 72.812904
1668 78.445816
1666 84.073402
1664 89.546349
1662 94.392578
1660 98.637886
1658 102.31247
1656 105.32829
1654 107.56457
1652 108.6438
1650 108.15986
1648 106.16343
1646 102.83321
1644 98.988029
1642 95.332703
1640 91.618904
1638 87.723259
1636 83.216446
1634 77.987289
1632 72.742844
1630 67.719963
1628 63.070389
1626 58.784836
1624 54.509438
1622 50.189697
1620 46.10614
1618 42.265942
1616 38.730202
1614 35.508625
1612 32.680405
1610 30.252871
1608 28.206017
1606 26.522387
1604 25.077732
1602 23.888739
1600 22.944765
1598 22.255142
1596 21.798
1594 21.561226
1592 21.494429
1590 21.567476
1588 21.728846
1586 21.958157
1584 22.235445
1582 22.55752
1580 22.92359
1578 23.40062
1576 24.0112
1574 24.815758
1572 25.81624
1570 26.94175
1568 28.17028
1566 29.412649
1564 30.662905
1562 32.071007
1560 33.72868
1558 36.249878
1556 39.709743
1554 43.541962
1552 47.506268
1550 50.567692
1548 52.735332
1546 54.514179
1544 55.923584
1542 57.127499
1540 57.980698
1538 58.26302
1536 57.910255
1534 56.95084
1532 55.572201
1530 54.061279
1528 52.421322
1526 50.660801
1524 48.682106
1522 46.411427
1520 43.935989
1518 41.257324
1516 38.749416
1514 36.556747
1512 34.501438
1510 32.592468
1508 30.223127
1506 27.2437
1504 24.215149
1502 21.17901
1500 18.623493
1498 16.601971
1496 14.616
1494 12.658257
1492 10.649668
1490 8.6100025
1488 6.5989885
1486 4.6967778
1484 3.0379961
1482 1.6962098
1480 0.74257541
1478 0.19016588
1476 0.04051467
1474 0.39022607
1472 1.19918
1470 2.200063
1468 3.2168937
1466 4.0769329
1464 4.6734896
1462 5.1501145
1460 5.5517788
1458 5.9515357
1456 6.36306
1454 6.7246199
1452 6.9858713
1450 7.1279659
1448 7.0894604
1446 6.9824071
1444 6.7818866
1442 6.54667
1440 6.2617884
1438 5.9106069
1436 5.4720297
1434 4.9279194
1432 4.2944074
1430 3.6755297
1428 3.1028919
1426 2.6555386
1424 2.3459754
1422 2.1728401
1420 2.1414349
1418 2.2342436
1416 2.4186714
1414 2.6604581
1412 2.9153757
1410 3.1733229
1408 3.4403896
1406 3.7313614
1404 4.0446339
1402 4.3785977
1400 4.7128801
1398 5.0361137
1396 5.3593283
1394 5.675909
1392 5.9676924
1390 6.1891189
1388 6.2944493
1386 6.205915
1384 5.9792643
1382 5.565877
1380 5.0900946
1378 4.5501399
1376 4.0120997
1374 3.5033042
1372 3.0551541
1370 2.6758354
1368 2.3576899
1366 2.0531023
1364 1.6888564
1362 1.2760435
1360 0.81758559
1358 0.3966195
1356 0.11800258
1354 -0.043146331
1352 -0.036128901
1350 0.048182368
1348 0.20436971
1346 0.38115609
1344 0.56710041
1342 0.75093496
1340 0.93163151
1338 1.1216587
1336 1.3259114
1334 1.5402815
1332 1.7498525
1330 1.9518551
1328 2.1410029
1326 2.3360898
1324 2.5540195
1322 2.7970088
1320 3.0807309
1318 3.3830504
1316 3.7024901
1314 4.0093842
1312 4.2894201
1310 4.5309224
1308 4.7261038
1306 4.8779855
1304 4.9885793
1302 5.0498409
1300 5.0762024
1298 5.0571127
1296 5.0193715
1294 4.9643683
1292 4.9082346
1290 4.8567004
1288 4.8123283
1286 4.7833624
1284 4.7662892
1282 4.7748122
1280 4.7910047
1278 4.8222675
1276 4.850883
1274 4.877099
1272 4.8995299
1270 4.9210334
1268 4.9539495
1266 5.0061679
1264 5.0852156
1262 5.195394
1260 5.3227062
1258 5.4635329
1256 5.5962029
1254 5.7197118
1252 5.8331342
1250 5.9401822
1248 6.0480065
1246 6.1503501
1244 6.2293735
1242 6.2832203
1240 6.2796841
1238 6.242548
1236 6.1476569
1234 6.0248117
1232 5.8468399
1230 5.636025
1228 5.3367448
1226 4.9992924
1224 4.5593681
1222 4.0984797
1220 3.5897129
1218 3.0901101
1216 2.6123028
1214 2.1632478
1212 1.7663057
1210 1.4023371
1208 1.088302
1206 0.8082583
1204 0.57235098
1202 0.37402886
1200 0.21629445
1198 0.091331102
1196 -0.0057249293
1194 -0.08470457
1192 -0.15076342
1190 -0.2056495
1188 -0.25006565
1186 -0.27185076
1184 -0.27179554
1182 -0.21280713
1180 -0.11298557
1178 0.099959314
1176 0.353618
1174 0.7102375
1172 1.0658613
1170 1.391113
1168 1.6738783
1166 1.8234065
1164 1.9289383
1162 1.9254141
1160 1.8932943
1158 1.8026196
1156 1.68641
1154 1.5260732
1152 1.3383143
1150 1.1138062
1148 0.8757714
1146 0.62785643
1144 0.40217137
1142 0.20734844
1140 0.082330637
1138 0.019858647
1136 0.046339452
1134 0.13043781
1132 0.29475504
1130 0.49466395
1128 0.721084
1126 0.94516271
1124 1.1198832
1122 1.2682853
1120 1.323488
1118 1.3621023
1116 1.3577557
1114 1.3567759
1112 1.3733166
1110 1.3981193
1108 1.4495012
1106 1.51009
1104 1.59226
1102 1.6717768
1100 1.7436765
1098 1.79523
1096 1.8144572
1094 1.8206564
1092 1.811604
1090 1.8056982
1088 1.8021028
1086 1.7935443
1084 1.7793071
1082 1.7505842
1080 1.7120337
1078 1.662163
1076 1.6065571
1074 1.5453265
1072 1.4804463
1070 1.4049809
1068 1.3231578
1066 1.214215
1064 1.1006944
1062 0.98000246
1060 0.8617304
1058 0.76084059
1056 0.66056055
1054 0.56305414
1052 0.46786883
1050 0.38108182
1048 0.30311537
1046 0.2468068
1044 0.19944471
1042 0.16843827
1040 0.14250262
1038 0.12355459
1036 0.1051887
1034 0.086936004
1032 0.061022468
1030 0.025904413
1028 -0.038716905
1026 -0.12589128
1024 -0.23981115
1022 -0.36587411
1020 -0.47147152
1018 -0.56616122
1016 -0.62544113
1014 -0.67449027
1012 -0.71571267
1010 -0.75647414
1008 -0.80810398
1006 -0.85994643
1004 -0.9041661
1002 -0.94267106
1000 -0.9429096
998 -0.93991417
996 -0.92291069
994 -0.9071734
992 -0.89562178
990 -0.88103586
988 -0.85988307
986 -0.8415342
984 -0.82829469
982 -0.82856649
980 -0.84739238
978 -0.88296956
976 -0.9355523
974 -0.98068011
972 -1.017952
970 -1.0195163
968 -0.99836636
966 -0.96439803
964 -0.92397082
962 -0.87075764
960 -0.81108057
958 -0.6956538
956 -0.56759661
954 -0.41782132
952 -0.26790601
950 -0.17531867
948 -0.08703962
946 -0.027652821
944 0.0011570416
942 0.036388151
940 0.11867079
938 0.26315591
936 0.41512227
934 0.58893448
932 0.7506628
930 0.88612235
928 0.99800283
926 1.071895
924 1.1223459
922 1.1438508
920 1.1244125
918 1.0662129
916 0.96491241
914 0.83285654
912 0.69196254
910 0.54736292
908 0.42491299
906 0.31277856
904 0.27355063
902 0.25484607
900 0.33086208
898 0.42249653
896 0.53890002
