##TITLE=Methyl Ethyl Ketone
##JCAMP-DX=4.24
##DATA TYPE=INFRARED SPECTRUM
##XUNITS=cm-1
##YUNITS=Absorbance
##FIRSTX=900
##LASTX=2300
##XYDATA=(X++(Y..Y))
2296 0.013613
2294 0.013895595
2292 0.014179189
2290 0.014461787
2288 0.014745377
2286 0.015028971
2284 0.015311574
2282 0.01559516
2280 0.015877767
2278 0.016161349
2276 0.016444944
2274 0.016727552
2272 0.01701113
2270 0.017293744
2268 0.01757732
2266 0.017860916
2264 0.018143531
2262 0.018427102
2260 0.018709723
2258 0.018993292
2256 0.019276887
2254 0.01955951
2252 0.019843074
2250 0.020125702
2248 0.020409262
2246 0.020692857
2244 0.01983643
2242 0.00076383003
2240 -0.00307008
2238 -0.013718322
2236 -0.025453886
2234 -0.033079069
2232 -0.040103316
2230 -0.040344913
2228 -0.039504696
2226 -0.032551698
2224 -0.024037873
2222 -0.0097642103
2220 0.0026870824
2218 0.0086801555
2216 0.0054367059
2214 -0.017200997
2212 -0.04167394
2210 -0.067281425
2208 -0.080507815
2206 -0.078212373
2204 -0.067758426
2202 -0.050403289
2200 -0.024740165
2198 0.0067903101
2196 0.050121002
2194 0.10003597
2192 0.14407115
2190 0.18534437
2188 0.2080984
2186 0.2248975
2184 0.2302288
2182 0.23300503
2180 0.23839268
2178 0.24429019
2176 0.25921741
2174 0.27465537
2172 0.28637207
2170 0.29634351
2168 0.2983748
2166 0.30210951
2164 0.31489736
2162 0.33400443
2160 0.36694831
2158 0.39488998
2156 0.41065699
2154 0.40787774
2152 0.38006407
2150 0.35307714
2148 0.32997289
2146 0.33479321
2144 0.36394504
2142 0.4059003
2140 0.4550086
2138 0.48246467
2136 0.49772087
2134 0.49273321
2132 0.47968656
2130 0.47556674
2128 0.4745084
2126 0.48853743
2124 0.50604177
2122 0.52894813
2120 0.55255812
2118 0.57382506
2116 0.5932824
2114 0.60167599
2112 0.60383683
2110 0.58540374
2108 0.55875152
2106 0.51640052
2104 0.48107052
2102 0.46641883
2100 0.47027099
2098 0.50008523
2096 0.52559286
2094 0.54049093
2092 0.53854156
2090 0.52076316
2088 0.50960225
2086 0.505705
2084 0.52585632
2082 0.56120467
2080 0.60224551
2078 0.64528131
2076 0.6721406
2074 0.69218844
2072 0.70560879
2070 0.71714813
2068 0.7196095
2066 0.71941239
2064 0.69084245
2062 0.65638816
2060 0.61727804
2058 0.58142847
2056 0.56849343
2054 0.560408
2052 0.55377674
2050 0.53928357
2048 0.50416577
2046 0.46459287
2044 0.4244048
2042 0.39900863
2040 0.39583984
2038 0.40433398
2036 0.42138013
2034 0.43091202
2032 0.43168521
2030 0.42802459
2028 0.42234048
2026 0.421529
2024 0.4242205
2022 0.4277615
2020 0.4315851
2018 0.42488068
2016 0.41355801
2014 0.38212201
2012 0.34380507
2010 0.29936489
2008 0.25410211
2006 0.22222149
2004 0.19590905
2002 0.18562411
2000 0.18241166
1998 0.1934159
1996 0.20838644
1994 0.22526658
1992 0.23529851
1990 0.22771755
1988 0.20930719
1986 0.17799707
1984 0.14854559
1982 0.12598449
1980 0.11283803
1978 0.10915889
1976 0.11385286
1974 0.1247671
1972 0.14644842
1970 0.17568129
1968 0.19239376
1966 0.20021906
1964 0.16364054
1962 0.10400361
1960 0.045084041
1958 -0.012356239
1956 -0.024777886
1954 -0.021103971
1952 -0.01575752
1950 -0.013266874
1948 -0.03638538
1946 -0.067903496
1944 -0.10173579
1942 -0.13130771
1940 -0.14757958
1938 -0.15969609
1936 -0.17267486
1934 -0.18980901
1932 -0.2132232
1930 -0.23382501
1928 -0.24539743
1926 -0.2388258
1924 -0.21086723
1922 -0.17110801
1920 -0.1255248
1918 -0.104442
1916 -0.10831886
1914 -0.13279518
1912 -0.16865698
1910 -0.19287868
1908 -0.20771955
1906 -0.22618207
1904 -0.24771561
1902 -0.27508223
1900 -0.30545646
1898 -0.30050418
1896 -0.28037286
1894 -0.24134214
1892 -0.1997534
1890 -0.1927446
1888 -0.20496891
1886 -0.24545571
1884 -0.29514998
1882 -0.34136215
1880 -0.38096982
1878 -0.40691522
1876 -0.41350999
1874 -0.39049333
1872 -0.3433941
1870 -0.27322692
1868 -0.22524835
1866 -0.21713515
1864 -0.26560447
1862 -0.36453131
1860 -0.46737623
1858 -0.56084365
1856 -0.61992741
1854 -0.65276891
1852 -0.65352154
1850 -0.63488626
1848 -0.60127801
1846 -0.55910999
1844 -0.54384434
1842 -0.54232073
1840 -0.56400007
1838 -0.59351653
1836 -0.58830816
1834 -0.56059039
1832 -0.49075007
1830 -0.40458626
1828 -0.32997635
1826 -0.28069651
1824 -0.29250994
1822 -0.34456822
1820 -0.4282054
1818 -0.5112446
1816 -0.56868571
1814 -0.59232497
1812 -0.57919091
1810 -0.54800022
1808 -0.51064402
1806 -0.47650501
1804 -0.44805288
1802 -0.43220329
1800 -0.42520377
1798 -0.41733968
1796 -0.40678287
1794 -0.35771173
1792 -0.2833496
1790 -0.20467091
1788 -0.12750329
1786 -0.086800568
1784 -0.068720274
1782 -0.059801813
1780 -0.053175393
1778 -0.022657193
1776 0.028691046
1774 0.11523691
1772 0.20898737
1770 0.26135996
1768 0.26728663
1766 0.20469536
1764 0.11857589
1762 0.052313052
1760 0.019124137
1758 -0.070176758
1756 -0.16792472
1754 -0.21385455
1752 -0.18166389
1750 -0.074224256
1748 0.040041059
1746 0.13549289
1744 0.12315738
1742 0.0095858276
1740 -0.11773811
1738 -0.23778434
1736 -0.23693199
1734 -0.14177912
1732 -0.042038787
1730 0.04848947
1728 0.015395572
1726 -0.096601427
1724 -0.16182418
1722 -0.16266711
1720 0.022433423
1718 0.37068734
1716 0.91607314
1714 1.5491942
1712 2.0942886
1710 2.5840323
1708 3.0618401
1706 3.6983628
1704 4.6540041
1702 6.1673789
1700 8.3511829
1698 11.358359
1696 15.136572
1694 18.988701
1692 22.592764
1690 25.84395
1688 28.790127
1686 32.281345
1684 36.399078
1682 41.382401
1680 47.053162
1678 52.074203
1676 56.470928
1674 60.655201
1672 64.763046
1670 69.616592
1668 75.03746
1666 80.492302
1664 85.843193
1662 90.647598
1660 94.881516
1658 98.448853
1656 101.31137
1654 103.4196
1652 104.6868
1650 105.06692
1648 104.36932
1646 102.50357
1644 99.879189
1642 96.909019
1640 93.538857
1638 89.80249
1636 85.347427
1634 80.118385
1632 74.872108
1630 69.865494
1628 65.300636
1626 61.164181
1624 57.0014
1622 52.745216
1620 48.596088
1618 44.568859
1616 40.785973
1614 37.269333
1612 34.162388
1610 31.482962
1608 29.240206
1606 27.416471
1604 25.8794
1602 24.633499
1600 23.63612
1598 22.887047
1596 22.345001
1594 21.998892
1592 21.805817
1590 21.752478
1588 21.806404
1586 21.963978
1584 22.213039
1582 22.5501
1580 22.966415
1578 23.499439
1576 24.158571
1574 24.948952
1572 25.861954
1570 26.848131
1568 27.89348
1566 29.013807
1564 30.218729
1562 31.700296
1560 33.555958
1558 36.300201
1556 39.965172
1554 43.79501
1552 47.577393
1550 50.479691
1548 52.565018
1546 54.429749
1544 56.088051
1542 57.640686
1540 58.824181
1538 59.26162
1536 58.887688
1534 57.755096
1532 56.189232
1530 54.591446
1528 52.961983
1526 51.301949
1524 49.487305
1522 47.434818
1520 45.189396
1518 42.751728
1516 40.419842
1514 38.303532
1512 36.237839
1510 34.204823
1508 31.680443
1506 28.518658
1504 25.367777
1502 22.293428
1500 19.706276
1498 17.657499
1496 15.622
1494 13.590357
1492 11.513911
1490 9.4026909
1488 7.3048368
1486 5.2916489
1484 3.4868178
1482 1.9909631
1480 0.90565026
1478 0.25334758
1476 0.051718257
1474 0.38139287
1472 1.1848581
1470 2.1576841
1468 3.1103745
1466 3.9039278
1464 4.4355588
1462 4.8733721
1460 5.2746387
1458 5.6844115
1456 6.1163201
1454 6.4581795
1452 6.6475077
1450 6.715435
1448 6.6087966
1446 6.4560714
1444 6.240664
1442 6.0077271
1440 5.7467771
1438 5.4426551
1436 5.0703831
1434 4.5979252
1432 4.0301208
1430 3.4517612
1428 2.9022319
1426 2.4698622
1424 2.1710258
1422 2.0060289
1420 1.9670644
1418 2.0298312
1416 2.1665344
1414 2.3511372
1412 2.5638881
1410 2.8033412
1408 3.0682783
1406 3.3700671
1404 3.7007632
1402 4.0665216
1400 4.4513121
1398 4.8595824
1396 5.2643356
1394 5.6534209
1392 5.9761415
1390 6.1717033
1388 6.2465491
1386 6.1278601
1384 5.8954854
1382 5.5094271
1380 5.0740571
1378 4.5863442
1376 4.1005454
1374 3.6317911
1372 3.203016
1370 2.8222015
1368 2.4884422
1366 2.170675
1364 1.8139729
1362 1.4187384
1360 0.97849989
1358 0.56103718
1356 0.25064918
1354 0.045352891
1352 0.00050266652
1350 0.036796704
1348 0.15551245
1346 0.30251142
1344 0.48706442
1342 0.69209749
1340 0.93408585
1338 1.1814494
1336 1.4324629
1334 1.6541522
1332 1.8157991
1330 1.9663091
1328 2.1052945
1326 2.2763808
1324 2.5024338
1322 2.772028
1320 3.0987017
1318 3.4479012
1316 3.8115301
1314 4.1464167
1312 4.4371266
1310 4.6641269
1308 4.8298507
1306 4.9439735
1304 5.0181146
1302 5.057395
1300 5.0704789
1298 5.0489402
1296 5.0083141
1294 4.9438138
1292 4.8807058
1290 4.8348703
1288 4.8026676
1286 4.7991381
1284 4.7958446
1282 4.7876596
1280 4.7835069
1278 4.789319
1276 4.8088126
1274 4.8543072
1272 4.8972158
1270 4.9372463
1268 4.977735
1266 5.0231781
1264 5.0915456
1262 5.1872101
1260 5.2945323
1258 5.4102359
1256 5.5168371
1254 5.6145535
1252 5.7054467
1250 5.7919469
1248 5.8783493
1246 5.9639001
1244 6.0453606
1242 6.1171427
1240 6.160821
1238 6.1735358
1236 6.1103268
1234 5.9987097
1232 5.7755961
1230 5.5096011
1228 5.1407475
1226 4.7460537
1224 4.2853446
1222 3.8149383
1220 3.3237488
1218 2.846524
1216 2.4006543
1214 1.9842889
1212 1.6183325
1210 1.2733546
1208 0.95926368
1206 0.66293937
1204 0.39151478
1202 0.14816782
1200 -0.063059196
1198 -0.24154101
1196 -0.38738573
1194 -0.49368787
1192 -0.5673607
1190 -0.59803593
1188 -0.59944308
1186 -0.55792493
1184 -0.48933294
1182 -0.36724874
1180 -0.21639079
1178 0.0027880371
1176 0.24900001
1174 0.56717658
1172 0.8917712
1170 1.2225983
1168 1.520524
1166 1.713852
1164 1.8570794
1162 1.875829
1160 1.8589772
1158 1.7701185
1156 1.6578286
1154 1.5060928
1152 1.3361354
1150 1.1413661
1148 0.93700379
1146 0.72340965
1144 0.5136326
1142 0.31421089
1140 0.15464845
1138 0.036697026
1136 0.00042389252
1134 0.020687126
1132 0.14470053
1130 0.31373665
1128 0.51095295
1126 0.70758879
1124 0.86109829
1122 0.99609733
1120 1.073436
1118 1.1384242
1116 1.1663158
1114 1.1969293
1112 1.2421218
1110 1.2967858
1108 1.380284
1106 1.4571049
1104 1.5146428
1102 1.5459484
1100 1.5244045
1098 1.4803025
1096 1.4032286
1094 1.3345124
1092 1.2814699
1090 1.2681644
1088 1.2964474
1086 1.3484272
1084 1.4133301
1082 1.4414902
1080 1.4403868
1078 1.384196
1076 1.3025471
1074 1.21403
1072 1.1239897
1070 1.0398992
1068 0.95620638
1066 0.86575294
1064 0.77528119
1062 0.69117576
1060 0.60584521
1058 0.51051664
1056 0.41545373
1054 0.3222115
1052 0.23747829
1050 0.1794883
1048 0.11952121
1046 0.053796247
1044 -0.022442713
1042 -0.11810155
1040 -0.2132203
1038 -0.30647308
1036 -0.38746297
1034 -0.45264819
1032 -0.49815583
1030 -0.52681035
1028 -0.56190145
1026 -0.60659212
1024 -0.70560896
1022 -0.8348242
1020 -0.98373359
1018 -1.1332229
1016 -1.2072029
1014 -1.2533584
1012 -1.2172406
1010 -1.1676497
1008 -1.124144
1006 -1.0876608
1004 -1.1293638
1002 -1.177531
1000 -1.2657914
998 -1.3443083
996 -1.3787501
994 -1.391115
992 -1.335132
990 -1.2700324
988 -1.1856418
986 -1.1235508
984 -1.1008617
982 -1.1005998
980 -1.129366
978 -1.1499263
976 -1.1614228
974 -1.1576197
972 -1.1408162
970 -1.1055316
968 -1.0582194
966 -0.99809599
964 -0.93312991
962 -0.88843292
960 -0.85012102
958 -0.80662572
956 -0.7591266
954 -0.64476252
952 -0.52091676
950 -0.36203319
948 -0.20314756
946 -0.066595502
944 0.0016130731
942 0.050443523
940 0.15507317
938 0.30406588
936 0.45997113
934 0.63572913
932 0.795183
930 0.91946465
928 1.0233366
926 1.0949929
924 1.1740659
922 1.2620263
920 1.3385297
918 1.4033456
916 1.4056015
914 1.3633846
912 1.2921114
910 1.206196
908 1.1660098
906 1.1438136
904 1.1177468
902 1.0906947
900 0.99623913
898 0.89122498
896 0.88771999
