##TITLE=Methyl Ethyl Ketone
##JCAMP-DX=4.24
##DATA TYPE=INFRARED SPECTRUM
##XUNITS=cm-1
##YUNITS=Absorbance
##FIRSTX=900
##LASTX=2300
##XYDATA=(X++(Y..Y))
2296 0.087880999
2294 0.089709386
2292 0.091537766
2290 0.093366154
2288 0.095194541
2286 0.097022921
2284 0.098851308
2282 0.10068167
2280 0.10250909
2278 0.10433647
2276 0.10616386
2274 0.10799124
2272 0.10981862
2270 0.11164602
2268 0.1134734
2266 0.11531057
2264 0.11713817
2262 0.11895581
2260 0.12079269
2258 0.12265924
2256 0.12444886
2254 0.12613931
2252 0.12809809
2250 0.13044246
2248 0.13177542
2246 0.12634286
2244 0.09259887
2242 0.013723482
2240 -0.090287887
2238 -0.19235063
2236 -0.27885598
2234 -0.34137377
2232 -0.37666023
2230 -0.3854236
2228 -0.37863478
2226 -0.3664045
2224 -0.34329885
2222 -0.30205375
2220 -0.24641551
2218 -0.18593742
2216 -0.14042315
2214 -0.12837099
2212 -0.15103561
2210 -0.20220797
2208 -0.26671165
2206 -0.32531598
2204 -0.35299641
2202 -0.32828015
2200 -0.25107399
2198 -0.13528781
2196 -0.024541643
2194 0.036940835
2192 0.039854221
2190 -0.0080891801
2188 -0.075303085
2186 -0.12848617
2184 -0.15730879
2182 -0.16070926
2180 -0.1447058
2178 -0.11796713
2176 -0.091422401
2174 -0.075327694
2172 -0.074574001
2170 -0.08903157
2168 -0.10536929
2166 -0.10800393
2164 -0.089968577
2162 -0.050563801
2160 -0.0024840946
2158 0.039444108
2156 0.069929503
2154 0.089484975
2152 0.10866599
2150 0.13904415
2148 0.18261969
2146 0.23529072
2144 0.28194764
2142 0.30311909
2140 0.27693453
2138 0.18824317
2136 0.052653603
2134 -0.098992616
2132 -0.21831155
2130 -0.26168805
2128 -0.2297796
2126 -0.1429005
2124 -0.035599168
2122 0.058132865
2120 0.12585998
2118 0.16594148
2116 0.18789786
2114 0.20501381
2112 0.22999868
2110 0.27087587
2108 0.31765351
2106 0.3534835
2104 0.36100921
2102 0.32700425
2100 0.25501642
2098 0.15720955
2096 0.054842856
2094 -0.030539382
2092 -0.089903049
2090 -0.12243363
2088 -0.14074114
2086 -0.1593245
2084 -0.17942995
2082 -0.19493759
2080 -0.19161519
2078 -0.15542705
2076 -0.085510783
2074 0.012554698
2072 0.12906352
2070 0.25310722
2068 0.37475497
2066 0.48257428
2064 0.55708033
2062 0.57807618
2060 0.53649306
2058 0.43377209
2056 0.29539144
2054 0.15621381
2052 0.049173508
2050 -0.0009451732
2048 0.0016903321
2046 0.038553588
2044 0.082168661
2042 0.10699204
2040 0.1091384
2038 0.096014887
2036 0.082497247
2034 0.082359381
2032 0.093082413
2030 0.10512178
2028 0.11007446
2026 0.10462414
2024 0.10329892
2022 0.12352561
2020 0.16175054
2018 0.20260425
2016 0.222332
2014 0.19976558
2012 0.13828135
2010 0.051123165
2008 -0.054754987
2006 -0.17547427
2004 -0.30501875
2002 -0.4341915
2000 -0.54540634
1998 -0.61931533
1996 -0.6455121
1994 -0.62152976
1992 -0.55983627
1990 -0.48042029
1988 -0.40638259
1986 -0.35890773
1984 -0.34658939
1982 -0.36961731
1980 -0.41836143
1978 -0.47760928
1976 -0.52684855
1974 -0.54543269
1972 -0.52184153
1970 -0.45502439
1968 -0.36878765
1966 -0.29777342
1964 -0.27167049
1962 -0.30921066
1960 -0.39633042
1958 -0.50329596
1956 -0.60302514
1954 -0.6754905
1952 -0.72018898
1950 -0.74762094
1948 -0.77361065
1946 -0.81250751
1944 -0.86353314
1942 -0.91704708
1940 -0.95958829
1938 -0.98100156
1936 -0.99144518
1934 -1.0105278
1932 -1.052364
1930 -1.1207621
1928 -1.1917315
1926 -1.2264065
1924 -1.1847918
1922 -1.0401489
1920 -0.82135081
1918 -0.58650541
1916 -0.39058843
1914 -0.2748664
1912 -0.23923394
1910 -0.26344162
1908 -0.33693677
1906 -0.45217136
1904 -0.58270079
1902 -0.69041991
1900 -0.73503608
1898 -0.68644536
1896 -0.56046146
1894 -0.401806
1892 -0.26802933
1890 -0.2141673
1888 -0.26242629
1886 -0.40803149
1884 -0.61240166
1882 -0.82203996
1880 -0.99585903
1878 -1.1069793
1876 -1.15276
1874 -1.1449424
1872 -1.1007332
1870 -1.0390698
1868 -0.97684163
1866 -0.92774588
1864 -0.89694357
1862 -0.88528699
1860 -0.89663732
1858 -0.93626064
1856 -1.0052915
1854 -1.0975759
1852 -1.1864331
1850 -1.2388217
1848 -1.24638
1846 -1.2213643
1844 -1.1945871
1842 -1.1997709
1840 -1.2400188
1838 -1.2970732
1836 -1.3468128
1834 -1.364247
1832 -1.3284274
1830 -1.2271408
1828 -1.0746257
1826 -0.90561903
1824 -0.7725693
1822 -0.72699875
1820 -0.77346122
1818 -0.88222659
1816 -1.0109743
1814 -1.118583
1812 -1.1903992
1810 -1.2280048
1808 -1.2249835
1806 -1.169295
1804 -1.05654
1802 -0.89233708
1800 -0.7003417
1798 -0.51299596
1796 -0.35119712
1794 -0.22498307
1792 -0.13675
1790 -0.081512973
1788 -0.039125223
1786 0.017570328
1784 0.10263612
1782 0.21832715
1780 0.35980794
1778 0.5169428
1776 0.67186683
1774 0.79854321
1772 0.85623556
1770 0.80446631
1768 0.64848614
1766 0.43333441
1764 0.23183861
1762 0.1098066
1760 0.029779779
1758 -0.098772883
1756 -0.25915414
1754 -0.3552126
1752 -0.33006576
1750 -0.1807951
1748 0.033740513
1746 0.22205073
1744 0.32589018
1742 0.33461374
1740 0.31869921
1738 0.38587308
1736 0.55572402
1734 0.76344234
1732 0.89615589
1730 0.84048194
1728 0.60046303
1726 0.27785015
1724 -0.0037386864
1722 -0.1185945
1720 0.053857997
1718 0.59894782
1716 1.457464
1714 2.4611762
1712 3.4537652
1710 4.342267
1708 5.2088537
1706 6.2759237
1704 7.7948284
1702 9.9922543
1700 12.966035
1698 16.641077
1696 20.605999
1694 24.26639
1692 27.352468
1690 29.96777
1688 32.541588
1686 35.684898
1684 39.845108
1682 45.153393
1680 51.04372
1678 56.548672
1676 61.405014
1674 66.030182
1672 70.858208
1670 76.115211
1668 81.494087
1666 86.321297
1664 90.240906
1662 93.264458
1660 95.529602
1658 97.21357
1656 98.451256
1654 99.310829
1652 99.766083
1650 99.709122
1648 98.997002
1646 97.527428
1644 95.481941
1642 93.252129
1640 91.008499
1638 88.65786
1636 86.000816
1634 82.827507
1632 79.140244
1630 75.124123
1628 70.872589
1626 66.361839
1624 61.572403
1622 56.533802
1620 51.397472
1618 46.413692
1616 41.783199
1614 37.630344
1612 34.037682
1610 31.04196
1608 28.593565
1606 26.571814
1604 24.871063
1602 23.424778
1600 22.216394
1598 21.268841
1596 20.5975
1594 20.200375
1592 20.054583
1590 20.12229
1588 20.385426
1586 20.848942
1584 21.513926
1582 22.383219
1580 23.50786
1578 24.989681
1576 26.932943
1574 29.402723
1572 32.318409
1570 35.458164
1568 38.60828
1566 41.608593
1564 44.370842
1562 46.908218
1560 49.422565
1558 52.206734
1556 55.123856
1554 57.589912
1552 59.170471
1550 59.751888
1548 59.540951
1546 58.964893
1544 58.167339
1542 56.931938
1540 55.035622
1538 52.398399
1536 49.291512
1534 46.29504
1532 43.758682
1530 41.683216
1528 39.949165
1526 38.377197
1524 36.760048
1522 34.893543
1520 32.676598
1518 30.152645
1516 27.517687
1514 25.069048
1512 22.90168
1510 20.848543
1508 18.72023
1506 16.404551
1504 13.994572
1502 11.780091
1500 9.921319
1498 8.3658028
1496 6.9952288
1494 5.6828527
1492 4.3857846
1490 3.1620104
1488 2.0628781
1486 1.1080878
1484 0.32587004
1482 -0.23616058
1480 -0.52688003
1478 -0.48990977
1476 -0.037355125
1474 0.92371601
1472 2.3124382
1470 3.842303
1468 5.2805848
1466 6.5384612
1464 7.6506267
1462 8.7605696
1460 9.9721336
1458 11.284337
1456 12.5548
1454 13.510441
1452 13.987074
1450 14.007381
1448 13.673434
1446 13.129429
1444 12.486046
1442 11.7941
1440 11.075011
1438 10.324732
1436 9.5174541
1434 8.6153126
1432 7.6340427
1430 6.6650324
1428 5.806056
1426 5.1339726
1424 4.6823144
1422 4.4296484
1420 4.338717
1418 4.3689046
1416 4.4897256
1414 4.6872363
1412 4.9573321
1410 5.3027277
1408 5.7175393
1406 6.1791935
1404 6.6486654
1402 7.0685878
1400 7.3780122
1398 7.5211959
1396 7.4689932
1394 7.2334256
1392 6.8576417
1390 6.413897
1388 5.9629307
1386 5.5371251
1384 5.1505823
1382 4.7984767
1380 4.4648118
1378 4.1225066
1376 3.7386913
1374 3.2802644
1372 2.74137
1370 2.1575177
1368 1.5736817
1366 1.0319061
1364 0.55606133
1362 0.14554894
1360 -0.19031362
1358 -0.41925108
1356 -0.51111096
1354 -0.44838205
1352 -0.2240112
1350 0.15549177
1348 0.67204523
1346 1.2946321
1344 1.992976
1342 2.7361577
1340 3.4555962
1338 4.0272741
1336 4.3462853
1334 4.3690085
1332 4.1255355
1330 3.7386391
1328 3.3204634
1326 2.9293628
1324 2.6004865
1322 2.3494639
1320 2.1807227
1318 2.0847132
1316 2.0352299
1314 1.9850564
1312 1.8936663
1310 1.7429035
1308 1.534878
1306 1.2985828
1304 1.0734162
1302 0.90572059
1300 0.83798516
1298 0.90111899
1296 1.1080714
1294 1.4444451
1292 1.8860922
1290 2.4031868
1288 2.96666
1286 3.550715
1284 4.1261334
1282 4.6567879
1280 5.1088028
1278 5.4575801
1276 5.6951756
1274 5.8420358
1272 5.9341054
1270 6.0236826
1268 6.162271
1266 6.3912182
1264 6.7373633
1262 7.2041883
1260 7.7838402
1258 8.4572296
1256 9.204957
1254 10.01226
1252 10.869078
1250 11.771927
1248 12.7184
1246 13.706249
1244 14.722294
1242 15.728717
1240 16.672085
1238 17.47603
1236 18.057371
1234 18.339622
1232 18.261721
1230 17.796494
1228 16.954803
1226 15.806322
1224 14.4416
1222 12.968111
1220 11.496611
1218 10.136481
1216 8.9840145
1214 8.109827
1212 7.5514488
1210 7.2926769
1208 7.2862115
1206 7.4466386
1204 7.6719441
1202 7.8462944
1200 7.8638082
1198 7.6513233
1196 7.1806068
1194 6.5038552
1192 5.7008233
1190 4.8675852
1188 4.0844789
1186 3.3889735
1184 2.8021216
1182 2.3297262
1180 1.970594
1178 1.7147005
1176 1.5485799
1174 1.455584
1172 1.4204082
1170 1.432331
1168 1.4826241
1166 1.5635208
1164 1.6667377
1162 1.780794
1160 1.8863691
1158 1.9488738
1156 1.9343615
1154 1.8203057
1152 1.6009446
1150 1.3029408
1148 0.9651196
1146 0.63515925
1144 0.35746557
1142 0.16149224
1140 0.056040123
1138 0.01041102
1136 -0.011193195
1134 -0.03345263
1132 -0.070258103
1130 -0.11540009
1128 -0.15169995
1126 -0.14815836
1124 -0.079689965
1122 0.054869741
1120 0.2355876
1118 0.40714771
1116 0.52515358
1114 0.59315026
1112 0.62990171
1110 0.66192698
1108 0.70354235
1106 0.73587304
1104 0.74936664
1102 0.77760535
1100 0.85978395
1098 1.021574
1096 1.2692857
1094 1.5693439
1092 1.891238
1090 2.2368288
1088 2.6148479
1086 3.0301757
1084 3.4696658
1082 3.8762562
1080 4.1880236
1078 4.3607821
1076 4.3760142
1074 4.2731848
1072 4.1080399
1070 3.9427011
1068 3.8262265
1066 3.7680128
1064 3.760716
1062 3.777077
1060 3.7867851
1058 3.7633843
1056 3.6848743
1054 3.5399659
1052 3.3333495
1050 3.107589
1048 2.9181001
1046 2.8289251
1044 2.8836234
1042 3.0605235
1040 3.3107581
1038 3.5541615
1036 3.7202499
1034 3.7891257
1032 3.7657406
1030 3.6909015
1028 3.60425
1026 3.5166893
1024 3.4249673
1022 3.305567
1020 3.1381416
1018 2.9270418
1016 2.6826942
1014 2.4170854
1012 2.1383233
1010 1.8430943
1008 1.531716
1006 1.2244478
1004 0.94523335
1002 0.71344221
1000 0.54068792
998 0.41821712
996 0.33418071
994 0.28273818
992 0.26127988
990 0.27254954
988 0.31618077
986 0.37743121
984 0.43415543
982 0.45230874
980 0.40583599
978 0.30470255
976 0.17433
974 0.061289854
972 0.0048527592
970 0.0022847839
968 0.036286432
966 0.0758017
964 0.095270857
962 0.09943451
960 0.10162777
958 0.11857061
956 0.15792286
954 0.19323601
952 0.19621
950 0.16179311
948 0.097077459
946 0.031816293
944 0.0069950223
942 0.082696423
940 0.29648557
938 0.58819127
936 0.88471943
934 1.1543723
932 1.3803185
930 1.5624564
928 1.6988291
926 1.7636771
924 1.738022
922 1.648885
920 1.5414194
918 1.4860895
916 1.5442529
914 1.716888
912 1.9803668
910 2.2742801
908 2.541616
906 2.7763922
904 2.9993439
902 3.2871485
900 3.6946642
898 4.1364079
896 4.4913998
