##TITLE=Methyl Ethyl Ketone
##JCAMP-DX=4.24
##DATA TYPE=INFRARED SPECTRUM
##XUNITS=cm-1
##YUNITS=Absorbance
##FIRSTX=900
##LASTX=2300
##XYDATA=(X++(Y..Y))
2296 0.18502
2294 0.18887448
2292 0.192719
2290 0.19657347
2288 0.20041801
2286 0.20427243
2284 0.20811699
2282 0.2119714
2280 0.21581599
2278 0.21967037
2276 0.223515
2274 0.2273595
2272 0.23121382
2270 0.2350585
2268 0.23891279
2266 0.2427575
2264 0.24661177
2262 0.25045651
2260 0.25431073
2258 0.25815552
2256 0.26200971
2254 0.26585448
2252 0.26970866
2250 0.27355349
2248 0.27740765
2246 0.2812525
2244 0.13235897
2242 0.0048835282
2240 -0.1142208
2238 -0.14737289
2236 -0.16786729
2234 -0.12357251
2232 -0.074813515
2230 -0.030219689
2228 0.010805603
2226 0.0250575
2224 0.026511183
2222 -0.024239324
2220 -0.0880007
2218 -0.1828312
2216 -0.26461971
2214 -0.31409022
2212 -0.34152681
2210 -0.33614519
2208 -0.32849273
2206 -0.32052431
2204 -0.29760584
2202 -0.26031089
2200 -0.18870252
2198 -0.092153564
2196 -0.033151999
2194 0.0032477558
2192 -0.075139418
2190 -0.20321085
2188 -0.34872848
2186 -0.498864
2184 -0.53817123
2182 -0.55192274
2180 -0.510934
2178 -0.46223336
2176 -0.43450227
2174 -0.40957811
2172 -0.39419428
2170 -0.3856118
2168 -0.41080245
2166 -0.45351478
2164 -0.54810989
2162 -0.64744312
2160 -0.74569285
2158 -0.81486052
2156 -0.82910198
2154 -0.81113493
2152 -0.75474185
2150 -0.70805162
2148 -0.67679757
2146 -0.70062429
2144 -0.77170664
2142 -0.86760831
2140 -0.97733802
2138 -1.023061
2136 -1.0332344
2134 -0.96720105
2132 -0.87057161
2130 -0.75249511
2128 -0.62847042
2126 -0.55874866
2124 -0.50176179
2122 -0.54838991
2120 -0.61260873
2118 -0.70002294
2116 -0.78654772
2114 -0.84198868
2112 -0.89752924
2110 -0.97352099
2108 -1.0547329
2106 -1.1427079
2104 -1.2047595
2102 -1.2077037
2100 -1.178692
2098 -1.1109091
2096 -1.0397286
2094 -0.97154832
2092 -0.93077505
2090 -0.91791666
2088 -0.95778507
2086 -1.0380105
2084 -1.1199738
2082 -1.1993937
2080 -1.2173355
2078 -1.2029495
2076 -1.1518886
2074 -1.0871974
2072 -1.01706
2070 -0.9455241
2068 -0.87343967
2066 -0.80213374
2064 -0.77863318
2062 -0.76947719
2060 -0.81297386
2058 -0.86215073
2056 -0.88550627
2054 -0.89949208
2052 -0.89786261
2050 -0.9109292
2048 -0.96943283
2046 -1.0507268
2044 -1.1587881
2042 -1.263431
2040 -1.3554794
2038 -1.4189667
2036 -1.4514229
2034 -1.4507912
2032 -1.4236155
2030 -1.3951629
2028 -1.3692814
2026 -1.3662565
2024 -1.3774966
2022 -1.3987595
2020 -1.4240137
2018 -1.4381561
2016 -1.44752
2014 -1.4454669
2012 -1.4398766
2010 -1.4662317
2008 -1.5034034
2006 -1.5755007
2004 -1.6531608
2002 -1.707041
2000 -1.7420977
1998 -1.7213287
1996 -1.6776786
1994 -1.6067826
1992 -1.5464731
1990 -1.5263512
1988 -1.543834
1986 -1.6112186
1984 -1.6968
1982 -1.7910789
1980 -1.890206
1978 -1.9921725
1976 -2.0527601
1974 -2.0741951
1972 -1.9517924
1970 -1.7251294
1968 -1.4711646
1966 -1.2120564
1964 -1.1951746
1962 -1.3069197
1960 -1.51696
1958 -1.7627877
1956 -1.8473043
1954 -1.8700632
1952 -1.8091264
1950 -1.7271702
1948 -1.6892657
1946 -1.683
1944 -1.771456
1942 -1.8925755
1940 -2.0279746
1938 -2.1331162
1936 -2.1482344
1934 -2.1307421
1932 -2.100318
1930 -2.088815
1928 -2.1123731
1926 -2.0745294
1924 -1.9430312
1922 -1.6763663
1920 -1.2909034
1918 -0.97415096
1916 -0.74676645
1914 -0.68773228
1912 -0.74173009
1910 -0.81301445
1908 -0.8810907
1906 -0.95566583
1904 -1.0343044
1902 -1.105291
1900 -1.1728072
1898 -1.1435893
1896 -1.0739714
1894 -0.9733398
1892 -0.87173647
1890 -0.84691471
1888 -0.87814879
1886 -1.0257617
1884 -1.2400917
1882 -1.5261189
1880 -1.8083417
1878 -2.0204687
1876 -2.0973902
1874 -1.9672843
1872 -1.6575835
1870 -1.179328
1868 -0.7531119
1866 -0.46010306
1864 -0.44009286
1862 -0.67006087
1860 -0.97219628
1858 -1.2801394
1856 -1.4734114
1854 -1.5759012
1852 -1.5304171
1850 -1.3963574
1848 -1.129964
1846 -0.79273534
1844 -0.6190576
1842 -0.54201972
1840 -0.76878762
1838 -1.1307689
1836 -1.4227043
1834 -1.637544
1832 -1.6120458
1830 -1.4339712
1828 -1.0959214
1826 -0.74631149
1824 -0.55643481
1822 -0.56892067
1820 -0.87098581
1818 -1.2755969
1816 -1.6597114
1814 -1.884372
1812 -1.8887653
1810 -1.7397084
1808 -1.494092
1806 -1.23648
1804 -0.9972257
1802 -0.77692211
1800 -0.56841356
1798 -0.37626976
1796 -0.19480142
1794 -0.079725683
1792 -0.011903401
1790 -0.052246384
1788 -0.15887895
1786 -0.23232915
1784 -0.27545682
1782 -0.18729788
1780 -0.0090278126
1778 0.28899586
1776 0.64579457
1774 0.98156416
1772 1.2077446
1770 1.1181991
1768 0.83958089
1766 0.4701685
1764 0.16884091
1762 0.088550985
1760 0.03596713
1758 -0.1236108
1756 -0.24861287
1754 -0.26590031
1752 0.049427316
1750 0.72696602
1748 1.5525248
1746 2.4165106
1744 2.8547914
1742 2.8757524
1740 2.7017412
1738 2.4363804
1736 2.4201801
1734 2.6079633
1732 2.5842323
1730 2.3790367
1728 1.7198309
1726 0.79261738
1724 0.13077253
1722 -0.23610285
1720 0.10511634
1718 1.0550869
1716 2.5246615
1714 4.1048932
1712 5.1991611
1710 5.9561348
1708 6.5417018
1706 7.337667
1704 8.6993904
1702 10.852987
1700 13.87666
1698 17.513481
1696 21.511999
1694 25.10144
1692 28.019947
1690 30.657364
1688 33.211914
1686 36.527
1684 40.631645
1682 45.222664
1680 50.123638
1678 54.191998
1676 57.524899
1674 60.957787
1672 64.553154
1670 68.746231
1668 73.354401
1666 77.735199
1664 81.883499
1662 85.732811
1660 89.304001
1658 92.626564
1656 95.686371
1654 98.466248
1652 100.7716
1650 102.38322
1648 102.74514
1646 101.435
1644 99.026512
1642 96.111824
1640 92.958336
1638 89.761047
1636 86.04744
1634 81.677643
1632 77.075432
1630 72.417397
1628 68.025276
1626 63.939342
1624 59.706638
1622 55.278358
1620 50.863674
1618 46.492455
1616 42.413372
1614 38.652786
1612 35.366974
1610 32.567291
1608 30.217875
1606 28.283587
1604 26.583246
1602 25.129078
1600 23.903933
1598 22.92774
1596 22.192501
1594 21.679123
1592 21.32925
1590 21.124626
1588 21.027769
1586 21.078915
1584 21.295074
1582 21.721729
1580 22.369238
1578 23.318701
1576 24.586172
1574 26.098989
1572 27.819311
1570 29.447809
1568 30.917
1566 32.225185
1564 33.378666
1562 34.775444
1560 36.512302
1558 39.029793
1556 42.28717
1554 45.247478
1552 47.74818
1550 49.43861
1548 50.447029
1546 51.494358
1544 52.573425
1542 53.657803
1540 54.39098
1538 54.234875
1536 53.261288
1534 51.707447
1532 49.954784
1530 48.434113
1528 47.123798
1526 45.99535
1524 44.887379
1522 43.696724
1520 42.13179
1518 40.0298
1516 37.695702
1514 35.204834
1512 32.853401
1510 30.731808
1508 28.332119
1506 25.548357
1504 22.731075
1502 19.929434
1500 17.582289
1498 15.73464
1496 13.887428
1494 12.040077
1492 10.180935
1490 8.3407974
1488 6.5957561
1486 4.9461999
1484 3.3506861
1482 1.9201789
1480 0.81300986
1478 0.13939273
1476 0.033081263
1474 0.51573575
1472 1.4775383
1470 2.5082259
1468 3.3192024
1466 3.9197757
1464 4.290709
1462 4.7161393
1460 5.3400817
1458 6.0669317
1456 6.8963599
1454 7.4327564
1452 7.4870625
1450 7.3249722
1448 6.8730607
1446 6.4120502
1444 5.941824
1442 5.48528
1440 5.0613503
1438 4.7078099
1436 4.4333
1434 4.1639953
1432 3.8904779
1430 3.5824287
1428 3.2821639
1426 3.093457
1424 3.049916
1422 3.180057
1420 3.4490569
1418 3.7941279
1416 4.1413374
1414 4.4063454
1412 4.6156478
1410 4.7852416
1408 4.977016
1406 5.2400284
1404 5.5513077
1402 5.9202986
1400 6.2891679
1398 6.6402888
1396 6.9111285
1394 7.0311289
1392 7.0424447
1390 6.8680921
1388 6.6389489
1386 6.3222499
1384 5.9582152
1382 5.5364614
1380 5.1216745
1378 4.731813
1376 4.4032145
1374 4.1331048
1372 3.853982
1370 3.5523376
1368 3.205987
1366 2.8223307
1364 2.4268506
1362 2.0193336
1360 1.5956892
1358 1.1824052
1356 0.81237984
1354 0.49442017
1352 0.26596844
1350 0.086721174
1348 -0.029816829
1346 -0.073031604
1344 -0.0075824782
1342 0.14907183
1340 0.47787523
1338 0.77790964
1336 0.99389029
1334 1.0651677
1332 0.87733465
1330 0.68011653
1328 0.49041602
1326 0.41995236
1324 0.53822666
1322 0.79298061
1320 1.2121931
1318 1.669577
1316 2.12363
1314 2.4348304
1312 2.5852337
1310 2.5872018
1308 2.4844103
1306 2.3674927
1304 2.2529588
1302 2.1689839
1300 2.1097081
1298 2.0819473
1296 2.0786142
1294 2.1126528
1292 2.1619141
1290 2.2279623
1288 2.293556
1286 2.3510621
1284 2.4000213
1282 2.4268203
1280 2.4434915
1278 2.4391453
1276 2.4458272
1274 2.4786661
1272 2.542583
1270 2.6573634
1268 2.7792554
1266 2.911005
1264 3.0474367
1262 3.1979389
1260 3.389396
1258 3.6301744
1256 3.9156857
1254 4.2481675
1252 4.6283083
1250 5.0469236
1248 5.4974675
1246 5.9502497
1244 6.3560944
1242 6.7228642
1240 7.0172224
1238 7.2738457
1236 7.4720597
1234 7.6196771
1232 7.6386638
1230 7.5902181
1228 7.36519
1226 7.0995569
1224 6.7311692
1222 6.3526983
1220 5.9516368
1218 5.5563731
1216 5.1719546
1214 4.7872367
1212 4.39854
1210 3.9892097
1208 3.5497246
1206 3.0940206
1204 2.6225779
1202 2.1604373
1200 1.7103519
1198 1.2775843
1196 0.86024785
1194 0.45614743
1192 0.068975076
1190 -0.27839562
1188 -0.58390379
1186 -0.78845578
1184 -0.93629086
1182 -0.98673463
1180 -1.0048282
1178 -0.98037881
1176 -0.93091798
1174 -0.80310714
1172 -0.64915156
1170 -0.4126519
1168 -0.18082605
1166 0.035087585
1164 0.23635137
1162 0.40120268
1160 0.55567759
1158 0.68656397
1156 0.79246026
1154 0.85072649
1152 0.85542881
1150 0.78253275
1148 0.65315044
1146 0.46697003
1144 0.28786445
1142 0.1273734
1140 0.036897868
1138 0.0077403709
1136 0.059751742
1134 0.17353711
1132 0.42772394
1130 0.76579118
1128 1.2626514
1126 1.8078564
1124 2.3792686
1122 2.9213505
1120 3.2834921
1118 3.5976577
1116 3.7438357
1114 3.8781109
1112 3.9744196
1110 4.0712261
1108 4.1692491
1106 4.2659101
1104 4.3567553
1102 4.4269614
1100 4.4595785
1098 4.5052361
1096 4.5815144
1094 4.7398462
1092 5.0074959
1090 5.3499794
1088 5.7663813
1086 6.1984253
1084 6.6340451
1082 7.0113101
1080 7.3377042
1078 7.548018
1076 7.6896515
1074 7.7123528
1072 7.6912851
1070 7.6344213
1068 7.5776348
1066 7.5797901
1064 7.5935478
1062 7.6365051
1060 7.677496
1058 7.6972995
1056 7.7212
1054 7.7654195
1052 7.8392644
1050 8.0095387
1048 8.2140617
1046 8.4958105
1044 8.7356529
1042 8.8881083
1040 8.9326553
1038 8.8205957
1036 8.6891603
1034 8.5435686
1032 8.4745836
1030 8.4734144
1028 8.4725533
1026 8.4622107
1024 8.350523
1022 8.1674633
1020 7.7914543
1018 7.3160014
1016 6.5712686
1014 5.7573476
1012 4.9776859
1010 4.2427239
1008 3.9494481
1006 3.7133358
1004 3.7155368
1002 3.6937633
1000 3.4933298
998 3.2526748
996 2.8346715
994 2.3997331
992 1.9112263
990 1.4048071
988 0.85849971
986 0.32653826
984 -0.17228594
982 -0.53721082
980 -0.71438378
978 -0.73077059
976 -0.57977831
974 -0.3942934
972 -0.18290485
970 0.0018990487
968 0.1693784
966 0.311656
964 0.44007802
962 0.51859355
960 0.57996202
958 0.62064534
956 0.65482587
954 0.64377481
952 0.62074357
950 0.44137967
948 0.25807858
946 0.10960899
944 0.00048449883
942 0.0074276924
940 0.23893756
938 0.64711905
936 1.0209143
934 1.2928456
932 1.5200994
930 1.6519673
928 1.7778583
926 1.8936728
924 1.9945561
922 2.0782721
920 2.2174742
918 2.4091475
916 2.6605999
914 2.9527466
912 3.1343138
910 3.2572038
908 3.3173127
906 3.3533278
904 3.3291731
902 3.2895694
900 3.2591176
898 3.230871
896 3.6300001
