##TITLE=Methyl Ethyl Ketone
##JCAMP-DX=4.24
##DATA TYPE=INFRARED SPECTRUM
##XUNITS=cm-1
##YUNITS=Absorbance
##FIRSTX=900
##LASTX=2300
##XYDATA=(X++(Y..Y))
2296 0.17404
2294 0.1777347
2292 0.18142943
2290 0.18512414
2288 0.1888288
2286 0.19252357
2284 0.1962183
2282 0.19992289
2280 0.20361771
2278 0.20731243
2276 0.21100715
2274 0.21471171
2272 0.21840657
2270 0.22210129
2268 0.2258058
2266 0.22950071
2264 0.23319544
2262 0.23689015
2260 0.2405946
2258 0.24428956
2256 0.24798429
2254 0.25168869
2252 0.2553837
2250 0.25907844
2248 0.26277313
2246 0.2664775
2244 0.14265177
2242 0.0053178426
2240 -0.1429248
2238 -0.19858192
2236 -0.24039401
2234 -0.21128131
2232 -0.17653589
2230 -0.12926003
2228 -0.082868934
2226 -0.047641501
2224 -0.029294617
2222 -0.085004732
2220 -0.17449448
2218 -0.35449225
2216 -0.52987653
2214 -0.68403155
2212 -0.7654646
2210 -0.73031336
2208 -0.63320851
2206 -0.46781728
2204 -0.31527099
2202 -0.17937429
2200 -0.084601805
2198 -0.01978663
2196 0.0087013571
2194 0.017449163
2192 -0.024436336
2190 -0.087909408
2188 -0.17105137
2186 -0.26014078
2184 -0.3163172
2182 -0.36485595
2180 -0.38632494
2178 -0.40315664
2176 -0.36486173
2174 -0.31778842
2172 -0.2282218
2170 -0.143571
2168 -0.10991675
2166 -0.09866216
2164 -0.15074608
2162 -0.21975894
2160 -0.31599829
2158 -0.40527123
2156 -0.47622401
2154 -0.50334889
2152 -0.46970841
2150 -0.38819134
2148 -0.25984651
2146 -0.13938285
2144 -0.030179907
2142 0.0034199499
2140 -0.014637806
2138 -0.077615507
2136 -0.16224155
2134 -0.2142178
2132 -0.25182068
2130 -0.264339
2128 -0.26934838
2126 -0.25599858
2124 -0.23839669
2122 -0.16951436
2120 -0.091186889
2118 0.011236985
2116 0.11410166
2114 0.19368841
2112 0.26372382
2110 0.30553731
2108 0.33272094
2106 0.32835549
2104 0.3075
2102 0.26086926
2100 0.21235779
2098 0.16728196
2096 0.11909
2094 0.066502996
2092 -0.00059744623
2090 -0.082048617
2088 -0.14410792
2086 -0.18910199
2084 -0.20456426
2082 -0.20231703
2080 -0.24145314
2078 -0.30321863
2076 -0.41433701
2074 -0.54468614
2072 -0.57874519
2070 -0.58082747
2068 -0.46920907
2066 -0.33232352
2064 -0.32914388
2062 -0.36435041
2060 -0.53358334
2058 -0.71058351
2056 -0.78516084
2054 -0.80763328
2052 -0.71283835
2050 -0.59613007
2048 -0.4793328
2046 -0.38263428
2044 -0.32335702
2042 -0.28220126
2040 -0.26033702
2038 -0.23747548
2036 -0.21236901
2034 -0.19592048
2032 -0.18770228
2030 -0.21374129
2028 -0.2636188
2026 -0.32134578
2024 -0.38017684
2022 -0.38768095
2020 -0.36751565
2018 -0.32182297
2016 -0.26829401
2014 -0.26249698
2012 -0.2752887
2010 -0.30374652
2008 -0.33595541
2006 -0.34822929
2004 -0.35892805
2002 -0.3874774
2000 -0.42315555
1998 -0.46023616
1996 -0.49514571
1994 -0.51624852
1992 -0.53201556
1990 -0.55277371
1988 -0.55896038
1986 -0.54987037
1984 -0.53574824
1982 -0.51929837
1980 -0.53946191
1978 -0.59646934
1976 -0.6427446
1974 -0.6687628
1972 -0.57737648
1970 -0.39709476
1968 -0.21907131
1966 -0.053280395
1964 -0.095397756
1962 -0.24939701
1960 -0.44891641
1958 -0.66320348
1956 -0.73751855
1954 -0.76106191
1952 -0.74335164
1950 -0.72235125
1948 -0.74891645
1946 -0.79851502
1944 -0.89777559
1942 -1.0011927
1940 -1.1008968
1938 -1.1827914
1936 -1.2294629
1934 -1.2672967
1932 -1.295478
1930 -1.3309997
1928 -1.3694589
1926 -1.3553685
1924 -1.2635055
1922 -1.0397131
1920 -0.70257014
1918 -0.39508781
1916 -0.15221363
1914 -0.069134928
1912 -0.095796801
1910 -0.15873638
1908 -0.22761329
1906 -0.31071907
1904 -0.40333042
1902 -0.48328796
1900 -0.56059158
1898 -0.52870202
1896 -0.45193145
1894 -0.32128751
1892 -0.17690997
1890 -0.09984231
1888 -0.079310782
1886 -0.21147804
1884 -0.42428905
1882 -0.7142418
1880 -1.0077541
1878 -1.2346004
1876 -1.38462
1874 -1.413609
1872 -1.3425349
1870 -1.168274
1868 -0.97418404
1866 -0.82162386
1864 -0.77817625
1862 -0.86077642
1860 -0.98122615
1858 -1.0967908
1856 -1.1826315
1854 -1.2355349
1852 -1.2707417
1850 -1.2881957
1848 -1.228732
1846 -1.1139393
1844 -1.0123795
1842 -0.91592938
1840 -0.97383571
1838 -1.113013
1836 -1.2564542
1834 -1.389258
1832 -1.3874418
1830 -1.2729005
1828 -0.99073082
1826 -0.64424068
1824 -0.37088531
1822 -0.24303895
1820 -0.35656801
1818 -0.59849882
1816 -0.8725723
1814 -1.0973713
1812 -1.2217846
1810 -1.2455367
1808 -1.1942199
1806 -1.0522109
1804 -0.84149057
1802 -0.6247552
1800 -0.40827578
1798 -0.25701383
1796 -0.15455857
1794 -0.022608485
1792 0.12205967
1790 0.27345356
1788 0.41015932
1786 0.44980678
1784 0.42503941
1782 0.40521762
1780 0.40028751
1778 0.5231958
1776 0.72810543
1774 0.99718058
1772 1.2339909
1770 1.203794
1768 1.0030751
1766 0.66812807
1764 0.34407741
1762 0.19987226
1760 0.0672144
1758 -0.15095466
1756 -0.31568384
1754 -0.35576192
1752 -0.13075849
1750 0.38087451
1748 0.95926768
1746 1.5037
1744 1.7370594
1742 1.655333
1740 1.5101526
1738 1.3755282
1736 1.51826
1734 1.8914615
1732 2.0559108
1730 2.0314057
1728 1.5343709
1726 0.730497
1724 0.14945138
1722 -0.19384325
1720 0.10062778
1718 0.95978445
1716 2.2820745
1714 3.7394896
1712 4.7760887
1710 5.48174
1708 6.0042958
1706 6.684319
1704 7.8870397
1702 9.9302387
1700 12.942612
1698 16.748724
1696 21.044714
1694 24.85708
1692 27.855728
1690 30.447649
1688 32.907433
1686 36.208958
1684 40.397812
1682 45.207092
1680 50.407639
1678 54.706863
1676 58.193115
1674 61.693565
1672 65.312332
1670 69.589447
1668 74.359726
1666 79.035202
1664 83.566246
1662 87.836021
1660 91.839661
1658 95.592049
1656 99.052689
1654 102.18804
1652 104.7056
1650 106.26627
1648 106.39474
1646 104.67107
1644 101.80974
1642 98.554962
1640 95.122101
1638 91.70771
1636 87.808426
1634 83.245384
1632 78.463638
1630 73.631493
1628 69.08374
1626 64.88324
1624 60.611961
1622 56.222473
1620 51.92252
1618 47.727379
1616 43.74506
1614 39.988224
1612 36.601269
1610 33.610901
1608 31.119036
1606 29.105143
1604 27.407116
1602 26.014326
1600 24.840561
1598 23.887241
1596 23.129
1594 22.568691
1592 22.174372
1590 21.942181
1588 21.839756
1586 21.88945
1584 22.104057
1582 22.50527
1580 23.106182
1578 23.945578
1576 25.021515
1574 26.285252
1572 27.683208
1570 29.027897
1568 30.267321
1566 31.409029
1564 32.470432
1562 33.865395
1560 35.697617
1558 38.28627
1556 41.614185
1554 44.541519
1552 46.900703
1550 48.529274
1548 49.516865
1546 50.579109
1544 51.674892
1542 52.676815
1540 53.30098
1538 52.984024
1536 51.845428
1534 50.19714
1532 48.319092
1530 46.666843
1528 45.20055
1526 43.877602
1524 42.550468
1522 41.092018
1520 39.388584
1518 37.297352
1516 35.109856
1514 32.925846
1512 30.836279
1510 28.947502
1508 26.729895
1506 24.06605
1504 21.251812
1502 18.280281
1500 15.803638
1498 13.89444
1496 12.127286
1494 10.514465
1492 8.8877239
1490 7.2773919
1488 5.7099943
1486 4.2195101
1484 2.8528779
1482 1.6549489
1480 0.74397278
1478 0.18015604
1476 0.031272963
1474 0.37039226
1472 1.0938237
1470 1.942112
1468 2.7047541
1466 3.3323879
1464 3.8472772
1462 4.4374542
1460 5.2280779
1458 6.1057754
1456 7.0392199
1454 7.6631641
1452 7.7424607
1450 7.6031728
1448 7.159976
1446 6.7281284
1444 6.3203082
1442 5.9268627
1440 5.5733094
1438 5.2527719
1436 4.9851356
1434 4.6719546
1432 4.3212914
1430 3.9386868
1428 3.5527461
1426 3.3096936
1424 3.2318079
1422 3.346905
1420 3.6290367
1418 3.9822702
1416 4.335897
1414 4.5894079
1412 4.7568645
1410 4.8992224
1408 5.0663338
1406 5.3207564
1404 5.6263399
1402 5.9587588
1400 6.2890801
1398 6.5908408
1396 6.8344855
1394 6.9527235
1392 6.9699974
1390 6.7689476
1388 6.4866762
1386 6.0709848
1384 5.6223311
1382 5.1404977
1380 4.68644
1378 4.2832236
1376 3.9137831
1374 3.60274
1372 3.29059
1370 2.9782505
1368 2.6772766
1366 2.3591123
1364 2.0301893
1362 1.6863477
1360 1.2955217
1358 0.90805864
1356 0.57450229
1354 0.2932024
1352 0.12875617
1350 0.029265974
1348 -0.00043628365
1346 0.022076428
1344 0.1424216
1342 0.33962655
1340 0.6893549
1338 1.0261953
1336 1.3025914
1334 1.4867679
1332 1.4479511
1330 1.3978961
1328 1.337956
1326 1.3559629
1324 1.5215925
1322 1.7709337
1320 2.1433938
1318 2.5423746
1316 2.95174
1314 3.2778945
1312 3.4894862
1310 3.5917275
1308 3.5959632
1306 3.5814929
1304 3.5571835
1302 3.5444131
1300 3.5304639
1298 3.4812379
1296 3.4184999
1294 3.3318408
1292 3.264823
1290 3.2560911
1288 3.2818761
1286 3.3713214
1284 3.4588709
1282 3.5211878
1280 3.5649664
1278 3.5664456
1276 3.57812
1274 3.625844
1272 3.7253914
1270 3.9233544
1268 4.1707478
1266 4.4795613
1264 4.7944899
1262 5.1068554
1260 5.4132342
1258 5.7160311
1256 6.0275712
1254 6.3436084
1252 6.6538386
1250 6.9593191
1248 7.2640905
1246 7.5758753
1244 7.9023466
1242 8.2312078
1240 8.5411711
1238 8.8286448
1236 9.0619116
1234 9.2538395
1232 9.347888
1230 9.3818455
1228 9.2537632
1226 9.0582075
1224 8.6812935
1222 8.2569017
1220 7.7207994
1218 7.183363
1216 6.6450486
1214 6.1251316
1212 5.6375184
1210 5.1605639
1208 4.7011614
1206 4.2623439
1204 3.8484199
1202 3.4552357
1200 3.0783176
1198 2.6907144
1196 2.2934215
1194 1.8833683
1192 1.4718525
1190 1.0844111
1188 0.71411276
1186 0.36973578
1184 0.041797429
1182 -0.254109
1180 -0.51302224
1178 -0.64732647
1176 -0.71543396
1174 -0.58181489
1172 -0.41161594
1170 -0.14981848
1168 0.093479753
1166 0.27617642
1164 0.44813237
1162 0.59557593
1160 0.75251436
1158 0.92401701
1156 1.0623686
1154 1.1390996
1152 1.1497977
1150 1.0695946
1148 0.94219321
1146 0.7631011
1144 0.56652969
1142 0.36050674
1140 0.18677545
1138 0.05006595
1136 -0.0012989531
1134 0.013113752
1132 0.11379418
1130 0.27315629
1128 0.56975365
1126 0.92704332
1124 1.409508
1122 1.9168334
1120 2.4381759
1118 2.9408419
1116 3.3346272
1114 3.6897633
1112 3.8909547
1110 4.0768552
1108 4.2166929
1106 4.3722048
1104 4.5628023
1102 4.7376919
1100 4.8792706
1098 4.997963
1096 5.0914283
1094 5.2542906
1092 5.5178723
1090 5.9063911
1088 6.4234848
1086 7.0056801
1084 7.6296263
1082 8.197464
1080 8.7033157
1078 8.9986334
1076 9.168479
1074 9.1132479
1072 8.9800224
1070 8.8179331
1068 8.6553965
1066 8.5415974
1064 8.4307804
1062 8.2976007
1060 8.1763191
1058 8.1391964
1056 8.1355743
1054 8.2776127
1052 8.4179106
1050 8.5536203
1048 8.682579
1046 8.7990532
1044 8.9528627
1042 9.1737041
1040 9.3960295
1038 9.6143456
1036 9.7795296
1034 9.8764124
1032 9.879981
1030 9.7874727
1028 9.5404644
1026 9.1817083
1024 8.7533035
1022 8.2951965
1020 7.9117684
1018 7.5600152
1016 7.2483659
1014 6.9393806
1012 6.5421214
1010 6.1167259
1008 5.5383639
1006 4.9484835
1004 4.3712149
1002 3.8262036
1000 3.5002782
998 3.1952722
996 2.9790001
994 2.7274461
992 2.3637064
990 1.9665542
988 1.4943905
986 1.0458409
984 0.64374316
982 0.31089476
980 0.077467591
978 -0.053938586
976 -0.077600405
974 -0.043011285
972 0.033390123
970 0.033387393
968 -0.013203703
966 -0.086362302
964 -0.1629189
962 -0.074785829
960 0.06880343
958 0.28134885
956 0.49972802
954 0.53412843
952 0.53872919
950 0.36550191
948 0.18985549
946 0.084398903
944 0.004765993
942 0.0039326698
940 0.12931782
938 0.43614212
936 0.77556288
934 1.210852
932 1.6352217
930 2.0349045
928 2.3869269
926 2.6625106
924 2.8997359
922 3.0898337
920 3.20332
918 3.2433257
916 3.161083
914 2.9926786
912 2.8670447
910 2.7684031
908 2.8993096
906 3.1217506
904 3.3385491
902 3.5560386
900 3.5882096
898 3.5917237
896 3.7479999
