##TITLE=Methyl Ethyl Ketone
##JCAMP-DX=4.24
##DATA TYPE=INFRARED SPECTRUM
##XUNITS=cm-1
##YUNITS=Absorbance
##FIRSTX=900
##LASTX=2300
##XYDATA=(X++(Y..Y))
2296 0.015507
2294 0.015836529
2292 0.016166057
2290 0.016495585
2288 0.016825115
2286 0.017154643
2284 0.017484171
2282 0.017813699
2280 0.018143227
2278 0.018472757
2276 0.018802285
2274 0.019131815
2272 0.019461343
2270 0.01978891
2268 0.02011938
2266 0.020453822
2264 0.020778572
2262 0.021090424
2260 0.021437053
2258 0.021835143
2256 0.022098571
2254 0.022174869
2252 0.022747489
2250 0.024020385
2248 0.02344784
2246 0.017917035
2244 0.0051111258
2242 -0.014510313
2240 -0.03020696
2238 -0.031743478
2236 -0.022616442
2234 -0.0089568375
2232 0.0083388733
2230 0.031007977
2228 0.065183543
2226 0.11385715
2224 0.16223137
2222 0.19116424
2220 0.18494187
2218 0.13764454
2216 0.078634799
2214 0.043412305
2212 0.049689021
2210 0.10120295
2208 0.16729109
2206 0.21310185
2204 0.22881576
2202 0.21653873
2200 0.19511719
2198 0.1844867
2196 0.18852642
2194 0.20369647
2192 0.21691279
2190 0.21450636
2188 0.19220139
2186 0.15318957
2184 0.1186112
2182 0.1129222
2180 0.1506664
2178 0.23671575
2176 0.34984684
2174 0.46206218
2172 0.55199927
2170 0.60498971
2168 0.62399715
2166 0.61819381
2164 0.59850246
2162 0.57613832
2160 0.56163794
2158 0.56287909
2156 0.57785702
2154 0.59931248
2152 0.6123606
2150 0.60256475
2148 0.56765485
2146 0.51243001
2144 0.45309737
2142 0.40825209
2140 0.39059016
2138 0.40662414
2136 0.44652173
2134 0.49531132
2132 0.54047078
2130 0.57257473
2128 0.59060442
2126 0.59518814
2124 0.5812701
2122 0.54623806
2120 0.50658727
2118 0.4842425
2116 0.49444288
2114 0.54192543
2112 0.59929085
2110 0.63158423
2108 0.62195873
2106 0.56727958
2104 0.49125117
2102 0.42476282
2100 0.38737699
2098 0.38894889
2096 0.41870999
2094 0.45866132
2092 0.49315733
2090 0.51096785
2088 0.51416212
2086 0.50934899
2084 0.50031525
2082 0.48907548
2080 0.47566453
2078 0.46095169
2076 0.45247716
2074 0.45966014
2072 0.48847958
2070 0.53966564
2068 0.59833837
2066 0.64416629
2064 0.66046381
2062 0.6380955
2060 0.59224224
2058 0.54656339
2056 0.51847738
2054 0.51866698
2052 0.54250354
2050 0.58064115
2048 0.63038868
2046 0.69095033
2044 0.75634658
2042 0.81753618
2040 0.86253482
2038 0.88214284
2036 0.88380772
2034 0.88132656
2032 0.88446957
2030 0.89761579
2028 0.91139954
2026 0.91272086
2024 0.89779627
2022 0.86958647
2020 0.84059417
2018 0.82541299
2016 0.83045805
2014 0.85609943
2012 0.89371467
2010 0.93210852
2008 0.96571428
2006 0.99247515
2004 1.0133744
2002 1.031325
2000 1.0514811
1998 1.0798291
1996 1.1208714
1994 1.1761807
1992 1.2376503
1990 1.2930064
1988 1.33005
1986 1.3400807
1984 1.326756
1982 1.3010576
1980 1.2789271
1978 1.2761549
1976 1.29776
1974 1.3425
1972 1.4046488
1970 1.4767452
1968 1.5507394
1966 1.6178551
1964 1.6670709
1962 1.6886407
1960 1.6838161
1958 1.6608703
1956 1.6332757
1954 1.6147864
1952 1.6105474
1950 1.6200366
1948 1.6372517
1946 1.6557751
1944 1.6785903
1942 1.7118212
1940 1.7541842
1938 1.7992905
1936 1.8358599
1934 1.8549541
1932 1.867998
1930 1.8954513
1928 1.9503663
1926 2.0354686
1924 2.1289759
1922 2.2000701
1920 2.2323332
1918 2.2234731
1916 2.1942029
1914 2.172575
1912 2.1683805
1910 2.1790297
1908 2.1972404
1906 2.2156134
1904 2.2336318
1902 2.2529278
1900 2.2672491
1898 2.2670498
1896 2.2491715
1894 2.21544
1892 2.1723435
1890 2.128983
1888 2.0952721
1886 2.0795701
1884 2.0822752
1882 2.0976996
1880 2.1122668
1878 2.1114705
1876 2.0934701
1874 2.0657825
1872 2.0427873
1870 2.0374653
1868 2.043771
1866 2.0441828
1864 2.0231485
1862 1.9719031
1860 1.900844
1858 1.8293375
1856 1.7675228
1854 1.7169018
1852 1.6714762
1850 1.6221383
1848 1.561976
1846 1.4884036
1844 1.4088577
1842 1.3358703
1840 1.278844
1838 1.2420143
1836 1.2193086
1834 1.199533
1832 1.1761189
1830 1.1475856
1828 1.1187268
1826 1.0966121
1824 1.081848
1822 1.0704566
1820 1.0578901
1818 1.0404578
1816 1.01908
1814 0.99707919
1812 0.97606862
1810 0.9566924
1808 0.94162673
1806 0.93254548
1804 0.91969746
1802 0.88799602
1800 0.83349741
1798 0.76395768
1796 0.70215571
1794 0.67354393
1792 0.67411399
1790 0.68078601
1788 0.67994285
1786 0.66906035
1784 0.65476584
1782 0.64587778
1780 0.6376304
1778 0.61654341
1776 0.57538712
1774 0.51444787
1772 0.4425444
1770 0.3712073
1768 0.30019298
1766 0.22372101
1764 0.15211761
1762 0.098586649
1760 0.031119393
1758 -0.10265804
1756 -0.29130101
1754 -0.47873116
1752 -0.63757551
1750 -0.7695148
1748 -0.88176513
1746 -0.98227102
1744 -1.0814954
1742 -1.1855564
1740 -1.2726731
1738 -1.3025405
1736 -1.24714
1734 -1.1003819
1732 -0.90066552
1730 -0.71227908
1728 -0.57082415
1726 -0.47688094
1724 -0.39127845
1722 -0.24738231
1720 0.025537819
1718 0.48254043
1716 1.1087455
1714 1.8317559
1712 2.5635653
1710 3.2360237
1708 3.8924739
1706 4.669662
1704 5.7287545
1702 7.2477579
1700 9.4580021
1698 12.546417
1696 16.291714
1694 20.16396
1692 23.743141
1690 26.835999
1688 29.655342
1686 32.69698
1684 36.341728
1682 40.710346
1680 45.37244
1678 49.58358
1676 53.168114
1674 56.506973
1672 60.034641
1670 64.053207
1668 68.449677
1666 72.801849
1664 76.848587
1662 80.537964
1660 83.892563
1658 86.963997
1656 89.79834
1654 92.413857
1652 94.740257
1650 96.621796
1648 97.840942
1646 98.199356
1644 97.786728
1642 96.906563
1640 95.635361
1638 93.797318
1636 91.206741
1634 87.773666
1632 83.70121
1630 79.40995
1628 75.134628
1626 70.883324
1624 66.607361
1622 62.26762
1620 57.927048
1618 53.73576
1616 49.79863
1614 46.159103
1612 42.858765
1610 39.93972
1608 37.395653
1606 35.176678
1604 33.23967
1602 31.558811
1600 30.117708
1598 28.900913
1596 27.884501
1594 27.038599
1592 26.349245
1590 25.820415
1588 25.461048
1586 25.277178
1584 25.251606
1582 25.348989
1580 25.554983
1578 25.884857
1576 26.366371
1574 27.028027
1572 27.863779
1570 28.827612
1568 29.86236
1566 30.909237
1564 31.920509
1562 32.899296
1560 34.049389
1558 35.723518
1556 38.011627
1554 40.659149
1552 43.233414
1550 45.2579
1548 46.614986
1546 47.574463
1544 48.361034
1542 49.047699
1540 49.619862
1538 49.998726
1536 50.092312
1534 49.826626
1532 49.229012
1530 48.423126
1528 47.469158
1526 46.3354
1524 44.989601
1522 43.431824
1520 41.728443
1518 40.005936
1516 38.36517
1514 36.835335
1512 35.29612
1510 33.48505
1508 31.220472
1506 28.493057
1504 25.516182
1502 22.68848
1500 20.229128
1498 18.08313
1496 16.110857
1494 14.157558
1492 12.14982
1490 10.119802
1488 8.1225309
1486 6.2161942
1484 4.4791241
1482 3.0029178
1480 1.8231738
1478 0.91744107
1476 0.33632171
1474 0.21118295
1472 0.54499954
1470 1.1596558
1468 1.8678083
1466 2.5340178
1464 3.1066983
1462 3.6246026
1460 4.1226807
1458 4.602787
1456 5.04424
1454 5.4088244
1452 5.6680937
1450 5.8135719
1448 5.8534517
1446 5.810739
1444 5.7048826
1442 5.5435672
1440 5.3187199
1438 5.0047631
1436 4.5762882
1434 4.0214624
1432 3.3753476
1430 2.729739
1428 2.1683779
1426 1.7423664
1424 1.470224
1422 1.3355837
1420 1.3187757
1418 1.4065183
1416 1.58726
1414 1.849911
1412 2.1837616
1410 2.5785246
1408 3.0219564
1406 3.4978907
1404 3.9822466
1402 4.4422369
1400 4.8529921
1398 5.2053199
1396 5.5018144
1394 5.7550855
1392 5.9655061
1390 6.1122923
1388 6.1706319
1386 6.1191702
1384 5.9536524
1382 5.6940041
1380 5.363677
1378 4.9830856
1376 4.5683432
1374 4.1311131
1372 3.6890061
1370 3.2668004
1368 2.8702478
1366 2.4741907
1364 2.0501678
1362 1.5811387
1360 1.0885854
1358 0.64580411
1356 0.31350243
1354 0.11046913
1352 0.02217456
1350 -0.00090073596
1348 0.00051092636
1346 0.012641245
1344 0.030553
1342 0.053465184
1340 0.079568602
1338 0.10456556
1336 0.12764886
1334 0.15379527
1332 0.18451394
1330 0.21424231
1328 0.23998544
1326 0.26615894
1324 0.30200922
1322 0.36127272
1320 0.45406777
1318 0.5819667
1316 0.73993897
1314 0.91475308
1312 1.0893097
1310 1.2435316
1308 1.3591959
1306 1.4235579
1304 1.434684
1302 1.4076561
1300 1.3670617
1298 1.3457119
1296 1.3690143
1294 1.4443105
1292 1.5651789
1290 1.70867
1288 1.852044
1286 1.9803835
1284 2.0877285
1282 2.1805251
1280 2.2691891
1278 2.365896
1276 2.4817257
1274 2.62432
1272 2.8003154
1270 3.0156109
1268 3.2740495
1266 3.5759921
1264 3.9185994
1262 4.2950006
1260 4.700016
1258 5.1337895
1256 5.5985031
1254 6.0975614
1252 6.6323524
1250 7.1994338
1248 7.793222
1246 8.4049997
1244 9.0216036
1242 9.6220322
1240 10.179578
1238 10.660691
1236 11.032542
1234 11.269938
1232 11.35848
1230 11.303067
1228 11.117023
1226 10.820314
1224 10.426121
1222 9.936204
1220 9.3584347
1218 8.7147827
1216 8.0378056
1214 7.3696694
1212 6.744112
1210 6.1724424
1208 5.6545372
1206 5.177362
1204 4.7233863
1202 4.2726388
1200 3.806
1198 3.3082657
1196 2.7738144
1194 2.2153718
1192 1.6574972
1190 1.1392603
1188 0.6974324
1186 0.35450107
1184 0.11842173
1182 -0.026871912
1180 -0.1009028
1178 -0.11831632
1176 -0.092179
1174 -0.03504087
1172 0.037106972
1170 0.10171334
1168 0.14437515
1166 0.172453
1164 0.20023377
1162 0.24474271
1160 0.31317669
1158 0.38945144
1156 0.45482028
1154 0.49765411
1152 0.5134986
1150 0.50948083
1148 0.48823521
1146 0.43670285
1144 0.34666878
1142 0.23040316
1140 0.10973582
1138 0.017823698
1136 -0.0061750859
1134 0.08192195
1132 0.30386886
1130 0.6248225
1128 0.99339938
1126 1.3525143
1124 1.6574609
1122 1.8981875
1120 2.0836
1118 2.2469301
1116 2.4183557
1114 2.6054828
1112 2.8070526
1110 3.013551
1108 3.2190092
1106 3.4299998
1104 3.6535549
1102 3.8895266
1100 4.1370506
1098 4.3963594
1096 4.6704144
1094 4.966444
1092 5.2875261
1090 5.6234589
1088 5.9616137
1086 6.2916756
1084 6.6062722
1082 6.902914
1080 7.1758981
1078 7.406826
1076 7.5782571
1074 7.6838555
1072 7.7281704
1070 7.737874
1068 7.7398248
1066 7.7467122
1064 7.7589078
1062 7.7522354
1060 7.7013741
1058 7.594451
1056 7.4291229
1054 7.2198219
1052 6.9823408
1050 6.7247572
1048 6.4525962
1046 6.1693001
1044 5.8782091
1042 5.5850406
1040 5.2986403
1038 5.0371685
1036 4.8172498
1034 4.6454477
1032 4.5150418
1030 4.3888445
1028 4.2257066
1026 3.9967995
1024 3.6878462
1022 3.3198051
1020 2.9262073
1018 2.551074
1016 2.2301657
1014 1.9642081
1012 1.7368251
1010 1.5062726
1008 1.2388529
1006 0.94586253
1004 0.6510185
1002 0.38215452
1000 0.15877256
998 -0.028700635
996 -0.19175428
994 -0.32571751
992 -0.42602623
990 -0.50105089
988 -0.5631367
986 -0.62661582
984 -0.69857675
982 -0.76099551
980 -0.79227799
978 -0.77954376
976 -0.71502572
974 -0.60084194
972 -0.44366556
970 -0.25722197
968 -0.057331353
966 0.13916801
964 0.31824598
962 0.47613156
960 0.60895663
958 0.70372015
956 0.7443608
954 0.71229029
952 0.59872764
950 0.43152446
948 0.24973716
946 0.099902712
944 0.025762241
942 0.053991064
940 0.18904325
938 0.37119159
936 0.54252857
934 0.70958912
932 0.89147842
930 1.0944871
928 1.3111538
926 1.4952607
924 1.598618
922 1.6025634
920 1.5023766
918 1.3197141
916 1.0922284
914 0.89278901
912 0.79325795
910 0.82591593
908 0.99591589
906 1.2412944
904 1.4919548
902 1.7110243
900 1.8796928
898 2.0169919
896 2.1510999
