##TITLE=Methyl Ethyl Ketone
##JCAMP-DX=4.24
##DATA TYPE=INFRARED SPECTRUM
##XUNITS=cm-1
##YUNITS=Absorbance
##FIRSTX=900
##LASTX=2300
##XYDATA=(X++(Y..Y))
2296 0.043763999
2294 0.044674695
2292 0.045585398
2290 0.046495095
2288 0.047405787
2286 0.048316486
2284 0.049227186
2282 0.05013689
2280 0.051047578
2278 0.051958274
2276 0.052868973
2274 0.053778682
2272 0.054689366
2270 0.055600062
2268 0.056510761
2266 0.057420481
2264 0.058331154
2262 0.059241854
2260 0.060152549
2258 0.061062273
2256 0.061972942
2254 0.062883638
2252 0.063794337
2250 0.064704061
2248 0.06561473
2246 0.066525429
2244 0.031597618
2242 0.0011667472
2240 -0.035112001
2238 -0.062024113
2236 -0.087602928
2234 -0.088019483
2232 -0.088778153
2230 -0.13798724
2228 -0.18503249
2226 -0.1968385
2224 -0.17476399
2222 -0.0065231016
2220 0.18885025
2218 0.44277802
2216 0.66507715
2214 0.81107098
2212 0.87117338
2210 0.7985214
2208 0.6242364
2206 0.33342892
2204 0.047237299
2202 -0.22728293
2200 -0.38718331
2198 -0.46196529
2196 -0.46819359
2194 -0.43820494
2192 -0.37315989
2190 -0.29380819
2188 -0.19446529
2186 -0.088911034
2184 0.0027576801
2182 0.09116438
2180 0.20472097
2178 0.32185319
2176 0.42169744
2174 0.51007801
2172 0.48612899
2170 0.4356308
2168 0.29375479
2166 0.13208571
2164 -0.069498532
2162 -0.27021006
2160 -0.45843291
2158 -0.58959603
2156 -0.614838
2154 -0.55520308
2152 -0.38847503
2150 -0.22912873
2148 -0.090712443
2146 -0.027750822
2144 -0.029593177
2142 -0.03820058
2140 -0.046912447
2138 -0.056438942
2136 -0.066354029
2134 -0.13112354
2132 -0.21876588
2130 -0.2824313
2128 -0.3377336
2126 -0.30399993
2124 -0.24978366
2122 -0.18170503
2120 -0.11441537
2118 -0.099600688
2116 -0.09519387
2114 -0.11179303
2112 -0.12225401
2110 -0.09142901
2108 -0.043622527
2106 0.037128944
2104 0.1063045
2102 0.13894977
2100 0.1336742
2098 0.073662601
2096 -0.0043062856
2094 -0.095511608
2092 -0.19058846
2090 -0.28769767
2088 -0.37799743
2086 -0.46191049
2084 -0.5015173
2082 -0.51226455
2080 -0.46398255
2078 -0.38691369
2076 -0.26463684
2074 -0.12511785
2072 -0.0088039516
2070 0.099259518
2068 0.12110708
2066 0.12031693
2064 0.066545658
2062 0.0015589194
2060 -0.065704666
2058 -0.13235819
2056 -0.19290371
2054 -0.25253662
2052 -0.31544322
2050 -0.36769658
2048 -0.3934291
2046 -0.39023748
2044 -0.34226421
2042 -0.30206755
2040 -0.28451931
2038 -0.32415456
2036 -0.42475414
2034 -0.52614915
2032 -0.61787653
2030 -0.64886868
2028 -0.63500023
2026 -0.59307688
2024 -0.5390631
2022 -0.47105137
2020 -0.39739138
2018 -0.36714825
2016 -0.35439399
2014 -0.47015893
2012 -0.62685704
2010 -0.76422608
2008 -0.88611716
2006 -0.86570537
2004 -0.80940843
2002 -0.76199359
2000 -0.73463309
1998 -0.79222894
1996 -0.86102784
1994 -0.90386349
1992 -0.91994649
1990 -0.88285947
1988 -0.83510423
1986 -0.78150594
1984 -0.745103
1982 -0.73486996
1980 -0.76458722
1978 -0.83673429
1976 -0.87546742
1974 -0.87707406
1972 -0.73107105
1970 -0.47965032
1968 -0.21337005
1966 0.050387997
1964 0.06547112
1962 -0.047912102
1960 -0.28676343
1958 -0.57236779
1956 -0.68678403
1954 -0.73281533
1952 -0.64567399
1950 -0.52021682
1948 -0.46327022
1946 -0.45147499
1944 -0.55833656
1942 -0.70294559
1940 -0.81991851
1938 -0.89525431
1936 -0.87696427
1934 -0.83047581
1932 -0.79413617
1930 -0.75718451
1928 -0.72522944
1926 -0.61029267
1924 -0.39168239
1922 -0.095918223
1920 0.25960079
1918 0.49668062
1916 0.62418944
1914 0.63603574
1912 0.57738519
1910 0.53373927
1908 0.50533801
1906 0.41815442
1904 0.29920039
1902 0.16786256
1900 0.035479736
1898 0.078584045
1896 0.19864714
1894 0.39555746
1892 0.59352213
1890 0.61174673
1888 0.50983441
1886 0.20454586
1884 -0.17477888
1882 -0.54501146
1880 -0.86068386
1878 -1.0651401
1876 -1.15109
1874 -1.1070818
1872 -0.89546502
1870 -0.50648856
1868 -0.10084637
1866 0.27782387
1864 0.40940046
1862 0.30742809
1860 0.10327053
1858 -0.14604747
1856 -0.33364457
1854 -0.47430065
1852 -0.52575272
1850 -0.53154176
1848 -0.41540799
1846 -0.24175179
1844 -0.12600477
1842 -0.056807615
1840 -0.16450621
1838 -0.34579894
1836 -0.49901688
1834 -0.59746188
1832 -0.53261566
1830 -0.36493233
1828 -0.073282883
1826 0.19826464
1824 0.31322536
1822 0.25460002
1820 -0.038494408
1818 -0.39515221
1816 -0.72544771
1814 -0.93434489
1812 -0.99206507
1810 -0.95145088
1808 -0.84705138
1806 -0.72303849
1804 -0.59640771
1802 -0.48616916
1800 -0.40026784
1798 -0.30410379
1796 -0.19817215
1794 -0.038189549
1792 0.1703926
1790 0.26076597
1788 0.28620499
1786 0.21336542
1784 0.10645524
1782 0.14919512
1780 0.3127127
1778 0.68608201
1776 1.1696974
1774 1.6425622
1772 1.9718022
1770 1.9192414
1768 1.5870417
1766 1.0517501
1764 0.5345006
1762 0.20803665
1760 0.051633555
1758 -0.13570066
1756 -0.26526329
1754 -0.24536256
1752 0.056698918
1750 0.62701404
1748 1.2433958
1746 1.8297071
1744 2.0042548
1742 1.8163949
1740 1.5470986
1738 1.2654957
1736 1.33294
1734 1.6551777
1732 1.8102266
1730 1.8169663
1728 1.3373497
1726 0.58215368
1724 0.029908389
1722 -0.26093888
1720 0.093373924
1718 0.97756314
1716 2.3056371
1714 3.6487458
1712 4.4447274
1710 4.8912063
1708 5.15974
1706 5.6625848
1704 6.7362289
1702 8.6326485
1700 11.456672
1698 14.910501
1696 18.787714
1694 22.270769
1692 25.06756
1690 27.573128
1688 29.944983
1686 33.066994
1684 36.97657
1682 41.42614
1680 46.263557
1678 50.3521
1676 53.77663
1674 57.29335
1672 60.947639
1670 65.189011
1668 69.842323
1666 74.375099
1664 78.799461
1662 83.065208
1660 87.176514
1658 91.094475
1656 94.823433
1654 98.347237
1652 101.4305
1650 103.82868
1648 104.71629
1646 103.55035
1644 101.04927
1642 97.897957
1640 94.582108
1638 91.367531
1636 87.762398
1634 83.619179
1632 79.249825
1630 74.805687
1628 70.622894
1626 66.724068
1624 62.655762
1622 58.365623
1620 54.033463
1618 49.693222
1616 45.591515
1614 41.758709
1612 38.32048
1610 35.30209
1608 32.697388
1606 30.475037
1604 28.479509
1602 26.721775
1600 25.190046
1598 23.917336
1596 22.909
1594 22.143969
1592 21.566366
1590 21.126228
1588 20.760874
1586 20.518114
1584 20.411972
1582 20.554031
1580 20.976751
1578 21.768394
1576 22.947857
1574 24.318228
1572 25.828979
1570 27.177828
1568 28.306599
1566 29.355608
1564 30.344482
1562 31.685898
1560 33.489883
1558 36.258228
1556 39.910828
1554 43.276329
1552 46.197178
1550 48.194782
1548 49.473385
1546 50.869392
1544 52.422123
1542 54.184948
1540 55.628559
1538 56.066589
1536 55.432026
1534 53.810074
1532 51.844559
1530 50.128201
1528 48.682743
1526 47.515701
1524 46.428646
1522 45.328518
1520 43.910847
1518 42.079636
1516 40.07917
1514 37.960117
1512 35.9874
1510 34.178062
1508 31.916704
1506 29.031872
1504 25.889612
1502 22.54878
1500 19.761465
1498 17.61672
1496 15.632572
1494 13.795766
1492 11.953875
1490 10.089197
1488 8.2069035
1486 6.3107543
1484 4.412446
1482 2.6850946
1480 1.3174455
1478 0.41542876
1476 0.059619859
1474 0.21357101
1472 0.8982417
1470 1.699122
1468 2.2954237
1466 2.7715421
1464 3.1025875
1462 3.5357132
1460 4.1889992
1458 4.9459262
1456 5.8209801
1454 6.4159393
1452 6.5909505
1450 6.5328059
1448 6.1713977
1446 5.7801857
1444 5.3484445
1442 4.943799
1440 4.5780349
1438 4.3053041
1436 4.1077313
1434 3.9111886
1432 3.6831229
1430 3.3880296
1428 3.0930879
1426 2.8942671
1424 2.8279886
1422 2.906307
1420 3.0590992
1418 3.2215621
1416 3.3449972
1414 3.38853
1412 3.4630783
1410 3.6144185
1408 3.8663423
1406 4.2525873
1404 4.6754384
1402 5.1352162
1400 5.5650043
1398 5.9429498
1396 6.2345858
1394 6.3838754
1392 6.4014335
1390 6.2362037
1388 5.9998584
1386 5.6687298
1384 5.3203325
1382 4.955019
1380 4.6184063
1378 4.3092227
1376 4.0184398
1374 3.7141554
1372 3.377552
1370 3.0281754
1368 2.7126429
1366 2.4569244
1364 2.2553971
1362 2.0493252
1360 1.769632
1358 1.429909
1356 1.0342083
1354 0.66182607
1352 0.36128995
1350 0.11556066
1348 -0.052961484
1346 -0.15283179
1344 -0.11029896
1342 0.03529948
1340 0.36229667
1338 0.65373886
1336 0.86057317
1334 0.91432035
1332 0.75071704
1330 0.58596611
1328 0.44842616
1326 0.43198633
1324 0.58438247
1322 0.88343847
1320 1.3451492
1318 1.8736606
1316 2.4228199
1314 2.8457782
1312 3.1247022
1310 3.2238171
1308 3.1985755
1306 3.1088665
1304 2.9939771
1302 2.898514
1300 2.8165884
1298 2.7640586
1296 2.7208285
1294 2.691684
1292 2.6753559
1290 2.6918316
1288 2.726476
1286 2.80057
1284 2.8812046
1282 2.9796643
1280 3.0928102
1278 3.244658
1276 3.4334671
1274 3.685921
1272 3.9554737
1270 4.2389994
1268 4.4903359
1266 4.695632
1264 4.8664632
1262 5.0093384
1260 5.169086
1258 5.3577337
1256 5.5964346
1254 5.8803582
1252 6.1884885
1250 6.5108624
1248 6.8280711
1246 7.1410751
1244 7.4566498
1242 7.7623787
1240 8.0382729
1238 8.2753487
1236 8.4096174
1234 8.4943266
1232 8.4764996
1230 8.4342003
1228 8.3436565
1226 8.2353058
1224 8.075469
1222 7.8739109
1220 7.5718956
1218 7.2261992
1216 6.7948198
1214 6.3421545
1212 5.8519397
1210 5.3458343
1208 4.8212485
1206 4.3070545
1204 3.817142
1202 3.3824565
1200 3.0041566
1198 2.6612086
1196 2.3360357
1194 1.9817662
1192 1.6076982
1190 1.21965
1188 0.84184366
1186 0.53287584
1184 0.26341423
1182 0.064324141
1180 -0.10149293
1178 -0.19961658
1176 -0.260456
1174 -0.20931463
1172 -0.13518021
1170 0.0053202957
1168 0.14544269
1166 0.28697151
1164 0.42271769
1162 0.54202741
1160 0.64094728
1158 0.69325608
1156 0.70277542
1154 0.63960016
1152 0.54577005
1150 0.41549948
1148 0.30481282
1146 0.21833786
1144 0.15405075
1142 0.108245
1140 0.05914687
1138 0.013260035
1136 -0.0040928712
1134 0.0092698336
1132 0.12551086
1130 0.29955921
1128 0.5687564
1126 0.86681795
1124 1.1777557
1122 1.486756
1120 1.774344
1118 2.0521131
1116 2.2871671
1114 2.482959
1112 2.516016
1110 2.516592
1108 2.4217055
1106 2.3833051
1104 2.4899166
1102 2.6652434
1100 2.969667
1098 3.2588377
1096 3.5239713
1094 3.7825267
1092 4.0401158
1090 4.3467236
1088 4.6977549
1086 5.0275736
1084 5.3273296
1082 5.5314431
1080 5.6736279
1078 5.7825069
1076 5.8706799
1074 5.9192152
1072 5.9354625
1070 5.8084383
1068 5.6394067
1066 5.3901405
1064 5.1514559
1062 5.0672526
1060 5.0344973
1058 5.2857909
1056 5.5639997
1054 5.9563055
1052 6.3143349
1050 6.5572662
1048 6.7261186
1046 6.7153282
1044 6.6664467
1042 6.5519228
1040 6.4693871
1038 6.4336123
1036 6.4005203
1034 6.3603501
1032 6.22508
1030 5.9947014
1028 5.6607294
1026 5.2590027
1024 4.8943114
1022 4.5622921
1020 4.3665257
1018 4.2237782
1016 4.0826225
1014 3.9300904
1012 3.6471705
1010 3.3351812
1008 2.9468679
1006 2.552968
1004 2.1703782
1002 1.7974875
1000 1.4913349
998 1.2100686
996 1.0388694
994 0.87717623
992 0.74311912
990 0.56197339
988 0.27144328
986 -0.061910689
984 -0.46861789
982 -0.84453642
980 -1.175006
978 -1.4138637
976 -1.5519172
974 -1.5821078
972 -1.524266
970 -1.4228871
968 -1.2958063
966 -1.163795
964 -1.0256234
962 -0.80268204
960 -0.5502162
958 -0.26604348
956 0.015714444
954 0.07972087
952 0.11044845
950 -0.032101944
948 -0.16434719
946 -0.05416875
944 0.012888014
942 0.38774663
940 0.74535847
938 1.0265779
936 1.2432885
934 1.2716932
932 1.3321146
930 1.4629918
928 1.6839406
926 2.0485935
924 2.4260559
922 2.8179348
920 3.1904943
918 3.5450873
916 3.8744643
914 4.1841779
912 4.3133717
910 4.3424768
908 4.0394835
906 3.6055837
904 3.04388
902 2.447639
900 2.177274
898 1.9593935
896 2.3743
