##TITLE=Methyl Ethyl Ketone
##JCAMP-DX=4.24
##DATA TYPE=INFRARED SPECTRUM
##XUNITS=cm-1
##YUNITS=Absorbance
##FIRSTX=900
##LASTX=2300
##XYDATA=(X++(Y..Y))
2296 -0.00091428001
2294 -0.00093374215
2292 -0.00095315446
2290 -0.00097255671
2288 -0.0009919788
2286 -0.0010114607
2284 -0.0010308338
2282 -0.001050305
2280 -0.0010696782
2278 -0.001089248
2276 -0.0011086228
2274 -0.0011276014
2272 -0.0011473605
2270 -0.0011684082
2268 -0.001186342
2266 -0.0011998129
2264 -0.0012250171
2262 -0.0012662873
2260 -0.0012645719
2258 -0.0012024316
2256 -0.0013004658
2254 -0.0016234029
2252 -0.0013514457
2250 -0.00024029874
2248 -0.0013407998
2246 -0.0053992821
2244 -0.00020607229
2242 0.023741517
2240 0.050427761
2238 0.06149311
2236 0.058265842
2234 0.050055843
2232 0.055489831
2230 0.088628232
2228 0.13450113
2226 0.16983899
2224 0.17190252
2222 0.12475228
2220 0.038987935
2218 -0.068758354
2216 -0.1890668
2214 -0.31276479
2212 -0.42250881
2210 -0.50121677
2208 -0.54310709
2206 -0.55217808
2204 -0.55826372
2202 -0.59327835
2200 -0.66567373
2198 -0.77276659
2196 -0.89651138
2194 -1.0138787
2192 -1.1003451
2190 -1.1350681
2188 -1.1130365
2186 -1.041985
2184 -0.96187443
2182 -0.91440576
2180 -0.90825701
2178 -0.93506187
2176 -0.96141285
2174 -0.95726913
2172 -0.93862283
2170 -0.93400347
2168 -0.96035933
2166 -1.0217866
2164 -1.0866715
2162 -1.1205616
2160 -1.1254863
2158 -1.1185787
2156 -1.1271601
2154 -1.1724995
2152 -1.2378777
2150 -1.2944225
2148 -1.3162972
2146 -1.2865036
2144 -1.2181605
2142 -1.13554
2140 -1.0652552
2138 -1.0300099
2136 -1.03332
2134 -1.0690409
2132 -1.1198617
2130 -1.1663694
2128 -1.19556
2126 -1.1989757
2124 -1.1767205
2122 -1.1348934
2120 -1.0900573
2118 -1.0603964
2116 -1.0531529
2114 -1.0691299
2112 -1.0982652
2110 -1.1303954
2108 -1.1699346
2106 -1.2239729
2104 -1.2867366
2102 -1.3440845
2100 -1.3691859
2098 -1.3368844
2096 -1.2482144
2094 -1.1171671
2092 -0.96883857
2090 -0.83031589
2088 -0.72085959
2086 -0.65568948
2084 -0.64689755
2082 -0.70089537
2080 -0.80492026
2078 -0.93557513
2076 -1.0567157
2074 -1.1326171
2072 -1.149868
2070 -1.1090876
2068 -1.0315171
2066 -0.94546837
2064 -0.87588012
2062 -0.84089541
2060 -0.83800894
2058 -0.85459328
2056 -0.87120861
2054 -0.86939412
2052 -0.84517139
2050 -0.80368644
2048 -0.76211172
2046 -0.73970109
2044 -0.74413443
2042 -0.77428353
2040 -0.81379867
2038 -0.84492648
2036 -0.87062085
2034 -0.90269393
2032 -0.95107448
2030 -1.0178336
2028 -1.0776929
2026 -1.0982243
2024 -1.0682714
2022 -0.99240917
2020 -0.89906275
2018 -0.82164156
2016 -0.77192998
2014 -0.74882758
2012 -0.7405408
2010 -0.7340585
2008 -0.72924483
2006 -0.73091882
2004 -0.73887116
2002 -0.74947208
2000 -0.75616449
1998 -0.75339639
1996 -0.74498355
1994 -0.74027425
1992 -0.75315958
1990 -0.79386246
1988 -0.84897757
1986 -0.89391291
1984 -0.90487188
1982 -0.86592722
1980 -0.78990585
1978 -0.70089459
1976 -0.61195999
1974 -0.5270015
1972 -0.43776074
1970 -0.33673537
1968 -0.24331599
1966 -0.18775186
1964 -0.18790391
1962 -0.24647641
1960 -0.33169359
1958 -0.40049762
1956 -0.43351427
1954 -0.42842549
1952 -0.39953828
1950 -0.36728397
1948 -0.34626001
1946 -0.3462975
1944 -0.37199876
1942 -0.42209956
1940 -0.48067001
1938 -0.52650923
1936 -0.54803199
1934 -0.54260665
1932 -0.52202219
1930 -0.50131845
1928 -0.47839221
1926 -0.43942371
1924 -0.36198142
1922 -0.2292901
1920 -0.065871783
1918 0.084540218
1916 0.19336386
1914 0.2493183
1912 0.27213418
1910 0.29093328
1908 0.30520272
1906 0.29801551
1904 0.2583504
1902 0.18661469
1900 0.11195359
1898 0.075190119
1896 0.099544853
1894 0.18886569
1892 0.31192464
1890 0.42127529
1888 0.4816404
1886 0.47304964
1884 0.40465769
1882 0.30241901
1880 0.19586697
1878 0.11399262
1876 0.080844499
1874 0.11238222
1872 0.20186983
1870 0.32478812
1868 0.43597504
1866 0.48784158
1864 0.47058806
1862 0.40250459
1860 0.32129177
1858 0.26732865
1856 0.25140372
1854 0.26558909
1852 0.3028813
1850 0.3578952
1848 0.42118841
1846 0.47897965
1844 0.51042175
1842 0.49629205
1840 0.44302064
1838 0.37378213
1836 0.31297201
1834 0.28218099
1832 0.29495063
1830 0.35568333
1828 0.45013484
1826 0.55104887
1824 0.623788
1822 0.63677841
1820 0.58789778
1818 0.49712545
1816 0.39637685
1814 0.3195138
1812 0.28396344
1810 0.29328838
1808 0.34005553
1806 0.41105551
1804 0.49381477
1802 0.57925951
1800 0.66831332
1798 0.76498705
1796 0.85751283
1794 0.92262691
1792 0.93692678
1790 0.88672316
1788 0.79658186
1786 0.71112055
1784 0.64768672
1782 0.60502893
1780 0.597655
1778 0.64611471
1776 0.73579258
1774 0.82022727
1772 0.82786679
1770 0.69456857
1768 0.45554534
1766 0.21407214
1764 0.053797051
1762 0.010427582
1760 0.0075223786
1758 -0.08068949
1756 -0.24992201
1754 -0.39921811
1752 -0.46449822
1750 -0.43374559
1748 -0.34555563
1746 -0.26661786
1744 -0.24770539
1742 -0.31001186
1740 -0.41249749
1738 -0.47949228
1736 -0.479352
1734 -0.42701083
1732 -0.37147883
1730 -0.36948955
1728 -0.41988268
1726 -0.47180352
1724 -0.46148705
1722 -0.3231605
1720 0.0042431951
1718 0.56187463
1716 1.3166504
1714 2.1737738
1712 3.0159783
1710 3.7458153
1708 4.401154
1706 5.1349363
1704 6.1336832
1702 7.586936
1700 9.6509333
1698 12.390622
1696 15.575
1694 18.76997
1692 21.688648
1690 24.264292
1688 26.736378
1686 29.538607
1684 32.955956
1682 37.020721
1680 41.3162
1678 45.187424
1676 48.484131
1674 51.540703
1672 54.731892
1670 58.327679
1668 62.320362
1666 66.488098
1664 70.664345
1662 74.762024
1660 78.658707
1658 82.212509
1656 85.409431
1654 88.354485
1652 91.155319
1650 93.83506
1648 96.094116
1646 97.427032
1644 97.686867
1642 97.090179
1640 95.854324
1638 94.110611
1636 91.884544
1634 89.146896
1632 85.995987
1630 82.630753
1628 79.11615
1626 75.378029
1624 71.36908
1622 67.112846
1620 62.727367
1618 58.397995
1616 54.259399
1614 50.384453
1612 46.839462
1610 43.6824
1608 40.91785
1606 38.499828
1604 36.377125
1602 34.508987
1600 32.873142
1598 31.460135
1596 30.256001
1594 29.238829
1592 28.377766
1590 27.638445
1588 27.013718
1586 26.523972
1584 26.194567
1582 26.053381
1580 26.1366
1578 26.484161
1576 27.116343
1574 28.020205
1572 29.100145
1570 30.191425
1568 31.16856
1566 31.974787
1564 32.621265
1562 33.207527
1560 34.000454
1558 35.3657
1556 37.381584
1554 39.77412
1552 42.148006
1550 44.116859
1548 45.606098
1546 46.859322
1544 48.045303
1542 49.162804
1540 50.108299
1538 50.713131
1536 50.857773
1534 50.516205
1532 49.788681
1530 48.881954
1528 47.929016
1526 46.9408
1524 45.85762
1522 44.574482
1520 43.017033
1518 41.176983
1516 39.154613
1514 37.130737
1512 35.14304
1510 33.044373
1508 30.688969
1506 28.0166
1504 25.171194
1502 22.484453
1500 20.13121
1498 18.042599
1496 16.088142
1494 14.135278
1492 12.11688
1490 10.050789
1488 7.9764891
1486 5.9454794
1484 4.0544581
1482 2.4424815
1480 1.2097714
1478 0.40284359
1476 0.092446275
1474 0.35832131
1472 1.0925144
1470 1.972574
1468 2.7801437
1466 3.4945414
1464 4.1584411
1462 4.8245144
1460 5.4550791
1458 5.9029446
1456 6.0592799
1454 5.9138904
1452 5.5688772
1450 5.2233286
1448 4.9693117
1446 4.7370105
1444 4.4709949
1442 4.180675
1440 3.8829007
1438 3.581589
1436 3.2559443
1434 2.8626714
1432 2.3928313
1430 1.8919959
1428 1.421706
1426 1.0448053
1424 0.80030465
1422 0.69180483
1420 0.70309687
1418 0.8019827
1416 0.95739657
1414 1.1475201
1412 1.3669734
1410 1.6292008
1408 1.9434127
1406 2.3053343
1404 2.6985137
1402 3.0939777
1400 3.462208
1398 3.7791092
1396 4.0340071
1394 4.2332463
1392 4.3831186
1390 4.4821768
1388 4.517004
1386 4.4630599
1384 4.3168635
1382 4.1096754
1380 3.8775227
1378 3.6485081
1376 3.4291172
1374 3.198494
1372 2.946594
1370 2.6877258
1368 2.4352942
1366 2.1899185
1364 1.9334314
1362 1.6284677
1360 1.2643092
1358 0.87934279
1356 0.52612329
1354 0.25660801
1352 0.089984417
1350 -0.0045298375
1348 -0.059459083
1346 -0.090742931
1344 -0.1013484
1342 -0.081969529
1340 -0.035780836
1338 0.010974651
1336 0.036240943
1334 0.035271555
1332 0.019496463
1330 0.01860261
1328 0.055099871
1326 0.13297442
1324 0.25270766
1322 0.41485551
1320 0.61378568
1318 0.83276093
1316 1.048557
1314 1.2329857
1312 1.3672606
1310 1.4510518
1308 1.4920206
1306 1.5043879
1304 1.5049206
1302 1.511297
1300 1.5389669
1298 1.5967735
1296 1.6818
1294 1.77318
1292 1.8497623
1290 1.8989016
1288 1.922336
1286 1.9429142
1284 1.9827117
1282 2.0521619
1280 2.1516976
1278 2.2688887
1276 2.3930886
1274 2.52211
1272 2.6574178
1270 2.8038955
1268 2.9708984
1266 3.1747458
1264 3.4341588
1262 3.7674472
1260 4.1802101
1258 4.654942
1256 5.1709142
1254 5.7122235
1252 6.2753234
1250 6.875824
1248 7.5241485
1246 8.2109251
1244 8.9120903
1242 9.5851307
1240 10.191422
1238 10.709707
1236 11.131971
1234 11.464944
1232 11.71268
1230 11.871517
1228 11.934628
1226 11.901778
1224 11.771502
1222 11.540582
1220 11.202949
1218 10.74865
1216 10.185526
1214 9.5503864
1212 8.8890114
1210 8.2449303
1208 7.645206
1206 7.0832529
1204 6.5422421
1202 6.0007238
1200 5.4434028
1198 4.8702817
1196 4.2895784
1194 3.7186964
1192 3.175041
1190 2.6714139
1188 2.2149289
1186 1.8026199
1184 1.4300165
1182 1.094703
1180 0.80065972
1178 0.56390625
1176 0.39925599
1174 0.3114956
1172 0.29297444
1170 0.31444725
1168 0.34590366
1166 0.36799836
1164 0.37176609
1162 0.36524448
1160 0.35595232
1158 0.34117186
1156 0.31572598
1154 0.27482292
1152 0.21729879
1150 0.15007898
1148 0.080862604
1146 0.015290711
1144 -0.036927961
1142 -0.056179315
1140 -0.026249047
1138 0.055145934
1136 0.18322542
1134 0.34548903
1132 0.53744006
1130 0.77761614
1128 1.0871897
1126 1.4787985
1124 1.9483268
1122 2.4572513
1120 2.964936
1118 3.4476523
1116 3.8914642
1114 4.2969418
1112 4.668252
1110 5.0097213
1108 5.3281159
1106 5.6360698
1104 5.9432817
1102 6.2493348
1100 6.5546336
1098 6.8688741
1096 7.2054
1094 7.5797777
1092 7.9991941
1090 8.4465008
1088 8.8949795
1086 9.3096781
1084 9.6644306
1082 9.963069
1080 10.222857
1078 10.474319
1076 10.737686
1074 10.99537
1072 11.217868
1070 11.373067
1068 11.446826
1066 11.467121
1064 11.4686
1062 11.475845
1060 11.497703
1058 11.496636
1056 11.4296
1054 11.253142
1052 10.939754
1050 10.50624
1048 9.9868841
1046 9.4358721
1044 8.9060078
1042 8.4286966
1040 8.0182953
1038 7.6556115
1036 7.3140001
1034 6.9696665
1032 6.6076822
1030 6.2364993
1028 5.8661013
1026 5.4949021
1024 5.1172423
1022 4.7251258
1020 4.317225
1018 3.9124937
1016 3.53144
1014 3.1845365
1012 2.8761988
1010 2.601023
1008 2.3495722
1006 2.1081443
1004 1.8640599
1002 1.6118143
1000 1.3529657
998 1.1058563
996 0.88631284
994 0.69012749
992 0.50798553
990 0.33055544
988 0.1541477
986 -0.0069162175
984 -0.1360236
982 -0.22346911
980 -0.26179239
978 -0.24539286
976 -0.17006016
974 -0.034910202
972 0.15711085
970 0.39286786
968 0.65331739
966 0.907929
964 1.1246674
962 1.2761905
960 1.3418634
958 1.3198828
956 1.2148914
954 1.0375811
952 0.80472445
950 0.54822862
948 0.30724031
946 0.13187367
944 0.049486097
942 -0.0029093027
940 -0.092577428
938 -0.2214592
936 -0.37400085
934 -0.53021622
932 -0.67188829
930 -0.79164588
928 -0.8887105
926 -0.976583
924 -1.0659779
922 -1.1443307
920 -1.1995714
918 -1.2445999
916 -1.2955757
914 -1.3569193
912 -1.4283332
910 -1.501061
908 -1.5670279
906 -1.6284751
904 -1.6806064
902 -1.6813155
900 -1.5915148
898 -1.421876
896 -1.1954
