##TITLE=Methyl Ethyl Ketone
##JCAMP-DX=4.24
##DATA TYPE=INFRARED SPECTRUM
##XUNITS=cm-1
##YUNITS=Absorbance
##FIRSTX=900
##LASTX=2300
##XYDATA=(X++(Y..Y))
2296 0.077088997
2294 0.078692704
2292 0.08029741
2290 0.081901118
2288 0.083504818
2286 0.085108526
2284 0.086712234
2282 0.088315934
2280 0.089919649
2278 0.091523357
2276 0.093127057
2274 0.094730765
2272 0.096334472
2270 0.097938173
2268 0.09954188
2266 0.10114559
2264 0.1027532
2262 0.10435115
2260 0.1059586
2258 0.10755657
2256 0.109164
2254 0.1107717
2252 0.11236972
2250 0.1139771
2248 0.11557514
2246 0.11718249
2244 0.044289131
2242 0.00159975
2240 -0.030528001
2238 0.0061167721
2236 0.052854635
2234 0.068839848
2232 0.082266793
2230 0.088582799
2228 0.10087679
2226 0.16351549
2224 0.22511713
2222 0.27029523
2220 0.30087903
2218 0.28970492
2216 0.27554256
2214 0.26001546
2212 0.25267041
2210 0.25880182
2208 0.27831024
2206 0.31346285
2204 0.3702682
2202 0.44699344
2200 0.53300422
2198 0.62497503
2196 0.67553854
2194 0.70198804
2192 0.67017806
2190 0.61352944
2188 0.57476127
2186 0.54233056
2184 0.56432801
2182 0.59875697
2180 0.63779211
2178 0.67734975
2176 0.71193117
2174 0.74628055
2172 0.78312129
2170 0.81805068
2168 0.84060526
2166 0.85668421
2164 0.85353804
2162 0.84525603
2160 0.82877451
2158 0.82314175
2156 0.83968401
2154 0.8708365
2152 0.91983145
2150 0.95918775
2148 0.98557079
2146 0.99655038
2144 0.99510747
2142 0.99960715
2140 1.0090858
2138 1.027588
2136 1.0507915
2134 1.0504934
2132 1.0400354
2130 0.99502522
2128 0.93926281
2126 0.90808845
2124 0.88283527
2122 0.94679713
2120 1.0268561
2118 1.1438377
2116 1.2595271
2114 1.326326
2112 1.3753572
2110 1.3768307
2108 1.3626814
2106 1.3226578
2104 1.2816681
2102 1.2468114
2100 1.2424439
2098 1.2874891
2096 1.3604714
2094 1.4603943
2092 1.5460494
2090 1.6128534
2088 1.6477576
2086 1.6586601
2084 1.6591212
2082 1.6549337
2080 1.6569909
2078 1.6626501
2076 1.6498615
2074 1.6292934
2072 1.607756
2070 1.5861869
2068 1.6172739
2066 1.6611892
2064 1.7045411
2062 1.7442647
2060 1.7493865
2058 1.749681
2056 1.7613171
2054 1.7759417
2052 1.7937758
2050 1.8123318
2048 1.8310698
2046 1.857975
2044 1.900492
2042 1.9362859
2040 1.9571903
2038 1.9580529
2036 1.9382828
2034 1.918537
2032 1.9025851
2030 1.889899
2028 1.87911
2026 1.8980857
2024 1.9358926
2022 2.0353277
2020 2.1653435
2018 2.256315
2016 2.3292599
2014 2.275861
2012 2.1805205
2010 2.0614541
2008 1.9413211
2006 1.8946793
2004 1.8748916
2002 1.911885
2000 1.9672543
1998 2.038944
1996 2.1132429
1994 2.1827452
1992 2.2359383
1990 2.2555082
1988 2.2425559
1986 2.1875927
1984 2.1233075
1982 2.0600524
1980 2.0197291
1978 2.0049896
1976 2.019717
1974 2.0564241
1972 2.1289229
1970 2.2253048
1968 2.3350961
1966 2.4506922
1964 2.5187078
1962 2.5612242
1960 2.5462799
1958 2.5076504
1956 2.4254928
1954 2.3281643
1952 2.2243965
1950 2.1265774
1948 2.1023235
1946 2.1094501
1944 2.159584
1942 2.2083995
1940 2.2055552
1938 2.1810021
1936 2.1415887
1934 2.107909
1932 2.0944021
1930 2.0716462
1928 2.0242732
1926 1.9715958
1924 1.9205717
1922 1.9076129
1920 1.9353749
1918 1.9668159
1916 1.9929872
1914 1.9985639
1912 1.9893914
1910 1.9741492
1908 1.9567331
1906 1.8906229
1904 1.7980239
1902 1.6721089
1900 1.5322546
1898 1.4741493
1896 1.4566143
1894 1.5469536
1892 1.6732172
1890 1.7587
1888 1.7920377
1886 1.6699021
1884 1.478286
1882 1.2515123
1880 1.0490252
1878 0.93213719
1876 0.88623601
1874 0.91579819
1872 1.0044301
1870 1.143914
1868 1.2600037
1866 1.3280607
1864 1.2826406
1862 1.132908
1860 0.95989984
1858 0.78994179
1856 0.65858459
1854 0.55615693
1852 0.47980419
1850 0.41690341
1848 0.39084122
1846 0.38470322
1844 0.38313136
1842 0.38200235
1840 0.36447778
1838 0.34474742
1836 0.37251329
1834 0.44260752
1832 0.61688441
1830 0.84007698
1828 1.0723348
1826 1.2426064
1824 1.2369971
1822 1.1132716
1820 0.89259201
1818 0.67306352
1816 0.51994085
1814 0.42980212
1812 0.39513403
1810 0.36991817
1808 0.33376509
1806 0.30932051
1804 0.30078116
1802 0.31120333
1800 0.33474395
1798 0.35710457
1796 0.37605429
1794 0.42297435
1792 0.49066362
1790 0.52775145
1788 0.54430032
1786 0.51912421
1784 0.47219408
1782 0.43745443
1780 0.41126639
1778 0.39530161
1776 0.40202314
1774 0.4822388
1772 0.60049605
1770 0.72254246
1768 0.77803475
1766 0.66756922
1764 0.46810099
1762 0.24127853
1760 0.057482172
1758 -0.1050347
1756 -0.20019242
1754 -0.18960187
1752 -0.040301662
1750 0.23275574
1748 0.5117557
1746 0.75672144
1744 0.80528963
1742 0.67630196
1740 0.52353668
1738 0.38164341
1736 0.41483998
1734 0.58067608
1732 0.66480291
1730 0.67324132
1728 0.44442698
1726 0.075610727
1724 -0.16902463
1722 -0.25792339
1720 0.029633656
1718 0.61045039
1716 1.4970598
1714 2.4452982
1712 3.0583761
1710 3.4465816
1708 3.728236
1706 4.1888843
1704 5.0877719
1702 6.6693039
1700 9.0388927
1698 12.295406
1696 16.358143
1694 20.457691
1692 24.245714
1690 27.644381
1688 30.71092
1686 34.258804
1684 38.375759
1682 43.028336
1680 48.078362
1678 52.372166
1676 55.986244
1674 59.611362
1672 63.326221
1670 67.65284
1668 72.391022
1666 76.825195
1664 80.925224
1662 84.513214
1660 87.664162
1658 90.50708
1656 93.093147
1654 95.507034
1652 97.594383
1650 99.18438
1648 99.715744
1646 98.761681
1644 96.805008
1642 94.341141
1640 91.60453
1638 88.770309
1636 85.405617
1634 81.393417
1632 77.070251
1630 72.596893
1628 68.260796
1626 64.111069
1624 59.864643
1622 55.490433
1620 51.231407
1618 47.105804
1616 43.230228
1614 39.622612
1612 36.394207
1610 33.5634
1608 31.13537
1606 29.093378
1604 27.315926
1602 25.821974
1600 24.60404
1598 23.669806
1596 22.9865
1594 22.536026
1592 22.260521
1590 22.143223
1588 22.147646
1586 22.282501
1584 22.539377
1582 22.937059
1580 23.473837
1578 24.232349
1576 25.235743
1574 26.457672
1572 27.880903
1570 29.320665
1568 30.73424
1566 32.083008
1564 33.364651
1562 34.770504
1560 36.372532
1558 38.64262
1556 41.577644
1554 44.497643
1552 47.236794
1550 49.219906
1548 50.525059
1546 51.70343
1544 52.79253
1542 53.910564
1540 54.83128
1538 55.222267
1536 54.969997
1534 54.033749
1532 52.738426
1530 51.454437
1528 50.241982
1526 49.146698
1524 48.036789
1522 46.832329
1520 45.417583
1518 43.730057
1516 41.948341
1514 40.120537
1512 38.2304
1510 36.262943
1508 33.684639
1506 30.316929
1504 26.822765
1502 23.267912
1500 20.361151
1498 18.19825
1496 16.198856
1494 14.354368
1492 12.477311
1490 10.549188
1488 8.54916
1486 6.5151463
1484 4.5491681
1482 2.7959719
1480 1.448614
1478 0.55526197
1476 0.11728928
1474 0.19272172
1472 0.7616297
1470 1.440183
1468 2.0497766
1466 2.5594244
1464 2.9317794
1462 3.3261445
1460 3.8191211
1458 4.4551969
1456 5.2922201
1454 6.0588813
1452 6.6756253
1450 7.0227585
1448 6.9767823
1446 6.8316784
1444 6.5588317
1442 6.3076873
1440 6.085896
1438 5.8838854
1436 5.6785259
1434 5.383625
1432 4.9784184
1430 4.4890103
1428 3.9603641
1426 3.5150065
1424 3.1982532
1422 3.0605783
1420 3.0908935
1418 3.2657313
1416 3.5018001
1414 3.7133839
1412 3.8932579
1410 4.0250559
1408 4.1752787
1406 4.3915501
1404 4.6706614
1402 5.0421586
1400 5.4414883
1398 5.8673968
1396 6.2440143
1394 6.5215883
1392 6.6814632
1390 6.6414232
1388 6.4977589
1386 6.1961403
1384 5.834147
1382 5.395071
1380 4.9511213
1378 4.508636
1376 4.093514
1374 3.7059622
1372 3.326546
1370 2.9500177
1368 2.5620589
1366 2.1647429
1364 1.7613448
1362 1.3628483
1360 0.98730928
1358 0.65210521
1356 0.39046615
1354 0.19171624
1352 0.076488174
1350 0.0099541489
1348 -0.0036963196
1346 0.011653785
1344 0.095336244
1342 0.22661017
1340 0.44428188
1338 0.64907897
1336 0.81597602
1334 0.90826672
1332 0.87188166
1330 0.82796079
1328 0.78617662
1326 0.81459314
1324 0.95233709
1322 1.1739196
1320 1.4947903
1318 1.8405983
1316 2.1938
1314 2.4902997
1312 2.717031
1310 2.8620169
1308 2.9335744
1306 2.9434764
1304 2.913507
1302 2.8637352
1300 2.8072231
1298 2.7560003
1296 2.7098429
1294 2.6734204
1292 2.6526752
1290 2.6684101
1288 2.699796
1286 2.7585814
1284 2.8168776
1282 2.8698711
1280 2.9301827
1278 3.0085926
1276 3.1039357
1274 3.231848
1272 3.3696184
1270 3.5235949
1268 3.6834664
1266 3.8510094
1264 4.0172238
1262 4.1810374
1260 4.3399959
1258 4.4981761
1256 4.6710916
1254 4.863081
1252 5.0843778
1250 5.3275013
1248 5.5835252
1246 5.8430748
1244 6.093472
1242 6.3315463
1240 6.5400147
1238 6.7154865
1236 6.8091612
1234 6.8488374
1232 6.761848
1230 6.6282892
1228 6.3846245
1226 6.1071229
1224 5.7385545
1222 5.3320522
1220 4.83606
1218 4.3231659
1216 3.7821
1214 3.2659166
1212 2.7967861
1210 2.3705349
1208 2.0088
1206 1.68995
1204 1.4214979
1202 1.1725674
1200 0.93693256
1198 0.68400687
1196 0.41921282
1194 0.15665187
1192 -0.090393439
1190 -0.2773706
1188 -0.42211393
1186 -0.50107145
1184 -0.54786116
1182 -0.55074775
1180 -0.52778369
1178 -0.44015798
1176 -0.32610601
1174 -0.14084828
1172 0.052238926
1170 0.25913614
1168 0.4541924
1166 0.61179006
1164 0.74953365
1162 0.83586287
1160 0.89218831
1158 0.88641542
1156 0.85246456
1154 0.77450103
1152 0.69705462
1150 0.62056923
1148 0.54597861
1146 0.46959713
1144 0.37224224
1142 0.25728524
1140 0.14063805
1138 0.035078976
1136 -0.0055209058
1134 0.0070092827
1132 0.1291564
1130 0.2963537
1128 0.47971588
1126 0.653341
1124 0.7524057
1122 0.83351427
1120 0.88945359
1118 0.9416312
1116 0.98587286
1114 1.02547
1112 1.0472114
1110 1.0785701
1108 1.1408123
1106 1.213165
1104 1.3083434
1102 1.3883485
1100 1.4369814
1098 1.4652249
1096 1.4621286
1094 1.4553584
1092 1.44663
1090 1.4535486
1088 1.4825662
1086 1.5618736
1084 1.68334
1082 1.8326676
1080 1.9896588
1078 2.083919
1076 2.1402242
1074 2.1261957
1072 2.0875387
1070 2.0366383
1068 1.9848102
1066 1.9452736
1064 1.9089921
1062 1.8857085
1060 1.8630643
1058 1.8404113
1056 1.8144372
1054 1.7725331
1052 1.7155335
1050 1.6104439
1048 1.4991766
1046 1.3757215
1044 1.2816503
1042 1.2414243
1040 1.2003697
1038 1.1539887
1036 1.0637031
1034 0.92101526
1032 0.74888778
1030 0.54734987
1028 0.31096029
1026 0.050906658
1024 -0.20747577
1022 -0.4573777
1020 -0.62768114
1018 -0.76196015
1016 -0.83807343
1014 -0.899472
1012 -0.97073025
1010 -1.0453136
1008 -1.138816
1006 -1.2350743
1004 -1.3452857
1002 -1.454379
1000 -1.5537492
998 -1.6419705
996 -1.6813715
994 -1.7217101
992 -1.7655058
990 -1.8232025
988 -1.910234
986 -1.9611928
984 -1.9459593
982 -1.8614395
980 -1.684904
978 -1.508568
976 -1.3367742
974 -1.2402498
972 -1.2048377
970 -1.1934586
968 -1.1942121
966 -1.15266
964 -1.0936031
962 -1.0674598
960 -1.0531126
958 -1.0667679
956 -1.0812036
954 -0.98049772
952 -0.86127764
950 -0.62982965
948 -0.39180201
946 -0.12913714
944 0.0053293705
942 0.16004559
940 0.29765475
938 0.36262539
936 0.42772257
934 0.49415994
932 0.59817809
930 0.78359902
928 1.0283713
926 1.3678578
924 1.7060461
922 2.0407026
920 2.2594063
918 2.3686199
916 2.3623443
914 2.2742703
912 2.1630874
910 2.041311
908 2.0828924
906 2.1887414
904 2.5584116
902 2.9974661
900 3.4788969
898 3.9668682
896 4.2941999
