##TITLE=Methyl Ethyl Ketone
##JCAMP-DX=4.24
##DATA TYPE=INFRARED SPECTRUM
##XUNITS=cm-1
##YUNITS=Absorbance
##FIRSTX=900
##LASTX=2300
##XYDATA=(X++(Y..Y))
2296 0.033844002
2294 0.034562971
2292 0.035281945
2290 0.036000915
2288 0.036719888
2286 0.037438855
2284 0.038157828
2282 0.038876798
2280 0.039595772
2278 0.040314741
2276 0.041034698
2274 0.041753687
2272 0.042472657
2270 0.04319163
2268 0.0439106
2266 0.04462957
2264 0.04534854
2262 0.046067514
2260 0.046786487
2258 0.047505457
2256 0.048224431
2254 0.0489434
2252 0.049662374
2250 0.050382312
2248 0.051101312
2246 0.051820286
2244 0.074258424
2242 0.0028976013
2240 -0.079733759
2238 -0.14046867
2236 -0.19785172
2234 -0.16768192
2232 -0.13123359
2230 -0.09538959
2228 -0.066590898
2226 -0.093329854
2224 -0.12315332
2222 -0.15387146
2220 -0.16815366
2218 -0.13205285
2216 -0.07435137
2214 0.024356237
2212 0.12542729
2210 0.22638957
2208 0.30930513
2206 0.36973199
2204 0.40306279
2202 0.41161403
2200 0.3929019
2198 0.3550154
2196 0.31716999
2194 0.28011009
2192 0.271254
2190 0.27476215
2188 0.29517138
2186 0.32080713
2184 0.35592398
2182 0.39314538
2180 0.4517872
2178 0.51345611
2176 0.56258315
2174 0.60645491
2172 0.60391557
2170 0.59005952
2168 0.53669792
2166 0.47266808
2164 0.38392207
2162 0.30731675
2160 0.26809564
2158 0.27500743
2156 0.36209902
2154 0.46772528
2152 0.58820087
2150 0.66773361
2148 0.69941634
2146 0.69276679
2144 0.65669495
2142 0.60769075
2140 0.55190241
2138 0.48217815
2136 0.40519255
2134 0.34717792
2132 0.29727811
2130 0.30676752
2128 0.33492079
2126 0.38518485
2124 0.44033021
2122 0.4537704
2120 0.4577525
2118 0.4087339
2116 0.35206774
2114 0.2940664
2112 0.24870715
2110 0.25961313
2108 0.29216567
2106 0.36525413
2104 0.44191363
2102 0.5134567
2100 0.57607543
2098 0.62509155
2096 0.65843284
2094 0.67412412
2092 0.65656787
2090 0.60726392
2088 0.54058141
2086 0.46284851
2084 0.42025566
2082 0.40170011
2080 0.41284606
2078 0.43820703
2076 0.4376004
2074 0.42560998
2072 0.40070561
2070 0.3721672
2068 0.3761577
2066 0.38870427
2064 0.40012559
2062 0.40735859
2060 0.36720112
2058 0.31597883
2056 0.25502485
2054 0.2033195
2052 0.19365528
2050 0.20343506
2048 0.24411263
2046 0.29546928
2044 0.35693279
2042 0.41611728
2040 0.46691161
2038 0.49136779
2036 0.4837043
2034 0.45568508
2032 0.41406846
2030 0.3804394
2028 0.35634759
2026 0.33962807
2024 0.32757154
2022 0.30164555
2020 0.2687254
2018 0.22836794
2016 0.18431601
2014 0.16625434
2012 0.15554811
2010 0.13237131
2008 0.10403103
2006 0.060146235
2004 0.019162305
2002 0.031596161
2000 0.061910901
1998 0.11756943
1996 0.16578428
1994 0.17641015
1992 0.1691476
1990 0.13629298
1988 0.107371
1986 0.087782986
1984 0.081152305
1982 0.089714393
1980 0.10453599
1978 0.12600802
1976 0.14696315
1974 0.1681111
1972 0.18834226
1970 0.20934385
1968 0.21756662
1966 0.21728365
1964 0.18438466
1962 0.13279738
1960 0.083938643
1958 0.036532547
1956 0.024376657
1954 0.023907078
1952 0.023680931
1950 0.018157717
1948 -0.0086422833
1946 -0.04108325
1944 -0.072693802
1942 -0.087901592
1940 -0.070957072
1938 -0.040915072
1936 -0.0083589228
1934 -0.0043633147
1932 -0.050465796
1930 -0.13767862
1928 -0.25842577
1926 -0.36694106
1924 -0.44175166
1922 -0.45426649
1920 -0.41392908
1918 -0.3455821
1916 -0.27246356
1914 -0.22138649
1912 -0.18715738
1910 -0.16443503
1908 -0.14436047
1906 -0.12120929
1904 -0.097656801
1902 -0.063936383
1900 -0.028081298
1898 0.026767494
1896 0.086130001
1894 0.12456056
1892 0.14763549
1890 0.1094164
1888 0.045150865
1886 -0.044698872
1884 -0.13455059
1882 -0.19846937
1880 -0.24520697
1878 -0.26678368
1876 -0.287945
1874 -0.30935952
1872 -0.33412313
1870 -0.35496679
1868 -0.33598393
1866 -0.28674722
1864 -0.20938286
1862 -0.1277016
1860 -0.074850671
1858 -0.042365368
1856 -0.048802741
1854 -0.074317075
1852 -0.15069234
1850 -0.25173616
1848 -0.387532
1846 -0.53320968
1844 -0.60328954
1842 -0.624017
1840 -0.54479134
1838 -0.42515782
1836 -0.31244716
1834 -0.2168383
1832 -0.14673349
1830 -0.085604839
1828 -0.030161155
1826 0.027947493
1824 0.06424205
1822 0.075086199
1820 0.0534302
1818 0.0034926459
1816 -0.054757316
1814 -0.11586768
1812 -0.16816452
1810 -0.19096816
1808 -0.18603355
1806 -0.15549749
1804 -0.10877838
1802 -0.11249302
1800 -0.15881611
1798 -0.26120991
1796 -0.39859998
1794 -0.45592463
1792 -0.4618656
1790 -0.33553427
1788 -0.14158577
1786 0.048340261
1784 0.22042629
1782 0.31115174
1780 0.33975857
1778 0.289581
1776 0.19000572
1774 0.062063802
1772 -0.051151242
1770 -0.11634371
1768 -0.12758012
1766 -0.087465189
1764 -0.036763281
1762 0.013449911
1760 0.012872039
1758 -0.054670505
1756 -0.15009035
1754 -0.2470956
1752 -0.33411765
1750 -0.39732671
1748 -0.43487209
1746 -0.46033537
1744 -0.50287849
1742 -0.58350992
1740 -0.68207824
1738 -0.78309208
1736 -0.73386198
1734 -0.55610704
1732 -0.26436204
1730 0.084957585
1728 0.24401343
1726 0.25075635
1724 0.17995536
1722 0.06687472
1720 0.022343377
1718 0.049996417
1716 0.26843876
1714 0.66101003
1712 1.1255622
1710 1.5961454
1708 2.03352
1706 2.5387821
1704 3.2397954
1702 4.4184217
1700 6.2210326
1698 8.9961319
1696 12.735
1694 16.66338
1692 20.40605
1690 23.696997
1688 26.578869
1686 29.908379
1684 33.794117
1682 38.574593
1680 44.06456
1678 48.97683
1676 53.316826
1674 57.429852
1672 61.453712
1670 66.10173
1668 71.212006
1666 76.2164
1664 81.018318
1662 85.318245
1660 89.147598
1658 92.568283
1656 95.544601
1654 98.046509
1652 99.931358
1650 101.05316
1648 101.28794
1646 100.52447
1644 99.076126
1642 97.302513
1640 95.084801
1638 92.451958
1636 89.061554
1634 84.85643
1632 80.381348
1630 75.850349
1628 71.456673
1626 67.243866
1624 62.895237
1622 58.386093
1620 54.004353
1618 49.769749
1616 45.81023
1614 42.13784
1612 38.871002
1610 36.01712
1608 33.570286
1606 31.517801
1604 29.739477
1602 28.248461
1600 27.017977
1598 26.041216
1596 25.2715
1594 24.713179
1592 24.333811
1590 24.135975
1588 24.09483
1586 24.167664
1584 24.317915
1582 24.491871
1580 24.665386
1578 24.900297
1576 25.218
1574 25.752012
1572 26.518183
1570 27.475645
1568 28.60376
1566 29.732435
1564 30.846676
1562 32.064411
1560 33.469944
1558 35.670826
1556 38.766514
1554 42.285419
1552 45.993904
1550 48.901989
1548 50.982964
1546 52.649464
1544 53.946445
1542 55.086189
1540 56.03458
1538 56.664261
1536 56.786545
1534 56.245453
1532 55.163147
1530 53.819714
1528 52.308876
1526 50.7132
1524 48.978714
1522 47.047447
1520 44.999836
1518 42.812359
1516 40.739616
1514 38.885708
1512 37.013
1510 35.120541
1508 32.70311
1506 29.615742
1504 26.542398
1502 23.525234
1500 21.001635
1498 19.01313
1496 16.994572
1494 14.929583
1492 12.757332
1490 10.504285
1488 8.2658272
1486 6.1254964
1484 4.232832
1482 2.6412628
1480 1.4200504
1478 0.5680275
1476 0.10040317
1474 0.17484295
1472 0.71749741
1470 1.484345
1468 2.3395445
1466 3.0899909
1464 3.6494303
1462 4.1114292
1460 4.5110893
1458 4.9324093
1456 5.3917198
1454 5.8555088
1452 6.2811489
1450 6.5750842
1448 6.6564503
1446 6.6298785
1444 6.4599199
1442 6.2544241
1440 6.0055227
1438 5.6988001
1436 5.3179898
1434 4.8091145
1432 4.1880789
1430 3.5595262
1428 2.9456799
1426 2.4452021
1424 2.0662777
1422 1.8127326
1420 1.7104368
1418 1.754065
1416 1.9285315
1414 2.2157152
1412 2.52809
1410 2.845474
1408 3.1502383
1406 3.4420156
1404 3.7412817
1402 4.0383754
1400 4.3312078
1398 4.6050081
1396 4.8760214
1394 5.1316013
1392 5.3822813
1390 5.5831079
1388 5.7028513
1386 5.6803451
1384 5.5533323
1382 5.281601
1380 4.9433527
1378 4.5244579
1376 4.0477886
1374 3.539005
1372 3.0459919
1370 2.5968153
1368 2.2469788
1366 1.9428935
1364 1.6149803
1362 1.2593391
1360 0.85034156
1358 0.46781421
1356 0.20610888
1354 0.034505576
1352 -0.001403256
1350 0.032065697
1348 0.1159921
1346 0.18366608
1344 0.28359562
1342 0.38943142
1340 0.50741363
1338 0.63788825
1336 0.78443033
1334 0.96158731
1332 1.1502403
1330 1.340582
1328 1.5272925
1326 1.7094371
1324 1.9077065
1322 2.1207457
1320 2.3700554
1318 2.6352262
1316 2.9196701
1314 3.1976676
1312 3.4522412
1310 3.6796601
1308 3.8602242
1306 3.9932427
1304 4.0766225
1302 4.0965199
1300 4.0809312
1298 4.0291734
1296 3.9744856
1294 3.9314539
1292 3.9026179
1290 3.8983815
1288 3.907444
1286 3.9387057
1284 3.977375
1282 4.0250411
1280 4.0673637
1278 4.0948939
1276 4.1150103
1274 4.1279402
1272 4.1431727
1270 4.1714058
1268 4.2185683
1266 4.2949815
1264 4.4072347
1262 4.5582786
1260 4.7286577
1258 4.9171543
1256 5.1072402
1254 5.2989874
1252 5.493969
1250 5.6841397
1248 5.8524537
1246 6.004025
1244 6.1277609
1242 6.2375045
1240 6.3303986
1238 6.3975306
1236 6.3966517
1234 6.3448815
1232 6.171216
1230 5.9502659
1228 5.6169291
1226 5.2517829
1224 4.803606
1222 4.3317418
1220 3.8036668
1218 3.2755229
1216 2.7528486
1214 2.2714767
1212 1.86804
1210 1.5288501
1208 1.2822515
1206 1.0790231
1204 0.92168045
1202 0.76626778
1200 0.60689974
1198 0.42134017
1196 0.21340229
1194 -0.013322353
1192 -0.24032885
1190 -0.4238182
1188 -0.56893778
1186 -0.63509274
1184 -0.66521043
1182 -0.65358645
1180 -0.61696923
1178 -0.5145551
1176 -0.37193599
1174 -0.10117389
1172 0.19191372
1170 0.53870451
1168 0.86203635
1166 1.1074278
1164 1.306618
1162 1.38914
1160 1.4237325
1158 1.3616987
1156 1.2660514
1154 1.1174914
1152 0.96314794
1150 0.80303729
1148 0.64806819
1146 0.49899572
1144 0.35378981
1142 0.21623778
1140 0.10656349
1138 0.024591751
1136 -0.0085461028
1134 -0.0076029114
1132 0.06541799
1130 0.17293841
1128 0.31835514
1126 0.46771345
1124 0.58544004
1122 0.68532783
1120 0.71988839
1118 0.74759471
1116 0.77044803
1114 0.8029325
1112 0.8764925
1110 0.95870048
1108 1.0684326
1106 1.1848149
1104 1.3165331
1102 1.446543
1100 1.570716
1098 1.6764687
1096 1.7517142
1094 1.8063862
1092 1.837302
1090 1.8780285
1088 1.9314954
1086 2.0102677
1084 2.1069219
1082 2.1916294
1080 2.2633801
1078 2.2882459
1076 2.2868729
1074 2.2458706
1072 2.188381
1070 2.1088357
1068 2.0197432
1066 1.9000549
1064 1.776476
1062 1.6541647
1060 1.5418249
1058 1.4931276
1056 1.4538058
1054 1.4556031
1052 1.4576235
1050 1.460978
1048 1.4593017
1046 1.4441286
1044 1.4140052
1042 1.3537577
1040 1.2756102
1038 1.1699371
1036 1.054988
1034 0.92939717
1032 0.79736048
1030 0.65894771
1028 0.50434566
1026 0.33852404
1024 0.16691966
1022 -0.0037527755
1020 -0.12938252
1018 -0.23392463
1016 -0.29251769
1014 -0.34205484
1012 -0.42807445
1010 -0.52477229
1008 -0.67466199
1006 -0.82792604
1004 -0.9702245
1002 -1.1061095
1000 -1.1991993
998 -1.2795286
996 -1.3039143
994 -1.316902
992 -1.2957246
990 -1.2776815
988 -1.2669771
986 -1.2558515
984 -1.2422366
982 -1.2214957
980 -1.191584
978 -1.1791397
976 -1.1854972
974 -1.2016428
972 -1.2234012
970 -1.2035791
968 -1.1557257
966 -1.0678935
964 -0.96243823
962 -0.86741102
960 -0.77771908
958 -0.71684307
956 -0.66211814
954 -0.59725487
952 -0.52924478
950 -0.41111538
948 -0.28600633
946 -0.092220433
944 0.0034525692
942 0.10721983
940 0.30495244
938 0.48976389
936 0.66809571
934 0.82842463
932 1.0042132
930 1.2116566
928 1.3683349
926 1.4417329
924 1.403218
922 1.2287836
920 1.023067
918 0.7887435
916 0.5923577
914 0.4231742
912 0.318284
910 0.249578
908 0.26465696
906 0.31471157
904 0.40867499
902 0.51629078
900 0.65861517
898 0.80730134
896 1.0249
