##TITLE=Methyl Ethyl Ketone
##JCAMP-DX=4.24
##DATA TYPE=INFRARED SPECTRUM
##XUNITS=cm-1
##YUNITS=Absorbance
##FIRSTX=900
##LASTX=2300
##XYDATA=(X++(Y..Y))
2296 0.10832
2294 0.11057677
2292 0.11282357
2290 0.11508031
2288 0.11733709
2286 0.11958393
2284 0.12184063
2282 0.1240974
2280 0.12634428
2278 0.12860094
2276 0.13085771
2274 0.13310464
2272 0.13536125
2270 0.13760822
2268 0.1398648
2266 0.14214113
2264 0.1443788
2262 0.14656682
2260 0.14888033
2258 0.15137213
2256 0.15339257
2254 0.1547692
2252 0.15786099
2250 0.16339535
2248 0.16251771
2246 0.1438982
2244 0.09679547
2242 0.018852167
2240 -0.059178039
2238 -0.10902086
2236 -0.150034
2234 -0.20715408
2232 -0.27278873
2230 -0.33109477
2228 -0.37132579
2226 -0.38868698
2224 -0.39604515
2222 -0.40589985
2220 -0.40817955
2218 -0.38743961
2216 -0.33347601
2214 -0.24510896
2212 -0.1508484
2210 -0.08382497
2208 -0.059724219
2206 -0.080335408
2204 -0.11314818
2202 -0.11984637
2200 -0.080930777
2198 0.0092812795
2196 0.12446528
2194 0.2328309
2192 0.32057914
2190 0.38143045
2188 0.41611356
2186 0.42506236
2184 0.39905879
2182 0.33128342
2180 0.23772778
2178 0.14368622
2176 0.082311772
2174 0.082682289
2172 0.14753738
2170 0.26512849
2168 0.40004188
2166 0.51248622
2164 0.57609373
2162 0.57696581
2160 0.53325927
2158 0.47172987
2156 0.41052002
2154 0.36135045
2152 0.32297274
2150 0.29276913
2148 0.28073031
2146 0.29771465
2144 0.33983383
2142 0.39566138
2140 0.44435373
2138 0.46822017
2136 0.47561085
2134 0.48186639
2132 0.4926028
2130 0.50597912
2128 0.50491601
2126 0.47391424
2124 0.42622635
2122 0.3839117
2120 0.3612493
2118 0.36435121
2116 0.37876427
2114 0.38596389
2112 0.38149381
2110 0.36759746
2108 0.35123646
2106 0.33955473
2104 0.33369532
2102 0.33121684
2100 0.32427362
2098 0.30597565
2096 0.28152287
2094 0.26153305
2092 0.25937656
2090 0.2852107
2088 0.33205965
2086 0.386839
2084 0.439156
2082 0.48044521
2080 0.50420612
2078 0.50618201
2076 0.48825842
2074 0.45702457
2072 0.42851719
2070 0.41806906
2068 0.42254397
2066 0.43106115
2064 0.43257004
2062 0.41938755
2060 0.39666933
2058 0.37272981
2056 0.34670284
2054 0.31478158
2052 0.27798837
2050 0.23965378
2048 0.20338881
2046 0.17187965
2044 0.14384359
2042 0.1190069
2040 0.10852046
2038 0.12486915
2036 0.16496728
2034 0.21603757
2032 0.25413769
2030 0.25731421
2028 0.23103383
2026 0.19536172
2024 0.17968303
2022 0.20891279
2020 0.27427951
2018 0.3495529
2016 0.39952201
2014 0.39292938
2012 0.32899731
2010 0.22335663
2008 0.10159867
2006 -0.010014843
2004 -0.098205656
2002 -0.1588278
2000 -0.20006914
1998 -0.23389764
1996 -0.26541215
1994 -0.29423255
1992 -0.31169492
1990 -0.30712947
1988 -0.27706939
1986 -0.22492264
1984 -0.16776863
1982 -0.12698671
1980 -0.11535926
1978 -0.13398376
1976 -0.15353772
1974 -0.1354748
1972 -0.064031765
1970 0.053979404
1968 0.16718854
1966 0.21187887
1964 0.16250049
1962 0.024599204
1960 -0.15098569
1958 -0.30109963
1956 -0.40135571
1954 -0.45390147
1952 -0.4838779
1950 -0.51938772
1948 -0.55739915
1946 -0.578385
1944 -0.56402725
1942 -0.50473583
1940 -0.42034161
1938 -0.34393281
1936 -0.30024743
1934 -0.30389443
1932 -0.34976101
1930 -0.42039543
1928 -0.48829907
1926 -0.52269989
1924 -0.49842715
1922 -0.40269637
1920 -0.2618351
1918 -0.12031507
1916 -0.010532716
1914 0.050699793
1912 0.078190126
1910 0.096988916
1908 0.1041146
1906 0.080413893
1904 0.01007684
1902 -0.1088317
1900 -0.23216562
1898 -0.29631031
1896 -0.26426715
1894 -0.13105735
1892 0.043839313
1890 0.17294066
1888 0.20008063
1886 0.10486734
1884 -0.068966344
1882 -0.24948558
1880 -0.39500862
1878 -0.48929963
1876 -0.53608
1874 -0.54511005
1872 -0.51006383
1870 -0.42201477
1868 -0.30667546
1866 -0.20991394
1864 -0.17106171
1862 -0.21316861
1860 -0.31403559
1858 -0.43056437
1856 -0.54543513
1854 -0.66042817
1852 -0.78055906
1850 -0.90803707
1848 -1.0321136
1846 -1.1358036
1844 -1.2098371
1842 -1.2523931
1840 -1.2686988
1838 -1.2649733
1836 -1.2357486
1834 -1.167524
1832 -1.0474023
1830 -0.87124044
1828 -0.6681909
1826 -0.48611736
1824 -0.36210862
1822 -0.31626964
1820 -0.3340728
1818 -0.38000619
1816 -0.42036143
1814 -0.43026417
1812 -0.4082267
1810 -0.36730137
1808 -0.3185524
1806 -0.270358
1804 -0.23271711
1802 -0.21494684
1800 -0.2166176
1798 -0.22482556
1796 -0.20052715
1794 -0.10098559
1792 0.056704119
1790 0.21485367
1788 0.3256436
1786 0.36371213
1784 0.35115406
1782 0.33690348
1780 0.34977466
1778 0.40052959
1776 0.4994497
1774 0.64950848
1772 0.81133401
1770 0.91698301
1768 0.90544856
1766 0.74496591
1764 0.4974404
1762 0.26976678
1760 0.073313311
1758 -0.14251938
1756 -0.35675973
1754 -0.49495679
1752 -0.5233947
1750 -0.45539272
1748 -0.3452222
1746 -0.26660392
1744 -0.26819038
1742 -0.35948458
1740 -0.47047547
1738 -0.48846918
1736 -0.36340201
1734 -0.11790736
1732 0.14278242
1730 0.27844957
1728 0.23994353
1726 0.070365161
1724 -0.11680578
1722 -0.16712651
1720 0.066156164
1718 0.6777122
1716 1.575495
1714 2.5360601
1712 3.3917892
1710 4.0790319
1708 4.7167602
1706 5.5546665
1704 6.8261938
1702 8.7179661
1700 11.352458
1698 14.737144
1696 18.546572
1694 22.242069
1692 25.502575
1690 28.302214
1688 30.99807
1686 34.196701
1684 38.369106
1682 43.679638
1680 49.566681
1678 55.038624
1676 59.804043
1674 64.260704
1672 68.861404
1670 73.884819
1668 79.09967
1666 83.907196
1664 87.954933
1662 91.195961
1660 93.699295
1658 95.578835
1656 96.918945
1654 97.757439
1652 98.069244
1650 97.788017
1648 96.882576
1646 95.397392
1644 93.548676
1642 91.648819
1640 89.784698
1638 87.801888
1636 85.472084
1634 82.582138
1632 79.117027
1630 75.232117
1628 71.020638
1626 66.490501
1624 61.667839
1622 56.632912
1620 51.56522
1618 46.713203
1616 42.247627
1614 38.243504
1612 34.749481
1610 31.792549
1608 29.333817
1606 27.277021
1604 25.534822
1602 24.052145
1600 22.822359
1598 21.87937
1596 21.247002
1594 20.923246
1592 20.868816
1590 21.016005
1588 21.316874
1586 21.754877
1584 22.342239
1582 23.12108
1580 24.177921
1578 25.631271
1576 27.558313
1574 29.963873
1572 32.74091
1570 35.687618
1568 38.631279
1566 41.459156
1564 44.099125
1562 46.546162
1560 48.990108
1558 51.734695
1556 54.683872
1554 57.30777
1552 59.168159
1550 60.082718
1548 60.199188
1546 59.913929
1544 59.362022
1542 58.338303
1540 56.630962
1538 54.162857
1536 51.188145
1534 48.251595
1532 45.680702
1530 43.473888
1528 41.51683
1526 39.649052
1524 37.727791
1522 35.657124
1520 33.426964
1518 31.125589
1516 28.901485
1514 26.913158
1512 25.13656
1510 23.3354
1508 21.284302
1506 18.870457
1504 16.223457
1502 13.704443
1500 11.548617
1498 9.7659025
1496 8.2614288
1494 6.8847475
1492 5.5498986
1490 4.2650671
1488 3.0523143
1486 1.9322493
1484 0.95502317
1482 0.20462376
1480 -0.24677205
1478 -0.34582999
1476 -0.016479701
1474 0.8223865
1472 2.1025441
1470 3.5781689
1468 5.0456691
1466 6.4171009
1464 7.6917434
1462 8.9412746
1460 10.206778
1458 11.457546
1456 12.5906
1454 13.444499
1452 13.924874
1450 14.047134
1448 13.867519
1446 13.460893
1444 12.894137
1442 12.214741
1440 11.455754
1438 10.633444
1436 9.7480545
1434 8.7919607
1432 7.7999959
1430 6.8644981
1428 6.0708742
1426 5.4710722
1424 5.0741539
1422 4.8403544
1420 4.7238922
1418 4.6896353
1416 4.7272916
1414 4.8571711
1412 5.0997109
1410 5.4621921
1408 5.9283719
1406 6.4511123
1404 6.9683585
1402 7.4082651
1400 7.7055759
1398 7.8137188
1396 7.7228999
1394 7.4725742
1392 7.1208768
1390 6.7328386
1388 6.3493953
1386 5.9745202
1384 5.6111164
1382 5.271349
1380 4.9606872
1378 4.6682262
1376 4.3583374
1374 3.969187
1372 3.467186
1370 2.8720679
1368 2.2256982
1366 1.5827943
1364 0.98408467
1362 0.44683322
1360 -0.0031749755
1358 -0.32067442
1356 -0.47034055
1354 -0.43992645
1352 -0.22653978
1350 0.162532
1348 0.69694829
1346 1.315625
1344 1.9642479
1342 2.609823
1340 3.2200541
1338 3.7539546
1336 4.1571569
1334 4.3627968
1332 4.3374066
1330 4.1092539
1328 3.7324772
1326 3.2797427
1324 2.8220007
1322 2.4174778
1320 2.1061473
1318 1.8984852
1316 1.7804301
1314 1.7083706
1312 1.6389103
1310 1.5433975
1308 1.4157059
1306 1.2812028
1304 1.1696115
1302 1.104014
1300 1.0990006
1298 1.1584679
1296 1.2903286
1294 1.5132024
1292 1.8428129
1290 2.2831771
1288 2.821296
1286 3.4181442
1284 4.0243626
1282 4.5844092
1280 5.050211
1278 5.3933229
1276 5.6119642
1274 5.7448092
1272 5.8434925
1270 5.9634643
1268 6.1449566
1266 6.3985057
1264 6.7252331
1262 7.1225553
1260 7.5901842
1258 8.1340904
1256 8.7623291
1254 9.4838781
1252 10.30662
1250 11.233869
1248 12.25504
1246 13.34
1244 14.444197
1242 15.508389
1240 16.471102
1238 17.26861
1236 17.837671
1234 18.116795
1232 18.051241
1230 17.609934
1228 16.793308
1226 15.659793
1224 14.296599
1222 12.827303
1220 11.380026
1218 10.071869
1216 8.994894
1214 8.1893625
1212 7.6676612
1210 7.4066758
1208 7.3595686
1206 7.4466133
1204 7.573792
1202 7.6363525
1200 7.548058
1198 7.2692699
1196 6.791357
1194 6.1488342
1192 5.3916469
1190 4.5807552
1188 3.7804542
1186 3.0543857
1184 2.4529319
1182 1.9962901
1180 1.6820657
1178 1.4758929
1176 1.34194
1174 1.259014
1172 1.214878
1170 1.2089559
1168 1.2371845
1166 1.2817436
1164 1.3224771
1162 1.3424931
1160 1.3321657
1158 1.2964873
1156 1.2403343
1154 1.1598238
1152 1.0484867
1150 0.89914203
1148 0.71361738
1146 0.51439714
1144 0.32855898
1142 0.18067136
1140 0.081591748
1138 0.012406539
1136 -0.044376712
1134 -0.086718082
1132 -0.11240809
1130 -0.12912983
1128 -0.14002931
1126 -0.1320865
1124 -0.09188652
1122 -0.015407383
1120 0.089563318
1118 0.19275154
1116 0.26548329
1114 0.29752684
1112 0.29497835
1110 0.2922647
1108 0.32002532
1106 0.38204649
1104 0.47122175
1102 0.5708043
1100 0.6757673
1098 0.81577194
1096 1.0199257
1094 1.2935724
1092 1.62649
1090 1.9837989
1088 2.3360023
1086 2.6823757
1084 3.026799
1082 3.3660779
1080 3.6843309
1078 3.937638
1076 4.0839343
1074 4.1049395
1072 3.999824
1070 3.7984457
1068 3.5404968
1066 3.2713921
1064 3.0314682
1062 2.8430471
1060 2.7153482
1058 2.634944
1056 2.5836599
1054 2.5467484
1052 2.5092282
1050 2.4552
1048 2.3717532
1046 2.256382
1044 2.1199818
1042 2.0048287
1040 1.9603657
1038 2.0329697
1036 2.24581
1034 2.5548341
1032 2.8872526
1030 3.1352143
1028 3.206502
1026 3.0823114
1024 2.7793422
1022 2.3681848
1020 1.928144
1018 1.5244694
1016 1.205326
1014 0.97564161
1012 0.81877971
1010 0.6844281
1008 0.52159595
1006 0.30334011
1004 0.020382941
1002 -0.29994643
1000 -0.62141287
998 -0.90858167
996 -1.1351571
994 -1.303019
992 -1.42196
990 -1.5038593
988 -1.5557054
986 -1.5679172
984 -1.5334892
982 -1.4672489
980 -1.38635
978 -1.2987291
976 -1.2064743
974 -1.1020818
972 -0.98415625
970 -0.88052446
968 -0.81865656
966 -0.80043203
964 -0.81307697
962 -0.81611776
960 -0.77143037
958 -0.6728332
956 -0.52943027
954 -0.37542862
952 -0.2443544
950 -0.14532691
948 -0.07722427
946 -0.024175467
944 0.030152939
942 0.090410993
940 0.14944692
938 0.16856751
936 0.12006448
934 0.044468384
932 -0.00071083382
930 0.041485116
928 0.20912686
926 0.47076392
924 0.7759288
922 1.067868
920 1.3018508
918 1.4849153
916 1.6383328
914 1.7876433
912 1.9543052
910 2.1383159
908 2.329464
906 2.4996407
904 2.6167045
902 2.6520059
900 2.5832119
898 2.4125209
896 2.1475
