##TITLE=Methyl Ethyl Ketone
##JCAMP-DX=4.24
##DATA TYPE=INFRARED SPECTRUM
##XUNITS=cm-1
##YUNITS=Absorbance
##FIRSTX=900
##LASTX=2300
##XYDATA=(X++(Y..Y))
2296 0.21156999
2294 0.21597369
2292 0.2203774
2290 0.22477116
2288 0.22917481
2286 0.2335785
2284 0.2379822
2282 0.242376
2280 0.24677961
2278 0.25118327
2276 0.25558701
2274 0.25999072
2272 0.26438457
2270 0.26877829
2268 0.2731916
2266 0.27762488
2264 0.28199011
2262 0.2862758
2260 0.29079351
2258 0.29564783
2256 0.29961714
2254 0.30231988
2252 0.30834702
2250 0.31904319
2248 0.31742996
2246 0.28015786
2244 0.17880654
2242 0.0034300853
2240 -0.17602925
2238 -0.28436846
2236 -0.31608558
2234 -0.28998613
2232 -0.24198863
2230 -0.20327464
2228 -0.1666477
2226 -0.117997
2224 -0.060375314
2222 -0.0061224084
2220 0.015569085
2218 -0.020778654
2216 -0.10574441
2214 -0.21663307
2212 -0.31931621
2210 -0.38558426
2208 -0.42448479
2206 -0.45492014
2204 -0.48960605
2202 -0.53274113
2200 -0.56227231
2198 -0.55551589
2196 -0.52023357
2194 -0.47797173
2192 -0.46725988
2190 -0.52291125
2188 -0.64374465
2186 -0.81221294
2184 -0.99111998
2182 -1.1422753
2180 -1.2486823
2178 -1.301429
2176 -1.2982771
2174 -1.2404552
2172 -1.1362011
2170 -1.0006833
2168 -0.86870742
2166 -0.77621639
2164 -0.73779255
2162 -0.75373948
2160 -0.79593718
2158 -0.83190012
2156 -0.849958
2154 -0.84865069
2152 -0.83832586
2150 -0.82982618
2148 -0.82001823
2146 -0.8041743
2144 -0.79121256
2142 -0.79247552
2140 -0.80922079
2138 -0.83561432
2136 -0.85204887
2134 -0.83958608
2132 -0.80181539
2130 -0.75086313
2128 -0.70028919
2126 -0.66342849
2124 -0.6517055
2122 -0.67448819
2120 -0.73566902
2118 -0.83242661
2116 -0.94255269
2114 -1.039898
2112 -1.111276
2110 -1.1553192
2108 -1.1974063
2106 -1.2650692
2104 -1.3513354
2102 -1.432242
2100 -1.4669501
2098 -1.4205736
2096 -1.3060143
2094 -1.1584026
2092 -1.0263826
2090 -0.95652235
2088 -0.96686715
2086 -1.0564765
2084 -1.1921972
2082 -1.3306056
2080 -1.4355103
2078 -1.4820386
2076 -1.4768429
2074 -1.4365991
2072 -1.367492
2070 -1.2718428
2068 -1.1551591
2066 -1.02913
2064 -0.92363685
2062 -0.86760414
2060 -0.8554731
2058 -0.86602247
2056 -0.87391967
2054 -0.85871738
2052 -0.82478988
2050 -0.78577423
2048 -0.75021923
2046 -0.72625142
2044 -0.73152298
2042 -0.78446156
2040 -0.88888794
2038 -1.0339389
2036 -1.1746157
2034 -1.2585006
2032 -1.264516
2030 -1.194598
2028 -1.0872314
2026 -0.98911512
2024 -0.91643012
2022 -0.86924851
2020 -0.84068787
2018 -0.82743925
2016 -0.85110998
2014 -0.93564034
2012 -1.0663501
2010 -1.2088646
2008 -1.3228709
2006 -1.3770692
2004 -1.3868455
2002 -1.386094
2000 -1.3961303
1998 -1.4233015
1996 -1.4425499
1994 -1.4214519
1992 -1.3580211
1990 -1.270643
1988 -1.198652
1986 -1.1840779
1984 -1.2411424
1982 -1.3643935
1980 -1.5223603
1978 -1.6698413
1976 -1.7520572
1974 -1.7199069
1972 -1.5664042
1970 -1.3163509
1968 -1.0404233
1966 -0.82317364
1964 -0.7177465
1962 -0.74860364
1960 -0.89096606
1958 -1.0983578
1956 -1.3320271
1954 -1.5591044
1952 -1.7480628
1950 -1.8685162
1948 -1.8945265
1946 -1.8129749
1944 -1.655748
1942 -1.4762695
1940 -1.3217986
1938 -1.2254061
1936 -1.1807829
1934 -1.1643184
1932 -1.1660141
1930 -1.1837747
1928 -1.2120566
1926 -1.2388607
1924 -1.2356871
1922 -1.1774288
1920 -1.0929149
1918 -1.0337219
1916 -1.0197257
1914 -1.042305
1912 -1.0535852
1910 -1.0026108
1908 -0.9116981
1906 -0.84162045
1904 -0.83719319
1902 -0.91695476
1900 -1.0395427
1898 -1.135919
1896 -1.1586
1894 -1.0891955
1892 -0.97063595
1890 -0.8789441
1888 -0.88667268
1886 -1.0416512
1884 -1.3052865
1882 -1.5919553
1880 -1.8260679
1878 -1.9513764
1876 -1.9486101
1874 -1.8204864
1872 -1.5751212
1870 -1.235499
1868 -0.88623768
1866 -0.63866055
1864 -0.5607301
1862 -0.6718964
1860 -0.90768212
1858 -1.1667926
1856 -1.3962429
1854 -1.5807233
1852 -1.720818
1850 -1.8213745
1848 -1.878704
1846 -1.8852072
1844 -1.8404943
1842 -1.7495797
1840 -1.6187749
1838 -1.4534752
1836 -1.2543299
1834 -1.0220287
1832 -0.76998073
1830 -0.5268572
1828 -0.3517544
1826 -0.31078357
1824 -0.41873765
1822 -0.64721382
1820 -0.93124819
1818 -1.1938354
1816 -1.3927715
1814 -1.5152208
1812 -1.5681865
1810 -1.5645025
1808 -1.4969686
1806 -1.3515401
1804 -1.1498249
1802 -0.93925965
1800 -0.76975334
1798 -0.67430758
1796 -0.61576641
1794 -0.52156788
1792 -0.37267599
1790 -0.19389199
1788 -0.017477751
1786 0.13022073
1784 0.24941444
1782 0.35570183
1780 0.45126054
1778 0.53302431
1776 0.62706202
1774 0.76855582
1772 0.93440711
1770 1.0544719
1768 1.0444034
1766 0.84487277
1764 0.53245437
1762 0.2584669
1760 0.068780802
1758 -0.068589568
1756 -0.13519329
1754 -0.073687911
1752 0.12900543
1750 0.43166009
1748 0.72173214
1746 0.85341823
1744 0.74475944
1742 0.39639688
1740 -0.057296142
1738 -0.4097293
1736 -0.54666603
1734 -0.46271101
1732 -0.27572864
1730 -0.16323249
1728 -0.20179218
1726 -0.35669371
1724 -0.48712963
1722 -0.39026451
1720 0.1072602
1718 1.0865289
1716 2.3503141
1714 3.5233026
1712 4.3869247
1710 4.9241719
1708 5.3394961
1706 5.975265
1704 7.1122479
1702 8.9407768
1700 11.563457
1698 14.958736
1696 18.795143
1694 22.545401
1692 25.891863
1690 28.802837
1688 31.617823
1686 34.901558
1684 39.010048
1682 43.970482
1680 49.260681
1678 54.084843
1676 58.347958
1674 62.581802
1672 67.206718
1670 72.334763
1668 77.570854
1666 82.209145
1664 85.927574
1662 88.812477
1660 91.024231
1658 92.705551
1656 93.940117
1654 94.760353
1652 95.18808
1650 95.227524
1648 94.798355
1646 93.783218
1644 92.251755
1642 90.431908
1640 88.452568
1638 86.302147
1636 83.870598
1634 81.013077
1632 77.737289
1630 74.181068
1628 70.384171
1626 66.274155
1624 61.79668
1622 56.964142
1620 51.936119
1618 46.992424
1616 42.373829
1614 38.245861
1612 34.697742
1610 31.741261
1608 29.301971
1606 27.242865
1604 25.456951
1602 23.888691
1600 22.53244
1598 21.420597
1596 20.583
1594 20.034575
1592 19.762405
1590 19.731152
1588 19.915342
1586 20.304485
1584 20.889154
1582 21.66818
1580 22.690117
1578 24.048456
1576 25.822828
1574 28.047312
1572 30.642443
1570 33.42733
1568 36.246319
1566 38.993877
1564 41.589333
1562 44.015881
1560 46.502537
1558 49.436352
1556 52.7453
1554 55.840061
1552 58.172989
1550 59.43784
1548 59.759575
1546 59.624966
1544 59.263332
1542 58.533726
1540 57.24514
1538 55.292824
1536 52.857315
1534 50.38588
1532 48.180801
1530 46.295444
1528 44.658993
1526 43.114952
1524 41.485176
1522 39.607887
1520 37.420681
1518 34.989849
1516 32.481274
1514 30.107994
1512 27.88468
1510 25.596235
1508 23.081451
1506 20.338472
1504 17.574537
1502 15.160403
1500 13.24724
1498 11.680799
1496 10.267071
1494 8.8600893
1492 7.4192219
1490 6.0104046
1488 4.6601772
1486 3.3333542
1484 2.0584521
1482 0.95865393
1480 0.16609275
1478 -0.20056246
1476 -0.021348298
1474 0.79256582
1472 2.1355028
1470 3.680896
1468 5.1601834
1466 6.4571648
1464 7.5752316
1462 8.6285591
1460 9.7420416
1458 10.999345
1456 12.3484
1454 13.57687
1452 14.472788
1450 14.892592
1448 14.822251
1446 14.396965
1444 13.757257
1442 13.00607
1440 12.216697
1438 11.428802
1436 10.648442
1434 9.8486948
1432 9.0191898
1430 8.1835585
1428 7.3881779
1426 6.6972756
1424 6.1664085
1422 5.828588
1420 5.6835399
1418 5.6903114
1416 5.7938743
1414 5.9375372
1412 6.0977798
1410 6.2981939
1408 6.5698738
1406 6.9347239
1404 7.3823066
1402 7.8560967
1400 8.2775364
1398 8.5570707
1396 8.6364431
1394 8.5118074
1392 8.2184381
1390 7.8272357
1388 7.3931432
1386 6.9361849
1384 6.471416
1382 6.0162158
1380 5.5792418
1378 5.1513853
1376 4.7005515
1374 4.1725745
1372 3.548038
1370 2.8689795
1368 2.1946461
1366 1.5838293
1364 1.0634005
1362 0.61441618
1360 0.2284103
1358 -0.071120188
1356 -0.25358385
1354 -0.29023239
1352 -0.16254331
1350 0.12993804
1348 0.56870484
1346 1.1148182
1344 1.744344
1342 2.4594789
1340 3.2374649
1338 4.0022516
1336 4.644763
1334 5.0331383
1332 5.0961037
1330 4.8730202
1328 4.4449663
1326 3.9196587
1324 3.4008639
1322 2.9712119
1320 2.6774707
1318 2.5110495
1316 2.4298601
1314 2.3600504
1312 2.2418041
1310 2.0543172
1308 1.8015108
1306 1.5140879
1304 1.2294046
1302 0.98525268
1300 0.82009518
1298 0.77103007
1296 0.86125284
1294 1.0884007
1292 1.43392
1290 1.8622308
1288 2.341392
1286 2.8528073
1284 3.3788881
1282 3.8973672
1280 4.3790321
1278 4.7860165
1276 5.0952058
1274 5.3153472
1272 5.4730182
1270 5.6119509
1268 5.7686429
1266 5.9588923
1264 6.1962838
1262 6.5005183
1260 6.8982501
1258 7.4238648
1256 8.096837
1254 8.9044962
1252 9.8188677
1250 10.799385
1248 11.814732
1246 12.855499
1244 13.912983
1242 14.965557
1240 15.966811
1238 16.835886
1236 17.490257
1234 17.867075
1232 17.924921
1230 17.65542
1228 17.06583
1226 16.180128
1224 15.039429
1222 13.713575
1220 12.298454
1218 10.922314
1216 9.7132282
1214 8.7726841
1212 8.1635227
1210 7.8772364
1208 7.8629313
1206 8.0171175
1204 8.2237082
1202 8.3687315
1200 8.3620558
1198 8.1646719
1196 7.76685
1194 7.1959567
1192 6.4917688
1190 5.7020612
1188 4.8816166
1186 4.0944982
1184 3.3976808
1182 2.8252609
1180 2.3862116
1178 2.0474727
1176 1.77018
1174 1.5265448
1172 1.3094451
1170 1.14969
1168 1.0772189
1166 1.0978078
1164 1.1973046
1162 1.330696
1160 1.4511057
1158 1.5248253
1156 1.5251029
1154 1.4361901
1152 1.2584417
1150 1.0229928
1148 0.76919496
1146 0.53640997
1144 0.35182795
1142 0.21383518
1140 0.10915117
1138 0.015096322
1136 -0.077113286
1134 -0.1402819
1132 -0.15663719
1130 -0.15084441
1128 -0.15460749
1126 -0.19049093
1124 -0.26476446
1122 -0.3495869
1120 -0.40964401
1118 -0.41287702
1116 -0.34240243
1114 -0.21712889
1112 -0.068740502
1110 0.061545499
1108 0.13789965
1106 0.14493604
1104 0.083988652
1102 -0.013992317
1100 -0.11277092
1098 -0.18070422
1096 -0.18688285
1094 -0.099372916
1092 0.11589652
1090 0.49545482
1088 1.0538121
1086 1.7447522
1084 2.4887762
1082 3.1599674
1080 3.6444972
1078 3.8929908
1076 3.9003499
1074 3.7379355
1072 3.4884646
1070 3.2144575
1068 2.9654422
1066 2.7671692
1064 2.6325159
1062 2.5544147
1060 2.5136721
1058 2.4726512
1056 2.4052973
1054 2.3292124
1052 2.2706473
1050 2.2503641
1048 2.2749143
1046 2.3161643
1044 2.3457539
1042 2.3593798
1040 2.3661537
1038 2.3972318
1036 2.4811699
1034 2.6224751
1032 2.8075325
1030 2.9866524
1028 3.1086183
1026 3.1446493
1024 3.0761223
1022 2.899982
1020 2.6235251
1018 2.2760561
1016 1.9041001
1014 1.5892805
1012 1.3934005
1010 1.2909188
1008 1.225216
1006 1.1121436
1004 0.89633936
1002 0.63288409
1000 0.39208412
998 0.20634387
996 0.078532577
994 -0.051749751
992 -0.24577296
990 -0.51700377
988 -0.84864342
986 -1.1647058
984 -1.381744
982 -1.4407637
980 -1.315356
978 -1.0653094
976 -0.76791656
974 -0.48688388
972 -0.26079881
970 -0.056239396
968 0.16523714
966 0.39875251
964 0.62212491
962 0.79118085
960 0.86821914
958 0.85617214
956 0.7651099
954 0.59543115
952 0.35975921
950 0.12192998
948 -0.039048918
946 -0.036151037
944 0.20262879
942 0.68719524
940 1.3672514
938 2.0328009
936 2.4818115
934 2.6863654
932 2.6910684
930 2.6454952
928 2.6932325
926 2.858427
924 3.1211641
922 3.4081166
920 3.6501327
918 3.8437757
916 4.0075569
914 4.1798015
912 4.3897462
910 4.6118894
908 4.7995925
906 4.8791838
904 4.8066907
902 4.682982
900 4.6325803
898 4.7308431
896 5.0405998
