##TITLE=Methyl Ethyl Ketone
##JCAMP-DX=4.24
##DATA TYPE=INFRARED SPECTRUM
##XUNITS=cm-1
##YUNITS=Absorbance
##FIRSTX=900
##LASTX=2300
##XYDATA=(X++(Y..Y))
2296 -0.027078999
2294 -0.027642194
2292 -0.028205389
2290 -0.028768582
2288 -0.029331777
2286 -0.02989497
2284 -0.030459156
2282 -0.031022361
2280 -0.031585556
2278 -0.032148749
2276 -0.032711942
2274 -0.033276122
2272 -0.033839334
2270 -0.03439958
2268 -0.03496566
2266 -0.035539679
2264 -0.03609236
2262 -0.036616273
2260 -0.037217468
2258 -0.03792762
2256 -0.038350143
2254 -0.03836685
2252 -0.039454706
2250 -0.042053897
2248 -0.040670216
2246 -0.028622286
2244 -0.0010466115
2242 0.041015506
2240 0.074853644
2238 0.077027045
2236 0.045780703
2234 -0.01267232
2232 -0.085114367
2230 -0.15858066
2228 -0.22900203
2226 -0.29831198
2224 -0.38209555
2222 -0.49172491
2220 -0.60539252
2218 -0.69310963
2216 -0.731646
2214 -0.71133107
2212 -0.66860825
2210 -0.64765847
2208 -0.66790181
2206 -0.73343641
2204 -0.81769341
2202 -0.88935632
2200 -0.9355306
2198 -0.9497121
2196 -0.92739141
2194 -0.8672927
2192 -0.77890509
2190 -0.67766255
2188 -0.58926231
2186 -0.53781229
2184 -0.52791882
2182 -0.55745482
2180 -0.6226508
2178 -0.71811324
2176 -0.83356172
2174 -0.95460433
2172 -1.0566163
2170 -1.11464
2168 -1.1168652
2166 -1.0614457
2164 -0.97136933
2162 -0.87740535
2160 -0.80875623
2158 -0.78576273
2156 -0.79533499
2154 -0.81483203
2152 -0.82915395
2150 -0.83151841
2148 -0.83763063
2146 -0.86507213
2144 -0.9076544
2142 -0.94944733
2140 -0.96953446
2138 -0.9542073
2136 -0.92546511
2134 -0.91373652
2132 -0.93164909
2130 -0.97725421
2128 -1.016446
2126 -1.0132686
2124 -0.97225493
2122 -0.91406459
2120 -0.86517638
2118 -0.84769827
2116 -0.8590827
2114 -0.88797134
2112 -0.92470175
2110 -0.95966178
2108 -0.97940135
2106 -0.97230339
2104 -0.94028348
2102 -0.89245331
2100 -0.84620363
2098 -0.81869632
2096 -0.8136943
2094 -0.82697737
2092 -0.84305668
2090 -0.84517974
2088 -0.82874149
2086 -0.79706502
2084 -0.76584399
2082 -0.75217485
2080 -0.75956535
2078 -0.78427589
2076 -0.81588918
2074 -0.84307748
2072 -0.86093199
2070 -0.86759871
2068 -0.86273766
2066 -0.84640491
2064 -0.81836474
2062 -0.77934277
2060 -0.73474652
2058 -0.6918897
2056 -0.65772653
2054 -0.63698846
2052 -0.62600875
2050 -0.61849934
2048 -0.61200017
2046 -0.60709965
2044 -0.60979784
2042 -0.62613922
2040 -0.65309918
2038 -0.68275797
2036 -0.70356232
2034 -0.70522106
2032 -0.68846589
2030 -0.65897679
2028 -0.62265283
2026 -0.58338803
2024 -0.53719074
2022 -0.48018172
2020 -0.42367423
2018 -0.38501674
2016 -0.37729001
2014 -0.40517172
2012 -0.44748574
2010 -0.47746482
2008 -0.4941071
2006 -0.50949955
2004 -0.53818065
2002 -0.5892306
2000 -0.64711201
1998 -0.68868876
1996 -0.70758998
1994 -0.70752347
1992 -0.6985383
1990 -0.68939561
1988 -0.67287618
1986 -0.6364181
1984 -0.57797241
1982 -0.50222725
1980 -0.41913772
1978 -0.338521
1976 -0.26031801
1974 -0.1802786
1972 -0.097389013
1970 -0.015512299
1968 0.048781104
1966 0.075269178
1964 0.054504931
1962 -0.012390004
1960 -0.10384873
1958 -0.18886046
1956 -0.23828515
1954 -0.23018675
1952 -0.16653824
1950 -0.066252053
1948 0.030672712
1946 0.082544245
1944 0.083201721
1942 0.050284456
1940 0.021486789
1938 0.034947284
1936 0.091828316
1934 0.17137326
1932 0.24504758
1930 0.28692213
1928 0.29328233
1926 0.2768257
1924 0.2692315
1922 0.30407357
1920 0.38301218
1918 0.48690489
1916 0.584557
1914 0.64700794
1912 0.6771878
1910 0.69313234
1908 0.70057553
1906 0.69747663
1904 0.68446201
1902 0.66665709
1900 0.65929878
1898 0.6781736
1896 0.71757144
1894 0.76028967
1892 0.79422241
1890 0.8132869
1888 0.82004631
1886 0.82074231
1884 0.81763303
1882 0.81134325
1880 0.80735743
1878 0.81254619
1876 0.82635295
1874 0.84335607
1872 0.85718483
1870 0.86262149
1868 0.8600027
1866 0.85266536
1864 0.84245735
1862 0.8305316
1860 0.82028252
1858 0.8168028
1856 0.82605088
1854 0.85346359
1852 0.90029824
1850 0.96230918
1848 1.0222409
1846 1.0567179
1844 1.0491643
1842 0.99324858
1840 0.90523601
1838 0.81256813
1836 0.73179227
1834 0.67128962
1832 0.64016795
1830 0.64815384
1828 0.70159405
1826 0.79815686
1824 0.90692812
1822 0.98321122
1820 1.0018181
1818 0.95763844
1816 0.87052745
1814 0.77194953
1812 0.67984867
1810 0.60156369
1808 0.54421926
1806 0.51435298
1804 0.51098281
1802 0.52660882
1800 0.54751796
1798 0.55909365
1796 0.55873287
1794 0.55266023
1792 0.54836559
1790 0.55258161
1788 0.56930774
1786 0.59879971
1784 0.63256907
1782 0.66031277
1780 0.68990141
1778 0.73725522
1776 0.79415172
1774 0.83126754
1772 0.80793643
1770 0.69049203
1768 0.50313437
1766 0.30979913
1764 0.1651178
1762 0.092681527
1760 0.029131219
1758 -0.12458363
1756 -0.35119987
1754 -0.54865348
1752 -0.65021861
1750 -0.63850617
1748 -0.54687417
1746 -0.44075999
1744 -0.38580418
1742 -0.42825344
1740 -0.54420698
1738 -0.66208225
1736 -0.728706
1734 -0.72192657
1732 -0.66561002
1730 -0.60857743
1728 -0.56802016
1726 -0.52813107
1724 -0.45270023
1722 -0.292362
1720 0.010285035
1718 0.50508416
1716 1.18533
1714 1.9920328
1712 2.8297703
1710 3.6048152
1708 4.3335319
1706 5.1343827
1704 6.1828308
1702 7.6854672
1700 9.847909
1698 12.79371
1696 16.284286
1694 19.822189
1692 23.053967
1690 25.859779
1688 28.452543
1686 31.264729
1684 34.602913
1682 38.537876
1680 42.69796
1678 46.472206
1676 49.740471
1674 52.860832
1672 56.253876
1670 60.234734
1668 64.722244
1666 69.32415
1664 73.741409
1662 77.826157
1660 81.515999
1658 84.815704
1656 87.811859
1654 90.644127
1652 93.406303
1650 96.076286
1648 98.318146
1646 99.609573
1644 99.815018
1642 99.181458
1640 97.931602
1638 96.17083
1636 93.867531
1634 90.921135
1632 87.414192
1630 83.587608
1628 79.571106
1626 75.359474
1624 70.936882
1622 66.324715
1620 61.644875
1618 57.097713
1616 52.834827
1614 48.937813
1612 45.450958
1610 42.382813
1608 39.689804
1606 37.29174
1604 35.141884
1602 33.237858
1600 31.589657
1598 30.205709
1596 29.0665
1594 28.127716
1592 27.348526
1590 26.701015
1588 26.182077
1586 25.807621
1584 25.58132
1582 25.49271
1580 25.54356
1578 25.752682
1576 26.14543
1574 26.740454
1572 27.503288
1570 28.347954
1568 29.2064
1566 30.043428
1564 30.851282
1562 31.677591
1560 32.731819
1558 34.331055
1556 36.526356
1554 39.03801
1552 41.465504
1550 43.412029
1548 44.797642
1546 45.874355
1544 46.842236
1542 47.752903
1540 48.565258
1538 49.16819
1536 49.451946
1534 49.346615
1532 48.900333
1530 48.26889
1528 47.526894
1526 46.628403
1524 45.493996
1522 44.052158
1520 42.319298
1518 40.415531
1516 38.494984
1514 36.689949
1512 34.941761
1510 32.989563
1508 30.634871
1506 27.844965
1504 24.833406
1502 22.021124
1500 19.629389
1498 17.576839
1496 15.689857
1494 13.783393
1492 11.777583
1490 9.7274075
1488 7.7069821
1486 5.7824364
1484 4.0344682
1482 2.5549035
1480 1.386102
1478 0.52669728
1476 0.077677436
1474 0.2363731
1472 0.98184794
1470 2.0067971
1468 3.0470586
1466 3.9848113
1464 4.7943206
1462 5.5142121
1460 6.1197839
1458 6.4959593
1456 6.56462
1454 6.3386493
1452 5.9369068
1450 5.5682893
1448 5.3281698
1446 5.1420608
1444 4.9427128
1442 4.721067
1440 4.4768715
1438 4.2017574
1436 3.8685515
1434 3.4360209
1432 2.9081302
1430 2.355211
1428 1.8604219
1426 1.4974043
1424 1.2978641
1422 1.2377843
1420 1.2819064
1418 1.39952
1416 1.5772572
1414 1.822751
1412 2.1373744
1410 2.5062518
1408 2.9061213
1406 3.3086286
1404 3.6943367
1402 4.0571795
1400 4.389184
1398 4.6756015
1396 4.9010639
1394 5.0534186
1392 5.1331239
1390 5.1570182
1388 5.1410866
1386 5.09409
1384 5.0203104
1382 4.9186525
1380 4.7809472
1378 4.5909977
1376 4.3368568
1374 4.0185366
1372 3.6552641
1370 3.2875104
1368 2.9371567
1366 2.5893836
1364 2.2191205
1362 1.8034153
1360 1.3528891
1358 0.92650932
1356 0.57617015
1354 0.3216767
1352 0.15492392
1350 0.037702367
1348 -0.057429425
1346 -0.12968643
1344 -0.1698928
1342 -0.16780636
1340 -0.12621695
1338 -0.068624318
1336 -0.018893469
1334 0.0083211567
1332 0.013685185
1330 0.019022942
1328 0.047521919
1326 0.11588792
1324 0.23414421
1322 0.40272135
1320 0.61438906
1318 0.85258704
1316 1.0977
1314 1.329445
1312 1.5325966
1310 1.7013942
1308 1.8358543
1306 1.9415178
1304 2.0233343
1302 2.083324
1300 2.1244726
1298 2.1524746
1296 2.1752143
1294 2.2026775
1292 2.242641
1290 2.2978559
1288 2.36938
1286 2.4571066
1284 2.5597508
1282 2.6748576
1280 2.7999783
1278 2.9343367
1276 3.0805116
1274 3.2466121
1272 3.4407561
1270 3.6687284
1268 3.9331167
1266 4.2319703
1264 4.5638452
1262 4.9301982
1260 5.3334541
1258 5.7766733
1256 6.2625089
1254 6.7926273
1252 7.3685212
1250 7.9906011
1248 8.6534548
1246 9.3402252
1244 10.029856
1242 10.697678
1240 11.318794
1238 11.869967
1236 12.330771
1234 12.683013
1232 12.91556
1230 13.032157
1228 13.036029
1226 12.93045
1224 12.716183
1222 12.39346
1220 11.966054
1218 11.44806
1216 10.857858
1214 10.216019
1212 9.5443535
1210 8.8604746
1208 8.1770344
1206 7.4986901
1204 6.8290019
1202 6.17274
1200 5.5334163
1198 4.911128
1196 4.30445
1194 3.7106295
1192 3.1290855
1190 2.5645411
1188 2.0243275
1186 1.5202057
1184 1.0693325
1182 0.69789803
1180 0.43034434
1178 0.28017765
1176 0.245272
1174 0.29426688
1172 0.38434035
1170 0.46417689
1168 0.49222755
1166 0.45448667
1164 0.35489863
1162 0.2223867
1160 0.087073423
1158 -0.03233809
1156 -0.12658128
1154 -0.20143458
1152 -0.26377714
1150 -0.31428769
1148 -0.3471038
1146 -0.34536642
1144 -0.29504651
1142 -0.19546792
1140 -0.054545812
1138 0.10848108
1136 0.28281629
1134 0.48422191
1132 0.73637271
1130 1.0653858
1128 1.4857851
1126 1.9820265
1124 2.5245039
1122 3.0683486
1120 3.5757918
1118 4.0364804
1116 4.4545841
1114 4.8529301
1112 5.2520847
1110 5.6556058
1108 6.0599174
1106 6.4532452
1104 6.8258724
1102 7.1780195
1100 7.5147228
1098 7.848156
1096 8.1877575
1094 8.5324039
1092 8.8796396
1090 9.2310534
1088 9.5897331
1086 9.9598312
1084 10.337014
1082 10.69578
1080 11.009435
1078 11.26274
1076 11.455186
1074 11.61069
1072 11.758738
1070 11.918371
1068 12.099711
1066 12.291101
1064 12.46624
1062 12.581083
1060 12.592052
1058 12.474229
1056 12.222686
1054 11.872406
1052 11.465528
1050 11.030161
1048 10.586251
1046 10.137936
1044 9.6931372
1042 9.2810946
1040 8.9273148
1038 8.6335745
1036 8.3861303
1034 8.1434011
1032 7.8645887
1030 7.5303841
1028 7.132647
1026 6.6805415
1024 6.1938195
1022 5.7106152
1020 5.2713423
1018 4.9077649
1016 4.6323004
1014 4.405395
1012 4.1785231
1010 3.9149055
1008 3.594264
1006 3.237272
1004 2.8714132
1002 2.5131133
1000 2.1731799
998 1.8531482
996 1.5543429
994 1.2848519
992 1.050969
990 0.84821439
988 0.66786808
986 0.49596888
984 0.32824418
982 0.19585243
980 0.1386078
978 0.19523127
976 0.38717458
974 0.67970085
972 1.0244086
970 1.3741298
968 1.6896319
966 1.95726
964 2.166158
962 2.2917936
960 2.3093057
958 2.2032719
956 1.9707543
954 1.6435074
952 1.2623852
950 0.87139946
948 0.51650071
946 0.24750936
944 0.092208333
942 -0.0030055717
940 -0.093956411
938 -0.17194709
936 -0.22105914
934 -0.25710937
932 -0.29581338
930 -0.32364032
928 -0.32473817
926 -0.30161893
924 -0.26390201
922 -0.23046884
920 -0.21962954
918 -0.23878002
916 -0.29204229
914 -0.38150579
912 -0.51235068
910 -0.70363861
908 -0.96960825
906 -1.2922472
904 -1.6340034
902 -1.9136004
900 -2.0530422
898 -2.0325344
896 -1.8469
