##TITLE=Methyl Ethyl Ketone
##JCAMP-DX=4.24
##DATA TYPE=INFRARED SPECTRUM
##XUNITS=cm-1
##YUNITS=Absorbance
##FIRSTX=900
##LASTX=2300
##XYDATA=(X++(Y..Y))
2296 -0.011279
2294 -0.011513664
2292 -0.011748329
2290 -0.011982993
2288 -0.012217657
2286 -0.012452322
2284 -0.012685994
2282 -0.012920651
2280 -0.013155314
2278 -0.013389979
2276 -0.013624643
2274 -0.013859307
2272 -0.014093971
2270 -0.014328636
2268 -0.0145633
2266 -0.014797964
2264 -0.015032629
2262 -0.015267293
2260 -0.015501957
2258 -0.015736623
2256 -0.015971284
2254 -0.01620595
2252 -0.016440615
2250 -0.016675279
2248 -0.016909942
2246 -0.017144607
2244 -0.00063711143
2242 0.057180002
2240 0.11882696
2238 0.15290409
2236 0.18292686
2234 0.18258528
2232 0.17985709
2230 0.1722596
2228 0.16833165
2226 0.19564299
2224 0.22845925
2222 0.27925041
2220 0.32344064
2218 0.34463963
2216 0.36240086
2214 0.3754603
2212 0.40032101
2210 0.44490287
2208 0.49260914
2206 0.54271448
2204 0.58382595
2202 0.61610824
2200 0.63093537
2198 0.63313478
2196 0.61391568
2194 0.58285415
2192 0.55646145
2190 0.53247654
2188 0.52624947
2186 0.52574182
2184 0.53305316
2182 0.54207653
2180 0.56454712
2178 0.58912814
2176 0.62211287
2174 0.6554538
2172 0.68423545
2170 0.71277595
2168 0.74251628
2166 0.77342588
2164 0.80820018
2162 0.84017682
2160 0.86395764
2158 0.87977451
2156 0.882007
2154 0.87596172
2152 0.85992885
2150 0.84192175
2148 0.82284182
2146 0.82105112
2144 0.83466536
2142 0.86548531
2140 0.90719199
2138 0.92924267
2136 0.939996
2134 0.92272455
2132 0.89406383
2130 0.87051868
2128 0.8489176
2126 0.84171873
2124 0.83785212
2122 0.83173412
2120 0.82505476
2118 0.8150537
2116 0.80689675
2114 0.81599939
2112 0.83446449
2110 0.88317937
2108 0.93656576
2106 0.99069798
2104 1.0312296
2102 1.0415825
2100 1.0433459
2098 1.0380909
2096 1.0485142
2094 1.0809489
2092 1.1180502
2090 1.1567614
2088 1.166672
2086 1.1525249
2084 1.1173997
2082 1.0705982
2080 1.0388434
2078 1.0159101
2076 1.0246372
2074 1.0460846
2072 1.0827119
2070 1.1239684
2068 1.1451826
2066 1.1607865
2064 1.1398566
2062 1.1111305
2060 1.0735418
2058 1.0380989
2056 1.02466
2054 1.019047
2052 1.0266223
2050 1.0350767
2048 1.0395446
2046 1.0455393
2044 1.0561301
2042 1.070233
2040 1.0880172
2038 1.0974362
2036 1.0954614
2034 1.0904731
2032 1.0847126
2030 1.0899991
2028 1.1044371
2026 1.1228358
2024 1.1430976
2022 1.1717917
2020 1.2048564
2018 1.2348216
2016 1.263
2014 1.2556632
2012 1.2359788
2010 1.2188299
2008 1.2046183
2006 1.2272507
2004 1.2585926
2002 1.286193
2000 1.3101736
1998 1.3248606
1996 1.3421929
1994 1.3756107
1992 1.407499
1990 1.4251963
1988 1.4244
1986 1.3950379
1984 1.3604217
1982 1.3281323
1980 1.2935902
1978 1.2570043
1976 1.2187457
1974 1.180024
1972 1.1797849
1970 1.2094802
1968 1.2618052
1966 1.3249786
1964 1.3408339
1962 1.3301115
1960 1.302608
1958 1.2690568
1956 1.2665542
1954 1.2755036
1952 1.2938663
1950 1.3141571
1948 1.3329263
1946 1.34665
1944 1.3346537
1942 1.3100249
1940 1.2623111
1938 1.2193474
1936 1.2056857
1934 1.2091452
1932 1.23189
1930 1.2491969
1928 1.2514468
1926 1.2542371
1924 1.2647254
1922 1.2890598
1920 1.32486
1918 1.34031
1916 1.3324372
1914 1.317311
1912 1.3006629
1910 1.303098
1908 1.3186669
1906 1.3189107
1904 1.30918
1902 1.2886387
1900 1.2628675
1898 1.2600521
1896 1.2666142
1894 1.2814027
1892 1.2957774
1890 1.2820339
1888 1.2503835
1886 1.184365
1884 1.1049546
1882 1.0227908
1880 0.94687361
1878 0.88972175
1876 0.85641301
1874 0.85924226
1872 0.89897996
1870 0.97870791
1868 1.0480711
1866 1.0839372
1864 1.0460274
1862 0.93594825
1860 0.80150098
1858 0.66372699
1856 0.55762655
1854 0.47864026
1852 0.44494036
1850 0.44003639
1848 0.47703561
1846 0.53829926
1844 0.58094847
1842 0.61321235
1840 0.60080475
1838 0.5693624
1836 0.56845385
1834 0.5898847
1832 0.66725987
1830 0.76643974
1828 0.85014659
1826 0.89571565
1824 0.84674895
1822 0.73696846
1820 0.5814088
1818 0.42665249
1816 0.30926257
1814 0.23762244
1812 0.21464774
1810 0.22563368
1808 0.25691736
1806 0.30724999
1804 0.37063864
1802 0.42436039
1800 0.46810269
1798 0.47839183
1796 0.46426785
1794 0.4459964
1792 0.42511722
1790 0.4011932
1788 0.37227291
1786 0.34557113
1784 0.31974578
1782 0.31121472
1780 0.31372169
1778 0.3350423
1776 0.37303942
1774 0.44040251
1772 0.50943983
1770 0.52482474
1768 0.48423675
1766 0.36408487
1764 0.21860041
1762 0.10186785
1760 0.023829795
1758 -0.065481216
1756 -0.13886414
1754 -0.16374773
1752 -0.11566857
1750 0.0038416795
1748 0.12716325
1746 0.22894393
1744 0.23291354
1742 0.14397305
1740 0.049804941
1738 -0.030704703
1736 -0.0039835982
1734 0.10704787
1732 0.18324341
1730 0.22221217
1728 0.12340991
1726 -0.061343491
1724 -0.16991846
1722 -0.1876058
1720 -0.0060781687
1718 0.31372261
1716 0.81855059
1714 1.4051663
1712 1.8612092
1710 2.2412288
1708 2.6178958
1706 3.1692128
1704 4.0652204
1702 5.5308719
1700 7.6667328
1698 10.58413
1696 14.207714
1694 17.83621
1692 21.159191
1690 24.164686
1688 26.92765
1686 30.284836
1684 34.303295
1682 39.0252
1680 44.27676
1678 48.813744
1676 52.689541
1674 56.554951
1672 60.503803
1670 65.159538
1668 70.305313
1666 75.174347
1664 79.704781
1662 83.634598
1660 87.040771
1658 90.056572
1656 92.692085
1654 94.976585
1652 96.791977
1650 98.019104
1648 98.375175
1646 97.658211
1644 96.234138
1642 94.480301
1640 92.39444
1638 90.032257
1636 87.006912
1634 83.237282
1632 79.150833
1630 74.937836
1628 70.8423
1626 66.909691
1624 62.834759
1622 58.591366
1620 54.353004
1618 50.141392
1616 46.093658
1614 42.239986
1612 38.790413
1610 35.765518
1608 33.188919
1606 31.040144
1604 29.178549
1602 27.613144
1600 26.309269
1598 25.271145
1596 24.462502
1594 23.878712
1592 23.479359
1590 23.253643
1588 23.167126
1586 23.201342
1584 23.332035
1582 23.55179
1580 23.85074
1578 24.290825
1576 24.890285
1574 25.665606
1572 26.608786
1570 27.635351
1568 28.722641
1566 29.827957
1564 30.950741
1562 32.248814
1560 33.807354
1558 36.170795
1556 39.383743
1554 42.81839
1552 46.272137
1550 48.918598
1548 50.805477
1546 52.467037
1544 53.928574
1542 55.310928
1540 56.4105
1538 56.916988
1536 56.792427
1534 56.097363
1532 55.083992
1530 54.074333
1528 53.036556
1526 51.944851
1524 50.641609
1522 49.021595
1520 47.08585
1518 44.802711
1516 42.551788
1514 40.462154
1512 38.46468
1510 36.572731
1508 34.207943
1506 31.216551
1504 28.125771
1502 24.968172
1500 22.242855
1498 19.99894
1496 17.787571
1494 15.604567
1492 13.3924
1490 11.148685
1488 8.8768749
1486 6.6373816
1484 4.5548563
1482 2.7509289
1480 1.3783492
1478 0.4732393
1476 0.088622347
1474 0.33210585
1472 1.1139308
1470 2.092478
1468 3.0716808
1466 3.9098885
1464 4.5105524
1462 5.0400052
1460 5.5613236
1458 6.1038523
1456 6.6785998
1454 7.1223497
1452 7.3438468
1450 7.4041028
1448 7.2343831
1446 7.0172358
1444 6.7382126
1442 6.455637
1440 6.1659851
1438 5.8478489
1436 5.4762402
1434 4.9934092
1432 4.40132
1430 3.7841218
1428 3.1850219
1426 2.7118878
1424 2.384788
1422 2.2095428
1420 2.1723256
1418 2.2362921
1416 2.3563857
1414 2.4842391
1412 2.6163166
1410 2.7637322
1408 2.9515944
1406 3.2144756
1404 3.5399623
1402 3.9462507
1400 4.3881841
1398 4.8705211
1396 5.3359289
1394 5.7571888
1392 6.1024947
1390 6.3037381
1388 6.3954301
1386 6.308445
1384 6.1068478
1382 5.75108
1380 5.3476567
1378 4.8974419
1376 4.4605656
1374 4.0469046
1372 3.651382
1370 3.2733254
1368 2.9048057
1366 2.5214014
1364 2.0893962
1362 1.6176046
1360 1.1104392
1358 0.63955712
1356 0.29764056
1354 0.070377581
1352 0.0098634511
1350 0.034510486
1348 0.13092485
1346 0.2361175
1344 0.4064132
1342 0.60636663
1340 0.85633761
1338 1.0829766
1336 1.25166
1334 1.3667537
1332 1.3773569
1330 1.389092
1328 1.411592
1326 1.4898214
1324 1.6598958
1322 1.8929113
1320 2.2063737
1318 2.5423527
1316 2.8901401
1314 3.1986086
1312 3.4549234
1310 3.6524653
1308 3.7930119
1306 3.8891563
1304 3.9447212
1302 3.9533288
1300 3.9303708
1298 3.8710573
1296 3.8074715
1294 3.7609885
1292 3.7405605
1290 3.7777457
1288 3.8328359
1286 3.9122036
1284 3.9800901
1282 4.0121541
1280 4.0336065
1278 4.0325999
1276 4.0405116
1274 4.0691581
1272 4.114686
1270 4.1918087
1268 4.2887969
1266 4.4150715
1264 4.5596037
1262 4.7240415
1260 4.8929582
1258 5.0671482
1256 5.2457261
1254 5.4308901
1252 5.6282282
1250 5.829699
1248 6.0199399
1246 6.1929002
1244 6.324059
1242 6.4252143
1240 6.4769616
1238 6.4968815
1236 6.457263
1234 6.3799782
1232 6.2166719
1230 6.0069761
1228 5.6745105
1226 5.3002615
1224 4.8159342
1222 4.3179693
1220 3.7900093
1218 3.2755001
1216 2.7895143
1214 2.324506
1212 1.8973606
1210 1.4951918
1208 1.1326628
1206 0.8053835
1204 0.52421165
1202 0.28267598
1200 0.081034102
1198 -0.098893821
1196 -0.26293215
1194 -0.42609018
1192 -0.58285767
1190 -0.71481991
1188 -0.82119298
1186 -0.86692572
1184 -0.87789607
1182 -0.82757139
1180 -0.73921764
1178 -0.5518527
1176 -0.31992421
1174 0.038084418
1172 0.40420824
1170 0.77069521
1168 1.0991771
1166 1.3085129
1164 1.4757493
1162 1.538682
1160 1.5740057
1158 1.5527939
1156 1.5098186
1154 1.4285134
1152 1.3194138
1150 1.1717277
1148 1.0031226
1146 0.81188428
1144 0.61457074
1142 0.41419017
1140 0.22522846
1138 0.055110488
1136 -0.054942138
1134 -0.11438756
1132 -0.056197442
1130 0.066418841
1128 0.29148209
1126 0.54683334
1124 0.81498498
1122 1.0672219
1120 1.2234
1118 1.3576548
1116 1.4231914
1114 1.5001961
1112 1.6307908
1110 1.7749537
1108 1.9597454
1106 2.1275501
1104 2.2516499
1102 2.3525577
1100 2.4074697
1098 2.4481847
1096 2.4647572
1094 2.4611542
1092 2.4335601
1090 2.4078882
1088 2.3902624
1086 2.4171379
1084 2.4797251
1082 2.5563061
1080 2.6313748
1078 2.6363811
1076 2.6041787
1074 2.5297604
1072 2.4438629
1070 2.3749843
1068 2.3023078
1066 2.1754286
1064 2.0359919
1062 1.8553859
1060 1.688164
1058 1.6209695
1056 1.5765171
1054 1.6305346
1052 1.6805785
1050 1.715803
1048 1.7257171
1046 1.6747321
1044 1.6177585
1042 1.5504305
1040 1.4941034
1038 1.452104
1036 1.39739
1034 1.3250964
1032 1.2196245
1030 1.0840788
1028 0.93699008
1026 0.78476363
1024 0.65941471
1022 0.55153716
1020 0.48122025
1018 0.4277437
1016 0.40166286
1014 0.38300791
1012 0.36511013
1010 0.3431685
1008 0.2732732
1006 0.19620419
1004 0.081663154
1002 -0.027963966
1000 -0.10185026
998 -0.16755353
996 -0.19737856
994 -0.2255033
992 -0.24787298
990 -0.25747946
988 -0.23718819
986 -0.20158599
984 -0.14050806
982 -0.10017143
980 -0.088968404
978 -0.10749816
976 -0.15645829
974 -0.20058975
972 -0.2403692
970 -0.27036384
968 -0.29317355
966 -0.29586849
964 -0.28676799
962 -0.2244145
960 -0.1444295
958 -0.050798219
956 0.043062441
954 0.079726622
952 0.10681188
950 0.070327528
948 0.032378882
946 0.010671751
944 0.00046158861
942 0.015010573
940 0.06481111
938 0.1992916
936 0.31634542
934 0.38126907
932 0.39607608
930 0.30373949
928 0.18898672
926 0.03918279
924 -0.081399657
922 -0.16618441
920 -0.23881516
918 -0.30067337
916 -0.38756675
914 -0.49167788
912 -0.55651069
910 -0.59913284
908 -0.5301351
906 -0.41758901
904 -0.28600532
902 -0.1495816
900 -0.17565894
898 -0.22792283
896 -0.42561999
