##TITLE=Methyl Ethyl Ketone
##JCAMP-DX=4.24
##DATA TYPE=INFRARED SPECTRUM
##XUNITS=cm-1
##YUNITS=Absorbance
##FIRSTX=900
##LASTX=2300
##XYDATA=(X++(Y..Y))
2296 0.030386001
2294 0.031018097
2292 0.031650193
2290 0.032282289
2288 0.032914381
2286 0.033546478
2284 0.034178577
2282 0.03481067
2280 0.035442766
2278 0.036074862
2276 0.036706958
2274 0.037339054
2272 0.037971146
2270 0.038603242
2268 0.039235342
2266 0.039868414
2264 0.040500529
2262 0.041132625
2260 0.041764725
2258 0.042396817
2256 0.043028913
2254 0.04366101
2252 0.044293106
2250 0.044925202
2248 0.045557298
2246 0.04618939
2244 0.031366669
2242 0.0011877685
2240 -0.0089554563
2238 -0.0084921503
2236 -0.0065411399
2234 0.012422251
2232 0.03333414
2230 0.070511147
2228 0.10897771
2226 0.151738
2224 0.19403353
2222 0.23337589
2220 0.27656966
2218 0.33208385
2216 0.38665286
2214 0.43766049
2212 0.46725139
2210 0.46224859
2208 0.43974027
2206 0.39805233
2204 0.37224117
2202 0.36288661
2200 0.37400079
2198 0.3996073
2196 0.41694
2194 0.42896831
2192 0.43666103
2190 0.4426263
2188 0.46120414
2186 0.48390365
2184 0.50721961
2182 0.53061211
2180 0.54500234
2178 0.55797935
2176 0.56515002
2174 0.5721283
2172 0.5831303
2170 0.59611559
2168 0.61837888
2166 0.64279753
2164 0.67189819
2162 0.6981743
2160 0.7160266
2158 0.72336805
2156 0.71236199
2154 0.69524616
2152 0.67204517
2150 0.65575123
2148 0.64797837
2146 0.65025002
2144 0.66062963
2142 0.6818127
2140 0.70997745
2138 0.74601543
2136 0.78594631
2134 0.8104564
2132 0.828201
2130 0.82240051
2128 0.80925876
2126 0.8059231
2124 0.80505848
2122 0.82687163
2120 0.85197699
2118 0.87101728
2116 0.8865757
2114 0.8823095
2112 0.87275511
2110 0.85221678
2108 0.83283007
2106 0.82187051
2104 0.82109362
2102 0.84016585
2100 0.86662918
2098 0.90061021
2096 0.92964
2094 0.95084989
2092 0.9598667
2090 0.95745593
2088 0.94599581
2086 0.92816252
2084 0.9118408
2082 0.89701092
2080 0.88590688
2078 0.87680113
2076 0.8692081
2074 0.86219364
2072 0.85393322
2070 0.84533316
2068 0.81885916
2066 0.78798932
2064 0.74011451
2062 0.69179279
2060 0.6692583
2058 0.65918857
2056 0.68962997
2054 0.72759527
2052 0.76495737
2050 0.79287493
2048 0.79804891
2046 0.79785138
2044 0.7965008
2042 0.80166346
2040 0.81592792
2038 0.83158332
2036 0.84551799
2034 0.84796685
2032 0.83980328
2030 0.81778961
2028 0.78709871
2026 0.76988405
2024 0.76274407
2022 0.78623897
2020 0.82521743
2018 0.8505187
2016 0.86867601
2014 0.84594089
2012 0.80879945
2010 0.7695834
2008 0.73138273
2006 0.72162956
2004 0.72214884
2002 0.74666506
2000 0.77736646
1998 0.81219143
1996 0.84104073
1994 0.85104728
1992 0.8457045
1990 0.81274444
1988 0.7711218
1986 0.72135431
1984 0.679205
1982 0.65049189
1980 0.63675487
1978 0.63842565
1976 0.65050799
1974 0.67027187
1972 0.69417065
1970 0.7208997
1968 0.74332935
1966 0.76252449
1964 0.76166624
1962 0.74927098
1960 0.71983963
1958 0.68315595
1956 0.6400134
1954 0.59424913
1952 0.55002773
1950 0.50654072
1948 0.48136258
1946 0.46533251
1944 0.46416259
1942 0.47172439
1940 0.47946355
1938 0.48531193
1936 0.48272058
1934 0.46725544
1932 0.43598118
1930 0.39160094
1928 0.33871561
1926 0.30254963
1924 0.29445362
1922 0.33325738
1920 0.41201052
1918 0.49294472
1916 0.56206459
1914 0.58394384
1912 0.57226378
1910 0.53585327
1908 0.48915672
1906 0.43971086
1904 0.3887808
1902 0.34715176
1900 0.30848274
1898 0.29920781
1896 0.30223143
1894 0.32743278
1892 0.35897261
1890 0.36787811
1888 0.3596268
1886 0.30688265
1884 0.23896249
1882 0.17354342
1880 0.12085669
1878 0.099639758
1876 0.093660302
1874 0.10414454
1872 0.12197074
1870 0.14763701
1868 0.17055483
1866 0.17682543
1864 0.15264308
1862 0.092249699
1860 0.015871834
1858 -0.062758602
1856 -0.12128712
1854 -0.15968567
1852 -0.17703442
1850 -0.17890891
1848 -0.1764808
1846 -0.16817607
1844 -0.17297208
1842 -0.18121727
1840 -0.19870439
1838 -0.221232
1836 -0.22313486
1834 -0.2144098
1832 -0.17337829
1830 -0.11194361
1828 -0.037197545
1826 0.035147995
1824 0.065520205
1822 0.050316826
1820 -0.023553539
1818 -0.12506123
1816 -0.22429943
1814 -0.30233216
1812 -0.34616864
1810 -0.36072922
1808 -0.35617405
1806 -0.33131048
1804 -0.2922557
1802 -0.26446775
1800 -0.24621812
1798 -0.25323853
1796 -0.27747858
1794 -0.26282078
1792 -0.2239328
1790 -0.14812918
1788 -0.057795547
1786 -0.0030772286
1784 0.025574313
1782 0.036233101
1780 0.037406489
1778 0.060306821
1776 0.10030337
1774 0.16574615
1772 0.23840295
1770 0.26841891
1768 0.26439264
1766 0.2145175
1764 0.1488578
1762 0.10758442
1760 0.036900919
1758 -0.0914151
1756 -0.21062343
1754 -0.28433159
1752 -0.29028171
1750 -0.22672841
1748 -0.15951023
1746 -0.11556321
1744 -0.14991046
1742 -0.26362821
1740 -0.37722045
1738 -0.47322214
1736 -0.45417401
1734 -0.34156492
1732 -0.20920077
1730 -0.077251054
1728 -0.063866839
1726 -0.13435212
1724 -0.17280215
1722 -0.163021
1720 0.024051316
1718 0.38009518
1716 0.95536482
1714 1.6549742
1712 2.3074961
1710 2.9197178
1708 3.520318
1706 4.2745728
1704 5.3515902
1702 7.0172687
1700 9.3979158
1698 12.676048
1696 16.784143
1694 20.930759
1692 24.761183
1690 28.165739
1688 31.21983
1686 34.808952
1684 39.026051
1682 44.020718
1680 49.614201
1678 54.447178
1676 58.568142
1674 62.477821
1672 66.311287
1670 70.77919
1668 75.697754
1666 80.413704
1664 84.829758
1662 88.60128
1660 91.781425
1658 94.455872
1656 96.660889
1654 98.473122
1652 99.726097
1650 100.23463
1648 99.676048
1646 97.807716
1644 95.184128
1642 92.343468
1640 89.242798
1638 85.914352
1636 81.961861
1634 77.289436
1632 72.569077
1630 68.029999
1628 63.837494
1626 59.990181
1624 56.05188
1622 51.969967
1620 47.958355
1618 44.037075
1616 40.358913
1614 36.943645
1612 33.932926
1610 31.337231
1608 29.147972
1606 27.349615
1604 25.818861
1602 24.572525
1600 23.592703
1598 22.881613
1596 22.403
1594 22.135782
1592 22.0196
1590 22.031744
1588 22.129717
1586 22.303978
1584 22.543213
1582 22.853441
1580 23.238245
1578 23.775438
1576 24.489058
1574 25.404575
1572 26.510939
1570 27.682566
1568 28.885
1566 30.069885
1564 31.238781
1562 32.616375
1560 34.300957
1558 36.874706
1556 40.402672
1554 44.220249
1552 48.098251
1550 51.101341
1548 53.25499
1546 55.097679
1544 56.650955
1542 58.054241
1540 59.11628
1538 59.529163
1536 59.22163
1534 58.226925
1532 56.805565
1530 55.328434
1528 53.825733
1526 52.322048
1524 50.696365
1522 48.858665
1520 46.751091
1518 44.301403
1516 41.851486
1514 39.518383
1512 37.287243
1510 35.199402
1508 32.670238
1506 29.554443
1504 26.378794
1502 23.17959
1500 20.451113
1498 18.247141
1496 16.088572
1494 13.972477
1492 11.818111
1490 9.6337662
1488 7.4453564
1486 5.3357086
1484 3.4585879
1482 1.914506
1480 0.8212027
1478 0.19634579
1476 0.045037404
1474 0.45492232
1472 1.354611
1470 2.4357419
1468 3.4938164
1466 4.3676858
1464 4.9564314
1462 5.4481206
1460 5.9141932
1458 6.4156981
1456 6.9731998
1454 7.4147215
1452 7.6427445
1450 7.700026
1448 7.5097122
1446 7.2754002
1444 6.9855108
1442 6.6943808
1440 6.3998609
1438 6.0676351
1436 5.6744785
1434 5.1563325
1432 4.5194993
1430 3.8588133
1428 3.222194
1426 2.7406414
1424 2.4327564
1422 2.3004742
1420 2.3216248
1418 2.4368656
1416 2.60834
1414 2.7911911
1412 2.9784369
1410 3.1922753
1408 3.4381475
1406 3.7396371
1404 4.0848002
1402 4.4764786
1400 4.891448
1398 5.330112
1396 5.7537785
1394 6.1357431
1392 6.4468403
1390 6.6113234
1388 6.6552467
1386 6.5012398
1384 6.2250857
1382 5.7850742
1380 5.2950983
1378 4.7546854
1376 4.2144055
1374 3.6942124
1372 3.2060618
1370 2.7597842
1368 2.3642976
1366 1.9854772
1364 1.5779991
1362 1.150311
1360 0.70326036
1358 0.30630058
1356 0.052057557
1354 -0.084953405
1352 -0.053075723
1350 0.049142256
1348 0.20895691
1346 0.40012002
1344 0.62114
1342 0.86088872
1340 1.1380637
1338 1.4202212
1336 1.7015457
1334 1.9611396
1332 2.1574433
1330 2.3412259
1328 2.507504
1326 2.6968265
1324 2.936619
1322 3.2208831
1320 3.5723298
1318 3.9574397
1316 4.3724999
1314 4.7683358
1312 5.121912
1310 5.4062691
1308 5.6129189
1306 5.7444448
1304 5.8133998
1302 5.8214498
1300 5.792274
1298 5.7242603
1296 5.6427712
1294 5.5514889
1292 5.4643421
1290 5.3907747
1288 5.3288398
1286 5.2905664
1284 5.2623839
1282 5.2530942
1280 5.2502074
1278 5.2610655
1276 5.279027
1274 5.3152108
1272 5.3609815
1270 5.4279895
1268 5.5118079
1266 5.6201844
1264 5.748035
1262 5.8960204
1260 6.0505042
1258 6.2094078
1256 6.363194
1254 6.5107112
1252 6.6508808
1250 6.782722
1248 6.9024897
1246 7.0082502
1244 7.0822349
1242 7.1284618
1240 7.1191816
1238 7.0748234
1236 6.9663143
1234 6.8194613
1232 6.5882039
1230 6.3111687
1228 5.9141521
1226 5.4848146
1224 4.9737568
1222 4.4642715
1220 3.9600568
1218 3.4737182
1216 3.0238228
1214 2.5922751
1212 2.1953156
1210 1.825654
1208 1.498552
1206 1.2064693
1204 0.95724297
1202 0.73491108
1200 0.53917146
1198 0.35573351
1196 0.18690722
1194 0.041634101
1192 -0.077294663
1190 -0.1415704
1188 -0.16958694
1186 -0.14721213
1184 -0.09951666
1182 -0.015704662
1180 0.094489574
1178 0.28017813
1176 0.49973798
1174 0.8155877
1172 1.1370631
1170 1.4549997
1168 1.7340606
1166 1.8894658
1164 1.99395
1162 1.9721429
1160 1.9171165
1158 1.7957977
1156 1.6557771
1154 1.4850866
1152 1.3038526
1150 1.1088449
1148 0.90864903
1146 0.70376641
1144 0.5031023
1142 0.3120715
1140 0.15658642
1138 0.040201332
1136 0.0082540233
1134 0.041516706
1132 0.18566892
1130 0.38501239
1128 0.65232259
1126 0.92915493
1124 1.1596682
1122 1.3584008
1120 1.432332
1118 1.479561
1116 1.4455301
1114 1.4207897
1112 1.4427549
1110 1.4997048
1108 1.6677723
1106 1.8562851
1104 2.0897298
1102 2.2881081
1100 2.4115577
1098 2.4701006
1096 2.4270716
1094 2.3572178
1092 2.25859
1090 2.1862457
1088 2.1447182
1086 2.1438987
1084 2.1749821
1082 2.2126799
1080 2.2474308
1078 2.231369
1076 2.1838658
1074 2.0733807
1072 1.9419429
1070 1.8095576
1068 1.68268
1066 1.5995649
1064 1.5241239
1062 1.4645517
1060 1.4067968
1058 1.3552341
1056 1.3117172
1054 1.3037615
1052 1.3041309
1050 1.330621
1048 1.3494434
1046 1.3469929
1044 1.3141704
1042 1.2225531
1040 1.1047574
1038 0.95044947
1036 0.81072402
1034 0.68935132
1032 0.58529967
1030 0.4947046
1028 0.38086396
1026 0.25080442
1024 0.11480801
1022 -0.02089835
1020 -0.11919834
1018 -0.20194086
1016 -0.26904827
1014 -0.33452335
1012 -0.42846465
1010 -0.52787304
1008 -0.63600522
1006 -0.74063474
1004 -0.79639477
1002 -0.84678715
1000 -0.86375767
998 -0.8806358
996 -0.89674646
994 -0.90587914
992 -0.89350766
990 -0.8727411
988 -0.83350521
986 -0.80158681
984 -0.78226507
982 -0.77285331
980 -0.77662903
978 -0.78828257
976 -0.80812538
974 -0.82540464
972 -0.83880866
970 -0.81772727
968 -0.77380067
966 -0.70049
964 -0.61415982
962 -0.5347209
960 -0.4583405
958 -0.39227945
956 -0.32854798
954 -0.2618522
952 -0.19545919
950 -0.14252752
948 -0.08954636
946 -0.0283635
944 0.0018283539
942 0.057271928
940 0.17925991
938 0.3655867
936 0.54569089
934 0.70701647
932 0.83526009
930 0.89183122
928 0.89438939
926 0.81101584
924 0.73218644
922 0.6605742
920 0.66744304
918 0.7466554
916 0.81423646
914 0.87195218
912 0.81785566
910 0.70588368
908 0.61847311
906 0.54313922
904 0.63415682
902 0.77017426
900 0.96923959
898 1.1787587
896 1.3595999
