##TITLE=Methyl Ethyl Ketone
##JCAMP-DX=4.24
##DATA TYPE=INFRARED SPECTRUM
##XUNITS=cm-1
##YUNITS=Absorbance
##FIRSTX=900
##LASTX=2300
##XYDATA=(X++(Y..Y))
2296 0.00042478999
2294 0.00043358744
2292 0.00044243468
2290 0.00045130192
2288 0.00046013942
2286 0.00046894699
2284 0.00047778417
2282 0.00048668092
2280 0.00049549906
2278 0.00050417829
2276 0.00051315158
2274 0.00052253227
2272 0.00053084758
2270 0.00053765392
2268 0.0005484522
2266 0.00056483597
2264 0.00056637236
2262 0.00054715894
2260 0.00058308907
2258 0.00069629826
2256 0.00060457003
2254 0.0002247313
2252 0.00060668774
2250 0.0020629594
2248 0.00068774528
2246 -0.0047726361
2244 -0.00018471143
2242 0.026420057
2240 0.060936
2238 0.084468201
2236 0.088621862
2234 0.075126
2232 0.074224889
2230 0.11697432
2228 0.20477566
2226 0.32630399
2224 0.4539156
2222 0.56075507
2220 0.64204496
2218 0.70023322
2216 0.74048316
2214 0.76805443
2212 0.78563821
2210 0.79594243
2208 0.80491871
2206 0.81815892
2204 0.83578175
2202 0.85582238
2200 0.8747654
2198 0.89115387
2196 0.91376787
2194 0.9552964
2192 1.0311633
2190 1.1526281
2188 1.3103108
2186 1.4847792
2184 1.6436839
2182 1.7556895
2180 1.80944
2178 1.8058995
2176 1.7688115
2174 1.7279729
2172 1.7089057
2170 1.7294221
2168 1.7827525
2166 1.8514907
2164 1.9073615
2162 1.9254313
2160 1.9087429
2158 1.8728161
2156 1.8469599
2154 1.8586974
2152 1.9109886
2150 1.9965186
2148 2.1008625
2146 2.2094214
2144 2.3160372
2142 2.4167778
2140 2.5042171
2138 2.5717304
2136 2.6211715
2134 2.6591415
2132 2.6995087
2130 2.7540126
2128 2.814028
2126 2.8654044
2124 2.9014983
2122 2.9225137
2120 2.944047
2118 2.9824998
2116 3.033973
2114 3.0880408
2112 3.1386154
2110 3.1832676
2108 3.2275376
2106 3.2777514
2104 3.3311217
2102 3.3802793
2100 3.4155521
2098 3.4285281
2096 3.4194429
2094 3.3939967
2092 3.3649693
2090 3.3473954
2088 3.3527629
2086 3.388865
2084 3.4522786
2082 3.5332365
2080 3.6134033
2078 3.6742463
2076 3.7100871
2074 3.7225888
2072 3.7214799
2070 3.716975
2068 3.7100053
2066 3.6986043
2064 3.6869223
2062 3.6825848
2060 3.6964006
2058 3.736567
2056 3.7952399
2054 3.8559248
2052 3.8949697
2050 3.8914382
2048 3.8474343
2046 3.7784357
2044 3.7147238
2042 3.6853459
2040 3.6902885
2038 3.7154663
2036 3.7414644
2034 3.7517273
2032 3.7485371
2030 3.742316
2028 3.7423937
2026 3.7569864
2024 3.79424
2022 3.8582981
2020 3.9371724
2018 4.0120249
2016 4.0655603
2014 4.0882368
2012 4.0971594
2010 4.1172991
2008 4.1548247
2006 4.2034979
2004 4.2437577
2002 4.254365
2000 4.2308908
1998 4.1790605
1996 4.113843
1994 4.0511665
1992 3.9946079
1990 3.9418094
1988 3.8907759
1986 3.8412166
1984 3.7989035
1982 3.7712052
1980 3.7592185
1978 3.7616282
1976 3.7793314
1974 3.8130751
1972 3.8578229
1970 3.9045255
1968 3.9396732
1966 3.9506156
1964 3.9359088
1962 3.9009995
1960 3.8549681
1958 3.8075955
1956 3.76493
1954 3.7298858
1952 3.7007556
1950 3.6737235
1948 3.6444068
1946 3.6097498
1944 3.5738263
1942 3.542834
1940 3.517652
1938 3.4955978
1936 3.4717515
1934 3.4419708
1932 3.409306
1930 3.3800941
1928 3.3576887
1926 3.3428092
1924 3.3329384
1922 3.3248105
1920 3.3183115
1918 3.315897
1916 3.3223755
1914 3.3416243
1912 3.3677845
1910 3.3894236
1908 3.3953784
1906 3.3782856
1904 3.344312
1902 3.3063943
1900 3.2733252
1898 3.2496846
1896 3.2348714
1894 3.2253833
1892 3.2175932
1890 3.207377
1888 3.1878736
1886 3.1519244
1884 3.0986569
1882 3.0321295
1880 2.9616377
1878 2.8979533
1876 2.8455
1874 2.8038352
1872 2.7691245
1870 2.7368371
1868 2.7069657
1866 2.6826494
1864 2.6683326
1862 2.667001
1860 2.674166
1858 2.6797485
1856 2.6702342
1854 2.6320436
1852 2.5592716
1850 2.4531453
1848 2.3258319
1846 2.1970179
1844 2.0910943
1842 2.0305715
1840 2.0186253
1838 2.0441918
1836 2.0870528
1834 2.124042
1832 2.1385438
1830 2.1201856
1828 2.0670283
1826 1.9842193
1824 1.8870143
1822 1.7948959
1820 1.7195261
1818 1.6638299
1816 1.6187772
1814 1.5689849
1812 1.5027717
1810 1.4156744
1808 1.3214355
1806 1.2418649
1804 1.1827148
1802 1.1362787
1800 1.0882623
1798 1.0250711
1796 0.95195645
1794 0.88592249
1792 0.83840477
1790 0.81415129
1788 0.81166929
1786 0.82394838
1784 0.83529168
1782 0.82634205
1780 0.7864852
1778 0.71504414
1776 0.62584633
1774 0.53998226
1772 0.46945053
1770 0.41537198
1768 0.36394829
1766 0.29640606
1764 0.2153236
1762 0.13406934
1760 0.039702285
1758 -0.093329974
1756 -0.25127858
1754 -0.39562288
1752 -0.51805121
1750 -0.63559949
1748 -0.76097041
1746 -0.8976382
1744 -1.0377578
1742 -1.1651934
1740 -1.259442
1738 -1.3000431
1736 -1.27722
1734 -1.1933535
1732 -1.0689886
1730 -0.93329006
1728 -0.79789591
1726 -0.65704501
1724 -0.49399406
1722 -0.28768438
1720 -0.026005082
1718 0.2982226
1716 0.70568913
1714 1.2182581
1712 1.8087578
1710 2.4259253
1708 3.093756
1706 3.9090621
1704 5.003861
1702 6.5403175
1700 8.7391148
1698 11.779882
1696 15.442286
1694 19.200001
1692 22.640564
1690 25.582092
1688 28.250618
1686 31.161392
1684 34.745724
1682 39.187069
1680 44.055359
1678 48.549389
1676 52.421329
1674 55.986446
1672 59.664154
1670 63.785965
1668 68.266235
1666 72.694
1664 76.7873
1662 80.448021
1660 83.641869
1658 86.366966
1656 88.647484
1654 90.530548
1652 92.09082
1650 93.398438
1648 94.405739
1646 94.976608
1644 95.071487
1642 94.738846
1640 93.952942
1638 92.602089
1636 90.570526
1634 87.799568
1632 84.450562
1630 80.844589
1628 77.136536
1626 73.286011
1624 69.205643
1622 64.832909
1620 60.260696
1618 55.722271
1616 51.42577
1614 47.515968
1612 44.066666
1610 41.078789
1608 38.490257
1606 36.196442
1604 34.127251
1602 32.259903
1600 30.597549
1598 29.159109
1596 27.952499
1594 26.968752
1592 26.193926
1590 25.614082
1588 25.219725
1586 25.005886
1584 24.959709
1582 25.06373
1580 25.323534
1578 25.769903
1576 26.437201
1574 27.350563
1572 28.492605
1570 29.803335
1568 31.207359
1566 32.625828
1564 33.993168
1562 35.299721
1560 36.749508
1558 38.69841
1556 41.192043
1554 43.889771
1552 46.345921
1550 48.156322
1548 49.281597
1546 50.046322
1544 50.664036
1542 51.13073
1540 51.36726
1538 51.27343
1536 50.822544
1534 50.082619
1532 49.160076
1530 48.167786
1528 47.13913
1526 46.015099
1524 44.726448
1522 43.228394
1520 41.536182
1518 39.731956
1516 37.918613
1514 36.177868
1512 34.446079
1510 32.506966
1508 30.187418
1506 27.444443
1504 24.459406
1502 21.613794
1500 19.128775
1498 16.97171
1496 15.017858
1494 13.108479
1492 11.160491
1490 9.1937265
1488 7.2592864
1486 5.4243245
1484 3.776264
1482 2.4118738
1480 1.3596065
1478 0.57962692
1476 0.12321672
1474 0.14212607
1472 0.63338143
1470 1.3814781
1468 2.1960716
1466 2.9849565
1464 3.7137799
1462 4.3975201
1460 5.0677943
1458 5.7568135
1456 6.4580197
1454 7.1109467
1452 7.6311431
1450 7.9302649
1448 7.9846683
1446 7.8566036
1444 7.6160684
1442 7.3133092
1440 6.9641833
1438 6.5437393
1436 6.0188227
1434 5.3665652
1432 4.6172557
1430 3.8669846
1428 3.2023001
1426 2.6730707
1424 2.299577
1422 2.0733502
1420 1.985152
1418 2.031424
1416 2.1990399
1414 2.460108
1412 2.7860539
1410 3.1533906
1408 3.5495715
1406 3.9746885
1404 4.424005
1402 4.88135
1400 5.3240356
1398 5.7246256
1396 6.0599713
1394 6.3155293
1392 6.4805622
1390 6.5475883
1388 6.5128055
1386 6.3780699
1384 6.1537123
1382 5.8600039
1380 5.515245
1378 5.1312542
1376 4.7175341
1374 4.2827644
1372 3.839488
1370 3.4034653
1368 2.9757218
1366 2.5346351
1364 2.0621269
1362 1.5580813
1360 1.0522739
1358 0.6113919
1356 0.28630555
1354 0.088158213
1352 0.008003097
1350 0.020604465
1348 0.1061687
1346 0.25850606
1344 0.4694556
1342 0.72210687
1340 0.99338913
1338 1.2530928
1336 1.4674343
1334 1.6022676
1332 1.6400652
1330 1.592044
1328 1.48474
1326 1.358435
1324 1.2518684
1322 1.1948528
1320 1.2034937
1318 1.2731022
1316 1.38617
1314 1.5120794
1312 1.6221972
1310 1.6972636
1308 1.72893
1306 1.7239321
1304 1.6945051
1302 1.656099
1300 1.6241574
1298 1.6131586
1296 1.6367143
1294 1.7074136
1292 1.8352928
1290 2.0255578
1288 2.2768118
1286 2.5770206
1284 2.9052055
1282 3.2300684
1280 3.5218623
1278 3.7598341
1276 3.9380329
1274 4.0739141
1272 4.1950607
1270 4.3372307
1268 4.5321393
1266 4.7996764
1264 5.148993
1262 5.5741968
1260 6.064364
1258 6.6057615
1256 7.1870971
1254 7.8031898
1252 8.452219
1250 9.1355057
1248 9.8529339
1246 10.59875
1244 11.36066
1242 12.116391
1240 12.839577
1238 13.498861
1236 14.059199
1234 14.479498
1232 14.72332
1230 14.764894
1228 14.596588
1226 14.240386
1224 13.728617
1222 13.095836
1220 12.380966
1218 11.62958
1216 10.884428
1214 10.179358
1212 9.5357876
1210 8.9539223
1208 8.4257298
1206 7.9363842
1204 7.467494
1202 6.9966216
1200 6.5031905
1198 5.9734998
1196 5.4003358
1194 4.7876353
1192 4.1457624
1190 3.4944341
1188 2.8605576
1186 2.2811699
1184 1.7899303
1182 1.4069388
1180 1.1388253
1178 0.97005701
1176 0.87934399
1174 0.84412122
1172 0.84275931
1170 0.85663223
1168 0.87033969
1166 0.87476647
1164 0.86710608
1162 0.85506701
1160 0.84641612
1158 0.84297192
1156 0.84149057
1154 0.83049715
1152 0.79781359
1150 0.7344172
1148 0.63532382
1146 0.50390822
1144 0.35195351
1142 0.20568672
1140 0.090099871
1138 0.019110875
1136 0.0030849297
1134 0.049706772
1132 0.16223054
1130 0.33464962
1128 0.55681646
1126 0.81402642
1124 1.0905908
1122 1.3717642
1120 1.64854
1118 1.9255805
1116 2.2090385
1114 2.5017078
1112 2.8017857
1110 3.0996909
1108 3.3862579
1106 3.6587
1104 3.916204
1102 4.1596551
1100 4.3907819
1098 4.6138749
1096 4.8386998
1094 5.0867624
1092 5.3814139
1090 5.7415175
1088 6.1748867
1086 6.6628757
1084 7.1719704
1082 7.6469946
1080 8.0337315
1078 8.2957268
1076 8.4193125
1074 8.4394388
1072 8.4033279
1070 8.3571939
1068 8.3341703
1066 8.3319263
1064 8.3379965
1062 8.3362579
1060 8.3122311
1058 8.2581406
1056 8.1687088
1054 8.0410585
1052 7.8736024
1050 7.6680751
1048 7.427494
1046 7.1563282
1044 6.8637037
1042 6.571424
1040 6.3050508
1038 6.0925493
1036 5.9513903
1034 5.8677559
1032 5.813272
1030 5.7402244
1028 5.6026516
1026 5.3744836
1024 5.0469122
1022 4.6473479
1020 4.216681
1018 3.8071954
1016 3.4628656
1014 3.1918905
1012 2.98245
1010 2.7876439
1008 2.558892
1006 2.2686443
1004 1.9113777
1002 1.5326047
1000 1.1834015
998 0.89135247
996 0.66563213
994 0.47537699
992 0.28571656
990 0.080810532
988 -0.14116615
986 -0.35226306
984 -0.52110845
982 -0.62933004
980 -0.66667479
978 -0.63889253
976 -0.55323482
974 -0.40912467
972 -0.2093485
970 0.025472522
968 0.26653332
966 0.47264051
964 0.60967779
962 0.67802525
960 0.68937707
958 0.66489673
956 0.62165469
954 0.55477637
952 0.4572092
950 0.33361542
948 0.1985489
946 0.090524748
944 0.036048185
942 -0.0019573346
940 -0.061696485
938 -0.12892652
936 -0.18668972
934 -0.25543952
932 -0.35945174
930 -0.50282997
928 -0.67799348
926 -0.85253656
924 -0.98940378
922 -1.057297
920 -1.0341882
918 -0.92756301
916 -0.75223517
914 -0.52360666
912 -0.26330927
910 -0.016619399
908 0.16507246
906 0.22957429
904 0.15152971
902 0.011825636
900 -0.094038345
898 -0.11775421
896 -0.022840001
