##TITLE=Methyl Ethyl Ketone
##JCAMP-DX=4.24
##DATA TYPE=INFRARED SPECTRUM
##XUNITS=cm-1
##YUNITS=Absorbance
##FIRSTX=900
##LASTX=2300
##XYDATA=(X++(Y..Y))
2296 0.044911999
2294 0.045846663
2292 0.046780329
2290 0.04771499
2288 0.04864965
2286 0.04958332
2284 0.050517976
2282 0.051452637
2280 0.052386317
2278 0.053320967
2276 0.054255631
2274 0.055189308
2272 0.056123953
2270 0.057058617
2268 0.057992298
2266 0.058926944
2264 0.059861604
2262 0.060795296
2260 0.06172993
2258 0.062664591
2256 0.063598283
2254 0.064532921
2252 0.065466613
2250 0.066401243
2248 0.067335911
2246 0.068270572
2244 0.07079491
2242 0.0027343673
2240 -0.05736864
2238 -0.11305653
2236 -0.16820386
2234 -0.16546649
2232 -0.15818737
2230 -0.14279486
2228 -0.13206951
2226 -0.16188399
2224 -0.19128263
2222 -0.20958284
2220 -0.21272352
2218 -0.17159416
2216 -0.12439314
2214 -0.069412827
2212 -0.0270664
2210 -0.0060570217
2208 -0.01085023
2206 -0.046159822
2204 -0.096219651
2202 -0.15857334
2200 -0.189226
2198 -0.1955875
2196 -0.13602714
2194 -0.039431669
2192 0.069676489
2190 0.18317251
2188 0.21969797
2186 0.23111528
2184 0.19685639
2182 0.15248346
2180 0.10421017
2178 0.055125028
2176 -0.020904971
2174 -0.096661478
2172 -0.14122011
2170 -0.173666
2168 -0.15375938
2166 -0.12565272
2164 -0.086329475
2162 -0.043290317
2160 0.006431812
2158 0.048516225
2156 0.074883997
2154 0.074849591
2152 0.038919821
2150 0.0038728237
2148 -0.025981054
2146 -0.014866143
2144 0.031973921
2142 0.11019202
2140 0.20759284
2138 0.29536462
2136 0.3768363
2134 0.41550136
2132 0.4364951
2130 0.4236623
2128 0.40058041
2126 0.3565138
2124 0.30769089
2122 0.2542651
2120 0.20235692
2118 0.19251695
2116 0.19304958
2114 0.2266254
2112 0.2690641
2110 0.32994965
2108 0.39353868
2106 0.45704126
2104 0.49712116
2102 0.48538244
2100 0.45595258
2098 0.40962443
2096 0.39485857
2094 0.42450973
2092 0.46769446
2090 0.51816887
2088 0.53698182
2086 0.52906305
2084 0.52280563
2082 0.5201956
2080 0.5398373
2078 0.57077575
2076 0.57716697
2074 0.57273322
2072 0.55465519
2070 0.53244507
2068 0.55215627
2066 0.58202213
2064 0.62113065
2062 0.65778458
2060 0.6555239
2058 0.6405285
2056 0.59781313
2054 0.54666919
2052 0.48369178
2050 0.41925547
2048 0.3556245
2046 0.30178535
2044 0.26594558
2042 0.25341409
2040 0.27217063
2038 0.31797516
2036 0.39068401
2034 0.47496441
2032 0.56539929
2030 0.64867878
2028 0.72460073
2026 0.789195
2024 0.84670061
2022 0.87821954
2020 0.89637882
2018 0.85937828
2016 0.80051404
2014 0.73009014
2012 0.65752941
2010 0.64109713
2008 0.64138275
2006 0.66245383
2004 0.68771946
2002 0.70224619
2000 0.71470332
1998 0.72566074
1996 0.73314857
1994 0.72854102
1992 0.71405679
1990 0.68826836
1988 0.67162919
1986 0.68131065
1984 0.71465683
1982 0.77210653
1980 0.82972616
1978 0.87904888
1976 0.92400199
1974 0.96528423
1972 1.0185601
1970 1.0805902
1968 1.1394285
1966 1.1954707
1964 1.2243912
1962 1.2407215
1960 1.220132
1958 1.1846604
1956 1.1202257
1954 1.0475352
1952 1.0110183
1950 0.99107003
1948 0.99898118
1946 1.007525
1944 0.97530675
1942 0.92741734
1940 0.88572598
1938 0.85733867
1936 0.86262339
1934 0.87039161
1932 0.85699618
1930 0.83324015
1928 0.7967025
1926 0.79784292
1924 0.84917241
1922 0.95717221
1920 1.1153823
1918 1.249411
1916 1.3563871
1914 1.420748
1912 1.4567069
1910 1.4852352
1908 1.5107546
1906 1.4929993
1904 1.4528279
1902 1.3872226
1900 1.3125577
1898 1.2704295
1896 1.2437428
1894 1.2356158
1892 1.2300354
1890 1.2004939
1888 1.1533046
1886 1.0788879
1884 0.99336743
1882 0.90674126
1880 0.8288399
1878 0.76768935
1876 0.72701901
1874 0.7036078
1872 0.69522417
1870 0.69513923
1868 0.69911921
1866 0.71669966
1864 0.73682964
1862 0.76607931
1860 0.78730351
1858 0.7949298
1856 0.79015195
1854 0.77330422
1852 0.77748305
1850 0.79272276
1848 0.80881798
1846 0.81908357
1844 0.76058197
1842 0.66294444
1840 0.56442899
1838 0.47227359
1836 0.40432328
1834 0.3501175
1832 0.27882981
1830 0.21613431
1828 0.22114713
1826 0.27053764
1824 0.38402107
1822 0.49137321
1820 0.52808279
1818 0.5190708
1816 0.46646029
1814 0.41221958
1812 0.37296042
1810 0.35147569
1808 0.34866595
1806 0.36892501
1804 0.40877947
1802 0.44741058
1800 0.47531173
1798 0.47558382
1796 0.45401001
1794 0.43788272
1792 0.43469399
1790 0.47903588
1788 0.56015599
1786 0.63036007
1784 0.69225436
1782 0.68522763
1780 0.645329
1778 0.61765176
1776 0.59819061
1774 0.58381039
1772 0.53972006
1770 0.42272693
1768 0.2717908
1766 0.13973129
1764 0.05122282
1762 0.015675224
1760 0.0038297197
1758 -0.14423107
1756 -0.35290542
1754 -0.5311116
1752 -0.61243153
1750 -0.59543866
1748 -0.53068751
1746 -0.44213536
1744 -0.45371342
1742 -0.55420995
1740 -0.64710963
1738 -0.72176415
1736 -0.62943
1734 -0.41921347
1732 -0.24759708
1730 -0.11448175
1728 -0.1509514
1726 -0.27878207
1724 -0.32817617
1722 -0.27070981
1720 0.015279144
1718 0.50559241
1716 1.3442214
1714 2.3585036
1712 3.3280201
1710 4.2318034
1708 5.013854
1706 5.9081001
1704 7.1067462
1702 8.8677492
1700 11.3245
1698 14.437569
1696 18.115286
1694 21.67626
1692 24.837711
1690 27.664301
1688 30.229023
1686 33.277279
1684 36.877132
1682 41.02985
1680 45.610638
1678 49.545883
1676 52.894615
1674 56.112389
1672 59.295128
1670 63.082092
1668 67.335495
1666 71.707397
1664 76.108673
1662 80.238304
1660 84.07225
1658 87.509727
1656 90.595367
1654 93.393417
1652 95.867996
1650 98.007294
1648 99.341026
1646 99.547745
1644 98.830437
1642 97.444588
1640 95.543839
1638 93.27005
1636 90.333626
1634 86.710678
1632 82.740265
1630 78.596916
1628 74.475311
1626 70.407784
1624 66.126762
1622 61.61713
1620 57.190769
1618 52.87727
1616 48.84137
1614 45.103939
1612 41.757484
1610 38.826462
1608 36.319317
1606 34.216473
1604 32.390697
1602 30.835119
1600 29.492565
1598 28.354961
1596 27.3715
1594 26.545088
1592 25.85676
1590 25.319468
1588 24.930817
1586 24.712336
1584 24.656931
1582 24.76635
1580 25.019152
1578 25.463236
1576 26.110086
1574 26.971626
1572 28.054628
1570 29.195051
1568 30.358961
1566 31.432821
1564 32.399307
1562 33.452171
1560 34.659138
1558 36.518818
1556 39.022984
1554 41.59996
1552 44.119827
1550 46.013519
1548 47.344704
1546 48.506714
1544 49.503212
1542 50.409599
1540 51.040379
1538 51.226357
1536 50.950829
1534 50.265602
1532 49.39204
1530 48.517864
1528 47.601337
1526 46.612698
1524 45.391327
1522 43.851215
1520 41.992302
1518 39.830463
1516 37.753143
1514 35.888691
1512 34.1082
1510 32.363499
1508 30.099297
1506 27.153622
1504 24.164022
1502 21.211834
1500 18.765875
1498 16.887909
1496 15.054143
1494 13.242901
1492 11.371945
1490 9.437849
1488 7.4959121
1486 5.6031446
1484 3.864748
1482 2.3915401
1480 1.266528
1478 0.51711595
1476 0.12796101
1474 0.21898356
1472 0.85794419
1470 1.655894
1468 2.4763684
1466 3.2696586
1464 3.9673834
1462 4.6306944
1460 5.2694354
1458 5.739974
1456 5.95754
1454 5.9740329
1452 5.7476401
1450 5.5493727
1448 5.4125319
1446 5.2517357
1444 5.0482831
1442 4.793117
1440 4.4628
1438 4.1003456
1436 3.6696215
1434 3.1582484
1432 2.5626292
1430 1.9611408
1428 1.4157881
1426 1.0107666
1424 0.768727
1422 0.67853457
1420 0.71175003
1418 0.84290594
1416 1.0529441
1414 1.3387251
1412 1.6948178
1410 2.1025863
1408 2.5291355
1406 2.9505215
1404 3.3461299
1402 3.7092228
1400 4.0292921
1398 4.2864423
1396 4.4875069
1394 4.6009417
1392 4.6664262
1390 4.6706829
1388 4.6325955
1386 4.5319848
1384 4.38906
1382 4.187623
1380 3.9659417
1378 3.7133172
1376 3.4470999
1374 3.1592684
1372 2.8821321
1370 2.6196132
1368 2.370719
1366 2.118398
1364 1.8037951
1362 1.4365871
1360 1.0366151
1358 0.66056097
1356 0.38552254
1354 0.19161308
1352 0.0840175
1350 0.018230096
1348 -0.017062999
1346 -0.037046257
1344 0.016034257
1342 0.10665754
1340 0.25743023
1338 0.40740079
1336 0.55602628
1334 0.67355001
1332 0.76336735
1330 0.84674543
1328 0.92819363
1326 1.0328752
1324 1.1632826
1322 1.3278445
1320 1.5255725
1318 1.7433152
1316 1.97332
1314 2.1935842
1312 2.4033039
1310 2.5823505
1308 2.7395635
1306 2.8651557
1304 2.967484
1302 3.0466979
1300 3.1064548
1298 3.1468015
1296 3.1784999
1294 3.2115402
1292 3.2554293
1290 3.3314018
1288 3.4234321
1286 3.5479608
1284 3.6805425
1282 3.8318052
1280 3.9815297
1278 4.1289649
1276 4.2729545
1274 4.408124
1272 4.5539565
1270 4.7177911
1268 4.9090204
1266 5.1470199
1264 5.4235821
1262 5.7570601
1260 6.1351261
1258 6.5656672
1256 7.0393257
1254 7.5575032
1252 8.117466
1250 8.7080517
1248 9.3136253
1246 9.9146748
1244 10.479963
1242 11.012876
1240 11.488275
1238 11.928829
1236 12.304399
1234 12.633355
1232 12.850679
1230 12.99798
1228 12.951771
1226 12.829157
1224 12.499171
1222 12.120434
1220 11.627286
1218 11.12041
1216 10.586572
1214 10.042732
1212 9.4789438
1210 8.8915672
1208 8.2715349
1206 7.6421299
1204 7.0060158
1202 6.3828373
1200 5.7704439
1198 5.1562691
1196 4.5380068
1194 3.9091227
1192 3.2851524
1190 2.707983
1188 2.1789658
1186 1.7654314
1184 1.4136171
1182 1.1603141
1180 0.94944263
1178 0.8189854
1176 0.72614002
1174 0.74027878
1172 0.77053887
1170 0.83921385
1168 0.88518685
1166 0.86155111
1164 0.80683255
1162 0.67740804
1160 0.54560685
1158 0.41374248
1156 0.31570843
1154 0.27357191
1152 0.25270498
1150 0.25417677
1148 0.23135319
1146 0.1802668
1144 0.1103308
1142 0.033564985
1140 0.0018634719
1138 0.016226098
1136 0.11823514
1134 0.28005892
1132 0.54707646
1130 0.86856151
1128 1.2637868
1126 1.6868685
1124 2.1487288
1122 2.6128869
1120 3.0534241
1118 3.4781868
1116 3.8309414
1114 4.177712
1112 4.5057387
1110 4.8451285
1108 5.2206554
1106 5.5998201
1104 5.9861631
1102 6.3563285
1100 6.6927242
1098 7.0045929
1096 7.2772856
1094 7.5349426
1092 7.7787161
1090 8.0523872
1088 8.3618393
1086 8.7203569
1084 9.1107206
1082 9.4644213
1080 9.78092
1078 9.9904079
1076 10.145271
1074 10.253824
1072 10.350211
1070 10.471661
1068 10.592689
1066 10.678957
1064 10.74104
1062 10.656736
1060 10.54266
1058 10.283104
1056 10.007252
1054 9.6593952
1052 9.304347
1050 8.9265432
1048 8.5482321
1046 8.1683321
1044 7.7848396
1042 7.3954415
1040 7.0096116
1038 6.6334057
1036 6.3001399
1034 6.0182695
1032 5.7698579
1030 5.5452261
1028 5.2673001
1026 4.947392
1024 4.572372
1022 4.171587
1020 3.7974601
1018 3.438642
1016 3.1298456
1014 2.8381095
1012 2.5864751
1010 2.3437078
1008 2.1256878
1006 1.9098407
1004 1.6968608
1002 1.484247
1000 1.2742269
998 1.0713918
996 0.90032071
994 0.73544991
992 0.58923614
990 0.42695731
988 0.22860074
986 0.033881068
984 -0.15186314
982 -0.28162631
980 -0.33355698
978 -0.31979299
976 -0.23465616
974 -0.088608086
972 0.10806915
970 0.34456927
968 0.60469663
966 0.86480552
964 1.1213237
962 1.3098871
960 1.4695195
958 1.4727758
956 1.4362243
954 1.2496072
952 1.0414848
950 0.75144482
948 0.46126622
946 0.21656884
944 0.0026052073
942 -0.0013520047
940 -0.03717801
938 0.08811
936 0.18337286
934 0.18804429
932 0.1010052
930 -0.18103737
928 -0.46000588
926 -0.73024631
924 -0.8163898
922 -0.67693174
920 -0.39566094
918 0.015252054
916 0.2982533
914 0.48897463
912 0.49206313
910 0.39524308
908 0.28765664
906 0.1745024
904 0.09519659
902 0.02373852
900 0.013168525
898 0.012267739
896 0.23017
