##TITLE=Methyl Ethyl Ketone
##JCAMP-DX=4.24
##DATA TYPE=INFRARED SPECTRUM
##XUNITS=cm-1
##YUNITS=Absorbance
##FIRSTX=900
##LASTX=2300
##XYDATA=(X++(Y..Y))
2296 -0.0092922002
2294 -0.0094855232
2292 -0.0096787466
2290 -0.0098721702
2288 -0.010065892
2286 -0.010258622
2284 -0.010452338
2282 -0.01064507
2280 -0.010838782
2278 -0.011031519
2276 -0.011225228
2274 -0.011418952
2272 -0.011611691
2270 -0.011804415
2268 -0.01199812
2266 -0.012195757
2264 -0.012385657
2262 -0.012565629
2260 -0.012771677
2258 -0.013013405
2256 -0.013159885
2254 -0.013171759
2252 -0.013539088
2250 -0.014408856
2248 -0.013955143
2246 -0.009903525
2244 -0.00036229513
2242 0.017090354
2240 0.047469761
2238 0.094661877
2236 0.15505478
2234 0.22111031
2232 0.27811983
2230 0.31356451
2228 0.33218253
2226 0.34165701
2224 0.34141755
2222 0.32755169
2220 0.29271537
2218 0.23393288
2216 0.17007686
2214 0.1243658
2212 0.1112596
2210 0.13829663
2208 0.19613241
2206 0.27293184
2204 0.36742654
2202 0.47868508
2200 0.59377342
2198 0.69511777
2196 0.76165283
2194 0.78119403
2192 0.78198117
2190 0.80112892
2188 0.8599633
2186 0.96649414
2184 1.0959936
2182 1.2192087
2180 1.3303608
2178 1.4316208
2176 1.5248543
2174 1.6099365
2172 1.678548
2170 1.721264
2168 1.7349851
2166 1.7190365
2164 1.6759088
2162 1.6121885
2160 1.5479366
2158 1.5057329
2156 1.4979299
2154 1.5312862
2152 1.6013988
2150 1.7003628
2148 1.8185825
2146 1.9448714
2144 2.0613708
2142 2.1502619
2140 2.2009296
2138 2.2061887
2136 2.1600542
2134 2.0604541
2132 1.9185965
2130 1.7551709
2128 1.609836
2126 1.5232929
2124 1.5146648
2122 1.5873091
2120 1.7134429
2118 1.8576244
2116 2.0002043
2114 2.1288159
2112 2.2364132
2110 2.3167965
2108 2.3583388
2106 2.3524828
2104 2.3113675
2102 2.2544479
2100 2.1974521
2098 2.1494906
2096 2.098243
2094 2.0293598
2092 1.9531345
2090 1.890558
2088 1.8651823
2086 1.891965
2084 1.946502
2082 1.9929979
2080 2.0139234
2078 2.0051022
2076 1.98589
2074 1.9798392
2072 1.989884
2070 2.0096776
2068 2.0296755
2066 2.0415914
2064 2.0448017
2062 2.0416851
2060 2.0336003
2058 2.0213931
2056 2.0051143
2054 1.9860706
2052 1.9694885
2050 1.9614246
2048 1.9640028
2046 1.9755608
2044 1.986346
2042 1.9848439
2040 1.9654691
2038 1.9278557
2036 1.8811328
2034 1.8368406
2032 1.802004
2030 1.7787091
2028 1.7585286
2026 1.7305664
2024 1.691524
2022 1.6436878
2020 1.5973897
2018 1.5657997
2016 1.55996
2014 1.5858536
2012 1.6338514
2010 1.6859362
2008 1.7201903
2006 1.7189264
2004 1.6891418
2002 1.648778
2000 1.6145291
1998 1.5968374
1996 1.5864358
1994 1.567381
1992 1.5341258
1990 1.4901762
1988 1.454126
1986 1.4464886
1984 1.4660617
1982 1.5002463
1980 1.5335094
1978 1.5533203
1976 1.5627085
1974 1.5714841
1972 1.5861278
1970 1.6086183
1968 1.6319114
1966 1.6441785
1964 1.6328738
1962 1.5883443
1960 1.51376
1958 1.4211496
1956 1.3311957
1954 1.2655151
1952 1.2335497
1950 1.2344252
1948 1.2527558
1946 1.268525
1944 1.272
1942 1.2616147
1940 1.2443788
1938 1.2308429
1936 1.22832
1934 1.2394731
1932 1.254696
1930 1.2591431
1928 1.2424932
1926 1.2059679
1924 1.1873634
1922 1.2344342
1920 1.3522937
1918 1.514022
1916 1.6598958
1914 1.7264493
1912 1.703101
1910 1.6121669
1908 1.4876611
1906 1.36545
1904 1.2729
1902 1.227165
1900 1.2241806
1898 1.2471126
1896 1.2732286
1894 1.2826098
1892 1.2777375
1890 1.272063
1888 1.2684326
1886 1.2607114
1884 1.2363051
1882 1.1848316
1880 1.1198384
1878 1.0656002
1876 1.03049
1874 1.0086367
1872 0.97908103
1870 0.91933602
1868 0.83625019
1866 0.75421256
1864 0.69430363
1862 0.66928369
1860 0.67185605
1858 0.68632782
1856 0.71183032
1854 0.75570011
1852 0.81646591
1850 0.88159329
1848 0.9179092
1846 0.88764358
1844 0.78622317
1842 0.63486713
1840 0.47229427
1838 0.33789149
1836 0.23549557
1834 0.1499905
1832 0.08583618
1830 0.063536227
1828 0.10854517
1826 0.23646601
1824 0.41182193
1822 0.56964737
1820 0.66081601
1818 0.65866435
1816 0.57473314
1814 0.44466919
1812 0.30773303
1810 0.19764575
1808 0.12443646
1806 0.080129303
1804 0.045877889
1802 0.0015065353
1800 -0.05475061
1798 -0.11357395
1796 -0.17429213
1794 -0.23848639
1792 -0.2842904
1790 -0.27593955
1788 -0.19113803
1786 -0.02870211
1784 0.16772343
1782 0.3335194
1780 0.44316506
1778 0.4990592
1776 0.49018088
1774 0.39773458
1772 0.22839665
1770 0.017319061
1768 -0.15997264
1766 -0.21932821
1764 -0.1567322
1762 -0.039282713
1760 0.017976686
1758 -0.096728258
1756 -0.35843614
1754 -0.64659488
1752 -0.87313765
1750 -0.99704432
1748 -1.0203712
1746 -0.9762879
1744 -0.9183017
1742 -0.90151381
1740 -0.93572623
1738 -0.99197668
1736 -1.0253201
1734 -0.99295872
1732 -0.89398098
1730 -0.76019454
1728 -0.62414819
1726 -0.50738591
1724 -0.39954513
1722 -0.25602701
1720 0.016511083
1718 0.52831399
1716 1.3092982
1714 2.3051138
1712 3.3829424
1710 4.3871827
1708 5.2963762
1706 6.2165427
1704 7.3206677
1702 8.819562
1700 10.933856
1698 13.810319
1696 17.241285
1694 20.759329
1692 24.023237
1690 26.910061
1688 29.62348
1686 32.586143
1684 36.099606
1682 40.230968
1680 44.59576
1678 48.561306
1676 51.972427
1674 55.147835
1672 58.494987
1670 62.3517
1668 66.727684
1666 71.355751
1664 75.968773
1662 80.358643
1660 84.370087
1658 87.909309
1656 91.011658
1654 93.807358
1652 96.377037
1650 98.686317
1648 100.43616
1646 101.18179
1644 100.84257
1642 99.686165
1640 97.909569
1638 95.557747
1636 92.593987
1634 88.980911
1632 84.894447
1630 80.67366
1628 76.479279
1626 72.266495
1624 67.95536
1622 63.496647
1620 58.965794
1618 54.54705
1616 50.405628
1614 46.656487
1612 43.361404
1610 40.527863
1608 38.106785
1606 36.010998
1604 34.182755
1602 32.601727
1600 31.243406
1598 30.070942
1596 29.051001
1594 28.162682
1592 27.414417
1590 26.839552
1588 26.458117
1586 26.264236
1584 26.225269
1582 26.29241
1580 26.441317
1578 26.68222
1576 27.048658
1574 27.584522
1572 28.300699
1570 29.164248
1568 30.11496
1566 31.078121
1564 32.000088
1562 32.888958
1560 33.933578
1558 35.452206
1556 37.516113
1554 39.88039
1552 42.171932
1550 44.008114
1548 45.304985
1546 46.293716
1544 47.17189
1542 48.012909
1540 48.794041
1538 49.404198
1536 49.6758
1534 49.435802
1532 48.695339
1530 47.662083
1528 46.495258
1526 45.23875
1524 43.861153
1522 42.286278
1520 40.497372
1518 38.566868
1516 36.626343
1514 34.816483
1512 33.096519
1510 31.222805
1508 28.984951
1506 26.306486
1504 23.352617
1502 20.506868
1500 17.998968
1498 15.807369
1496 13.822
1494 11.906313
1492 9.9971638
1490 8.1271963
1488 6.343194
1486 4.6857986
1484 3.212256
1482 1.9926953
1480 1.0515449
1478 0.37266627
1476 0.038135856
1474 0.2269806
1472 0.93677795
1470 1.9186449
1468 2.9382417
1466 3.86011
1464 4.6338658
1462 5.280139
1460 5.770494
1458 6.0064306
1456 5.9493999
1454 5.6689596
1452 5.3064933
1450 5.0430884
1448 4.9341946
1446 4.8666606
1444 4.7467756
1442 4.5553088
1440 4.2860298
1438 3.9272163
1436 3.4600942
1434 2.8680596
1432 2.1896653
1430 1.5332099
1428 0.99371922
1426 0.62082374
1424 0.42184773
1422 0.36158258
1420 0.41054669
1418 0.56022167
1416 0.80611885
1414 1.1406066
1412 1.5423489
1410 1.9724057
1408 2.3931098
1406 2.7757721
1404 3.1020577
1402 3.3675251
1400 3.5809119
1398 3.765969
1396 3.9510071
1394 4.1617994
1392 4.3989954
1390 4.6257477
1388 4.7896237
1386 4.8331051
1384 4.7298346
1382 4.5027175
1380 4.1922011
1378 3.8466442
1376 3.5047944
1374 3.1879222
1372 2.9104519
1370 2.6792133
1368 2.4809291
1366 2.2751508
1364 2.0224833
1362 1.6999449
1360 1.3184246
1358 0.93360329
1356 0.5968647
1354 0.33413041
1352 0.14964509
1350 0.024521533
1348 -0.052590005
1346 -0.073543429
1344 -0.030084798
1342 0.077143073
1340 0.23335925
1338 0.4054364
1336 0.56370854
1334 0.69298655
1332 0.79397774
1330 0.88783789
1328 0.99869478
1326 1.1464236
1324 1.3402883
1322 1.572493
1320 1.8255891
1318 2.0735519
1316 2.29671
1314 2.4899542
1312 2.6541908
1310 2.794826
1308 2.9160712
1306 3.0191207
1304 3.1065686
1302 3.1845629
1300 3.258637
1298 3.3311741
1296 3.4019001
1294 3.4679122
1292 3.5292826
1290 3.5924904
1288 3.6664441
1286 3.7607229
1284 3.878572
1282 4.0122724
1280 4.1515336
1278 4.2872896
1276 4.4154472
1274 4.5404282
1272 4.6691451
1270 4.8097005
1268 4.9730339
1266 5.1741734
1264 5.4283986
1262 5.7480912
1260 6.1368999
1258 6.5830951
1256 7.0702572
1254 7.5815597
1252 8.1073093
1250 8.6510038
1248 9.2172098
1246 9.8052006
1244 10.404652
1242 10.988659
1240 11.529137
1238 12.000424
1236 12.384743
1234 12.678562
1232 12.88264
1230 12.997452
1228 13.02404
1226 12.960649
1224 12.804177
1222 12.545596
1220 12.180552
1218 11.71165
1216 11.152343
1214 10.534719
1212 9.8908272
1210 9.2489071
1208 8.6298866
1206 8.0401058
1204 7.4780278
1202 6.9319754
1200 6.3839188
1198 5.8096809
1196 5.1948786
1194 4.5505638
1192 3.9053135
1190 3.309767
1188 2.8022838
1186 2.3833914
1184 2.0366876
1182 1.7312002
1180 1.4508132
1178 1.2179673
1176 1.0577919
1174 0.97936606
1172 0.97299689
1170 0.99644804
1168 1.0078517
1166 0.98410404
1164 0.91423953
1162 0.80447859
1160 0.66656423
1158 0.51573992
1156 0.370031
1154 0.25102571
1152 0.17346875
1150 0.13369289
1148 0.1164782
1146 0.092011601
1144 0.042822555
1142 -0.010546349
1140 -0.028595481
1138 0.048730254
1136 0.2632983
1134 0.60013849
1132 1.0110452
1130 1.4046867
1128 1.712952
1126 1.9491142
1124 2.1585555
1122 2.4130721
1120 2.7606959
1118 3.1755776
1116 3.6142201
1114 4.0348454
1112 4.410913
1110 4.7520342
1108 5.0723524
1106 5.3756299
1104 5.663722
1102 5.941741
1100 6.2209997
1098 6.5277433
1096 6.8865285
1094 7.3078785
1092 7.7851539
1090 8.2772331
1088 8.7423544
1086 9.1593342
1084 9.5198059
1082 9.8356037
1080 10.113754
1078 10.338321
1076 10.493471
1074 10.582958
1072 10.616371
1070 10.606905
1068 10.559943
1066 10.462421
1064 10.30412
1062 10.102985
1060 9.8855629
1058 9.6857357
1056 9.5303574
1054 9.4236774
1052 9.3536892
1050 9.2791872
1048 9.1496992
1046 8.9114647
1044 8.5297136
1042 8.0272589
1040 7.4504976
1038 6.8724236
1036 6.3603401
1034 5.9435925
1032 5.6262226
1030 5.3636622
1028 5.0995641
1026 4.779397
1024 4.372272
1022 3.9166141
1020 3.4665234
1018 3.0719326
1016 2.7623258
1014 2.5093951
1012 2.2779064
1010 2.0552287
1008 1.8346679
1006 1.6112615
1004 1.3754408
1002 1.1025133
1000 0.77563828
998 0.41605747
996 0.055836216
994 -0.26756459
992 -0.52274072
990 -0.70181799
988 -0.80487388
986 -0.83899027
984 -0.81578964
982 -0.75571799
980 -0.67434478
978 -0.56380445
976 -0.40355113
974 -0.15108047
972 0.22069845
970 0.66943181
968 1.1343234
966 1.5511899
964 1.8697529
962 2.09057
960 2.2180176
958 2.2274332
956 2.0962472
954 1.8343077
952 1.4686121
950 1.0576489
948 0.66560423
946 0.34974179
944 0.1425008
942 -0.0042392313
940 -0.13060495
938 -0.17704658
936 -0.095717058
934 0.029078148
932 0.09006463
930 0.017061532
928 -0.21542016
926 -0.5018388
924 -0.71744144
922 -0.78817993
920 -0.6875242
918 -0.52020377
916 -0.40285942
914 -0.37260237
912 -0.43806738
910 -0.57453358
908 -0.74972546
906 -0.93415707
904 -1.0796057
902 -1.0619931
900 -0.78024131
898 -0.3017503
896 0.26422
