##TITLE=Methyl Ethyl Ketone
##JCAMP-DX=4.24
##DATA TYPE=INFRARED SPECTRUM
##XUNITS=cm-1
##YUNITS=Absorbance
##FIRSTX=900
##LASTX=2300
##XYDATA=(X++(Y..Y))
2296 -0.0049099
2294 -0.005012054
2292 -0.0051141079
2290 -0.0052163615
2288 -0.0053184163
2286 -0.0054205693
2284 -0.005522822
2282 -0.0056249769
2280 -0.0057270322
2278 -0.0058291843
2276 -0.0059313388
2274 -0.006033394
2272 -0.0061356444
2270 -0.0062378002
2268 -0.0063399537
2266 -0.0064420099
2264 -0.0065442594
2262 -0.0066464157
2260 -0.0067485697
2258 -0.0068506259
2256 -0.006952777
2254 -0.007054931
2252 -0.0071569877
2250 -0.0072591389
2248 -0.0073612928
2246 -0.0074634464
2244 -0.00027734943
2242 0.053008366
2240 0.1103974
2238 0.17769115
2236 0.24646629
2234 0.24653374
2232 0.23921423
2230 0.1774774
2228 0.11528017
2226 0.070417248
2224 0.034439217
2222 0.035211693
2220 0.042330697
2218 0.062873557
2216 0.081294604
2214 0.093423381
2212 0.092510298
2210 0.070907205
2208 0.044913121
2206 0.015024143
2204 -0.0013804247
2202 -0.0045764879
2200 -0.0084790401
2198 -0.013571456
2196 -0.025005357
2194 -0.04003023
2192 -0.040069245
2190 -0.033414103
2188 -0.0027689117
2186 0.03552521
2184 0.067886285
2182 0.098768331
2180 0.087964922
2178 0.070893593
2176 0.049392771
2174 0.028678106
2172 0.02140596
2170 0.010815041
2168 -0.026006769
2166 -0.069855578
2164 -0.12993455
2162 -0.18434727
2160 -0.22011492
2158 -0.23938331
2156 -0.231032
2154 -0.2150656
2152 -0.19220845
2150 -0.18316068
2148 -0.19047435
2146 -0.20012642
2144 -0.21031606
2142 -0.2090359
2140 -0.19971211
2138 -0.2081079
2136 -0.22662686
2134 -0.24856189
2132 -0.2716223
2130 -0.25315046
2128 -0.22143599
2126 -0.19492072
2124 -0.16981003
2122 -0.20393911
2120 -0.24799456
2118 -0.30184773
2116 -0.3540723
2114 -0.38422999
2112 -0.41002753
2110 -0.43095964
2108 -0.44277462
2106 -0.42917737
2104 -0.3952567
2102 -0.32461637
2100 -0.2599746
2098 -0.21444032
2096 -0.20317
2094 -0.23290034
2092 -0.27253896
2090 -0.31626126
2088 -0.34416938
2086 -0.35878
2084 -0.35624501
2082 -0.34368318
2080 -0.32990608
2078 -0.31605288
2076 -0.32164428
2074 -0.33526546
2072 -0.3625164
2070 -0.39382756
2068 -0.43275222
2066 -0.47307616
2064 -0.50939393
2062 -0.54253274
2060 -0.55470133
2058 -0.56254232
2056 -0.56936342
2054 -0.5786556
2052 -0.59642839
2050 -0.61235738
2048 -0.61800051
2046 -0.61659467
2044 -0.60477662
2042 -0.59077907
2040 -0.57762349
2038 -0.5644989
2036 -0.55248588
2034 -0.54717052
2032 -0.54792678
2030 -0.56412166
2028 -0.59087616
2026 -0.60760581
2024 -0.61627841
2022 -0.59518391
2020 -0.55891043
2018 -0.5314185
2016 -0.50897598
2014 -0.51091671
2012 -0.5217489
2010 -0.52576303
2008 -0.52721465
2006 -0.51200342
2004 -0.49282789
2002 -0.4729926
2000 -0.45892286
1998 -0.46684346
1996 -0.4907257
1994 -0.54373676
1992 -0.60141766
1990 -0.65682763
1988 -0.68684679
1986 -0.67813933
1984 -0.64921933
1982 -0.60482347
1980 -0.57633656
1978 -0.5678699
1976 -0.56724715
1974 -0.56875908
1972 -0.53136629
1970 -0.46304268
1968 -0.37729749
1966 -0.2842702
1964 -0.25014707
1962 -0.24893226
1960 -0.28921482
1958 -0.34624848
1956 -0.40148228
1954 -0.45598
1952 -0.50641316
1950 -0.55462712
1948 -0.57803196
1946 -0.589845
1944 -0.58471733
1942 -0.57488263
1940 -0.58126926
1938 -0.59714872
1936 -0.62809741
1934 -0.65924853
1932 -0.67674458
1930 -0.68175834
1928 -0.66800201
1926 -0.6427635
1924 -0.60620999
1922 -0.56140488
1920 -0.51359737
1918 -0.4788222
1916 -0.46141243
1914 -0.46311453
1912 -0.47606909
1910 -0.51005608
1908 -0.55473369
1906 -0.62624872
1904 -0.71239084
1902 -0.7702536
1900 -0.8155573
1898 -0.78875679
1896 -0.73200715
1894 -0.64025527
1892 -0.539258
1890 -0.47485149
1888 -0.4415012
1886 -0.48910978
1884 -0.57807487
1882 -0.70295936
1880 -0.8278144
1878 -0.91857851
1876 -0.97383797
1874 -0.97705925
1872 -0.94010711
1870 -0.86367792
1868 -0.77533674
1866 -0.69739026
1864 -0.66989923
1862 -0.70142961
1860 -0.77520871
1858 -0.86961287
1856 -0.96160346
1854 -1.0440007
1852 -1.1029015
1850 -1.1434722
1848 -1.142316
1846 -1.1138393
1844 -1.0883706
1842 -1.0638666
1840 -1.0909001
1838 -1.1435269
1836 -1.1807414
1834 -1.203699
1832 -1.163868
1830 -1.0822581
1828 -0.95942718
1826 -0.82690656
1824 -0.73576206
1822 -0.69232106
1820 -0.71262962
1818 -0.76415706
1816 -0.81635427
1814 -0.85530156
1812 -0.8700704
1810 -0.86551547
1808 -0.84985662
1806 -0.81962049
1804 -0.77864414
1802 -0.75113845
1800 -0.73442626
1798 -0.72978628
1796 -0.73158145
1794 -0.67513305
1792 -0.58196038
1790 -0.45795119
1788 -0.32415381
1786 -0.23752378
1784 -0.18318424
1782 -0.14528471
1780 -0.11588746
1778 -0.064304873
1776 0.0021472294
1774 0.083468616
1772 0.163149
1770 0.18984109
1768 0.18058737
1766 0.1333525
1764 0.079554498
1762 0.061043836
1760 0.023085138
1758 -0.063006043
1756 -0.1277
1754 -0.13506225
1752 -0.055303283
1750 0.11246579
1748 0.27210313
1746 0.38979572
1744 0.37248045
1742 0.22662237
1740 0.083147503
1738 -0.032171451
1736 0.0026955977
1734 0.15676376
1732 0.28037119
1730 0.36459273
1728 0.27666754
1726 0.073696949
1724 -0.06828092
1722 -0.13441959
1720 0.02447091
1718 0.38184899
1716 0.95992732
1714 1.6460749
1712 2.2379868
1710 2.7633684
1708 3.2742641
1706 3.94192
1704 4.9407349
1702 6.5346837
1700 8.847928
1698 12.037899
1696 16.026285
1694 20.005041
1692 23.620411
1690 26.826488
1688 29.716011
1686 33.243721
1684 37.495884
1682 42.600178
1680 48.354721
1678 53.284641
1676 57.444759
1674 61.472519
1672 65.49926
1670 70.283318
1668 75.61525
1666 80.777199
1664 85.685631
1662 90.045029
1660 93.874054
1658 97.190125
1656 99.955139
1654 102.11539
1652 103.4954
1650 103.91153
1648 103.0804
1646 100.81375
1644 97.740509
1642 94.466934
1640 91.044563
1638 87.54528
1636 83.574913
1634 79.015503
1632 74.406555
1630 69.933357
1628 65.752327
1626 61.868233
1624 57.84544
1622 53.638073
1620 49.436104
1618 45.267693
1616 41.358829
1614 37.738125
1612 34.602264
1610 31.95579
1608 29.75209
1606 27.964165
1604 26.431297
1602 25.167925
1600 24.155582
1598 23.404558
1596 22.8925
1594 22.588844
1592 22.421268
1590 22.354668
1588 22.337471
1586 22.390272
1584 22.526035
1582 22.76392
1580 23.112032
1578 23.61549
1576 24.283257
1574 25.141613
1572 26.180624
1570 27.330528
1568 28.56864
1566 29.81465
1564 31.064905
1562 32.483948
1560 34.162693
1558 36.691986
1556 40.128059
1554 43.805771
1552 47.510342
1550 50.387634
1548 52.472237
1546 54.30114
1544 55.853291
1542 57.168026
1540 58.04118
1538 58.169876
1536 57.598915
1534 56.512836
1532 55.122547
1530 53.732155
1528 52.324589
1526 50.885902
1524 49.292953
1522 47.455639
1520 45.330612
1518 42.851631
1516 40.398659
1514 38.102806
1512 35.925278
1510 33.903351
1508 31.439655
1506 28.389635
1504 25.296526
1502 22.201473
1500 19.588333
1498 17.510889
1496 15.471143
1494 13.465463
1492 11.419662
1490 9.3445406
1488 7.2722073
1486 5.2754102
1484 3.4883099
1482 2.0020652
1480 0.9261573
1478 0.27438748
1476 0.050519731
1474 0.34745839
1472 1.1073498
1470 2.0669961
1468 3.0579462
1466 3.9113436
1464 4.5283685
1462 5.0467014
1460 5.5143638
1458 5.9760432
1456 6.4347
1454 6.7817721
1452 6.9345312
1450 6.9726024
1448 6.8454957
1446 6.6920357
1444 6.5042801
1442 6.302753
1440 6.0805559
1438 5.8086472
1436 5.4641886
1434 5.0001822
1432 4.4236512
1430 3.8272741
1428 3.2476799
1426 2.7925966
1424 2.4765933
1422 2.302392
1420 2.270489
1418 2.3549201
1416 2.5204656
1414 2.7281399
1412 2.9363725
1410 3.1363335
1408 3.3378484
1406 3.5560043
1404 3.803184
1402 4.0862408
1400 4.4046559
1398 4.772191
1396 5.1556358
1394 5.5499253
1392 5.875659
1390 6.0569282
1388 6.104856
1386 5.9384198
1384 5.6599112
1382 5.2346587
1380 4.7787471
1378 4.2998629
1376 3.8455458
1374 3.4420104
1372 3.095984
1370 2.8127728
1368 2.5804543
1366 2.3483822
1364 2.0413358
1362 1.658051
1360 1.1793054
1358 0.70294708
1356 0.33961484
1354 0.087414458
1352 0.01517952
1350 0.029308293
1348 0.12737486
1346 0.25740463
1344 0.42178959
1342 0.61527437
1340 0.86774743
1338 1.1319847
1336 1.4071885
1334 1.6551946
1332 1.8313328
1330 1.997672
1328 2.1518342
1326 2.3356786
1324 2.5770075
1322 2.8557751
1320 3.1915605
1318 3.5524735
1316 3.93536
1314 4.2998295
1312 4.6191158
1310 4.8567343
1308 5.0049725
1306 5.0670342
1304 5.0710592
1302 5.0449018
1300 5.010139
1298 4.9805641
1296 4.9561715
1294 4.9344997
1292 4.9128194
1290 4.8861704
1288 4.8649039
1286 4.857635
1284 4.863246
1282 4.895978
1280 4.9241824
1278 4.9403467
1276 4.9475341
1274 4.9438972
1272 4.9538579
1270 4.9921036
1268 5.0508938
1266 5.137898
1264 5.2379351
1262 5.3532705
1260 5.4848161
1258 5.6349039
1256 5.7993026
1254 5.9730201
1252 6.1413827
1250 6.2992172
1248 6.4327006
1246 6.5418501
1244 6.6048336
1242 6.6344357
1240 6.6080065
1238 6.5528927
1236 6.4553814
1234 6.3367162
1232 6.1761518
1230 5.9864721
1228 5.7157555
1226 5.4025321
1224 4.9730659
1222 4.5146074
1220 3.9891779
1218 3.468863
1216 2.9622202
1214 2.4843607
1212 2.0602658
1210 1.6790726
1208 1.3620051
1206 1.0852348
1204 0.8551982
1202 0.64335531
1200 0.44965947
1198 0.26484519
1196 0.092070788
1194 -0.057643346
1192 -0.18846241
1190 -0.29482651
1188 -0.38621432
1186 -0.46050522
1184 -0.51247507
1182 -0.49619749
1180 -0.42682266
1178 -0.20298657
1176 0.072569042
1174 0.47276169
1172 0.86922073
1170 1.2198646
1168 1.5268641
1166 1.6963636
1164 1.8217137
1162 1.837153
1160 1.822372
1158 1.7479168
1156 1.6617485
1154 1.5533668
1152 1.418352
1150 1.2415292
1148 1.0160074
1146 0.74245501
1144 0.48067182
1142 0.2445768
1140 0.097225763
1138 0.023900473
1136 0.034752656
1134 0.099763766
1132 0.23514263
1130 0.40472183
1128 0.61334276
1126 0.82666087
1124 1.0098048
1122 1.1739452
1120 1.265748
1118 1.3449479
1116 1.3926214
1114 1.4452097
1112 1.5208577
1110 1.6033512
1108 1.7070243
1106 1.81178
1104 1.9175342
1102 2.0122738
1100 2.0825129
1098 2.1248577
1096 2.1232858
1094 2.1069491
1092 2.075526
1090 2.064564
1088 2.0755851
1086 2.1054394
1084 2.1474316
1082 2.1721931
1080 2.1808891
1078 2.145159
1076 2.0862985
1074 2.0043697
1072 1.9201171
1070 1.8753636
1068 1.8431789
1066 1.8419156
1064 1.84144
1062 1.8182832
1060 1.7912232
1058 1.7450416
1056 1.6928514
1054 1.6152049
1052 1.5446625
1050 1.500054
1048 1.4921315
1046 1.5724071
1044 1.6620269
1042 1.7649674
1040 1.8359509
1038 1.8586463
1036 1.86045
1034 1.8385864
1032 1.8128023
1030 1.7836893
1028 1.7509906
1026 1.7132293
1024 1.6475217
1022 1.56268
1020 1.4331623
1018 1.2864776
1016 1.1430771
1014 1.0060178
1012 0.92776334
1010 0.86345381
1008 0.84297842
1006 0.82776213
1004 0.83033335
1002 0.8292948
1000 0.80146813
998 0.75494641
996 0.62629569
994 0.49228743
992 0.34270918
990 0.215597
988 0.13990945
986 0.072379388
984 0.020362645
982 -0.018221816
980 -0.035535268
978 -0.0034799799
976 0.079625912
974 0.17100056
972 0.26560745
970 0.30148911
968 0.30145714
966 0.2868875
964 0.26639068
962 0.25627434
960 0.24662234
958 0.18344033
956 0.10788144
954 0.016492806
952 -0.074211121
950 -0.10052535
948 -0.11742327
946 -0.037569538
944 0.0029831007
942 0.093285769
940 0.28676865
938 0.56146079
936 0.8102392
934 0.98185879
932 1.0889182
930 1.0584888
928 1.025025
926 0.98799884
924 1.0070521
922 1.0939772
920 1.1514143
918 1.1803232
916 1.1429957
914 1.058736
912 0.96829772
910 0.87522429
908 0.75675219
906 0.63011831
904 0.51666683
902 0.40830174
900 0.42274895
898 0.45747155
896 0.59135002
