##TITLE=Methyl Ethyl Ketone
##JCAMP-DX=4.24
##DATA TYPE=INFRARED SPECTRUM
##XUNITS=cm-1
##YUNITS=Absorbance
##FIRSTX=900
##LASTX=2300
##XYDATA=(X++(Y..Y))
2296 -0.07818
2294 -0.079840623
2292 -0.081502244
2290 -0.083162867
2288 -0.084823504
2286 -0.086485118
2284 -0.088145748
2282 -0.089807361
2280 -0.091467991
2278 -0.093128614
2276 -0.094790228
2274 -0.096454807
2272 -0.098112546
2270 -0.099761344
2268 -0.10143644
2266 -0.10314336
2264 -0.1047532
2262 -0.10624381
2260 -0.10807269
2258 -0.11036731
2256 -0.11142086
2254 -0.1107128
2252 -0.11464177
2250 -0.12512809
2248 -0.11835303
2246 -0.072538465
2244 -0.0026316084
2242 0.069543011
2240 0.13608372
2238 0.19650352
2236 0.26404741
2234 0.34785163
2232 0.42484143
2230 0.4697707
2228 0.48605335
2226 0.4847565
2224 0.47365606
2222 0.45951584
2220 0.44927448
2218 0.45212001
2216 0.48608372
2214 0.56612736
2212 0.68404317
2210 0.82283831
2208 0.95828295
2206 1.0683243
2204 1.1481743
2202 1.1991966
2200 1.2270896
2198 1.2381999
2196 1.2382499
2194 1.2332861
2192 1.2325296
2190 1.2453476
2188 1.2769465
2186 1.3308235
2184 1.4086159
2182 1.510164
2180 1.6292992
2178 1.7552295
2176 1.8661971
2174 1.9428777
2172 1.9896764
2170 2.021173
2168 2.0618784
2166 2.1331913
2164 2.230762
2162 2.341661
2160 2.4527075
2158 2.5522907
2156 2.63427
2154 2.6949563
2152 2.7324793
2150 2.7466695
2148 2.741014
2146 2.7207358
2144 2.6939747
2142 2.6705301
2140 2.6645346
2138 2.6888511
2136 2.7443457
2134 2.8267064
2132 2.9273577
2130 3.036798
2128 3.149164
2126 3.2592549
2124 3.3615422
2122 3.4515884
2120 3.5301824
2118 3.5982068
2116 3.646873
2114 3.6659372
2112 3.6526132
2110 3.610585
2108 3.5577514
2106 3.5140271
2104 3.4848304
2102 3.4701598
2100 3.4689162
2098 3.4805908
2096 3.5070143
2094 3.5478101
2092 3.5904779
2090 3.6212623
2088 3.6415918
2086 3.660805
2084 3.6953516
2082 3.7586904
2080 3.8415778
2078 3.9247913
2076 3.9869227
2074 4.0106568
2072 3.9971039
2070 3.9571028
2068 3.9112403
2066 3.8803
2064 3.872947
2062 3.8902233
2060 3.9237316
2058 3.9642448
2056 4.0140543
2054 4.0774088
2052 4.1473432
2050 4.2105584
2048 4.2496243
2046 4.2535644
2044 4.246376
2042 4.2626634
2040 4.3182435
2038 4.4129214
2036 4.5167112
2034 4.5938945
2032 4.638278
2030 4.6568403
2028 4.654891
2026 4.6344285
2024 4.5899172
2022 4.5187721
2020 4.4443884
2018 4.3987045
2016 4.4000397
2014 4.4530091
2012 4.5343542
2010 4.6129904
2008 4.6782637
2006 4.7308221
2004 4.7749939
2002 4.8135252
2000 4.8361464
1998 4.8297887
1996 4.7960429
1994 4.7480717
1992 4.7171588
1990 4.7369184
1988 4.8152919
1986 4.942843
1984 5.0899715
1982 5.2226138
1980 5.3257861
1978 5.3947215
1976 5.4278855
1974 5.4258232
1972 5.3949862
1970 5.347199
1968 5.306356
1966 5.2977295
1964 5.3296876
1962 5.3984585
1960 5.4862881
1958 5.5713134
1956 5.6412959
1954 5.689796
1952 5.7130475
1950 5.708693
1948 5.677947
1946 5.6275253
1944 5.5810871
1942 5.5653186
1940 5.583014
1938 5.6203389
1936 5.6491742
1934 5.6401525
1932 5.586256
1930 5.4930534
1928 5.3655539
1926 5.2104406
1924 5.0479851
1922 4.9085493
1920 4.8337102
1918 4.8588848
1916 4.9673672
1914 5.1128983
1912 5.2463479
1910 5.3299165
1908 5.372354
1906 5.4042249
1904 5.439208
1902 5.4739752
1900 5.4815922
1898 5.4304852
1896 5.3236427
1894 5.1861062
1892 5.0487285
1890 4.9394388
1888 4.8662014
1886 4.8243523
1884 4.8050022
1882 4.7975492
1880 4.7915316
1878 4.7736073
1876 4.7167501
1874 4.5921211
1872 4.3972263
1870 4.1563711
1868 3.9387293
1866 3.824805
1864 3.8325684
1862 3.9322741
1860 4.0596571
1858 4.1421967
1856 4.1444945
1854 4.0558858
1852 3.8678935
1850 3.5787525
1848 3.2215722
1846 2.8566
1844 2.5680993
1842 2.4338024
1840 2.4455485
1838 2.5348921
1836 2.6113286
1834 2.5933762
1832 2.4754179
1830 2.3066814
1828 2.1622546
1826 2.1139872
1824 2.1691663
1822 2.2888527
1820 2.41816
1818 2.5025558
1816 2.5129943
1814 2.4440548
1812 2.3192346
1810 2.1783555
1808 2.0585852
1806 1.9807601
1804 1.9101681
1802 1.7799277
1800 1.5446017
1798 1.1952286
1796 0.80277711
1794 0.48568371
1792 0.3424392
1790 0.42571136
1788 0.67039323
1786 0.94058692
1784 1.1342949
1782 1.1934783
1780 1.1082312
1778 0.90040159
1776 0.60270971
1774 0.26002112
1772 -0.044111945
1770 -0.21535714
1768 -0.23280336
1766 -0.13855797
1764 -0.0088603571
1762 0.068713948
1760 0.032907721
1758 -0.14347991
1756 -0.42844659
1754 -0.75993818
1752 -1.1221368
1750 -1.5295191
1748 -1.9551038
1746 -2.3392823
1744 -2.6364138
1742 -2.8230021
1740 -2.9074166
1738 -2.909981
1736 -2.8061001
1734 -2.5444167
1732 -2.1210649
1730 -1.5830259
1728 -1.0219858
1726 -0.5474757
1724 -0.22074401
1722 -0.049352355
1720 0.017811954
1718 0.081120446
1716 0.28820059
1714 0.77955496
1712 1.5172366
1710 2.3335154
1708 3.1273239
1706 3.8944664
1704 4.7369218
1702 5.8698316
1700 7.7001967
1698 10.655395
1696 14.586143
1694 18.86371
1692 22.88765
1690 26.26395
1688 29.120178
1686 31.991037
1684 35.409527
1682 39.696449
1680 44.486279
1678 48.96027
1676 52.793999
1674 56.212193
1672 59.658138
1670 63.591011
1668 68.057861
1666 72.742699
1664 77.327637
1662 81.573669
1660 85.333099
1658 88.532021
1656 91.141373
1654 93.175201
1652 94.720001
1650 95.910271
1648 96.838463
1646 97.529785
1644 97.911133
1642 97.822571
1640 97.052582
1638 95.387573
1636 92.757469
1634 89.263374
1632 85.198761
1630 80.958405
1628 76.706924
1626 72.376755
1624 67.914841
1622 63.347866
1620 58.80706
1618 54.493599
1616 50.534515
1614 46.967594
1612 43.811218
1610 41.07415
1608 38.726368
1606 36.702541
1604 34.944122
1602 33.407333
1600 32.057384
1598 30.868906
1596 29.8335
1594 28.960627
1592 28.268206
1590 27.77368
1588 27.470718
1586 27.322586
1584 27.270189
1582 27.24675
1580 27.226183
1578 27.237486
1576 27.365828
1574 27.733765
1572 28.408152
1570 29.372015
1568 30.52096
1566 31.683435
1564 32.722763
1562 33.599621
1560 34.512207
1558 35.85582
1556 37.858402
1554 40.462601
1552 43.276165
1550 45.674488
1548 47.361141
1546 48.447788
1544 49.058647
1542 49.254387
1540 49.16436
1538 48.990711
1536 48.843113
1534 48.698631
1532 48.456997
1530 47.96904
1528 47.120422
1526 45.863049
1524 44.221214
1522 42.304642
1520 40.322433
1518 38.545029
1516 37.087616
1514 35.842789
1512 34.543118
1510 32.828735
1508 30.534494
1506 27.777157
1504 24.851612
1502 22.146276
1500 19.829645
1498 17.778339
1496 15.810143
1494 13.766758
1492 11.603043
1490 9.4086876
1488 7.3201118
1486 5.4821162
1484 3.9823918
1482 2.8209975
1480 1.9188268
1478 1.1478341
1476 0.51239502
1474 0.18282574
1472 0.28200728
1470 0.80823803
1468 1.637794
1466 2.5383871
1464 3.3313422
1462 3.9433169
1460 4.3535218
1458 4.5917616
1456 4.7581601
1454 5.0110292
1452 5.411963
1450 5.8783445
1448 6.301209
1446 6.585268
1444 6.6789451
1442 6.5834751
1440 6.3005776
1438 5.8208041
1436 5.1518097
1434 4.3356686
1432 3.4643526
1430 2.6770597
1428 2.0640841
1426 1.6307635
1424 1.3477902
1422 1.1700091
1420 1.0865952
1418 1.1370963
1416 1.3595114
1414 1.7662771
1412 2.323014
1410 2.9406347
1408 3.5416155
1406 4.0832009
1404 4.5377851
1402 4.8903012
1400 5.136848
1398 5.2904196
1396 5.3924999
1394 5.5135989
1392 5.690537
1390 5.8981943
1388 6.0829239
1386 6.1746597
1384 6.1288972
1382 5.944612
1380 5.6277423
1378 5.183732
1376 4.6358175
1374 4.0357018
1372 3.448724
1370 2.9414647
1368 2.525908
1366 2.1336179
1364 1.7007809
1362 1.2071505
1360 0.69280648
1358 0.26855326
1356 0.011390612
1354 -0.082651846
1352 -0.054300904
1350 0.029350776
1348 0.11385512
1346 0.17397678
1344 0.189082
1342 0.14035186
1340 0.038272638
1338 -0.060431451
1336 -0.091378853
1334 -0.003235735
1332 0.20127051
1330 0.43996167
1328 0.63885909
1326 0.77011883
1324 0.83475095
1322 0.86357826
1320 0.88911724
1318 0.93491602
1316 1.019191
1314 1.1527556
1312 1.3334062
1310 1.5391001
1308 1.740766
1306 1.9070393
1304 2.0182412
1302 2.0772882
1300 2.0986779
1298 2.1074467
1296 2.1252713
1294 2.1628642
1292 2.2237689
1290 2.3040633
1288 2.4001441
1286 2.5115252
1284 2.637342
1282 2.7748132
1280 2.9205704
1278 3.0714381
1276 3.2266827
1274 3.389894
1272 3.5681593
1270 3.7731168
1268 4.016223
1266 4.3062973
1264 4.6482172
1262 5.0413494
1260 5.4855442
1258 5.9833441
1256 6.532403
1254 7.1193652
1252 7.7244921
1250 8.3226128
1248 8.9001875
1246 9.4685249
1244 10.043882
1242 10.637757
1240 11.240989
1238 11.806852
1236 12.283014
1234 12.626839
1232 12.809919
1230 12.828712
1228 12.685394
1226 12.385708
1224 11.93908
1222 11.369643
1220 10.70738
1218 9.9979401
1216 9.2782516
1214 8.5669632
1212 7.8734431
1210 7.1967607
1208 6.5379491
1206 5.9065137
1204 5.3094058
1202 4.7427697
1200 4.1958528
1198 3.6497903
1196 3.0913856
1194 2.5238354
1192 1.9597486
1190 1.423736
1188 0.94024128
1186 0.527933
1184 0.20119861
1182 -0.032841176
1180 -0.17365758
1178 -0.23220249
1176 -0.227486
1174 -0.18945968
1172 -0.14400472
1170 -0.10171055
1168 -0.064049654
1166 -0.02071413
1164 0.038121477
1162 0.11446659
1160 0.20449355
1158 0.29520985
1156 0.37008485
1154 0.41043702
1152 0.40505147
1150 0.36097652
1148 0.29001379
1146 0.2049768
1144 0.1193206
1142 0.047534965
1140 0.0051636044
1138 0.0093304813
1136 0.075338341
1134 0.2120751
1132 0.41656274
1130 0.66240162
1128 0.9279049
1126 1.215215
1124 1.5247279
1122 1.8383353
1120 2.133836
1118 2.3898442
1116 2.5969501
1114 2.7733264
1112 2.939249
1110 3.1040177
1108 3.2742968
1106 3.4562652
1104 3.6569018
1102 3.8842099
1100 4.1440783
1098 4.4350643
1096 4.7521715
1094 5.0848737
1092 5.4226804
1090 5.7580347
1088 6.0838475
1086 6.3915601
1084 6.6717029
1082 6.9131441
1080 7.1084523
1078 7.2614083
1076 7.3795943
1074 7.4738989
1072 7.5532365
1070 7.6207075
1068 7.6804066
1066 7.7426457
1064 7.8140678
1062 7.8858228
1060 7.9342537
1058 7.9074645
1056 7.7640514
1054 7.5122085
1052 7.1851034
1050 6.8510222
1048 6.5678029
1046 6.3398929
1044 6.1531906
1042 5.9790072
1040 5.7928314
1038 5.5930505
1036 5.3829498
1034 5.1639242
1032 4.9362478
1030 4.6978898
1028 4.4440203
1026 4.1644077
1024 3.8470478
1022 3.480124
1020 3.0620251
1018 2.6213937
1016 2.196357
1014 1.8295124
1012 1.5523617
1010 1.3580954
1008 1.221404
1006 1.0893797
1004 0.91101462
1002 0.66431481
1000 0.34885794
998 0.010051847
996 -0.30100715
994 -0.5515132
992 -0.72657418
990 -0.85389858
988 -0.96719337
986 -1.0853829
984 -1.2150623
982 -1.3345153
980 -1.4155079
978 -1.4322515
976 -1.3628114
974 -1.1968341
972 -0.93574083
970 -0.61044145
968 -0.26159257
966 0.062059253
964 0.32011208
962 0.50739092
960 0.62869823
958 0.69303149
956 0.70630914
954 0.66026866
952 0.55049884
950 0.39814174
948 0.23315164
946 0.094110928
944 0.021419309
942 0.053591624
940 0.20594421
938 0.41222149
936 0.59392428
934 0.70205301
932 0.7072621
930 0.62569284
928 0.4938224
926 0.38120151
924 0.34935862
922 0.39872172
920 0.50049508
918 0.57325351
916 0.55042458
914 0.47182834
912 0.39926472
910 0.37678781
908 0.42358333
906 0.47949722
904 0.48017174
902 0.42263901
900 0.32692066
898 0.24337079
896 0.22994
