##TITLE=Methyl Ethyl Ketone
##JCAMP-DX=4.24
##DATA TYPE=INFRARED SPECTRUM
##XUNITS=cm-1
##YUNITS=Absorbance
##FIRSTX=900
##LASTX=2300
##XYDATA=(X++(Y..Y))
2296 -0.047180999
2294 -0.048183564
2292 -0.049186133
2290 -0.050188698
2288 -0.051191263
2286 -0.052193828
2284 -0.053195402
2282 -0.05419796
2280 -0.055200525
2278 -0.056203093
2276 -0.057205658
2274 -0.058208223
2272 -0.059210788
2270 -0.060212374
2268 -0.06121492
2266 -0.062217485
2264 -0.063220054
2262 -0.064222611
2260 -0.065225184
2258 -0.066227749
2256 -0.067229345
2254 -0.068231881
2252 -0.069234446
2250 -0.070237011
2248 -0.071239576
2246 -0.072242141
2244 -0.0026846114
2242 0.10351702
2240 0.21432599
2238 0.27388787
2236 0.32580215
2234 0.27627763
2232 0.21511509
2230 0.056367785
2228 -0.096490286
2226 -0.16542199
2224 -0.19043921
2222 -0.034549616
2220 0.13664621
2218 0.32476106
2216 0.47301427
2214 0.53206539
2212 0.56573242
2210 0.56659126
2208 0.58505672
2206 0.62798607
2204 0.69098061
2202 0.77185351
2200 0.83713973
2198 0.88992792
2196 0.91776854
2194 0.93169212
2192 0.90479451
2190 0.86039406
2188 0.7675705
2186 0.6594063
2184 0.59515077
2182 0.54123074
2180 0.57576686
2178 0.62395769
2176 0.71437854
2174 0.81094414
2172 0.93357378
2170 1.0529872
2168 1.1398383
2166 1.2004771
2164 1.1770983
2162 1.1397372
2160 1.0879778
2158 1.051791
2156 1.0478599
2154 1.0329735
2152 0.99728036
2150 0.94829875
2148 0.88677257
2146 0.88039678
2144 0.92393172
2142 1.0203393
2140 1.14978
2138 1.2659117
2136 1.3729514
2134 1.4357696
2132 1.4803628
2130 1.4880443
2128 1.48444
2126 1.509115
2124 1.5404931
2122 1.614895
2120 1.6926571
2118 1.7041457
2116 1.6918515
2114 1.5730721
2112 1.4329576
2110 1.2672458
2108 1.1254046
2106 1.0667971
2104 1.0670577
2102 1.1699209
2100 1.30154
2098 1.4559543
2096 1.5999286
2094 1.7257951
2092 1.814164
2090 1.8664548
2088 1.8452177
2086 1.76788
2084 1.6862808
2082 1.6069911
2080 1.6267834
2078 1.6983699
2076 1.8015286
2074 1.9151802
2072 1.953644
2070 1.9673952
2068 1.9139649
2066 1.8432794
2064 1.7248782
2062 1.5976774
2060 1.4793723
2058 1.376866
2056 1.3524429
2054 1.3553666
2052 1.3999802
2050 1.446128
2048 1.4735017
2046 1.4906785
2044 1.4944839
2042 1.4998571
2040 1.5129303
2038 1.5172315
2036 1.5108415
2034 1.4749161
2032 1.4120662
2030 1.328992
2028 1.2329366
2026 1.1416186
2024 1.0540416
2022 0.99892056
2020 0.95994836
2018 0.95625842
2016 0.96722996
2014 0.96792126
2012 0.9657461
2010 0.93539113
2008 0.89959228
2006 0.88702166
2004 0.88723874
2002 0.93221605
2000 0.99211556
1998 1.0624614
1996 1.1238071
1994 1.1469662
1992 1.1284497
1990 1.0419347
1988 0.93966842
1986 0.84511542
1984 0.80481839
1982 0.83732843
1980 0.90606201
1978 0.99430746
1976 1.1044
1974 1.229129
1972 1.4325814
1970 1.692819
1968 1.8993949
1966 2.065433
1964 1.9795171
1962 1.7656668
1960 1.466892
1958 1.1388129
1956 0.95742017
1954 0.83484936
1952 0.85500485
1950 0.92070848
1948 0.96941906
1946 0.98939496
1944 0.88875049
1942 0.75084913
1940 0.63330758
1938 0.55652559
1936 0.57432085
1934 0.61222482
1932 0.62708157
1930 0.59482813
1928 0.49102628
1926 0.42178971
1924 0.41952008
1922 0.58861399
1920 0.92740655
1918 1.2567301
1916 1.5468857
1914 1.6563487
1912 1.6344914
1910 1.5677856
1908 1.4864354
1906 1.3572664
1904 1.204296
1902 1.0392255
1900 0.87169349
1898 0.87351376
1896 0.95044428
1894 1.1220336
1892 1.3094591
1890 1.364821
1888 1.3225812
1886 1.0891124
1884 0.77714658
1882 0.4454608
1880 0.15127172
1878 -0.0441317
1876 -0.14185129
1874 -0.13347645
1872 0.00062817335
1870 0.26478997
1868 0.54683083
1866 0.8138448
1864 0.89019024
1862 0.78176588
1860 0.55276603
1858 0.25359163
1856 -0.044441998
1854 -0.33473766
1852 -0.51952416
1850 -0.63972187
1848 -0.56480157
1846 -0.38765463
1844 -0.22554427
1842 -0.088817015
1840 -0.17023902
1838 -0.35424072
1836 -0.57099515
1834 -0.76416719
1832 -0.78978258
1830 -0.68756163
1828 -0.3847515
1826 -0.051026091
1824 0.15895343
1822 0.19058472
1820 -0.049975209
1818 -0.39176109
1816 -0.73868114
1814 -0.98447949
1812 -1.0880523
1810 -1.0637363
1808 -0.93774331
1806 -0.73681301
1804 -0.48795485
1802 -0.27409655
1800 -0.10930632
1798 -0.043050878
1796 -0.048930787
1794 -0.035665102
1792 0.0072503202
1790 0.11844011
1788 0.27916917
1786 0.43448502
1784 0.58761913
1782 0.70973253
1780 0.82745934
1778 1.0040504
1776 1.2224828
1774 1.4831034
1772 1.6698809
1770 1.5895729
1768 1.3076274
1766 0.86697197
1764 0.45895422
1762 0.2413861
1760 0.072145596
1758 -0.16267172
1756 -0.33961588
1754 -0.39967453
1752 -0.15568462
1750 0.40208814
1748 1.0800483
1746 1.7891357
1744 2.0952229
1742 2.0238247
1740 1.8273783
1738 1.5868471
1736 1.66222
1734 1.9762272
1732 2.0859907
1730 2.0210152
1728 1.4851502
1726 0.67950463
1724 0.097144268
1722 -0.22009961
1720 0.11304891
1718 1.0151516
1716 2.3983214
1714 3.8355207
1712 4.7705274
1710 5.3574781
1708 5.732852
1706 6.3213544
1704 7.48772
1702 9.5096931
1700 12.504403
1698 16.131159
1696 20.133858
1694 23.674021
1692 26.466208
1690 28.941978
1688 31.29093
1686 34.412766
1684 38.344456
1682 42.880684
1680 47.850601
1678 52.061218
1676 55.589672
1674 59.111008
1672 62.698059
1670 66.87352
1668 71.475815
1666 76.026306
1664 80.503593
1662 84.788116
1660 88.871773
1658 92.698357
1656 96.261948
1654 99.542007
1652 102.3254
1650 104.39018
1648 105.04646
1646 103.82036
1644 101.32354
1642 98.175423
1640 94.811813
1638 91.491928
1636 87.799744
1634 83.612305
1632 79.195755
1630 74.681793
1628 70.310272
1626 66.10569
1624 61.718918
1622 57.117424
1620 52.562477
1618 48.083633
1616 43.872257
1614 39.963886
1612 36.546135
1610 33.643898
1608 31.244263
1606 29.295979
1604 27.568523
1602 26.056248
1600 24.712978
1598 23.553444
1596 22.569
1594 21.771523
1592 21.152
1590 20.735321
1588 20.523651
1586 20.534506
1584 20.751446
1582 21.187689
1580 21.823557
1578 22.732395
1576 23.930885
1574 25.31863
1572 26.867811
1570 28.278713
1568 29.49052
1566 30.505951
1564 31.326643
1562 32.399738
1560 33.84309
1558 36.303123
1556 39.747814
1554 43.12809
1552 46.267887
1550 48.519115
1548 50.013916
1546 51.438644
1544 52.779602
1542 54.046791
1540 54.847939
1538 54.716419
1536 53.724659
1534 52.112118
1532 50.349136
1530 48.870304
1528 47.642776
1526 46.629601
1524 45.608982
1522 44.46143
1520 42.968079
1518 41.046539
1516 39.011971
1514 36.948395
1512 34.97868
1510 33.104675
1508 30.72221
1506 27.65885
1504 24.434601
1502 21.121065
1500 18.408983
1498 16.383869
1496 14.480143
1494 12.687424
1492 10.880135
1490 9.0703106
1488 7.3216147
1486 5.6352158
1484 3.984128
1482 2.4874141
1480 1.2691333
1478 0.43489903
1476 0.075996429
1474 0.23777267
1472 0.9374752
1470 1.723045
1468 2.3528719
1466 2.8317735
1464 3.1026475
1462 3.4188588
1460 3.8948655
1458 4.4922805
1456 5.2478199
1454 5.8064055
1452 6.0519085
1450 6.0823936
1448 5.8235559
1446 5.5290108
1444 5.1891294
1442 4.8830271
1440 4.6267805
1438 4.4549828
1436 4.3478584
1434 4.2026606
1432 3.9799964
1430 3.6455843
1428 3.26243
1426 2.9641166
1424 2.792084
1422 2.7776256
1420 2.8933759
1418 3.1178238
1416 3.4202344
1414 3.7853451
1412 4.1789241
1410 4.543921
1408 4.8832207
1406 5.1780143
1404 5.4560499
1402 5.7379012
1400 5.9862041
1398 6.1799297
1396 6.2895784
1394 6.2606635
1392 6.1747298
1390 6.014956
1388 5.8096251
1386 5.5339098
1384 5.1932693
1382 4.7717481
1380 4.358067
1378 3.9635112
1376 3.6301286
1374 3.3552966
1372 3.1249659
1370 2.940995
1368 2.7820287
1366 2.6261842
1364 2.4016104
1362 2.0813351
1360 1.6271188
1358 1.1290107
1356 0.68171442
1354 0.33131909
1352 0.14608735
1350 0.034586437
1348 -0.019302014
1346 -0.060676966
1344 -0.06105056
1342 -0.015748568
1340 0.1142577
1338 0.24344605
1336 0.36648285
1334 0.41599482
1332 0.36735877
1330 0.3131862
1328 0.27057737
1326 0.31343549
1324 0.47674835
1322 0.74135202
1320 1.1156305
1318 1.520898
1316 1.92744
1314 2.2500215
1312 2.4755983
1310 2.5792584
1308 2.5911994
1306 2.5390608
1304 2.4546447
1302 2.3711989
1300 2.2993133
1298 2.2678828
1296 2.2581143
1294 2.2810023
1292 2.2943003
1290 2.2664499
1288 2.2127402
1286 2.1091588
1284 2.0315158
1282 2.0362117
1280 2.0899973
1278 2.255523
1276 2.4512072
1274 2.701864
1272 2.9779823
1270 3.2881253
1268 3.5893276
1266 3.8716342
1264 4.1094527
1262 4.2978773
1260 4.4696937
1258 4.6328859
1256 4.8215399
1254 5.0475631
1252 5.3390007
1250 5.6917071
1248 6.1161051
1246 6.5781002
1244 7.053514
1242 7.5190625
1240 7.9387512
1238 8.3169518
1236 8.5994997
1234 8.8207703
1232 8.8985596
1230 8.9147062
1228 8.7757607
1226 8.5892344
1224 8.2759275
1222 7.9270315
1220 7.4953113
1218 7.0505691
1216 6.5803056
1214 6.1019773
1212 5.6041284
1210 5.0719976
1208 4.4961581
1206 3.9243395
1204 3.373138
1202 2.894649
1200 2.4880764
1198 2.1173196
1196 1.7660215
1194 1.3905283
1192 1.005816
1190 0.64016259
1188 0.29854637
1186 0.022393301
1184 -0.22524154
1182 -0.4431504
1180 -0.62875307
1178 -0.71220303
1176 -0.72548604
1174 -0.51194751
1172 -0.25892347
1170 0.094965905
1168 0.40819514
1166 0.59411395
1164 0.71085382
1162 0.6619001
1160 0.6123606
1158 0.57147169
1156 0.60033613
1154 0.7349484
1152 0.85208368
1150 0.92721725
1148 0.89035738
1146 0.73062783
1144 0.52701712
1142 0.29948211
1140 0.13624623
1138 0.031718917
1136 0.014918314
1134 0.055960394
1132 0.19668666
1130 0.39329025
1128 0.68195212
1126 1.0081422
1124 1.3980035
1122 1.7963016
1120 2.1801801
1118 2.5437787
1116 2.8058829
1114 3.0360098
1112 3.1391125
1110 3.2315798
1108 3.2944686
1106 3.3922751
1104 3.5788822
1102 3.8026924
1100 4.0963845
1098 4.3838401
1096 4.6558285
1094 4.8843622
1092 5.0653839
1090 5.2811012
1088 5.5520859
1086 5.9773521
1084 6.5174642
1082 7.0446591
1080 7.5302944
1078 7.7795548
1076 7.9049144
1074 7.9029202
1072 7.8660417
1070 7.8733625
1068 7.8908358
1066 7.9090343
1064 7.9220319
1062 7.8959303
1060 7.8945961
1058 8.0676327
1056 8.2855806
1054 8.6952248
1052 9.0596924
1050 9.2708454
1048 9.3667412
1046 9.1854925
1044 8.9702959
1042 8.6968079
1040 8.457406
1038 8.2666702
1036 8.0707598
1034 7.8659186
1032 7.6334472
1030 7.3733597
1028 7.0872808
1026 6.7828183
1024 6.4753122
1022 6.1636271
1020 5.8233848
1018 5.461441
1016 4.9799175
1014 4.4579315
1012 3.8431756
1010 3.211967
1008 2.5738239
1006 1.9451107
1004 1.4354284
1002 0.95386958
1000 0.6576196
998 0.3758958
996 0.15764736
994 -0.06274341
992 -0.28848651
990 -0.50453973
988 -0.6975379
986 -0.87796354
984 -1.0359229
982 -1.1674708
980 -1.260956
978 -1.2946483
976 -1.2646657
974 -1.203164
972 -1.117134
970 -1.0427676
968 -0.97425157
966 -0.87213552
964 -0.75315422
962 -0.59720546
960 -0.43232739
958 -0.33903536
956 -0.26423943
954 -0.26906365
952 -0.2814928
950 -0.24865738
948 -0.20694548
946 -0.068205856
944 0.0095663965
942 0.28894156
940 0.59397793
938 1.0063025
936 1.3954828
934 1.7148223
932 1.9734403
930 2.1025498
928 2.2064605
926 2.2711864
924 2.3787842
922 2.5392349
920 2.7789795
918 3.0920167
916 3.3851972
914 3.6637218
912 3.8746932
910 4.0502338
908 4.3636241
906 4.7291164
904 5.304903
902 5.9346972
900 6.6097512
898 7.2916355
896 7.9456
