##TITLE=Methyl Ethyl Ketone
##JCAMP-DX=4.24
##DATA TYPE=INFRARED SPECTRUM
##XUNITS=cm-1
##YUNITS=Absorbance
##FIRSTX=900
##LASTX=2300
##XYDATA=(X++(Y..Y))
2296 0.15216
2294 0.15532547
2292 0.15849094
2290 0.16165641
2288 0.16482188
2286 0.16798735
2284 0.17115283
2282 0.17432821
2280 0.17749378
2278 0.18064937
2276 0.18382457
2274 0.18699019
2272 0.19015566
2270 0.1933015
2268 0.19648619
2266 0.19969122
2264 0.20281845
2262 0.20582689
2260 0.20914438
2258 0.21288794
2256 0.21549629
2254 0.21650119
2252 0.22174092
2250 0.23292576
2248 0.22842313
2246 0.18567678
2244 0.10472205
2242 -0.0031383103
2240 -0.10649851
2238 -0.17479677
2236 -0.20330757
2234 -0.19878305
2232 -0.1842248
2230 -0.18203449
2228 -0.19352938
2226 -0.213462
2224 -0.23488377
2222 -0.25227138
2220 -0.26775345
2218 -0.28032747
2216 -0.26734856
2214 -0.2043763
2212 -0.086017996
2210 0.078455664
2208 0.24383727
2206 0.35953593
2204 0.39697546
2202 0.34433195
2200 0.2298108
2198 0.092362799
2196 -0.035164855
2194 -0.12852554
2192 -0.18991525
2190 -0.22864722
2188 -0.24928038
2186 -0.25418851
2184 -0.2437252
2182 -0.21912761
2180 -0.18802077
2178 -0.15443055
2176 -0.099435546
2174 0.00055117067
2172 0.1573634
2170 0.3680889
2168 0.58604193
2166 0.75451928
2164 0.83474123
2162 0.80631518
2160 0.69803911
2158 0.55529863
2156 0.42395598
2154 0.34104216
2152 0.30837092
2150 0.31179103
2148 0.32119456
2146 0.3057557
2144 0.25294182
2142 0.16321459
2140 0.063369095
2138 -0.014517801
2136 -0.054119341
2134 -0.050623875
2132 -0.022478135
2130 0.012072956
2128 0.069236636
2126 0.17154828
2124 0.31524396
2122 0.47551832
2120 0.58194453
2118 0.57071298
2116 0.47329515
2114 0.3574312
2112 0.29268143
2110 0.32728112
2108 0.4236604
2106 0.5166316
2104 0.56052566
2102 0.52846271
2100 0.43588078
2098 0.31626159
2096 0.21210286
2094 0.16351411
2092 0.1886766
2090 0.28873655
2088 0.4300116
2086 0.56893152
2084 0.67623067
2082 0.73172599
2080 0.72704238
2078 0.66085625
2076 0.54246229
2074 0.39196664
2072 0.2573688
2070 0.18883108
2068 0.19909172
2066 0.27510077
2064 0.36214149
2062 0.40028813
2060 0.37677142
2058 0.3065407
2056 0.23537143
2054 0.20991412
2052 0.23032734
2050 0.27321309
2048 0.30091867
2046 0.28255072
2044 0.23700081
2042 0.20208217
2040 0.20463035
2038 0.2565096
2036 0.33116141
2034 0.39297518
2032 0.43729463
2030 0.47395271
2028 0.51285458
2026 0.55682176
2024 0.58177733
2022 0.55869204
2020 0.48795566
2018 0.38739282
2016 0.289924
2014 0.22557093
2012 0.18653899
2010 0.14837369
2008 0.090389244
2006 0.00014715083
2004 -0.11149894
2002 -0.22571529
2000 -0.33478838
1998 -0.43768606
1996 -0.53689784
1994 -0.63484722
1992 -0.72808683
1990 -0.80675185
1988 -0.84581119
1986 -0.81764704
1984 -0.71380901
1982 -0.54451418
1980 -0.35849115
1978 -0.21353956
1976 -0.12921885
1974 -0.096403241
1972 -0.068344079
1970 0.005367348
1968 0.11730248
1966 0.22793873
1964 0.28815052
1962 0.25966027
1960 0.16234401
1958 0.043168202
1956 -0.061099432
1954 -0.12762088
1952 -0.16208023
1950 -0.18250188
1948 -0.19956891
1946 -0.21706499
1944 -0.22972931
1942 -0.22993477
1940 -0.21846594
1938 -0.20163149
1936 -0.18926029
1934 -0.1922071
1932 -0.21936961
1930 -0.27393758
1928 -0.33927268
1926 -0.38625064
1924 -0.37702632
1922 -0.28623366
1920 -0.15958178
1918 -0.073621869
1916 -0.07038644
1914 -0.15475687
1912 -0.26588559
1910 -0.3240166
1908 -0.3162635
1906 -0.27168027
1904 -0.2280044
1902 -0.21253103
1900 -0.20082697
1898 -0.14660686
1896 -0.03569201
1894 0.11665081
1892 0.25710496
1890 0.32152072
1888 0.28506663
1886 0.15519843
1884 -0.025826834
1882 -0.20276499
1880 -0.34186673
1878 -0.42547607
1876 -0.44445401
1874 -0.39486182
1872 -0.27971971
1870 -0.1146569
1868 0.045604568
1866 0.13097672
1864 0.10466053
1862 -0.035846449
1860 -0.23947123
1858 -0.43345612
1856 -0.58240086
1854 -0.68008721
1852 -0.73551697
1850 -0.76365769
1848 -0.77632678
1846 -0.78305215
1844 -0.79476243
1842 -0.82013685
1840 -0.85265529
1838 -0.87644845
1836 -0.87700957
1834 -0.84188581
1832 -0.75941706
1830 -0.62430376
1828 -0.45847434
1826 -0.30386409
1824 -0.21443908
1822 -0.23630065
1820 -0.35424802
1818 -0.51152939
1816 -0.64614832
1814 -0.70835745
1812 -0.69840473
1810 -0.64588583
1808 -0.56519586
1806 -0.459167
1804 -0.34118387
1802 -0.23491108
1800 -0.17135777
1798 -0.17109419
1796 -0.18968999
1794 -0.14871587
1792 -0.017041598
1790 0.18939832
1788 0.41162184
1786 0.57690388
1784 0.66307032
1782 0.69043237
1780 0.69979286
1778 0.73774815
1776 0.8341763
1774 0.99031478
1772 1.1351774
1770 1.1616986
1768 1.0231216
1766 0.7402069
1764 0.41888303
1762 0.18979791
1760 0.046873197
1758 -0.10116801
1756 -0.25156927
1754 -0.32547504
1752 -0.27286696
1750 -0.091940559
1748 0.14510247
1746 0.32627821
1744 0.38661498
1742 0.3250846
1740 0.24366428
1738 0.29080328
1736 0.50154603
1734 0.79834807
1732 1.0222497
1730 1.0002334
1728 0.71667778
1726 0.29576486
1724 -0.076874748
1722 -0.19772591
1720 0.08691822
1718 0.84120357
1716 1.9091743
1714 2.9929976
1712 3.900528
1710 4.5916014
1708 5.234282
1706 6.1340041
1704 7.5480208
1702 9.6417685
1700 12.435671
1698 15.79811
1696 19.384285
1694 22.745729
1692 25.681709
1690 28.279484
1688 30.921898
1686 34.159943
1684 38.363358
1682 43.589741
1680 49.278641
1678 54.537025
1676 59.177715
1674 63.668053
1672 68.414749
1670 73.560707
1668 78.764145
1666 83.375999
1664 87.095711
1662 89.996872
1660 92.221596
1658 93.89785
1656 95.102852
1654 95.866447
1652 96.2043
1650 96.115356
1648 95.545837
1646 94.431786
1644 92.866615
1642 91.06675
1640 89.140579
1638 87.055656
1636 84.687843
1634 81.882271
1632 78.617821
1630 74.989105
1628 71.020187
1626 66.66172
1624 61.92844
1622 56.931843
1620 51.885048
1618 47.056648
1616 42.607716
1614 38.582397
1612 35.013828
1610 31.93717
1608 29.334532
1606 27.135557
1604 25.265125
1602 23.662136
1600 22.307989
1598 21.223652
1596 20.4335
1594 19.949472
1592 19.755165
1590 19.808784
1588 20.07292
1586 20.523144
1584 21.149845
1582 21.969229
1580 23.051737
1578 24.51181
1576 26.429058
1574 28.809406
1572 31.527384
1570 34.349705
1568 37.104561
1566 39.721615
1564 42.201115
1562 44.628742
1560 47.258293
1558 50.398651
1556 53.829613
1554 56.796532
1552 58.763878
1550 59.621464
1548 59.638065
1546 59.338108
1544 58.932571
1542 58.224258
1540 56.947399
1538 54.919704
1536 52.308571
1534 49.619621
1532 47.211208
1530 45.167477
1528 43.403664
1526 41.712547
1524 39.900707
1522 37.840767
1520 35.531712
1518 33.110611
1516 30.767771
1514 28.683285
1512 26.83704
1510 24.98147
1508 22.884817
1506 20.434515
1504 17.751652
1502 15.179576
1500 12.935866
1498 11.01993
1496 9.3464565
1494 7.7957406
1492 6.3155384
1490 4.9375467
1488 3.6717474
1486 2.4895544
1484 1.4089206
1482 0.51600879
1480 -0.09120357
1478 -0.31335714
1476 -0.02527386
1474 0.89365667
1472 2.3710542
1470 4.1044559
1468 5.8275204
1466 7.4036174
1464 8.8259315
1462 10.213111
1460 11.671357
1458 13.229504
1456 14.7646
1454 15.99844
1452 16.74058
1450 16.972279
1448 16.777258
1446 16.318785
1444 15.726746
1442 15.0639
1440 14.371388
1438 13.676871
1436 12.979371
1434 12.249174
1432 11.48252
1430 10.723032
1428 10.033856
1426 9.4834394
1424 9.1090031
1422 8.896863
1420 8.8073378
1418 8.7835083
1416 8.7880945
1414 8.8197098
1412 8.9013462
1410 9.074317
1408 9.3531723
1406 9.705884
1404 10.077197
1402 10.395164
1400 10.59328
1398 10.621219
1396 10.452214
1394 10.08819
1392 9.5636845
1390 8.9461079
1388 8.299407
1386 7.6681299
1384 7.0831871
1382 6.559598
1380 6.0987988
1378 5.6835122
1376 5.2731428
1374 4.8030553
1372 4.2328501
1370 3.5708678
1368 2.8572617
1366 2.1598663
1364 1.5287809
1362 0.97754616
1360 0.51412541
1358 0.15109532
1356 -0.094353184
1354 -0.19876178
1352 -0.1329152
1350 0.13369974
1348 0.59907258
1346 1.2098029
1344 1.906148
1342 2.6341457
1340 3.3267293
1338 3.8955932
1336 4.2605886
1334 4.3704653
1332 4.2266936
1330 3.9053731
1328 3.4899602
1326 3.0474837
1324 2.6369116
1322 2.3070202
1320 2.0874274
1318 1.9748821
1316 1.93252
1314 1.8830941
1312 1.7596543
1310 1.5334028
1308 1.2137486
1306 0.85914916
1304 0.53097129
1302 0.27427518
1300 0.11486006
1298 0.052199457
1296 0.083394289
1294 0.21282957
1292 0.45242679
1290 0.82190013
1288 1.326812
1286 1.9413179
1284 2.6124701
1282 3.2542081
1280 3.7872262
1278 4.1639051
1276 4.3818798
1274 4.5066924
1272 4.6162481
1270 4.7775087
1268 5.0246334
1266 5.3368464
1264 5.6898441
1262 6.0777283
1260 6.5109739
1258 7.0217109
1256 7.6377115
1254 8.3685608
1252 9.2165575
1250 10.177328
1248 11.240618
1246 12.387
1244 13.586761
1242 14.7961
1240 15.9586
1238 16.996124
1236 17.824085
1234 18.353565
1232 18.51124
1230 18.261299
1228 17.59758
1226 16.563107
1224 15.228166
1222 13.701497
1220 12.113212
1218 10.617398
1216 9.3511887
1214 8.4005461
1212 7.8043957
1210 7.5282149
1208 7.5061312
1206 7.6430202
1204 7.835464
1202 7.9776988
1200 7.9699965
1198 7.7315617
1196 7.2232356
1194 6.4875164
1192 5.608777
1190 4.7154889
1188 3.9124978
1186 3.2298458
1184 2.6654532
1182 2.1879065
1180 1.7766217
1178 1.4477631
1176 1.21834
1174 1.0872637
1172 1.0403788
1170 1.0465714
1168 1.0823766
1166 1.148755
1164 1.2447848
1162 1.3515819
1160 1.4380599
1158 1.4584832
1156 1.3877286
1154 1.2546961
1152 1.1010405
1150 0.96533674
1148 0.8627646
1146 0.75808787
1144 0.61763567
1142 0.44021374
1140 0.2402491
1138 0.050523013
1136 -0.092801884
1134 -0.15824251
1132 -0.13563091
1130 -0.061764754
1128 0.024920091
1126 0.10907196
1124 0.18143775
1122 0.2345475
1120 0.2644684
1118 0.27540785
1116 0.2790083
1114 0.29924074
1112 0.35261789
1110 0.43008447
1108 0.51868892
1106 0.61104453
1104 0.70093775
1102 0.78253412
1100 0.85761517
1098 0.9471072
1096 1.0772285
1094 1.2751373
1092 1.56161
1090 1.9400717
1088 2.4068811
1086 2.949285
1084 3.5360174
1082 4.0929365
1080 4.5379801
1078 4.7981257
1076 4.8341713
1074 4.6927056
1072 4.4482746
1070 4.1933823
1068 3.9984877
1066 3.8640158
1064 3.7714281
1062 3.6990252
1060 3.6326275
1058 3.5809433
1056 3.5502458
1054 3.5250516
1052 3.4898081
1050 3.4446871
1048 3.3986816
1046 3.3754001
1044 3.3933339
1042 3.4472153
1040 3.5232947
1038 3.6004319
1036 3.6642399
1034 3.7242649
1032 3.7912457
1030 3.8617916
1028 3.9190695
1026 3.9168828
1024 3.8146703
1022 3.609535
1020 3.3172133
1018 2.9812369
1016 2.6457887
1014 2.3370514
1012 2.0710831
1010 1.8471168
1008 1.655648
1006 1.4729393
1004 1.2759905
1002 1.0566105
1000 0.81466383
998 0.56412226
996 0.32153642
994 0.10069334
992 -0.083617508
990 -0.21168873
988 -0.27109519
986 -0.27668878
984 -0.24859291
982 -0.20190227
980 -0.14343686
978 -0.05773861
976 0.061248459
974 0.17066026
972 0.22424702
970 0.20555986
968 0.12346825
966 0.046501949
964 0.038275171
962 0.095173664
960 0.18718857
958 0.25156319
956 0.23721844
954 0.16180311
952 0.063017756
950 -0.011279361
948 -0.028535485
946 -0.018448517
944 -0.007195048
942 0.0466135
940 0.20029205
938 0.50687015
936 0.97506404
934 1.456825
932 1.7821232
930 1.8457503
928 1.6194491
926 1.30115
924 1.117576
922 1.1920608
920 1.5748565
918 2.1377778
916 2.7265286
914 3.2583797
912 3.6828189
910 4.0069141
908 4.2472477
906 4.4036427
904 4.4792624
902 4.5075684
900 4.5234351
898 4.5358167
896 4.5475998
