##TITLE=Methyl Ethyl Ketone
##JCAMP-DX=4.24
##DATA TYPE=INFRARED SPECTRUM
##XUNITS=cm-1
##YUNITS=Absorbance
##FIRSTX=900
##LASTX=2300
##XYDATA=(X++(Y..Y))
2296 0.0068299002
2294 0.0069719963
2292 0.0071140933
2290 0.0072561898
2288 0.0073982868
2286 0.0075403834
2284 0.0076823812
2282 0.0078245765
2280 0.0079665752
2278 0.0081087686
2276 0.0082507692
2274 0.0083928639
2272 0.0085349604
2270 0.008677057
2268 0.0088191535
2266 0.0089611523
2264 0.0091032479
2262 0.0092454422
2260 0.0093874438
2258 0.0095296353
2256 0.0096716378
2254 0.0098137306
2252 0.0099558281
2250 0.010098312
2248 0.010240131
2246 0.010381929
2244 0.00038580285
2242 0.020717824
2240 0.057915721
2238 0.038178511
2236 0.00984025
2234 -0.056041092
2232 -0.12349232
2230 -0.16595206
2228 -0.20394011
2226 -0.21629649
2224 -0.22477058
2222 -0.22176187
2220 -0.21645369
2218 -0.20627333
2216 -0.19956143
2214 -0.20098813
2212 -0.20391999
2210 -0.20851129
2208 -0.19920366
2206 -0.17242549
2204 -0.13449183
2202 -0.086802512
2200 -0.037678283
2198 0.01207345
2196 0.071044289
2194 0.13525921
2192 0.20202988
2190 0.26973203
2188 0.30853581
2186 0.33793321
2184 0.3088648
2182 0.26648527
2180 0.1855448
2178 0.099396572
2176 0.048727226
2174 0.0059740273
2172 0.015762851
2170 0.03468059
2168 0.07717143
2166 0.13009261
2164 0.21243799
2162 0.2997416
2160 0.39229435
2158 0.46017724
2156 0.480398
2154 0.47648466
2152 0.44473016
2150 0.41886565
2148 0.40287361
2146 0.39053106
2144 0.38045943
2142 0.36316532
2140 0.34058067
2138 0.31020582
2136 0.27593571
2134 0.26267615
2132 0.258679
2130 0.31750673
2128 0.39617801
2126 0.47276714
2124 0.54840213
2122 0.58519745
2120 0.6178028
2118 0.68823224
2116 0.76215786
2114 0.82252628
2112 0.86165911
2110 0.81611836
2108 0.75015604
2106 0.65981668
2104 0.58004916
2102 0.53121287
2100 0.50406021
2098 0.50543082
2096 0.53231144
2094 0.58671927
2092 0.65262777
2090 0.72626638
2088 0.75974071
2086 0.75971597
2084 0.72518748
2082 0.67115939
2080 0.66078323
2078 0.67437541
2076 0.71223885
2074 0.75885516
2072 0.7327832
2070 0.68273234
2068 0.61300927
2066 0.53979707
2064 0.54489458
2062 0.56635636
2060 0.60712826
2058 0.6480509
2056 0.66913313
2054 0.68825895
2052 0.71184522
2050 0.73722816
2048 0.76196402
2046 0.7720207
2044 0.75226796
2042 0.70841771
2040 0.63947207
2038 0.5782299
2036 0.5351373
2034 0.51035857
2032 0.49957457
2030 0.48318511
2028 0.45861435
2026 0.43659735
2024 0.41577113
2022 0.39664158
2020 0.37749091
2018 0.35028028
2016 0.320968
2014 0.28666085
2012 0.2528176
2010 0.21432079
2008 0.17690264
2006 0.16033693
2004 0.15153985
2002 0.1533397
2000 0.15662783
1998 0.14554732
1996 0.13631429
1994 0.13789126
1992 0.14130864
1990 0.15145747
1988 0.1510268
1986 0.14070036
1984 0.12974119
1982 0.12083073
1980 0.11074032
1978 0.094072238
1976 0.06423603
1974 0.0207955
1972 -0.002435717
1970 -0.010150905
1968 0.015081394
1966 0.059826195
1964 0.066271074
1962 0.053824361
1960 -0.007163642
1958 -0.087270014
1956 -0.1699743
1954 -0.25101501
1952 -0.31038561
1950 -0.35499269
1948 -0.36368424
1946 -0.364005
1944 -0.37353736
1942 -0.40382105
1940 -0.46335572
1938 -0.52835524
1936 -0.57613117
1934 -0.60186791
1932 -0.60575759
1930 -0.59255224
1928 -0.57447654
1926 -0.52309138
1924 -0.43750134
1922 -0.31006795
1920 -0.14044967
1918 -0.0094946306
1916 0.089443862
1914 0.1210071
1912 0.1057061
1910 0.06264402
1908 0.0038399724
1906 -0.075483352
1904 -0.16263999
1902 -0.23099256
1900 -0.2866219
1898 -0.29731965
1896 -0.28739715
1894 -0.26299664
1892 -0.23932657
1890 -0.2412385
1888 -0.26528406
1886 -0.32274014
1884 -0.39965475
1882 -0.49363109
1880 -0.58268094
1878 -0.65534073
1876 -0.67812896
1874 -0.63979566
1872 -0.53236055
1870 -0.36328059
1868 -0.20787284
1866 -0.069072373
1864 -0.011547165
1862 -0.012772879
1860 -0.035714708
1858 -0.073381528
1856 -0.099585429
1854 -0.12444628
1852 -0.09435869
1850 -0.037102707
1848 0.080737606
1846 0.22036141
1844 0.24666688
1842 0.20036946
1840 0.024131361
1838 -0.20016077
1836 -0.37905529
1834 -0.50704968
1832 -0.54241127
1830 -0.5178265
1828 -0.40713814
1826 -0.28747094
1824 -0.19536269
1822 -0.16244221
1820 -0.2343922
1818 -0.33424473
1816 -0.43697485
1814 -0.48768935
1812 -0.47351214
1810 -0.43167546
1808 -0.37623399
1806 -0.30545351
1804 -0.22023615
1802 -0.047865547
1800 0.19064549
1798 0.46972558
1796 0.7662943
1794 0.89108258
1792 0.90501159
1790 0.74456912
1788 0.49905494
1786 0.32276893
1784 0.20430857
1782 0.1647651
1780 0.18741031
1778 0.28619501
1776 0.42774943
1774 0.57418579
1772 0.65127403
1770 0.56224954
1768 0.37240389
1766 0.16513102
1764 0.0236094
1762 -0.0056237825
1760 0.018782742
1758 -0.042552385
1756 -0.14029817
1754 -0.2197023
1752 -0.18171944
1750 -0.022833731
1748 0.18409044
1746 0.4130168
1744 0.49201098
1742 0.44841695
1740 0.37091795
1738 0.2779831
1736 0.25375998
1734 0.26682416
1732 0.16390944
1730 -0.017645374
1728 -0.25675556
1726 -0.48794386
1724 -0.53060246
1722 -0.38185349
1720 0.0018266886
1718 0.54245543
1716 1.3499514
1714 2.2674501
1712 3.1097841
1710 3.9258153
1708 4.7185202
1706 5.7096109
1704 7.0512958
1702 8.9508314
1700 11.510675
1698 14.539696
1696 17.926714
1694 21.065939
1692 23.729897
1690 26.160755
1688 28.444805
1686 31.287865
1684 34.729328
1682 38.679108
1680 43.023041
1678 46.811871
1676 50.099869
1674 53.320839
1672 56.533104
1670 60.202591
1668 64.203407
1666 68.20105
1664 72.154755
1662 75.862076
1660 79.327339
1658 82.495796
1656 85.452347
1654 88.310043
1652 91.038361
1650 93.626968
1648 95.511604
1646 96.323502
1644 96.247177
1642 95.497086
1640 94.219017
1638 92.527321
1636 90.126373
1634 87.007614
1632 83.519928
1630 79.851517
1628 76.233902
1626 72.692535
1624 68.907158
1622 64.855965
1620 60.710415
1618 56.502655
1616 52.402401
1614 48.449574
1612 44.841057
1610 41.61607
1608 38.827965
1606 36.454052
1604 34.360165
1602 32.546551
1600 30.971949
1598 29.636705
1596 28.494999
1594 27.531784
1592 26.709137
1590 26.033588
1588 25.498169
1586 25.142729
1584 24.966927
1582 24.99383
1580 25.204075
1578 25.645796
1576 26.329514
1574 27.172884
1572 28.167791
1570 29.128546
1568 30.0224
1566 30.911272
1564 31.800724
1562 32.918213
1560 34.332687
1558 36.397442
1556 39.049828
1554 41.568802
1552 43.851154
1550 45.480316
1548 46.568489
1546 47.577358
1544 48.542355
1542 49.581268
1540 50.449001
1538 50.932068
1536 50.923431
1534 50.353401
1532 49.548023
1530 48.73941
1528 47.951103
1526 47.2034
1524 46.351715
1522 45.337509
1520 43.931931
1518 42.078529
1516 40.108459
1514 38.10471
1512 36.25668
1510 34.556114
1508 32.389549
1506 29.589214
1504 26.626463
1502 23.572952
1500 20.976706
1498 18.889181
1496 16.807858
1494 14.698332
1492 12.513609
1490 10.261946
1488 8.0602388
1486 5.9623942
1484 4.0409021
1482 2.4317088
1480 1.2072196
1478 0.4050042
1476 0.098702446
1474 0.30789629
1472 0.91573137
1470 1.562897
1468 2.0914676
1466 2.6101835
1464 3.1168365
1462 3.7250359
1460 4.4892302
1458 5.182478
1456 5.7354798
1454 5.9738908
1452 5.7951269
1450 5.5281701
1448 5.1749516
1446 4.8285966
1444 4.4896216
1442 4.1807609
1440 3.901684
1438 3.6648092
1436 3.42208
1434 3.0910532
1432 2.638128
1430 2.1032302
1428 1.571396
1426 1.1693461
1424 0.94001716
1422 0.89391774
1420 0.96753281
1418 1.1092803
1416 1.2682343
1414 1.40979
1412 1.6085804
1410 1.8769135
1408 2.2233927
1406 2.6614308
1404 3.12358
1402 3.6218724
1400 4.097116
1398 4.5359206
1396 4.9022141
1394 5.1525044
1392 5.287766
1390 5.2729969
1388 5.1869349
1386 5.0074353
1384 4.8103881
1382 4.5949211
1380 4.4044714
1378 4.2333012
1376 4.0709486
1374 3.8761373
1372 3.6274281
1370 3.3214512
1368 2.9671874
1366 2.5903373
1364 2.1891291
1362 1.7606089
1360 1.3200504
1358 0.89725602
1356 0.54046869
1354 0.26818472
1352 0.10129015
1350 0.0070672845
1348 -0.0075408276
1346 -0.0044636056
1344 0.10204736
1342 0.25388852
1340 0.47020763
1338 0.65800577
1336 0.7902357
1334 0.82503855
1332 0.74494404
1330 0.6484704
1328 0.5471167
1326 0.51329041
1324 0.56066525
1322 0.69105232
1320 0.90355521
1318 1.1575526
1316 1.4305201
1314 1.6599374
1312 1.8366989
1310 1.910645
1308 1.9147455
1306 1.8572236
1304 1.7819394
1302 1.742236
1300 1.7308812
1298 1.7735909
1296 1.8312
1294 1.8985196
1292 1.9740726
1290 2.0739806
1288 2.190464
1286 2.3463178
1284 2.4978542
1282 2.6382177
1280 2.7608337
1278 2.8488305
1276 2.9454656
1274 3.054955
1272 3.1979525
1270 3.3911719
1268 3.6139052
1266 3.8878093
1264 4.1968246
1262 4.5633574
1260 4.9771881
1258 5.4417968
1256 5.9319
1254 6.4464407
1252 6.9769211
1250 7.5274572
1248 8.1110535
1246 8.7134504
1244 9.3343801
1242 9.9505453
1240 10.534777
1238 11.080173
1236 11.525186
1234 11.897562
1232 12.089
1230 12.20363
1228 12.124132
1226 12.004908
1224 11.781178
1222 11.526788
1220 11.197075
1218 10.81391
1216 10.323852
1214 9.7847939
1212 9.1654034
1210 8.5320883
1208 7.8858662
1206 7.2642274
1204 6.6757598
1202 6.1101723
1200 5.5620341
1198 5.0023503
1196 4.433814
1194 3.8659546
1192 3.3138738
1190 2.826216
1188 2.3908558
1186 2.0564635
1184 1.7691069
1182 1.5397559
1180 1.3315842
1178 1.1524904
1176 0.99588001
1174 0.91200364
1172 0.85221845
1170 0.87241369
1168 0.89722186
1166 0.93898749
1164 0.97546792
1162 0.99948519
1160 1.0248537
1158 1.0492387
1156 1.0572273
1154 1.0289618
1152 0.94110596
1150 0.76973873
1148 0.55911762
1146 0.3178125
1144 0.12990572
1142 0.0059291665
1140 -0.015183631
1138 0.040848464
1136 0.15024486
1134 0.2918379
1132 0.49856937
1130 0.74430788
1128 1.0619612
1126 1.4063165
1124 1.7850163
1122 2.1720681
1120 2.5723038
1118 2.9765475
1116 3.3959329
1114 3.8070798
1112 4.1797953
1110 4.5155048
1108 4.7317834
1106 4.9100499
1104 5.0009522
1102 5.1262779
1100 5.3272815
1098 5.6051207
1096 6.0008283
1094 6.4098625
1092 6.8300343
1090 7.2116899
1088 7.5534363
1086 7.8711329
1084 8.1693802
1082 8.4623489
1080 8.7458286
1078 8.9903364
1076 9.2048683
1074 9.3318377
1072 9.4240189
1070 9.4655781
1068 9.4962044
1066 9.5230427
1064 9.5431519
1062 9.5147943
1060 9.4757223
1058 9.3833685
1056 9.2825623
1054 9.1425314
1052 8.9695005
1050 8.6881008
1048 8.3657894
1046 7.9463644
1044 7.5279121
1042 7.1166925
1040 6.7495723
1038 6.450798
1036 6.1963596
1034 5.9908986
1032 5.7817111
1030 5.5629826
1028 5.2930579
1026 4.9817634
1024 4.6104813
1022 4.2067909
1020 3.7867422
1018 3.3642492
1016 2.9760628
1014 2.600621
1012 2.2649903
1010 1.9379132
1008 1.6341081
1006 1.3314015
1004 1.0199945
1002 0.707371
1000 0.38807094
998 0.078514367
996 -0.18743856
994 -0.43951941
992 -0.6480757
990 -0.86363018
988 -1.0944617
986 -1.3231864
984 -1.5463428
982 -1.7138233
980 -1.802662
978 -1.7940865
976 -1.6768342
974 -1.4228702
972 -1.0556784
970 -0.60554093
968 -0.10966367
966 0.32171002
964 0.71583229
962 0.95292497
960 1.1305664
958 1.1038089
956 1.0279367
954 0.81372041
952 0.58391839
950 0.37485093
948 0.17418733
946 0.079909392
944 0.0
942 -0.0010464676
940 -0.030519634
938 0.012213871
936 0.072443202
934 0.18321835
932 0.29973638
930 0.42803425
928 0.53599322
926 0.61035883
924 0.64184624
922 0.62069446
920 0.59998024
918 0.5812211
916 0.62772024
914 0.72002196
912 0.75943983
910 0.76821595
908 0.69561923
906 0.58964592
904 0.6634264
902 0.78213006
900 1.0175246
898 1.2706529
896 1.4474
