##TITLE=Methyl Ethyl Ketone
##JCAMP-DX=4.24
##DATA TYPE=INFRARED SPECTRUM
##XUNITS=cm-1
##YUNITS=Absorbance
##FIRSTX=900
##LASTX=2300
##XYDATA=(X++(Y..Y))
2296 -0.030738
2294 -0.031378083
2292 -0.032017171
2290 -0.03265626
2288 -0.033296339
2286 -0.033935428
2284 -0.034575507
2282 -0.035214599
2280 -0.035853688
2278 -0.03649376
2276 -0.037132859
2274 -0.037772927
2272 -0.038412031
2270 -0.039051112
2268 -0.03969118
2266 -0.040330287
2264 -0.040969372
2262 -0.041609433
2260 -0.042248543
2258 -0.042888604
2256 -0.043527711
2254 -0.0441668
2252 -0.044806853
2250 -0.045445971
2248 -0.04608506
2246 -0.046725109
2244 -0.0017363543
2242 0.040603049
2240 0.083343036
2238 0.039685857
2236 -0.016800556
2234 -0.13298921
2232 -0.25341365
2230 -0.37315851
2228 -0.49247715
2226 -0.60913551
2224 -0.72304076
2222 -0.82531911
2220 -0.89481944
2218 -0.86653596
2216 -0.78570461
2214 -0.6020956
2212 -0.43241081
2210 -0.29532945
2208 -0.22707097
2206 -0.24212922
2204 -0.29666626
2202 -0.38410595
2200 -0.46913376
2198 -0.55073571
2196 -0.59750146
2194 -0.62435776
2192 -0.61099201
2190 -0.58060879
2188 -0.58202219
2186 -0.59412509
2184 -0.69193238
2182 -0.80928338
2180 -0.90406007
2178 -0.99393535
2176 -0.97356856
2174 -0.93978506
2172 -0.86888123
2170 -0.79865283
2168 -0.75258273
2166 -0.73005617
2164 -0.78494829
2162 -0.87418997
2160 -1.0316113
2158 -1.1774958
2156 -1.28845
2154 -1.3629087
2152 -1.3899269
2150 -1.4182653
2148 -1.4537625
2146 -1.4822429
2144 -1.5038309
2142 -1.485363
2140 -1.4397042
2138 -1.3853297
2136 -1.3276399
2134 -1.3283396
2132 -1.3535786
2130 -1.4455599
2128 -1.557996
2126 -1.6287193
2124 -1.6894917
2122 -1.6451453
2120 -1.5843811
2118 -1.5258124
2116 -1.4698614
2114 -1.4305969
2112 -1.3856721
2110 -1.304332
2108 -1.2235429
2106 -1.1608564
2104 -1.1204292
2102 -1.1235697
2100 -1.148808
2098 -1.2004366
2096 -1.2725857
2094 -1.3666465
2092 -1.4613446
2090 -1.5533923
2088 -1.6365469
2086 -1.712195
2084 -1.7750779
2082 -1.8300457
2080 -1.8440509
2078 -1.8371638
2076 -1.8087286
2074 -1.7723988
2072 -1.7181159
2070 -1.6583341
2068 -1.4811715
2066 -1.274855
2064 -1.0181543
2062 -0.76681846
2060 -0.66530401
2058 -0.61350089
2056 -0.67241144
2054 -0.7453711
2052 -0.79197061
2050 -0.82043362
2048 -0.81766951
2046 -0.82889783
2044 -0.88029778
2042 -0.97312182
2040 -1.1150209
2038 -1.254045
2036 -1.3761001
2034 -1.4368107
2032 -1.4413183
2030 -1.39089
2028 -1.306286
2026 -1.2321771
2024 -1.1692097
2022 -1.152796
2020 -1.1602103
2018 -1.214473
2016 -1.28628
2014 -1.3816557
2012 -1.4829099
2010 -1.5427288
2008 -1.5903697
2006 -1.63229
2004 -1.6752062
2002 -1.7400739
2000 -1.7977983
1998 -1.8069386
1996 -1.7918428
1994 -1.7442937
1992 -1.7104583
1990 -1.7194034
1988 -1.754566
1986 -1.8092357
1984 -1.8491892
1982 -1.8624076
1980 -1.8413134
1978 -1.7916518
1976 -1.6835743
1974 -1.529097
1972 -1.2892658
1970 -0.99277204
1968 -0.7246452
1966 -0.48086271
1964 -0.45750582
1962 -0.54635328
1960 -0.76335156
1958 -1.0293719
1956 -1.2031986
1954 -1.3388124
1952 -1.390408
1950 -1.4136145
1948 -1.4462514
1946 -1.489625
1944 -1.5695194
1942 -1.6651223
1940 -1.7519672
1938 -1.8244814
1936 -1.8608943
1934 -1.8900877
1932 -1.9349999
1930 -1.9797586
1928 -2.0257194
1926 -1.9646021
1924 -1.7685066
1922 -1.4310327
1920 -0.97443563
1918 -0.64121342
1916 -0.43699586
1914 -0.43013626
1912 -0.5525232
1910 -0.68957591
1908 -0.82266903
1906 -0.99003154
1904 -1.17504
1902 -1.336048
1900 -1.4824423
1898 -1.4395899
1896 -1.3152286
1894 -1.1156982
1892 -0.91257334
1890 -0.87078148
1888 -0.93641096
1886 -1.1842626
1884 -1.4966006
1882 -1.7956417
1880 -2.0379612
1878 -2.165957
1876 -2.1781499
1874 -2.0641406
1872 -1.8256069
1870 -1.4706627
1868 -1.1779814
1866 -0.99124265
1864 -1.0535157
1862 -1.3311449
1860 -1.6383811
1858 -1.9282787
1856 -2.0689116
1854 -2.1042435
1852 -2.00225
1850 -1.8281437
1848 -1.583032
1846 -1.3104286
1844 -1.2075611
1842 -1.2065517
1840 -1.4196401
1838 -1.7205349
1836 -1.9600443
1834 -2.1228631
1832 -2.0773063
1830 -1.8892982
1828 -1.51054
1826 -1.115602
1824 -0.86502159
1822 -0.80159259
1820 -1.0115308
1818 -1.3148932
1816 -1.6130171
1814 -1.8153998
1812 -1.8905692
1810 -1.876094
1808 -1.7996583
1806 -1.654435
1804 -1.4547571
1802 -1.2269273
1800 -0.99352604
1798 -0.80780542
1796 -0.66365498
1794 -0.51358283
1792 -0.34490079
1790 -0.19974478
1788 -0.060078703
1786 -0.017050689
1784 -0.021226194
1782 -0.011324152
1780 0.0379261
1778 0.26162454
1776 0.59333396
1774 0.98620617
1772 1.2801929
1770 1.2075263
1768 0.89841318
1766 0.46883708
1764 0.1473546
1762 0.12589255
1760 0.06333223
1758 -0.090559259
1756 -0.23120642
1754 -0.37058994
1752 -0.22718549
1750 0.2511946
1748 0.93027437
1746 1.7215357
1744 2.105756
1742 2.0926251
1740 1.911144
1738 1.6508114
1736 1.7656
1734 2.1658599
1732 2.3643572
1730 2.3822365
1728 1.7986566
1726 0.86317539
1724 0.1544221
1722 -0.25678912
1720 0.12118781
1718 1.1824011
1716 2.8554101
1714 4.6166849
1712 5.7739959
1710 6.4983282
1708 6.93291
1706 7.5561218
1704 8.7762489
1702 10.869132
1700 13.949663
1698 17.580214
1696 21.474001
1694 24.81636
1692 27.348715
1690 29.672651
1688 32.004852
1686 35.223049
1684 39.331402
1682 43.886681
1680 48.721478
1678 52.738979
1676 56.044544
1674 59.486347
1672 63.09914
1670 67.224365
1668 71.701065
1666 76.015602
1664 80.206223
1662 84.314209
1660 88.329491
1658 92.19278
1656 95.868713
1654 99.284599
1652 102.2002
1650 104.37943
1648 105.09183
1646 103.85429
1644 101.34194
1642 98.19722
1640 94.871826
1638 91.62645
1636 87.940971
1634 83.658943
1632 79.093864
1630 74.403893
1628 70.052406
1626 66.08548
1624 62.09156
1622 58.005154
1620 53.873135
1618 49.710922
1616 45.635941
1614 41.687138
1612 38.081055
1610 34.860149
1608 32.105972
1606 29.784885
1604 27.724787
1602 25.947269
1600 24.453766
1598 23.287027
1596 22.459999
1594 21.921146
1592 21.566235
1590 21.32844
1588 21.130512
1586 21.030651
1584 21.054892
1582 21.268379
1580 21.683605
1578 22.369274
1576 23.341658
1574 24.539955
1572 25.951488
1570 27.31308
1568 28.572279
1566 29.765436
1564 30.899714
1562 32.387733
1560 34.327328
1558 37.071224
1556 40.522171
1554 43.537678
1552 45.997971
1550 47.680157
1548 48.746876
1546 49.883286
1544 51.067204
1542 52.248409
1540 53.025558
1538 52.926815
1536 52.015884
1534 50.509903
1532 48.881645
1530 47.542797
1528 46.430504
1526 45.486301
1524 44.439846
1522 43.145363
1520 41.401886
1518 39.14082
1516 36.861588
1514 34.716766
1512 32.820881
1510 31.185322
1508 29.08441
1506 26.335743
1504 23.360468
1502 20.218487
1500 17.628025
1498 15.674701
1496 13.866858
1494 12.192535
1492 10.512394
1490 8.8086615
1488 7.0766611
1486 5.3220663
1484 3.5651221
1482 1.9841638
1480 0.78892428
1478 0.093609445
1476 0.026050672
1474 0.52614236
1472 1.4645114
1470 2.3957109
1468 3.0273261
1466 3.5086999
1464 3.8622634
1462 4.3804226
1460 5.2197394
1458 6.1484113
1456 7.1378403
1454 7.6888013
1452 7.5771961
1450 7.2174993
1448 6.549181
1446 5.903275
1444 5.2931538
1442 4.7521019
1440 4.3177552
1438 4.0504045
1436 3.9500616
1434 3.8852959
1432 3.8014731
1430 3.5781429
1428 3.2786639
1426 3.0390649
1424 2.9387445
1422 3.0713735
1420 3.3629415
1418 3.7305884
1416 4.0285568
1414 4.101306
1412 4.0838342
1410 4.0236592
1408 4.0547419
1406 4.2801299
1404 4.6205459
1402 5.1167369
1400 5.6398797
1398 6.1810732
1396 6.6316929
1394 6.9189978
1392 7.0499229
1390 6.9488521
1388 6.7562623
1386 6.4304099
1384 6.0446959
1382 5.5847859
1380 5.1352558
1378 4.7133899
1376 4.3810945
1374 4.1324029
1372 3.935132
1370 3.780508
1368 3.621495
1366 3.4623437
1364 3.273164
1362 3.0124369
1360 2.6262147
1358 2.1429739
1356 1.5708656
1354 1.0136274
1352 0.54282415
1350 0.1624282
1348 -0.071693659
1346 -0.20024785
1344 -0.12159648
1342 0.074545622
1340 0.4700551
1338 0.84008819
1336 1.1427171
1334 1.2992793
1332 1.2384605
1330 1.156253
1328 1.0682034
1326 1.0934778
1324 1.2864037
1322 1.6472973
1320 2.1982548
1318 2.8168919
1316 3.44082
1314 3.8763652
1312 4.1003513
1310 4.0933709
1308 3.9424965
1306 3.7805099
1304 3.6447189
1302 3.596302
1300 3.5861852
1298 3.5910358
1296 3.5893142
1294 3.56814
1292 3.5445077
1290 3.5318539
1288 3.527364
1286 3.54339
1284 3.564976
1282 3.6024187
1280 3.6381063
1278 3.6737964
1276 3.7234015
1274 3.801491
1272 3.9342937
1270 4.1557026
1268 4.4218531
1266 4.7450943
1264 5.0446057
1262 5.3190217
1260 5.578104
1258 5.8367801
1256 6.1486225
1254 6.5141296
1252 6.9269996
1250 7.3735867
1248 7.8334894
1246 8.2953758
1244 8.7486086
1242 9.1805573
1240 9.557868
1238 9.8920183
1236 10.132643
1234 10.316278
1232 10.36712
1230 10.354727
1228 10.179129
1226 9.9592009
1224 9.6235275
1222 9.2683105
1220 8.8658361
1218 8.4418964
1216 7.9714055
1214 7.4604521
1212 6.8777337
1210 6.2563004
1208 5.5839043
1206 4.9092374
1204 4.2466259
1202 3.6460853
1200 3.1247337
1198 2.7136593
1196 2.3974357
1194 2.1538327
1192 1.9473474
1190 1.7240061
1188 1.4887027
1186 1.23585
1184 0.9963659
1182 0.83538783
1180 0.72748923
1178 0.76084977
1176 0.83393198
1174 0.98818576
1172 1.1445334
1170 1.29317
1168 1.4372983
1166 1.5673029
1164 1.6672601
1162 1.6863661
1160 1.636716
1158 1.4503778
1156 1.24216
1154 1.0054741
1152 0.80909079
1150 0.66679621
1148 0.54621601
1146 0.44596535
1144 0.33419582
1142 0.21565053
1140 0.10856089
1138 0.024841387
1136 0.025084574
1134 0.099055097
1132 0.36685291
1130 0.73437679
1128 1.2347045
1126 1.7557993
1124 2.1935699
1122 2.5827265
1120 2.7937999
1118 2.982131
1116 3.1379142
1114 3.3253
1112 3.6479778
1110 3.9962146
1108 4.4195991
1106 4.7981501
1104 5.0592394
1102 5.2391815
1100 5.2631836
1098 5.274087
1096 5.2804575
1094 5.4024682
1092 5.681778
1090 6.0886707
1088 6.612833
1086 7.0992842
1084 7.5362568
1082 7.8275757
1080 8.0124207
1078 8.0546923
1076 8.0219889
1074 7.9102817
1072 7.7820759
1070 7.7155747
1068 7.6770945
1066 7.7398286
1064 7.8141479
1062 7.8766146
1060 7.9262319
1058 7.8983598
1056 7.8701143
1054 7.8409672
1052 7.8286686
1050 7.8664007
1048 7.8779173
1046 7.8204608
1044 7.688458
1042 7.4205637
1040 7.1509638
1038 6.8860302
1036 6.6844997
1034 6.551765
1032 6.3995275
1030 6.2142015
1028 5.8767881
1026 5.4221406
1024 4.8349495
1022 4.188169
1020 3.6366591
1018 3.1394367
1016 2.8282771
1014 2.572403
1012 2.3754809
1010 2.1862419
1008 1.971964
1006 1.7551965
1004 1.5342443
1002 1.3196378
1000 1.1488799
998 0.98190379
996 0.83156645
994 0.67840111
992 0.51478732
990 0.30943707
988 0.0062794983
986 -0.34752473
984 -0.78293467
982 -1.105913
980 -1.2678241
978 -1.2251182
976 -0.96865141
974 -0.66464508
972 -0.32887894
970 -0.10324114
968 0.053709224
966 0.18533
964 0.31032228
962 0.53400791
960 0.78794283
958 0.99750215
956 1.1897299
954 1.1964579
952 1.1710119
950 0.90623343
948 0.6278336
946 0.29228464
944 0.00013780454
942 0.0049518738
940 0.038601547
938 0.23584901
936 0.4426614
934 0.67896855
932 0.99461555
930 1.4789135
928 1.9561605
926 2.4188621
924 2.7397699
922 2.8883085
920 3.0503018
918 3.2266271
916 3.4962015
914 3.832139
912 4.1925564
910 4.5657158
908 5.0670023
906 5.6147041
904 6.1465082
902 6.671411
900 7.0000477
898 7.2964334
896 7.5994
