##TITLE=Methyl Ethyl Ketone
##JCAMP-DX=4.24
##DATA TYPE=INFRARED SPECTRUM
##XUNITS=cm-1
##YUNITS=Absorbance
##FIRSTX=900
##LASTX=2300
##XYDATA=(X++(Y..Y))
2296 0.020219
2294 0.020639399
2292 0.021060795
2290 0.021481195
2288 0.021901593
2286 0.022321993
2284 0.022742392
2282 0.023163779
2280 0.023584189
2278 0.024004588
2276 0.024424985
2274 0.024846369
2272 0.025266781
2270 0.02568718
2268 0.026107581
2266 0.026528956
2264 0.026949378
2262 0.027369777
2260 0.027790174
2258 0.028210573
2256 0.028631942
2254 0.029052369
2252 0.029472768
2250 0.029893167
2248 0.030314531
2246 0.030734966
2244 0.019719508
2242 0.00074419711
2240 -0.00609456
2238 -0.03565922
2236 -0.068623699
2234 -0.11825592
2232 -0.16712594
2230 -0.17206611
2228 -0.16776635
2226 -0.106417
2224 -0.043369807
2222 0.01425989
2220 0.055081014
2218 0.045648508
2216 0.010623352
2214 -0.074135192
2212 -0.17763214
2210 -0.30692855
2208 -0.41303325
2206 -0.48825398
2204 -0.48534623
2202 -0.40905267
2200 -0.29619697
2198 -0.1596152
2196 -0.091973208
2194 -0.064988211
2192 -0.11351391
2190 -0.1939607
2188 -0.2823635
2186 -0.37265617
2184 -0.42134479
2182 -0.46044442
2180 -0.44925505
2178 -0.43067133
2176 -0.41508228
2174 -0.4017933
2172 -0.41110411
2170 -0.4198277
2168 -0.41285804
2166 -0.39970657
2164 -0.36954772
2162 -0.33346123
2160 -0.2865777
2158 -0.24118346
2156 -0.200739
2154 -0.19446661
2152 -0.23694989
2150 -0.30403945
2148 -0.39311609
2146 -0.43972751
2144 -0.44676295
2142 -0.4103052
2140 -0.34643009
2138 -0.31068128
2136 -0.29178372
2134 -0.33189315
2132 -0.39624241
2130 -0.45853111
2128 -0.51946962
2126 -0.51416373
2124 -0.49342987
2122 -0.44153732
2120 -0.38653421
2118 -0.36413679
2116 -0.35246858
2114 -0.38631499
2112 -0.4312824
2110 -0.49651587
2108 -0.55386221
2106 -0.57838506
2104 -0.57761717
2102 -0.53165549
2100 -0.48104039
2098 -0.43380886
2096 -0.40696141
2094 -0.40605447
2092 -0.4043172
2090 -0.39779237
2088 -0.37471205
2086 -0.338689
2084 -0.32364175
2082 -0.3236897
2080 -0.34050834
2078 -0.36503237
2076 -0.35500014
2074 -0.3301847
2072 -0.29067799
2070 -0.24686837
2068 -0.23798037
2066 -0.23801607
2064 -0.26300177
2062 -0.29052043
2060 -0.29681265
2058 -0.29321918
2056 -0.25832257
2054 -0.21823391
2052 -0.18104281
2050 -0.15176784
2048 -0.14060336
2046 -0.13511822
2044 -0.13337541
2042 -0.13445878
2040 -0.1394304
2038 -0.15566044
2036 -0.18539143
2034 -0.2096549
2032 -0.22605577
2030 -0.2102519
2028 -0.16969642
2026 -0.11203957
2024 -0.045696266
2022 0.016767671
2020 0.076744959
2018 0.11754112
2016 0.150058
2014 0.15306793
2012 0.14586084
2010 0.12141892
2008 0.092048354
2006 0.058655381
2004 0.027539341
2002 0.021501821
2000 0.031766132
1998 0.08749003
1996 0.15889429
1994 0.24455161
1992 0.3209081
1990 0.36598888
1988 0.387508
1986 0.37809658
1984 0.36146498
1982 0.34509483
1980 0.34147647
1978 0.353477
1976 0.38614458
1974 0.43555149
1972 0.49327555
1970 0.55533534
1968 0.59213912
1966 0.61228502
1964 0.59613323
1962 0.56142873
1960 0.52225924
1958 0.48189443
1956 0.458363
1954 0.44083324
1952 0.43226039
1950 0.42599407
1948 0.42564738
1946 0.42824998
1944 0.43469161
1942 0.44036812
1940 0.42968619
1938 0.41179606
1936 0.38601974
1934 0.36973906
1932 0.38065261
1930 0.40637338
1928 0.4465771
1926 0.47953007
1924 0.49982646
1922 0.5081256
1920 0.50524503
1918 0.48859361
1916 0.45867571
1914 0.41813925
1912 0.37201098
1910 0.34155574
1908 0.32288611
1906 0.32804814
1904 0.3446936
1902 0.3782776
1900 0.41820592
1898 0.47028562
1896 0.52556998
1894 0.56791365
1892 0.60129344
1890 0.60351908
1888 0.58606929
1886 0.53011447
1884 0.45318457
1882 0.35487145
1880 0.2598525
1878 0.19303766
1876 0.15109201
1874 0.1425027
1872 0.14900805
1870 0.16488816
1868 0.19442432
1866 0.2307875
1864 0.2664485
1862 0.293376
1860 0.29609922
1858 0.28148216
1856 0.2539337
1854 0.22215603
1852 0.2011638
1850 0.19047184
1848 0.1792616
1846 0.16992714
1844 0.13346806
1842 0.085863337
1840 0.044812512
1838 0.0076166177
1836 -0.0067409305
1834 -0.0099375267
1832 0.0073915599
1830 0.04492664
1828 0.11682411
1826 0.2008892
1824 0.26480266
1822 0.28853402
1820 0.24549919
1818 0.17140415
1816 0.095455229
1814 0.043268986
1812 0.029447349
1810 0.036341246
1808 0.05110671
1806 0.064709954
1804 0.073876508
1802 0.076887153
1800 0.078072205
1798 0.076179408
1796 0.07302586
1794 0.092753842
1792 0.1252936
1790 0.16865097
1788 0.21326725
1786 0.22048365
1784 0.20229092
1782 0.16416146
1780 0.11712375
1778 0.096040048
1776 0.094630204
1774 0.11941229
1772 0.15458243
1770 0.1644554
1768 0.1559104
1766 0.12374543
1764 0.085823677
1762 0.067090459
1760 0.02428999
1758 -0.066220075
1756 -0.13993515
1754 -0.16318108
1752 -0.11342093
1750 0.0079832599
1748 0.12727907
1746 0.21791428
1744 0.20308074
1742 0.08804965
1740 -0.037850454
1738 -0.15303645
1736 -0.143996
1734 -0.03606033
1732 0.096782602
1730 0.23241983
1728 0.22515954
1726 0.11762355
1724 0.011945229
1722 -0.066049337
1720 0.007196933
1718 0.2167514
1716 0.60961241
1714 1.1007742
1712 1.5369583
1710 1.9447975
1708 2.369684
1706 2.9583993
1704 3.8554096
1702 5.3014426
1700 7.410161
1698 10.406086
1696 14.257143
1694 18.23036
1692 21.97905
1690 25.328413
1688 28.320492
1686 31.800823
1684 35.863178
1682 40.736313
1680 46.25032
1678 51.095867
1676 55.303959
1674 59.282608
1672 63.169888
1670 67.747231
1668 72.854523
1666 78.013
1664 83.084885
1662 87.642494
1660 91.628265
1658 94.879547
1656 97.367111
1654 99.061081
1652 100.02512
1650 100.38155
1648 100.03474
1646 98.941071
1644 97.252464
1642 95.171669
1640 92.58564
1638 89.512741
1636 85.680199
1634 81.071739
1632 76.402466
1630 71.920456
1628 67.80146
1626 64.040543
1624 60.216679
1622 56.274048
1620 52.309704
1618 48.34016
1616 44.472427
1614 40.74258
1612 37.41325
1610 34.501621
1608 32.022148
1606 29.953178
1604 28.149282
1602 26.630367
1600 25.388474
1598 24.429768
1596 23.7195
1594 23.241566
1592 22.938601
1590 22.790863
1588 22.758379
1586 22.82765
1584 22.979406
1582 23.205318
1580 23.496878
1578 23.911827
1576 24.467972
1574 25.196812
1572 26.095057
1570 27.084389
1568 28.14176
1566 29.198414
1564 30.250908
1562 31.46467
1560 32.93631
1558 35.334503
1556 38.746716
1554 42.632401
1552 46.752708
1550 49.991718
1548 52.344898
1546 54.262608
1544 55.745949
1542 56.9412
1540 57.729103
1538 57.964806
1536 57.635029
1534 56.823093
1532 55.72002
1530 54.590553
1528 53.424126
1526 52.212551
1524 50.756897
1522 48.923306
1520 46.759563
1518 44.249523
1516 41.861931
1514 39.765568
1512 37.735401
1510 35.754383
1508 33.183632
1506 29.845842
1504 26.502102
1502 23.220022
1500 20.508904
1498 18.43261
1496 16.395571
1494 14.385337
1492 12.308823
1490 10.16972
1488 8.009511
1486 5.8985257
1484 3.9775102
1482 2.3493605
1480 1.1353997
1478 0.36407813
1476 0.065838844
1474 0.33530316
1472 1.1026089
1470 2.0454509
1468 2.961493
1466 3.7062943
1464 4.1816463
1462 4.553297
1460 4.8780255
1458 5.2205906
1456 5.6003003
1454 5.9543371
1452 6.2463198
1450 6.4286995
1448 6.4421511
1446 6.3699713
1444 6.1810923
1442 5.9573631
1440 5.6883965
1438 5.3820133
1436 5.0177455
1434 4.5543985
1432 3.9971023
1430 3.4243984
1428 2.870554
1426 2.4266887
1424 2.1086268
1422 1.9212009
1420 1.8764617
1418 1.9714841
1416 2.1783056
1414 2.471885
1412 2.7787693
1410 3.0573981
1408 3.3123629
1406 3.5435686
1404 3.7969356
1402 4.0949454
1400 4.4356961
1398 4.8388901
1396 5.2443714
1394 5.6359506
1392 5.9463491
1390 6.0990539
1388 6.125823
1386 5.95223
1384 5.6762862
1382 5.2603407
1380 4.7911458
1378 4.2644858
1376 3.7313144
1374 3.2177093
1372 2.767832
1370 2.3928177
1368 2.088273
1366 1.8133429
1364 1.4997486
1362 1.1535739
1360 0.77433985
1358 0.42363551
1356 0.17949528
1354 0.023944205
1352 -0.0045032846
1350 0.036637798
1348 0.13005914
1346 0.20690392
1344 0.33687317
1342 0.4911446
1340 0.68842584
1338 0.89654344
1336 1.1186628
1334 1.3322718
1332 1.514308
1330 1.6861219
1328 1.8450921
1326 2.0282621
1324 2.2623079
1322 2.5524299
1320 2.9150326
1318 3.2935452
1316 3.67046
1314 3.9804595
1312 4.2122631
1310 4.3749795
1308 4.4789848
1306 4.5579357
1304 4.6183257
1302 4.6663628
1300 4.7057185
1298 4.7309608
1296 4.7453432
1294 4.7379594
1292 4.7199283
1290 4.6843467
1288 4.6517439
1286 4.632297
1284 4.625392
1282 4.6466208
1280 4.6717515
1278 4.703886
1276 4.7320786
1274 4.7556529
1272 4.7814794
1270 4.8180308
1268 4.8818727
1266 4.9872355
1264 5.1237278
1262 5.2891216
1260 5.4387264
1258 5.5635228
1256 5.6489201
1254 5.705471
1252 5.7668762
1250 5.8422589
1248 5.9571433
1246 6.08955
1244 6.2125783
1242 6.3081393
1240 6.3218641
1238 6.2845864
1236 6.154727
1234 5.9807181
1232 5.7195039
1230 5.4222693
1228 5.0368481
1226 4.6302538
1224 4.1696382
1222 3.699981
1220 3.208328
1218 2.712189
1216 2.2099771
1214 1.7254184
1212 1.2791139
1210 0.88762927
1208 0.57835209
1206 0.32159048
1204 0.12714966
1202 -0.038562492
1200 -0.17019932
1198 -0.26313162
1196 -0.32176501
1194 -0.3526569
1192 -0.37026474
1190 -0.39826128
1188 -0.42725334
1186 -0.44178206
1184 -0.43041828
1182 -0.33253914
1180 -0.18630868
1178 0.07795018
1176 0.374336
1174 0.73581445
1172 1.0862614
1170 1.3762302
1168 1.6189286
1166 1.7138678
1164 1.7614232
1162 1.6948481
1160 1.6209812
1158 1.5353777
1156 1.4625314
1154 1.4048465
1152 1.3153834
1150 1.1774142
1148 0.99026179
1146 0.75525284
1144 0.53493851
1142 0.33384168
1140 0.17251265
1138 0.044319343
1136 -0.04553711
1134 -0.095445439
1132 -0.051236004
1130 0.052864015
1128 0.28304613
1126 0.55397725
1124 0.85899651
1122 1.1548461
1120 1.3702281
1118 1.5630552
1116 1.6754786
1114 1.7918509
1112 1.9301457
1110 2.0694821
1108 2.2079475
1106 2.3088701
1104 2.315521
1102 2.2953942
1100 2.225626
1098 2.1678717
1096 2.1297429
1094 2.1029191
1092 2.0940201
1090 2.1168859
1088 2.1785579
1086 2.3005135
1084 2.4723349
1082 2.6722167
1080 2.8817098
1078 3.0410361
1076 3.156877
1074 3.1223326
1072 3.022109
1070 2.8039749
1068 2.5690215
1066 2.4029751
1064 2.2619481
1062 2.2407215
1060 2.2281678
1058 2.2339869
1056 2.2419086
1054 2.2594311
1052 2.2880538
1050 2.3516119
1048 2.4089251
1046 2.4492142
1044 2.4655187
1042 2.4349918
1040 2.3801429
1038 2.2874517
1036 2.16628
1034 2.012392
1032 1.8493886
1030 1.6840025
1028 1.5731795
1026 1.5114914
1024 1.5692806
1022 1.694249
1020 1.8720726
1018 2.0582681
1016 2.1165571
1014 2.1238596
1012 1.9476072
1010 1.7354364
1008 1.46692
1006 1.2001357
1004 1.0077771
1002 0.82461357
1000 0.70078617
998 0.58633697
996 0.51444
994 0.46969408
992 0.50937015
990 0.56690007
988 0.66286027
986 0.72583205
984 0.72911644
982 0.68160129
980 0.56561339
978 0.42885643
976 0.27063483
974 0.11330865
972 -0.039920844
970 -0.13115945
968 -0.17982394
966 -0.13813969
964 -0.058990508
962 -0.046214696
960 -0.060688794
958 -0.19406807
956 -0.34935686
954 -0.42318806
952 -0.48010001
950 -0.36518687
948 -0.24057177
946 -0.07854107
944 0.0005293712
942 0.016417895
940 0.045981992
938 0.071367599
936 0.11806543
934 0.22757791
932 0.34766173
930 0.48987982
928 0.61676604
926 0.71839458
924 0.77958626
922 0.79066181
920 0.73646873
918 0.62082648
916 0.45358527
914 0.25017893
912 0.072402865
910 -0.089943394
908 -0.1127799
906 -0.080417089
904 0.076478869
902 0.2662012
900 0.32699531
898 0.36703342
896 0.22262
