##TITLE=Methyl Ethyl Ketone
##JCAMP-DX=4.24
##DATA TYPE=INFRARED SPECTRUM
##XUNITS=cm-1
##YUNITS=Absorbance
##FIRSTX=900
##LASTX=2300
##XYDATA=(X++(Y..Y))
2296 0.066963002
2294 0.068356007
2292 0.069749013
2290 0.071142025
2288 0.072535031
2286 0.073928036
2284 0.075322032
2282 0.076715052
2280 0.078108057
2278 0.07950107
2276 0.080894068
2274 0.082287081
2272 0.083680086
2270 0.085073091
2268 0.086466096
2266 0.087859109
2264 0.089252114
2262 0.09064512
2260 0.092038125
2258 0.093431138
2256 0.094824143
2254 0.096218117
2252 0.097611159
2250 0.099004164
2248 0.10039235
2246 0.10179
2244 0.019444462
2242 0.0041240226
2240 -0.027064763
2238 -0.053101026
2236 -0.078380972
2234 -0.15640478
2232 -0.23615064
2230 -0.26896697
2228 -0.29236898
2226 -0.259119
2224 -0.23296966
2222 -0.252866
2220 -0.28365085
2218 -0.34031689
2216 -0.37315628
2214 -0.35073644
2212 -0.3122128
2210 -0.25271916
2208 -0.23587874
2206 -0.27379471
2204 -0.3485308
2202 -0.45532808
2200 -0.53418368
2198 -0.59055346
2196 -0.63106
2194 -0.66331679
2192 -0.73827076
2190 -0.83223993
2188 -0.94727743
2186 -1.0687135
2184 -1.1359841
2182 -1.1906947
2180 -1.1614408
2178 -1.1196653
2176 -1.0685571
2174 -1.0224737
2172 -1.0426528
2170 -1.0725729
2168 -1.1220914
2166 -1.1692542
2164 -1.2009525
2162 -1.2388862
2160 -1.2968618
2158 -1.3585886
2156 -1.4234699
2154 -1.4699863
2152 -1.4894823
2150 -1.4940664
2148 -1.4852782
2146 -1.4695572
2144 -1.44908
2142 -1.442439
2140 -1.4458987
2138 -1.4912894
2136 -1.5589114
2134 -1.6432139
2132 -1.7335399
2130 -1.7957636
2128 -1.8489001
2126 -1.8732986
2124 -1.8913254
2122 -1.9197714
2120 -1.9515646
2118 -2.0125976
2116 -2.0774558
2114 -2.1394789
2112 -2.1912761
2110 -2.1991141
2108 -2.1896906
2106 -2.148097
2104 -2.1115136
2102 -2.096966
2100 -2.0993559
2098 -2.1246409
2096 -2.1419001
2094 -2.1446135
2092 -2.1427352
2090 -2.1383917
2088 -2.1536217
2086 -2.184875
2084 -2.2130661
2082 -2.2377009
2080 -2.2372561
2078 -2.2241733
2076 -2.23193
2074 -2.249114
2072 -2.31374
2070 -2.3936758
2068 -2.4547682
2066 -2.5109835
2064 -2.5272081
2062 -2.5365953
2060 -2.5466805
2058 -2.554625
2056 -2.5500171
2054 -2.5377162
2052 -2.5088944
2050 -2.4756863
2048 -2.4427278
2046 -2.4115179
2044 -2.3850901
2042 -2.372478
2040 -2.3768287
2038 -2.4001429
2036 -2.439137
2034 -2.482178
2032 -2.5268142
2030 -2.5652699
2028 -2.6005189
2026 -2.6193879
2024 -2.6294708
2022 -2.6293502
2020 -2.6254478
2018 -2.6344576
2016 -2.6476998
2014 -2.6571078
2012 -2.6627858
2010 -2.6449416
2008 -2.62064
2006 -2.6094158
2004 -2.6059005
2002 -2.6401601
2000 -2.6805487
1998 -2.7154267
1996 -2.7285714
1994 -2.6857312
1992 -2.6206572
1990 -2.5277789
1988 -2.44662
1986 -2.3859107
1984 -2.3505521
1982 -2.3441551
1980 -2.355737
1978 -2.3851454
1976 -2.4032915
1974 -2.4100959
1972 -2.3716185
1970 -2.3023944
1968 -2.2375257
1966 -2.1786714
1964 -2.1942937
1962 -2.2457354
1960 -2.2942638
1958 -2.3383219
1956 -2.3169999
1954 -2.2701478
1952 -2.2010498
1950 -2.1239784
1948 -2.0771475
1946 -2.0552502
1944 -2.1074424
1942 -2.1921487
1940 -2.2743554
1938 -2.3329074
1936 -2.3232684
1934 -2.286855
1932 -2.250186
1930 -2.2114048
1928 -2.1823502
1926 -2.1032321
1924 -1.9630185
1922 -1.7706581
1920 -1.5322309
1918 -1.350801
1916 -1.21833
1914 -1.146525
1912 -1.1136942
1910 -1.0968497
1908 -1.0892688
1906 -1.1242321
1904 -1.179628
1902 -1.2131613
1900 -1.2317611
1898 -1.1972504
1896 -1.1430571
1894 -1.1347286
1892 -1.1537495
1890 -1.21852
1888 -1.2990565
1886 -1.3518878
1884 -1.3950102
1882 -1.4354376
1880 -1.4756063
1878 -1.5272605
1876 -1.5450801
1874 -1.5142739
1872 -1.4025029
1870 -1.2056297
1868 -1.0007037
1866 -0.79352367
1864 -0.69491661
1862 -0.68876582
1860 -0.7458564
1858 -0.84746534
1856 -0.93069404
1854 -1.0023633
1852 -0.97141576
1850 -0.88301033
1848 -0.68223763
1846 -0.43245751
1844 -0.29308739
1842 -0.22865523
1840 -0.35467359
1838 -0.56151241
1836 -0.76263869
1834 -0.93063229
1832 -1.0055431
1830 -1.0100945
1828 -0.89142436
1826 -0.73405063
1824 -0.56555545
1822 -0.44028959
1820 -0.4199484
1818 -0.43901479
1816 -0.48168114
1814 -0.50208849
1812 -0.49001983
1810 -0.4823356
1808 -0.48670012
1806 -0.483336
1804 -0.4652842
1802 -0.35034493
1800 -0.16076562
1798 0.096116282
1796 0.39032644
1794 0.57312775
1792 0.68594396
1790 0.64590484
1788 0.53152609
1786 0.42926958
1784 0.35038424
1782 0.32571596
1780 0.35106134
1778 0.46058831
1776 0.61397028
1774 0.75838488
1772 0.82044703
1770 0.69985145
1768 0.47573829
1766 0.24834773
1764 0.10394564
1762 0.092023835
1760 0.041153315
1758 -0.073122226
1756 -0.14997186
1754 -0.17904477
1752 -0.02397421
1750 0.32049471
1748 0.72610056
1746 1.145565
1744 1.2917029
1742 1.200691
1740 1.0389779
1738 0.85048598
1736 0.84246999
1734 0.95836824
1732 0.92748326
1730 0.78425372
1728 0.4263165
1726 -0.025247857
1724 -0.28043565
1722 -0.315736
1720 0.031202629
1718 0.67141712
1716 1.6587452
1714 2.7424095
1712 3.6196754
1710 4.3953257
1708 5.1335921
1706 6.1194658
1704 7.5610938
1702 9.6331387
1700 12.406591
1698 15.611032
1696 19.098572
1694 22.28533
1692 24.963171
1690 27.428083
1688 29.7798
1686 32.732044
1684 36.315067
1682 40.388058
1680 44.834038
1678 48.689774
1676 52.017044
1674 55.355423
1672 58.753418
1670 62.671234
1668 66.946121
1666 71.083244
1664 75.061142
1662 78.705322
1660 82.057495
1658 85.138603
1656 88.018913
1654 90.786987
1652 93.400703
1650 95.838943
1648 97.489296
1646 97.946854
1644 97.43013
1642 96.190857
1640 94.476257
1638 92.451912
1636 89.741699
1634 86.2966
1632 82.394325
1630 78.213028
1628 74.078949
1626 70.040428
1624 65.811203
1622 61.365688
1620 56.923847
1618 52.517155
1616 48.360912
1614 44.489243
1612 41.049847
1610 38.068508
1608 35.523548
1606 33.384678
1604 31.497734
1602 29.86581
1600 28.458902
1598 27.294968
1596 26.355999
1594 25.632914
1592 25.088285
1590 24.696926
1588 24.420752
1586 24.292257
1584 24.308399
1582 24.51158
1580 24.895109
1578 25.509073
1576 26.364571
1574 27.405331
1572 28.632195
1570 29.874454
1568 31.102079
1566 32.286957
1564 33.420238
1562 34.687477
1560 36.147659
1558 38.188995
1556 40.741856
1554 43.12772
1552 45.256618
1550 46.779488
1548 47.829697
1546 48.893856
1544 49.997635
1542 51.210632
1540 52.177181
1538 52.517166
1536 52.149742
1534 51.077087
1532 49.756138
1530 48.552986
1528 47.478336
1526 46.537849
1524 45.540405
1522 44.400852
1520 42.88258
1518 40.928875
1516 38.871799
1514 36.794811
1512 34.874241
1510 33.097343
1508 30.898043
1506 28.12385
1504 25.24304
1502 22.342478
1500 19.916246
1498 18.018309
1496 16.135
1494 14.22677
1492 12.216891
1490 10.10112
1488 7.9874506
1486 5.927207
1484 4.0083723
1482 2.3757422
1480 1.1220913
1478 0.32044792
1476 0.084386587
1474 0.46149728
1472 1.3760009
1470 2.3775809
1468 3.2320707
1466 3.9977193
1464 4.6261206
1462 5.3219495
1460 6.1722326
1458 6.9463654
1456 7.57306
1454 7.805666
1452 7.5008435
1450 7.0934696
1448 6.5917358
1446 6.1492929
1444 5.7857537
1442 5.4688339
1440 5.1967115
1438 4.946959
1436 4.6626844
1434 4.2644911
1432 3.7185118
1430 3.0860584
1428 2.4669161
1426 2.015485
1424 1.7799006
1422 1.7684622
1420 1.8955693
1418 2.0787168
1416 2.2426257
1414 2.3224041
1412 2.4212463
1410 2.5640998
1408 2.7925565
1406 3.1425593
1404 3.5567164
1402 4.0715971
1400 4.6010079
1398 5.1461921
1396 5.5889859
1394 5.8525882
1392 5.9516716
1390 5.8224835
1388 5.6201849
1386 5.3199902
1384 4.99016
1382 4.6289353
1380 4.3029571
1378 4.0221834
1376 3.8070886
1374 3.6190877
1372 3.397758
1370 3.1298187
1368 2.7947464
1366 2.4266007
1364 2.0393782
1362 1.624838
1360 1.191519
1358 0.77245617
1356 0.41876897
1354 0.1647858
1352 0.051347531
1350 0.01531861
1348 0.045809679
1346 0.078144148
1344 0.1926852
1342 0.36441028
1340 0.63055378
1338 0.85883844
1336 1.008444
1334 1.028651
1332 0.88135809
1330 0.72478777
1328 0.57692373
1326 0.51076478
1324 0.54361308
1322 0.66049486
1320 0.86044925
1318 1.1040905
1316 1.36743
1314 1.5836394
1312 1.7478755
1310 1.818987
1308 1.8288412
1306 1.7819772
1304 1.7074383
1302 1.630908
1300 1.5636877
1298 1.5426958
1296 1.5533
1294 1.6268506
1292 1.7225026
1290 1.847157
1288 1.962056
1286 2.0449615
1284 2.1113038
1282 2.1493976
1280 2.1949446
1278 2.2621646
1276 2.3496771
1274 2.4705391
1272 2.6195006
1270 2.8090956
1268 3.0239975
1266 3.2797258
1264 3.5477498
1262 3.8436761
1260 4.167634
1258 4.5309873
1256 4.9450169
1254 5.4118724
1252 5.9290552
1250 6.488718
1248 7.0853748
1246 7.7009501
1244 8.3295469
1242 8.9490299
1240 9.5293274
1238 10.066585
1236 10.495814
1234 10.856252
1232 11.05492
1230 11.171097
1228 11.070728
1226 10.897672
1224 10.532206
1222 10.123709
1220 9.6127548
1218 9.0740318
1216 8.4830713
1214 7.890214
1212 7.2982111
1210 6.7336755
1208 6.2092528
1206 5.7042499
1204 5.2236338
1202 4.7508273
1200 4.2847114
1198 3.819226
1196 3.3526359
1194 2.8836231
1192 2.4210188
1190 1.9913191
1188 1.5898712
1186 1.2465889
1184 0.93632627
1182 0.68450367
1180 0.47220004
1178 0.3633652
1176 0.30140603
1174 0.36998782
1172 0.4539409
1170 0.56977975
1168 0.65930635
1166 0.67160684
1164 0.66484427
1162 0.61348373
1160 0.57008618
1158 0.54161966
1156 0.51771688
1154 0.49730942
1152 0.46054995
1150 0.39638755
1148 0.29987782
1146 0.17204553
1144 0.054352075
1142 -0.035559073
1140 -0.024936516
1138 0.061363786
1136 0.20761628
1134 0.418778
1132 0.67327625
1130 0.94502175
1128 1.2180721
1126 1.4926879
1124 1.7704557
1122 2.0487676
1120 2.3281841
1118 2.6063361
1116 2.8773172
1114 3.1476626
1112 3.4156182
1110 3.6853273
1108 3.9611697
1106 4.2434649
1104 4.5444112
1102 4.8648505
1100 5.2242665
1098 5.5948539
1096 5.9799714
1094 6.3492417
1092 6.7029319
1090 7.0798702
1088 7.4854679
1086 7.932848
1084 8.4001703
1082 8.7874184
1080 9.104847
1078 9.2689018
1076 9.3551788
1074 9.377718
1072 9.3816595
1070 9.3960505
1068 9.4151192
1066 9.4472284
1064 9.4876366
1062 9.5756073
1060 9.6661177
1058 9.7573099
1056 9.8158579
1054 9.7292719
1052 9.6008949
1050 9.3377361
1048 9.0481071
1046 8.6933069
1044 8.3110418
1042 7.8824077
1040 7.4810863
1038 7.1276331
1036 6.85325
1034 6.66469
1032 6.4525199
1030 6.2077017
1028 5.8546176
1026 5.4296317
1024 5.0325193
1022 4.6608067
1020 4.3976169
1018 4.1747413
1016 3.9294257
1014 3.6745117
1012 3.3802021
1010 3.0815549
1008 2.8126321
1006 2.5430694
1004 2.2398942
1002 1.9287703
1000 1.5657046
998 1.2029359
996 0.84180212
994 0.48432434
992 0.13946287
990 -0.20284221
988 -0.53696084
986 -0.84090638
984 -1.0885954
982 -1.2424736
980 -1.264968
978 -1.1543491
976 -0.90122944
974 -0.56089878
972 -0.15383774
970 0.20486367
968 0.52543712
966 0.69815701
964 0.79861832
962 0.79323602
960 0.75394809
958 0.70093745
956 0.64647186
954 0.61073959
952 0.57519925
950 0.48512882
948 0.38766569
946 0.21438964
944 0.051627085
942 -0.0037913844
940 -0.11554778
938 -0.1203866
936 -0.11910343
934 -0.10146193
932 -0.11272431
930 -0.18574017
928 -0.26834685
926 -0.36529121
924 -0.40542659
922 -0.37689513
920 -0.32680818
918 -0.25671589
916 -0.21800458
914 -0.20019738
912 -0.13214096
910 -0.038570881
908 0.15766969
906 0.38931441
904 0.59958518
902 0.80062795
900 0.80938381
898 0.78622448
896 0.74041998
