##TITLE=Methyl Ethyl Ketone
##JCAMP-DX=4.24
##DATA TYPE=INFRARED SPECTRUM
##XUNITS=cm-1
##YUNITS=Absorbance
##FIRSTX=900
##LASTX=2300
##XYDATA=(X++(Y..Y))
2296 -0.063675001
2294 -0.065000109
2292 -0.066324212
2290 -0.067649312
2288 -0.068973422
2286 -0.070298523
2284 -0.071623623
2282 -0.072947741
2280 -0.074272834
2278 -0.075596951
2276 -0.076922044
2274 -0.078247145
2272 -0.079571269
2270 -0.080892429
2268 -0.082220398
2266 -0.08355926
2264 -0.084870011
2262 -0.086142085
2260 -0.087517515
2258 -0.089038551
2256 -0.090174802
2254 -0.090767659
2252 -0.092794783
2250 -0.096840754
2248 -0.095563158
2246 -0.074917786
2244 -0.0027543288
2242 0.14033973
2240 0.30212358
2238 0.4263905
2236 0.52262866
2234 0.60722893
2232 0.64832032
2230 0.61246258
2228 0.51666546
2226 0.39332899
2224 0.27720749
2222 0.19578166
2220 0.14499357
2218 0.11569114
2216 0.11583599
2214 0.1536254
2212 0.21683499
2210 0.28562221
2208 0.33428121
2206 0.34289297
2204 0.3218942
2202 0.29099566
2200 0.26980436
2198 0.27753261
2196 0.3325693
2194 0.44866541
2192 0.62178355
2190 0.83560467
2188 1.0466336
2186 1.2109736
2184 1.317624
2182 1.3718204
2180 1.399654
2178 1.42744
2176 1.4531143
2174 1.4662544
2172 1.4605554
2170 1.4340559
2168 1.3973378
2166 1.3598821
2164 1.3105708
2162 1.2351753
2160 1.1370531
2158 1.0318387
2156 0.96090198
2154 0.96257263
2152 1.0265712
2150 1.1233715
2148 1.213302
2146 1.2661821
2144 1.3022435
2142 1.356463
2140 1.4520015
2138 1.5976908
2136 1.76174
2134 1.8999901
2132 1.9765171
2130 1.9701445
2128 1.9066881
2126 1.8292443
2124 1.7835617
2122 1.8009183
2120 1.8509617
2118 1.8834493
2116 1.8600113
2114 1.761779
2112 1.6284451
2110 1.5170954
2108 1.4660071
2106 1.4926243
2104 1.5602571
2102 1.6177508
2100 1.63873
2098 1.6144561
2096 1.5671571
2094 1.5245734
2092 1.4891272
2090 1.4545058
2088 1.4203663
2086 1.39167
2084 1.3823237
2082 1.4032563
2080 1.4384915
2078 1.465476
2076 1.4786714
2074 1.4850279
2072 1.5120239
2070 1.5840018
2068 1.6793586
2066 1.7567414
2064 1.77464
2062 1.7059233
2060 1.58132
2058 1.452162
2056 1.3568885
2054 1.319119
2052 1.3297583
2050 1.3668782
2048 1.413268
2046 1.4535714
2044 1.4707501
2042 1.4489341
2040 1.3801898
2038 1.2645252
2036 1.12019
2034 0.97285557
2032 0.84553677
2030 0.75873262
2028 0.72827739
2026 0.76438409
2024 0.86201906
2022 1.0026501
2020 1.1388011
2018 1.2170326
2016 1.2114199
2014 1.1199155
2012 0.98503691
2010 0.86382008
2008 0.79170007
2006 0.78583795
2004 0.83285761
2002 0.9058333
2000 0.97730732
1998 1.0262663
1996 1.0566357
1994 1.083654
1992 1.1205794
1990 1.1754606
1988 1.24105
1986 1.3024586
1984 1.3423561
1982 1.3448027
1980 1.3028048
1978 1.2207472
1976 1.1322914
1974 1.082478
1972 1.1041892
1970 1.2102901
1968 1.3572372
1966 1.4776536
1964 1.5184995
1962 1.4492414
1960 1.2962921
1958 1.112992
1956 0.94759446
1954 0.83566749
1952 0.77778596
1950 0.75561559
1948 0.74490404
1946 0.72501749
1944 0.69850188
1942 0.6776557
1940 0.66450852
1938 0.65467089
1936 0.64311314
1934 0.62661654
1932 0.60902745
1930 0.594657
1928 0.5736286
1926 0.53566068
1924 0.50295371
1922 0.51195645
1920 0.58237916
1918 0.71669722
1916 0.88836759
1914 1.0596154
1912 1.2090143
1910 1.3217598
1908 1.3672209
1906 1.3161136
1904 1.186952
1902 1.0314705
1900 0.92718369
1898 0.94740874
1896 1.0940114
1894 1.3194946
1892 1.5413901
1890 1.670308
1888 1.6571988
1886 1.4911513
1884 1.2207614
1882 0.92403555
1880 0.66564369
1878 0.49205211
1876 0.417135
1874 0.43582702
1872 0.53946531
1870 0.71212846
1868 0.90742981
1866 1.0631696
1864 1.1270726
1862 1.068666
1860 0.91967261
1858 0.74383295
1856 0.58384228
1854 0.46011534
1852 0.36751148
1850 0.28816372
1848 0.20955759
1846 0.12627549
1844 0.04333961
1842 -0.027966613
1840 -0.075152062
1838 -0.086832047
1836 -0.057090215
1834 0.016405758
1832 0.13540976
1830 0.29511887
1828 0.46123454
1826 0.58502525
1824 0.63752931
1822 0.6117084
1820 0.53242457
1818 0.43731299
1816 0.3359623
1814 0.21951503
1812 0.08820799
1810 -0.04287675
1808 -0.12919196
1806 -0.12048399
1804 -0.024477389
1802 0.10935555
1800 0.2273809
1798 0.29199421
1796 0.32888001
1794 0.39556295
1792 0.50119436
1790 0.61430395
1788 0.69199419
1786 0.69783503
1784 0.63903612
1782 0.55331653
1780 0.47855151
1778 0.44694239
1776 0.48182112
1774 0.58876133
1772 0.71813077
1770 0.78845274
1768 0.74726629
1766 0.58380723
1764 0.36140499
1762 0.17585582
1760 0.04422383
1758 -0.068393543
1756 -0.14485343
1754 -0.12881668
1752 0.0035834163
1750 0.23245735
1748 0.47420496
1746 0.6166389
1744 0.61291373
1742 0.48968637
1740 0.36289322
1738 0.38138926
1736 0.57335001
1734 0.85185003
1732 1.0543664
1730 1.0098536
1728 0.70811331
1726 0.27907348
1724 -0.093107998
1722 -0.2119689
1720 0.06985338
1718 0.81657386
1716 1.8958685
1714 3.043117
1712 4.059803
1710 4.8653607
1708 5.5872221
1706 6.5011215
1704 7.8624153
1702 9.8624039
1700 12.575492
1698 15.930015
1696 19.572573
1694 22.99423
1692 25.951708
1690 28.520561
1688 31.109783
1686 34.319992
1684 38.554131
1682 43.872425
1680 49.65744
1678 54.921982
1676 59.436642
1674 63.69334
1672 68.195694
1670 73.224457
1668 78.507439
1666 83.37915
1664 87.444
1662 90.643204
1660 93.062904
1658 94.853653
1656 96.129883
1654 96.951851
1652 97.329796
1650 97.231346
1648 96.591202
1646 95.357857
1644 93.659157
1642 91.753464
1640 89.759949
1638 87.627869
1636 85.216583
1634 82.364967
1632 79.061005
1630 75.42025
1628 71.477196
1626 67.174133
1624 62.492722
1622 57.494099
1620 52.374779
1618 47.42754
1616 42.859715
1614 38.76955
1612 35.200615
1610 32.156059
1608 29.588806
1606 27.413164
1604 25.564791
1602 24.013958
1600 22.757332
1598 21.807364
1596 21.1525
1594 20.752405
1592 20.564262
1590 20.5527
1588 20.709099
1586 21.048872
1584 21.576178
1582 22.289391
1580 23.240427
1578 24.539072
1576 26.298058
1574 28.591879
1572 31.343634
1570 34.326542
1568 37.323799
1566 40.176678
1564 42.808491
1562 45.253345
1560 47.732567
1558 50.5574
1556 53.614613
1554 56.34201
1552 58.294735
1550 59.318512
1548 59.59074
1546 59.527107
1544 59.262211
1542 58.564342
1540 57.160782
1538 54.894176
1536 52.003143
1534 49.0979
1532 46.580772
1530 44.503307
1528 42.746048
1526 41.081501
1524 39.279976
1522 37.161686
1520 34.688641
1518 31.992218
1516 29.311428
1514 26.920956
1512 24.85656
1510 22.870192
1508 20.721445
1506 18.292965
1504 15.702543
1502 13.286386
1500 11.246074
1498 9.5564747
1496 8.1132278
1494 6.7865725
1492 5.5130463
1490 4.3122015
1488 3.1938908
1486 2.1429071
1484 1.183094
1482 0.39369866
1480 -0.13639866
1478 -0.3162753
1476 -0.029244542
1474 0.8359071
1472 2.1935921
1470 3.7272689
1468 5.1756811
1466 6.4332681
1464 7.5351071
1462 8.643033
1460 9.8790236
1458 11.252459
1456 12.6206
1454 13.698256
1452 14.306292
1450 14.458824
1448 14.258635
1446 13.864643
1444 13.396809
1442 12.90261
1440 12.389114
1438 11.824294
1436 11.144829
1434 10.269683
1432 9.1984024
1430 8.0461569
1428 6.9598918
1426 6.0853577
1424 5.5030432
1422 5.2002854
1420 5.129128
1418 5.2221131
1416 5.4170203
1414 5.6687322
1412 5.9562788
1410 6.2866526
1408 6.665906
1406 7.0865865
1404 7.5178761
1402 7.900445
1400 8.1716957
1398 8.2788057
1396 8.2010498
1394 7.9643464
1392 7.6219068
1390 7.2475247
1388 6.8940201
1386 6.5737801
1384 6.2765064
1382 5.9724116
1380 5.6343007
1378 5.2458868
1376 4.7986259
1374 4.293107
1372 3.739044
1370 3.1565948
1368 2.5642033
1366 1.9741077
1364 1.3961266
1362 0.84163314
1360 0.34144616
1358 -0.046849087
1356 -0.27545959
1354 -0.32295865
1352 -0.18122102
1350 0.14327592
1348 0.62393725
1346 1.21065
1344 1.8673799
1342 2.5839019
1340 3.3256845
1338 4.0086918
1336 4.5332541
1334 4.8021765
1332 4.7758493
1330 4.5090399
1328 4.0850935
1326 3.5976372
1324 3.1332953
1322 2.7592177
1320 2.5136149
1318 2.3898983
1316 2.35115
1314 2.329263
1312 2.2666948
1310 2.1389446
1308 1.9520297
1306 1.7499843
1304 1.5768577
1302 1.460476
1300 1.4162086
1298 1.4455318
1296 1.5530571
1294 1.7533785
1292 2.0581665
1290 2.4673796
1288 2.9665999
1286 3.5206165
1284 4.0900602
1282 4.6374068
1280 5.130991
1278 5.5502467
1276 5.8840828
1274 6.1354551
1272 6.3194008
1270 6.4675541
1268 6.6182456
1266 6.8140359
1264 7.0899115
1262 7.464519
1260 7.9441619
1258 8.5197992
1256 9.1817226
1254 9.9256268
1252 10.752077
1250 11.667823
1248 12.678549
1246 13.7815
1244 14.953043
1242 16.135462
1240 17.247961
1238 18.184505
1236 18.847029
1234 19.171415
1232 19.118441
1230 18.686422
1228 17.896795
1226 16.806049
1224 15.492908
1222 14.060329
1220 12.61562
1218 11.26325
1216 10.094514
1214 9.175931
1212 8.5530577
1210 8.2371082
1208 8.2077532
1206 8.3923445
1204 8.6834841
1202 8.9290848
1200 8.9872808
1198 8.7655745
1196 8.2332211
1194 7.4642777
1192 6.560173
1190 5.625164
1188 4.7422261
1186 3.9475081
1184 3.2657411
1182 2.7205012
1180 2.3288603
1178 2.0937357
1176 2.0004799
1174 2.0047088
1172 2.0568635
1170 2.1137784
1168 2.1461399
1166 2.1524591
1164 2.1390398
1162 2.1148229
1160 2.0848286
1158 2.0441446
1156 1.984093
1154 1.8927879
1152 1.7545646
1150 1.5488148
1148 1.2677503
1146 0.93637574
1144 0.59949005
1142 0.32466751
1140 0.14849839
1138 0.024270192
1136 -0.096977428
1134 -0.22094241
1132 -0.3282215
1130 -0.36646444
1128 -0.29561543
1126 -0.12608993
1124 0.10162126
1122 0.30596697
1120 0.41917998
1118 0.43215838
1116 0.3604477
1114 0.24485393
1112 0.12514284
1110 0.024178471
1108 -0.032636054
1106 -0.0051100999
1104 0.13507332
1102 0.37652099
1100 0.6899823
1098 1.0258267
1096 1.3369
1094 1.5956846
1092 1.787068
1090 1.9170871
1088 2.0134652
1086 2.1442456
1084 2.3661962
1082 2.6774404
1080 3.0313606
1078 3.3032279
1076 3.3795431
1074 3.2318251
1072 2.8890264
1070 2.4779985
1068 2.1291301
1066 1.9137272
1064 1.854772
1062 1.8814738
1060 1.9114809
1058 1.8942305
1056 1.8070086
1054 1.6843926
1052 1.5696288
1050 1.491567
1048 1.4659789
1046 1.4815536
1044 1.5233533
1042 1.5858288
1040 1.6752
1038 1.8234185
1036 2.0518098
1034 2.3324759
1032 2.6153076
1030 2.8236229
1028 2.9009655
1026 2.871022
1024 2.7782249
1022 2.6706581
1020 2.5750258
1018 2.4530044
1016 2.2581201
1014 1.9681377
1012 1.5846519
1010 1.1627754
1008 0.76571083
1006 0.4390099
1004 0.2056928
1002 0.031616844
1000 -0.12815708
998 -0.3076368
996 -0.52240145
994 -0.73875844
992 -0.91950154
990 -1.0551726
988 -1.150528
986 -1.2334728
984 -1.3214349
982 -1.3799157
980 -1.37296
978 -1.301253
976 -1.1847714
974 -1.0753404
972 -1.0177214
970 -1.0068356
968 -1.0251223
966 -1.05446
964 -1.078876
962 -1.0873939
960 -1.0680828
958 -0.99931538
956 -0.8668716
954 -0.68876541
952 -0.49186999
950 -0.30549514
948 -0.15444757
946 -0.045285679
944 0.025633451
942 0.081841484
940 0.14136517
938 0.18490399
936 0.19187714
934 0.17078683
932 0.13639577
930 0.099944763
928 0.072720408
926 0.069203317
924 0.095815159
922 0.12583828
920 0.12345303
918 0.050086387
916 -0.10518971
914 -0.24537615
912 -0.253407
910 -0.03901571
908 0.44199133
906 1.0806835
904 1.7348366
902 2.2821198
900 2.6357584
898 2.8307464
896 2.9330001
