##TITLE=Methyl Ethyl Ketone
##JCAMP-DX=4.24
##DATA TYPE=INFRARED SPECTRUM
##XUNITS=cm-1
##YUNITS=Absorbance
##FIRSTX=900
##LASTX=2300
##XYDATA=(X++(Y..Y))
2296 0.1067
2294 0.10896676
2292 0.11123352
2290 0.11350027
2288 0.11576703
2286 0.11803379
2284 0.12030055
2282 0.1225673
2280 0.12483406
2278 0.12710081
2276 0.12936758
2274 0.13164417
2272 0.13390125
2270 0.13615802
2268 0.1384344
2266 0.14076985
2264 0.14296971
2262 0.14500071
2260 0.14750519
2258 0.15066369
2256 0.15207113
2254 0.1510042
2252 0.15647149
2250 0.17112812
2248 0.1615476
2246 0.10039757
2244 0.025200905
2242 -0.013577159
2240 0.01341136
2238 0.11755999
2236 0.26255685
2234 0.40243974
2232 0.50691187
2230 0.55857676
2228 0.57327807
2226 0.56964445
2224 0.53875268
2222 0.46914196
2220 0.37214041
2218 0.27204981
2216 0.21792172
2214 0.24812768
2212 0.3283416
2210 0.40411705
2208 0.4286924
2206 0.37429884
2204 0.27930239
2202 0.19530427
2200 0.14537469
2198 0.135507
2196 0.13953215
2194 0.12909733
2192 0.10731035
2190 0.088528864
2188 0.092061594
2186 0.13185218
2184 0.1943752
2182 0.25836369
2180 0.3068141
2178 0.32821015
2176 0.32694915
2174 0.31374481
2172 0.30405194
2170 0.3143411
2168 0.35923314
2166 0.44648027
2164 0.55827481
2162 0.66888118
2160 0.75509137
2158 0.80203652
2156 0.82486498
2154 0.84548551
2152 0.87191051
2150 0.90403467
2148 0.92903811
2146 0.93455428
2144 0.92738634
2142 0.92277652
2140 0.94271272
2138 1.0033157
2136 1.08758
2134 1.1659437
2132 1.2042991
2130 1.179201
2128 1.1148441
2126 1.0494928
2124 1.0097598
2122 1.0088029
2120 1.025212
2118 1.030555
2116 1.0211529
2114 1.006737
2112 1.0120091
2110 1.0607928
2108 1.1514683
2106 1.2663857
2104 1.3641989
2102 1.4005446
2100 1.354506
2098 1.2256849
2096 1.0588
2094 0.9122324
2092 0.83007312
2090 0.8372668
2088 0.90564162
2086 0.98959601
2084 1.057048
2082 1.0891645
2080 1.0982742
2078 1.1042658
2076 1.1082343
2074 1.1024894
2072 1.076268
2070 1.0221081
2068 0.9515723
2066 0.88323915
2064 0.83171052
2062 0.80544877
2060 0.79547113
2058 0.78652906
2056 0.76709598
2054 0.73104215
2052 0.68683386
2050 0.64721972
2048 0.61741179
2046 0.59847748
2044 0.58865041
2042 0.58792126
2040 0.60786486
2038 0.66201597
2036 0.75076187
2034 0.8643409
2032 0.97549051
2030 1.0560571
2028 1.1050303
2026 1.1382407
2024 1.1898034
2022 1.2890302
2020 1.4131051
2018 1.5170003
2016 1.56306
2014 1.53057
2012 1.4523848
2010 1.3763559
2008 1.3118955
2006 1.2506565
2004 1.188694
2002 1.1277469
2000 1.0787257
1998 1.051368
1996 1.0314357
1994 0.99821085
1992 0.95210052
1990 0.90724093
1988 0.89002943
1986 0.92608452
1984 1.0156357
1982 1.1426111
1980 1.2755477
1978 1.3794625
1976 1.4344486
1974 1.432057
1972 1.37998
1970 1.2929817
1968 1.1853166
1966 1.0706722
1964 0.96416968
1962 0.87941766
1960 0.81978321
1958 0.78128302
1956 0.75062013
1954 0.71357948
1952 0.67063826
1950 0.63106096
1948 0.608217
1946 0.61190248
1944 0.62998569
1942 0.64025301
1940 0.62656605
1938 0.58280814
1936 0.52863371
1934 0.49392986
1932 0.495502
1930 0.53652519
1928 0.59569973
1926 0.64243919
1924 0.65983909
1922 0.64522904
1920 0.62147373
1918 0.62027597
1916 0.65467787
1914 0.72280365
1912 0.80676395
1910 0.88515389
1908 0.95554245
1906 1.0258104
1904 1.100104
1902 1.1784264
1900 1.2554462
1898 1.324595
1896 1.3852857
1894 1.4376428
1892 1.4692878
1890 1.463804
1888 1.4204371
1886 1.3513814
1884 1.28237
1882 1.2416714
1880 1.2391959
1878 1.2707287
1876 1.31884
1874 1.3612348
1872 1.3830086
1870 1.3784254
1868 1.3614475
1866 1.3557693
1864 1.3793777
1862 1.441443
1860 1.5319422
1858 1.6293278
1856 1.7108172
1854 1.7550708
1852 1.7445557
1850 1.6680794
1848 1.5316401
1846 1.356325
1844 1.1834817
1842 1.0597663
1840 1.0047296
1838 1.0152291
1836 1.0675657
1834 1.130477
1832 1.1883389
1830 1.2361209
1828 1.2662446
1826 1.269815
1824 1.2453617
1822 1.1984813
1820 1.144264
1818 1.1002792
1816 1.0700144
1814 1.0472645
1812 1.027634
1810 1.0112419
1808 1.0080845
1806 1.028635
1804 1.0560278
1802 1.0562694
1800 1.0035009
1798 0.88900441
1796 0.74781859
1794 0.63933361
1792 0.60326278
1790 0.65221369
1788 0.75231969
1786 0.84472513
1784 0.89221466
1782 0.88173288
1780 0.82545686
1778 0.74719769
1776 0.65465915
1774 0.5446375
1772 0.4244014
1770 0.3108201
1768 0.22310886
1766 0.17502935
1764 0.1530394
1762 0.12243313
1760 0.041095886
1758 -0.12128956
1756 -0.32812157
1754 -0.50268275
1752 -0.60855192
1750 -0.65055251
1748 -0.65770704
1746 -0.66943461
1744 -0.71385205
1742 -0.80157882
1740 -0.90916771
1738 -0.99219424
1736 -1.01994
1734 -0.98150802
1732 -0.894068
1730 -0.79002833
1728 -0.68298697
1726 -0.56765407
1724 -0.43055448
1722 -0.26063079
1720 -0.075659409
1718 0.096314847
1716 0.28592986
1714 0.55663687
1712 0.89600062
1710 1.2394716
1708 1.59139
1706 2.0315821
1704 2.6923606
1702 3.7563267
1700 5.493958
1698 8.1513138
1696 11.550343
1694 15.177389
1692 18.596228
1690 21.572315
1688 24.26388
1686 27.110371
1684 30.453478
1682 34.40572
1680 38.601921
1678 42.405937
1676 45.676785
1674 48.758492
1672 52.037849
1670 55.783981
1668 59.907749
1666 64.0466
1664 67.955345
1662 71.545624
1660 74.757607
1658 77.544701
1656 79.933395
1654 82.025734
1652 83.993317
1650 86.002922
1648 87.955307
1646 89.535782
1644 90.5513
1642 90.980255
1640 90.896637
1638 90.413559
1636 89.547127
1634 88.222076
1632 86.401611
1630 84.097984
1628 81.307693
1626 78.017227
1624 74.270477
1622 70.177849
1620 65.907013
1618 61.657001
1616 57.579742
1614 53.77243
1612 50.312023
1610 47.25293
1608 44.578522
1606 42.208973
1604 40.06477
1602 38.087318
1600 36.252453
1598 34.5672
1596 33.053497
1594 31.737232
1592 30.628874
1590 29.72048
1588 28.989714
1586 28.404221
1584 27.937531
1582 27.57757
1580 27.339897
1578 27.266691
1576 27.406258
1574 27.797188
1572 28.429245
1570 29.238138
1568 30.13324
1566 31.013828
1564 31.80479
1562 32.50573
1560 33.349308
1558 34.749454
1556 36.876328
1554 39.548012
1552 42.313496
1550 44.58308
1548 46.138706
1546 47.195786
1544 47.977818
1542 48.617931
1540 49.235779
1538 49.925552
1536 50.616173
1534 51.077221
1532 51.170212
1530 50.901497
1528 50.315235
1526 49.460049
1524 48.360119
1522 47.023384
1520 45.51601
1518 43.969131
1516 42.490257
1514 41.110458
1512 39.703041
1510 37.997524
1508 35.817131
1506 33.16748
1504 30.26124
1502 27.474407
1500 25.002989
1498 22.776241
1496 20.652857
1494 18.486053
1492 16.20187
1490 13.821108
1488 11.401686
1486 9.0272436
1484 6.8093677
1482 4.8704786
1480 3.2459192
1478 1.8815455
1476 0.8308115
1474 0.28075755
1472 0.30408406
1470 0.7851721
1468 1.5406568
1466 2.366895
1464 3.135988
1462 3.825377
1460 4.4417334
1458 5.0001774
1456 5.5143199
1454 5.9885182
1452 6.398634
1450 6.6900034
1448 6.8283854
1446 6.8183146
1444 6.6864719
1442 6.4723592
1440 6.1877122
1438 5.8032045
1436 5.28158
1434 4.5981669
1432 3.7881331
1430 2.9605694
1428 2.2139781
1426 1.60501
1424 1.1569737
1422 0.86069942
1420 0.70795697
1418 0.70035356
1416 0.83251631
1414 1.0848379
1412 1.426726
1410 1.8187716
1408 2.2325702
1406 2.6589906
1404 3.0979495
1402 3.554616
1400 4.0275478
1398 4.5031157
1396 4.9608855
1394 5.3739462
1392 5.7128687
1390 5.9480281
1388 6.0584965
1386 6.0391898
1384 5.9043541
1382 5.6894159
1380 5.4209166
1378 5.1048951
1376 4.7403002
1374 4.3263006
1372 3.8845122
1370 3.4645774
1368 3.0881319
1366 2.7235358
1364 2.3239751
1362 1.8475235
1360 1.3088849
1358 0.8044827
1356 0.4186694
1354 0.1818037
1352 0.074592061
1350 0.023305826
1348 -0.02846805
1346 -0.088005424
1344 -0.1389028
1342 -0.14751911
1340 -0.094661936
1338 0.0084879622
1336 0.13924012
1334 0.26873198
1332 0.37516448
1330 0.45179459
1328 0.50232381
1326 0.54230094
1324 0.59133738
1322 0.66963464
1320 0.78745311
1318 0.93755734
1316 1.10519
1314 1.27038
1312 1.4165828
1310 1.535466
1308 1.6211572
1306 1.6697378
1304 1.6817108
1302 1.665094
1300 1.6328732
1298 1.6023988
1296 1.5870428
1294 1.5915288
1292 1.6172123
1290 1.6637641
1288 1.732432
1286 1.8272586
1284 1.950182
1282 2.0977037
1280 2.2616446
1278 2.4278755
1276 2.5844285
1274 2.7263589
1272 2.8599389
1270 3.0082226
1268 3.1964142
1266 3.4452465
1264 3.765136
1262 4.1504617
1260 4.5948319
1258 5.0977454
1256 5.6605773
1254 6.2838893
1252 6.9590306
1250 7.6613011
1248 8.3687849
1246 9.0724506
1244 9.7670689
1242 10.446856
1240 11.09392
1238 11.670876
1236 12.147171
1234 12.516772
1232 12.77872
1230 12.927836
1228 12.950657
1226 12.82095
1224 12.52624
1222 12.08449
1220 11.528902
1218 10.91095
1216 10.280926
1214 9.6754646
1212 9.1172161
1210 8.601922
1208 8.1153297
1206 7.6353106
1204 7.1404161
1202 6.6148839
1200 6.0459948
1198 5.4261751
1196 4.7585502
1194 4.0671754
1192 3.3830492
1190 2.7404799
1188 2.1629663
1186 1.6499821
1184 1.2011443
1182 0.82862002
1180 0.55268908
1178 0.40206477
1176 0.386832
1174 0.47125652
1172 0.60242945
1170 0.71589214
1168 0.76414829
1166 0.7445671
1164 0.67457443
1162 0.59149653
1160 0.52678096
1158 0.48722795
1156 0.46763358
1154 0.4492656
1152 0.41463101
1150 0.35695493
1148 0.27633739
1146 0.18334143
1144 0.094098836
1142 0.030532945
1140 0.0042828973
1138 0.0016196021
1136 0.019314241
1134 0.091647513
1132 0.24831986
1130 0.48633647
1128 0.79044926
1126 1.1354849
1124 1.5009532
1122 1.8826804
1120 2.278496
1118 2.6797991
1116 3.0666986
1114 3.3972628
1112 3.6400142
1110 3.803494
1108 3.9191413
1106 4.0479951
1104 4.2378759
1102 4.484159
1100 4.7653093
1098 5.0507445
1096 5.3214283
1094 5.5939817
1092 5.8924222
1090 6.2375402
1088 6.6410713
1086 7.0922074
1084 7.5707512
1082 8.046752
1080 8.4889593
1078 8.8702087
1076 9.1702414
1074 9.3842764
1072 9.516139
1070 9.5827951
1068 9.6042194
1066 9.5997992
1064 9.5853157
1062 9.5667028
1060 9.5427847
1058 9.4993448
1056 9.4182625
1054 9.2794313
1052 9.0666771
1050 8.7774677
1048 8.4239683
1046 8.0499926
1044 7.7027979
1042 7.4149947
1040 7.1989269
1038 7.0190763
1036 6.8304801
1034 6.5966258
1032 6.2923779
1030 5.9210615
1028 5.4995465
1026 5.0631514
1024 4.6447229
1022 4.2544761
1020 3.8930516
1018 3.5496118
1016 3.2190399
1014 2.9220612
1012 2.6744449
1010 2.4582822
1008 2.240768
1006 1.9712114
1004 1.6144162
1002 1.1978475
1000 0.7694512
998 0.39299047
996 0.12028936
994 -0.047900178
992 -0.13166697
990 -0.17720163
988 -0.22799537
986 -0.29787043
984 -0.3888883
982 -0.48852986
980 -0.5803808
978 -0.64706349
976 -0.67220175
974 -0.64368248
972 -0.55505401
970 -0.41531175
968 -0.23789702
966 -0.038272396
964 0.1675984
962 0.36401284
960 0.5361222
958 0.67192799
956 0.76056957
954 0.79276329
952 0.75826275
950 0.64284563
948 0.44834515
946 0.2365154
944 0.075230107
942 0.0011669882
940 0.040748075
938 0.21064171
936 0.5002597
934 0.80932182
932 1.0314785
930 1.1201041
928 1.0556527
926 0.86381406
924 0.58353853
922 0.26104018
920 -0.054642916
918 -0.31089103
916 -0.46032271
914 -0.47901046
912 -0.36063835
910 -0.14422131
908 0.11711499
906 0.35943443
904 0.52008772
902 0.55223113
900 0.43102899
898 0.20344511
896 -0.065596998
