##TITLE=Methyl Ethyl Ketone
##JCAMP-DX=4.24
##DATA TYPE=INFRARED SPECTRUM
##XUNITS=cm-1
##YUNITS=Absorbance
##FIRSTX=900
##LASTX=2300
##XYDATA=(X++(Y..Y))
2296 -0.053769
2294 -0.054887403
2292 -0.056005798
2290 -0.057124201
2288 -0.0582426
2286 -0.059361994
2284 -0.060480401
2282 -0.0615988
2280 -0.062717199
2278 -0.063835599
2276 -0.064954989
2274 -0.066073403
2272 -0.067191802
2270 -0.068310201
2268 -0.0694286
2266 -0.070547
2264 -0.071666375
2262 -0.072784796
2260 -0.073903203
2258 -0.075021602
2256 -0.076140001
2254 -0.077259369
2252 -0.078377806
2250 -0.079496205
2248 -0.080614597
2246 -0.081732996
2244 -0.0030372827
2242 0.075714424
2240 0.15361087
2238 0.2104196
2236 0.26419601
2234 0.27946904
2232 0.29070073
2230 0.27338204
2228 0.25554556
2226 0.244838
2224 0.24117073
2222 0.26833454
2220 0.30481359
2218 0.3648558
2216 0.42777428
2214 0.49407914
2212 0.55657959
2210 0.6125046
2208 0.65172821
2206 0.67061728
2204 0.65825891
2202 0.61699194
2200 0.57676768
2198 0.53871715
2196 0.54847503
2194 0.58576477
2192 0.65080947
2190 0.72725654
2188 0.79521829
2186 0.86017388
2184 0.91817915
2182 0.9746058
2180 1.0149686
2178 1.0526308
2176 1.0637542
2174 1.0718942
2172 1.073238
2170 1.076485
2168 1.0946081
2166 1.1222535
2164 1.1797863
2162 1.2441881
2160 1.3185657
2158 1.3816984
2156 1.42137
2154 1.445228
2152 1.4495634
2150 1.4480982
2148 1.4421766
2146 1.4437321
2144 1.4522011
2142 1.47456
2140 1.5060785
2138 1.5265557
2136 1.5405685
2134 1.5283936
2132 1.5051466
2130 1.4841425
2128 1.4641
2126 1.4766357
2124 1.4968569
2122 1.545375
2120 1.5982372
2118 1.6466225
2116 1.6922628
2114 1.721242
2112 1.7468486
2110 1.767803
2108 1.787468
2106 1.8054843
2104 1.8192897
2102 1.8246318
2100 1.823308
2098 1.8129548
2096 1.8080429
2094 1.8123776
2092 1.8332757
2090 1.8700467
2088 1.900236
2086 1.9226049
2084 1.9206238
2082 1.903096
2080 1.8760817
2078 1.8454428
2076 1.8174214
2074 1.790718
2072 1.7802
2070 1.7749748
2068 1.7940402
2066 1.8197957
2064 1.8610588
2062 1.9069613
2060 1.9626734
2058 2.018714
2056 2.0661485
2054 2.1026189
2052 2.1079395
2050 2.0989802
2048 2.0710979
2046 2.0464427
2044 2.036314
2042 2.0472786
2040 2.084075
2038 2.1311805
2036 2.1825242
2034 2.2180488
2032 2.2377131
2030 2.2452741
2028 2.2469471
2026 2.2622743
2024 2.2878156
2022 2.3275235
2020 2.374357
2018 2.4078429
2016 2.43436
2014 2.4266429
2012 2.4061019
2010 2.3662906
2008 2.3216953
2006 2.2910929
2004 2.2660308
2002 2.2599521
2000 2.2579651
1998 2.2597039
1996 2.2578642
1994 2.2462201
1992 2.2352149
1990 2.2248731
1988 2.2329741
1986 2.2645514
1984 2.3087595
1982 2.3628502
1980 2.4042261
1978 2.4322305
1976 2.4548943
1974 2.4773788
1972 2.5189536
1970 2.5766957
1968 2.6265824
1966 2.6693707
1964 2.6596708
1962 2.6207063
1960 2.5623679
1958 2.4963758
1956 2.4626343
1954 2.4401476
1952 2.4309285
1950 2.421268
1948 2.3970091
1946 2.369725
1944 2.3458576
1942 2.3350196
1940 2.3415029
1938 2.3515196
1936 2.3510284
1934 2.3359129
1932 2.3065801
1930 2.2720022
1928 2.24474
1926 2.2338121
1924 2.2471793
1922 2.2934933
1920 2.3636227
1918 2.432445
1916 2.4860272
1914 2.5005362
1912 2.4886627
1910 2.4633577
1908 2.4353323
1906 2.4082656
1904 2.380424
1902 2.3616495
1900 2.344635
1898 2.3542721
1896 2.3730285
1894 2.3926711
1892 2.4091716
1890 2.389502
1888 2.3510737
1886 2.2770715
1884 2.1935728
1882 2.1184392
1880 2.0535636
1878 2.0123334
1876 1.9704
1874 1.9269805
1872 1.8742536
1870 1.8172443
1868 1.7788632
1866 1.7475672
1864 1.7322686
1862 1.7155861
1860 1.6882675
1858 1.6581857
1856 1.6125257
1854 1.5627122
1852 1.4955028
1850 1.4241769
1848 1.358444
1846 1.3045821
1844 1.276476
1842 1.2674241
1840 1.2531559
1838 1.2293038
1836 1.1921643
1834 1.1428909
1832 1.1088525
1830 1.0956631
1828 1.1184306
1826 1.1628529
1824 1.1885778
1822 1.1755092
1820 1.098914
1818 0.98035729
1816 0.85076487
1814 0.72667873
1812 0.62482756
1810 0.55641001
1808 0.51506901
1806 0.50524801
1804 0.51806104
1802 0.50407791
1800 0.46752885
1798 0.39234999
1796 0.29259285
1794 0.25723928
1792 0.2608912
1790 0.3404457
1788 0.45281622
1786 0.52746528
1784 0.56948763
1782 0.57104015
1780 0.54522252
1778 0.519844
1776 0.49526829
1774 0.47646251
1772 0.46393439
1770 0.41853085
1768 0.35882396
1766 0.27973422
1764 0.185075
1762 0.1020757
1760 0.028075678
1758 -0.10053998
1756 -0.23377314
1754 -0.31697708
1752 -0.33644402
1750 -0.288528
1748 -0.22850469
1746 -0.18527965
1744 -0.19187047
1742 -0.26049161
1740 -0.33342806
1738 -0.39298734
1736 -0.35051599
1734 -0.21846458
1732 -0.07112246
1730 0.070079684
1728 0.079822198
1726 -0.010767199
1724 -0.076697275
1722 -0.10820763
1720 -0.0013251156
1718 0.23062523
1716 0.65673983
1714 1.2260628
1712 1.7878485
1710 2.3197777
1708 2.8331919
1706 3.4707978
1704 4.3970237
1702 5.8920064
1700 8.0909739
1698 11.204248
1696 15.154428
1694 19.14241
1692 22.811232
1690 26.063772
1688 28.992336
1686 32.480602
1684 36.617527
1682 41.546471
1680 47.073997
1678 51.853836
1676 55.930397
1674 59.868282
1672 63.801155
1670 68.471443
1668 73.696175
1666 78.86055
1664 83.844772
1662 88.28289
1660 92.186707
1658 95.572769
1656 98.447227
1654 100.84728
1652 102.58601
1650 103.46159
1648 103.14434
1646 101.36071
1644 98.693848
1642 95.735001
1640 92.534569
1638 89.190422
1636 85.332481
1634 80.853989
1632 76.289543
1630 71.823265
1628 67.622032
1626 63.704552
1624 59.67112
1622 55.480518
1620 51.312855
1618 47.189415
1616 43.262714
1614 39.556427
1612 36.267353
1610 33.40712
1608 30.985207
1606 28.985708
1604 27.275429
1602 25.868847
1600 24.739799
1598 23.887911
1596 23.272499
1594 22.886433
1592 22.681807
1590 22.637419
1588 22.706314
1586 22.852264
1584 23.047132
1582 23.27413
1580 23.530334
1578 23.874651
1576 24.325998
1574 24.94751
1572 25.73308
1570 26.635391
1568 27.63356
1566 28.663593
1564 29.729156
1562 31.053802
1560 32.743755
1558 35.374664
1556 39.0173
1554 42.89819
1552 46.776779
1550 49.762524
1548 51.888607
1546 53.761608
1544 55.400761
1542 56.912533
1540 58.105701
1538 58.617432
1536 58.379913
1534 57.438683
1532 56.022568
1530 54.517128
1528 52.927017
1526 51.257801
1524 49.416874
1522 47.322067
1520 45.053493
1518 42.586182
1516 40.245655
1514 38.159504
1512 36.174519
1510 34.3251
1508 32.045773
1506 29.195957
1504 26.238937
1502 23.179996
1500 20.527563
1498 18.32427
1496 16.144714
1494 13.993809
1492 11.818131
1490 9.6427069
1488 7.5073762
1486 5.4850645
1484 3.6945939
1482 2.1986408
1480 1.0845881
1478 0.36791313
1476 0.059953928
1474 0.28345072
1472 0.98269773
1470 1.9049761
1468 2.8806338
1466 3.721777
1464 4.3406219
1462 4.8766322
1460 5.3891935
1458 5.9311433
1456 6.5116401
1454 6.9926081
1452 7.2741814
1450 7.4040914
1448 7.3076978
1446 7.1641607
1444 6.9603333
1442 6.7385011
1440 6.4921451
1438 6.1791835
1436 5.7760386
1434 5.2194996
1432 4.5264301
1430 3.8242955
1428 3.15221
1426 2.6406822
1424 2.2930641
1422 2.0939691
1420 2.0476491
1418 2.1176529
1416 2.2857742
1414 2.527112
1412 2.7827249
1410 3.053997
1408 3.3340423
1406 3.6368101
1404 3.9702346
1402 4.3301635
1400 4.7088919
1398 5.1032839
1396 5.5014644
1394 5.8889837
1392 6.2312822
1390 6.4543009
1388 6.5568562
1386 6.457345
1384 6.2323008
1382 5.8375354
1380 5.3824892
1378 4.8665972
1376 4.3419771
1374 3.8407018
1372 3.3840921
1370 2.9818285
1368 2.6397047
1366 2.3072507
1364 1.9262161
1362 1.5041531
1360 1.0313442
1358 0.5888505
1356 0.27349347
1354 0.060471684
1352 0.0064890562
1350 0.02994746
1348 0.12588125
1346 0.24826536
1344 0.41160959
1342 0.58895528
1340 0.79345644
1338 0.99800199
1336 1.1896257
1334 1.3779503
1332 1.5183934
1330 1.656726
1328 1.7915349
1326 1.9515049
1324 2.173007
1322 2.439075
1320 2.7763999
1318 3.1371131
1316 3.5174599
1314 3.8675513
1312 4.1634231
1310 4.3934879
1308 4.5473003
1306 4.6416054
1304 4.6830845
1302 4.6705842
1300 4.6231732
1298 4.5297523
1296 4.4269571
1294 4.327024
1292 4.246314
1290 4.2095947
1288 4.1886759
1286 4.18927
1284 4.1888356
1282 4.1765189
1280 4.164197
1278 4.1505256
1276 4.1434841
1274 4.157268
1272 4.1861162
1270 4.2479753
1268 4.3307452
1266 4.4397478
1264 4.5587568
1262 4.6824803
1260 4.8014698
1258 4.9162459
1256 5.0325112
1254 5.1504416
1252 5.2719297
1250 5.3896637
1248 5.4882059
1246 5.5689502
1244 5.6139526
1242 5.6385784
1240 5.6345286
1238 5.6119089
1236 5.5557518
1234 5.4706478
1232 5.314168
1230 5.1180625
1228 4.8177309
1226 4.4833636
1224 4.0599551
1222 3.6208572
1220 3.1447482
1218 2.671845
1216 2.2063
1214 1.7556782
1212 1.3352531
1210 0.94599509
1208 0.6063205
1206 0.31118506
1204 0.070554286
1202 -0.13422377
1200 -0.30113336
1198 -0.44113043
1196 -0.55251145
1194 -0.62604558
1192 -0.66761506
1190 -0.66512948
1188 -0.63535011
1186 -0.57341349
1184 -0.4941119
1182 -0.38710067
1180 -0.26257408
1178 -0.089757621
1176 0.1090648
1174 0.38818038
1172 0.68294227
1170 1.0161251
1168 1.3238525
1166 1.5473886
1164 1.7231346
1162 1.779768
1160 1.8013577
1158 1.7512567
1156 1.6686558
1154 1.531354
1152 1.3647069
1150 1.1608064
1148 0.95227039
1146 0.74074137
1144 0.53957403
1142 0.3505106
1140 0.18435545
1138 0.047161315
1136 -0.015619943
1134 -0.017664656
1132 0.092180625
1130 0.25554401
1128 0.47669607
1126 0.70498079
1124 0.88980711
1122 1.055221
1120 1.1581841
1118 1.2498473
1116 1.311717
1114 1.3720511
1112 1.4295902
1110 1.5048937
1108 1.638702
1106 1.8035251
1104 2.0408111
1102 2.2620161
1100 2.4429786
1098 2.5518856
1096 2.5460572
1094 2.497344
1092 2.3995719
1090 2.3226738
1088 2.2713704
1086 2.2615857
1084 2.2847226
1082 2.3162556
1080 2.3443418
1078 2.307698
1076 2.2344069
1074 2.1043177
1072 1.9618685
1070 1.8669233
1068 1.7892303
1066 1.7644143
1064 1.744616
1062 1.7113804
1060 1.676662
1058 1.6355484
1056 1.5965029
1054 1.5654386
1052 1.5279597
1050 1.469744
1048 1.3956509
1046 1.2836535
1044 1.168798
1042 1.0498233
1040 0.95077497
1038 0.88108069
1036 0.82775801
1034 0.79208374
1032 0.74437428
1030 0.68321496
1028 0.58410221
1026 0.45840636
1024 0.32171845
1022 0.18351445
1020 0.093101822
1018 0.023699746
1016 -0.012029281
1014 -0.042249262
1012 -0.11160886
1010 -0.19122431
1008 -0.31421122
1006 -0.43854809
1004 -0.53779507
1002 -0.63092589
1000 -0.68415987
998 -0.73002249
996 -0.7428143
994 -0.73965573
992 -0.68795884
990 -0.63174379
988 -0.56703979
986 -0.52514857
984 -0.52215528
982 -0.52891284
980 -0.54653239
978 -0.54272991
976 -0.51693314
974 -0.48434955
972 -0.44732058
970 -0.42459613
968 -0.40911308
966 -0.38089949
964 -0.34538224
962 -0.28294078
960 -0.21248293
958 -0.1433365
956 -0.076789089
954 -0.051780485
952 -0.033763882
950 -0.059647202
948 -0.081772335
946 -0.024916178
944 0.0028995052
942 0.090307862
940 0.2656188
938 0.46781731
936 0.64208627
934 0.73502707
932 0.81864184
930 0.88311249
928 0.97725093
926 1.1189886
924 1.26776
922 1.4244888
920 1.525128
918 1.5722291
916 1.5479257
914 1.4727263
912 1.3893137
910 1.303777
908 1.2817429
906 1.287195
904 1.3565034
902 1.4446465
900 1.5719839
898 1.7062141
896 1.8559
