##TITLE=Methyl Ethyl Ketone
##JCAMP-DX=4.24
##DATA TYPE=INFRARED SPECTRUM
##XUNITS=cm-1
##YUNITS=Absorbance
##FIRSTX=900
##LASTX=2300
##XYDATA=(X++(Y..Y))
2296 -0.018568
2294 -0.018954447
2292 -0.019340893
2290 -0.019727342
2288 -0.020113789
2286 -0.020499242
2284 -0.020885682
2282 -0.02127213
2280 -0.021658577
2278 -0.022045026
2276 -0.022431472
2274 -0.022816934
2272 -0.023203366
2270 -0.023589812
2268 -0.023976261
2266 -0.024362708
2264 -0.024749154
2262 -0.025135601
2260 -0.025521073
2258 -0.025907496
2256 -0.026293943
2254 -0.026680389
2252 -0.027066836
2250 -0.027453283
2248 -0.027838767
2246 -0.02822518
2244 -0.0010488771
2242 0.0048399274
2240 0.014369044
2238 -0.00014972204
2236 -0.018215915
2234 -0.019637285
2232 -0.018922657
2230 0.0025975464
2228 0.024326004
2226 0.0399407
2224 0.050458316
2222 0.039217804
2220 0.026915474
2218 0.014995836
2216 0.017242599
2214 0.050392535
2212 0.093752302
2210 0.15078953
2208 0.19785218
2206 0.23143336
2204 0.25652343
2202 0.27423179
2200 0.29381368
2198 0.31514642
2196 0.33957642
2194 0.36573312
2192 0.39309788
2190 0.4209553
2188 0.44077963
2186 0.45797035
2184 0.47190478
2182 0.48512515
2180 0.51138479
2178 0.53951067
2176 0.56031281
2174 0.57821584
2172 0.57100117
2170 0.5594939
2168 0.53712493
2166 0.51546735
2164 0.500319
2162 0.49782866
2160 0.52611387
2158 0.56958103
2156 0.63589299
2154 0.69170618
2152 0.72889018
2150 0.74175477
2148 0.72940677
2146 0.71315926
2144 0.69582671
2142 0.6967513
2140 0.71046412
2138 0.72675121
2136 0.74371141
2134 0.73424387
2132 0.71355665
2130 0.68657678
2128 0.65788442
2126 0.64906949
2124 0.64494419
2122 0.64463639
2120 0.64468622
2118 0.64043915
2116 0.63741481
2114 0.64786541
2112 0.66187453
2110 0.68284446
2108 0.70288515
2106 0.71711278
2104 0.73327929
2102 0.755683
2100 0.77985239
2098 0.80547982
2096 0.82533145
2094 0.83743429
2092 0.84592265
2090 0.85185045
2088 0.85169941
2086 0.84668505
2084 0.82872283
2082 0.80260229
2080 0.76814651
2078 0.7299546
2076 0.70638168
2074 0.68910861
2072 0.70203519
2070 0.72454709
2068 0.75258714
2066 0.78163761
2064 0.79434574
2062 0.80397373
2060 0.81271535
2058 0.82005298
2056 0.82055575
2054 0.81141895
2052 0.7731508
2050 0.72697586
2048 0.67599791
2046 0.64056176
2044 0.63753319
2042 0.65363193
2040 0.68853819
2038 0.71687829
2036 0.73223501
2034 0.74224019
2032 0.74950773
2030 0.7764346
2028 0.81966043
2026 0.8673743
2024 0.91655284
2022 0.92884827
2020 0.92203343
2018 0.86747402
2016 0.79353803
2014 0.72546256
2012 0.65952653
2010 0.65868044
2008 0.67641956
2006 0.72016382
2004 0.76561487
2002 0.77815801
2000 0.7772184
1998 0.75637448
1996 0.73325431
1994 0.71981502
1992 0.70998722
1990 0.70075434
1988 0.68442142
1986 0.65260059
1984 0.60816652
1982 0.55136436
1980 0.50140822
1978 0.46353769
1976 0.46356285
1974 0.49691707
1972 0.55803317
1970 0.63571954
1968 0.68719471
1966 0.71999389
1964 0.70567763
1962 0.66734177
1960 0.62985998
1958 0.59385145
1956 0.58087456
1954 0.57588017
1952 0.5723868
1950 0.56821954
1948 0.56356078
1946 0.55812252
1944 0.54769468
1942 0.53709394
1940 0.52294159
1938 0.51176298
1936 0.50923544
1934 0.50596511
1932 0.49898401
1930 0.47824416
1928 0.4402056
1926 0.40853241
1924 0.39329377
1922 0.42055309
1920 0.48741114
1918 0.55878907
1916 0.62258929
1914 0.65202409
1912 0.65680176
1910 0.65233392
1908 0.6458447
1906 0.63909709
1904 0.63187921
1902 0.63129026
1900 0.63296008
1898 0.65152615
1896 0.67642999
1894 0.70401889
1892 0.72993052
1890 0.73328441
1888 0.71998191
1886 0.66750979
1884 0.59706736
1882 0.51529509
1880 0.43560052
1878 0.37259036
1876 0.322595
1874 0.29095984
1872 0.28342092
1870 0.3059642
1868 0.34973586
1866 0.40235451
1864 0.42468131
1862 0.4069868
1860 0.35722232
1858 0.29012907
1856 0.22994401
1854 0.1806186
1852 0.14624055
1850 0.12282044
1848 0.1132704
1846 0.11364357
1844 0.13067757
1842 0.15789761
1840 0.18267766
1838 0.20436765
1836 0.22613528
1834 0.24925891
1832 0.29495794
1830 0.35216743
1828 0.40966517
1826 0.45485035
1824 0.45464984
1822 0.42223641
1820 0.3619332
1818 0.29637051
1816 0.246736
1814 0.21146959
1812 0.19140568
1810 0.17839804
1808 0.16621423
1806 0.1707425
1804 0.19194967
1802 0.21622083
1800 0.24175599
1798 0.24891855
1796 0.24191
1794 0.25287917
1792 0.27509761
1790 0.30556664
1788 0.33625293
1786 0.34182113
1784 0.33032343
1782 0.31306383
1780 0.29133824
1778 0.27236611
1776 0.25807858
1774 0.25868106
1772 0.26992542
1770 0.27615586
1768 0.26816919
1766 0.22354192
1764 0.1555008
1762 0.082600966
1760 0.020797947
1758 -0.082062393
1756 -0.18352857
1754 -0.23769443
1752 -0.23232257
1750 -0.1707738
1748 -0.10909463
1746 -0.068335071
1744 -0.098869041
1742 -0.19837725
1740 -0.29682523
1738 -0.38011619
1736 -0.362896
1734 -0.26593244
1732 -0.15134135
1730 -0.035767026
1728 -0.021036724
1726 -0.076160014
1724 -0.11170467
1722 -0.1130967
1720 -0.0028398111
1718 0.20237976
1716 0.57089782
1714 1.0487314
1712 1.5226938
1710 1.992318
1708 2.4704039
1706 3.0836334
1704 3.9575958
1702 5.3414063
1700 7.3593974
1698 10.254057
1696 14.007857
1694 17.9016
1692 21.591484
1690 24.884951
1688 27.81472
1686 31.238605
1684 35.252724
1682 40.190086
1680 45.87056
1678 50.999859
1676 55.581669
1674 59.911438
1672 64.115051
1670 68.856873
1668 73.983765
1666 78.966751
1664 83.729568
1662 88.001213
1660 91.784042
1658 95.055626
1656 97.809914
1654 100.05257
1652 101.6628
1650 102.53928
1648 102.32954
1646 100.78
1644 98.437233
1642 95.826431
1640 92.995384
1638 90.014511
1636 86.393311
1634 81.998543
1632 77.345825
1630 72.644852
1628 68.149673
1626 63.897091
1624 59.511478
1622 54.955574
1620 50.500809
1618 46.174789
1616 42.224228
1614 38.664898
1612 35.583836
1610 32.9725
1608 30.722641
1606 28.820829
1604 27.160004
1602 25.774471
1600 24.688965
1598 23.902515
1596 23.365
1594 23.036385
1592 22.833885
1590 22.736753
1588 22.708979
1586 22.764721
1584 22.908457
1582 23.14259
1580 23.464443
1578 23.913441
1576 24.498571
1574 25.249077
1572 26.160851
1570 27.168425
1568 28.25172
1566 29.340122
1564 30.43004
1562 31.683174
1560 33.193859
1558 35.606304
1556 39.000927
1554 42.829689
1552 46.856194
1550 50.001274
1548 52.285339
1546 54.211716
1544 55.800377
1542 57.209549
1540 58.304901
1538 58.895355
1536 58.905228
1534 58.33659
1532 57.318939
1530 56.066925
1528 54.583755
1526 52.883347
1524 50.921833
1522 48.661663
1520 46.203697
1518 43.565983
1516 41.077557
1514 38.864918
1512 36.764561
1510 34.775188
1508 32.310043
1506 29.218594
1504 26.086063
1502 22.95789
1500 20.288958
1498 18.127911
1496 15.986857
1494 13.864904
1492 11.721754
1490 9.5728102
1488 7.4575677
1486 5.4444189
1484 3.644496
1482 2.1454079
1480 1.0372472
1478 0.33725369
1476 0.063214131
1474 0.32403782
1472 1.0740156
1470 2.043463
1468 3.0749207
1466 3.9890707
1464 4.6723356
1462 5.2401595
1460 5.7231555
1458 6.1744576
1456 6.5954599
1454 6.9314528
1452 7.1262288
1450 7.1980162
1448 7.0887518
1446 6.9174604
1444 6.6647983
1442 6.405549
1440 6.1369781
1438 5.8438177
1436 5.5014472
1434 5.043848
1432 4.4705949
1430 3.8616116
1428 3.2630799
1426 2.7965386
1424 2.4792936
1422 2.3125739
1420 2.2805011
1418 2.3413329
1416 2.4729428
1414 2.6530771
1412 2.86182
1410 3.105391
1408 3.3732448
1406 3.6725936
1404 3.998363
1402 4.3533072
1400 4.7248001
1398 5.1149015
1396 5.4956713
1394 5.8492093
1392 6.1443915
1390 6.3221631
1388 6.3936071
1386 6.2908897
1384 6.0752344
1382 5.7053576
1380 5.2782407
1378 4.7889652
1376 4.2931657
1374 3.8090332
1372 3.3640981
1370 2.9657781
1368 2.6133938
1366 2.2683492
1364 1.8689245
1362 1.4248265
1360 0.94031024
1358 0.49472952
1356 0.18982175
1354 0.0030562934
1352 -0.017260367
1350 0.035389304
1348 0.14417937
1346 0.27026609
1344 0.4354232
1342 0.61849999
1340 0.83347213
1338 1.0489975
1336 1.2587886
1334 1.4570024
1332 1.6219085
1330 1.7921109
1328 1.9737211
1326 2.1830378
1324 2.4412792
1322 2.7286057
1320 3.0577776
1318 3.4031677
1316 3.7620001
1314 4.107018
1312 4.4215431
1310 4.6833258
1308 4.8864498
1306 5.0302243
1304 5.125495
1302 5.174706
1300 5.1879101
1298 5.1505399
1296 5.0842857
1294 4.9793758
1292 4.8721943
1290 4.7804246
1288 4.7066841
1286 4.6733985
1284 4.6491284
1282 4.6396117
1280 4.6358495
1278 4.6450467
1276 4.6656971
1274 4.7108059
1272 4.7634792
1270 4.8319893
1268 4.9120774
1266 5.0095901
1264 5.1228347
1262 5.2512274
1260 5.3773141
1258 5.4989424
1256 5.6123657
1254 5.7211256
1252 5.8361602
1250 5.9546614
1248 6.0723443
1246 6.1857748
1244 6.283318
1242 6.366786
1240 6.4214749
1238 6.4470263
1236 6.4032812
1234 6.3160667
1232 6.1303601
1230 5.9078007
1228 5.5980105
1226 5.2606459
1224 4.8501091
1222 4.4180765
1220 3.9355497
1218 3.449388
1216 2.9578886
1214 2.4803455
1212 2.0313265
1210 1.6165572
1208 1.2585994
1206 0.96179056
1204 0.7405436
1202 0.56700474
1200 0.43598878
1198 0.30664054
1196 0.17842227
1194 0.049032964
1192 -0.072319612
1190 -0.1570023
1188 -0.21410038
1186 -0.2238493
1184 -0.209538
1182 -0.1600183
1180 -0.084460519
1178 0.065456048
1176 0.25281799
1174 0.5512594
1172 0.85995603
1170 1.1805847
1168 1.4656274
1166 1.6379843
1164 1.7658966
1162 1.783219
1160 1.7694212
1158 1.6925951
1156 1.5934143
1154 1.4580209
1152 1.3129365
1150 1.1543916
1148 0.98724806
1146 0.80823392
1144 0.61314839
1142 0.40761542
1140 0.21865998
1138 0.054623596
1136 -0.034526542
1134 -0.067360848
1132 -0.0023632795
1130 0.10882817
1128 0.26653928
1126 0.43333948
1124 0.58181572
1122 0.72281384
1120 0.84115523
1118 0.95464259
1116 1.0531315
1114 1.1506306
1112 1.246052
1110 1.3535254
1108 1.4988539
1106 1.64544
1104 1.7894629
1102 1.887748
1100 1.8924186
1098 1.8458798
1096 1.7225143
1094 1.6040752
1092 1.497712
1090 1.4353732
1088 1.4193223
1086 1.4340707
1084 1.4718611
1082 1.5078766
1080 1.5382949
1078 1.5352601
1076 1.5108571
1074 1.4407802
1072 1.3536143
1070 1.2507513
1068 1.1463429
1066 1.0567434
1064 0.96980238
1062 0.88797629
1060 0.80628121
1058 0.7238239
1056 0.64665085
1054 0.59286457
1052 0.54518324
1050 0.51658762
1048 0.48346525
1046 0.43872964
1044 0.38619334
1042 0.31883287
1040 0.2500366
1038 0.17952555
1036 0.1149716
1034 0.057404332
1032 0.0012258664
1030 -0.05512806
1028 -0.1286688
1026 -0.21469194
1024 -0.30983657
1022 -0.40863299
1020 -0.49474946
1018 -0.57446903
1016 -0.63622576
1014 -0.69083148
1012 -0.71995401
1010 -0.74354744
1008 -0.75396323
1006 -0.76488286
1004 -0.79511148
1002 -0.82711166
1000 -0.86993527
998 -0.90660471
996 -0.91550571
994 -0.90930361
992 -0.85623461
990 -0.79305029
988 -0.70786083
986 -0.63742203
984 -0.59387076
982 -0.57922542
980 -0.603221
978 -0.63556963
976 -0.67578799
974 -0.70109379
972 -0.71290696
970 -0.69414413
968 -0.65436596
966 -0.57191449
964 -0.46989071
962 -0.36272085
960 -0.25646532
958 -0.20051095
956 -0.157214
954 -0.15378925
952 -0.15464599
950 -0.14170904
948 -0.1235653
946 -0.04004389
944 0.0018065497
942 0.056216538
940 0.16367248
938 0.28027308
936 0.38267773
934 0.44348454
932 0.49383309
930 0.52162975
928 0.53762734
926 0.53439093
924 0.5077616
922 0.45317337
920 0.41216987
918 0.38398862
916 0.37905157
914 0.39009547
912 0.38186508
910 0.36415491
908 0.36571434
906 0.3758601
904 0.43046302
902 0.49736273
900 0.55624539
898 0.61403191
896 0.65033001
