##TITLE=Methyl Ethyl Ketone
##JCAMP-DX=4.24
##DATA TYPE=INFRARED SPECTRUM
##XUNITS=cm-1
##YUNITS=Absorbance
##FIRSTX=900
##LASTX=2300
##XYDATA=(X++(Y..Y))
2296 0.10212
2294 0.10424696
2292 0.10636394
2290 0.10849087
2288 0.11061782
2286 0.11273486
2284 0.11486175
2282 0.1169887
2280 0.11911566
2278 0.12123275
2276 0.12335957
2274 0.12548654
2272 0.12761348
2270 0.12972081
2268 0.1318572
2266 0.13402349
2264 0.13611223
2262 0.13810168
2260 0.14035189
2258 0.14297834
2256 0.14462371
2254 0.14489309
2252 0.14879365
2250 0.15781772
2248 0.15334937
2246 0.11796428
2244 0.061552797
2242 0.0042289821
2240 -0.023635261
2238 -0.0014172518
2236 0.040773906
2234 0.065911628
2232 0.06742043
2230 0.047875982
2228 0.010872073
2226 -0.039980382
2224 -0.1017888
2222 -0.16814601
2220 -0.21765064
2218 -0.22951567
2216 -0.20342429
2214 -0.15049273
2212 -0.103073
2210 -0.093364641
2208 -0.12727529
2206 -0.19717599
2204 -0.2733022
2202 -0.32324708
2200 -0.33098811
2198 -0.29081851
2196 -0.217895
2194 -0.13444529
2192 -0.065384567
2190 -0.031674746
2188 -0.035169605
2186 -0.068302371
2184 -0.10987688
2182 -0.13827188
2180 -0.14750615
2178 -0.13931252
2176 -0.126084
2174 -0.12233661
2172 -0.13765721
2170 -0.17670749
2168 -0.23120914
2166 -0.28723794
2164 -0.32548141
2162 -0.33046633
2160 -0.3096115
2158 -0.27786428
2156 -0.24917001
2154 -0.2316843
2152 -0.21210508
2150 -0.17507236
2148 -0.12693854
2146 -0.083208568
2144 -0.065153956
2142 -0.088741489
2140 -0.14068688
2138 -0.19907159
2136 -0.24911113
2134 -0.28342277
2132 -0.31352445
2130 -0.35530046
2128 -0.41525641
2126 -0.49046788
2124 -0.5540725
2122 -0.57575148
2120 -0.54646808
2118 -0.4729881
2116 -0.39382702
2114 -0.35056999
2112 -0.34986863
2110 -0.38063455
2108 -0.41386187
2106 -0.42212012
2104 -0.41045016
2102 -0.39581117
2100 -0.3925918
2098 -0.40913355
2096 -0.43472427
2094 -0.45486557
2092 -0.46952873
2090 -0.48683468
2088 -0.52410609
2086 -0.59782702
2084 -0.70693994
2082 -0.83920342
2080 -0.9651807
2078 -1.0521086
2076 -1.0803614
2074 -1.043837
2072 -0.9690572
2070 -0.89400798
2068 -0.85118127
2066 -0.8627885
2064 -0.91999471
2062 -1.0013212
2060 -1.0849242
2058 -1.1518711
2056 -1.1913686
2054 -1.1969692
2052 -1.1642017
2050 -1.0943246
2048 -1.0084063
2046 -0.9344539
2044 -0.8947674
2042 -0.90178978
2040 -0.93868583
2038 -0.97857785
2036 -1.0047858
2034 -1.0095876
2032 -1.0005227
2030 -0.99019277
2028 -0.98412204
2026 -0.98433453
2024 -0.99286246
2022 -1.0122628
2020 -1.0464466
2018 -1.0965964
2016 -1.14976
2014 -1.1875514
2012 -1.1959146
2010 -1.1694845
2008 -1.1301137
2006 -1.1075079
2004 -1.1120309
2002 -1.1414551
2000 -1.1814257
1998 -1.2165693
1996 -1.2483715
1994 -1.2834911
1992 -1.315412
1990 -1.3289765
1988 -1.30165
1986 -1.2167108
1984 -1.0954257
1982 -0.9769792
1980 -0.89763945
1978 -0.88159537
1976 -0.91287804
1974 -0.95639342
1972 -0.97826153
1970 -0.95553374
1968 -0.90367931
1966 -0.85555142
1964 -0.83752656
1962 -0.86298889
1960 -0.9092012
1958 -0.93973362
1956 -0.93607187
1954 -0.89450902
1952 -0.83045423
1950 -0.76764798
1948 -0.72685868
1946 -0.72405249
1944 -0.76388007
1942 -0.8401944
1940 -0.92460352
1938 -0.98253489
1936 -1.0009608
1934 -0.98282576
1932 -0.94710761
1930 -0.914186
1928 -0.87755781
1926 -0.81579906
1924 -0.70772386
1922 -0.54292202
1920 -0.35184127
1918 -0.1823007
1916 -0.061773814
1914 -0.00048699044
1912 0.010063403
1910 -0.01676861
1908 -0.086586729
1906 -0.20892844
1904 -0.36119962
1902 -0.5012325
1900 -0.58383113
1898 -0.57433695
1896 -0.48440713
1894 -0.35309118
1892 -0.22463749
1890 -0.1388644
1888 -0.1135
1886 -0.14965279
1884 -0.23129903
1882 -0.33308735
1880 -0.42693865
1878 -0.48559451
1876 -0.48869899
1874 -0.42494908
1872 -0.30476984
1870 -0.15513553
1868 -0.021084936
1866 0.05105266
1864 0.051448897
1862 -0.0041371584
1860 -0.08765161
1858 -0.16977865
1856 -0.23836829
1854 -0.28950235
1852 -0.30720699
1850 -0.27382955
1848 -0.2022264
1846 -0.12819071
1844 -0.10195948
1842 -0.16788495
1840 -0.31312126
1838 -0.48785633
1836 -0.64019245
1834 -0.72655779
1832 -0.72892666
1830 -0.65268177
1828 -0.53681087
1826 -0.43752465
1824 -0.39998057
1822 -0.4477089
1820 -0.54888642
1818 -0.64007163
1816 -0.67216456
1814 -0.62091076
1812 -0.51394361
1810 -0.40565372
1808 -0.32427427
1806 -0.2706385
1804 -0.21709397
1802 -0.12583247
1800 0.01221462
1798 0.17851199
1796 0.32567072
1794 0.39615521
1792 0.36323079
1790 0.23479772
1788 0.071583286
1786 -0.045113027
1784 -0.092340536
1782 -0.088968232
1780 -0.041896842
1778 0.053782821
1776 0.19336715
1774 0.3547703
1772 0.47522569
1770 0.48040918
1768 0.36942744
1766 0.20240629
1764 0.063888162
1762 0.021959173
1760 0.022460178
1758 -0.049297407
1756 -0.17542337
1754 -0.24091183
1752 -0.18131937
1750 0.00059834868
1748 0.22991233
1746 0.39427966
1744 0.4209393
1742 0.29237944
1740 0.082093649
1738 -0.089989506
1736 -0.18004601
1734 -0.21795718
1732 -0.26958179
1730 -0.39933163
1728 -0.58213675
1726 -0.72125477
1724 -0.71497566
1722 -0.4758324
1720 0.047415435
1718 0.85621452
1716 1.84521
1714 2.8416324
1712 3.7271392
1710 4.4675131
1708 5.1674957
1706 6.0313077
1704 7.2553444
1702 8.9942045
1700 11.30798
1698 14.141058
1696 17.237715
1694 20.23102
1692 22.934366
1690 25.385294
1688 27.865149
1686 30.781378
1684 34.329121
1682 38.419582
1680 42.572441
1678 46.140869
1676 49.07177
1674 51.850559
1672 54.942795
1670 58.626003
1668 62.791515
1666 67.051201
1664 71.156158
1662 75.04039
1660 78.696198
1658 82.147789
1656 85.465111
1654 88.729515
1652 91.898537
1650 94.773758
1648 96.951775
1646 97.967934
1644 97.834839
1642 96.976456
1640 95.648254
1638 93.853104
1636 91.48243
1634 88.420387
1632 84.79509
1630 80.937386
1628 77.048515
1626 73.155342
1624 69.208038
1622 65.135895
1620 60.953106
1618 56.758316
1616 52.658859
1614 48.753731
1612 45.147194
1610 41.93343
1608 39.126019
1606 36.661446
1604 34.478748
1602 32.543194
1600 30.849005
1598 29.412134
1596 28.2265
1594 27.255251
1592 26.4506
1590 25.76622
1588 25.193419
1586 24.761515
1584 24.500931
1582 24.4356
1580 24.590845
1578 24.991648
1576 25.644829
1574 26.525959
1572 27.546379
1570 28.570095
1568 29.508801
1566 30.341806
1564 31.099176
1562 31.880745
1560 32.951172
1558 34.665859
1556 37.03297
1554 39.663681
1552 42.130531
1550 44.121464
1548 45.666
1546 47.108574
1544 48.645943
1542 50.205524
1540 51.525799
1538 52.239235
1536 52.191402
1534 51.518616
1532 50.501286
1530 49.479843
1528 48.620239
1526 47.86145
1524 47.053978
1522 46.009228
1520 44.583996
1518 42.728775
1516 40.575985
1514 38.409092
1512 36.335361
1510 34.212563
1508 31.837675
1506 29.049892
1504 25.963646
1502 22.9757
1500 20.344101
1498 18.0723
1496 16.051714
1494 14.114353
1492 12.144591
1490 10.11271
1488 8.0255108
1486 5.9238243
1484 3.9252501
1482 2.2213349
1480 0.95947635
1478 0.21491468
1476 0.065902352
1474 0.57274312
1472 1.5761452
1470 2.6765571
1468 3.6136627
1466 4.3798928
1464 5.0553536
1462 5.7414303
1460 6.4268546
1458 6.9547491
1456 7.1782403
1454 7.0302205
1452 6.5951533
1450 6.1100221
1448 5.7074895
1446 5.3444715
1444 4.9815073
1442 4.633132
1440 4.3159275
1438 4.0277324
1436 3.7302659
1434 3.3521185
1432 2.869137
1430 2.3349915
1428 1.8356839
1426 1.468865
1424 1.2832829
1422 1.2537487
1420 1.326534
1418 1.4362024
1416 1.5469342
1414 1.6694781
1412 1.8321937
1410 2.0699086
1408 2.398715
1406 2.8048813
1404 3.2649591
1402 3.7499218
1400 4.2223239
1398 4.6357818
1396 4.9498644
1394 5.1396165
1392 5.2064414
1390 5.1835876
1388 5.0999775
1386 4.9678302
1384 4.7960424
1382 4.5943394
1380 4.376812
1378 4.1609755
1376 3.949537
1374 3.7241645
1372 3.474546
1370 3.2094181
1368 2.9414582
1366 2.6788487
1364 2.4047103
1362 2.071254
1360 1.6572378
1358 1.1961129
1356 0.7480514
1354 0.38839579
1352 0.15110226
1350 0.0019051805
1348 -0.09433157
1346 -0.14743786
1344 -0.14752319
1342 -0.068765938
1340 0.07913439
1338 0.22600651
1336 0.30421969
1334 0.27927029
1332 0.16524456
1330 0.039473809
1328 -0.031514853
1326 -0.023941459
1324 0.068090402
1322 0.23582409
1320 0.46164691
1318 0.71764779
1316 0.96754497
1314 1.1681094
1312 1.2937857
1310 1.3526804
1308 1.3671941
1306 1.3690429
1304 1.3814611
1302 1.408775
1300 1.447924
1298 1.4907452
1296 1.5319428
1294 1.5731095
1292 1.6198552
1290 1.6813575
1288 1.763616
1286 1.8656914
1284 1.9846069
1282 2.1164069
1280 2.2579217
1278 2.4080477
1276 2.5664041
1274 2.7338929
1272 2.9156113
1270 3.1236053
1268 3.3720272
1266 3.674768
1264 4.0398293
1262 4.4639597
1260 4.9385819
1258 5.4513168
1256 5.9948397
1254 6.5734067
1252 7.193686
1250 7.8610897
1248 8.5743599
1246 9.319375
1244 10.075677
1242 10.816708
1240 11.512748
1238 12.12867
1236 12.638486
1234 13.030911
1232 13.3068
1230 13.479095
1228 13.557897
1226 13.543021
1224 13.429315
1222 13.208047
1220 12.872411
1218 12.42126
1216 11.865057
1214 11.233587
1212 10.559258
1210 9.8717003
1208 9.1887321
1206 8.5010004
1204 7.7984581
1202 7.0810862
1200 6.3581948
1198 5.6527886
1196 4.9859428
1194 4.3666916
1192 3.7990024
1190 3.281621
1188 2.811959
1186 2.3874485
1184 2.006176
1182 1.669053
1180 1.3814751
1178 1.1569226
1176 1.0055979
1174 0.9255029
1172 0.90378213
1170 0.9106397
1168 0.91673702
1166 0.90348798
1164 0.86151356
1162 0.79638088
1160 0.71762913
1158 0.63543326
1156 0.55759633
1154 0.48580357
1152 0.41734439
1150 0.34325659
1148 0.25674999
1146 0.16026393
1144 0.064719304
1142 -0.0044926498
1140 -0.020280566
1138 0.039212145
1136 0.18434428
1134 0.4013651
1132 0.67171693
1130 0.97992516
1128 1.3189783
1126 1.7000186
1124 2.1348274
1122 2.6252675
1120 3.1625841
1118 3.7178717
1116 4.2618971
1114 4.7768168
1112 5.2529888
1110 5.6942191
1108 6.1049032
1106 6.4831948
1104 6.831809
1102 7.1690173
1100 7.5166059
1098 7.8941054
1096 8.311286
1094 8.7533445
1092 9.2007141
1090 9.6370258
1088 10.050328
1086 10.43935
1084 10.807135
1082 11.155375
1080 11.485611
1078 11.78988
1076 12.061114
1074 12.298192
1072 12.500503
1070 12.676388
1068 12.82762
1066 12.940015
1064 12.99812
1062 12.990818
1060 12.915123
1058 12.782172
1056 12.594315
1054 12.332387
1052 11.968071
1050 11.4789
1048 10.86152
1046 10.176264
1044 9.4960356
1042 8.8870564
1040 8.3932638
1038 7.9954419
1036 7.6556497
1034 7.3254437
1032 6.9606724
1030 6.5376649
1028 6.0510788
1026 5.5351791
1024 5.0366354
1022 4.6075478
1020 4.2826366
1018 4.0377097
1016 3.8323686
1014 3.6201129
1012 3.3696043
1010 3.0988748
1008 2.833992
1006 2.5884035
1004 2.3612397
1002 2.1186321
1000 1.8277395
998 1.4864633
996 1.1052257
994 0.71079189
992 0.32909045
990 -0.02891469
988 -0.35160041
986 -0.61332184
984 -0.78733742
982 -0.85534972
980 -0.81636518
978 -0.71895707
976 -0.61488575
974 -0.52543008
972 -0.45082647
970 -0.34662235
968 -0.16877875
966 0.087466687
964 0.40515289
962 0.72651184
960 0.98844767
958 1.144678
956 1.1660972
954 1.069082
952 0.88336998
950 0.64708877
948 0.40326047
946 0.20449167
944 0.083840415
942 -0.0032543987
940 -0.10185398
938 -0.18990831
936 -0.24086343
934 -0.27217668
932 -0.30679685
930 -0.34750551
928 -0.39030725
926 -0.42478943
924 -0.44324401
922 -0.45403922
920 -0.47110704
918 -0.51412606
916 -0.59962213
914 -0.72670954
912 -0.88597322
910 -1.052116
908 -1.2034266
906 -1.3463836
904 -1.4980817
902 -1.6873218
900 -1.9253151
898 -2.140142
896 -2.2393
