##TITLE=Methyl Ethyl Ketone
##JCAMP-DX=4.24
##DATA TYPE=INFRARED SPECTRUM
##XUNITS=cm-1
##YUNITS=Absorbance
##FIRSTX=900
##LASTX=2300
##XYDATA=(X++(Y..Y))
2296 -0.015477
2294 -0.015798541
2292 -0.01612008
2290 -0.016442616
2288 -0.01676416
2286 -0.017086692
2284 -0.017408239
2282 -0.017730771
2280 -0.018052319
2278 -0.01837386
2276 -0.018696386
2274 -0.019017939
2272 -0.019340463
2270 -0.019663002
2268 -0.01998456
2266 -0.020304143
2264 -0.020627594
2262 -0.02095601
2260 -0.021271875
2258 -0.02157283
2256 -0.021915171
2254 -0.022317849
2252 -0.022562455
2250 -0.022584507
2248 -0.0231934
2246 -0.021754108
2244 -0.00080600003
2242 0.047668587
2240 0.076922759
2238 0.033777915
2236 -0.098493114
2234 -0.31103188
2232 -0.53424597
2230 -0.69329721
2228 -0.76223648
2226 -0.74533498
2224 -0.7109282
2222 -0.73105586
2220 -0.81767797
2218 -0.95249486
2216 -1.0674949
2214 -1.0948997
2212 -1.0257939
2210 -0.87840253
2208 -0.70625889
2206 -0.56276798
2204 -0.45741925
2202 -0.38643211
2200 -0.34757069
2198 -0.3421019
2196 -0.38261643
2194 -0.47755569
2192 -0.60384458
2190 -0.73127419
2188 -0.84116149
2186 -0.922167
2184 -0.97725797
2182 -1.013559
2180 -1.0365772
2178 -1.0527767
2176 -1.0750371
2174 -1.1137881
2172 -1.1612309
2170 -1.203811
2168 -1.2303143
2166 -1.2347772
2164 -1.2278448
2162 -1.2224882
2160 -1.2180275
2158 -1.2115604
2156 -1.20928
2154 -1.2201525
2152 -1.250916
2150 -1.3014146
2148 -1.3475006
2146 -1.3624786
2144 -1.3439994
2142 -1.298524
2140 -1.2339324
2138 -1.1546414
2136 -1.0509943
2134 -0.91673321
2132 -0.78129178
2130 -0.68697518
2128 -0.67656082
2126 -0.77824825
2124 -0.96088684
2122 -1.1700639
2120 -1.3441542
2118 -1.4336575
2116 -1.4463015
2114 -1.4119871
2112 -1.364848
2110 -1.3331795
2108 -1.3187383
2106 -1.3138157
2104 -1.3133
2102 -1.3134723
2100 -1.31135
2098 -1.3029294
2096 -1.2809429
2094 -1.2408754
2092 -1.1965988
2090 -1.169205
2088 -1.1802446
2086 -1.2445949
2084 -1.3494369
2082 -1.4703985
2080 -1.5788456
2078 -1.6505852
2076 -1.6835572
2074 -1.6846868
2072 -1.6599081
2070 -1.6126168
2068 -1.5397725
2066 -1.4406199
2064 -1.3352492
2062 -1.2514046
2060 -1.2133235
2058 -1.2361879
2056 -1.3043742
2054 -1.3897576
2052 -1.4637734
2050 -1.5047203
2048 -1.5188639
2046 -1.5241321
2044 -1.538184
2042 -1.5727787
2040 -1.6192681
2038 -1.6609733
2036 -1.6858257
2034 -1.6867112
2032 -1.6675806
2030 -1.636975
2028 -1.6042789
2026 -1.5758036
2024 -1.5448782
2022 -1.5010594
2020 -1.4433271
2018 -1.3786659
2016 -1.32952
2014 -1.3183439
2012 -1.339004
2010 -1.3718522
2008 -1.3976452
2006 -1.4028964
2004 -1.3939778
2002 -1.3859121
2000 -1.3914971
1998 -1.4207138
1996 -1.4778357
1994 -1.5621425
1992 -1.6614513
1990 -1.757445
1988 -1.827318
1986 -1.8520222
1984 -1.8376143
1982 -1.8034331
1980 -1.7735523
1978 -1.7677637
1976 -1.7803972
1974 -1.7918
1972 -1.7768072
1970 -1.7146013
1968 -1.6120759
1966 -1.4926043
1964 -1.3918626
1962 -1.3434591
1960 -1.35088
1958 -1.3991144
1956 -1.4599186
1954 -1.5039438
1952 -1.5207675
1950 -1.5134128
1948 -1.4997551
1946 -1.5022249
1944 -1.5345172
1942 -1.6010346
1940 -1.6871397
1938 -1.7693197
1936 -1.8259515
1934 -1.8417623
1932 -1.8216621
1930 -1.7804472
1928 -1.7285469
1926 -1.66589
1924 -1.5611935
1922 -1.3784115
1920 -1.1318852
1918 -0.8692888
1916 -0.6566714
1914 -0.55370712
1912 -0.55890745
1910 -0.63772696
1908 -0.76079309
1906 -0.90328729
1904 -1.0347257
1902 -1.1213778
1900 -1.1311014
1898 -1.0432614
1896 -0.88367862
1894 -0.7044009
1892 -0.55925751
1890 -0.49581739
1888 -0.53994125
1886 -0.69768763
1884 -0.94213158
1882 -1.2269149
1880 -1.4991949
1878 -1.7078851
1876 -1.81909
1874 -1.8132409
1872 -1.6887875
1870 -1.4645625
1868 -1.2085049
1866 -1.0101306
1864 -0.92985857
1862 -0.99276268
1860 -1.1569154
1858 -1.3470068
1856 -1.5111343
1854 -1.6194909
1852 -1.6591451
1850 -1.6310056
1848 -1.559404
1846 -1.4818
1844 -1.4334614
1842 -1.4382172
1840 -1.4814
1838 -1.5257508
1836 -1.5401415
1834 -1.502309
1832 -1.4008315
1830 -1.2358115
1828 -1.0310377
1826 -0.82750571
1824 -0.67886478
1822 -0.63465303
1820 -0.69660139
1818 -0.83024758
1816 -0.98085999
1814 -1.0917701
1812 -1.1410929
1810 -1.1317325
1808 -1.070628
1806 -0.96426654
1804 -0.81826288
1802 -0.64108425
1800 -0.45679033
1798 -0.29511896
1796 -0.16368215
1794 -0.055442564
1792 0.029598478
1790 0.085840173
1788 0.11303877
1786 0.11714214
1784 0.11179177
1782 0.11384266
1780 0.13327283
1778 0.1732429
1776 0.23034514
1774 0.29262576
1772 0.32696649
1770 0.2965512
1768 0.21361354
1766 0.12436448
1764 0.06241668
1762 0.037461039
1760 0.012782452
1758 -0.063769527
1756 -0.17007872
1754 -0.22783557
1752 -0.16733834
1750 0.043712296
1748 0.33014584
1746 0.55106962
1744 0.61789733
1742 0.51552522
1740 0.34072098
1738 0.24740374
1736 0.30003801
1734 0.46700045
1732 0.63208407
1730 0.64954007
1728 0.48184028
1726 0.19552141
1724 -0.076806061
1722 -0.17063659
1720 0.05238919
1718 0.66785693
1716 1.5774404
1714 2.5639169
1712 3.4672949
1710 4.2306538
1708 4.9783182
1706 5.9651561
1704 7.4345574
1702 9.5709906
1700 12.418852
1698 15.860812
1696 19.518286
1694 22.883211
1692 25.750263
1690 28.249069
1688 30.792023
1686 33.934898
1684 38.019119
1682 43.062908
1680 48.52224
1678 53.558842
1676 57.995728
1674 62.268684
1672 66.773621
1670 71.678337
1668 76.707115
1666 81.287849
1664 85.122513
1662 88.222885
1660 90.679573
1658 92.594933
1656 94.045113
1654 95.070717
1652 95.665062
1650 95.779373
1648 95.332962
1646 94.264214
1644 92.703552
1642 90.921936
1640 89.035965
1638 86.981201
1636 84.622902
1634 81.824593
1632 78.59684
1630 75.067932
1628 71.269287
1626 67.126648
1624 62.604843
1622 57.750069
1620 52.732014
1618 47.813351
1616 43.20063
1614 39.020214
1612 35.35561
1610 32.24715
1608 29.65777
1606 27.485235
1604 25.644825
1602 24.088385
1600 22.801207
1598 21.791758
1596 21.0585
1594 20.586494
1592 20.357321
1590 20.351563
1588 20.552769
1586 20.950457
1584 21.533714
1582 22.304281
1580 23.335285
1578 24.763016
1576 26.701687
1574 29.194283
1572 32.11137
1570 35.169765
1568 38.133041
1566 40.868416
1564 43.344196
1562 45.647736
1560 48.043224
1558 50.86237
1556 53.968845
1554 56.741699
1552 58.704052
1550 59.708031
1548 59.95303
1546 59.883606
1544 59.658611
1542 59.062485
1540 57.832222
1538 55.804531
1536 53.157429
1534 50.395786
1532 47.882153
1530 45.716419
1528 43.849804
1526 42.126099
1524 40.362385
1522 38.392586
1520 36.153755
1518 33.714844
1516 31.2486
1514 28.973379
1512 26.897039
1510 24.780863
1508 22.411352
1506 19.710478
1504 16.851143
1502 14.233622
1500 12.084757
1498 10.351918
1496 8.8761568
1494 7.4607887
1492 6.0053368
1490 4.5394764
1488 3.1275218
1486 1.8440336
1484 0.77223361
1482 -0.0019483268
1480 -0.4207924
1478 -0.454018
1476 -0.031179577
1474 0.94247073
1472 2.3885927
1470 4.018115
1468 5.5903292
1466 7.0015154
1464 8.263978
1462 9.4922724
1460 10.767952
1458 12.086302
1456 13.3442
1454 14.347284
1452 14.963546
1450 15.173733
1448 15.013057
1446 14.559286
1444 13.903777
1442 13.14095
1440 12.355246
1438 11.605193
1436 10.886585
1434 10.128114
1432 9.2925196
1430 8.4130774
1428 7.5705142
1426 6.8799415
1424 6.4068732
1422 6.1339078
1420 6.005537
1418 5.945745
1416 5.9128113
1414 5.9218493
1412 6.0114241
1410 6.229197
1408 6.5892024
1406 7.0524573
1404 7.5572639
1402 8.0261955
1400 8.3810396
1398 8.552578
1396 8.5018215
1394 8.2372446
1392 7.8107142
1390 7.3167653
1388 6.8269606
1386 6.3624697
1384 5.9214201
1382 5.4864082
1380 5.051239
1378 4.6285429
1376 4.2187858
1374 3.7984033
1372 3.3410161
1370 2.8267739
1368 2.2529914
1366 1.64121
1364 1.0199912
1362 0.42349619
1360 -0.094754934
1358 -0.4578656
1356 -0.61097854
1354 -0.54424661
1352 -0.27024022
1350 0.17687514
1348 0.74633431
1346 1.374475
1344 2.028888
1342 2.724457
1340 3.4430437
1338 4.0942001
1336 4.5620656
1334 4.7303653
1332 4.5666313
1330 4.1748228
1328 3.6836035
1326 3.2063079
1324 2.8229883
1322 2.5617976
1320 2.4240623
1318 2.3834732
1316 2.3938301
1314 2.388191
1312 2.3097794
1310 2.1309562
1308 1.8565108
1306 1.5344014
1304 1.2199217
1302 0.96241093
1300 0.79993343
1298 0.75197649
1296 0.8278957
1294 1.0256041
1292 1.3357494
1290 1.740417
1288 2.2176042
1286 2.7403793
1284 3.2756011
1282 3.7814832
1280 4.2184677
1278 4.5574059
1276 4.7890687
1274 4.9363751
1272 5.0324707
1270 5.1150308
1268 5.2169304
1266 5.3613009
1264 5.5699663
1262 5.8663173
1260 6.2681737
1258 6.7813668
1256 7.4029198
1254 8.1193085
1252 8.918787
1250 9.7987432
1248 10.764737
1246 11.8305
1244 12.993009
1242 14.213728
1240 15.417937
1238 16.481926
1236 17.289244
1234 17.75456
1232 17.826799
1230 17.505756
1228 16.813951
1226 15.80125
1224 14.534657
1222 13.108508
1220 11.634668
1218 10.242189
1216 9.0485115
1214 8.1305513
1212 7.5303106
1210 7.2332964
1208 7.196444
1206 7.3433795
1204 7.5779099
1202 7.7803001
1200 7.8347392
1198 7.6507826
1196 7.1850858
1194 6.4835467
1192 5.6288939
1190 4.7347989
1188 3.8978019
1186 3.161073
1184 2.5439205
1182 2.0421603
1180 1.6503763
1178 1.3716925
1176 1.2051001
1174 1.135727
1172 1.1394886
1170 1.1801159
1168 1.2262102
1166 1.2632093
1164 1.2837251
1162 1.286145
1160 1.2640474
1158 1.19854
1156 1.077652
1154 0.91161275
1152 0.72178131
1150 0.54147661
1148 0.39607659
1146 0.28607965
1144 0.20508468
1142 0.1438235
1140 0.087723687
1138 0.013179526
1136 -0.089619227
1134 -0.19386441
1132 -0.2728416
1130 -0.32177305
1128 -0.34951183
1126 -0.38266221
1124 -0.43181178
1122 -0.45938635
1120 -0.4246684
1118 -0.31019861
1116 -0.12967682
1114 0.042728864
1112 0.14036514
1110 0.15255374
1108 0.095714517
1106 0.019548353
1104 -0.026612006
1102 -0.0152536
1100 0.068623163
1098 0.22144131
1096 0.43433714
1094 0.69720113
1092 1.0079702
1090 1.3855541
1088 1.8474594
1086 2.3928037
1084 2.9925008
1082 3.5576458
1080 3.997983
1078 4.2604532
1076 4.3301573
1074 4.2678428
1072 4.1470337
1070 4.0240145
1068 3.9389222
1066 3.8982501
1064 3.8918481
1062 3.8859332
1060 3.844759
1058 3.7437162
1056 3.5820658
1054 3.4166279
1052 3.3093693
1050 3.294349
1048 3.3738973
1046 3.480082
1044 3.5458443
1042 3.5578678
1040 3.5349863
1038 3.5505471
1036 3.66014
1034 3.8308091
1032 3.9974835
1030 4.0678768
1028 3.9768114
1026 3.7580571
1024 3.4684479
1022 3.1603751
1020 2.8686295
1018 2.5790608
1016 2.2762485
1014 1.9772286
1012 1.7050529
1010 1.4758765
1008 1.2932639
1006 1.1281396
1004 0.94648451
1002 0.72570127
1000 0.45737651
998 0.16975571
996 -0.093726069
994 -0.27135938
992 -0.3180573
990 -0.25656682
988 -0.13233569
986 -0.009159483
984 0.066365719
982 0.11784203
980 0.17882439
978 0.25836682
976 0.35177144
974 0.42949209
972 0.46977586
970 0.49699572
968 0.53968233
966 0.601726
964 0.67524284
962 0.73327583
960 0.75233805
958 0.73673445
956 0.69542116
954 0.62960535
952 0.53793359
950 0.41716504
948 0.27085289
946 0.1282185
944 0.025744012
942 0.0028207824
940 0.092303544
938 0.3006748
936 0.61827803
934 1.0008276
932 1.40589
930 1.8290328
928 2.2609336
926 2.6398478
924 2.894778
922 2.9697137
920 2.8391292
918 2.5781596
916 2.2840114
914 2.041775
912 1.9252818
910 1.9780099
908 2.2199531
906 2.6109822
904 3.0546873
902 3.2953157
900 3.1115704
898 2.5766425
896 1.8375
