##TITLE=Methyl Ethyl Ketone
##JCAMP-DX=4.24
##DATA TYPE=INFRARED SPECTRUM
##XUNITS=cm-1
##YUNITS=Absorbance
##FIRSTX=900
##LASTX=2300
##XYDATA=(X++(Y..Y))
2296 -0.018720999
2294 -0.019110443
2292 -0.019499887
2290 -0.019889329
2288 -0.020278772
2286 -0.020668214
2284 -0.021057656
2282 -0.0214471
2280 -0.021836543
2278 -0.022225985
2276 -0.022615429
2274 -0.023004873
2272 -0.023394315
2270 -0.023782775
2268 -0.024173182
2266 -0.0245646
2264 -0.024952132
2262 -0.025332747
2260 -0.02573074
2258 -0.026150573
2256 -0.026510742
2254 -0.02678678
2252 -0.027285097
2250 -0.028096959
2248 -0.028082475
2246 -0.023418678
2244 -0.00086342281
2242 0.04977316
2240 0.1157924
2238 0.18005781
2236 0.23365913
2234 0.27133965
2232 0.29292455
2230 0.29900637
2228 0.28733858
2226 0.25593102
2224 0.20718497
2222 0.14567035
2220 0.079649828
2218 0.018559942
2216 -0.0277056
2214 -0.050677456
2212 -0.048174661
2210 -0.02284223
2208 0.010791246
2206 0.038303278
2204 0.060228441
2202 0.082957253
2200 0.11781658
2198 0.1739589
2196 0.24573
2194 0.32352602
2192 0.40049151
2190 0.47176033
2188 0.53658044
2186 0.59540755
2184 0.64828163
2182 0.6938616
2180 0.72589725
2178 0.73774534
2176 0.72779316
2174 0.69933951
2172 0.6690855
2170 0.65596229
2168 0.67025763
2166 0.71560591
2164 0.78063697
2162 0.84835911
2160 0.89897364
2158 0.91505998
2156 0.89226103
2154 0.83459741
2152 0.76227057
2150 0.698681
2148 0.65813243
2146 0.64930642
2144 0.67125642
2142 0.71992403
2140 0.79169196
2138 0.88092291
2136 0.97254628
2134 1.0503873
2132 1.1076689
2130 1.1453907
2128 1.182776
2126 1.2412443
2124 1.3250115
2122 1.4261613
2120 1.5137514
2118 1.5536534
2116 1.5339358
2114 1.456363
2112 1.3446325
2110 1.2295918
2108 1.1384635
2106 1.0929065
2104 1.099076
2102 1.1538779
2100 1.239112
2098 1.3335936
2096 1.4256999
2094 1.5090542
2092 1.5815543
2090 1.6405128
2088 1.6752943
2086 1.67565
2084 1.6456243
2082 1.596518
2080 1.5444537
2078 1.5045705
2076 1.48041
2074 1.4696796
2072 1.466368
2070 1.4635681
2068 1.456068
2066 1.4410778
2064 1.4240503
2062 1.4136209
2060 1.4178369
2058 1.442489
2056 1.4841714
2054 1.5353904
2052 1.586694
2050 1.6271702
2048 1.6444325
2046 1.6286285
2044 1.584684
2042 1.5246574
2040 1.4654154
2038 1.4210925
2036 1.38728
2034 1.3534189
2032 1.31576
2030 1.276262
2028 1.245494
2026 1.2354801
2024 1.2485
2022 1.2802912
2020 1.3194748
2018 1.3537669
2016 1.3801399
2014 1.4012312
2012 1.4252286
2010 1.4602189
2008 1.5041989
2006 1.55023
2004 1.590824
2002 1.617486
2000 1.6182206
1998 1.5832529
1996 1.518
1994 1.4383886
1992 1.3737285
1990 1.3526512
1988 1.3747361
1986 1.4225529
1984 1.4659852
1982 1.4755654
1980 1.4477483
1978 1.3945425
1976 1.3409543
1974 1.313831
1972 1.3262855
1970 1.3783492
1968 1.445128
1966 1.4927651
1964 1.5003639
1962 1.4617047
1960 1.401616
1958 1.3549193
1956 1.3352844
1954 1.340135
1952 1.3473011
1950 1.3300538
1948 1.2800916
1946 1.2029001
1944 1.1197937
1942 1.055491
1940 1.0170118
1938 0.99846512
1936 0.97998571
1934 0.93951577
1932 0.87346858
1930 0.79067403
1928 0.70931447
1926 0.65053219
1924 0.63022864
1922 0.65573651
1920 0.71091747
1918 0.76864851
1916 0.80828989
1914 0.81803441
1912 0.8045277
1910 0.78057826
1908 0.74333298
1906 0.6849044
1904 0.61690402
1902 0.56423014
1900 0.55869412
1898 0.62515533
1896 0.7454586
1894 0.87543428
1892 0.96464616
1890 0.9690966
1888 0.87901998
1886 0.71071988
1884 0.50838321
1882 0.32445231
1880 0.18493228
1878 0.094436854
1876 0.037028499
1874 -0.0084294714
1872 -0.039941125
1870 -0.043255106
1868 -0.014773451
1866 0.037356798
1864 0.087403953
1862 0.1059114
1860 0.090205953
1858 0.05387881
1856 0.0065837028
1854 -0.048256379
1852 -0.11656162
1850 -0.20706479
1848 -0.3174828
1846 -0.4350943
1844 -0.53338122
1842 -0.5820744
1840 -0.56891286
1838 -0.49705333
1836 -0.38438416
1834 -0.25356141
1832 -0.11278412
1830 0.036941107
1828 0.18183514
1826 0.2983948
1824 0.36105463
1822 0.351024
1820 0.28126019
1818 0.18453524
1816 0.090098888
1814 0.018097771
1812 -0.031457625
1810 -0.069003716
1808 -0.094837129
1806 -0.1051055
1804 -0.11422586
1802 -0.1483992
1800 -0.22773132
1798 -0.3562355
1796 -0.49056643
1794 -0.56300849
1792 -0.53732401
1790 -0.4108088
1788 -0.21840921
1786 -0.013932172
1784 0.16616781
1782 0.3031415
1780 0.39149466
1778 0.43519929
1776 0.44795084
1774 0.44708228
1772 0.43975192
1770 0.42264798
1768 0.38084459
1766 0.30001366
1764 0.2017418
1762 0.12153219
1760 0.036484756
1758 -0.10549033
1756 -0.28105986
1754 -0.41505155
1752 -0.47349176
1750 -0.4675847
1748 -0.44016817
1746 -0.446915
1744 -0.51965183
1742 -0.65740323
1740 -0.8003481
1738 -0.85751623
1736 -0.78363597
1734 -0.58859253
1732 -0.35237974
1730 -0.1878106
1728 -0.14070326
1726 -0.18684414
1724 -0.2448788
1722 -0.20034599
1720 0.050972685
1718 0.57552934
1716 1.3241795
1714 2.1657329
1712 2.9956298
1710 3.7693923
1708 4.5653081
1706 5.5568094
1704 6.9342813
1702 8.8816757
1700 11.554961
1698 15.011565
1696 18.944427
1694 22.79726
1692 26.212585
1690 29.118883
1688 31.828835
1686 34.916771
1684 38.868202
1682 43.906876
1680 49.576603
1678 55.000877
1676 59.889557
1674 64.545517
1672 69.337967
1670 74.494545
1668 79.766357
1666 84.560555
1664 88.536819
1662 91.660004
1660 94.009071
1658 95.702972
1656 96.81514
1654 97.367348
1652 97.3582
1650 96.78537
1648 95.706474
1646 94.243896
1644 92.576027
1642 90.882996
1640 89.163559
1638 87.244667
1636 84.924973
1634 82.047379
1632 78.63813
1630 74.869713
1628 70.832161
1626 66.513298
1624 61.908081
1622 57.059959
1620 52.126038
1618 47.350475
1616 42.91943
1614 38.936275
1612 35.4576
1610 32.499939
1608 30.021069
1606 27.935314
1604 26.175283
1602 24.702257
1600 23.499439
1598 22.564352
1596 21.9
1594 21.510859
1592 21.385994
1590 21.498535
1588 21.816633
1586 22.308899
1584 22.955793
1582 23.760099
1580 24.77879
1578 26.119226
1576 27.88283
1574 30.129589
1572 32.797211
1570 35.70414
1568 38.65976
1566 41.501156
1564 44.130627
1562 46.551891
1560 48.966827
1558 51.683456
1556 54.592884
1554 57.13942
1552 58.87809
1550 59.645779
1548 59.615452
1546 59.212749
1544 58.607319
1542 57.630062
1540 56.086838
1538 53.889057
1536 51.236256
1534 48.586788
1532 46.223206
1530 44.151173
1528 42.264626
1526 40.40255
1524 38.419933
1522 36.220791
1520 33.807255
1518 31.288847
1516 28.835629
1514 26.622927
1512 24.643599
1510 22.686769
1508 20.56262
1506 18.194614
1504 15.705919
1502 13.39694
1500 11.435234
1498 9.7758408
1496 8.3013287
1494 6.8806429
1492 5.463697
1490 4.1035376
1488 2.8631349
1486 1.789685
1484 0.92190564
1482 0.28954017
1480 -0.092932299
1478 -0.21638046
1476 -0.012225002
1474 0.63993359
1472 1.7402046
1470 3.1230299
1468 4.6023178
1466 6.0264173
1464 7.3307652
1462 8.5537519
1460 9.7512341
1458 10.960348
1456 12.143
1454 13.169539
1452 13.911677
1450 14.281277
1448 14.270228
1446 13.964001
1444 13.457535
1442 12.82507
1440 12.112629
1438 11.332381
1436 10.475612
1434 9.5257339
1432 8.5095758
1430 7.5139585
1428 6.6236863
1426 5.8979721
1424 5.3637052
1422 5.0109115
1420 4.8234015
1418 4.7879443
1416 4.8923287
1414 5.1243119
1412 5.4674821
1410 5.8982334
1408 6.3863339
1406 6.89329
1404 7.3714414
1402 7.763814
1400 8.0190802
1398 8.1009493
1396 8.0004568
1394 7.7454062
1392 7.3805156
1390 6.9610777
1388 6.529264
1386 6.1040001
1384 5.6970644
1382 5.3152966
1380 4.9540219
1378 4.5925159
1376 4.2042742
1374 3.7628658
1372 3.26175
1370 2.7233407
1368 2.168828
1366 1.6078272
1364 1.0499787
1362 0.5125376
1360 0.036707535
1358 -0.306422
1356 -0.46674243
1354 -0.43789408
1352 -0.22509679
1350 0.1606414
1348 0.69041765
1346 1.31055
1344 1.971716
1342 2.6392651
1340 3.2749438
1338 3.8291118
1336 4.2468171
1334 4.4735703
1332 4.4851928
1330 4.3082747
1328 3.9923651
1326 3.6050372
1324 3.2140589
1322 2.8771868
1320 2.6289201
1318 2.4662619
1316 2.3652699
1314 2.2828794
1312 2.1852582
1310 2.0633366
1308 1.9233054
1306 1.7868421
1304 1.6757578
1302 1.606146
1300 1.5935905
1298 1.6554205
1296 1.8106428
1294 2.0785184
1292 2.4680045
1290 2.9679422
1288 3.5522358
1286 4.1768279
1284 4.7966881
1282 5.37357
1280 5.8781729
1278 6.295682
1276 6.6236858
1274 6.8769383
1272 7.0771489
1270 7.2517014
1268 7.4262762
1266 7.622385
1264 7.8664784
1262 8.1949263
1260 8.6404524
1258 9.2221069
1256 9.941103
1254 10.771631
1252 11.684876
1250 12.658133
1248 13.673737
1246 14.717751
1244 15.770762
1242 16.7952
1240 17.741367
1238 18.537344
1236 19.108671
1234 19.38707
1232 19.322121
1230 18.900669
1228 18.133722
1226 17.065823
1224 15.764206
1222 14.323508
1220 12.852446
1218 11.47165
1216 10.284519
1214 9.3515835
1212 8.7048903
1210 8.3392467
1208 8.2253294
1206 8.3002062
1204 8.4736824
1202 8.6182518
1200 8.6152906
1198 8.3873186
1196 7.9029355
1194 7.2077084
1192 6.3734441
1190 5.4879489
1188 4.6322188
1186 3.8627648
1184 3.2166176
1182 2.7008257
1180 2.3106039
1178 2.0308101
1176 1.8441401
1174 1.7340851
1172 1.6831867
1170 1.6717244
1168 1.6829269
1166 1.7076979
1164 1.7390406
1162 1.7702451
1160 1.7908057
1158 1.7817353
1156 1.7244885
1154 1.6072083
1152 1.4299709
1150 1.215879
1148 0.9918192
1146 0.78021318
1144 0.59300888
1142 0.42029172
1140 0.24535467
1138 0.049984083
1136 -0.16491371
1134 -0.35419521
1132 -0.47780031
1130 -0.53374857
1128 -0.53707826
1126 -0.52125829
1124 -0.5181281
1122 -0.54372454
1120 -0.5986436
1118 -0.65539211
1116 -0.68201548
1114 -0.65380067
1112 -0.56219953
1110 -0.43425879
1108 -0.30371633
1106 -0.19829151
1104 -0.13116199
1102 -0.081760034
1100 -0.014636904
1098 0.12102509
1096 0.36225855
1094 0.69990021
1092 1.0994101
1090 1.4918559
1088 1.8242502
1086 2.1062548
1084 2.3646426
1082 2.6282673
1080 2.9009147
1078 3.1190319
1076 3.2159414
1074 3.1621029
1072 2.9588554
1070 2.666101
1068 2.3549228
1066 2.0870192
1064 1.9081399
1062 1.8255293
1060 1.8227988
1058 1.8451453
1056 1.8352228
1054 1.7557378
1052 1.5946589
1050 1.397049
1048 1.2210182
1046 1.1211929
1044 1.1338365
1042 1.2461904
1040 1.4334097
1038 1.670254
1036 1.93234
1034 2.1981387
1032 2.4352555
1030 2.5798764
1028 2.574429
1026 2.4044821
1024 2.0844653
1022 1.684491
1020 1.2780077
1018 0.90808851
1016 0.59968281
1014 0.34581137
1012 0.13339561
1010 -0.045342401
1008 -0.1956552
1006 -0.31965315
1004 -0.42722937
1002 -0.554223
1000 -0.73505342
998 -0.97858292
996 -1.2715929
994 -1.551477
992 -1.7553291
990 -1.8579223
988 -1.8590289
986 -1.8077314
984 -1.7569085
982 -1.7304335
980 -1.7343119
978 -1.737478
976 -1.7051657
974 -1.6210951
972 -1.483574
970 -1.3259
968 -1.1889646
966 -1.108775
964 -1.1070257
962 -1.159767
960 -1.2272172
958 -1.2543244
956 -1.1946213
954 -1.045117
952 -0.81963122
950 -0.55258262
948 -0.28889871
946 -0.090955041
944 -0.0033834167
942 0.0076758573
940 -0.013676759
938 -0.056524798
936 -0.11566857
934 -0.17670721
932 -0.22159669
930 -0.2274545
928 -0.176265
926 -0.072588302
924 0.067191109
922 0.20361666
920 0.30058601
918 0.35647789
916 0.38926485
914 0.45869786
912 0.62866843
910 0.93846416
908 1.396771
906 1.9173586
904 2.4003124
902 2.786387
900 3.0392859
898 3.1740632
896 3.2182
