##TITLE=Methyl Ethyl Ketone
##JCAMP-DX=4.24
##DATA TYPE=INFRARED SPECTRUM
##XUNITS=cm-1
##YUNITS=Absorbance
##FIRSTX=900
##LASTX=2300
##XYDATA=(X++(Y..Y))
2296 -0.043219
2294 -0.044136688
2292 -0.045055371
2290 -0.045973063
2288 -0.046891745
2286 -0.047809437
2284 -0.048728112
2282 -0.049645811
2280 -0.050564487
2278 -0.051482182
2276 -0.052400857
2274 -0.053319544
2272 -0.054237247
2270 -0.055155914
2268 -0.056073621
2266 -0.056992285
2264 -0.057909992
2262 -0.058828656
2260 -0.059746366
2258 -0.06066503
2256 -0.061582744
2254 -0.062501401
2252 -0.063420087
2250 -0.064337805
2248 -0.065256454
2246 -0.066174179
2244 -0.0024591172
2242 0.074660696
2240 0.094496317
2238 0.10499652
2236 0.11444586
2234 0.07827577
2232 0.03590171
2230 -0.071918003
2228 -0.18533723
2226 -0.318445
2224 -0.4402312
2222 -0.50572324
2220 -0.54013455
2218 -0.48907778
2216 -0.4158963
2214 -0.30487317
2212 -0.21432559
2210 -0.16079313
2208 -0.14939314
2206 -0.18769085
2204 -0.23837295
2202 -0.29795462
2200 -0.34030035
2198 -0.36933669
2196 -0.38159856
2194 -0.3846893
2192 -0.38296303
2190 -0.37939939
2188 -0.37230009
2186 -0.36410058
2184 -0.3549124
2182 -0.34549868
2180 -0.3375029
2178 -0.32950598
2176 -0.30341285
2174 -0.27705836
2172 -0.26679501
2170 -0.266202
2168 -0.3123391
2166 -0.35788307
2164 -0.38468567
2162 -0.39795473
2160 -0.38133276
2158 -0.37647235
2156 -0.39965799
2154 -0.43074572
2152 -0.46909213
2150 -0.48169199
2148 -0.46442869
2146 -0.43822536
2144 -0.40687668
2142 -0.4021551
2140 -0.4163149
2138 -0.4499318
2136 -0.49307543
2134 -0.51433778
2132 -0.52595955
2130 -0.50389743
2128 -0.4713504
2126 -0.45015514
2124 -0.43180722
2122 -0.44100681
2120 -0.45388207
2118 -0.4537892
2116 -0.44939199
2114 -0.42667329
2112 -0.40479994
2110 -0.39838269
2108 -0.39721534
2106 -0.40503687
2104 -0.40825593
2102 -0.39844823
2100 -0.39811862
2098 -0.41697818
2096 -0.45499569
2094 -0.51442194
2092 -0.5581013
2090 -0.58222705
2088 -0.58902264
2086 -0.58376098
2084 -0.58754838
2082 -0.59839779
2080 -0.61216688
2078 -0.62703115
2076 -0.62971556
2074 -0.62729776
2072 -0.6146332
2070 -0.59885931
2068 -0.61540711
2066 -0.64110929
2064 -0.72196734
2062 -0.81261849
2060 -0.89245343
2058 -0.9618606
2056 -0.9855783
2054 -0.99789333
2052 -1.0018888
2050 -1.0049376
2048 -1.0099435
2046 -1.0056429
2044 -0.98248297
2042 -0.95045704
2040 -0.91027343
2038 -0.88403988
2036 -0.8761757
2034 -0.89173532
2032 -0.92679054
2030 -0.96567428
2028 -1.0050366
2026 -1.0213978
2024 -1.0231777
2022 -1.0020036
2020 -0.97010273
2018 -0.96007586
2016 -0.95972401
2014 -1.0005373
2012 -1.0546428
2010 -1.0983447
2008 -1.1369622
2006 -1.1428971
2004 -1.1374931
2002 -1.111789
2000 -1.0792772
1998 -1.0408143
1996 -1.0092785
1994 -1.0037843
1992 -1.0205966
1990 -1.072242
1988 -1.1375819
1986 -1.2106929
1984 -1.2813115
1982 -1.3457476
1980 -1.4041891
1978 -1.4579842
1976 -1.4901342
1974 -1.503492
1972 -1.4635054
1970 -1.385823
1968 -1.2954246
1966 -1.2014222
1964 -1.1923736
1962 -1.2280993
1960 -1.307312
1958 -1.4028573
1956 -1.45174
1954 -1.4824202
1952 -1.4898509
1950 -1.4895236
1948 -1.4877468
1946 -1.4857
1944 -1.4846011
1942 -1.4890323
1940 -1.5087209
1938 -1.5309765
1936 -1.5468258
1934 -1.5529208
1932 -1.544328
1930 -1.5296998
1928 -1.5135372
1926 -1.4688094
1924 -1.3879205
1922 -1.2591015
1920 -1.0880725
1918 -0.94421017
1916 -0.83300626
1914 -0.78915554
1912 -0.79116774
1910 -0.83608067
1908 -0.90335119
1906 -1.0049598
1904 -1.123216
1902 -1.201164
1900 -1.2590903
1898 -1.2357358
1896 -1.1803857
1894 -1.1242236
1892 -1.0754877
1890 -1.077778
1888 -1.1080498
1886 -1.1724914
1884 -1.2504985
1882 -1.3305063
1880 -1.3960794
1878 -1.4275181
1876 -1.40337
1874 -1.3004541
1872 -1.1198012
1870 -0.8625164
1868 -0.64259267
1866 -0.49674278
1864 -0.51793879
1862 -0.69078171
1860 -0.91421795
1858 -1.1487153
1856 -1.2993886
1854 -1.3842845
1852 -1.3617535
1850 -1.276614
1848 -1.1379679
1846 -0.97449642
1844 -0.88626462
1842 -0.84128135
1840 -0.87649459
1838 -0.94203955
1836 -0.95158631
1834 -0.91729254
1832 -0.79517275
1830 -0.63772243
1828 -0.4925468
1826 -0.39803749
1824 -0.42113879
1822 -0.51955074
1820 -0.67532462
1818 -0.82585818
1816 -0.93112659
1814 -0.96979529
1812 -0.93735731
1810 -0.86725956
1808 -0.77964199
1806 -0.70429653
1804 -0.64716947
1802 -0.6031096
1800 -0.56757313
1798 -0.51755965
1796 -0.45471999
1794 -0.37660089
1792 -0.2879416
1790 -0.25049326
1788 -0.24473631
1786 -0.25890648
1784 -0.27961743
1782 -0.26400179
1780 -0.22083983
1778 -0.1332114
1776 -0.0084837452
1774 0.17310035
1772 0.35982221
1770 0.47738701
1768 0.50465691
1766 0.39640009
1764 0.23986781
1762 0.10719551
1760 0.031284463
1758 -0.05974989
1756 -0.11689857
1754 -0.088479877
1752 0.059253395
1750 0.31479281
1748 0.56538486
1746 0.77612036
1744 0.79346335
1742 0.63906914
1740 0.45381686
1738 0.27188057
1736 0.238704
1734 0.3177956
1732 0.33889496
1730 0.30653286
1728 0.12593421
1726 -0.13439697
1724 -0.26616266
1722 -0.25827819
1720 0.0051354319
1718 0.43469605
1716 1.0347936
1714 1.6599125
1712 2.0494235
1710 2.3219371
1708 2.608994
1706 3.1426334
1704 4.1263685
1702 5.7834129
1700 8.2051992
1698 11.418281
1696 15.319143
1694 19.179501
1692 22.683849
1690 25.865906
1688 28.803257
1686 32.349514
1684 36.571556
1682 41.456306
1680 46.839119
1678 51.422012
1676 55.276283
1674 59.033031
1672 62.785851
1670 67.044571
1668 71.622726
1666 75.819595
1664 79.64724
1662 83.043709
1660 86.104332
1658 89.004631
1656 91.772682
1654 94.454666
1652 96.747322
1650 98.301666
1648 98.510048
1646 96.93721
1644 94.427513
1642 91.738647
1640 89.058907
1638 86.494102
1636 83.483017
1634 79.839043
1632 75.849442
1630 71.665749
1628 67.617516
1626 63.761887
1624 59.790283
1622 55.670113
1620 51.557232
1618 47.473885
1616 43.603886
1614 39.977432
1612 36.778008
1610 34.020672
1608 31.683264
1606 29.733458
1604 28.005533
1602 26.51593
1600 25.256834
1598 24.258224
1596 23.5275
1594 23.046062
1592 22.754543
1590 22.599514
1588 22.509342
1586 22.486887
1584 22.526943
1582 22.688379
1580 22.994465
1578 23.514051
1576 24.264429
1574 25.174002
1572 26.214691
1570 27.243134
1568 28.22784
1566 29.214701
1564 30.214914
1562 31.51556
1560 33.230202
1558 35.972507
1556 39.760559
1554 43.68185
1552 47.498646
1550 50.276634
1548 52.11697
1546 53.757
1544 55.297661
1542 56.999569
1540 58.614479
1538 59.756077
1536 60.099232
1534 59.348164
1532 57.939117
1530 56.381844
1528 54.826401
1526 53.394051
1524 51.918015
1522 50.297272
1520 48.369804
1518 46.051605
1516 43.698528
1514 41.421608
1512 39.283161
1510 37.309208
1508 34.816761
1506 31.625872
1504 28.261772
1502 24.772854
1500 21.848694
1498 19.56563
1496 17.386572
1494 15.299292
1492 13.168071
1490 10.984044
1488 8.7621527
1486 6.5546074
1484 4.473166
1482 2.6597404
1480 1.2822661
1478 0.39692941
1476 0.078106701
1474 0.39789754
1472 1.2583685
1470 2.269331
1468 3.2001195
1466 3.9751194
1464 4.5162153
1462 5.0416546
1460 5.6449404
1458 6.3188686
1456 7.0848603
1454 7.6746516
1452 7.9742632
1450 8.058588
1448 7.8429899
1446 7.5759678
1444 7.2407584
1442 6.907618
1440 6.5733232
1438 6.2291803
1436 5.8462415
1434 5.364213
1432 4.7737746
1430 4.1370602
1428 3.51284
1426 3.0265872
1424 2.7100863
1422 2.5771828
1420 2.5859673
1418 2.6729038
1416 2.7789686
1414 2.842267
1412 2.9056342
1410 2.9992361
1408 3.1658835
1406 3.4572251
1404 3.8421445
1402 4.3542376
1400 4.9178557
1398 5.5431051
1396 6.1326427
1394 6.6434941
1392 7.0270886
1390 7.1940293
1388 7.2268443
1386 7.0498447
1384 6.761384
1382 6.3249083
1380 5.8536634
1378 5.3513393
1376 4.8798971
1374 4.4452929
1372 4.0430961
1370 3.6745334
1368 3.326936
1366 2.9757693
1364 2.5688138
1362 2.0968223
1360 1.5414006
1358 0.9857887
1356 0.52706063
1354 0.19037133
1352 0.054586127
1350 0.029855687
1348 0.13026452
1346 0.28675142
1344 0.5283736
1342 0.80293363
1340 1.1275226
1338 1.4330589
1336 1.6936543
1334 1.9005926
1332 2.019778
1330 2.1400509
1328 2.2724371
1326 2.4572699
1324 2.7226753
1322 3.0534837
1320 3.4656487
1318 3.9185123
1316 4.3997002
1314 4.8473258
1312 5.2431674
1310 5.5528479
1308 5.7834764
1306 5.9408741
1304 6.0447669
1302 6.106154
1300 6.138824
1298 6.1433067
1296 6.1311426
1294 6.099709
1292 6.0681429
1290 6.0488186
1288 6.04282
1286 6.0674543
1284 6.0936227
1282 6.1185689
1280 6.1331334
1278 6.1260357
1276 6.1246529
1274 6.1372609
1272 6.1766472
1270 6.2636766
1268 6.3856058
1266 6.5611563
1264 6.7684059
1262 7.0126033
1260 7.2612319
1258 7.5068045
1256 7.7241001
1254 7.9110489
1252 8.0656776
1250 8.1971245
1248 8.3172636
1246 8.4303999
1244 8.5396967
1242 8.6381731
1240 8.7060442
1238 8.7470675
1236 8.7274685
1234 8.6671438
1232 8.5104399
1230 8.3040981
1228 7.967752
1226 7.5957522
1224 7.1318121
1222 6.6603632
1220 6.1731968
1218 5.6974111
1216 5.2453599
1214 4.8033328
1212 4.3790965
1210 3.9662223
1208 3.5753114
1206 3.2197964
1204 2.91045
1202 2.637315
1200 2.3962903
1198 2.1558638
1196 1.9152213
1194 1.6716009
1192 1.437204
1190 1.248957
1188 1.102422
1186 1.0450171
1184 1.0376817
1182 1.1163813
1180 1.2330009
1178 1.424649
1176 1.6459399
1174 1.9453452
1172 2.2510846
1170 2.5614927
1168 2.8340497
1166 2.9876835
1164 3.0886569
1162 3.059612
1160 3.0014086
1158 2.8846767
1156 2.7517271
1154 2.5867853
1152 2.3818703
1150 2.1159942
1148 1.7911201
1146 1.4037607
1144 1.0057569
1142 0.61435169
1140 0.30596471
1138 0.080592662
1136 0.0097541772
1134 0.044948228
1132 0.1894806
1130 0.38300914
1128 0.61392498
1126 0.84562075
1124 1.0274068
1122 1.1857985
1120 1.2673199
1118 1.3399059
1116 1.4030415
1114 1.4693727
1112 1.5484633
1110 1.6163443
1108 1.6479495
1106 1.6664051
1104 1.6535103
1102 1.6439586
1100 1.641502
1098 1.6432687
1096 1.6502857
1094 1.6493292
1092 1.639938
1090 1.6377652
1088 1.6490999
1086 1.7070485
1084 1.8061315
1082 1.9477739
1080 2.1082976
1078 2.2254009
1076 2.30338
1074 2.2422593
1072 2.1185
1070 1.8699474
1068 1.5960677
1066 1.3376172
1064 1.102028
1062 1.0204767
1060 0.96761096
1058 1.0505539
1056 1.1303657
1054 1.1945977
1052 1.2344215
1050 1.196821
1048 1.157488
1046 1.11535
1044 1.0859869
1042 1.0778905
1040 1.046169
1038 0.97654021
1036 0.86361599
1034 0.70047641
1032 0.52188027
1030 0.33141518
1028 0.15983054
1026 0.005450286
1024 -0.10392378
1022 -0.1844956
1020 -0.20920077
1018 -0.20994803
1016 -0.18474914
1014 -0.15684327
1012 -0.17584714
1010 -0.21220869
1008 -0.3552188
1006 -0.51135439
1004 -0.71671396
1002 -0.90924054
1000 -1.0104142
998 -1.0867031
996 -1.0532929
994 -1.0104494
992 -0.93815643
990 -0.86186659
988 -0.776272
986 -0.68784022
984 -0.59645385
982 -0.53459603
980 -0.51344705
978 -0.51483679
976 -0.53878659
974 -0.55331051
972 -0.56162101
970 -0.5935294
968 -0.64059365
966 -0.70257199
964 -0.76853299
962 -0.77922058
960 -0.76905078
958 -0.69614017
956 -0.60899985
954 -0.50428754
952 -0.39770639
950 -0.29723042
948 -0.19483313
946 -0.064216606
944 0.0024016127
942 0.072666138
940 0.15375111
938 0.28035212
936 0.39961571
934 0.49586946
932 0.53689003
930 0.45925727
928 0.33443967
926 0.13519415
924 -0.023923598
922 -0.13321216
920 -0.17634749
918 -0.15800571
916 -0.13095459
914 -0.098040991
912 -0.089570656
910 -0.094363853
908 -0.11828111
906 -0.14990643
904 -0.1871632
902 -0.22591299
900 -0.20561497
898 -0.17574817
896 -0.041643001
