##TITLE=Methyl Ethyl Ketone
##JCAMP-DX=4.24
##DATA TYPE=INFRARED SPECTRUM
##XUNITS=cm-1
##YUNITS=Absorbance
##FIRSTX=900
##LASTX=2300
##XYDATA=(X++(Y..Y))
2296 0.093281999
2294 0.095223218
2292 0.097163446
2290 0.099104673
2288 0.10104888
2286 0.10298614
2284 0.10492337
2282 0.1068705
2280 0.10880782
2278 0.11074506
2276 0.11269214
2274 0.11462951
2272 0.11656674
2270 0.11851379
2268 0.1204512
2266 0.12238842
2264 0.12433543
2262 0.12627289
2260 0.12821011
2258 0.13015707
2256 0.13209456
2254 0.1340318
2252 0.13597871
2250 0.13791625
2248 0.13985348
2246 0.14180036
2244 0.08241646
2242 0.0030904585
2240 -0.0824112
2238 -0.14368041
2236 -0.20131142
2234 -0.23934212
2232 -0.27650854
2230 -0.3256337
2228 -0.36928153
2226 -0.36450249
2224 -0.34551954
2222 -0.27282074
2220 -0.19820352
2218 -0.12651081
2216 -0.03793063
2214 0.087905034
2212 0.2317667
2210 0.40144438
2208 0.5015521
2206 0.51291227
2204 0.42427996
2202 0.24467649
2200 0.072264403
2198 -0.090337403
2196 -0.16912286
2194 -0.19995476
2192 -0.18984315
2190 -0.16317487
2188 -0.1531242
2186 -0.14883879
2184 -0.1544732
2182 -0.16230182
2180 -0.15408123
2178 -0.14322545
2176 -0.11479829
2174 -0.08428292
2172 -0.048230369
2170 -0.012970015
2168 0.014779254
2166 0.033709481
2164 0.02319403
2162 -0.0011972291
2160 -0.053627122
2158 -0.101593
2156 -0.13569801
2154 -0.14685048
2152 -0.12681863
2150 -0.10885249
2148 -0.096847825
2146 -0.10951532
2144 -0.14343189
2142 -0.1572924
2140 -0.1556499
2138 -0.13650918
2136 -0.1087
2134 -0.13727197
2132 -0.18999714
2130 -0.23661551
2128 -0.28059921
2126 -0.24753672
2124 -0.19656718
2122 -0.1725769
2120 -0.15670343
2118 -0.21011041
2116 -0.27293056
2114 -0.33236611
2112 -0.37960342
2110 -0.37513226
2108 -0.35096082
2106 -0.29019243
2104 -0.23169789
2102 -0.19008784
2100 -0.1673912
2098 -0.17220412
2096 -0.16565143
2094 -0.13885827
2092 -0.096602373
2090 -0.041397449
2088 -0.041440431
2086 -0.08875975
2084 -0.18338731
2082 -0.30498549
2080 -0.38143712
2078 -0.43223843
2076 -0.43468186
2074 -0.41828454
2072 -0.38388678
2070 -0.34425491
2068 -0.28686497
2066 -0.22527108
2064 -0.17229447
2062 -0.12416266
2060 -0.11017383
2058 -0.115424
2056 -0.18961456
2054 -0.28849611
2052 -0.42667988
2050 -0.54273897
2048 -0.58131307
2046 -0.56545001
2044 -0.4730238
2042 -0.39001334
2040 -0.34420303
2038 -0.35432974
2036 -0.42392471
2034 -0.48812851
2032 -0.5363881
2030 -0.53213149
2028 -0.48841652
2026 -0.43495214
2024 -0.37918273
2022 -0.31898946
2020 -0.25651634
2018 -0.19173864
2016 -0.12636
2014 -0.14481156
2012 -0.19194958
2010 -0.31818181
2008 -0.46399572
2006 -0.59158313
2004 -0.70844835
2002 -0.78147054
2000 -0.83708656
1998 -0.86386716
1996 -0.881275
1994 -0.89122707
1992 -0.90606719
1990 -0.93778455
1988 -0.96994483
1986 -0.99789935
1984 -1.0052989
1982 -0.98553145
1980 -0.96009505
1978 -0.9343707
1976 -0.9033106
1974 -0.86685181
1972 -0.78192466
1970 -0.66035914
1968 -0.55957079
1966 -0.47632679
1964 -0.52555472
1962 -0.64378119
1960 -0.79185081
1958 -0.94928908
1956 -1.0486941
1954 -1.1267167
1952 -1.1913097
1950 -1.2488117
1948 -1.270164
1946 -1.2735751
1944 -1.2438074
1942 -1.2077742
1940 -1.1929597
1938 -1.191942
1936 -1.2118372
1934 -1.2349856
1932 -1.249728
1930 -1.2425599
1928 -1.2016743
1926 -1.0847379
1924 -0.87912828
1922 -0.58940935
1920 -0.23519856
1918 0.0327897
1916 0.20650671
1914 0.23858349
1912 0.17884342
1910 0.076825485
1908 -0.040410686
1906 -0.22435577
1904 -0.44395357
1902 -0.62368625
1900 -0.78354722
1898 -0.73331136
1896 -0.59580427
1894 -0.39191586
1892 -0.18500137
1890 -0.1350694
1888 -0.18391834
1886 -0.40243351
1884 -0.68678194
1882 -0.97992611
1880 -1.230552
1878 -1.3729799
1876 -1.4002399
1874 -1.2803017
1872 -1.0352991
1870 -0.67304736
1868 -0.35522318
1866 -0.14312917
1864 -0.16083434
1862 -0.39314801
1860 -0.69546527
1858 -1.0090964
1856 -1.2147971
1854 -1.3330866
1852 -1.2971557
1850 -1.1671336
1848 -0.90150756
1846 -0.56259036
1844 -0.34658456
1842 -0.20517313
1840 -0.34770069
1838 -0.62193084
1836 -0.87046099
1834 -1.0686221
1832 -1.0538892
1830 -0.90970993
1828 -0.64644659
1826 -0.39016792
1824 -0.30019513
1822 -0.37559122
1820 -0.65600002
1818 -0.99623978
1816 -1.2968771
1814 -1.4790281
1812 -1.509002
1810 -1.4290328
1808 -1.2782588
1806 -1.09275
1804 -0.89362431
1802 -0.69756734
1800 -0.50567263
1798 -0.32021162
1796 -0.13853864
1794 0.040710658
1792 0.21615359
1790 0.27061051
1788 0.24538215
1786 0.14134249
1784 0.0012658238
1782 -0.03711164
1780 0.0030310284
1778 0.19766819
1776 0.48800114
1774 0.83634305
1772 1.1360935
1770 1.1795838
1768 1.0256795
1766 0.68731904
1764 0.34521383
1762 0.16948114
1760 0.049641255
1758 -0.089758828
1756 -0.13563201
1754 -0.038665622
1752 0.35077477
1750 1.03953
1748 1.7925043
1746 2.5137784
1744 2.7863863
1742 2.6348815
1740 2.3336668
1738 1.981585
1736 1.93768
1734 2.1398363
1732 2.187089
1730 2.0897481
1728 1.5517502
1726 0.74594808
1724 0.15365933
1722 -0.19214582
1720 0.098008454
1718 0.92325205
1716 2.1493599
1714 3.4057844
1712 4.1336474
1710 4.536901
1708 4.8541641
1706 5.4587193
1704 6.6990561
1702 8.7547369
1700 11.666553
1698 15.130888
1696 18.872286
1694 22.19437
1692 24.871332
1690 27.354618
1688 29.847416
1686 33.227821
1684 37.503151
1682 42.338799
1680 47.533081
1678 51.817345
1676 55.294903
1674 58.896481
1672 62.69688
1670 67.243309
1668 72.310303
1666 77.103104
1664 81.593201
1662 85.632507
1660 89.304573
1658 92.770088
1656 96.064796
1654 99.252838
1652 102.0778
1650 104.23482
1648 104.9948
1646 103.78893
1644 101.29492
1642 98.20166
1640 94.896912
1638 91.647041
1636 87.936546
1634 83.596153
1632 78.985672
1630 74.265068
1628 69.831528
1626 65.743469
1624 61.570839
1622 57.25914
1620 52.921776
1618 48.5788
1616 44.380772
1614 40.357777
1612 36.717525
1610 33.49617
1608 30.785183
1606 28.5627
1604 26.670042
1602 25.108683
1600 23.823851
1598 22.826218
1596 22.087
1594 21.585102
1592 21.257172
1590 21.072575
1588 20.981274
1586 21.019592
1584 21.202925
1582 21.60873
1580 22.268452
1578 23.276978
1576 24.652916
1574 26.262405
1572 28.044868
1570 29.717697
1568 31.21792
1566 32.636902
1564 33.995346
1562 35.69035
1560 37.821171
1558 40.726898
1556 44.332787
1554 47.41095
1552 49.797798
1550 51.305561
1548 52.101665
1546 53.047783
1544 54.130142
1542 55.266869
1540 55.99876
1538 55.611992
1536 54.218056
1534 52.142677
1532 49.904335
1530 48.083652
1528 46.613914
1526 45.423
1524 44.259312
1522 42.961617
1520 41.286106
1518 39.085815
1516 36.758259
1514 34.422085
1512 32.302162
1510 30.489834
1508 28.303967
1506 25.587271
1504 22.580366
1502 19.288662
1500 16.516994
1498 14.359421
1496 12.433429
1494 10.761855
1492 9.1707544
1490 7.6569495
1488 6.1493697
1486 4.6411619
1484 3.1177061
1482 1.7123127
1480 0.64266551
1478 0.030661255
1476 0.019911289
1474 0.60755986
1472 1.6576692
1470 2.729413
1468 3.4987271
1466 4.04603
1464 4.4006934
1462 4.8925829
1460 5.7073016
1458 6.6939554
1456 7.8545599
1454 8.6353178
1452 8.7798357
1450 8.5837202
1448 7.9259501
1446 7.2759323
1444 6.6549649
1442 6.1479311
1440 5.8085165
1438 5.6096883
1436 5.5460343
1434 5.4085603
1432 5.1537638
1430 4.7329941
1428 4.2204881
1426 3.8498449
1424 3.6853845
1422 3.7990289
1420 4.114151
1418 4.5006695
1416 4.8380914
1414 4.982985
1412 5.0306458
1410 5.0510755
1408 5.1434212
1406 5.4003577
1404 5.7563982
1402 6.2239685
1400 6.693224
1398 7.1316075
1396 7.4484
1394 7.5377479
1392 7.4774132
1390 7.1618333
1388 6.7901163
1386 6.3353353
1384 5.8750916
1382 5.4165478
1380 4.9948816
1378 4.6262493
1376 4.2970943
1374 4.001267
1372 3.6753161
1370 3.3186152
1368 2.9453189
1366 2.5666757
1364 2.2159157
1362 1.8714418
1360 1.4971075
1358 1.1092811
1356 0.72095686
1354 0.37950689
1352 0.15655416
1350 0.023036033
1348 0.01727866
1346 0.082012855
1344 0.25782681
1342 0.48975205
1340 0.81696093
1338 1.0860367
1336 1.2169114
1334 1.2115281
1332 0.96035808
1330 0.72383791
1328 0.53121448
1326 0.46118066
1324 0.5752421
1322 0.77625465
1320 1.0829127
1318 1.407079
1316 1.73104
1314 1.9899385
1312 2.1605856
1310 2.2206616
1308 2.1804719
1306 2.0675807
1304 1.9123303
1302 1.749608
1300 1.6069171
1298 1.526716
1296 1.5068572
1294 1.5939822
1292 1.727564
1290 1.9182732
1288 2.0977361
1286 2.2249706
1284 2.3192391
1282 2.335901
1280 2.3459108
1278 2.3432095
1276 2.3596213
1274 2.419363
1272 2.5202172
1270 2.6942799
1268 2.9084861
1266 3.1801615
1264 3.4770396
1262 3.8047903
1260 4.150528
1258 4.5137668
1256 4.8807459
1254 5.2534037
1252 5.6362696
1250 6.037096
1248 6.4797883
1246 6.9491248
1244 7.4374409
1242 7.9126453
1240 8.3186655
1238 8.6622953
1236 8.8643913
1234 8.9920053
1232 8.963048
1230 8.8694048
1228 8.6164522
1226 8.3033428
1224 7.8285027
1222 7.3148375
1220 6.7109003
1218 6.104517
1216 5.4950285
1214 4.8965936
1212 4.3228216
1210 3.7875197
1208 3.3151948
1206 2.9074578
1204 2.5725179
1202 2.2539012
1200 1.9409292
1198 1.5890286
1196 1.2080843
1194 0.82073283
1192 0.44497299
1190 0.13310137
1188 -0.13136753
1186 -0.31587529
1184 -0.46642977
1182 -0.58479154
1180 -0.69107628
1178 -0.77716529
1176 -0.83598399
1174 -0.79472196
1172 -0.71681666
1170 -0.52035242
1168 -0.31667155
1166 -0.093520068
1164 0.11515783
1162 0.28798428
1160 0.45165437
1158 0.59681851
1156 0.73485214
1154 0.85413426
1152 0.92539001
1150 0.92205739
1148 0.83832198
1146 0.66647249
1144 0.46392232
1142 0.24861899
1140 0.10268145
1138 0.028355103
1136 0.094406225
1134 0.25186813
1132 0.49944288
1130 0.78659081
1128 1.1008766
1126 1.4260157
1124 1.7695765
1122 2.1080215
1120 2.4018321
1118 2.6689734
1116 2.8152514
1114 2.9467614
1112 3.024796
1110 3.1033285
1108 3.1837897
1106 3.26984
1104 3.3732944
1102 3.5108404
1100 3.7173872
1098 3.9556522
1096 4.2436714
1094 4.5453873
1092 4.8690381
1090 5.2311869
1088 5.6331959
1086 6.0557785
1084 6.4911032
1082 6.9048686
1080 7.2941794
1078 7.5999441
1076 7.8435583
1074 7.9109459
1072 7.9084997
1070 7.8183532
1068 7.7206149
1066 7.7092757
1064 7.7125559
1062 7.7413502
1060 7.7650437
1058 7.7492814
1056 7.7493172
1054 7.8188605
1052 7.904532
1050 8.0391121
1048 8.1518116
1046 8.2093687
1044 8.232276
1042 8.1918831
1040 8.1560345
1038 8.131937
1036 8.1650505
1034 8.2610207
1032 8.3429708
1030 8.3962708
1028 8.284029
1026 8.0447397
1024 7.6611977
1022 7.205955
1020 6.7874198
1018 6.3915167
1016 6.0880857
1014 5.8081274
1012 5.5132251
1010 5.2070155
1008 4.8005757
1006 4.3791199
1004 3.8790679
1002 3.3914218
1000 2.993371
998 2.6196034
996 2.3516142
994 2.070595
992 1.7494172
990 1.42601
988 1.0998299
986 0.81152815
984 0.59127885
982 0.40972996
980 0.28314218
978 0.21164377
976 0.19915143
974 0.22894284
972 0.29204673
970 0.35128182
968 0.4075473
966 0.44829199
964 0.48137936
962 0.50046074
960 0.51383466
958 0.505193
956 0.49052286
954 0.44873911
952 0.40116799
950 0.29417953
948 0.18509556
946 0.081416331
944 0.00085404876
942 0.0018213056
940 0.061093137
938 0.2405148
936 0.40298313
934 0.51612723
932 0.63479853
930 0.76652998
928 0.95277321
926 1.2263572
924 1.518398
922 1.8321609
920 2.1090655
918 2.3504457
916 2.5113931
914 2.6152189
912 2.678587
910 2.7229071
908 2.9438825
906 3.2342927
904 3.6948943
902 4.1998868
900 4.5228405
898 4.8163567
896 4.9259
