##TITLE=Methyl Ethyl Ketone
##JCAMP-DX=4.24
##DATA TYPE=INFRARED SPECTRUM
##XUNITS=cm-1
##YUNITS=Absorbance
##FIRSTX=900
##LASTX=2300
##XYDATA=(X++(Y..Y))
2296 0.095853001
2294 0.097847149
2292 0.099841289
2290 0.10183146
2288 0.10382857
2286 0.10582571
2284 0.10781295
2282 0.10981
2280 0.11180715
2278 0.11380429
2276 0.11579157
2274 0.11778858
2272 0.11978571
2270 0.12177304
2268 0.12377
2266 0.12576714
2264 0.12775451
2262 0.12975143
2260 0.13174857
2258 0.13374572
2256 0.13573314
2254 0.13772999
2252 0.13972715
2250 0.14171462
2248 0.14371142
2246 0.14570856
2244 0.069962703
2242 0.0025857515
2240 -0.064200006
2238 -0.053781871
2236 -0.031979874
2234 0.025079075
2232 0.081445366
2230 0.065614663
2228 0.041105717
2226 -0.025070449
2224 -0.0876856
2222 -0.12439071
2220 -0.16062725
2218 -0.19969153
2216 -0.23512514
2214 -0.26229495
2212 -0.2525236
2210 -0.18329367
2208 -0.097077087
2206 0.0057492284
2204 0.061237544
2202 0.070086174
2200 0.061296772
2198 0.041610871
2196 0.08393243
2194 0.16242623
2192 0.24575673
2190 0.33015534
2188 0.31559268
2186 0.26884663
2184 0.1724948
2182 0.065193765
2180 0.0014195312
2178 -0.055457935
2176 -0.087184571
2174 -0.11702278
2172 -0.15142974
2170 -0.180546
2168 -0.17686902
2166 -0.16111793
2164 -0.11299817
2162 -0.065777883
2160 -0.029135035
2158 0.00013497332
2156 0.017469531
2154 0.028157571
2152 0.031004097
2150 0.027699113
2148 0.018384703
2146 0.026605215
2144 0.050887119
2142 0.085721403
2140 0.12672432
2138 0.14347063
2136 0.14666629
2134 0.14065464
2132 0.13134691
2130 0.12331842
2128 0.1158076
2126 0.097545035
2124 0.076760083
2122 0.064196602
2120 0.052806899
2118 0.038458206
2116 0.021437671
2114 -0.01230392
2112 -0.045920663
2110 -0.068197168
2108 -0.08472044
2106 -0.088885613
2104 -0.089585379
2102 -0.086683549
2100 -0.06742546
2098 -0.021615436
2096 0.052818142
2094 0.15956482
2092 0.24849784
2090 0.31411269
2088 0.30990556
2086 0.25084952
2084 0.17946284
2082 0.10497259
2080 0.076653756
2078 0.072809011
2076 0.085913338
2074 0.1048304
2072 0.13255881
2070 0.16292706
2068 0.2003009
2066 0.23886858
2064 0.25709859
2062 0.26912114
2060 0.25910407
2058 0.2416736
2056 0.20744571
2054 0.16827823
2052 0.12309383
2050 0.082054123
2048 0.054474384
2046 0.040139288
2044 0.046294883
2042 0.061177667
2040 0.083486497
2038 0.10145261
2036 0.11275429
2034 0.13091967
2032 0.15688691
2030 0.19146919
2028 0.23158611
2026 0.24325971
2024 0.23603229
2022 0.22078319
2020 0.20277743
2018 0.21977876
2016 0.25178599
2014 0.28265879
2012 0.31280777
2010 0.31141052
2008 0.30065548
2006 0.27240393
2004 0.23759551
2002 0.18736041
2000 0.13839456
1998 0.11117603
1996 0.11060214
1994 0.17348033
1992 0.24742287
1990 0.31144196
1988 0.3300468
1986 0.27442849
1984 0.19616069
1982 0.1108495
1980 0.060416739
1978 0.050775349
1976 0.072437629
1974 0.11466133
1972 0.15652864
1970 0.19476457
1968 0.20538835
1966 0.19892856
1964 0.16993031
1962 0.1307293
1960 0.1204672
1958 0.12354186
1956 0.143978
1954 0.16881324
1952 0.13935594
1950 0.092235029
1948 0.040215049
1946 0.0020595249
1944 0.046672005
1942 0.12530822
1940 0.23576112
1938 0.33477008
1936 0.37891886
1934 0.37881884
1932 0.3215892
1930 0.22188048
1928 0.079479307
1926 -0.083055213
1924 -0.25708291
1922 -0.40536627
1920 -0.52205348
1918 -0.58510792
1916 -0.60565525
1914 -0.58035231
1912 -0.52734828
1910 -0.44754216
1908 -0.35418376
1906 -0.25970536
1904 -0.1656044
1902 -0.12019941
1900 -0.097216688
1898 -0.11211769
1896 -0.13782714
1894 -0.11299083
1892 -0.065198384
1890 0.0059306081
1888 0.069346413
1886 0.063223407
1884 0.019744134
1882 -0.058321178
1880 -0.13820215
1878 -0.19403501
1876 -0.23884
1874 -0.28037488
1872 -0.3227984
1870 -0.36916906
1868 -0.40275732
1866 -0.4167937
1864 -0.41381699
1862 -0.39699039
1860 -0.38031161
1858 -0.36771914
1856 -0.39859512
1854 -0.46319273
1852 -0.63226843
1850 -0.86780107
1848 -1.1739649
1846 -1.5165964
1844 -1.6601967
1842 -1.6914469
1840 -1.4445571
1838 -1.0684576
1836 -0.70362544
1834 -0.36095709
1832 -0.11205304
1830 0.068591304
1828 0.15623792
1826 0.18108143
1824 0.14868538
1822 0.10352173
1820 0.081037618
1818 0.067538455
1816 0.052177913
1814 0.012574346
1812 -0.061966717
1810 -0.13782343
1808 -0.20043629
1806 -0.225482
1804 -0.21498857
1802 -0.24019419
1800 -0.3075223
1798 -0.41024652
1796 -0.53415
1794 -0.54274982
1792 -0.465754
1790 -0.31949282
1788 -0.13493653
1786 -0.00066044182
1784 0.10021944
1782 0.14639992
1780 0.14886814
1778 0.059544586
1776 -0.06939733
1774 -0.15897441
1772 -0.17329417
1770 -0.0099420324
1768 0.19660629
1766 0.30055887
1764 0.2952044
1762 0.16321653
1760 0.037737198
1758 -0.2113625
1756 -0.49741644
1754 -0.69509357
1752 -0.86021656
1750 -1.0246577
1748 -1.2045677
1746 -1.4005108
1744 -1.6201497
1742 -1.8562034
1740 -2.0712714
1738 -2.2662344
1736 -2.31934
1734 -2.267247
1732 -2.006391
1730 -1.6063505
1728 -1.2141217
1726 -0.83674729
1724 -0.53808236
1722 -0.27842739
1720 0.09265326
1718 0.64351469
1716 1.4034028
1714 2.2203374
1712 2.9411218
1710 3.5760133
1708 4.1276798
1706 4.7730465
1704 5.6706376
1702 7.1305981
1700 9.3199501
1698 12.571324
1696 16.913429
1694 21.505581
1692 25.924931
1690 29.842939
1688 33.255333
1686 36.978256
1684 41.138889
1682 45.89983
1680 51.14204
1678 55.741329
1676 59.747429
1674 63.702293
1672 67.69986
1670 72.393677
1668 77.6035
1666 82.774055
1664 87.821144
1662 92.448715
1660 96.649239
1658 100.36918
1656 103.54229
1654 106.0749
1652 107.7396
1650 108.31
1648 107.62245
1646 105.65321
1644 102.95332
1642 100.04302
1640 96.889282
1638 93.500717
1636 89.44931
1634 84.639893
1632 79.646675
1630 74.69326
1628 69.990372
1626 65.550064
1624 60.90704
1622 56.016628
1620 51.250526
1618 46.647968
1616 42.527718
1614 38.904152
1612 35.821941
1610 33.26659
1608 31.075647
1606 29.219564
1604 27.549212
1602 26.102163
1600 24.921629
1598 24.023867
1596 23.389999
1594 22.993454
1592 22.765394
1590 22.685093
1588 22.714037
1586 22.859486
1584 23.112463
1582 23.46488
1580 23.902185
1578 24.476616
1576 25.203543
1574 26.082769
1572 27.109381
1570 28.207718
1568 29.35928
1566 30.534893
1564 31.732004
1562 33.007496
1560 34.426212
1558 36.520233
1556 39.334999
1554 42.45517
1552 45.681835
1550 48.108032
1548 49.698521
1546 50.736286
1544 51.188358
1542 51.187801
1540 50.74276
1538 49.993237
1536 49.040371
1534 48.052917
1532 47.016369
1530 45.91029
1528 44.682442
1526 43.295601
1524 41.72142
1522 39.942577
1520 38.079601
1518 36.189636
1516 34.361885
1514 32.630508
1512 30.76516
1510 28.693069
1508 26.175097
1506 23.112278
1504 20.228931
1502 17.631334
1500 15.520638
1498 13.94675
1496 12.372714
1494 10.794961
1492 9.2086468
1490 7.6281319
1488 6.0951328
1486 4.6404672
1484 3.298502
1482 2.1393223
1480 1.2288965
1478 0.58694375
1476 0.20217264
1474 0.14559431
1472 0.50303566
1470 1.1107472
1468 1.8288046
1466 2.4912844
1464 2.979888
1462 3.3605685
1460 3.6364257
1458 3.9569008
1456 4.3829999
1454 4.885098
1452 5.4853721
1450 5.92694
1448 6.1190538
1446 6.1671071
1444 6.0176411
1442 5.824358
1440 5.5668092
1438 5.2564282
1436 4.8720341
1434 4.4270811
1432 3.9375954
1430 3.4921298
1428 3.112776
1426 2.8131692
1424 2.6097903
1422 2.5069437
1420 2.5471585
1418 2.7872815
1416 3.1763287
1414 3.6749051
1412 4.1706829
1410 4.5621881
1408 4.8856635
1406 5.137197
1404 5.3729668
1402 5.6128345
1400 5.8250842
1398 5.9863806
1396 6.0930572
1394 6.1079149
1392 6.0962086
1390 6.0402055
1388 5.9406147
1386 5.7704802
1384 5.5479932
1382 5.2500072
1380 4.9087949
1378 4.506331
1376 4.0554743
1374 3.5659115
1372 3.1083241
1370 2.6997507
1368 2.3592193
1366 2.0497799
1364 1.6913306
1362 1.2924678
1360 0.86359811
1358 0.4710564
1356 0.20373502
1354 0.038102552
1352 0.0011802024
1350 0.017535426
1348 0.075913996
1346 0.13212785
1344 0.1632456
1342 0.17906103
1340 0.16767921
1338 0.17954373
1336 0.24336687
1334 0.33349341
1332 0.47357282
1330 0.6101529
1328 0.74408519
1326 0.88883555
1324 1.0512488
1322 1.2389084
1320 1.4552948
1318 1.6806741
1316 1.91192
1314 2.1362648
1312 2.3504879
1310 2.5458183
1308 2.7181005
1306 2.8529785
1304 2.9527183
1302 3.0077949
1300 3.0334039
1298 3.0309255
1296 3.0148714
1294 2.9878283
1292 2.9609561
1290 2.9417498
1288 2.935488
1286 2.9608607
1284 3.0024557
1282 3.0815053
1280 3.170491
1278 3.2819512
1276 3.3995245
1274 3.5296931
1272 3.6723011
1270 3.8399215
1268 4.0407062
1266 4.2947679
1264 4.5906916
1262 4.9382234
1260 5.3046699
1258 5.6910772
1256 6.0870857
1254 6.499126
1252 6.942914
1250 7.4138355
1248 7.9111047
1246 8.4170494
1244 8.9091539
1242 9.3744059
1240 9.7678967
1238 10.095926
1236 10.274915
1234 10.37986
1232 10.33336
1230 10.245727
1228 10.070745
1226 9.8550873
1224 9.5262184
1222 9.1457253
1220 8.6451283
1218 8.1361351
1216 7.6140146
1214 7.108449
1212 6.6265292
1210 6.130805
1208 5.6127167
1206 5.0729365
1204 4.5111623
1202 3.9555674
1200 3.4130194
1198 2.9047863
1196 2.4336643
1194 2.0174434
1192 1.6401268
1190 1.294964
1188 0.96292412
1186 0.627101
1184 0.30803084
1182 0.062584281
1180 -0.11970218
1178 -0.11323419
1176 -0.049455598
1174 0.14166501
1172 0.33090025
1170 0.4833068
1168 0.60636443
1166 0.63873589
1164 0.64347333
1162 0.58021337
1160 0.50278622
1158 0.39992803
1156 0.31061572
1154 0.24533236
1152 0.19805086
1150 0.17157288
1148 0.13368066
1146 0.083607353
1144 0.030864472
1142 -0.014960566
1140 -0.011654586
1138 0.025388744
1136 0.077970572
1134 0.1815961
1132 0.3778671
1130 0.63862979
1128 1.0518578
1126 1.5197929
1124 2.0564063
1122 2.5752599
1120 2.935972
1118 3.237967
1116 3.3042772
1114 3.3486884
1112 3.3196223
1110 3.313098
1108 3.3812406
1106 3.489835
1104 3.6982818
1102 3.9224772
1100 4.1751666
1098 4.4149728
1096 4.6394
1094 4.8925881
1092 5.1887379
1090 5.544116
1088 5.9518318
1086 6.3267951
1084 6.6632161
1082 6.9021268
1080 7.0791698
1078 7.2258158
1076 7.3535671
1074 7.4439678
1072 7.5032983
1070 7.4267511
1068 7.3079805
1066 7.0997615
1064 6.8878078
1062 6.7346635
1060 6.6024609
1058 6.5870147
1056 6.5755515
1054 6.5790877
1052 6.5546865
1050 6.441216
1048 6.3126616
1046 6.1494322
1044 5.9951005
1042 5.85432
1040 5.6840019
1038 5.4668722
1036 5.2038803
1034 4.8900566
1032 4.5855484
1030 4.2918825
1028 4.0277753
1026 3.7817421
1024 3.5132542
1022 3.2275031
1020 2.882488
1018 2.5145352
1016 2.14358
1014 1.7773001
1012 1.4725738
1010 1.1790638
1008 0.89540762
1006 0.60958588
1004 0.28948221
1002 -0.024360552
1000 -0.29279131
998 -0.54506469
996 -0.72604072
994 -0.89763319
992 -1.0385326
990 -1.1525452
988 -1.2032589
986 -1.2215765
984 -1.185508
982 -1.1751682
980 -1.2003961
978 -1.248382
976 -1.3149543
974 -1.2998372
972 -1.212762
970 -0.99805301
968 -0.70639974
966 -0.41794002
964 -0.13820653
962 -0.0026899278
960 0.082909599
958 0.094269641
956 0.089603767
954 0.079599038
952 0.067863755
950 0.029622272
948 -0.0067899013
946 -0.0022379144
944 0.0028024837
942 0.084701762
940 0.1760416
938 0.30785441
936 0.45876431
934 0.66591752
932 0.89009655
930 1.1495695
928 1.368852
926 1.5209807
924 1.530526
922 1.3650876
920 1.0938632
918 0.72715068
916 0.51269686
914 0.40875447
912 0.55352521
910 0.82960045
908 1.144326
906 1.4729865
904 1.7226092
902 1.9509143
900 2.0706925
898 2.1726406
896 2.0611
