##TITLE=Methyl Ethyl Ketone
##JCAMP-DX=4.24
##DATA TYPE=INFRARED SPECTRUM
##XUNITS=cm-1
##YUNITS=Absorbance
##FIRSTX=900
##LASTX=2300
##XYDATA=(X++(Y..Y))
2296 0.0019489001
2294 0.0019894419
2292 0.002029984
2290 0.0020705261
2288 0.002111068
2286 0.0021516099
2284 0.0021922512
2282 0.002232794
2280 0.0022732371
2278 0.0023135806
2276 0.0023543171
2274 0.0023954525
2272 0.0024354144
2270 0.0024735907
2268 0.0025165381
2266 0.0025659371
2264 0.0025977802
2262 0.0026052324
2260 0.0026777894
2258 0.0028415832
2256 0.0027633342
2254 0.0023447699
2252 0.0028260653
2250 0.0045764772
2248 0.002982097
2246 -0.0037071251
2244 -0.00014681458
2242 0.023885731
2240 0.038692001
2238 0.015998719
2236 -0.021171685
2234 -0.040559638
2232 -0.031971835
2230 0.0022125251
2228 0.035067901
2226 0.040253848
2224 0.02226932
2222 -0.0059911571
2220 -0.034506541
2218 -0.054454461
2216 -0.057944287
2214 -0.039295319
2212 -0.00070817186
2210 0.04902719
2208 0.083999164
2206 0.080691144
2204 0.046260417
2202 0.0021520595
2200 -0.010649577
2198 0.043914709
2196 0.15796685
2194 0.30417487
2192 0.43208435
2190 0.49502388
2188 0.49014449
2186 0.43259156
2184 0.3536624
2182 0.28345278
2180 0.22715537
2178 0.18118055
2176 0.13940886
2174 0.097481698
2172 0.060897291
2170 0.037788112
2168 0.033781983
2166 0.050917037
2164 0.080245636
2162 0.11022991
2160 0.13363999
2158 0.1475866
2156 0.16050699
2154 0.18348253
2152 0.22282052
2150 0.27886707
2148 0.33469382
2146 0.36742821
2144 0.35436362
2142 0.28163391
2140 0.17103305
2138 0.057073373
2136 -0.024982143
2134 -0.050601661
2132 -0.0389481
2130 -0.022067778
2128 -0.020594001
2126 -0.04264383
2124 -0.063736111
2122 -0.05395421
2120 -0.0093613174
2118 0.06296774
2116 0.15151733
2114 0.2451053
2112 0.33932576
2110 0.42979887
2108 0.50152028
2106 0.53874099
2104 0.53957504
2102 0.50865322
2100 0.45523161
2098 0.38880977
2096 0.31334144
2094 0.23154254
2092 0.14989883
2090 0.074654654
2088 0.0044678063
2086 -0.063901529
2084 -0.12893257
2082 -0.18473527
2080 -0.21567132
2078 -0.20623232
2076 -0.15744871
2074 -0.079328939
2072 0.0090898005
2070 0.088831313
2068 0.15518132
2066 0.20959857
2064 0.25431451
2062 0.29003036
2060 0.31096682
2058 0.31073001
2056 0.29186288
2054 0.26132539
2052 0.22862181
2050 0.2020126
2048 0.18078193
2046 0.16056071
2044 0.1375898
2042 0.11009257
2040 0.082655698
2038 0.062136166
2036 0.053440001
2034 0.057764918
2032 0.064852566
2030 0.06018265
2028 0.032222982
2026 -0.024497934
2024 -0.096567467
2022 -0.16291642
2020 -0.20534205
2018 -0.21140976
2016 -0.18580399
2014 -0.14153987
2012 -0.09461429
2010 -0.057779193
2008 -0.026098046
2006 0.012057407
2004 0.062031254
2002 0.12090854
2000 0.16511977
1998 0.16775088
1996 0.12779786
1994 0.059618339
1992 -0.011354051
1990 -0.060819812
1988 -0.088289022
1986 -0.10448915
1984 -0.1183224
1982 -0.13531183
1980 -0.15348619
1978 -0.16731708
1976 -0.17116514
1974 -0.15958659
1972 -0.12715709
1970 -0.071982652
1968 -0.0071458165
1966 0.047573876
1964 0.07555636
1962 0.067576319
1960 0.037153721
1958 0.0080391569
1956 -0.00057265861
1954 0.023131579
1952 0.072641343
1950 0.13009305
1948 0.16797464
1946 0.16014749
1944 0.10487656
1942 0.017250003
1940 -0.070991516
1938 -0.12666336
1936 -0.14364572
1934 -0.13166752
1932 -0.10503072
1930 -0.075083822
1928 -0.03504625
1926 0.031653225
1924 0.14168364
1922 0.30211562
1920 0.48147622
1918 0.63119632
1916 0.71879685
1914 0.73008132
1912 0.68471962
1910 0.6139102
1908 0.52188581
1906 0.40050131
1904 0.25948921
1902 0.12467229
1900 0.042254914
1898 0.057434738
1896 0.16521487
1894 0.32701874
1892 0.4856776
1890 0.58352703
1888 0.59571588
1886 0.52292329
1884 0.39209026
1882 0.2418374
1880 0.1033622
1878 0.00063491799
1876 -0.049522098
1874 -0.036748774
1872 0.036929928
1870 0.15579014
1868 0.27428868
1866 0.33668277
1864 0.31755766
1862 0.2183357
1860 0.071333885
1858 -0.078644171
1856 -0.20525542
1854 -0.29378355
1852 -0.32388324
1850 -0.27703482
1848 -0.1642244
1846 -0.020452214
1844 0.095418468
1842 0.12440576
1840 0.064273119
1838 -0.046574973
1836 -0.15286881
1834 -0.19902189
1832 -0.15783331
1830 -0.029430654
1828 0.14745063
1826 0.31200793
1824 0.40586007
1822 0.38670555
1820 0.2662662
1818 0.092048064
1816 -0.082877949
1814 -0.21348757
1812 -0.28962055
1810 -0.32268226
1808 -0.31822559
1806 -0.27580199
1804 -0.19732025
1802 -0.089196987
1800 0.032369271
1798 0.14643343
1796 0.23902856
1794 0.29986045
1792 0.31042001
1790 0.25492209
1788 0.15844417
1786 0.070782624
1784 0.023205422
1782 0.029338889
1780 0.096991271
1778 0.22949331
1776 0.41884601
1774 0.63881648
1772 0.81486803
1770 0.85501289
1768 0.73872125
1766 0.51178002
1764 0.27199501
1762 0.12040041
1760 0.035176411
1758 -0.074176677
1756 -0.1889993
1754 -0.21155971
1752 -0.10149798
1750 0.11531258
1748 0.35775235
1746 0.52267253
1744 0.55826247
1742 0.47113574
1740 0.34141904
1738 0.27959633
1736 0.31053001
1734 0.37979931
1732 0.39498413
1730 0.2678158
1728 0.015722796
1726 -0.25568527
1724 -0.41686064
1722 -0.34020591
1720 0.063801542
1718 0.82343811
1716 1.8218515
1714 2.8477116
1712 3.7540994
1710 4.4943247
1708 5.1796141
1706 6.0361395
1704 7.2937036
1702 9.1456652
1700 11.681675
1698 14.851609
1696 18.322428
1694 21.602409
1692 24.464203
1690 26.98568
1688 29.511868
1686 32.513706
1684 36.209621
1682 40.498974
1680 44.88744
1678 48.722271
1676 51.96397
1674 55.119957
1672 58.63258
1670 62.714325
1668 67.185371
1666 71.5979
1664 75.7005
1662 79.474411
1660 82.964424
1658 86.233635
1656 89.35257
1654 92.364578
1652 95.167175
1650 97.510994
1648 99.034691
1646 99.396042
1644 98.709511
1642 97.455139
1640 95.877159
1638 93.910545
1636 91.370117
1634 88.074371
1632 84.131989
1630 79.899818
1628 75.629013
1626 71.404518
1624 67.205276
1622 62.956215
1620 58.657047
1618 54.391499
1616 50.254513
1614 46.339272
1612 42.752609
1610 39.598251
1608 36.891537
1606 34.559486
1604 32.52713
1602 30.742826
1600 29.191902
1598 27.887815
1596 26.826
1594 25.977571
1592 25.302713
1590 24.759092
1588 24.334068
1586 24.046513
1584 23.920324
1582 23.980379
1580 24.256474
1578 24.777592
1576 25.537029
1574 26.482876
1572 27.526241
1570 28.562279
1568 29.54772
1566 30.51082
1564 31.498777
1562 32.588013
1560 33.985573
1558 35.961376
1556 38.433086
1554 40.93948
1552 43.077824
1550 44.654396
1548 45.79137
1546 46.873287
1544 48.123856
1542 49.487617
1540 50.67506
1538 51.249027
1536 51.005886
1534 50.068989
1532 48.751453
1530 47.459061
1528 46.377148
1526 45.4133
1524 44.418861
1522 43.260078
1520 41.858479
1518 40.214169
1516 38.431973
1514 36.686844
1512 35.001881
1510 33.201927
1508 31.069355
1506 28.439386
1504 25.423332
1502 22.419432
1500 19.710684
1498 17.35334
1496 15.277143
1494 13.325906
1492 11.390837
1490 9.4414053
1488 7.4730005
1486 5.5061388
1484 3.6337101
1482 2.0262673
1480 0.82884252
1478 0.13476729
1476 0.034105435
1474 0.58607179
1472 1.6324481
1470 2.7783961
1468 3.7556932
1466 4.5378494
1464 5.2171149
1462 5.9483395
1460 6.7684665
1458 7.5354347
1456 8.0314398
1454 8.0341663
1452 7.5560455
1450 6.8984475
1448 6.2970996
1446 5.8122783
1444 5.4416828
1442 5.151906
1440 4.91399
1438 4.7086234
1436 4.4921002
1434 4.1925011
1432 3.77424
1430 3.2660069
1428 2.741854
1426 2.3115416
1424 2.0493305
1422 1.9641021
1420 2.0235734
1418 2.1609962
1416 2.3208487
1414 2.478651
1412 2.6412747
1410 2.8472857
1408 3.1235161
1406 3.4690695
1404 3.8703117
1402 4.3027706
1400 4.7337761
1398 5.1218257
1396 5.4237571
1394 5.6018696
1392 5.6471839
1390 5.5905147
1388 5.4671392
1386 5.3043852
1384 5.1184554
1382 4.9114079
1380 4.6828952
1378 4.4327607
1376 4.1569028
1374 3.8476994
1372 3.5107679
1370 3.1717086
1368 2.8502624
1366 2.5475986
1364 2.2409172
1362 1.8834952
1360 1.4608909
1358 1.0173664
1356 0.61318702
1354 0.30646843
1352 0.11798024
1350 0.01302623
1348 -0.038257964
1346 -0.037451964
1344 0.024871722
1342 0.16025668
1340 0.34894139
1338 0.52303654
1336 0.62308913
1334 0.62635857
1332 0.55060649
1330 0.46295762
1328 0.4203907
1326 0.44393808
1324 0.54155654
1322 0.71230459
1320 0.94947797
1318 1.237939
1316 1.54807
1314 1.8310273
1312 2.0446143
1310 2.1685669
1308 2.2069991
1306 2.1959028
1304 2.1724961
1302 2.161978
1300 2.1769764
1298 2.2136986
1296 2.2678714
1294 2.3403907
1292 2.4318585
1290 2.5400085
1288 2.658344
1286 2.7756608
1284 2.8856711
1282 2.9928253
1280 3.1037915
1278 3.223762
1276 3.3538699
1274 3.4894791
1272 3.6298828
1270 3.7844219
1268 3.9670768
1266 4.1951365
1264 4.4806643
1262 4.8246899
1260 5.2226062
1258 5.6642923
1256 6.1387768
1254 6.6357074
1252 7.1458402
1250 7.6626339
1248 8.1816187
1246 8.7018747
1244 9.2232037
1242 9.7444391
1240 10.260577
1238 10.75928
1236 11.219543
1234 11.61074
1232 11.906119
1230 12.090187
1228 12.155783
1226 12.108357
1224 11.953474
1222 11.693295
1220 11.337726
1218 10.90921
1216 10.426828
1214 9.9030943
1212 9.3482685
1210 8.7703018
1208 8.1799021
1206 7.5924253
1204 7.0189619
1202 6.4595108
1200 5.9118428
1198 5.3748579
1196 4.8485641
1194 4.3345628
1192 3.8346536
1190 3.3501849
1188 2.8847189
1186 2.4470334
1184 2.0482457
1182 1.7022927
1180 1.4216411
1178 1.2136087
1176 1.07866
1174 1.0037483
1172 0.97026157
1170 0.95525628
1168 0.94002706
1166 0.91839999
1164 0.89005905
1162 0.86053938
1160 0.83139831
1158 0.79236722
1156 0.732333
1154 0.64543962
1152 0.53330702
1150 0.41158137
1148 0.29668939
1146 0.19859393
1144 0.12151907
1142 0.060700774
1140 0.016712161
1138 0.0072680265
1136 0.051125824
1134 0.15938109
1132 0.33707994
1130 0.57935399
1128 0.87996936
1126 1.2352486
1124 1.6425021
1122 2.0987389
1120 2.5913041
1118 3.0854871
1116 3.549403
1114 3.9718721
1112 4.3491578
1110 4.6835046
1108 4.9734607
1106 5.2057948
1104 5.381793
1102 5.5449719
1100 5.745204
1098 6.0198355
1096 6.3822427
1094 6.7925749
1092 7.2083058
1090 7.61342
1088 8.0040512
1086 8.3896132
1084 8.7716627
1082 9.1232014
1080 9.4189949
1078 9.6558905
1076 9.8426161
1074 10.003445
1072 10.1566
1070 10.292547
1068 10.395986
1066 10.4547
1064 10.46568
1062 10.455051
1060 10.448235
1058 10.450115
1056 10.444371
1054 10.373137
1052 10.183337
1050 9.8694916
1048 9.4535789
1046 9.0120106
1044 8.6171293
1042 8.2948732
1040 8.0458879
1038 7.831687
1036 7.60989
1034 7.3554649
1032 7.0539384
1030 6.708735
1028 6.3310308
1026 5.9401407
1024 5.5587449
1022 5.2138572
1020 4.9268808
1018 4.6987443
1016 4.5168915
1014 4.3431177
1012 4.1390271
1010 3.8852911
1008 3.5774679
1006 3.2425706
1004 2.9086668
1002 2.5840743
1000 2.2683549
998 1.9498174
996 1.6236501
994 1.31578
992 1.0539836
990 0.84768236
988 0.6934883
986 0.56216323
984 0.42579168
982 0.28197661
980 0.14162779
978 0.038420618
976 0.0075727291
974 0.070133507
972 0.22844838
970 0.43427294
968 0.6313445
966 0.77910298
964 0.85700172
962 0.89891338
960 0.94442636
958 1.0061878
956 1.0819358
954 1.1410651
952 1.143272
950 1.0402104
948 0.81083632
946 0.53522611
944 0.28158295
942 -0.012549788
940 -0.39266807
938 -0.72782862
936 -0.88453799
934 -0.87930804
932 -0.76253122
930 -0.57199639
928 -0.33757085
926 -0.071603075
924 0.21149942
922 0.47334242
920 0.66707373
918 0.73698676
916 0.64681089
914 0.44289476
912 0.19598377
910 -0.0087575018
908 -0.10043043
906 -0.077676773
904 0.038118437
902 0.20440774
900 0.37622154
898 0.51997149
896 0.6049
