##TITLE=Methyl Ethyl Ketone
##JCAMP-DX=4.24
##DATA TYPE=INFRARED SPECTRUM
##XUNITS=cm-1
##YUNITS=Absorbance
##FIRSTX=900
##LASTX=2300
##XYDATA=(X++(Y..Y))
2296 -0.037824001
2294 -0.038610876
2292 -0.03939775
2290 -0.040184621
2288 -0.040971495
2286 -0.04175837
2284 -0.042545248
2282 -0.043332122
2280 -0.044118997
2278 -0.044905867
2276 -0.045692742
2274 -0.046479616
2272 -0.047266491
2270 -0.048053365
2268 -0.04884024
2266 -0.049627114
2264 -0.050413989
2262 -0.051200863
2260 -0.051987737
2258 -0.052774612
2256 -0.053561483
2254 -0.054348361
2252 -0.055135235
2250 -0.05592211
2248 -0.056708984
2246 -0.057495855
2244 -0.0021366058
2242 0.055777278
2240 0.1074118
2238 0.14515761
2236 0.18095616
2234 0.18805225
2232 0.18967463
2230 0.11451193
2228 0.036239862
2226 -0.037128799
2224 -0.087483428
2222 -0.033639163
2220 0.037940778
2218 0.14662901
2216 0.23195344
2214 0.2616508
2212 0.2800824
2210 0.28548682
2208 0.31935722
2206 0.38970193
2204 0.46776816
2202 0.55099148
2200 0.60279024
2198 0.630835
2196 0.63295925
2194 0.62107551
2192 0.60757804
2190 0.59381485
2188 0.5917179
2186 0.59340835
2184 0.620884
2182 0.65423423
2180 0.72480267
2178 0.80108285
2176 0.89468968
2174 0.9869889
2172 1.0464975
2170 1.091722
2168 1.072804
2166 1.0414714
2164 0.98749924
2162 0.9491384
2160 0.95642912
2158 0.98706669
2156 1.0531189
2154 1.1098808
2152 1.1478869
2150 1.1438968
2148 1.0949769
2146 1.0133178
2144 0.906856
2142 0.83323401
2140 0.78426361
2138 0.78985882
2136 0.8237623
2134 0.86873442
2132 0.91707397
2130 0.97221053
2128 1.0294071
2126 1.0911229
2124 1.15396
2122 1.2046976
2120 1.2532903
2118 1.2984167
2116 1.3421814
2114 1.380077
2112 1.4145184
2110 1.4370366
2108 1.4564217
2106 1.4713593
2104 1.4783045
2102 1.4689351
2100 1.440124
2098 1.3828979
2096 1.3275714
2094 1.2804371
2092 1.2577394
2090 1.2590936
2088 1.2504343
2086 1.23044
2084 1.1885052
2082 1.1330587
2080 1.1084851
2078 1.1012096
2076 1.1403514
2074 1.1979491
2072 1.276112
2070 1.3603108
2068 1.4582165
2066 1.55884
2064 1.6177816
2062 1.6638451
2060 1.6565174
2058 1.6450341
2056 1.6682401
2054 1.7074783
2052 1.7809048
2050 1.839906
2048 1.8458794
2046 1.8164321
2044 1.7391881
2042 1.6715388
2040 1.6312366
2038 1.6193347
2036 1.6338158
2034 1.6543888
2032 1.6763949
2030 1.7015791
2028 1.7298677
2026 1.7420186
2024 1.7440028
2022 1.7319553
2020 1.7139063
2018 1.6959345
2016 1.67776
2014 1.6432751
2012 1.602259
2010 1.5778061
2008 1.5594028
2006 1.5738565
2004 1.5931623
2002 1.5910749
2000 1.5814565
1998 1.5672567
1996 1.5701286
1994 1.6307782
1992 1.7158132
1990 1.8194505
1988 1.905968
1986 1.9491593
1984 1.9527475
1982 1.9157069
1980 1.8649597
1978 1.8114657
1976 1.8167886
1974 1.878441
1972 1.9977505
1970 2.153414
1968 2.2219286
1966 2.2306123
1964 2.1204722
1962 1.9512225
1960 1.834344
1958 1.7431355
1956 1.7255372
1954 1.7318633
1952 1.6967663
1950 1.6460278
1948 1.5943009
1946 1.553725
1944 1.5704755
1942 1.6081145
1940 1.6394511
1938 1.6518612
1936 1.6163086
1934 1.5695168
1932 1.5352041
1930 1.5207267
1928 1.5382291
1926 1.5536135
1924 1.5582888
1922 1.5482002
1920 1.5218451
1918 1.498708
1916 1.4762243
1914 1.4656826
1912 1.4645355
1910 1.464193
1908 1.4649397
1906 1.4382465
1904 1.395472
1902 1.3559536
1900 1.3170729
1898 1.3351011
1896 1.3764142
1894 1.4414079
1892 1.5094696
1890 1.527122
1888 1.5105155
1886 1.4201037
1884 1.300432
1882 1.1729498
1880 1.0610622
1878 0.99669796
1876 0.96587598
1874 0.97653168
1872 1.0099247
1870 1.0627037
1868 1.1040891
1866 1.1119443
1864 1.0783337
1862 1.0004373
1860 0.92047864
1858 0.85329533
1856 0.78160715
1854 0.70912725
1852 0.57627028
1850 0.40771207
1848 0.20490879
1846 -0.0093602166
1844 -0.13087127
1842 -0.19540575
1840 -0.12957859
1838 -0.0010376871
1836 0.1765147
1834 0.37407771
1832 0.58925515
1830 0.79418975
1828 0.92446005
1826 0.97824794
1824 0.88911337
1822 0.72746831
1820 0.53848881
1818 0.36619401
1816 0.25353
1814 0.17701688
1812 0.12694794
1810 0.087557703
1808 0.047257058
1806 0.020877751
1804 0.008154057
1802 -0.045809384
1800 -0.13588002
1798 -0.2381708
1796 -0.34223002
1794 -0.27691704
1792 -0.097608559
1790 0.1328934
1788 0.37835276
1786 0.48510593
1784 0.50461018
1782 0.48277646
1780 0.43387267
1778 0.37942499
1776 0.33083686
1774 0.32209301
1772 0.3516722
1770 0.40877548
1768 0.4457863
1766 0.38545093
1764 0.2654964
1762 0.13213643
1760 0.030524053
1758 -0.083429284
1756 -0.18455686
1754 -0.2321768
1752 -0.21398337
1750 -0.13100512
1748 -0.0668284
1746 -0.04922225
1744 -0.16526981
1742 -0.40947545
1740 -0.63020241
1738 -0.80420947
1736 -0.74701601
1734 -0.50913644
1732 -0.22897646
1730 0.055388793
1728 0.10788096
1726 -0.0024962723
1724 -0.10168774
1722 -0.1556126
1720 0.016996458
1718 0.38227674
1716 0.97428703
1714 1.6569295
1712 2.1666634
1710 2.5433421
1708 2.8540001
1706 3.3009808
1704 4.09236
1702 5.4884133
1700 7.6086397
1698 10.64317
1696 14.520285
1694 18.471291
1692 22.144604
1690 25.405771
1688 28.32189
1686 31.699593
1684 35.630756
1682 40.224106
1680 45.319481
1678 49.737267
1676 53.52317
1674 57.188572
1672 60.840084
1670 65.037331
1668 69.616722
1666 73.980598
1664 78.073578
1662 81.687027
1660 84.861801
1658 87.674515
1656 90.165199
1654 92.417076
1652 94.415298
1650 96.15033
1648 97.256332
1646 97.394142
1644 96.696632
1642 95.391747
1640 93.567192
1638 91.371925
1636 88.463715
1634 84.782982
1632 80.72905
1630 76.486191
1628 72.263206
1626 68.118935
1624 63.733398
1622 59.093422
1620 54.561676
1618 50.171814
1616 46.13723
1614 42.46843
1612 39.233131
1610 36.428051
1608 33.987537
1606 31.890879
1604 30.008633
1602 28.377392
1600 27.03019
1598 25.987171
1596 25.234001
1594 24.746069
1592 24.448561
1590 24.310343
1588 24.276426
1586 24.356436
1584 24.551416
1582 24.87492
1580 25.332172
1578 25.979792
1576 26.829
1574 27.883955
1572 29.124161
1570 30.425707
1568 31.753521
1566 33.0383
1564 34.276318
1562 35.596989
1560 37.060543
1558 39.063732
1556 41.63707
1554 44.268898
1552 46.808102
1550 48.759422
1548 50.149002
1546 51.386822
1544 52.484852
1542 53.506893
1540 54.308102
1538 54.618038
1536 54.380142
1534 53.618839
1532 52.535015
1530 51.436573
1528 50.319309
1526 49.1796
1524 47.903881
1522 46.403458
1520 44.725342
1518 42.84642
1516 40.994873
1514 39.254826
1512 37.480839
1510 35.672062
1508 33.2953
1506 30.181265
1504 26.908989
1502 23.49972
1500 20.609518
1498 18.30759
1496 16.106142
1494 14.017126
1492 11.947434
1490 9.9156761
1488 7.9301844
1486 6.0313244
1484 4.2734642
1482 2.7339709
1480 1.5275941
1478 0.68085957
1476 0.17795172
1474 0.12129743
1472 0.5108121
1470 1.0480474
1468 1.5880829
1466 2.0466585
1464 2.3920839
1462 2.7522895
1460 3.1989644
1458 3.7872992
1456 4.5668802
1454 5.3198023
1452 5.968554
1450 6.3933129
1448 6.4804296
1446 6.4746962
1444 6.3454165
1442 6.1888428
1440 5.9946871
1438 5.7416377
1436 5.4157443
1434 4.9976125
1432 4.5052834
1430 4.0310225
1428 3.599762
1426 3.2845492
1424 3.0894074
1422 3.0044682
1420 3.0303769
1418 3.1394658
1416 3.3135314
1414 3.529016
1412 3.756932
1410 4.0075355
1408 4.276515
1406 4.5778799
1404 4.9062033
1402 5.2571287
1400 5.6043439
1398 5.930655
1396 6.1982718
1394 6.3503337
1392 6.4331379
1390 6.3762646
1388 6.2578483
1386 6.034935
1384 5.7479062
1382 5.373877
1380 4.9669757
1378 4.5265169
1376 4.0761886
1374 3.636678
1372 3.2240679
1370 2.8487244
1368 2.5235932
1366 2.2068608
1364 1.8434986
1362 1.4376792
1360 0.98001611
1358 0.55023468
1356 0.24501507
1354 0.044175956
1352 0.00026250619
1350 0.028903585
1348 0.12042777
1346 0.21924463
1344 0.32221758
1342 0.42412767
1340 0.52690512
1338 0.6268518
1336 0.71342283
1334 0.79569495
1332 0.84413314
1330 0.90230781
1328 0.97867912
1326 1.0919878
1324 1.2740729
1322 1.4931136
1320 1.7658006
1318 2.0465062
1316 2.32797
1314 2.5708385
1312 2.7547681
1310 2.868381
1308 2.9081817
1306 2.8913257
1304 2.8333194
1302 2.748559
1300 2.6514056
1298 2.543345
1296 2.4396
1294 2.3492367
1292 2.2849581
1290 2.2782598
1288 2.3012559
1286 2.3782985
1284 2.4617114
1282 2.5486147
1280 2.6344931
1278 2.7176108
1276 2.8075242
1274 2.9161561
1272 3.0371475
1270 3.1836469
1268 3.3429544
1266 3.5195515
1264 3.70854
1262 3.9111536
1260 4.1278739
1258 4.3601089
1256 4.6026144
1254 4.854393
1252 5.1120701
1250 5.3719592
1248 5.6284418
1246 5.8780251
1244 6.1049609
1242 6.3092484
1240 6.4623294
1238 6.5767493
1236 6.6113358
1234 6.6022954
1232 6.5008359
1230 6.3515801
1228 6.0771856
1226 5.7486725
1224 5.273767
1222 4.7619653
1220 4.1649461
1218 3.5746298
1216 3.0045943
1214 2.4862068
1212 2.0607617
1210 1.6937879
1208 1.4072605
1206 1.1417493
1204 0.89653277
1202 0.64448082
1200 0.38643992
1198 0.12810758
1196 -0.12878679
1194 -0.38051486
1192 -0.62519479
1190 -0.85265261
1188 -1.0565969
1186 -1.1950978
1184 -1.2903423
1182 -1.2961808
1180 -1.2649548
1178 -1.1629004
1176 -1.0338819
1174 -0.83384526
1172 -0.62054884
1170 -0.37471196
1168 -0.14837679
1166 0.015168816
1164 0.1552166
1162 0.23911409
1160 0.32392097
1158 0.40821236
1156 0.47362742
1154 0.50291485
1152 0.48850873
1150 0.41654086
1148 0.3293854
1146 0.2289875
1144 0.14202344
1142 0.070789143
1140 0.027143089
1138 0.00028629415
1136 -0.0366298
1134 -0.084249854
1132 -0.095661558
1130 -0.079828545
1128 0.0074422359
1126 0.12314461
1124 0.28715473
1122 0.45167115
1120 0.57336164
1118 0.67911035
1116 0.72069228
1114 0.76327723
1112 0.81518853
1110 0.8765294
1108 0.9655416
1106 1.038295
1104 1.0681154
1102 1.0687366
1100 1.0172614
1098 0.99130088
1096 1.0128143
1094 1.1009024
1092 1.271776
1090 1.462997
1088 1.6719012
1086 1.8701807
1084 2.0614276
1082 2.2585442
1080 2.4540102
1078 2.6103091
1076 2.7343028
1074 2.7509224
1072 2.7207842
1070 2.6084187
1068 2.4820039
1066 2.3874986
1064 2.3106
1062 2.333791
1060 2.365021
1058 2.4157343
1056 2.4556773
1054 2.4476185
1052 2.4283049
1050 2.3729789
1048 2.3096428
1046 2.2282035
1044 2.1567125
1042 2.1046162
1040 2.0691657
1038 2.0541804
1036 2.0088999
1034 1.9228172
1032 1.7642051
1030 1.538107
1028 1.270216
1026 0.97546589
1024 0.69742429
1022 0.4343386
1020 0.23968869
1018 0.0800488
1016 0.017371515
1014 -0.018304156
1012 -0.043547861
1010 -0.073485464
1008 -0.1781012
1006 -0.29229462
1004 -0.44700786
1002 -0.60096741
1000 -0.74764311
998 -0.88779908
996 -0.99920714
994 -1.105917
992 -1.1981366
990 -1.2782251
988 -1.3289086
986 -1.3514514
984 -1.3236428
982 -1.2852442
980 -1.232518
978 -1.1831291
976 -1.1389428
974 -1.1180662
972 -1.1171517
970 -1.1428829
968 -1.1821234
966 -1.18361
964 -1.1649134
962 -1.0882139
960 -0.98969042
958 -0.81750959
956 -0.62647843
954 -0.3587952
952 -0.087466352
950 0.051718034
948 0.17079544
946 0.08011838
944 0.00074896932
942 0.00072900206
940 0.028465256
938 0.2280778
936 0.43246943
934 0.65110809
932 0.86487699
930 1.0683855
928 1.2777011
926 1.4949843
924 1.65596
922 1.7474862
920 1.7670875
918 1.7203492
916 1.7111413
914 1.7286872
912 1.7979143
910 1.8947099
908 1.9354808
906 1.9564865
904 1.9685634
902 1.980338
900 2.1523671
898 2.3508554
896 2.7390001
