##TITLE=Methyl Ethyl Ketone
##JCAMP-DX=4.24
##DATA TYPE=INFRARED SPECTRUM
##XUNITS=cm-1
##YUNITS=Absorbance
##FIRSTX=900
##LASTX=2300
##XYDATA=(X++(Y..Y))
2296 0.041154001
2294 0.042010773
2292 0.042866554
2290 0.043722328
2288 0.044579096
2286 0.045434881
2284 0.046291646
2282 0.04714743
2280 0.048003208
2278 0.048858982
2276 0.049715742
2274 0.050575469
2272 0.051428359
2270 0.052272305
2268 0.053140599
2266 0.054039691
2264 0.054853417
2262 0.055547196
2260 0.056560695
2258 0.058022939
2256 0.058295172
2254 0.056893561
2252 0.059917465
2250 0.069181651
2248 0.061997127
2246 0.023894357
2244 0.00083545427
2242 0.040990509
2240 0.133187
2238 0.24741618
2236 0.34574112
2234 0.4000859
2232 0.43054235
2230 0.46543059
2228 0.51038951
2226 0.56340599
2224 0.61875415
2222 0.67089933
2220 0.71920508
2218 0.76276422
2216 0.79371089
2214 0.8049202
2212 0.80080056
2210 0.78982842
2208 0.78286988
2206 0.78761518
2204 0.79613566
2202 0.79884624
2200 0.79890686
2198 0.80536354
2196 0.8349514
2194 0.90155226
2192 0.99796879
2190 1.1095594
2188 1.2178608
2186 1.3048899
2184 1.3589801
2182 1.3751333
2180 1.369138
2178 1.3649286
2176 1.3939486
2174 1.4821435
2172 1.6240977
2170 1.800354
2168 1.9772263
2166 2.1211257
2164 2.2171636
2162 2.2586255
2160 2.2475641
2158 2.1909227
2156 2.1039901
2154 2.0090067
2152 1.9438566
2150 1.9427848
2148 2.0017073
2146 2.0985999
2144 2.1918571
2142 2.2423949
2140 2.2466004
2138 2.21545
2136 2.1667714
2134 2.1175816
2132 2.0735841
2130 2.0339479
2128 1.988556
2126 1.9302857
2124 1.8790551
2122 1.8604649
2120 1.8834423
2118 1.943212
2116 2.0047314
2114 2.0294781
2112 2.0092435
2110 1.9490888
2108 1.8606677
2106 1.7591057
2104 1.667184
2102 1.6090581
2100 1.6041081
2098 1.6617668
2096 1.7590572
2094 1.8610685
2092 1.9363688
2090 1.9639277
2088 1.9589818
2086 1.9505451
2084 1.9661018
2082 2.023402
2080 2.103817
2078 2.1758845
2076 2.2137716
2074 2.2028129
2072 2.1628401
2070 2.1249406
2068 2.1106286
2066 2.1284721
2064 2.151155
2062 2.1420739
2060 2.0876188
2058 1.9913609
2056 1.8868001
2054 1.8141259
2052 1.789984
2050 1.8177161
2048 1.8891234
2046 1.9905821
2044 2.1061139
2042 2.2184887
2040 2.3091376
2038 2.3656857
2036 2.4028299
2034 2.4451282
2032 2.50736
2030 2.589236
2028 2.6485159
2026 2.6336787
2024 2.5311754
2022 2.3552465
2020 2.1611414
2018 2.0101597
2016 1.91526
2014 1.8637621
2012 1.8316437
2010 1.79785
2008 1.7708428
2006 1.7710122
2004 1.8112592
2002 1.895365
2000 2.0074205
1998 2.1206748
1996 2.1999142
1994 2.2167253
1992 2.1854944
1990 2.1420045
1988 2.12567
1986 2.1651421
1984 2.2389159
1982 2.3064234
1980 2.3482096
1978 2.3598323
1976 2.3488657
1974 2.323971
1972 2.2765582
1970 2.1934693
1968 2.0800376
1966 1.9527721
1964 1.8347765
1962 1.7465334
1960 1.687348
1958 1.6471639
1956 1.6231056
1954 1.6183511
1952 1.6434423
1950 1.7055799
1948 1.7819865
1946 1.83665
1944 1.8448818
1942 1.797676
1940 1.7229649
1938 1.6637995
1936 1.6478742
1934 1.686963
1932 1.7663159
1930 1.8590212
1928 1.9425241
1926 2.003155
1924 2.0507364
1922 2.1036932
1920 2.1630709
1918 2.217433
1916 2.2459986
1914 2.2284949
1912 2.1645279
1910 2.0655944
1908 1.9464103
1906 1.823725
1904 1.720768
1902 1.6625985
1900 1.6669377
1898 1.7387731
1896 1.8471286
1894 1.9431878
1892 1.9876662
1890 1.959545
1888 1.8855926
1886 1.8148822
1884 1.7768575
1882 1.781818
1880 1.8164388
1878 1.857278
1876 1.8904001
1874 1.911136
1872 1.925472
1870 1.9449449
1868 1.981346
1866 2.0399899
1864 2.0985053
1862 2.1207061
1860 2.0822365
1858 1.9750899
1856 1.8250543
1854 1.6773577
1852 1.5745621
1850 1.5472912
1848 1.588784
1846 1.6668249
1844 1.7364151
1842 1.7544404
1840 1.7104806
1838 1.6168969
1836 1.4937443
1834 1.365375
1832 1.2634629
1830 1.2195232
1828 1.2456857
1826 1.3318843
1824 1.4257954
1822 1.4587426
1820 1.404596
1818 1.2751386
1816 1.1155229
1814 0.98264372
1812 0.90466201
1810 0.88479304
1808 0.90806252
1806 0.95003951
1804 0.98690832
1802 0.99772638
1800 0.96755928
1798 0.88695401
1796 0.75381786
1794 0.57735789
1792 0.39752358
1790 0.27063271
1788 0.23484883
1786 0.30150586
1784 0.42787331
1782 0.54607004
1780 0.63513702
1778 0.70836812
1776 0.76614511
1774 0.79099923
1772 0.74671161
1770 0.60131109
1768 0.39489213
1766 0.21168914
1764 0.097022779
1762 0.049843088
1760 0.015653497
1758 -0.075166404
1756 -0.20604058
1754 -0.30122486
1752 -0.32100022
1750 -0.26965982
1748 -0.19123946
1746 -0.14707714
1744 -0.16590898
1742 -0.24198984
1740 -0.33730263
1738 -0.40076339
1736 -0.414446
1734 -0.39268446
1732 -0.37086993
1730 -0.38665593
1728 -0.43257406
1726 -0.46421537
1724 -0.43287122
1722 -0.29621601
1720 -0.032650821
1718 0.36215359
1716 0.88512117
1714 1.5183266
1712 2.1899056
1710 2.8100264
1708 3.4006639
1706 4.0869694
1704 5.0357633
1702 6.4269423
1700 8.415144
1698 11.069467
1696 14.162857
1694 17.26553
1692 20.095751
1690 22.588352
1688 24.964281
1686 27.625935
1684 30.849377
1682 34.682735
1680 38.75808
1678 42.485126
1676 45.754288
1674 48.912064
1672 52.321331
1670 56.215908
1668 60.498283
1666 64.831497
1664 69.013336
1662 73.002594
1660 76.769951
1658 80.283485
1656 83.578377
1654 86.739342
1652 89.80558
1650 92.713539
1648 95.147522
1646 96.654747
1644 97.132233
1642 96.810104
1640 95.866783
1638 94.356781
1636 92.263947
1634 89.560623
1632 86.366608
1630 82.917465
1628 79.32782
1626 75.577675
1624 71.645477
1622 67.545883
1620 63.354759
1618 59.191132
1616 55.14566
1614 51.279018
1612 47.676037
1610 44.43911
1608 41.60788
1606 39.154205
1604 37.030708
1602 35.186127
1600 33.576702
1598 32.167614
1596 30.929501
1594 29.838463
1592 28.878567
1590 28.042822
1588 27.333185
1586 26.760571
1584 26.341389
1582 26.097971
1580 26.070393
1578 26.311447
1576 26.848143
1574 27.661135
1572 28.65262
1570 29.661392
1568 30.572599
1566 31.347
1564 32.016415
1562 32.70298
1560 33.683434
1558 35.312614
1556 37.60957
1554 40.203629
1552 42.645664
1550 44.556271
1548 45.909451
1546 47.034752
1544 48.209572
1542 49.534382
1540 50.899601
1538 52.005497
1536 52.547314
1534 52.319836
1532 51.43502
1530 50.309631
1528 49.215839
1526 48.174301
1524 47.114777
1522 45.93187
1520 44.561451
1518 43.006042
1516 41.338245
1514 39.667969
1512 37.966999
1510 36.044544
1508 33.720303
1506 30.909899
1504 27.777327
1502 24.723507
1500 21.997486
1498 19.59193
1496 17.394142
1494 15.240974
1492 13.04038
1490 10.803061
1488 8.5742655
1486 6.4239335
1484 4.4604878
1482 2.8190122
1480 1.5514176
1478 0.62291569
1476 0.11187143
1474 0.21547842
1472 0.90318269
1470 1.8475301
1468 2.8030832
1466 3.7179828
1464 4.6119328
1462 5.5269794
1460 6.4192657
1458 7.1323581
1456 7.5181999
1454 7.4990501
1452 7.1571183
1450 6.7413025
1448 6.4008608
1446 6.1086359
1444 5.8258042
1442 5.5478888
1440 5.2707005
1438 4.9775343
1436 4.6334186
1434 4.19104
1432 3.6470566
1430 3.0613551
1428 2.503644
1426 2.0334208
1424 1.6834874
1422 1.4542389
1420 1.3497266
1418 1.3871019
1416 1.5758514
1414 1.906462
1412 2.3416924
1410 2.8147774
1408 3.2727463
1406 3.6937735
1404 4.0742106
1402 4.4253263
1400 4.7535639
1398 5.0525374
1396 5.3070574
1394 5.4940372
1392 5.596549
1390 5.6100979
1388 5.5363522
1386 5.382875
1384 5.1620035
1382 4.8914537
1380 4.5901837
1378 4.2772388
1376 3.9707544
1374 3.6862557
1372 3.431458
1370 3.2001679
1368 2.9651067
1366 2.6750014
1364 2.2943435
1362 1.8260467
1360 1.3138604
1358 0.84654355
1356 0.48928887
1354 0.25100785
1352 0.10853453
1350 0.012450054
1348 -0.064925894
1346 -0.10807286
1344 -0.096471198
1342 -0.022075582
1340 0.090991765
1338 0.17600583
1336 0.185344
1334 0.12104492
1332 0.01401284
1330 -0.079624936
1328 -0.12106349
1326 -0.10927045
1324 -0.050614975
1322 0.050100856
1320 0.18666394
1318 0.34872374
1316 0.51784599
1314 0.66512299
1312 0.76883197
1310 0.82518101
1308 0.84492892
1306 0.85520524
1304 0.87719953
1302 0.91417938
1300 0.957394
1298 0.98612082
1296 0.98834145
1294 0.97264999
1292 0.9562425
1290 0.96158689
1288 1.002504
1286 1.0751058
1284 1.1698338
1282 1.2744706
1280 1.3784188
1278 1.4749297
1276 1.5607529
1274 1.6376721
1272 1.7159475
1270 1.8183835
1268 1.9660075
1266 2.1697958
1264 2.4289179
1262 2.7259808
1260 3.0465941
1258 3.3898649
1256 3.7650371
1254 4.1931915
1252 4.690259
1250 5.2558532
1248 5.8776784
1246 6.5281
1244 7.1785145
1242 7.8047218
1240 8.3857431
1238 8.9051218
1236 9.3466587
1234 9.6939783
1232 9.9355516
1230 10.069644
1228 10.100277
1226 10.039583
1224 9.8946953
1222 9.662344
1220 9.339365
1218 8.9307842
1216 8.4510775
1214 7.9296288
1212 7.3945651
1210 6.8632555
1208 6.3428826
1206 5.8255367
1204 5.3024459
1202 4.77069
1200 4.2327642
1198 3.698391
1196 3.1759
1194 2.6673183
1192 2.1735759
1190 1.696885
1188 1.2423077
1186 0.82020789
1184 0.44339275
1182 0.12716949
1180 -0.11311822
1178 -0.26440492
1176 -0.32257798
1174 -0.3024649
1172 -0.22778828
1170 -0.13097307
1168 -0.03807706
1166 0.043521639
1164 0.11095649
1162 0.1609025
1160 0.18449292
1158 0.1623448
1156 0.086027548
1154 -0.022192299
1152 -0.13184085
1150 -0.21181297
1148 -0.2432678
1146 -0.23528178
1144 -0.19770274
1142 -0.12789999
1140 -0.030284405
1138 0.069250517
1136 0.15642142
1134 0.25639689
1132 0.40348661
1130 0.62977064
1128 0.95260024
1126 1.3549435
1124 1.80855
1122 2.2789059
1120 2.7396281
1118 3.1878176
1116 3.6220558
1114 4.0317249
1112 4.4031372
1110 4.723866
1108 4.9962802
1106 5.2599449
1104 5.5599332
1102 5.9306402
1100 6.3827915
1098 6.8729057
1096 7.3486142
1094 7.7692914
1092 8.120616
1090 8.4476423
1088 8.8007593
1086 9.2051363
1084 9.6605682
1082 10.117402
1080 10.524212
1078 10.85641
1076 11.103143
1074 11.275257
1072 11.38968
1070 11.463339
1068 11.514635
1066 11.571472
1064 11.65176
1062 11.749739
1060 11.842857
1058 11.881214
1056 11.817228
1054 11.629691
1052 11.314425
1050 10.89798
1048 10.412304
1046 9.8899183
1044 9.3628635
1042 8.8684702
1040 8.4386311
1038 8.0869608
1036 7.8133597
1034 7.590076
1032 7.3808985
1030 7.1446366
1028 6.8437753
1026 6.4569292
1024 5.9833789
1022 5.472496
1020 4.9838395
1018 4.5683274
1016 4.2535973
1014 4.0023351
1012 3.7671177
1010 3.5179176
1008 3.2420521
1006 2.9666986
1004 2.7218077
1002 2.5150545
1000 2.3448205
998 2.1977272
996 2.0558071
994 1.8967201
992 1.6995549
990 1.4520713
988 1.15213
986 0.82281798
984 0.49550477
982 0.2075754
980 -0.0032913163
978 -0.10391358
976 -0.072240993
974 0.080275461
972 0.32449973
970 0.60039914
968 0.85048431
966 1.052025
964 1.1985788
962 1.310487
960 1.4065828
958 1.478626
956 1.50757
954 1.4605933
952 1.309108
950 1.0513868
948 0.71228099
946 0.38640821
944 0.15565383
942 -0.0042711049
940 -0.13312185
938 -0.2316404
936 -0.29796028
934 -0.35563272
932 -0.42566574
930 -0.49669707
928 -0.5576359
926 -0.62807786
924 -0.73237777
922 -0.8840785
920 -1.0907989
918 -1.3475447
916 -1.6359729
914 -1.8984767
912 -2.0655701
910 -2.0607779
908 -1.8376887
906 -1.4749814
904 -1.0813713
902 -0.76244533
900 -0.59154904
898 -0.51784629
896 -0.45934999
