##TITLE=Methyl Ethyl Ketone
##JCAMP-DX=4.24
##DATA TYPE=INFRARED SPECTRUM
##XUNITS=cm-1
##YUNITS=Absorbance
##FIRSTX=900
##LASTX=2300
##XYDATA=(X++(Y..Y))
2296 0.056579001
2294 0.057756316
2292 0.058932636
2290 0.060109947
2288 0.061287265
2286 0.062464576
2284 0.063640907
2282 0.064818211
2280 0.065995529
2278 0.067171849
2276 0.068349153
2274 0.069527455
2272 0.070703812
2270 0.071877174
2268 0.073057361
2266 0.074245498
2264 0.075412303
2262 0.07654839
2260 0.077764623
2258 0.079091839
2256 0.080124684
2254 0.08074376
2252 0.08245603
2250 0.085708372
2248 0.084900536
2246 0.072935931
2244 0.043422453
2242 -0.0035557779
2240 -0.0426891
2238 -0.047193483
2236 -0.013022742
2234 0.055084236
2232 0.14331132
2230 0.23342347
2228 0.29967508
2226 0.32090899
2224 0.30336285
2222 0.26339456
2220 0.22580299
2218 0.21077664
2216 0.21016085
2214 0.20770346
2212 0.18883459
2210 0.14268243
2208 0.071079291
2206 -0.019458257
2204 -0.11879804
2202 -0.21492428
2200 -0.29233554
2198 -0.3367967
2196 -0.34348285
2194 -0.31426832
2192 -0.26627526
2190 -0.21876188
2188 -0.18039674
2186 -0.1534223
2184 -0.12802041
2182 -0.095135182
2180 -0.064257473
2178 -0.051532257
2176 -0.075498313
2174 -0.14856756
2172 -0.25546777
2170 -0.3702049
2168 -0.46021721
2166 -0.49919987
2164 -0.49449027
2162 -0.46711114
2160 -0.4476423
2158 -0.46056131
2156 -0.49301299
2154 -0.51997358
2152 -0.51885301
2150 -0.47734252
2148 -0.4203963
2146 -0.38156927
2144 -0.37667835
2142 -0.40785241
2140 -0.44785818
2138 -0.46485436
2136 -0.44980627
2134 -0.40601012
2132 -0.35270032
2130 -0.31087252
2128 -0.28622079
2126 -0.27710521
2124 -0.27500954
2122 -0.27178374
2120 -0.27023089
2118 -0.27631965
2116 -0.29197457
2114 -0.31528229
2112 -0.33506444
2110 -0.340615
2108 -0.33705443
2106 -0.33583364
2104 -0.34949395
2102 -0.3869555
2100 -0.4413662
2098 -0.49877948
2096 -0.54072714
2094 -0.54907262
2092 -0.51320577
2090 -0.43035519
2088 -0.31776828
2086 -0.2017875
2084 -0.11415223
2082 -0.082737185
2080 -0.11158554
2078 -0.19043317
2076 -0.28927141
2074 -0.37271464
2072 -0.41430241
2070 -0.39836612
2068 -0.33787516
2066 -0.25915864
2064 -0.19630846
2062 -0.17800817
2060 -0.19903295
2058 -0.2385581
2056 -0.26963913
2054 -0.27148819
2052 -0.2569845
2050 -0.25175202
2048 -0.27504057
2046 -0.33543393
2044 -0.41118041
2042 -0.47040427
2040 -0.49276885
2038 -0.47007155
2036 -0.42151299
2034 -0.37574044
2032 -0.35240611
2030 -0.36123818
2028 -0.38958383
2026 -0.41636163
2024 -0.42576754
2022 -0.41003042
2020 -0.3831549
2018 -0.36710939
2016 -0.377
2014 -0.41937777
2012 -0.48005801
2010 -0.53890866
2008 -0.5899139
2006 -0.63499534
2004 -0.67991632
2002 -0.72798103
2000 -0.76633102
1998 -0.77599317
1996 -0.74427712
1994 -0.66762143
1992 -0.56667387
1990 -0.47266969
1988 -0.41414222
1986 -0.41239822
1984 -0.46640801
1982 -0.56298786
1980 -0.68227428
1978 -0.80046606
1976 -0.8879143
1974 -0.91568512
1972 -0.86931694
1970 -0.75150645
1968 -0.60709274
1966 -0.49646944
1964 -0.45922992
1962 -0.50977045
1960 -0.60493362
1958 -0.68022496
1956 -0.70007515
1954 -0.65430993
1952 -0.57018077
1950 -0.48874116
1948 -0.43352935
1946 -0.41346499
1944 -0.41904664
1942 -0.43205345
1940 -0.43424228
1938 -0.41176426
1936 -0.36681685
1934 -0.31258243
1932 -0.27353799
1930 -0.27392012
1928 -0.31396976
1926 -0.37647644
1924 -0.42599723
1922 -0.42797285
1920 -0.38972789
1918 -0.3408761
1916 -0.30618286
1914 -0.29868081
1912 -0.30039579
1910 -0.28392306
1908 -0.25325766
1906 -0.22937386
1904 -0.22504039
1902 -0.23972741
1900 -0.24183773
1898 -0.19062334
1896 -0.079335004
1894 0.071744569
1892 0.21471389
1890 0.29376
1888 0.27925509
1886 0.16684629
1884 -0.0083051845
1882 -0.19248867
1880 -0.34421366
1878 -0.43543455
1876 -0.457192
1874 -0.41009179
1872 -0.29148442
1870 -0.10493054
1868 0.10562117
1866 0.27429914
1864 0.34588435
1862 0.28935501
1860 0.14210026
1858 -0.023349132
1856 -0.15775637
1854 -0.23560014
1852 -0.25555155
1850 -0.23090997
1848 -0.1824968
1846 -0.13421464
1844 -0.10903492
1842 -0.12332137
1840 -0.16805092
1838 -0.21731894
1836 -0.24026528
1834 -0.20945889
1832 -0.11914763
1830 0.0163671
1828 0.15530267
1826 0.24504271
1824 0.25626898
1822 0.18357635
1820 0.053589512
1818 -0.090704799
1816 -0.21759456
1814 -0.30703285
1812 -0.34875
1810 -0.33769956
1808 -0.26845691
1806 -0.14201516
1804 0.0076775886
1802 0.12846945
1800 0.18571143
1798 0.17126589
1796 0.13213713
1794 0.13824767
1792 0.2023508
1790 0.29173425
1788 0.3635138
1786 0.38383862
1784 0.36740947
1782 0.3603988
1780 0.39874852
1778 0.50050408
1776 0.65383661
1774 0.82013232
1772 0.92735839
1770 0.89848936
1768 0.73011041
1766 0.48069894
1764 0.24044001
1762 0.093013451
1760 0.02122825
1758 -0.051142126
1756 -0.12843965
1754 -0.15694642
1752 -0.10163084
1750 0.038708739
1748 0.21092552
1746 0.33178499
1744 0.3494978
1742 0.25670534
1740 0.12050701
1738 0.046659216
1736 0.081375197
1734 0.20408687
1732 0.32527408
1730 0.33004373
1728 0.19334462
1726 -0.023762636
1724 -0.20729926
1722 -0.2191513
1720 0.053305835
1718 0.66869861
1716 1.5452355
1714 2.5040491
1712 3.4055817
1710 4.1915264
1708 4.9666858
1706 5.9597483
1704 7.4120173
1702 9.5282459
1700 12.381486
1698 15.872912
1696 19.587715
1694 22.947561
1692 25.722485
1690 28.069088
1688 30.457691
1686 33.516327
1684 37.647846
1682 42.896862
1680 48.64748
1678 53.935703
1676 58.559887
1674 63.026054
1672 67.800224
1670 73.082512
1668 78.53196
1666 83.450104
1664 87.471054
1662 90.610306
1660 93.015091
1658 94.869255
1656 96.291145
1654 97.316048
1652 97.882744
1650 97.866432
1648 97.191307
1646 95.877396
1644 94.139626
1642 92.309662
1640 90.488701
1638 88.530426
1636 86.228645
1634 83.405693
1632 80.068611
1630 76.374466
1628 72.394691
1626 68.093132
1624 63.446121
1622 58.488804
1620 53.388298
1618 48.414207
1616 43.77597
1614 39.595345
1612 35.942257
1610 32.837601
1608 30.2356
1606 28.039036
1604 26.168139
1602 24.577734
1600 23.251583
1598 22.195185
1596 21.409
1594 20.882572
1592 20.598976
1590 20.540777
1588 20.699469
1586 21.073542
1584 21.654646
1582 22.43614
1580 23.464025
1578 24.836685
1576 26.644171
1574 28.93154
1572 31.621075
1570 34.519619
1568 37.456959
1566 40.322826
1564 43.064312
1562 45.709896
1560 48.451313
1558 51.545452
1556 54.777687
1554 57.458832
1552 59.129272
1550 59.739765
1548 59.560841
1546 59.061428
1544 58.417767
1542 57.437752
1540 55.901142
1538 53.695511
1536 50.996887
1534 48.249004
1532 45.746609
1530 43.538284
1528 41.577602
1526 39.759903
1524 37.953041
1522 36.01825
1520 33.86977
1518 31.509947
1516 29.073044
1514 26.792641
1512 24.748199
1510 22.806856
1508 20.780514
1506 18.508064
1504 16.036245
1502 13.634116
1500 11.495086
1498 9.6535025
1496 8.0614853
1494 6.6229625
1492 5.2843637
1490 4.0542011
1488 2.9345915
1486 1.9107921
1484 1.0033069
1482 0.28051761
1480 -0.18297413
1478 -0.31291968
1476 -0.010187
1474 0.82225454
1472 2.1050401
1470 3.5525639
1468 4.936934
1466 6.1766343
1464 7.3003311
1462 8.4303255
1460 9.6603699
1458 10.999189
1456 12.3202
1454 13.363081
1452 13.951951
1450 14.069268
1448 13.794417
1446 13.280107
1444 12.648611
1442 11.95832
1440 11.238789
1438 10.495771
1436 9.7132511
1434 8.8605604
1432 7.9490695
1430 7.0537271
1428 6.2575817
1426 5.6301737
1424 5.2045879
1422 4.9652662
1420 4.8762474
1418 4.8908801
1416 4.9745684
1414 5.115953
1412 5.321754
1410 5.6134052
1408 5.993989
1406 6.433372
1404 6.8830004
1402 7.2798185
1400 7.5670757
1398 7.7051139
1396 7.6758857
1394 7.4898911
1392 7.1781225
1390 6.7908936
1388 6.3718238
1386 5.9476848
1384 5.5367031
1382 5.1488142
1380 4.7855234
1378 4.4363608
1376 4.0766373
1374 3.6681745
1372 3.1927681
1370 2.6680722
1368 2.1250799
1366 1.6000772
1364 1.1124263
1362 0.65695775
1360 0.24424776
1358 -0.083330512
1356 -0.28216386
1354 -0.31984621
1352 -0.17807885
1350 0.13989037
1348 0.60749853
1346 1.1723793
1344 1.798156
1342 2.4780414
1340 3.1804135
1338 3.8221688
1336 4.3044028
1334 4.5315247
1332 4.4711223
1330 4.1930671
1328 3.7919126
1326 3.3619165
1324 2.98086
1322 2.695317
1320 2.5233142
1318 2.4444969
1316 2.4163799
1314 2.3774877
1312 2.2826138
1310 2.1240685
1308 1.9196697
1306 1.7143829
1304 1.5486509
1302 1.442973
1300 1.4056259
1298 1.4326019
1296 1.5275
1294 1.7118407
1292 2.0095124
1290 2.4379284
1288 2.9884601
1286 3.6086009
1284 4.231843
1282 4.788671
1280 5.232522
1278 5.5606689
1276 5.790453
1274 5.9565382
1272 6.0926771
1270 6.2235932
1268 6.3727188
1266 6.565053
1264 6.8253608
1262 7.176105
1260 7.6338382
1258 8.2039709
1256 8.8880453
1254 9.6847315
1252 10.589708
1250 11.592304
1248 12.6726
1246 13.7935
1244 14.909457
1242 15.961223
1240 16.891047
1238 17.642151
1236 18.161499
1234 18.397827
1232 18.302681
1230 17.844788
1228 17.018936
1226 15.872371
1224 14.478715
1222 12.943318
1220 11.386477
1218 9.945796
1216 8.7442455
1214 7.8679762
1212 7.3564134
1210 7.1713839
1208 7.2388263
1206 7.4490671
1204 7.688272
1202 7.8531537
1200 7.8573132
1198 7.6479101
1196 7.2070427
1194 6.5754938
1192 5.8194571
1190 5.0270891
1188 4.2734375
1186 3.5926771
1184 3.0005441
1182 2.4934788
1180 2.0678163
1178 1.7283179
1176 1.4789201
1174 1.3168365
1172 1.2362586
1170 1.2288811
1168 1.2875326
1166 1.4079179
1164 1.5785031
1162 1.769513
1160 1.938488
1158 2.0261052
1156 1.9873786
1154 1.82117
1152 1.5532143
1150 1.2458344
1148 0.95399839
1146 0.69529068
1144 0.47610915
1142 0.2970517
1140 0.15244247
1138 0.026433796
1136 -0.089553595
1134 -0.1823433
1132 -0.24313205
1130 -0.2850056
1128 -0.31921846
1126 -0.33943498
1124 -0.3303456
1122 -0.26736027
1120 -0.1439344
1118 -0.0025533065
1116 0.10537956
1114 0.13869524
1112 0.088647164
1110 0.018980511
1108 -0.0053785294
1106 0.038344346
1104 0.14726469
1102 0.28077868
1100 0.40304196
1098 0.51365614
1096 0.62431997
1094 0.75596905
1092 0.93309402
1090 1.1827009
1088 1.5249348
1086 1.9584215
1084 2.4561176
1082 2.9374695
1080 3.3152542
1078 3.5215681
1076 3.5241256
1074 3.3731205
1072 3.14376
1070 2.922163
1068 2.773824
1066 2.6997828
1064 2.678668
1062 2.670063
1060 2.6394868
1058 2.5808189
1056 2.4952457
1054 2.384851
1052 2.2540443
1050 2.1140859
1048 1.9793686
1046 1.8690608
1044 1.7951566
1042 1.747442
1040 1.7187852
1038 1.7262524
1036 1.79108
1034 1.9273186
1032 2.1226964
1030 2.295891
1028 2.3640501
1026 2.2929988
1024 2.085916
1022 1.821154
1020 1.575228
1018 1.3639395
1016 1.1797487
1014 0.99114823
1012 0.76987791
1010 0.51702601
1008 0.23742215
1006 -0.073713541
1004 -0.4138332
1002 -0.75052875
1000 -1.0473875
998 -1.2792749
996 -1.4316143
994 -1.5162131
992 -1.5492023
990 -1.5411546
988 -1.4998066
986 -1.4280649
984 -1.325688
982 -1.1846752
980 -1.0025885
978 -0.80143672
976 -0.60901916
974 -0.45252725
972 -0.35045683
970 -0.29274839
968 -0.25999817
966 -0.22530749
964 -0.16524315
962 -0.074730009
960 0.038374498
958 0.13761839
956 0.18538785
954 0.16508555
952 0.080137677
950 -0.014447998
948 -0.060733132
946 -0.035659321
944 0.070002064
942 0.24679737
940 0.47249836
938 0.69604421
936 0.87506628
934 1.024828
932 1.1735868
930 1.3447542
928 1.5484171
926 1.749115
924 1.9018481
922 1.9672315
920 1.9307617
918 1.8653963
916 1.8606414
914 1.9844592
912 2.2695794
910 2.6345
908 2.9730098
906 3.194185
904 3.2331073
902 3.1116168
900 2.8824885
898 2.6339557
896 2.4632001
