##TITLE=Methyl Ethyl Ketone
##JCAMP-DX=4.24
##DATA TYPE=INFRARED SPECTRUM
##XUNITS=cm-1
##YUNITS=Absorbance
##FIRSTX=900
##LASTX=2300
##XYDATA=(X++(Y..Y))
2296 -0.010608
2294 -0.010828684
2292 -0.011049368
2290 -0.011270053
2288 -0.011490737
2286 -0.011711421
2284 -0.011932106
2282 -0.01215279
2280 -0.012373474
2278 -0.012594159
2276 -0.012814843
2274 -0.013035527
2272 -0.013256212
2270 -0.013476896
2268 -0.01369758
2266 -0.013918264
2264 -0.014138948
2262 -0.014359633
2260 -0.014580317
2258 -0.014801001
2256 -0.015021686
2254 -0.01524237
2252 -0.015463054
2250 -0.015683739
2248 -0.015904423
2246 -0.016125107
2244 -0.00059922569
2242 0.0042553786
2240 0.00372722
2238 -0.04871764
2236 -0.10876285
2234 -0.18073486
2232 -0.25097904
2230 -0.26367095
2228 -0.26875445
2226 -0.23498
2224 -0.20075834
2222 -0.17341767
2220 -0.14374152
2218 -0.10573667
2216 -0.062282484
2214 -0.0079543926
2212 0.045753635
2210 0.09738189
2208 0.15117446
2206 0.20780279
2204 0.24714972
2202 0.26963249
2200 0.2697753
2198 0.25404668
2196 0.24906285
2194 0.25091171
2192 0.26361418
2190 0.28089666
2188 0.32214358
2186 0.37106305
2184 0.44605678
2182 0.52692908
2180 0.55090237
2178 0.56579363
2176 0.53729659
2174 0.51159734
2172 0.56297469
2170 0.62989616
2168 0.7440564
2166 0.84640628
2164 0.88894635
2162 0.89992368
2160 0.8453207
2158 0.76715559
2156 0.65692103
2154 0.5410102
2152 0.42170537
2150 0.33913809
2148 0.29839009
2146 0.31428108
2144 0.37639356
2142 0.44799918
2140 0.52290386
2138 0.57125694
2136 0.6049397
2134 0.62736803
2132 0.64557898
2130 0.64432937
2128 0.63696319
2126 0.61086649
2124 0.58055818
2122 0.56230694
2120 0.5453347
2118 0.51542443
2116 0.48507157
2114 0.46499929
2112 0.46076468
2110 0.51989794
2108 0.59458649
2106 0.68825865
2104 0.76647258
2102 0.80449772
2100 0.8074106
2098 0.76141536
2096 0.69865429
2094 0.62350011
2092 0.58674288
2090 0.59162349
2088 0.6434117
2086 0.72882301
2084 0.77892339
2082 0.80257922
2080 0.74010175
2078 0.63423854
2076 0.527771
2074 0.42326277
2072 0.43493241
2070 0.48413375
2068 0.59538788
2066 0.71936959
2064 0.7481612
2062 0.75116086
2060 0.67851371
2058 0.5950309
2056 0.53390539
2054 0.48473182
2052 0.46342719
2050 0.44547841
2048 0.42296046
2046 0.39610571
2044 0.3630276
2042 0.34030667
2040 0.33426213
2038 0.33529618
2036 0.34006342
2034 0.3263329
2032 0.29416674
2030 0.2673839
2028 0.24796209
2026 0.27432007
2024 0.3295995
2022 0.39290145
2020 0.45836422
2018 0.46536332
2016 0.44723201
2014 0.41193369
2012 0.37107828
2010 0.37122598
2008 0.38091806
2006 0.37249735
2004 0.35331246
2002 0.2929906
2000 0.22750737
1998 0.18783833
1996 0.16756427
1994 0.18797483
1992 0.20819388
1990 0.20249127
1988 0.1787722
1986 0.13102071
1984 0.09830568
1982 0.094578147
1980 0.10692878
1978 0.13142355
1976 0.14109914
1974 0.1354541
1972 0.13756417
1970 0.14861943
1968 0.1829024
1966 0.23077071
1964 0.2300844
1962 0.20170484
1960 0.11184284
1958 -0.0037180092
1956 -0.12658684
1954 -0.25148809
1952 -0.36948663
1950 -0.48058605
1948 -0.53487414
1946 -0.557015
1944 -0.50617039
1942 -0.43344468
1940 -0.37493089
1938 -0.34111196
1936 -0.36297086
1934 -0.40595323
1932 -0.4541592
1930 -0.50083226
1928 -0.5387522
1926 -0.58689988
1924 -0.64922267
1922 -0.70751083
1920 -0.75949997
1918 -0.77331978
1916 -0.75782043
1914 -0.71591008
1912 -0.65850508
1910 -0.59619862
1908 -0.53150791
1906 -0.49607292
1904 -0.47751719
1902 -0.48576963
1900 -0.50671625
1898 -0.47214419
1896 -0.41311288
1894 -0.31533024
1892 -0.21117069
1890 -0.1711092
1888 -0.17048879
1886 -0.23982428
1884 -0.33693412
1882 -0.44056737
1880 -0.53735572
1878 -0.60978323
1876 -0.661659
1874 -0.68483633
1872 -0.68243992
1870 -0.65210491
1868 -0.61187285
1866 -0.57767963
1864 -0.56818593
1862 -0.58972591
1860 -0.61661869
1858 -0.63834155
1856 -0.66057485
1854 -0.68098456
1852 -0.75828248
1850 -0.87096083
1848 -1.0501744
1846 -1.2616714
1844 -1.4002843
1842 -1.4917439
1840 -1.4252675
1838 -1.2837505
1836 -1.1124157
1834 -0.93479991
1832 -0.77670985
1830 -0.62843311
1828 -0.49005109
1826 -0.36212778
1824 -0.26586527
1822 -0.20966645
1820 -0.20978761
1818 -0.2526499
1816 -0.32361314
1814 -0.39914417
1812 -0.46290743
1810 -0.48748747
1808 -0.47094932
1806 -0.41818851
1804 -0.34119645
1802 -0.33514008
1800 -0.3967416
1798 -0.52719468
1796 -0.69984066
1794 -0.73607147
1792 -0.6743452
1790 -0.49413392
1788 -0.2519688
1786 -0.077567607
1784 0.0476036
1782 0.10033986
1780 0.10456709
1778 0.067312188
1776 0.02064096
1774 0.029596727
1772 0.099008329
1770 0.25053072
1768 0.39986154
1766 0.4365395
1764 0.37907398
1762 0.24753575
1760 0.071100399
1758 -0.12194838
1756 -0.25426102
1754 -0.29080024
1752 -0.24822749
1750 -0.14536001
1748 -0.047359876
1746 0.022340786
1744 -0.028014801
1742 -0.19355957
1740 -0.38692355
1738 -0.5810343
1736 -0.59534401
1734 -0.46601588
1732 -0.24869432
1730 0.010321833
1728 0.082234383
1726 0.020301901
1724 -0.063785091
1722 -0.12583371
1720 0.043447092
1718 0.45456219
1716 1.1669873
1714 2.0112412
1712 2.7319155
1710 3.3414915
1708 3.86553
1706 4.5081406
1704 5.4714103
1702 7.0419841
1700 9.3601589
1698 12.713288
1696 17.07943
1694 21.599461
1692 25.865452
1690 29.593212
1688 32.819069
1686 36.380177
1684 40.404972
1682 45.101849
1680 50.330318
1678 54.894169
1676 58.836872
1674 62.670265
1672 66.496635
1670 70.889534
1668 75.671799
1666 80.195648
1664 84.416145
1662 88.138
1660 91.38636
1658 94.19294
1656 96.524742
1654 98.344009
1652 99.60482
1650 100.27927
1648 100.24589
1646 99.427147
1644 97.988434
1642 96.151085
1640 93.811028
1638 90.992477
1636 87.349915
1634 82.84333
1632 78.094276
1630 73.344925
1628 68.767883
1626 64.386703
1624 59.733681
1622 54.776402
1620 49.967148
1618 45.349838
1616 41.246799
1614 37.662128
1612 34.591805
1610 32.02243
1608 29.822121
1606 27.975721
1604 26.368299
1602 25.036207
1600 24.009645
1598 23.297638
1596 22.865
1594 22.678656
1592 22.657806
1590 22.764374
1588 22.941305
1586 23.201757
1584 23.5502
1582 23.999821
1580 24.554699
1578 25.291582
1576 26.232714
1574 27.424032
1572 28.861561
1570 30.382435
1568 31.9452
1566 33.3955
1564 34.713581
1562 35.985508
1560 37.266171
1558 39.108532
1556 41.576015
1554 44.35379
1552 47.258354
1550 49.486721
1548 51.011547
1546 52.128464
1544 52.831532
1542 53.246742
1540 53.35796
1538 53.163406
1536 52.656887
1534 51.887554
1532 50.911907
1530 49.850574
1528 48.730148
1526 47.573551
1524 46.280087
1522 44.775669
1520 43.052109
1518 41.07188
1516 39.08337
1514 37.169899
1512 35.154198
1510 33.007
1508 30.258131
1506 26.751257
1504 23.329565
1502 20.08753
1500 17.493914
1498 15.628209
1496 13.843857
1494 12.148566
1492 10.464227
1490 8.7876091
1488 7.0877867
1486 5.3869658
1484 3.73787
1482 2.2545967
1480 1.1172457
1478 0.36874765
1476 0.05392731
1474 0.23197734
1472 0.82644689
1470 1.56972
1468 2.2858024
1466 2.8577771
1464 3.2115698
1462 3.5028853
1460 3.7942986
1458 4.2199559
1456 4.8550401
1454 5.5474992
1452 6.270968
1450 6.7741599
1448 6.93717
1446 6.9747963
1444 6.8442864
1442 6.6838799
1440 6.4782743
1438 6.2048874
1436 5.8396087
1434 5.3640523
1432 4.7968073
1430 4.2536273
1428 3.7756438
1426 3.4506848
1424 3.2816455
1422 3.2432957
1420 3.3360906
1418 3.5391345
1416 3.8388
1414 4.2237372
1412 4.6220098
1410 4.9960008
1408 5.3416395
1406 5.6523099
1404 5.9597802
1402 6.267138
1400 6.551568
1398 6.7886062
1396 6.9681358
1394 7.0424256
1392 7.0737128
1390 7.0141945
1388 6.8857417
1386 6.6402402
1384 6.3072405
1382 5.8541474
1380 5.3524151
1378 4.7918286
1376 4.1982055
1374 3.5894427
1372 3.00947
1370 2.4845924
1368 2.0574079
1366 1.6949135
1364 1.3409363
1362 0.99119997
1360 0.63273501
1358 0.31438333
1356 0.10254821
1354 -0.022438586
1352 -0.022929087
1350 0.038123026
1348 0.16289884
1346 0.30974644
1344 0.4710772
1342 0.63200015
1340 0.79104447
1338 0.94077814
1336 1.0644429
1334 1.1568823
1332 1.1734849
1330 1.163607
1328 1.1140269
1326 1.0776592
1324 1.0792989
1322 1.138005
1320 1.2820388
1318 1.4845111
1316 1.74643
1314 2.0136991
1312 2.2641103
1310 2.4594626
1308 2.5865698
1306 2.6329734
1304 2.6198244
1302 2.562324
1300 2.4902811
1298 2.4255278
1296 2.3701999
1294 2.3292952
1292 2.2982633
1290 2.2823133
1288 2.28424
1286 2.3262143
1284 2.3948188
1282 2.5237045
1280 2.6701236
1278 2.8526962
1276 3.0271885
1274 3.185652
1272 3.3198543
1270 3.4152751
1268 3.4940407
1266 3.5520749
1264 3.622607
1262 3.718179
1260 3.8700399
1258 4.0894179
1256 4.3696089
1254 4.7018509
1252 5.056128
1250 5.4226894
1248 5.7857184
1246 6.1389751
1244 6.4615788
1242 6.7520533
1240 6.9716921
1238 7.1376505
1236 7.1920843
1234 7.1805887
1232 7.0228519
1230 6.802422
1228 6.4267135
1226 6.0172334
1224 5.5239096
1222 5.030652
1220 4.5370669
1218 4.044724
1216 3.5560772
1214 3.0793231
1212 2.6296551
1210 2.2233775
1208 1.8806863
1206 1.5725378
1204 1.3062639
1202 1.0637231
1200 0.84573066
1198 0.64342272
1196 0.4498843
1194 0.24471152
1192 0.03417863
1190 -0.1711688
1188 -0.36222601
1186 -0.50386578
1184 -0.61436319
1182 -0.6635046
1180 -0.68424505
1178 -0.64481801
1176 -0.58054799
1174 -0.448176
1172 -0.30317193
1170 -0.12656753
1168 0.035282575
1166 0.1497477
1164 0.24529843
1162 0.29522312
1160 0.34256521
1158 0.38313693
1156 0.40940744
1154 0.40931436
1152 0.38260287
1150 0.32132134
1148 0.2535266
1146 0.1814068
1144 0.1226428
1142 0.076368473
1140 0.03955185
1138 0.0066481847
1136 -0.040022172
1134 -0.091213703
1132 -0.098416209
1130 -0.074572191
1128 0.024686262
1126 0.15428592
1124 0.33604458
1122 0.5252617
1120 0.70493603
1118 0.86443919
1116 0.92034197
1114 0.95544565
1112 0.9115994
1110 0.87312007
1108 0.85105145
1106 0.82647651
1104 0.79339463
1102 0.74123132
1100 0.65563023
1098 0.59325254
1096 0.57598287
1094 0.63281095
1092 0.78633881
1090 0.99379379
1088 1.2518189
1086 1.5022907
1084 1.7432923
1082 1.9564127
1080 2.151052
1078 2.3288779
1076 2.4916484
1074 2.6005082
1072 2.6776354
1070 2.654083
1068 2.6009493
1066 2.4955637
1064 2.3852839
1062 2.2887292
1060 2.1932003
1058 2.0996079
1056 2.0091457
1054 1.934111
1052 1.8780234
1050 1.882478
1048 1.8944571
1046 1.9217678
1044 1.9208865
1042 1.8656932
1040 1.788196
1038 1.6805526
1036 1.59416
1034 1.5332291
1032 1.4862583
1030 1.4446044
1028 1.3288014
1026 1.1567738
1024 0.92537165
1022 0.66997319
1020 0.48949736
1018 0.34228775
1016 0.24532688
1014 0.16006047
1012 0.054798942
1010 -0.052755743
1008 -0.1488692
1006 -0.25060692
1004 -0.43044221
1002 -0.62092668
1000 -0.87794596
998 -1.1002219
996 -1.1679572
994 -1.194046
992 -1.0944537
990 -1.0347881
988 -1.0690835
986 -1.1555464
984 -1.3294309
982 -1.4647599
980 -1.54351
978 -1.5365298
976 -1.4404172
974 -1.3244457
972 -1.1960814
970 -1.1297618
968 -1.0990269
966 -1.0366526
964 -0.9519676
962 -0.7113719
960 -0.421161
958 -0.13861041
956 0.13335273
954 0.20904678
952 0.25590399
950 0.17968883
948 0.099944338
946 0.041540299
944 0.0013774949
942 0.0043769032
940 0.14464593
938 0.50921589
936 0.91688973
934 1.450137
932 1.9538658
930 2.3932428
928 2.7496359
926 2.9733036
924 3.163708
922 3.3127213
920 3.3988767
918 3.4241853
916 3.2945828
914 3.0560319
912 2.8411925
910 2.6415248
908 2.6346853
906 2.7041585
904 2.9502795
902 3.24436
900 3.6778052
898 4.133606
896 4.3477001
