##TITLE=Methyl Ethyl Ketone
##JCAMP-DX=4.24
##DATA TYPE=INFRARED SPECTRUM
##XUNITS=cm-1
##YUNITS=Absorbance
##FIRSTX=900
##LASTX=2300
##XYDATA=(X++(Y..Y))
2296 0.070387997
2294 0.071852908
2292 0.073316813
2290 0.074781708
2288 0.076245628
2286 0.077709533
2284 0.079174422
2282 0.080639333
2280 0.082103245
2278 0.08356715
2276 0.085032038
2274 0.086497933
2272 0.087959908
2270 0.08941789
2268 0.090888537
2266 0.092377052
2264 0.093818039
2262 0.095193587
2260 0.096743964
2258 0.098538063
2256 0.099684715
2254 0.099921666
2252 0.10256445
2250 0.10859793
2248 0.1056904
2246 0.081801683
2244 0.040930655
2242 -0.0052098832
2240 -0.032040603
2238 -0.020878511
2236 0.0087088142
2234 0.030884711
2232 0.038592122
2230 0.034088779
2228 0.035032623
2226 0.055525601
2224 0.077506565
2222 0.074092768
2220 0.020996269
2218 -0.095023617
2216 -0.24604143
2214 -0.3931706
2212 -0.50258559
2210 -0.55045795
2208 -0.54635698
2206 -0.51066101
2204 -0.46657085
2202 -0.43389118
2200 -0.41579464
2198 -0.4085471
2196 -0.40112573
2194 -0.38355839
2192 -0.35878092
2190 -0.33667663
2188 -0.33865604
2186 -0.38297662
2184 -0.46046799
2182 -0.54987293
2180 -0.6166333
2178 -0.62900519
2176 -0.58345115
2174 -0.48852807
2172 -0.36426529
2170 -0.2345662
2168 -0.12442446
2166 -0.055679992
2164 -0.035824932
2162 -0.061744165
2160 -0.10646034
2158 -0.13886823
2156 -0.14345899
2154 -0.11442643
2152 -0.063016228
2150 -0.0057804366
2148 0.042410161
2146 0.069086075
2144 0.068581484
2142 0.040090572
2140 -0.0068982309
2138 -0.060314834
2136 -0.11209583
2134 -0.15764137
2132 -0.20022783
2130 -0.24540959
2128 -0.29657999
2126 -0.35400558
2124 -0.40862992
2122 -0.45084399
2120 -0.4826344
2118 -0.5110684
2116 -0.54614341
2114 -0.59402895
2112 -0.64129549
2110 -0.67044926
2108 -0.67779648
2106 -0.66651475
2104 -0.64583111
2102 -0.6225189
2100 -0.58448881
2098 -0.51564777
2096 -0.41344002
2094 -0.28587887
2092 -0.16194975
2090 -0.07398887
2088 -0.035344388
2086 -0.04777205
2084 -0.097197309
2082 -0.165966
2080 -0.24628776
2078 -0.33350888
2076 -0.41864157
2074 -0.49041244
2072 -0.53617239
2070 -0.54689062
2068 -0.53071946
2066 -0.50329292
2064 -0.48210621
2062 -0.48131359
2060 -0.49926168
2058 -0.52770829
2056 -0.55835485
2054 -0.58544344
2052 -0.61260808
2050 -0.64511722
2048 -0.67845583
2046 -0.70308036
2044 -0.7065022
2042 -0.68020666
2040 -0.63680512
2038 -0.59762943
2036 -0.58214629
2034 -0.60300064
2032 -0.64954358
2030 -0.70178652
2028 -0.74287152
2026 -0.76161075
2024 -0.76242852
2022 -0.75719255
2020 -0.76041359
2018 -0.7851482
2016 -0.83508998
2014 -0.90787148
2012 -0.9935587
2010 -1.0794336
2008 -1.1539297
2006 -1.2069157
2004 -1.2302752
2002 -1.219975
2000 -1.1849148
1998 -1.1404488
1996 -1.1033572
1994 -1.0885278
1992 -1.099104
1990 -1.131669
1988 -1.17685
1986 -1.2246714
1984 -1.2724475
1982 -1.3213427
1980 -1.371966
1978 -1.4204426
1976 -1.4458028
1974 -1.4219179
1972 -1.3366429
1970 -1.1939025
1968 -1.035484
1966 -0.91631848
1964 -0.87095821
1962 -0.91289842
1960 -1.014564
1958 -1.1317148
1956 -1.2332128
1954 -1.3000536
1952 -1.3300909
1950 -1.3301053
1948 -1.3106663
1946 -1.284925
1944 -1.2701406
1942 -1.2817452
1940 -1.3194114
1938 -1.3711636
1936 -1.4117686
1934 -1.4153652
1932 -1.379952
1930 -1.3183464
1928 -1.250132
1926 -1.1915622
1924 -1.1331632
1922 -1.0568393
1920 -0.96818882
1918 -0.88572419
1916 -0.82371771
1914 -0.79048961
1912 -0.78378433
1910 -0.80072486
1908 -0.85987073
1906 -0.98102224
1904 -1.135632
1902 -1.268122
1900 -1.3274282
1898 -1.2829057
1896 -1.1719428
1894 -1.0659837
1892 -1.0191318
1890 -1.06343
1888 -1.1940743
1886 -1.3839228
1884 -1.5964754
1882 -1.7941256
1880 -1.9486594
1878 -2.0405626
1876 -2.0625601
1874 -2.012922
1872 -1.8848069
1870 -1.6760508
1868 -1.42032
1866 -1.1754165
1864 -1.0102693
1862 -0.9828335
1860 -1.082464
1858 -1.2551885
1856 -1.4404286
1854 -1.5821303
1852 -1.6439806
1850 -1.608431
1848 -1.488676
1846 -1.321375
1844 -1.1692677
1842 -1.0986931
1840 -1.1274966
1838 -1.2351078
1836 -1.3713971
1834 -1.4760931
1832 -1.5113846
1830 -1.4633301
1828 -1.3536538
1826 -1.2262386
1824 -1.1301051
1822 -1.1046213
1820 -1.140512
1818 -1.1963362
1816 -1.2292399
1814 -1.2091846
1812 -1.152864
1810 -1.102723
1808 -1.0803435
1806 -1.08462
1804 -1.0902026
1802 -1.0603195
1800 -0.9715156
1798 -0.81538451
1796 -0.60368145
1794 -0.36546177
1792 -0.15212719
1790 -0.017167209
1788 0.038683735
1786 0.051720243
1784 0.054563068
1782 0.069328882
1780 0.10329886
1778 0.15566519
1776 0.23152316
1774 0.33352321
1772 0.42866981
1770 0.4642871
1768 0.41570091
1766 0.29159036
1764 0.14694652
1762 0.052165747
1760 0.010295029
1758 -0.018335972
1756 -0.028483242
1754 0.021514624
1752 0.15865219
1750 0.38118911
1748 0.62886751
1746 0.80931926
1744 0.87035531
1742 0.81140387
1740 0.70734406
1738 0.6649797
1736 0.70141196
1734 0.7528941
1732 0.72639269
1730 0.54113305
1728 0.22677824
1726 -0.099131092
1724 -0.30875176
1722 -0.2830565
1720 0.077245548
1718 0.82315642
1716 1.84772
1714 2.936769
1712 3.9394972
1710 4.809134
1708 5.668932
1706 6.768446
1704 8.3692322
1702 10.689703
1700 13.787503
1698 17.5317
1696 21.489143
1694 25.077671
1692 28.067886
1690 30.612278
1688 33.160759
1686 36.311493
1684 40.456589
1682 45.657001
1680 51.349041
1678 56.633018
1676 61.311558
1674 65.847282
1672 70.690575
1670 76.05648
1668 81.603096
1666 86.600197
1664 90.619972
1662 93.603439
1660 95.674263
1658 97.044624
1656 97.870712
1654 98.229462
1652 98.119019
1650 97.486824
1648 96.31472
1646 94.654144
1644 92.704674
1642 90.743111
1640 88.828125
1638 86.787437
1636 84.376869
1634 81.372032
1632 77.755699
1630 73.689934
1628 69.283638
1626 64.565125
1624 59.582001
1622 54.431725
1620 49.297981
1618 44.420563
1616 39.953201
1614 35.953041
1612 32.45895
1610 29.49851
1608 27.046463
1606 25.030985
1604 23.390612
1602 22.086081
1600 21.090075
1598 20.383188
1596 19.937
1594 19.71417
1592 19.687805
1590 19.84692
1588 20.1989
1586 20.761679
1584 21.542355
1582 22.54627
1580 23.838665
1578 25.541927
1576 27.751429
1574 30.492605
1572 33.631287
1570 36.892605
1568 40.058357
1566 43.012486
1564 45.706009
1562 48.17382
1560 50.625584
1558 53.352257
1556 56.204029
1554 58.577271
1552 60.037086
1550 60.492836
1548 60.187214
1546 59.587502
1544 58.860737
1542 57.78838
1540 56.1003
1538 53.628597
1536 50.574913
1534 47.49139
1532 44.757015
1530 42.449867
1528 40.508198
1526 38.77615
1524 37.061131
1522 35.165119
1520 32.974442
1518 30.505636
1516 27.937572
1514 25.565245
1512 23.479321
1510 21.496979
1508 19.389866
1506 16.992451
1504 14.392212
1502 11.933146
1500 9.8489075
1498 8.1606903
1496 6.7876287
1494 5.5936532
1492 4.491539
1490 3.4669089
1488 2.5060439
1486 1.587225
1484 0.74200976
1482 0.067628846
1480 -0.34198195
1478 -0.40960446
1476 -0.036855578
1474 0.87318587
1472 2.2458708
1470 3.8018639
1468 5.2965021
1466 6.6053042
1464 7.7284174
1462 8.7894545
1460 9.9114895
1458 11.155892
1456 12.4334
1454 13.488422
1452 14.108703
1450 14.205798
1448 13.824091
1446 13.144036
1444 12.336592
1442 11.51322
1440 10.729074
1438 9.9768496
1436 9.2102394
1434 8.3635635
1432 7.4406161
1430 6.5439925
1428 5.7847838
1426 5.245811
1424 4.9482961
1422 4.836195
1420 4.8379674
1418 4.8891697
1416 4.9575343
1414 5.055727
1412 5.2154851
1410 5.4773059
1408 5.8596635
1406 6.34302
1404 6.8781447
1402 7.3841658
1400 7.7700362
1398 7.947454
1396 7.8726354
1394 7.5706987
1392 7.1100359
1390 6.5945959
1388 6.1015048
1386 5.6556549
1384 5.2652707
1382 4.9301791
1380 4.6441565
1378 4.3912172
1376 4.1337204
1374 3.8098478
1372 3.3825359
1370 2.8634527
1368 2.2897365
1366 1.717695
1364 1.1848526
1362 0.69590873
1360 0.26348516
1358 -0.076639295
1356 -0.28602216
1354 -0.33142039
1352 -0.18777508
1350 0.15543339
1348 0.68574166
1346 1.3602214
1344 2.135252
1342 2.9710784
1340 3.7931111
1338 4.4732132
1336 4.8940201
1334 4.9871154
1332 4.764215
1330 4.3468781
1328 3.8590894
1326 3.3854523
1324 2.9844551
1322 2.6834574
1320 2.4865263
1318 2.3690569
1316 2.28917
1314 2.1905868
1312 2.0348091
1310 1.8219951
1308 1.5765294
1306 1.3476764
1304 1.181392
1302 1.105942
1300 1.1365906
1298 1.2730871
1296 1.5144143
1294 1.863687
1292 2.3233166
1290 2.8897486
1288 3.5426559
1286 4.2338095
1284 4.9057021
1282 5.4985075
1280 5.9684715
1278 6.3037672
1276 6.5140042
1274 6.634984
1272 6.7132115
1270 6.8021927
1268 6.9489622
1266 7.183672
1264 7.5195251
1262 7.9467292
1260 8.4549274
1258 9.0435333
1256 9.7200003
1254 10.50096
1252 11.391114
1250 12.36542
1248 13.391491
1246 14.43025
1244 15.447588
1242 16.41663
1240 17.297674
1238 18.018822
1236 18.5019
1234 18.673374
1232 18.4832
1230 17.930849
1228 17.046194
1226 15.894507
1224 14.555268
1222 13.118494
1220 11.682017
1218 10.353588
1216 9.2333708
1214 8.3991747
1212 7.8933597
1210 7.6949363
1208 7.7444029
1206 7.9344745
1204 8.1484461
1202 8.2767096
1200 8.2307615
1198 7.9664989
1196 7.4735575
1194 6.7925935
1192 5.9840584
1190 5.1243649
1188 4.2858081
1186 3.5218949
1184 2.8694143
1182 2.3375518
1180 1.9251163
1178 1.622844
1176 1.4209601
1174 1.3121564
1172 1.2865326
1170 1.3271878
1168 1.4160898
1166 1.5361922
1164 1.6651421
1162 1.768515
1160 1.8095452
1158 1.7542596
1156 1.58883
1154 1.3436682
1152 1.0638801
1150 0.80124855
1148 0.59444278
1146 0.44631177
1144 0.34473765
1142 0.26230606
1140 0.16733982
1138 0.029476508
1136 -0.15747543
1134 -0.344632
1132 -0.48040721
1130 -0.53938329
1128 -0.51367825
1126 -0.42269027
1124 -0.29272231
1122 -0.15060177
1120 -0.018652119
1118 0.092287645
1116 0.17659444
1114 0.23442835
1112 0.2652356
1110 0.26403347
1108 0.23159678
1106 0.18611601
1104 0.15347691
1102 0.16724426
1100 0.25264913
1098 0.40912855
1096 0.63052428
1094 0.91304779
1092 1.261234
1090 1.6983489
1088 2.2376177
1086 2.8536649
1084 3.4931109
1082 4.0556602
1080 4.4457541
1078 4.6130228
1076 4.5471826
1074 4.3135448
1072 3.9941721
1070 3.6635087
1068 3.3800712
1066 3.1635699
1064 3.018976
1062 2.9374604
1060 2.9043801
1058 2.898443
1056 2.90046
1054 2.9010341
1052 2.8937387
1050 2.873626
1048 2.839416
1046 2.7989357
1044 2.7694042
1042 2.7871919
1040 2.8855247
1038 3.0742118
1036 3.34582
1034 3.658674
1032 3.9544594
1030 4.1520038
1028 4.1829882
1026 4.0353422
1024 3.7335184
1022 3.3687861
1020 3.0295675
1018 2.7461841
1016 2.5250485
1014 2.3440158
1012 2.1772044
1010 2.0098915
1008 1.82814
1006 1.6129621
1004 1.3555857
1002 1.0821347
1000 0.82623744
998 0.61865985
996 0.4832907
994 0.42451888
992 0.43153405
990 0.46072805
988 0.4637945
986 0.40421006
984 0.26559842
982 0.087216876
980 -0.083449781
978 -0.2172024
976 -0.29545286
974 -0.31963414
972 -0.29388157
970 -0.21528667
968 -0.088464797
966 0.050789393
964 0.16066924
962 0.20566867
960 0.16451669
958 0.059441403
956 -0.077306703
954 -0.21586709
952 -0.322844
950 -0.35107359
948 -0.26879966
946 -0.11055242
944 0.081735924
942 0.29803857
940 0.5340836
938 0.77798688
936 1.0258657
934 1.3092091
932 1.6438154
930 1.9564778
928 2.1663995
926 2.2466145
924 2.1992981
922 2.0842416
920 1.9629201
918 1.8476982
916 1.7396971
914 1.6419344
912 1.5678012
910 1.569096
908 1.6893326
906 1.9031414
904 2.160363
902 2.3806324
900 2.5045321
898 2.5856724
896 2.7061999
