##TITLE=Methyl Ethyl Ketone
##JCAMP-DX=4.24
##DATA TYPE=INFRARED SPECTRUM
##XUNITS=cm-1
##YUNITS=Absorbance
##FIRSTX=900
##LASTX=2300
##XYDATA=(X++(Y..Y))
2296 0.029848
2294 0.030469112
2292 0.031090222
2290 0.031711332
2288 0.032331448
2286 0.032952555
2284 0.033573668
2282 0.034194779
2280 0.034815893
2278 0.035437003
2276 0.03605713
2274 0.036678225
2272 0.037299339
2270 0.037920449
2268 0.038541563
2266 0.039162669
2264 0.039783783
2262 0.040403921
2260 0.041025009
2258 0.041646115
2256 0.042267229
2254 0.04288834
2252 0.043508485
2250 0.044129562
2248 0.044750672
2246 0.045371786
2244 0.014630714
2242 0.0005185543
2240 -0.02861952
2238 -0.057705469
2236 -0.086607844
2234 -0.10545417
2232 -0.12067017
2230 -0.070512682
2228 -0.015435329
2226 0.054333199
2224 0.11152089
2222 0.10815044
2220 0.090137839
2218 0.037605662
2216 -0.014669999
2214 -0.062151562
2212 -0.1041368
2210 -0.13765979
2208 -0.16018531
2206 -0.16967264
2204 -0.1666984
2202 -0.15257841
2200 -0.136584
2198 -0.1197723
2196 -0.11906357
2194 -0.12762044
2192 -0.15640394
2190 -0.19375513
2188 -0.21102656
2186 -0.22160092
2184 -0.19733
2182 -0.16515864
2180 -0.16226155
2178 -0.16451097
2176 -0.22509941
2174 -0.29208574
2172 -0.37086341
2170 -0.44799268
2168 -0.50908905
2166 -0.56522208
2164 -0.60878509
2162 -0.64899665
2160 -0.68387926
2158 -0.71649837
2156 -0.74596202
2154 -0.77323127
2152 -0.79778057
2150 -0.8085922
2148 -0.80423009
2146 -0.78831428
2144 -0.76356137
2142 -0.76994592
2140 -0.79856354
2138 -0.8566314
2136 -0.92953914
2134 -0.973333
2132 -1.0044799
2130 -0.98429835
2128 -0.94820678
2126 -0.880252
2124 -0.80508906
2122 -0.71510166
2120 -0.62330317
2118 -0.54113585
2116 -0.46965829
2114 -0.4685035
2112 -0.49338332
2110 -0.58908659
2108 -0.69220406
2106 -0.78631943
2104 -0.86137497
2102 -0.89707398
2100 -0.91211623
2098 -0.9021104
2096 -0.88241005
2094 -0.85459149
2092 -0.84054154
2090 -0.84194732
2088 -0.86033446
2086 -0.89139801
2084 -0.9198609
2082 -0.94563675
2080 -0.97583169
2078 -1.0082972
2076 -1.0497271
2074 -1.0947008
2072 -1.098876
2070 -1.0895789
2068 -1.0040435
2066 -0.89972091
2064 -0.80515683
2062 -0.72201544
2060 -0.74342144
2058 -0.7972241
2056 -0.91607028
2054 -1.0427511
2052 -1.149466
2050 -1.2323537
2048 -1.261752
2046 -1.2604178
2044 -1.218564
2042 -1.1575389
2040 -1.0814457
2038 -1.0075752
2036 -0.9423207
2034 -0.90648007
2032 -0.89719307
2030 -0.91424531
2028 -0.94690359
2026 -0.95461667
2024 -0.94369084
2022 -0.88757938
2020 -0.80878586
2018 -0.74681234
2016 -0.69415599
2014 -0.69298959
2012 -0.71047759
2010 -0.72431827
2008 -0.73590308
2006 -0.7184186
2004 -0.69608182
2002 -0.68668568
2000 -0.68627322
1998 -0.70340997
1996 -0.72045714
1994 -0.71940523
1992 -0.70592833
1990 -0.68136895
1988 -0.65385962
1986 -0.63488466
1984 -0.6169439
1982 -0.5973745
1980 -0.58084434
1978 -0.56447738
1976 -0.54820287
1974 -0.52983922
1972 -0.49138924
1970 -0.4362905
1968 -0.38461635
1966 -0.33736956
1964 -0.33308023
1962 -0.35339621
1960 -0.37597439
1958 -0.39898989
1956 -0.409814
1954 -0.41808495
1952 -0.45402709
1950 -0.50025111
1948 -0.52889752
1946 -0.53727251
1944 -0.47280726
1942 -0.37165287
1940 -0.24786985
1938 -0.13487861
1936 -0.074559711
1934 -0.060567018
1932 -0.098678641
1930 -0.17266482
1928 -0.27033854
1926 -0.36815178
1924 -0.45167276
1922 -0.48563293
1920 -0.47530916
1918 -0.42664701
1916 -0.36252415
1914 -0.31166953
1912 -0.2727516
1910 -0.23426731
1908 -0.19175717
1906 -0.14718179
1904 -0.10342928
1902 -0.086642034
1900 -0.085140981
1898 -0.080286063
1896 -0.073400855
1894 -0.038949534
1892 0.0051666694
1890 0.028530089
1888 0.036970146
1886 0.00033567846
1884 -0.049067307
1882 -0.089518532
1880 -0.11891834
1878 -0.12273603
1876 -0.12773401
1874 -0.13534029
1872 -0.14387342
1870 -0.14315577
1868 -0.11678234
1866 -0.080950104
1864 -0.050113633
1862 -0.044512719
1860 -0.061827242
1858 -0.086945735
1856 -0.13294959
1854 -0.18585917
1852 -0.3010726
1850 -0.44976032
1848 -0.63883162
1846 -0.83985245
1844 -0.93967754
1842 -0.97566515
1840 -0.88472039
1838 -0.73863018
1836 -0.57702446
1834 -0.4186196
1832 -0.26449487
1830 -0.11150212
1828 0.02907211
1826 0.15629143
1824 0.22434068
1822 0.23705629
1820 0.18662201
1818 0.096099913
1816 -0.00144054
1814 -0.09624628
1812 -0.17437851
1810 -0.21725255
1808 -0.22883417
1806 -0.189638
1804 -0.1090112
1802 -0.074569628
1800 -0.084535584
1798 -0.17527565
1796 -0.32040358
1794 -0.33599851
1792 -0.26324081
1790 -0.061883457
1788 0.20069574
1786 0.35339534
1784 0.42873818
1782 0.43445042
1780 0.39743999
1778 0.36782351
1776 0.34914628
1774 0.36391759
1772 0.41255885
1770 0.46779159
1768 0.50223476
1766 0.45318523
1764 0.3354784
1762 0.18377687
1760 0.046494171
1758 -0.12173903
1756 -0.27586943
1754 -0.36044896
1752 -0.40093547
1750 -0.4057793
1748 -0.43750048
1746 -0.5178532
1744 -0.64247841
1742 -0.81713629
1740 -0.94729376
1738 -1.0242757
1736 -0.94577402
1734 -0.74048674
1732 -0.48082113
1730 -0.20421675
1728 -0.093111068
1726 -0.11058718
1724 -0.14060177
1722 -0.1539118
1720 0.010466099
1718 0.34066227
1716 0.90811801
1714 1.6083112
1712 2.2034247
1710 2.6913619
1708 3.105912
1706 3.612433
1704 4.3999424
1702 5.7611423
1700 7.8392859
1698 10.968596
1696 15.117715
1694 19.395679
1692 23.387566
1690 26.843889
1688 29.833046
1686 33.241184
1684 37.190453
1682 41.819618
1680 46.962238
1678 51.366749
1676 55.084385
1674 58.671558
1672 62.246067
1670 66.393196
1668 70.947693
1666 75.289955
1664 79.345703
1662 82.866989
1660 85.889938
1658 88.486259
1656 90.716797
1654 92.70739
1652 94.480385
1650 96.064011
1648 97.11618
1646 97.279999
1644 96.620522
1642 95.325081
1640 93.470566
1638 91.218597
1636 88.272202
1634 84.585083
1632 80.565643
1630 76.390465
1628 72.238808
1626 68.168083
1624 63.82616
1622 59.202274
1620 54.636753
1618 50.166588
1616 46.037144
1614 42.260582
1612 38.936287
1610 36.060368
1608 33.573822
1606 31.454735
1604 29.560104
1602 27.922358
1600 26.563644
1598 25.504644
1596 24.7365
1594 24.244564
1592 23.962984
1590 23.870068
1588 23.914394
1586 24.084806
1584 24.368647
1582 24.748209
1580 25.215195
1578 25.834024
1576 26.621458
1574 27.638081
1572 28.872711
1570 30.201111
1568 31.586401
1566 32.916573
1564 34.1852
1562 35.556145
1560 37.094639
1558 39.192055
1556 41.875156
1554 44.511551
1552 46.925285
1550 48.646069
1548 49.692085
1546 50.544395
1544 51.239635
1542 51.895157
1540 52.501999
1538 52.930149
1536 53.026028
1534 52.653408
1532 51.845436
1530 50.784138
1528 49.548698
1526 48.208252
1524 46.797768
1522 45.312862
1520 43.831017
1518 42.333355
1516 40.786713
1514 39.184525
1512 37.377838
1510 35.359699
1508 32.819832
1506 29.633171
1504 26.427401
1502 23.233755
1500 20.518896
1498 18.335159
1496 16.190571
1494 14.096146
1492 12.002257
1490 9.936203
1488 7.9205489
1486 6.0007586
1484 4.2416101
1482 2.7020457
1480 1.4873154
1478 0.61777329
1476 0.12588172
1474 0.13124728
1472 0.56076217
1470 1.2120861
1468 1.9535406
1466 2.6062064
1464 3.097909
1462 3.5360725
1460 3.9731531
1458 4.5275564
1456 5.2543201
1454 5.9968615
1452 6.6909108
1450 7.1741462
1448 7.3288569
1446 7.3716536
1444 7.2645097
1442 7.1104732
1440 6.8978572
1438 6.6163912
1436 6.2563157
1434 5.7916694
1432 5.2420158
1430 4.6997914
1428 4.180656
1426 3.7665014
1424 3.4598801
1422 3.2590373
1420 3.1975088
1418 3.2795725
1416 3.4945915
1414 3.8286119
1412 4.1802092
1410 4.5183077
1408 4.8287811
1406 5.1087513
1404 5.387959
1402 5.6556239
1400 5.910604
1398 6.1328621
1396 6.3242712
1394 6.4501805
1392 6.5575442
1390 6.5941272
1388 6.5710449
1386 6.4378901
1384 6.2115736
1382 5.855927
1380 5.4382391
1378 4.9523635
1376 4.4351172
1374 3.914176
1372 3.4163299
1370 2.9526505
1368 2.5418875
1366 2.1403441
1364 1.7052063
1362 1.2546375
1360 0.79652125
1358 0.3974697
1356 0.14673387
1354 -0.0037965607
1352 -0.017035155
1350 0.03044913
1348 0.13293394
1346 0.25022179
1344 0.35935119
1342 0.46625414
1340 0.57704204
1338 0.69000751
1336 0.79475653
1334 0.89215809
1332 0.93186706
1330 0.96772885
1328 0.99790782
1326 1.0579329
1324 1.183902
1322 1.3421173
1320 1.55512
1318 1.7773261
1316 2.0100701
1314 2.2264481
1312 2.4061463
1310 2.5432451
1308 2.6237493
1306 2.6606264
1304 2.6590207
1302 2.6211379
1300 2.5601897
1298 2.4642539
1296 2.3612857
1294 2.2569745
1292 2.1780732
1290 2.1617522
1288 2.18594
1286 2.289305
1284 2.4069865
1282 2.5411148
1280 2.6641526
1278 2.7595389
1276 2.8434813
1274 2.9138432
1272 2.9897983
1270 3.0864749
1268 3.2153275
1266 3.390825
1264 3.602263
1262 3.8490095
1260 4.100204
1258 4.3521881
1256 4.5920973
1254 4.8258452
1252 5.0722141
1250 5.3298702
1248 5.6023536
1246 5.8775749
1244 6.1295748
1242 6.3609805
1240 6.5469084
1238 6.6973825
1236 6.7744517
1234 6.7981229
1232 6.6952124
1230 6.5338974
1228 6.2255359
1226 5.8737049
1224 5.4075971
1222 4.910655
1220 4.3400908
1218 3.7619419
1216 3.1742713
1214 2.6254587
1212 2.151469
1210 1.7458014
1208 1.4409542
1206 1.1944135
1204 1.0140352
1202 0.854707
1200 0.70599127
1198 0.52071077
1196 0.29772609
1194 0.021501496
1192 -0.28253692
1190 -0.57673681
1188 -0.84615219
1186 -1.0316827
1184 -1.1653051
1182 -1.1990105
1180 -1.1895343
1178 -1.0937867
1176 -0.96211803
1174 -0.73075527
1172 -0.47794729
1170 -0.16856557
1168 0.11688221
1166 0.32291222
1164 0.48368382
1162 0.53455937
1160 0.57367796
1158 0.59094387
1156 0.60821587
1154 0.6205582
1152 0.59793657
1150 0.52642995
1148 0.42403901
1146 0.29296321
1144 0.17948416
1142 0.08669427
1140 0.031166935
1138 0.0035245386
1136 -0.0080682235
1134 -0.0092230812
1132 0.046862319
1130 0.13219386
1128 0.25775349
1126 0.39843956
1124 0.56303549
1122 0.73164183
1120 0.89841998
1118 1.055905
1116 1.1638258
1114 1.2645851
1112 1.3389869
1110 1.4146521
1108 1.4931148
1106 1.562435
1104 1.6072326
1102 1.6345876
1100 1.6283529
1098 1.6217901
1096 1.6175143
1094 1.6335137
1092 1.6781681
1090 1.7540747
1088 1.8680794
1086 2.0410128
1084 2.2664077
1082 2.5450585
1080 2.8471737
1078 3.0875289
1076 3.2771628
1074 3.3007712
1072 3.2562375
1070 3.1135929
1068 2.9508803
1066 2.8030472
1064 2.6625879
1062 2.5631053
1060 2.4752605
1058 2.4490542
1056 2.4324
1054 2.4555895
1052 2.4623747
1050 2.414696
1048 2.3266578
1046 2.1418073
1044 1.9513457
1042 1.755662
1040 1.6217686
1038 1.5794147
1036 1.57333
1034 1.6025667
1032 1.571269
1030 1.4806728
1028 1.3188623
1026 1.1082419
1024 0.89222229
1022 0.67494309
1020 0.47750831
1018 0.2871893
1016 0.096967176
1014 -0.093874305
1012 -0.29219407
1010 -0.49229544
1008 -0.70051402
1006 -0.9096669
1004 -1.1232154
1002 -1.3286706
1000 -1.4786544
998 -1.6040187
996 -1.62095
994 -1.618665
992 -1.558992
990 -1.5113639
988 -1.492892
986 -1.4968871
984 -1.5380303
982 -1.5693566
980 -1.5838259
978 -1.5530958
976 -1.4747458
974 -1.369441
972 -1.2446482
970 -1.1508828
968 -1.0782262
966 -1.06659
964 -1.0834991
962 -1.1229346
960 -1.1661571
958 -1.1228808
956 -1.0561631
954 -0.86827451
952 -0.66555041
950 -0.45415261
948 -0.24525644
946 -0.078676067
944 0.0024157017
942 0.075108677
940 0.21659391
938 0.36230311
936 0.49912772
934 0.61001092
932 0.70089328
930 0.74934399
928 0.8048737
926 0.8722955
924 0.9592554
922 1.0700457
920 1.1636251
918 1.2409152
916 1.3245529
914 1.4127421
912 1.5483549
910 1.7104859
908 1.8788915
906 2.0519693
904 2.1314256
902 2.1881351
900 2.1963029
898 2.1975043
896 2.3403001
