##TITLE=Methyl Ethyl Ketone
##JCAMP-DX=4.24
##DATA TYPE=INFRARED SPECTRUM
##XUNITS=cm-1
##YUNITS=Absorbance
##FIRSTX=900
##LASTX=2300
##XYDATA=(X++(Y..Y))
2296 0.049761999
2294 0.050819486
2292 0.051876973
2290 0.052934464
2288 0.053990953
2286 0.055048432
2284 0.056105923
2282 0.05716341
2280 0.058219906
2278 0.059277385
2276 0.060334872
2274 0.061392359
2272 0.062448863
2270 0.063504368
2268 0.064563781
2266 0.065630108
2264 0.066679001
2262 0.067702129
2260 0.068791896
2258 0.069975756
2256 0.07091143
2254 0.071496725
2252 0.07300657
2250 0.075820066
2248 0.075198404
2246 0.065913931
2244 0.04648428
2242 0.015549528
2240 -0.031998321
2238 -0.096308991
2236 -0.15321279
2234 -0.1765797
2232 -0.16037285
2230 -0.10741919
2228 -0.032775946
2226 0.0458409
2224 0.11393214
2222 0.15975675
2220 0.17866054
2218 0.16828802
2216 0.127096
2214 0.05667733
2212 -0.029565061
2210 -0.11365877
2208 -0.17353977
2206 -0.19233114
2204 -0.1789633
2202 -0.14956316
2200 -0.11740691
2198 -0.09047246
2196 -0.059535641
2194 -0.013102471
2192 0.047677312
2190 0.11679484
2188 0.185065
2186 0.24368992
2184 0.28931803
2182 0.31985006
2180 0.33117297
2178 0.32112879
2176 0.29826027
2174 0.27325162
2172 0.25110883
2170 0.233245
2168 0.21428902
2166 0.18878193
2164 0.16000277
2162 0.13067399
2160 0.089310706
2158 0.023338521
2156 -0.064139403
2154 -0.15893236
2152 -0.22377636
2150 -0.22434951
2148 -0.1704253
2146 -0.089868397
2144 -0.021323103
2142 0.0028568532
2140 -0.010183516
2138 -0.039217815
2136 -0.062718146
2134 -0.063997142
2132 -0.045019377
2130 -0.016589727
2128 0.0015421999
2126 -0.0099699143
2124 -0.056351125
2122 -0.1332684
2120 -0.21853228
2118 -0.28503829
2116 -0.311755
2114 -0.28434581
2112 -0.20610698
2110 -0.092133738
2108 0.020428367
2106 0.09160196
2104 0.103138
2102 0.052503653
2100 -0.032978561
2098 -0.11753362
2096 -0.17634428
2094 -0.19484076
2092 -0.18176688
2090 -0.15466771
2088 -0.13074496
2086 -0.12219299
2084 -0.12222343
2082 -0.11839148
2080 -0.10564394
2078 -0.084316798
2076 -0.063761443
2074 -0.053942237
2072 -0.052937802
2070 -0.055836141
2068 -0.065992884
2066 -0.091280386
2064 -0.14340992
2062 -0.23065552
2060 -0.3409614
2058 -0.4543069
2056 -0.55285943
2054 -0.62323934
2052 -0.66515398
2050 -0.68334132
2048 -0.68071359
2046 -0.66038036
2044 -0.63047659
2042 -0.60209829
2040 -0.58937067
2038 -0.603899
2036 -0.64168042
2034 -0.68955827
2032 -0.72460967
2030 -0.72310942
2028 -0.67455798
2026 -0.57939994
2024 -0.45874882
2022 -0.34347093
2020 -0.26825917
2018 -0.26259515
2016 -0.32869199
2014 -0.44991589
2012 -0.58234042
2010 -0.67702913
2008 -0.71353847
2006 -0.69113642
2004 -0.63424081
2002 -0.57493865
2000 -0.53195304
1998 -0.5142743
1996 -0.5187757
1994 -0.53780526
1992 -0.56684119
1990 -0.60337025
1988 -0.64564556
1986 -0.69217879
1984 -0.74156266
1982 -0.79254293
1980 -0.84465581
1978 -0.89592117
1976 -0.93644631
1974 -0.95270461
1972 -0.93243474
1970 -0.87243098
1968 -0.80462492
1966 -0.77403104
1964 -0.80728483
1962 -0.90959668
1960 -1.0386928
1958 -1.1380129
1956 -1.1882714
1954 -1.1956862
1952 -1.18718
1950 -1.1916769
1948 -1.2098552
1946 -1.227775
1944 -1.2352189
1942 -1.227932
1940 -1.2143618
1938 -1.2073507
1936 -1.2106571
1934 -1.2222093
1932 -1.237762
1930 -1.250272
1928 -1.2450914
1926 -1.2040164
1924 -1.1110705
1922 -0.9629516
1920 -0.80324453
1918 -0.69207948
1916 -0.6510393
1914 -0.67103267
1912 -0.71036816
1910 -0.72495967
1908 -0.72977751
1906 -0.76833409
1904 -0.85985518
1902 -0.99537504
1900 -1.1147969
1898 -1.1433814
1896 -1.0619286
1894 -0.89400762
1892 -0.70168144
1890 -0.55851001
1888 -0.50574929
1886 -0.55794322
1884 -0.70126998
1882 -0.90530217
1880 -1.1304425
1878 -1.3306998
1876 -1.4493999
1874 -1.4337666
1872 -1.2746772
1870 -1.0061284
1868 -0.73717219
1866 -0.60020286
1864 -0.6448887
1862 -0.85011441
1860 -1.1189907
1858 -1.3307723
1856 -1.4377514
1854 -1.444793
1852 -1.3757697
1850 -1.26124
1848 -1.132224
1846 -1.0189872
1844 -0.95068663
1842 -0.94727099
1840 -0.99072707
1838 -1.0389112
1836 -1.0472214
1834 -0.97928423
1832 -0.83003241
1830 -0.62362421
1828 -0.42660272
1826 -0.32224256
1824 -0.35723856
1822 -0.53767204
1820 -0.80532742
1818 -1.0675828
1816 -1.2508457
1814 -1.3105243
1812 -1.2563106
1810 -1.1305052
1808 -0.97020406
1806 -0.80225849
1804 -0.64096379
1802 -0.49242851
1800 -0.35962743
1798 -0.24175638
1796 -0.12627979
1794 -0.0024101771
1792 0.097347647
1790 0.12107633
1788 0.066937342
1786 -0.025989041
1784 -0.10553342
1782 -0.12174401
1780 -0.054360673
1778 0.09643165
1776 0.33373684
1774 0.64837778
1772 0.95213646
1770 1.1141355
1768 1.0669417
1766 0.81841463
1764 0.4824796
1762 0.21537729
1760 0.050433774
1758 -0.065314978
1756 -0.13266629
1754 -0.10381552
1752 0.058322862
1750 0.35603708
1748 0.69896436
1746 0.94290936
1744 1.0001508
1742 0.8597011
1740 0.62975675
1738 0.47729549
1736 0.46322399
1734 0.54138368
1732 0.59158123
1730 0.47856838
1728 0.19674069
1726 -0.14343742
1724 -0.37886447
1722 -0.3340809
1720 0.1072844
1718 0.9677273
1716 2.0608115
1714 3.0769789
1712 3.8565629
1710 4.4193511
1708 4.9689498
1706 5.8249121
1704 7.2712712
1702 9.505475
1700 12.539175
1698 16.183519
1696 19.980286
1694 23.35643
1692 26.123505
1690 28.493742
1688 30.946251
1686 34.07275
1684 38.228596
1682 43.420841
1680 49.05344
1678 54.221817
1676 58.752754
1674 63.144707
1672 67.84166
1670 73.017952
1668 78.329788
1666 83.093651
1664 86.965706
1662 89.984947
1660 92.312538
1658 94.140175
1656 95.599686
1654 96.737717
1652 97.469398
1650 97.610291
1648 96.996078
1646 95.565819
1644 93.591774
1642 91.570259
1640 89.698395
1638 87.826218
1636 85.650314
1634 82.844376
1632 79.351021
1630 75.363586
1628 71.051857
1626 66.506401
1624 61.764679
1622 56.846069
1620 51.866798
1618 47.030766
1616 42.502258
1614 38.385345
1612 34.760464
1610 31.681429
1608 29.114416
1606 26.949728
1604 25.093655
1602 23.492632
1600 22.149052
1598 21.109749
1596 20.400501
1594 20.010836
1592 19.897474
1590 19.994699
1588 20.262989
1586 20.697779
1584 21.318777
1582 22.17359
1580 23.352741
1578 24.974804
1576 27.1096
1574 29.74468
1572 32.733685
1570 35.82095
1568 38.814163
1566 41.626492
1564 44.256622
1562 46.798409
1560 49.477818
1558 52.538212
1556 55.698174
1554 58.177589
1552 59.535366
1550 59.86026
1548 59.537022
1546 59.086643
1544 58.686211
1542 58.085705
1540 56.915382
1538 54.852001
1536 51.990799
1534 48.860184
1532 45.903721
1530 43.334824
1528 41.180298
1526 39.305248
1524 37.539066
1522 35.717533
1520 33.719303
1518 31.499262
1516 29.164471
1514 26.948946
1512 24.93856
1510 23.003469
1508 20.933046
1506 18.523922
1504 15.832411
1502 13.201514
1500 10.899699
1498 9.0132675
1496 7.5002713
1494 6.2201109
1492 5.0645647
1490 3.9908066
1488 2.9637308
1486 1.9536586
1484 0.99853998
1482 0.21592823
1480 -0.27909082
1478 -0.3938328
1476 -0.030051321
1474 0.8902123
1472 2.2669857
1470 3.7983351
1468 5.2473249
1466 6.5339718
1464 7.7030454
1462 8.9071646
1460 10.266394
1458 11.796913
1456 13.3296
1454 14.510597
1452 15.102386
1450 15.090334
1448 14.590115
1446 13.81575
1444 12.948543
1442 12.09515
1440 11.322114
1438 10.653391
1436 10.046483
1434 9.3924475
1432 8.6234407
1430 7.7585349
1428 6.8824759
1426 6.13586
1424 5.6200848
1422 5.3583379
1420 5.3204603
1418 5.4270129
1416 5.5975313
1414 5.7723846
1412 5.9383316
1410 6.1383586
1408 6.4111786
1406 6.7671742
1404 7.1850057
1402 7.606215
1400 7.96382
1398 8.1940651
1396 8.2560358
1394 8.144721
1392 7.8856416
1390 7.5339384
1388 7.1299963
1386 6.68397
1384 6.2063603
1382 5.7191954
1380 5.2519622
1378 4.8352518
1376 4.4611859
1374 4.0664449
1372 3.5948579
1370 3.0262797
1368 2.3868794
1366 1.7563978
1364 1.1969206
1362 0.72380412
1360 0.33667201
1358 0.030189902
1356 -0.18282257
1354 -0.26031655
1352 -0.15965737
1350 0.14557835
1348 0.63872129
1346 1.2444429
1344 1.899088
1342 2.5760932
1340 3.2413123
1338 3.8330355
1336 4.2734742
1334 4.4775844
1332 4.4120402
1330 4.1319561
1328 3.7168813
1326 3.2528286
1324 2.8196037
1322 2.4804807
1320 2.2689521
1318 2.1719844
1316 2.14553
1314 2.1155269
1312 2.0275481
1310 1.874554
1308 1.6757588
1306 1.4750443
1304 1.3089652
1302 1.191419
1300 1.1301192
1298 1.1322899
1296 1.2148
1294 1.4106075
1292 1.7486029
1290 2.2397387
1288 2.865696
1286 3.562335
1284 4.2512717
1282 4.8513713
1280 5.3071837
1278 5.6137996
1276 5.796957
1274 5.915812
1272 6.0271158
1270 6.1675577
1268 6.3574643
1266 6.5965996
1264 6.8870726
1262 7.2434974
1260 7.683394
1258 8.222928
1256 8.8710766
1254 9.6240616
1252 10.47596
1250 11.421144
1248 12.450047
1246 13.53975
1244 14.649942
1242 15.71293
1240 16.652817
1238 17.388182
1236 17.848158
1234 17.987062
1232 17.778521
1230 17.22061
1228 16.333298
1226 15.170321
1224 13.811457
1222 12.37085
1220 10.968888
1218 9.7243633
1216 8.7245569
1214 7.9956989
1212 7.5327902
1210 7.2959571
1208 7.2357397
1206 7.2982473
1204 7.4198141
1202 7.5189357
1200 7.5127468
1198 7.3285213
1196 6.923336
1194 6.3143873
1192 5.5503669
1190 4.7150311
1188 3.8885298
1186 3.1245856
1184 2.4621103
1182 1.9216175
1180 1.5168903
1178 1.2558303
1176 1.13034
1174 1.1008346
1172 1.1216846
1170 1.1520815
1168 1.170336
1166 1.1932156
1164 1.2432971
1162 1.333236
1160 1.4589292
1158 1.5842593
1156 1.6666372
1154 1.6684937
1152 1.5676234
1150 1.3761522
1148 1.1201853
1146 0.83923101
1144 0.57187623
1142 0.34534761
1140 0.17092896
1138 0.030648716
1136 -0.085534483
1134 -0.1536337
1132 -0.15125465
1130 -0.079718873
1128 0.04842864
1126 0.20687635
1124 0.36213025
1122 0.47288063
1120 0.51088119
1118 0.48474491
1116 0.4169623
1114 0.34086221
1112 0.27876472
1110 0.22076775
1108 0.16331154
1106 0.13742301
1104 0.17701726
1102 0.30086744
1100 0.50910473
1098 0.76536173
1096 1.0396628
1094 1.3407745
1092 1.686422
1090 2.0922725
1088 2.5585647
1086 3.0464029
1084 3.5085065
1082 3.8995445
1080 4.1800117
1078 4.3257489
1076 4.3259497
1074 4.1974173
1072 3.9720571
1070 3.7026169
1068 3.437386
1066 3.1978307
1064 2.994168
1062 2.824883
1060 2.692307
1058 2.6175628
1056 2.6174171
1054 2.6843948
1052 2.7964039
1050 2.908999
1048 2.9861462
1046 3.0317214
1044 3.064358
1042 3.1156232
1040 3.2080839
1038 3.3292348
1036 3.45701
1034 3.5670929
1032 3.6364973
1030 3.6482995
1028 3.590318
1026 3.4602623
1024 3.2642126
1022 3.0244529
1020 2.7670181
1018 2.5172498
1016 2.2984915
1014 2.128505
1012 2.0142305
1010 1.9331032
1008 1.8550719
1006 1.7495707
1004 1.5923772
1002 1.3794508
1000 1.1106433
998 0.78336734
996 0.405931
994 0.023352414
992 -0.31421056
990 -0.56973958
988 -0.72487217
986 -0.81042218
984 -0.8604359
982 -0.87991422
980 -0.8620258
978 -0.78526616
976 -0.63702857
974 -0.44593239
972 -0.24904585
970 -0.077289216
968 0.047029048
966 0.1256225
964 0.16957341
962 0.20161074
960 0.24525002
958 0.31648168
956 0.41568786
954 0.49602416
952 0.50844204
950 0.43758512
948 0.2912986
946 0.1299514
944 0.031909022
942 0.092108727
940 0.36763102
938 0.76488429
936 1.1615828
934 1.4680461
932 1.6288915
930 1.685842
928 1.7046697
926 1.7530335
924 1.876568
922 2.0395081
920 2.1896315
918 2.289453
916 2.3245173
914 2.3545022
912 2.4490263
910 2.6446478
908 2.9493544
906 3.2932458
904 3.592608
902 3.7856379
900 3.8408551
898 3.8252075
896 3.8304
