##TITLE=Methyl Ethyl Ketone
##JCAMP-DX=4.24
##DATA TYPE=INFRARED SPECTRUM
##XUNITS=cm-1
##YUNITS=Absorbance
##FIRSTX=900
##LASTX=2300
##XYDATA=(X++(Y..Y))
2296 0.063957997
2294 0.065289095
2292 0.066619195
2290 0.067949295
2288 0.069280386
2286 0.070610486
2284 0.071941569
2282 0.073271677
2280 0.07460276
2278 0.075932868
2276 0.077263959
2274 0.078594074
2272 0.07992515
2270 0.081255265
2268 0.082586341
2266 0.083916456
2264 0.085247532
2262 0.086577646
2260 0.087907746
2258 0.089238822
2256 0.090568945
2254 0.091900013
2252 0.093230136
2250 0.094561197
2248 0.095891327
2246 0.097222388
2244 0.024733156
2242 0.00084606424
2240 -0.032735042
2238 0.027964666
2236 0.10263659
2234 0.18331109
2232 0.25954023
2230 0.22712588
2228 0.17909154
2226 0.047962248
2224 -0.084795721
2222 -0.20576049
2220 -0.3108342
2218 -0.36947441
2216 -0.41901687
2214 -0.45441285
2212 -0.4798272
2210 -0.49031153
2208 -0.46539098
2206 -0.39746884
2204 -0.31422514
2202 -0.21882787
2200 -0.15606447
2198 -0.1182819
2196 -0.099402502
2194 -0.090477526
2192 -0.062298898
2190 -0.025391087
2188 0.021314399
2186 0.07101649
2184 0.05898644
2182 0.032717656
2180 -0.080238506
2178 -0.20529069
2176 -0.27027997
2174 -0.31934321
2172 -0.25061661
2170 -0.17464301
2168 -0.12124754
2166 -0.083991759
2164 -0.097592138
2162 -0.10107766
2160 -0.065661244
2158 -0.013630804
2156 0.062421389
2154 0.10534286
2152 0.096665531
2150 0.044751562
2148 -0.049809419
2146 -0.12818317
2144 -0.18830028
2142 -0.2008778
2140 -0.18173711
2138 -0.15411612
2136 -0.12364
2134 -0.13377337
2132 -0.16110988
2130 -0.20887992
2128 -0.26266921
2126 -0.26752952
2124 -0.26090562
2122 -0.20849173
2120 -0.1499556
2118 -0.11133298
2116 -0.083518952
2114 -0.11497661
2112 -0.15918885
2110 -0.22175778
2108 -0.2623156
2106 -0.22829799
2104 -0.16329864
2102 -0.05427444
2100 0.035890002
2098 0.083447911
2096 0.11671914
2094 0.13947392
2092 0.17553252
2090 0.2269499
2088 0.26837075
2086 0.2997795
2084 0.34496203
2082 0.4001683
2080 0.47712833
2078 0.56480742
2076 0.5884487
2074 0.58494377
2072 0.53385919
2070 0.46829504
2068 0.49686408
2066 0.5496068
2064 0.65024978
2062 0.7497502
2060 0.74273843
2058 0.70529968
2056 0.6159997
2054 0.52699816
2052 0.4756138
2050 0.44226348
2048 0.43590131
2046 0.44964963
2044 0.49204001
2042 0.54780519
2040 0.61569512
2038 0.65028876
2036 0.64235872
2034 0.59599906
2032 0.51992536
2030 0.46580341
2028 0.43287331
2026 0.46317208
2024 0.53156817
2022 0.69253892
2020 0.89861447
2018 1.1107956
2016 1.32324
2014 1.3397665
2012 1.2904731
2010 1.1010417
2008 0.88035387
2006 0.73698562
2004 0.62783265
2002 0.61959761
2000 0.65021336
1998 0.73703587
1996 0.8481943
1994 0.9894672
1992 1.1164823
1990 1.1956246
1988 1.2107899
1986 1.1357678
1984 1.0301578
1982 0.91175848
1980 0.82348078
1978 0.77197796
1976 0.73504686
1974 0.70393229
1972 0.67341948
1970 0.64225239
1968 0.6289621
1966 0.62715292
1964 0.62204123
1962 0.61454129
1960 0.60288596
1958 0.58967066
1956 0.57571369
1954 0.5608058
1952 0.51534271
1950 0.46328405
1948 0.43769786
1946 0.4378275
1944 0.53088772
1942 0.65437043
1940 0.78628719
1938 0.8921777
1936 0.92404515
1934 0.92541081
1932 0.90859681
1930 0.8905254
1928 0.87750858
1926 0.84229136
1924 0.77544355
1922 0.69250691
1920 0.60185438
1918 0.57328886
1916 0.60378045
1914 0.69985318
1912 0.83584398
1910 0.94538909
1908 1.0325948
1906 1.0779479
1904 1.1025561
1902 1.1282734
1900 1.1560518
1898 1.2100919
1896 1.2761142
1894 1.3609967
1892 1.4436318
1890 1.463986
1888 1.4427348
1886 1.3476336
1884 1.2299076
1882 1.1275547
1880 1.0444988
1878 0.99222237
1876 0.95340502
1874 0.91752726
1872 0.89457357
1870 0.88830554
1868 0.88747954
1866 0.88963878
1864 0.88882697
1862 0.88637161
1860 0.92991519
1858 1.0142291
1856 1.1000714
1854 1.1788268
1852 1.1165454
1850 0.95968717
1848 0.66967237
1846 0.3088032
1844 0.12327681
1842 0.039339032
1840 0.23079371
1838 0.55037862
1836 0.85750329
1834 1.1479619
1832 1.3745103
1830 1.5477102
1828 1.6342196
1826 1.6447879
1824 1.5566891
1822 1.440709
1820 1.3514919
1818 1.2849222
1816 1.2368971
1814 1.1607661
1812 1.0332388
1810 0.89131624
1808 0.7535553
1806 0.66878903
1804 0.63875014
1802 0.55018449
1800 0.39370027
1798 0.15635031
1796 -0.13417894
1794 -0.21998289
1792 -0.1523952
1790 0.09067414
1788 0.4339869
1786 0.6566698
1784 0.79807323
1782 0.80811775
1780 0.73717242
1778 0.60618418
1776 0.46596485
1774 0.42253998
1772 0.4625845
1770 0.61566579
1768 0.74956936
1766 0.70596963
1764 0.53935337
1762 0.28596148
1760 0.066969372
1758 -0.2089057
1756 -0.50788075
1754 -0.75179219
1752 -0.96733886
1750 -1.173401
1748 -1.3416688
1746 -1.4714357
1744 -1.5781022
1742 -1.6694728
1740 -1.7226489
1738 -1.7468481
1736 -1.6603199
1734 -1.493907
1732 -1.2368777
1730 -0.92455029
1728 -0.69306374
1726 -0.51854348
1724 -0.38723835
1722 -0.2522963
1720 0.091432974
1718 0.6830582
1716 1.534528
1714 2.4317439
1712 3.1164017
1710 3.6406419
1708 4.0520058
1706 4.5637012
1704 5.3668823
1702 6.7313304
1700 8.7949266
1698 11.886544
1696 16.039715
1694 20.46336
1692 24.75284
1690 28.553017
1688 31.846445
1686 35.478321
1684 39.577374
1682 44.369411
1680 49.723358
1678 54.489162
1676 58.699757
1674 62.874107
1672 67.088593
1670 71.860306
1668 77.012169
1666 81.920097
1664 86.563164
1662 90.805626
1660 94.662613
1658 98.132133
1656 101.16572
1654 103.6928
1652 105.557
1650 106.61469
1648 106.55549
1646 105.2
1644 102.95963
1642 100.26058
1640 97.202988
1638 93.892876
1636 89.959358
1634 85.327682
1632 80.51973
1630 75.74044
1628 71.165909
1626 66.806648
1624 62.187603
1622 57.270035
1620 52.439396
1618 47.73991
1616 43.497143
1614 39.728786
1612 36.501274
1610 33.8088
1608 31.52515
1606 29.619772
1604 27.932753
1602 26.490171
1600 25.307611
1598 24.396837
1596 23.7325
1594 23.299002
1592 23.042463
1590 22.949102
1588 22.984451
1586 23.149807
1584 23.430206
1582 23.81356
1580 24.282331
1578 24.886744
1576 25.641657
1574 26.566732
1572 27.663595
1570 28.845009
1568 30.090359
1566 31.345085
1564 32.602631
1562 33.958019
1560 35.470051
1558 37.560001
1556 40.242744
1554 43.047691
1552 45.826656
1550 47.965496
1548 49.47226
1546 50.657642
1544 51.494495
1542 52.047421
1540 52.181801
1538 51.790955
1536 50.903599
1534 49.641655
1532 48.167843
1530 46.659584
1528 45.091686
1526 43.446548
1524 41.684517
1522 39.784412
1520 37.904823
1518 36.127167
1516 34.48473
1514 33.000839
1512 31.326801
1510 29.354858
1508 26.809538
1506 23.559315
1504 20.420879
1502 17.499716
1500 15.142314
1498 13.42415
1496 11.801857
1494 10.284492
1492 8.8125811
1490 7.3806772
1488 5.9495916
1486 4.53547
1484 3.166822
1482 1.9454261
1480 1.0011218
1478 0.37453008
1476 0.076201424
1474 0.17510509
1472 0.70985478
1470 1.431102
1468 2.2088828
1466 2.8862722
1464 3.3419657
1462 3.6814206
1460 3.9232702
1458 4.2195859
1456 4.6356401
1454 5.102325
1452 5.6258216
1450 5.9567151
1448 5.9923029
1446 5.8897324
1444 5.6049566
1442 5.3259163
1440 5.0535073
1438 4.7883945
1436 4.5145216
1434 4.1886239
1432 3.8095937
1430 3.4214461
1428 3.05023
1426 2.7415056
1424 2.5289257
1422 2.4476595
1420 2.5240369
1418 2.7921674
1416 3.1818056
1414 3.6295719
1412 4.0559883
1410 4.3811765
1408 4.6410279
1406 4.8319941
1404 5.0022979
1402 5.1666236
1400 5.3330917
1398 5.5068254
1396 5.6612072
1394 5.778935
1392 5.855279
1390 5.8643355
1388 5.8285789
1386 5.7175651
1384 5.5351005
1382 5.2427206
1380 4.8609929
1378 4.3739147
1376 3.8643115
1374 3.3581233
1372 2.943944
1370 2.6204844
1368 2.3420978
1366 2.06603
1364 1.703606
1362 1.2852179
1360 0.85311967
1358 0.47239059
1356 0.23527786
1354 0.094407886
1352 0.052425489
1350 0.028577985
1348 -0.014791699
1346 -0.07324411
1344 -0.15981561
1342 -0.22965319
1340 -0.25596136
1338 -0.23465352
1336 -0.11716886
1334 0.02362144
1332 0.20825934
1330 0.37325698
1328 0.50772017
1326 0.63325369
1324 0.75233948
1322 0.9066568
1320 1.1108897
1318 1.3653917
1316 1.66776
1314 1.9734662
1312 2.2663989
1310 2.5038595
1308 2.687217
1306 2.8107843
1304 2.8848801
1302 2.9069099
1300 2.8896937
1298 2.8262296
1296 2.7424142
1294 2.6457145
1292 2.5558689
1290 2.4932959
1288 2.456948
1286 2.4799936
1284 2.5218484
1282 2.6027603
1280 2.6845126
1278 2.770339
1276 2.8722758
1274 3.005408
1272 3.1546314
1270 3.3297453
1268 3.5124688
1266 3.7152214
1264 3.9615057
1262 4.2709646
1260 4.638494
1258 5.0646782
1256 5.5098886
1254 5.9644399
1252 6.3998423
1250 6.8218703
1248 7.2386169
1246 7.6626501
1244 8.1212006
1242 8.5873108
1240 9.0363426
1238 9.4409857
1236 9.7153568
1234 9.9047003
1232 9.8955641
1230 9.8040085
1228 9.509737
1226 9.1749229
1224 8.7396402
1222 8.3011522
1220 7.8549275
1218 7.4053049
1216 6.9482689
1214 6.4837303
1212 6.0056863
1210 5.5187144
1208 5.0185676
1206 4.5106659
1204 4.0007639
1202 3.5198314
1200 3.0725605
1198 2.6614773
1196 2.2738073
1194 1.8756779
1192 1.4755886
1190 1.0920405
1188 0.73568314
1186 0.46236238
1184 0.23091155
1182 0.060153939
1180 -0.082164451
1178 -0.16497478
1176 -0.20483799
1174 -0.10362633
1172 0.025070786
1170 0.2264328
1168 0.39333096
1166 0.45279005
1164 0.47038543
1162 0.3886362
1160 0.31381458
1158 0.25724563
1156 0.23433013
1154 0.2658909
1152 0.30935812
1150 0.36182192
1148 0.37930539
1146 0.35366893
1144 0.28787285
1142 0.19043583
1140 0.10072371
1138 0.026040798
1136 0.0049145198
1134 0.031571269
1132 0.16048731
1130 0.3470093
1128 0.63044274
1126 0.93876755
1124 1.2386618
1122 1.5353237
1120 1.8229519
1118 2.1105027
1116 2.4013
1114 2.6743116
1112 2.8727617
1110 3.0578961
1108 3.1996372
1106 3.3224401
1104 3.3963635
1102 3.4399252
1100 3.4280312
1098 3.4332728
1096 3.4725001
1094 3.5735774
1092 3.763814
1090 4.059907
1088 4.4691343
1086 4.9596229
1084 5.5025821
1082 5.9814696
1080 6.402698
1078 6.6843348
1076 6.8892369
1074 6.9926763
1072 7.0511446
1070 7.0233712
1068 6.9635148
1066 6.8091459
1064 6.638432
1062 6.4371657
1060 6.2372737
1058 6.0565987
1056 5.880537
1054 5.7262998
1052 5.5959826
1050 5.5447254
1048 5.5340266
1046 5.6201677
1044 5.7101965
1042 5.8028374
1040 5.8480859
1038 5.8224025
1036 5.7642102
1034 5.6639156
1032 5.5078273
1030 5.2905569
1028 4.951755
1026 4.527205
1024 4.0763674
1022 3.6167011
1020 3.2081103
1018 2.8185084
1016 2.4207885
1014 2.0268424
1012 1.6966022
1010 1.3918593
1008 1.2527599
1006 1.1324129
1004 1.0702554
1002 1.0063413
1000 0.92787409
998 0.85171652
996 0.78387141
994 0.68207079
992 0.47300678
990 0.21853542
988 -0.13570562
986 -0.43346086
984 -0.62747103
982 -0.71739501
980 -0.6662724
978 -0.56898248
976 -0.42410743
974 -0.27919137
972 -0.13436075
970 0.0079088062
968 0.15104343
966 0.34154701
964 0.55636281
962 0.83039355
960 1.1209201
958 1.354527
956 1.5642085
954 1.5071046
952 1.4048519
950 0.98638451
948 0.56316566
946 0.25422427
944 0.0021327101
942 0.06756945
940 0.23663011
938 0.590662
936 0.95874459
934 1.3684881
932 1.8035948
930 2.2917092
928 2.7387383
926 3.1190629
924 3.4325581
922 3.6652701
920 3.9057565
918 4.1526771
916 4.3348541
914 4.4703584
912 4.5209637
910 4.5284901
908 4.7278366
906 5.0003967
904 5.321609
902 5.6533661
900 5.5520096
898 5.3806624
896 5.1447001
