##TITLE=Methyl Ethyl Ketone
##JCAMP-DX=4.24
##DATA TYPE=INFRARED SPECTRUM
##XUNITS=cm-1
##YUNITS=Absorbance
##FIRSTX=900
##LASTX=2300
##XYDATA=(X++(Y..Y))
2296 0.029301999
2294 0.029911129
2292 0.030521255
2290 0.031130385
2288 0.031739514
2286 0.032349635
2284 0.032958768
2282 0.033568889
2280 0.03417803
2278 0.034788143
2276 0.035397287
2274 0.036006413
2272 0.036616523
2270 0.037228614
2268 0.03783584
2266 0.038437098
2264 0.039054852
2262 0.039695408
2260 0.040275112
2258 0.040767673
2256 0.041490141
2254 0.042533379
2252 0.042726751
2250 0.041721337
2248 0.043874342
2246 0.050056893
2244 0.041846447
2242 0.003573895
2240 -0.047599219
2238 -0.086873032
2236 -0.09616781
2234 -0.066898242
2232 -0.020708926
2230 0.014408762
2228 0.019809561
2226 -0.01460365
2224 -0.075730637
2222 -0.14469098
2220 -0.20654979
2218 -0.25090978
2216 -0.28072003
2214 -0.30245125
2212 -0.3208268
2210 -0.33929294
2208 -0.35852623
2206 -0.37728465
2204 -0.39007515
2202 -0.3897146
2200 -0.36761105
2198 -0.31856
2196 -0.25294286
2194 -0.18652427
2192 -0.13733828
2190 -0.1190931
2188 -0.12536515
2186 -0.14350635
2184 -0.1617256
2182 -0.1717962
2180 -0.17854893
2178 -0.18844859
2176 -0.19728257
2174 -0.19725408
2172 -0.18041883
2170 -0.14317261
2168 -0.099681035
2166 -0.067906782
2164 -0.057196248
2162 -0.070490189
2160 -0.09686584
2158 -0.12252672
2156 -0.140745
2154 -0.148151
2152 -0.1448067
2150 -0.13242805
2148 -0.11500546
2146 -0.098018929
2144 -0.089769214
2142 -0.096683502
2140 -0.11348267
2138 -0.13100387
2136 -0.14119057
2134 -0.13974747
2132 -0.13570318
2130 -0.14085114
2128 -0.15896361
2126 -0.18800342
2124 -0.21474132
2122 -0.22510707
2120 -0.2180241
2118 -0.19881804
2116 -0.17891829
2114 -0.1687488
2112 -0.16593367
2110 -0.16322599
2108 -0.15319729
2106 -0.13029164
2104 -0.096078537
2102 -0.055043239
2100 -0.012434094
2098 0.025824562
2096 0.051781714
2094 0.058062971
2092 0.042901736
2090 0.0097928848
2088 -0.025104906
2086 -0.043102801
2084 -0.035300247
2082 -0.0011417028
2080 0.04212673
2078 0.073454484
2076 0.084816158
2074 0.07629104
2072 0.058699042
2070 0.044551194
2068 0.036259536
2066 0.032092199
2064 0.031012433
2062 0.033502519
2060 0.044391576
2058 0.06898617
2056 0.10713109
2054 0.15522036
2052 0.20519654
2050 0.24779166
2048 0.27619857
2046 0.28569677
2044 0.27563438
2042 0.24756871
2040 0.20532285
2038 0.15417632
2036 0.10175338
2034 0.055960786
2032 0.021786166
2030 0.0017625113
2028 -0.0063240649
2026 -0.0058994051
2024 0.0030431768
2022 0.021613061
2020 0.048644505
2018 0.080441803
2016 0.107312
2014 0.11908606
2012 0.1147994
2010 0.098712854
2008 0.078873619
2006 0.063420847
2004 0.054609306
2002 0.052590791
2000 0.060523409
1998 0.082915142
1996 0.12331413
1994 0.18186571
1992 0.24647059
1990 0.29977614
1988 0.32654622
1986 0.31686336
1984 0.27751109
1982 0.22355214
1980 0.17153855
1978 0.13554725
1976 0.11830372
1974 0.1158998
1972 0.11972071
1970 0.12101946
1968 0.1186144
1966 0.11548307
1964 0.11579511
1962 0.12263783
1960 0.1332528
1958 0.14290851
1956 0.151162
1954 0.15987119
1952 0.17065886
1950 0.18343537
1948 0.19212779
1946 0.1899375
1944 0.18003885
1942 0.17077941
1940 0.16961926
1938 0.18062562
1936 0.19705972
1934 0.20781922
1932 0.20725499
1930 0.19414528
1928 0.17192268
1926 0.14567307
1924 0.11786985
1922 0.089439079
1920 0.061486572
1918 0.035993811
1916 0.017829329
1914 0.011771317
1912 0.015408486
1910 0.022119487
1908 0.024704127
1906 0.017753143
1904 0.0035379452
1902 -0.011557516
1900 -0.021876782
1898 -0.022899916
1896 -0.011636
1894 0.013545063
1892 0.051796045
1890 0.099789627
1888 0.14919126
1886 0.18950285
1884 0.21279937
1882 0.21469578
1880 0.1986876
1878 0.17238601
1876 0.141882
1874 0.11127836
1872 0.081656307
1870 0.052367136
1868 0.022448327
1866 -0.0085814288
1864 -0.03894905
1862 -0.065667629
1860 -0.086364985
1858 -0.099963762
1856 -0.10889286
1854 -0.1172038
1852 -0.12682417
1850 -0.13803998
1848 -0.1505316
1846 -0.16304393
1844 -0.17131309
1842 -0.16994089
1840 -0.15668206
1838 -0.1321829
1836 -0.10019426
1834 -0.065437272
1832 -0.029273748
1830 0.0080426186
1828 0.040823389
1826 0.060341459
1824 0.060970567
1822 0.041575417
1820 0.010369974
1818 -0.020234335
1816 -0.044985741
1814 -0.064982437
1812 -0.08591786
1810 -0.11318599
1808 -0.13996737
1806 -0.15376399
1804 -0.15422945
1802 -0.15032434
1800 -0.15191422
1798 -0.16509694
1796 -0.18093213
1794 -0.182345
1792 -0.16121399
1790 -0.11809801
1788 -0.059727889
1786 0.0028953068
1784 0.0544286
1782 0.079417512
1780 0.073684797
1778 0.043186311
1776 0.002880685
1774 -0.028609401
1772 -0.039964784
1770 -0.0293184
1768 -0.011440134
1766 -0.0053840308
1764 0.00085131405
1762 0.027147822
1760 0.020866565
1758 -0.10235625
1756 -0.31811541
1754 -0.52834111
1752 -0.69299835
1750 -0.82588267
1748 -0.93986791
1746 -1.039945
1744 -1.1322777
1742 -1.2215397
1740 -1.29669
1738 -1.3356097
1736 -1.32008
1734 -1.2415894
1732 -1.1152835
1730 -0.97087765
1728 -0.82641393
1726 -0.68382823
1724 -0.5230056
1722 -0.30207509
1720 0.051499486
1718 0.61467713
1716 1.3849028
1714 2.2897937
1712 3.2339919
1710 4.137115
1708 5.02773
1706 6.0314784
1704 7.321672
1702 9.1026726
1700 11.610519
1698 15.009577
1696 19.030001
1694 23.083059
1692 26.738043
1690 29.835791
1688 32.633766
1686 35.672878
1684 39.365379
1682 43.843822
1680 48.65044
1678 52.989582
1676 56.667686
1674 60.086987
1672 63.736557
1670 67.979561
1668 72.688057
1666 77.355202
1664 81.620071
1662 85.34613
1660 88.54641
1658 91.334015
1656 93.835854
1654 96.141472
1652 98.199104
1650 99.807076
1648 100.63411
1646 100.3375
1644 99.017578
1642 97.136971
1640 94.930885
1638 92.349419
1636 89.258186
1634 85.546196
1632 81.34568
1630 76.978683
1628 72.60955
1626 68.213593
1624 63.742039
1622 59.180904
1620 54.618828
1618 50.227352
1616 46.142513
1614 42.443485
1612 39.179676
1610 36.372139
1608 33.985126
1606 31.936892
1604 30.167618
1602 28.651009
1600 27.372171
1598 26.317144
1596 25.4615
1594 24.772877
1592 24.230349
1590 23.83239
1588 23.590408
1586 23.52035
1584 23.619949
1582 23.87125
1580 24.2764
1578 24.860207
1576 25.645716
1574 26.6392
1572 27.79995
1570 29.044006
1568 30.302401
1566 31.537422
1564 32.730259
1562 33.908577
1560 35.278103
1558 37.166985
1556 39.615429
1554 42.309929
1552 44.828243
1550 46.774071
1548 48.087601
1546 49.049534
1544 49.850498
1542 50.488789
1540 50.881039
1538 50.909367
1536 50.515656
1534 49.730946
1532 48.665485
1530 47.482212
1528 46.263329
1526 44.982601
1524 43.588356
1522 42.035873
1520 40.333088
1518 38.550064
1516 36.771114
1514 35.054722
1512 33.314121
1510 31.316055
1508 28.891649
1506 26.026722
1504 22.933886
1502 20.018183
1500 17.510933
1498 15.376921
1496 13.492286
1494 11.706539
1492 9.9316759
1490 8.1659298
1488 6.4310603
1486 4.761507
1484 3.2293241
1482 1.9417579
1480 0.96916497
1478 0.33164382
1476 0.069043741
1474 0.23735848
1472 0.77841282
1470 1.495116
1468 2.2226086
1466 2.8845801
1464 3.4689167
1462 4.0190721
1460 4.5742588
1458 5.1457095
1456 5.7019
1454 6.1674128
1452 6.4818945
1450 6.6226401
1448 6.600369
1446 6.4578176
1444 6.2350197
1442 5.956543
1440 5.6296587
1438 5.2421703
1436 4.774097
1434 4.2078614
1432 3.5670612
1430 2.928278
1428 2.3645918
1426 1.9248056
1424 1.6334372
1422 1.4886849
1420 1.4834681
1418 1.6094257
1416 1.8460915
1414 2.1575539
1412 2.5099237
1410 2.8788607
1408 3.2545955
1406 3.6439521
1404 4.0526443
1402 4.4776983
1400 4.9049678
1398 5.3071775
1396 5.654057
1394 5.9169736
1392 6.0766149
1390 6.1279664
1388 6.0749288
1386 5.9300251
1384 5.7099185
1382 5.433023
1380 5.1111236
1378 4.7459512
1376 4.3395543
1374 3.8994598
1372 3.444458
1370 3.0053818
1368 2.5956881
1366 2.1983144
1364 1.7910969
1362 1.3591481
1360 0.9176544
1358 0.52340853
1356 0.22711422
1354 0.052003603
1352 -0.0052246354
1350 0.021187205
1348 0.097519018
1346 0.20277822
1344 0.32399398
1342 0.45677406
1340 0.60022521
1338 0.7543785
1336 0.90972745
1334 1.0424628
1332 1.1347954
1330 1.185216
1328 1.2027961
1326 1.2081572
1324 1.2239109
1322 1.2702258
1320 1.3595943
1318 1.4913162
1316 1.65329
1314 1.8201056
1312 1.9673537
1310 2.0786867
1308 2.1468124
1306 2.1775358
1304 2.1819184
1302 2.1751859
1300 2.1729529
1298 2.1895094
1296 2.2353427
1294 2.3140099
1292 2.4256179
1290 2.5665004
1288 2.732584
1286 2.9202485
1284 3.1232398
1282 3.330456
1280 3.5308061
1278 3.7160494
1276 3.8849256
1274 4.0481901
1272 4.2206721
1270 4.4185605
1268 4.6552896
1266 4.9375224
1264 5.2675114
1262 5.6425233
1260 6.0590162
1258 6.5147262
1256 7.0076427
1254 7.5362215
1252 8.0991507
1250 8.696105
1248 9.3260345
1246 9.985425
1244 10.66104
1242 11.3217
1240 11.931143
1238 12.452753
1236 12.858528
1234 13.136733
1232 13.27868
1230 13.274611
1228 13.119971
1226 12.816885
1224 12.377829
1222 11.827395
1220 11.19386
1218 10.50916
1216 9.8018284
1214 9.0987482
1212 8.423914
1210 7.7958946
1208 7.2238388
1206 6.6983523
1204 6.2001581
1202 5.6991496
1200 5.1702342
1198 4.6049852
1196 4.0063572
1194 3.3932443
1192 2.7893968
1190 2.2202041
1188 1.707478
1186 1.2640753
1184 0.89680874
1182 0.60484314
1180 0.38723838
1178 0.24659224
1176 0.182496
1174 0.18532889
1172 0.23680758
1170 0.30493918
1168 0.35948622
1166 0.38239929
1164 0.36731488
1162 0.3274436
1160 0.27984113
1158 0.23894888
1156 0.21244243
1154 0.19401599
1152 0.17420726
1150 0.14440638
1148 0.10100406
1146 0.051528785
1144 0.0071443953
1142 -0.018863065
1140 -0.014252503
1138 0.029427551
1136 0.11830559
1134 0.25460869
1132 0.4349134
1130 0.64483011
1128 0.87017792
1126 1.1038985
1124 1.3441935
1122 1.5982602
1120 1.873476
1118 2.1731966
1116 2.4973071
1114 2.8388624
1112 3.1884377
1110 3.5342071
1108 3.8658514
1106 4.1779499
1104 4.4667282
1102 4.7300234
1100 4.9696207
1098 5.1970577
1096 5.4331713
1094 5.7157583
1092 6.0751657
1090 6.5098257
1088 6.9967585
1086 7.4780102
1084 7.8990612
1082 8.2378426
1080 8.4900179
1078 8.6777468
1076 8.826087
1074 8.9498234
1072 9.0583315
1070 9.153554
1068 9.231513
1066 9.2780647
1064 9.2772522
1062 9.2164469
1060 9.0897188
1058 8.9076309
1056 8.6845207
1054 8.4336567
1052 8.1651325
1050 7.8805871
1048 7.5818338
1046 7.2760429
1044 6.973444
1042 6.6887898
1040 6.4328241
1038 6.2017713
1036 5.9858904
1034 5.7686791
1032 5.5374303
1030 5.2957544
1028 5.0499172
1026 4.802021
1024 4.5506549
1022 4.2874908
1020 4.0067902
1018 3.7156322
1016 3.422857
1014 3.132669
1012 2.8470349
1010 2.5643373
1008 2.2827959
1006 2.0018585
1004 1.72006
1002 1.4328794
1000 1.1386521
998 0.84749353
996 0.57389426
994 0.33661941
992 0.14940286
990 0.0063589215
988 -0.10430289
986 -0.19743979
984 -0.28051299
982 -0.33473739
980 -0.33978039
978 -0.29195079
976 -0.19953343
974 -0.096604601
972 -0.014569614
970 0.045516822
968 0.094908938
966 0.16072699
964 0.26474968
962 0.39704344
960 0.53394914
958 0.63206547
956 0.65246928
954 0.58903617
952 0.45356363
950 0.29192168
948 0.15145122
946 0.054719716
944 0.010465446
942 0.00013879826
940 0.0049764086
938 0.029733088
936 0.083136909
934 0.16707493
932 0.28001621
930 0.41401696
928 0.55431008
926 0.66713113
924 0.72402722
922 0.7343964
920 0.71979791
918 0.71203202
916 0.73665899
914 0.78563792
912 0.84370643
910 0.90009558
908 0.94752806
906 0.98805076
904 1.0244679
902 1.0537844
900 1.0734477
898 1.0901322
896 1.1126
