##TITLE=Methyl Ethyl Ketone
##JCAMP-DX=4.24
##DATA TYPE=INFRARED SPECTRUM
##XUNITS=cm-1
##YUNITS=Absorbance
##FIRSTX=900
##LASTX=2300
##XYDATA=(X++(Y..Y))
2296 0.094765
2294 0.096736185
2292 0.098707363
2290 0.10068153
2288 0.10264874
2286 0.10462586
2284 0.10659312
2282 0.1085603
2280 0.11053737
2278 0.11250467
2276 0.11448172
2274 0.11644904
2272 0.11842605
2270 0.12039342
2268 0.1223606
2266 0.12433757
2264 0.12630497
2262 0.12828192
2260 0.13024934
2258 0.13222626
2256 0.13419372
2254 0.1361609
2252 0.13813777
2250 0.14010526
2248 0.14208211
2246 0.14404963
2244 0.053771261
2242 0.0019396028
2240 0.020130239
2238 0.095401116
2236 0.17864662
2234 0.18027079
2232 0.17457834
2230 0.13744396
2228 0.11123489
2226 0.18383349
2224 0.26623324
2222 0.37017679
2220 0.4560217
2218 0.48311344
2216 0.50182629
2214 0.50949824
2212 0.52545756
2210 0.55601501
2208 0.58486474
2206 0.61049324
2204 0.63625324
2202 0.66234422
2200 0.70608878
2198 0.76301771
2196 0.83412218
2194 0.91289514
2192 0.95997608
2190 0.99290407
2188 0.97333831
2186 0.93702936
2184 0.89796156
2182 0.85851806
2180 0.853374
2178 0.8541249
2176 0.91824657
2174 0.99273258
2172 1.1190591
2170 1.242903
2168 1.3241417
2166 1.3839049
2164 1.3806051
2162 1.3659549
2160 1.3384074
2158 1.3070247
2156 1.2711401
2154 1.2391052
2152 1.2133818
2150 1.2071276
2148 1.2218134
2146 1.2318143
2144 1.2356526
2142 1.195683
2140 1.1256565
2138 1.0496336
2136 0.97202057
2134 0.94539893
2132 0.94043142
2130 0.96641707
2128 1.0016752
2126 1.039825
2124 1.0784454
2122 1.1032538
2120 1.1260338
2118 1.1511579
2116 1.18185
2114 1.250976
2112 1.3198497
2110 1.3632256
2108 1.3803602
2106 1.3293922
2104 1.2716583
2102 1.2212455
2100 1.19075
2098 1.1917939
2096 1.2014287
2094 1.2159925
2092 1.2452809
2090 1.2892168
2088 1.3264811
2086 1.3567899
2084 1.3345549
2082 1.2782937
2080 1.1948309
2078 1.0993199
2076 1.0253686
2074 0.96099454
2072 0.94202602
2070 0.93731952
2068 0.98498452
2066 1.0452064
2064 1.1196903
2062 1.1924657
2060 1.2217937
2058 1.235011
2056 1.2070886
2054 1.1741832
2052 1.1515077
2050 1.1311669
2048 1.1104022
2046 1.0663679
2044 0.97664142
2042 0.87821615
2040 0.78113431
2038 0.72964758
2036 0.73400629
2034 0.7665475
2032 0.81622905
2030 0.83442581
2028 0.82474083
2026 0.78832406
2024 0.73723066
2022 0.71431118
2020 0.70688444
2018 0.71543515
2016 0.73038
2014 0.70664006
2012 0.67046934
2010 0.63330191
2008 0.59930974
2006 0.6108188
2004 0.63889384
2002 0.69937408
2000 0.768673
1998 0.83681124
1996 0.88835359
1994 0.88831347
1992 0.85938823
1990 0.7977916
1988 0.74996263
1986 0.74476182
1984 0.76630777
1982 0.81088364
1980 0.83958662
1978 0.84253371
1976 0.83349138
1974 0.81743258
1972 0.83729798
1970 0.8849054
1968 0.96966785
1966 1.0749661
1964 1.1413366
1962 1.1865891
1960 1.167768
1958 1.1225678
1956 1.09785
1954 1.0837002
1952 1.1320932
1950 1.1985886
1948 1.2313563
1946 1.2364249
1944 1.1535828
1942 1.0462292
1940 0.96355784
1938 0.91303694
1936 0.92997795
1934 0.95950472
1932 0.96876621
1930 0.95534033
1928 0.90991193
1926 0.89527458
1924 0.929371
1922 1.0440176
1920 1.2345343
1918 1.417236
1916 1.5811542
1914 1.6701736
1912 1.7049074
1910 1.7121794
1908 1.7069786
1906 1.68268
1904 1.6498361
1902 1.5947708
1900 1.5311463
1898 1.4839704
1896 1.4479715
1894 1.4638629
1892 1.501092
1890 1.5534639
1888 1.5983886
1886 1.5946257
1884 1.5645174
1882 1.511216
1880 1.4594737
1878 1.4268525
1876 1.40976
1874 1.40091
1872 1.3948263
1870 1.3840557
1868 1.3714908
1866 1.3682543
1864 1.3720955
1862 1.3893629
1860 1.4001184
1858 1.3983643
1856 1.37712
1854 1.338881
1852 1.3352331
1850 1.3530197
1848 1.4085
1846 1.4796071
1844 1.4557126
1842 1.3756589
1840 1.2024566
1838 0.98966867
1836 0.78378797
1834 0.59383082
1832 0.44450399
1830 0.35087788
1828 0.40000761
1826 0.53037906
1824 0.7333411
1822 0.90050387
1820 0.92687482
1818 0.8528651
1816 0.68999314
1814 0.52470577
1812 0.39794433
1810 0.3166562
1808 0.277758
1806 0.257732
1804 0.24515566
1802 0.25992239
1800 0.29383788
1798 0.37684855
1796 0.49454355
1794 0.59315896
1792 0.67929119
1790 0.70298296
1788 0.69457132
1786 0.65260863
1784 0.59501791
1782 0.51896173
1780 0.44471574
1778 0.4305197
1776 0.44233057
1774 0.42668605
1772 0.35238063
1770 0.16202471
1768 -0.045423217
1766 -0.14407514
1764 -0.14115199
1762 -0.049070783
1760 0.03631454
1758 -0.016309854
1756 -0.14426693
1754 -0.28515807
1752 -0.34426007
1750 -0.30377692
1748 -0.20062864
1746 -0.058889244
1744 0.008694049
1742 0.0064640469
1740 -0.042692363
1738 -0.12279513
1736 -0.15126
1734 -0.14343438
1732 -0.14454474
1730 -0.15404518
1728 -0.2253764
1726 -0.31915301
1724 -0.33481693
1722 -0.25377131
1720 -0.036604524
1718 0.2673735
1716 0.84727657
1714 1.6130134
1712 2.417628
1710 3.236299
1708 4.01755
1706 4.9427543
1704 6.1572909
1702 7.896224
1700 10.278943
1698 13.239861
1696 16.678858
1694 19.94713
1692 22.786945
1690 25.32568
1688 27.652737
1686 30.472364
1684 33.841114
1682 37.763721
1680 42.114841
1678 45.952232
1676 49.313641
1674 52.639973
1672 55.99902
1670 59.896816
1668 64.19294
1666 68.4795
1664 72.694801
1662 76.603256
1660 80.205093
1658 83.457909
1656 86.437546
1654 89.260101
1652 91.927879
1650 94.46212
1648 96.358444
1646 97.237534
1644 97.236382
1642 96.556122
1640 95.358559
1638 93.793938
1636 91.580605
1634 88.695343
1632 85.375397
1630 81.772446
1628 78.09343
1626 74.389854
1624 70.44104
1622 66.243927
1620 61.987423
1618 57.700523
1616 53.508827
1614 49.45129
1612 45.765419
1610 42.486549
1608 39.672966
1606 37.289413
1604 35.157341
1602 33.276218
1600 31.602606
1598 30.153048
1596 28.9165
1594 27.889353
1592 27.038166
1590 26.347675
1588 25.78388
1586 25.371778
1584 25.110731
1582 25.037399
1580 25.151058
1578 25.521517
1576 26.163885
1574 27.030689
1572 28.107283
1570 29.1588
1568 30.13596
1566 31.031643
1564 31.846212
1562 32.852566
1560 34.116901
1558 35.947437
1556 38.313198
1554 40.586761
1552 42.680088
1550 44.287571
1548 45.47794
1546 46.602608
1544 47.667183
1542 48.715042
1540 49.589378
1538 50.131336
1536 50.277744
1534 50.007992
1532 49.518768
1530 48.985134
1528 48.389793
1526 47.7234
1524 46.828461
1522 45.618114
1520 44.011051
1518 41.97567
1516 39.925014
1514 37.986195
1512 36.176083
1510 34.489883
1508 32.342419
1506 29.573565
1504 26.652361
1502 23.621712
1500 20.995466
1498 18.82234
1496 16.683144
1494 14.563332
1492 12.410111
1490 10.233403
1488 8.0974731
1486 6.062798
1484 4.2183819
1482 2.6630754
1480 1.4582372
1478 0.63185954
1476 0.16872086
1474 0.21262142
1472 0.83916456
1470 1.6304901
1468 2.4445689
1466 3.2296715
1464 3.9211709
1462 4.6047449
1460 5.3091941
1458 5.8734446
1456 6.2143397
1454 6.2872891
1452 6.0048132
1450 5.7376242
1448 5.5233164
1446 5.3377466
1444 5.1804452
1442 4.977385
1440 4.7065873
1438 4.4001451
1436 4.0232644
1434 3.5640085
1432 3.0123634
1430 2.4297912
1428 1.8773761
1426 1.4555771
1424 1.1887435
1422 1.0730397
1420 1.0648274
1418 1.1140556
1416 1.2074286
1414 1.34302
1412 1.5599406
1410 1.8849386
1408 2.2822137
1406 2.7474165
1404 3.2221448
1402 3.6973438
1400 4.1479721
1398 4.5595531
1396 4.9143858
1394 5.1738291
1392 5.3484297
1390 5.398109
1388 5.3969998
1386 5.321815
1384 5.2120185
1382 5.049068
1380 4.8464961
1378 4.585608
1376 4.2854257
1374 3.931998
1372 3.5591581
1370 3.1796057
1368 2.8243022
1366 2.4902244
1364 2.1462965
1362 1.7753273
1360 1.357904
1358 0.93800932
1356 0.56899744
1354 0.27634668
1352 0.10512219
1350 0.011329744
1348 0.0053389771
1346 0.022901122
1344 0.1158048
1342 0.23914723
1340 0.40677086
1338 0.55622667
1336 0.66660625
1334 0.71502954
1332 0.677674
1330 0.63323373
1328 0.59124255
1326 0.60376757
1324 0.69334686
1322 0.85541761
1320 1.0995445
1318 1.3813213
1316 1.6815
1314 1.9321483
1312 2.1232047
1310 2.2308133
1308 2.2780027
1306 2.2868078
1304 2.2783422
1302 2.2755721
1300 2.2848427
1298 2.3281453
1296 2.3930571
1294 2.4938745
1292 2.6044488
1290 2.7222648
1288 2.8378599
1286 2.9465907
1284 3.0612202
1282 3.1957972
1280 3.3385973
1278 3.5002213
1276 3.6602099
1274 3.814965
1272 3.978024
1270 4.1551962
1268 4.3540411
1266 4.5903664
1264 4.8586497
1262 5.1841292
1260 5.5879459
1258 6.0848432
1256 6.6614857
1254 7.2987156
1252 7.9346514
1250 8.5598803
1248 9.1493664
1246 9.7183247
1244 10.2812
1242 10.844107
1240 11.419269
1238 11.98767
1236 12.524444
1234 13.009362
1232 13.34132
1230 13.583477
1228 13.580731
1226 13.498407
1224 13.201965
1222 12.841243
1220 12.326417
1218 11.768801
1216 11.130857
1214 10.500172
1212 9.8893185
1210 9.3241568
1208 8.8225327
1206 8.3385353
1204 7.8642559
1202 7.3431129
1200 6.7682018
1198 6.1388578
1196 5.4732785
1194 4.8209367
1192 4.1926146
1190 3.634094
1188 3.1234145
1186 2.6838007
1184 2.2848647
1182 1.957908
1180 1.6730309
1178 1.4917413
1176 1.35488
1174 1.3396511
1172 1.3480083
1170 1.4211022
1168 1.4821874
1166 1.5058408
1164 1.5002705
1162 1.420869
1160 1.3133759
1158 1.1486815
1156 0.96684301
1154 0.75922215
1152 0.55955774
1150 0.37490085
1148 0.22134221
1146 0.10695215
1144 0.032577436
1142 -0.0025360771
1140 -0.0057717161
1138 0.017020483
1136 0.066587456
1134 0.1434698
1132 0.32752466
1130 0.57626772
1128 0.94863749
1126 1.3650351
1124 1.8344899
1122 2.3055563
1120 2.7357199
1118 3.1469505
1116 3.4770286
1114 3.792021
1112 4.0490417
1110 4.2947526
1108 4.5056481
1106 4.7185903
1104 4.940577
1102 5.1941619
1100 5.5135183
1098 5.8753953
1096 6.3043284
1094 6.7530665
1092 7.2207518
1090 7.6512046
1088 8.0369511
1086 8.3571377
1084 8.6296797
1082 8.9179516
1080 9.218564
1078 9.5427628
1076 9.8607473
1074 10.06047
1072 10.205526
1070 10.23787
1068 10.248424
1066 10.284857
1064 10.33068
1062 10.41979
1060 10.503163
1058 10.528504
1056 10.524229
1054 10.382928
1052 10.196106
1050 9.8607607
1048 9.4717903
1046 8.9539394
1044 8.4171524
1042 7.8534799
1040 7.3649011
1038 6.994174
1036 6.7228003
1034 6.5606432
1032 6.3743649
1030 6.1559391
1028 5.8316216
1026 5.4354601
1024 5.0472455
1022 4.674284
1020 4.4165988
1018 4.2077036
1016 4.0438714
1014 3.883323
1012 3.6261971
1010 3.3377686
1008 2.881196
1006 2.4073713
1004 1.8966583
1002 1.4013926
1000 1.014219
998 0.63983279
996 0.32228428
994 0.013676494
992 -0.26604697
990 -0.53074718
988 -0.75929087
986 -0.95909774
984 -1.1043537
982 -1.1593195
980 -1.0893369
978 -0.93116176
976 -0.68194115
974 -0.43276536
972 -0.18403207
970 0.056033477
968 0.29221943
966 0.56172049
964 0.84386504
962 1.0811317
960 1.2944435
958 1.3021057
956 1.2577357
954 1.0245826
952 0.7684868
950 0.50816786
948 0.25567266
946 0.11712214
944 0.0
942 -0.00028570276
940 -0.0058482662
938 0.08402314
936 0.153164
934 0.16050629
932 0.13614586
930 0.045311492
928 -0.004964117
926 0.010475099
924 0.079670519
922 0.21340746
920 0.32584497
918 0.41829133
916 0.48162556
914 0.52488059
912 0.58560109
910 0.65509605
908 0.76165378
906 0.88088077
904 0.99421322
902 1.1041317
900 1.0415401
898 0.95051181
896 0.70712
