##TITLE=Methyl Ethyl Ketone
##JCAMP-DX=4.24
##DATA TYPE=INFRARED SPECTRUM
##XUNITS=cm-1
##YUNITS=Absorbance
##FIRSTX=900
##LASTX=2300
##XYDATA=(X++(Y..Y))
2296 -0.031961001
2294 -0.032625049
2292 -0.033290096
2290 -0.033955146
2288 -0.034620192
2286 -0.035285242
2284 -0.035950292
2282 -0.036615338
2280 -0.037279401
2278 -0.037944436
2276 -0.038609486
2274 -0.039276503
2272 -0.039939616
2270 -0.040598743
2268 -0.04126858
2266 -0.041956238
2264 -0.042599306
2262 -0.04318089
2260 -0.04392669
2258 -0.044902321
2256 -0.045268029
2254 -0.044775538
2252 -0.046550889
2250 -0.051525954
2248 -0.048069641
2246 -0.026746001
2244 -0.00096426572
2242 0.014273369
2240 0.02336408
2238 0.033815634
2236 0.043398455
2234 0.047787596
2232 0.045614913
2230 0.039313193
2228 0.043102898
2226 0.069344856
2224 0.10908946
2222 0.14945352
2220 0.18704483
2218 0.22189392
2216 0.25625485
2214 0.29142419
2212 0.3221882
2210 0.34528801
2208 0.37339795
2206 0.42104
2204 0.49060836
2202 0.57699829
2200 0.6600768
2198 0.71855611
2196 0.74516857
2194 0.74237627
2192 0.73422551
2190 0.74666017
2188 0.78613931
2186 0.84771329
2184 0.90576482
2182 0.93590713
2180 0.94521368
2178 0.95139927
2176 0.97340488
2174 1.0233268
2172 1.0841351
2170 1.132097
2168 1.1543806
2166 1.1471286
2164 1.1267271
2162 1.1148434
2160 1.1260788
2158 1.1690459
2156 1.2375001
2154 1.3198104
2152 1.4021348
2150 1.4717772
2148 1.5216469
2146 1.5474143
2144 1.5464234
2142 1.518766
2140 1.4722154
2138 1.4185394
2136 1.3753772
2134 1.3563631
2132 1.3522929
2130 1.3456537
2128 1.320336
2126 1.268503
2124 1.2126801
2122 1.1818931
2120 1.1863686
2118 1.2249455
2116 1.2803329
2114 1.3323309
2112 1.3713108
2110 1.3927624
2108 1.3955597
2106 1.3806478
2104 1.3525006
2102 1.3174747
2100 1.285238
2098 1.2656891
2096 1.2668858
2094 1.2933426
2092 1.3386203
2090 1.3922513
2088 1.4455109
2086 1.49301
2084 1.5389494
2082 1.589782
2080 1.6442143
2078 1.6963495
2076 1.73449
2074 1.7475886
2072 1.737492
2070 1.7121555
2068 1.6821671
2066 1.6559728
2064 1.6292742
2062 1.5940676
2060 1.551234
2058 1.5057861
2056 1.4662657
2054 1.4391869
2052 1.4182206
2050 1.3918673
2048 1.3520285
2046 1.2961999
2044 1.2403539
2042 1.2073163
2040 1.2161732
2038 1.2763184
2036 1.3652543
2034 1.4478724
2032 1.4960874
2030 1.49327
2028 1.4572443
2026 1.419355
2024 1.4051096
2022 1.4278502
2020 1.4659142
2018 1.4839782
2016 1.4555401
2014 1.3691407
2012 1.2559546
2010 1.1623363
2008 1.1166794
2006 1.1307485
2004 1.185606
2002 1.250661
2000 1.3034555
1998 1.3311385
1996 1.3424786
1994 1.3560643
1992 1.3919451
1990 1.4653115
1988 1.571752
1986 1.6946442
1984 1.8054988
1982 1.8751447
1980 1.8942846
1978 1.8694911
1976 1.83254
1974 1.821205
1972 1.8493751
1970 1.9124905
1968 1.9796138
1966 2.0152006
1964 2.0152209
1962 1.9934267
1960 1.967136
1958 1.9486629
1956 1.9249629
1954 1.8765067
1952 1.8119103
1950 1.7556998
1948 1.7345846
1946 1.7686501
1944 1.8494691
1942 1.9548352
1940 2.0674131
1938 2.1728125
1936 2.2542944
1934 2.2923064
1932 2.2609379
1930 2.1399162
1928 1.947
1926 1.727515
1924 1.5562277
1922 1.5059263
1920 1.5778103
1918 1.726534
1916 1.8786914
1914 1.9617469
1912 1.9593942
1910 1.889025
1908 1.7764945
1906 1.650185
1904 1.540916
1902 1.4787427
1900 1.4843174
1898 1.5669216
1896 1.7100856
1894 1.8794371
1892 2.0240912
1890 2.091965
1888 2.0602105
1886 1.9336536
1884 1.7623066
1882 1.6109999
1880 1.5034611
1878 1.4325024
1876 1.3700299
1874 1.2869711
1872 1.1933503
1870 1.1201047
1868 1.0847008
1866 1.0890628
1864 1.110556
1862 1.118245
1860 1.1051794
1858 1.0770053
1856 1.0254142
1854 0.93162125
1852 0.77627474
1850 0.55126476
1848 0.295544
1846 0.076998569
1844 -0.036651649
1842 0.0023707133
1840 0.1668967
1838 0.38351199
1836 0.58003414
1834 0.70259082
1832 0.75331688
1830 0.76910758
1828 0.78622973
1826 0.82870996
1824 0.88469428
1822 0.92147553
1820 0.91420996
1818 0.85019118
1816 0.73697567
1814 0.59599638
1812 0.45562607
1810 0.3480556
1808 0.30845296
1806 0.3598325
1804 0.46292615
1802 0.53898942
1800 0.51926357
1798 0.37050042
1796 0.16761093
1794 0.042449445
1792 0.059995919
1790 0.21670231
1788 0.44404578
1786 0.64827609
1784 0.79305786
1782 0.8855235
1780 0.92886889
1778 0.921103
1776 0.87467402
1774 0.81122059
1772 0.74331719
1770 0.67176491
1768 0.57919729
1766 0.44539908
1764 0.29167941
1762 0.16005404
1760 0.044120457
1758 -0.092234001
1756 -0.2423667
1754 -0.36898291
1752 -0.46050394
1750 -0.53247309
1748 -0.61628652
1746 -0.7462607
1744 -0.93120474
1742 -1.1487874
1740 -1.3249115
1738 -1.3607494
1736 -1.2090801
1734 -0.88685429
1732 -0.50576162
1730 -0.2240753
1728 -0.11311501
1726 -0.15129167
1724 -0.23591709
1722 -0.2169406
1720 0.038272277
1718 0.61065257
1716 1.4371493
1714 2.3488562
1712 3.190532
1710 3.8701038
1708 4.4649544
1706 5.18715
1704 6.2739286
1702 7.9534721
1700 10.409826
1698 13.707803
1696 17.514286
1694 21.2309
1692 24.492752
1690 27.254887
1688 29.862709
1686 32.919594
1684 36.923294
1682 42.08902
1680 47.91328
1678 53.451797
1676 58.392601
1674 63.061626
1672 67.872704
1670 73.103256
1668 78.520958
1666 83.518852
1664 87.731766
1662 91.098961
1660 93.684677
1658 95.605896
1656 96.946091
1654 97.744576
1652 98.01944
1650 97.780182
1648 97.0448
1646 95.860176
1644 94.36895
1642 92.762108
1640 91.071938
1638 89.166618
1636 86.871414
1634 84.034149
1632 80.669739
1630 76.928009
1628 72.863747
1626 68.427177
1624 63.61628
1622 58.51865
1620 53.35247
1618 48.423874
1616 43.941372
1614 39.989609
1612 36.589649
1610 33.714169
1608 31.285818
1606 29.196566
1604 27.377308
1602 25.811316
1600 24.510172
1598 23.496763
1596 22.768002
1594 22.292013
1592 22.040411
1590 21.998238
1588 22.166906
1586 22.555414
1584 23.145155
1582 23.89772
1580 24.827625
1578 26.012745
1576 27.554399
1574 29.540379
1572 31.93877
1570 34.59404
1568 37.334122
1566 40.009113
1564 42.535137
1562 44.932831
1560 47.412949
1558 50.281136
1556 53.407501
1554 56.198448
1552 58.175457
1550 59.147396
1548 59.253899
1546 58.886677
1544 58.218719
1542 57.132458
1540 55.528301
1538 53.425064
1536 51.0172
1534 48.633884
1532 46.445454
1530 44.403908
1528 42.404369
1526 40.331951
1524 38.104382
1522 35.695778
1520 33.175331
1518 30.707045
1516 28.437599
1514 26.438007
1512 24.614241
1510 22.71677
1508 20.584314
1506 18.226528
1504 15.810085
1502 13.615346
1500 11.768083
1498 10.17472
1496 8.7004423
1494 7.2325234
1492 5.7433271
1490 4.303546
1488 2.9897571
1486 1.8580514
1484 0.94954121
1482 0.28950089
1480 -0.1113027
1478 -0.24254945
1476 -0.024332285
1474 0.68265504
1472 1.8777028
1470 3.366781
1468 4.9279442
1466 6.3777027
1464 7.6512651
1462 8.8237267
1460 9.9800444
1458 11.163926
1456 12.3322
1454 13.344764
1452 14.071117
1450 14.431485
1448 14.423566
1446 14.131071
1444 13.644929
1442 13.03682
1440 12.341572
1438 11.551993
1436 10.646528
1434 9.6072159
1432 8.4817762
1430 7.4016385
1428 6.4863782
1426 5.8072033
1424 5.3857436
1422 5.1876197
1420 5.161046
1418 5.2482948
1416 5.3992343
1414 5.5809507
1412 5.7882719
1410 6.0485764
1408 6.385685
1406 6.8028927
1404 7.269043
1402 7.7102523
1400 8.046236
1398 8.2085552
1396 8.1729002
1394 7.9766688
1392 7.6760278
1390 7.3309708
1388 6.9810619
1386 6.6351547
1384 6.29772
1382 5.9748831
1380 5.6599641
1378 5.325913
1376 4.9382401
1374 4.4625483
1372 3.8919599
1370 3.2603357
1368 2.6043496
1366 1.9501328
1364 1.3167045
1362 0.71984839
1360 0.19605245
1358 -0.18917269
1356 -0.39120072
1354 -0.40577507
1352 -0.22291212
1350 0.18277717
1348 0.7937206
1346 1.5214536
1344 2.2793841
1342 3.0089948
1340 3.6561856
1338 4.1661386
1336 4.4994402
1334 4.6445117
1332 4.6121674
1330 4.4399819
1328 4.1751943
1326 3.8702772
1324 3.5730176
1322 3.318661
1320 3.1208863
1318 2.962256
1316 2.8215799
1314 2.6846881
1312 2.5503759
1310 2.4355943
1308 2.3541729
1306 2.3075349
1304 2.2921033
1302 2.3014631
1300 2.3354485
1298 2.4062362
1296 2.5317001
1294 2.7342865
1292 3.0332847
1290 3.4393306
1288 3.950316
1286 4.5428209
1284 5.1760435
1282 5.7879648
1280 6.3182397
1278 6.7221384
1276 6.9850988
1274 7.1414261
1272 7.2416129
1270 7.3430958
1268 7.4882836
1266 7.6886592
1264 7.9493232
1262 8.27775
1260 8.689188
1258 9.2114735
1256 9.8688965
1254 10.671722
1252 11.616966
1250 12.683269
1248 13.841977
1246 15.0555
1244 16.284008
1242 17.484957
1240 18.604366
1238 19.575581
1236 20.320257
1234 20.752731
1232 20.799
1230 20.419184
1228 19.61599
1226 18.463072
1224 17.054264
1222 15.497799
1220 13.906286
1218 12.39806
1216 11.083743
1214 10.055599
1212 9.3702354
1210 9.0156479
1208 8.9365225
1206 9.0230989
1204 9.1538057
1202 9.2121611
1200 9.1061831
1198 8.7956676
1196 8.2737074
1194 7.5793486
1192 6.767889
1190 5.9057798
1188 5.0558991
1186 4.2663541
1184 3.5715029
1182 2.9831755
1180 2.5066972
1178 2.1444731
1176 1.89678
1174 1.7600367
1172 1.7203317
1170 1.7432942
1168 1.789788
1166 1.8229629
1164 1.8182575
1162 1.7782869
1160 1.7120749
1158 1.627491
1156 1.5236629
1154 1.3802041
1152 1.1804597
1150 0.92816061
1148 0.64302939
1146 0.37013108
1144 0.15605427
1142 0.033582486
1140 0.0046551907
1138 0.0085506365
1136 -0.013483915
1134 -0.079356641
1132 -0.18888965
1130 -0.32199293
1128 -0.45373383
1126 -0.55956692
1124 -0.62038821
1122 -0.63178527
1120 -0.60795563
1118 -0.59771079
1116 -0.63827229
1114 -0.71568096
1112 -0.78309882
1110 -0.74719822
1108 -0.54708338
1106 -0.23129171
1104 0.12038988
1102 0.4194575
1100 0.613033
1098 0.7429536
1096 0.86359286
1094 1.002611
1092 1.1756459
1090 1.3848252
1088 1.6384921
1086 1.9668714
1084 2.3786931
1082 2.8123667
1080 3.1847155
1078 3.403656
1076 3.4120414
1074 3.2531397
1072 3.0031056
1070 2.7591856
1068 2.5984223
1066 2.5266614
1064 2.5162721
1062 2.4959466
1060 2.403266
1058 2.2301972
1056 2.0028429
1054 1.8040534
1052 1.7073455
1050 1.7205501
1048 1.8167388
1046 1.91695
1044 1.9531735
1042 1.9251466
1040 1.8653772
1038 1.8511316
1036 1.9469
1034 2.1462286
1032 2.4007473
1030 2.591398
1028 2.6069529
1026 2.4126585
1024 2.02356
1022 1.546221
1020 1.0899153
1018 0.70503938
1016 0.41554254
1014 0.20966956
1012 0.07423158
1010 0.016641524
1008 0.026199441
1006 0.021743774
1004 -0.081475511
1002 -0.32351488
1000 -0.69932485
998 -1.098232
996 -1.4056858
994 -1.5784669
992 -1.6103206
990 -1.5564696
988 -1.4794892
986 -1.4164064
984 -1.3909349
982 -1.4025377
980 -1.436226
978 -1.4499453
976 -1.4066714
974 -1.309885
972 -1.1813191
970 -1.0686704
968 -1.0095904
966 -0.9865635
964 -0.97188431
962 -0.94915634
960 -0.90939283
958 -0.85895115
956 -0.80184656
954 -0.72111011
952 -0.60033119
950 -0.44338977
948 -0.26299509
946 -0.084519744
944 0.083877936
942 0.30554879
940 0.62435484
938 0.95108557
936 1.19208
934 1.3584217
932 1.5009594
930 1.7206998
928 2.0974655
926 2.5860436
924 3.109076
922 3.5850768
920 3.9473624
918 4.1880145
916 4.3145456
914 4.3376594
912 4.2799611
910 4.207139
908 4.1815453
906 4.2103648
904 4.2752023
902 4.3102369
900 4.2722492
898 4.2547874
896 4.3857002
