##TITLE=Methyl Ethyl Ketone
##JCAMP-DX=4.24
##DATA TYPE=INFRARED SPECTRUM
##XUNITS=cm-1
##YUNITS=Absorbance
##FIRSTX=900
##LASTX=2300
##XYDATA=(X++(Y..Y))
2296 0.024196999
2294 0.024700278
2292 0.02520356
2290 0.025706839
2288 0.02621012
2286 0.026713399
2284 0.02721668
2282 0.02771996
2280 0.028223241
2278 0.028727507
2276 0.029229814
2274 0.02973308
2272 0.030237343
2270 0.030743584
2268 0.031243982
2266 0.031736434
2264 0.032250229
2262 0.032793764
2260 0.033258095
2258 0.033612445
2256 0.034260228
2254 0.03531884
2252 0.035288043
2250 0.033723097
2248 0.036205001
2246 0.045686178
2244 0.047804695
2242 0.02998466
2240 0.0063935602
2238 0.0032850562
2236 0.065090418
2234 0.22185433
2232 0.42499074
2230 0.61152565
2228 0.75194865
2226 0.83623749
2224 0.89304161
2222 0.9535147
2220 1.0137281
2218 1.0597761
2216 1.0809686
2214 1.0724033
2212 1.0491461
2210 1.0290225
2208 1.0167418
2206 1.0135671
2204 1.0236771
2202 1.0501469
2200 1.0883257
2198 1.1296879
2196 1.1591572
2194 1.1642596
2192 1.1506143
2190 1.1291658
2188 1.1123651
2186 1.1119293
2184 1.1370239
2182 1.1929364
2180 1.2722638
2178 1.3627878
2176 1.4476657
2174 1.5125926
2172 1.5578383
2170 1.588636
2168 1.6113794
2166 1.6326314
2164 1.6593261
2162 1.6957203
2160 1.7349629
2158 1.7646711
2156 1.76525
2154 1.7221382
2152 1.650732
2150 1.5771754
2148 1.5292572
2146 1.5271786
2144 1.5603045
2142 1.608711
2140 1.659606
2138 1.7059312
2136 1.7521971
2134 1.8044556
2132 1.8593338
2130 1.9097832
2128 1.950284
2126 1.9798635
2124 2.0139999
2122 2.0706677
2120 2.1532011
2118 2.252857
2116 2.3352528
2114 2.3650751
2112 2.3415086
2110 2.2820897
2108 2.2244275
2106 2.2059963
2104 2.235708
2102 2.3084083
2100 2.406934
2098 2.5114357
2096 2.6071286
2094 2.6825538
2092 2.7311013
2090 2.7482607
2088 2.7313685
2086 2.6816049
2084 2.6120481
2082 2.5414612
2080 2.4912052
2078 2.4798629
2076 2.5105386
2074 2.578918
2072 2.6756241
2070 2.7868941
2068 2.8873239
2066 2.9492643
2064 2.9549627
2062 2.8997478
2060 2.8159668
2058 2.7472501
2056 2.7192972
2054 2.7416897
2052 2.7904499
2050 2.8322418
2048 2.8522012
2046 2.8471143
2044 2.8275239
2042 2.8061645
2040 2.7826886
2038 2.7517893
2036 2.7121699
2034 2.6673524
2032 2.6312113
2030 2.6193728
2028 2.6350801
2026 2.6742914
2024 2.7269337
2022 2.7818356
2020 2.8332245
2018 2.8759785
2016 2.8965001
2014 2.880594
2012 2.8274932
2010 2.7466891
2008 2.6635714
2006 2.6051335
2004 2.577126
2002 2.5724421
2000 2.5724788
1998 2.5572295
1996 2.5195501
1994 2.4623234
1992 2.4036942
1990 2.3673444
1988 2.372478
1986 2.4306893
1984 2.5310862
1982 2.6508904
1980 2.7627423
1978 2.8424821
1976 2.8876286
1974 2.9079809
1972 2.9194162
1970 2.934381
1968 2.9417224
1966 2.920712
1964 2.8597372
1962 2.7583053
1960 2.639992
1958 2.5371909
1956 2.4691043
1954 2.4438422
1952 2.4543297
1950 2.4850996
1948 2.5163178
1946 2.528075
1944 2.5075669
1942 2.4502161
1940 2.371182
1938 2.2953694
1936 2.2468114
1934 2.2436919
1932 2.2844579
1930 2.3555086
1928 2.4369354
1926 2.5094643
1924 2.567131
1922 2.6110075
1920 2.6398664
1918 2.650223
1916 2.6360085
1914 2.5917342
1912 2.5187349
1910 2.4249682
1908 2.328378
1906 2.252382
1904 2.220412
1902 2.24752
1900 2.315105
1898 2.3850393
1896 2.4169858
1894 2.3806117
1892 2.2874215
1890 2.1731172
1888 2.0751159
1886 2.0225649
1884 2.0140288
1882 2.030283
1880 2.051249
1878 2.0588028
1876 2.0383301
1874 1.9803301
1872 1.8895555
1870 1.7817279
1868 1.6844811
1866 1.6266686
1864 1.6130543
1862 1.632082
1860 1.6668657
1858 1.7013069
1856 1.7310057
1854 1.7583756
1852 1.7821276
1850 1.7971045
1848 1.792572
1846 1.7560607
1844 1.6806051
1842 1.5661167
1840 1.4265891
1838 1.283487
1836 1.1541457
1834 1.053032
1832 0.99757367
1830 1.0036367
1828 1.070318
1826 1.1804086
1824 1.2932874
1822 1.3610855
1820 1.365352
1818 1.3117511
1816 1.2205313
1814 1.1167532
1812 1.0148621
1810 0.92244786
1808 0.85087287
1806 0.81238598
1804 0.8081162
1802 0.83081496
1800 0.87055719
1798 0.91500074
1796 0.9446193
1794 0.9399004
1792 0.90300238
1790 0.85461372
1788 0.82997805
1786 0.86078823
1784 0.92568797
1782 0.97118628
1780 0.96888113
1778 0.91298962
1776 0.79960573
1774 0.62705374
1772 0.41085237
1770 0.18332458
1768 -0.0025231652
1766 -0.091669232
1764 -0.079916
1762 -0.010748776
1760 0.02800924
1758 -0.051780831
1756 -0.21606085
1754 -0.35146251
1752 -0.40395698
1750 -0.38400942
1748 -0.3423028
1746 -0.34357536
1744 -0.41635314
1742 -0.54905176
1740 -0.68239504
1738 -0.73765737
1736 -0.69130802
1734 -0.57252407
1732 -0.44233128
1730 -0.36662433
1728 -0.35250297
1726 -0.35854715
1724 -0.337392
1722 -0.24375871
1720 -0.031104542
1718 0.344336
1716 0.90717399
1714 1.6485906
1712 2.4732606
1710 3.2445731
1708 3.9398038
1706 4.6522732
1704 5.5528045
1702 6.8619976
1700 8.8176651
1698 11.583652
1696 14.940143
1694 18.38587
1692 21.542322
1690 24.24999
1688 26.692978
1686 29.295557
1684 32.403145
1682 36.160839
1680 40.249882
1678 44.071507
1676 47.440857
1674 50.599609
1672 53.902622
1670 57.665356
1668 61.880154
1666 66.270599
1664 70.598946
1662 74.717209
1660 78.525673
1658 81.96627
1656 85.054718
1654 87.863396
1652 90.449295
1650 92.807175
1648 94.744247
1646 95.95607
1644 96.363922
1642 96.109184
1640 95.299156
1638 93.959831
1636 92.071815
1634 89.612793
1632 86.680824
1630 83.466614
1628 80.050499
1626 76.395355
1624 72.484276
1622 68.354477
1620 64.110802
1618 59.904144
1616 55.842628
1614 51.985786
1612 48.400711
1610 45.15836
1608 42.276737
1606 39.724335
1604 37.471424
1602 35.500626
1600 33.795486
1598 32.334072
1596 31.074001
1594 29.957514
1592 28.951727
1590 28.058079
1588 27.31423
1586 26.780449
1584 26.482542
1582 26.402269
1580 26.505363
1578 26.753963
1576 27.119486
1574 27.583469
1572 28.126091
1570 28.725893
1568 29.37352
1566 30.070486
1564 30.809196
1562 31.606028
1560 32.651291
1558 34.263824
1556 36.500229
1554 39.08149
1552 41.598015
1550 43.63567
1548 45.099773
1546 46.233788
1544 47.232178
1542 48.148132
1540 48.962318
1538 49.60054
1536 49.964657
1534 49.965111
1532 49.632122
1530 49.113605
1528 48.493385
1526 47.74535
1524 46.78215
1522 45.49284
1520 43.855812
1518 41.968315
1516 39.986584
1514 38.066917
1512 36.174561
1510 34.071533
1508 31.608643
1506 28.825485
1504 25.958908
1502 23.384428
1500 21.246912
1498 19.378441
1496 17.567572
1494 15.647472
1492 13.558497
1490 11.363419
1488 9.1476574
1486 6.998538
1484 5.0206518
1482 3.3286636
1480 1.973244
1478 0.94173324
1476 0.31095272
1474 0.25317442
1472 0.7755084
1470 1.655661
1468 2.6678104
1466 3.6587558
1464 4.5634141
1462 5.3930368
1460 6.0811915
1458 6.4586892
1456 6.4429598
1454 6.1082883
1452 5.6321402
1450 5.2523708
1448 5.0520358
1446 4.9029536
1444 4.7043362
1442 4.4516101
1440 4.1521659
1438 3.7999465
1436 3.3767357
1434 2.8596451
1432 2.2665281
1430 1.669729
1428 1.1387466
1426 0.71959269
1424 0.43709478
1422 0.29353231
1420 0.28530037
1418 0.40568811
1416 0.63779026
1414 0.95149899
1412 1.3151577
1410 1.7007959
1408 2.0910504
1406 2.4817898
1404 2.8674052
1402 3.2348554
1400 3.563328
1398 3.8256283
1396 4.0065928
1394 4.1124744
1392 4.1612549
1390 4.1790876
1388 4.181107
1386 4.164165
1384 4.124094
1382 4.0610189
1380 3.9721828
1378 3.8496392
1376 3.6859598
1374 3.4786961
1372 3.2397521
1370 2.9971712
1368 2.7592652
1366 2.4988737
1364 2.1823492
1362 1.7854836
1360 1.3264583
1358 0.88245368
1356 0.52139997
1354 0.27142054
1352 0.12341938
1350 0.027072828
1348 -0.05718777
1346 -0.13608
1344 -0.2030988
1342 -0.24434985
1340 -0.25636014
1338 -0.25405347
1336 -0.25003713
1334 -0.24545704
1332 -0.23323101
1330 -0.1982609
1328 -0.13119927
1326 -0.034514796
1324 0.090531975
1322 0.24841253
1320 0.44039065
1318 0.65896893
1316 0.88734001
1314 1.0975372
1312 1.2668332
1310 1.386633
1308 1.4571891
1306 1.4888043
1304 1.4957172
1302 1.495373
1300 1.5059935
1298 1.5443356
1296 1.6175715
1294 1.7161293
1292 1.8245677
1290 1.9257064
1288 2.010412
1286 2.0847292
1284 2.1582725
1282 2.2398899
1280 2.3328171
1278 2.4311764
1276 2.5282328
1274 2.6202059
1272 2.709116
1270 2.8065934
1268 2.928776
1266 3.095247
1264 3.3229897
1262 3.6216855
1260 3.9954319
1258 4.4403706
1256 4.950314
1254 5.5177674
1252 6.1344314
1250 6.7904692
1248 7.4744725
1246 8.1722755
1244 8.8664045
1242 9.5339355
1240 10.151812
1238 10.699723
1236 11.164144
1234 11.54305
1232 11.835279
1230 12.033106
1228 12.130507
1226 12.125436
1224 12.020532
1222 11.823759
1220 11.540537
1218 11.168571
1216 10.709686
1214 10.173394
1212 9.5747042
1210 8.9297705
1208 8.2547836
1206 7.563364
1204 6.8697357
1202 6.1899366
1200 5.5345631
1198 4.9015298
1196 4.2862573
1194 3.684931
1192 3.0991778
1190 2.540663
1188 2.020751
1186 1.5449471
1184 1.118325
1182 0.74861085
1180 0.44630539
1178 0.22652194
1176 0.099149004
1174 0.059358761
1172 0.090165243
1170 0.15594581
1168 0.2198396
1166 0.25328556
1164 0.23975188
1162 0.1855233
1160 0.10453938
1158 0.015574638
1156 -0.06421797
1154 -0.12441379
1152 -0.16050766
1150 -0.17760499
1148 -0.1812526
1146 -0.17234786
1144 -0.14800692
1142 -0.10000944
1140 -0.026423533
1138 0.058747128
1136 0.15291658
1134 0.28866309
1132 0.50043905
1130 0.80574328
1128 1.2051966
1126 1.6687272
1124 2.1613727
1122 2.6547306
1120 3.1274319
1118 3.5717878
1116 3.9819443
1114 4.3495789
1112 4.6773767
1110 4.9955297
1108 5.3379974
1106 5.7294502
1104 6.1754422
1102 6.6395555
1100 7.0834274
1098 7.4918356
1096 7.8640141
1094 8.2223215
1092 8.5888443
1090 8.9696207
1088 9.3594685
1086 9.7340193
1084 10.067138
1082 10.341963
1080 10.554525
1078 10.73236
1076 10.906943
1074 11.105497
1072 11.339931
1070 11.59245
1068 11.830834
1066 12.013386
1064 12.102039
1062 12.080535
1060 11.947931
1058 11.7266
1056 11.442314
1054 11.12008
1052 10.785006
1050 10.45535
1048 10.141397
1046 9.8305397
1044 9.4987535
1042 9.1077738
1040 8.6344624
1038 8.1095428
1036 7.57651
1034 7.0773358
1032 6.6365657
1030 6.2299719
1028 5.8326416
1026 5.4526701
1024 5.1060143
1022 4.8059139
1020 4.5517292
1018 4.3036575
1016 4.0260253
1014 3.7253423
1012 3.4225318
1010 3.1499703
1008 2.9270802
1006 2.7247365
1004 2.5063291
1002 2.2507765
1000 1.9507766
998 1.6310083
996 1.3185786
994 1.0249391
992 0.75425476
990 0.50104076
988 0.26051742
986 0.037952796
984 -0.15601914
982 -0.30140299
980 -0.37659338
978 -0.36256698
976 -0.24838135
974 -0.047860831
972 0.21510029
970 0.50358683
968 0.78146213
966 1.026225
964 1.221804
962 1.3631438
960 1.4483309
958 1.4771194
956 1.45056
954 1.37298
952 1.2444479
950 1.0481195
948 0.78165126
946 0.50833714
944 0.2715492
942 -0.013108671
940 -0.4116323
938 -0.81054688
936 -1.0857886
934 -1.2365336
932 -1.2910115
930 -1.2708194
928 -1.2016521
926 -1.1306129
924 -1.104704
922 -1.1513939
920 -1.2809119
918 -1.4564192
916 -1.6352857
914 -1.7946739
912 -1.9245601
910 -2.043514
908 -2.1749473
906 -2.3321657
904 -2.5232806
902 -2.7471645
900 -2.9951952
898 -3.2380905
896 -3.4412999
