##TITLE=Methyl Ethyl Ketone
##JCAMP-DX=4.24
##DATA TYPE=INFRARED SPECTRUM
##XUNITS=cm-1
##YUNITS=Absorbance
##FIRSTX=900
##LASTX=2300
##XYDATA=(X++(Y..Y))
2296 -0.057930999
2294 -0.059136275
2292 -0.060341552
2290 -0.061546825
2288 -0.062752098
2286 -0.063957378
2284 -0.065162651
2282 -0.066367932
2280 -0.067573212
2278 -0.068777494
2276 -0.069983743
2274 -0.071190014
2272 -0.072393343
2270 -0.073592693
2268 -0.07480374
2266 -0.0760336
2264 -0.077214986
2262 -0.078330897
2260 -0.079622619
2258 -0.081161983
2256 -0.082045257
2254 -0.082005009
2252 -0.084406026
2250 -0.090248168
2248 -0.087018609
2246 -0.060191106
2244 -0.0021989315
2242 0.081084006
2240 0.13760068
2238 0.12071567
2236 0.058048043
2234 -0.0059571499
2232 -0.044856489
2230 -0.043248046
2228 -0.0085576549
2226 0.044595245
2224 0.099035084
2222 0.13946052
2220 0.16080528
2218 0.16438402
2216 0.16510515
2214 0.18069239
2212 0.2241668
2210 0.30371144
2208 0.41388744
2206 0.54110444
2204 0.65529865
2202 0.72857237
2200 0.7620818
2198 0.76887792
2196 0.77371502
2194 0.79880548
2192 0.84174067
2190 0.8958565
2188 0.96889287
2186 1.0703404
2184 1.197824
2182 1.3398314
2180 1.4637582
2178 1.538641
2176 1.5673656
2174 1.5673091
2172 1.5695609
2170 1.602196
2168 1.6620948
2166 1.7342936
2164 1.7985222
2162 1.8378682
2160 1.8568388
2158 1.8666128
2156 1.87767
2154 1.8991077
2152 1.9382726
2150 2.0011692
2148 2.0916157
2146 2.2098036
2144 2.3436778
2142 2.477571
2140 2.5983064
2138 2.6928623
2136 2.7444742
2134 2.7382159
2132 2.6718099
2130 2.5571642
2128 2.4431961
2126 2.3846173
2124 2.403223
2122 2.4978619
2120 2.6219218
2118 2.7221308
2116 2.7845943
2114 2.814446
2112 2.8353453
2110 2.8727725
2108 2.9345446
2106 3.0179744
2104 3.1039057
2102 3.171176
2100 3.2162199
2098 3.2454531
2096 3.2787001
2094 3.3356273
2092 3.4132555
2090 3.4989426
2088 3.5776005
2086 3.6361899
2084 3.673521
2082 3.6932709
2080 3.7009742
2078 3.7021532
2076 3.7022843
2074 3.7058342
2072 3.713892
2070 3.7263691
2068 3.744071
2066 3.7694972
2064 3.8096075
2062 3.8705025
2060 3.9483132
2058 4.0337782
2056 4.1132941
2054 4.1742606
2052 4.2154121
2050 4.2407937
2048 4.255744
2046 4.2668071
2044 4.282804
2042 4.3114395
2040 4.3519106
2038 4.3986912
2036 4.4428401
2034 4.4771552
2032 4.5077863
2030 4.5442801
2028 4.5845704
2026 4.6206498
2024 4.6406941
2022 4.6355357
2020 4.6128664
2018 4.5873637
2016 4.5723
2014 4.5769072
2012 4.5986285
2010 4.6308341
2008 4.6708422
2006 4.7171402
2004 4.7629309
2002 4.7978377
2000 4.8070445
1998 4.7767653
1996 4.705307
1994 4.6010442
1992 4.4899678
1990 4.4043794
1988 4.3701959
1986 4.40028
1984 4.4682527
1982 4.5311327
1980 4.5543332
1978 4.5172434
1976 4.4364572
1974 4.3457761
1972 4.2764568
1970 4.2516971
1968 4.2719541
1966 4.3255687
1964 4.3978772
1962 4.473845
1960 4.5402598
1958 4.5852361
1956 4.5980315
1954 4.5729523
1952 4.5241456
1950 4.4756908
1948 4.4511752
1946 4.4666247
1944 4.5111527
1942 4.5599122
1940 4.5872383
1938 4.576026
1936 4.5423942
1934 4.5165367
1932 4.516376
1930 4.5434113
1928 4.5633569
1926 4.5311027
1924 4.4349055
1922 4.2893019
1920 4.1386561
1918 4.034122
1916 3.9935887
1914 4.0114684
1912 4.0652766
1910 4.1280475
1908 4.1879315
1906 4.2435179
1904 4.3002439
1902 4.3633227
1900 4.4248004
1898 4.4674225
1896 4.4670286
1894 4.4019217
1892 4.2757368
1890 4.1118121
1888 3.9558394
1886 3.8560822
1884 3.8225672
1882 3.8383722
1880 3.8697834
1878 3.8787284
1876 3.8396201
1874 3.7392414
1872 3.5817275
1870 3.3872831
1868 3.2047024
1866 3.0895891
1864 3.0565686
1862 3.0879791
1860 3.1386614
1858 3.156899
1856 3.1234772
1854 3.0398874
1852 2.9041913
1850 2.7122593
1848 2.470032
1846 2.1970572
1844 1.9453691
1842 1.7756244
1840 1.700892
1838 1.6960564
1836 1.7065743
1834 1.673689
1832 1.5859001
1830 1.4678406
1828 1.3641224
1826 1.3202121
1824 1.3438938
1822 1.4142308
1820 1.4961901
1818 1.5516918
1816 1.5577543
1814 1.5077623
1812 1.420138
1810 1.3278735
1808 1.2603503
1806 1.23245
1804 1.2128532
1802 1.1441274
1800 0.98780727
1798 0.7372731
1796 0.45560572
1794 0.24644011
1792 0.1927212
1790 0.33410501
1788 0.60250312
1786 0.86641312
1784 1.0307641
1782 1.0474935
1780 0.92718285
1778 0.71665221
1776 0.46193483
1774 0.20574306
1772 -0.0006268099
1770 -0.10868739
1768 -0.11365703
1766 -0.047520421
1764 0.035377055
1762 0.07393866
1760 0.030206662
1758 -0.10634001
1756 -0.303774
1754 -0.51262498
1752 -0.73319244
1750 -0.99893546
1748 -1.3110679
1746 -1.6368643
1744 -1.9218829
1742 -2.109767
1740 -2.1902759
1738 -2.1864324
1736 -2.1087599
1734 -1.9541664
1732 -1.7226096
1730 -1.4233525
1728 -1.0887127
1726 -0.7643894
1724 -0.48101029
1722 -0.24822539
1720 -0.04257806
1718 0.18951854
1716 0.53290558
1714 1.0660356
1712 1.7400028
1710 2.4218218
1708 3.06672
1706 3.7315199
1704 4.5509825
1702 5.7330132
1700 7.5999761
1698 10.456469
1696 14.128285
1694 18.05439
1692 21.735842
1690 24.885908
1688 27.67757
1686 30.631165
1684 34.222412
1682 38.692577
1680 43.621002
1678 48.174435
1676 52.084373
1674 55.669781
1672 59.389629
1670 63.628967
1668 68.313026
1666 73.003098
1664 77.391159
1662 81.367294
1660 84.908691
1658 88.033379
1656 90.751144
1654 93.057831
1652 94.958801
1650 96.454987
1648 97.476898
1646 97.913605
1644 97.750259
1642 97.052841
1640 95.824638
1638 93.999222
1636 91.519997
1634 88.386627
1632 84.754402
1630 80.88456
1628 76.905792
1626 72.799339
1624 68.534996
1622 64.119652
1620 59.648922
1618 55.289383
1616 51.176201
1614 47.392048
1612 43.98827
1610 40.988472
1608 38.363407
1606 36.042343
1604 33.978893
1602 32.160717
1600 30.588354
1598 29.265787
1596 28.187
1594 27.334064
1592 26.687067
1590 26.227091
1588 25.931257
1586 25.770222
1584 25.701309
1582 25.678101
1580 25.695963
1578 25.800865
1576 26.081257
1574 26.64395
1572 27.521791
1570 28.655859
1568 29.926481
1566 31.177286
1564 32.297798
1562 33.284317
1560 34.384407
1558 36.04076
1556 38.441685
1554 41.404541
1552 44.453606
1550 46.956177
1548 48.685562
1546 49.878963
1544 50.723965
1542 51.246574
1540 51.444118
1538 51.323933
1536 50.92754
1534 50.328011
1532 49.582302
1530 48.715843
1528 47.714943
1526 46.532452
1524 45.142899
1522 43.562248
1520 41.857563
1518 40.139381
1516 38.475258
1514 36.848236
1512 35.11412
1510 33.024902
1508 30.457575
1506 27.493549
1504 24.396297
1502 21.551765
1500 19.133995
1498 17.02673
1496 15.065
1494 13.11184
1492 11.122167
1490 9.1544247
1488 7.276978
1486 5.5461712
1484 4.0201817
1482 2.7524693
1480 1.7421137
1478 0.93910885
1476 0.37610972
1474 0.18348724
1472 0.40402621
1470 0.93761349
1468 1.6348451
1466 2.3356016
1464 2.9482801
1462 3.4736233
1460 3.9339106
1458 4.3564086
1456 4.7832198
1454 5.2631097
1452 5.7849393
1450 6.2611465
1448 6.614779
1446 6.8081965
1444 6.8311772
1442 6.6971402
1440 6.4168839
1438 5.9929152
1436 5.4379659
1434 4.7847996
1432 4.089395
1430 3.4275122
1428 2.8474059
1426 2.3549449
1424 1.9563851
1422 1.6736826
1420 1.5445963
1418 1.6165795
1416 1.8980571
1414 2.3369291
1412 2.8570018
1410 3.3738377
1408 3.8402052
1406 4.2635255
1404 4.6560626
1402 5.018806
1400 5.3459358
1398 5.6278582
1396 5.8679214
1394 6.0864315
1392 6.2897806
1390 6.4579301
1388 6.5648856
1386 6.5865951
1384 6.5112062
1382 6.342135
1380 6.0742311
1378 5.6881723
1376 5.1829829
1374 4.5937119
1372 3.9823759
1370 3.4305053
1368 2.9705091
1366 2.5537071
1364 2.1212237
1362 1.6345533
1360 1.1089381
1358 0.63103783
1356 0.27459729
1354 0.064246781
1352 -0.0060043121
1350 0.027890194
1348 0.13055122
1346 0.27558535
1344 0.42337799
1342 0.51629949
1340 0.53042775
1338 0.50377643
1336 0.49347427
1334 0.55711925
1332 0.70458186
1330 0.87069368
1328 0.99351054
1326 1.0480599
1324 1.0402172
1322 1.011537
1320 0.99986124
1318 1.0223125
1316 1.08147
1314 1.163661
1312 1.2533269
1310 1.3379856
1308 1.4075445
1306 1.4555492
1304 1.4817131
1302 1.495361
1300 1.5097948
1298 1.5403413
1296 1.5965999
1294 1.6777326
1292 1.7801114
1290 1.9006736
1288 2.0393319
1286 2.2010887
1284 2.3899398
1282 2.6047382
1280 2.8389401
1278 3.078294
1276 3.3066971
1274 3.5095758
1272 3.6824269
1270 3.839668
1268 4.0052056
1266 4.2118397
1264 4.487988
1262 4.8490882
1260 5.300396
1258 5.8325934
1256 6.4299083
1254 7.0710411
1252 7.7391381
1250 8.4289932
1248 9.1408463
1246 9.8788252
1244 10.636417
1242 11.383943
1240 12.079817
1238 12.669501
1236 13.1112
1234 13.394352
1232 13.52304
1230 13.514666
1228 13.381983
1226 13.118021
1224 12.718155
1222 12.18793
1220 11.546148
1218 10.82858
1216 10.073531
1214 9.3160467
1212 8.586051
1210 7.9121728
1208 7.3157187
1206 6.8033237
1204 6.3633299
1202 5.9537086
1200 5.526473
1198 5.0393214
1196 4.4705286
1194 3.8395951
1192 3.1800337
1190 2.53337
1188 1.9333428
1186 1.3931593
1184 0.92390132
1182 0.54206038
1180 0.26253927
1178 0.092886396
1176 0.026134599
1174 0.028451575
1172 0.067260161
1170 0.12727009
1168 0.20187041
1166 0.29327115
1164 0.39456519
1162 0.47468618
1160 0.50339955
1158 0.46674007
1156 0.36601886
1154 0.22833133
1152 0.084350996
1150 -0.041432843
1148 -0.1301766
1146 -0.17313857
1144 -0.16787726
1142 -0.12122513
1140 -0.043521669
1138 0.052514486
1136 0.15939572
1134 0.28288081
1132 0.42813393
1130 0.5923574
1128 0.77890313
1126 1.0095015
1124 1.30176
1122 1.6518732
1120 2.0437679
1118 2.444612
1116 2.8194714
1114 3.1395054
1112 3.3865058
1110 3.566411
1108 3.7033184
1106 3.8503201
1104 4.0565491
1102 4.3426924
1100 4.7145314
1098 5.1579018
1096 5.6538715
1094 6.183609
1092 6.7240977
1090 7.242063
1088 7.708003
1086 8.1104851
1084 8.4502678
1082 8.7493715
1080 9.0308619
1078 9.3057947
1076 9.5729218
1074 9.8053474
1072 9.9753752
1070 10.070729
1068 10.096386
1066 10.092121
1064 10.093841
1062 10.098933
1060 10.079824
1058 9.9673653
1056 9.7070169
1054 9.3046875
1052 8.7988758
1050 8.2747021
1048 7.8149109
1046 7.4614286
1044 7.229238
1042 7.0854192
1040 6.9854436
1038 6.8853536
1036 6.7505302
1034 6.5712395
1032 6.3418341
1030 6.0505972
1028 5.6883383
1026 5.2590218
1024 4.7802763
1022 4.30129
1020 3.86832
1018 3.4963412
1016 3.1850686
1014 2.9107318
1012 2.6461055
1010 2.3703983
1008 2.066968
1006 1.7266908
1004 1.35264
1002 0.97748852
1000 0.63320792
998 0.32555753
996 0.053796217
994 -0.18239881
992 -0.37766486
990 -0.50955778
988 -0.56642747
986 -0.58441573
984 -0.60209525
982 -0.62714714
980 -0.6467942
978 -0.60729474
976 -0.46490285
974 -0.24252927
972 0.01693894
970 0.25962663
968 0.44502914
966 0.58662051
964 0.7064876
962 0.81043196
960 0.89538962
958 0.94210643
956 0.93467546
954 0.88256907
952 0.79536361
950 0.66161823
948 0.47700316
946 0.28057104
944 0.1150552
942 -0.0016524531
940 -0.047906667
938 0.032757446
936 0.27306199
934 0.58832479
932 0.87402725
930 1.0603731
928 1.106092
926 1.0433234
924 0.92315143
922 0.79846925
920 0.70368034
918 0.60153711
916 0.44808686
914 0.24203169
912 0.011576533
910 -0.1429542
908 -0.13321379
906 0.012514278
904 0.23388126
902 0.45933357
900 0.63958949
898 0.82474923
896 1.0898
