##TITLE=Methyl Ethyl Ketone
##JCAMP-DX=4.24
##DATA TYPE=INFRARED SPECTRUM
##XUNITS=cm-1
##YUNITS=Absorbance
##FIRSTX=900
##LASTX=2300
##XYDATA=(X++(Y..Y))
2296 -0.010933
2294 -0.011160674
2292 -0.011388349
2290 -0.011616023
2288 -0.011843697
2286 -0.012070378
2284 -0.012298046
2282 -0.012525721
2280 -0.012753394
2278 -0.012980081
2276 -0.013207743
2274 -0.013437386
2272 -0.013663126
2270 -0.013883895
2268 -0.01411732
2266 -0.0143686
2264 -0.014573337
2262 -0.0147146
2260 -0.015025875
2258 -0.01557199
2256 -0.015491799
2254 -0.01453064
2252 -0.015899617
2250 -0.020552469
2248 -0.016547738
2246 0.0049771531
2244 0.026082393
2242 0.025867075
2240 0.0017886384
2238 -0.042485788
2236 -0.099376395
2234 -0.16181107
2232 -0.22901383
2230 -0.30018166
2228 -0.36694369
2226 -0.41688201
2224 -0.43009681
2222 -0.3880775
2220 -0.28684449
2218 -0.13348371
2216 0.037566431
2214 0.18752252
2212 0.29284382
2210 0.34048548
2208 0.34100708
2206 0.31184351
2204 0.26946083
2202 0.23218824
2200 0.22747457
2198 0.2775951
2196 0.37235215
2194 0.4846178
2192 0.55985618
2190 0.54945248
2188 0.46343249
2186 0.33625099
2184 0.22542641
2182 0.18238054
2180 0.20513006
2178 0.27205449
2176 0.35246858
2174 0.41980812
2172 0.47476891
2170 0.52688819
2168 0.5850758
2166 0.65475827
2164 0.72912365
2162 0.79641443
2160 0.84145033
2158 0.85186595
2156 0.83090496
2154 0.78911561
2152 0.74483687
2150 0.71615738
2148 0.70974606
2146 0.72727537
2144 0.76643318
2142 0.8233788
2140 0.89338398
2138 0.9707157
2136 1.0466417
2134 1.1110984
2132 1.1522135
2130 1.1601375
2128 1.1346401
2126 1.0816364
2124 1.0190136
2122 0.96628457
2120 0.93266726
2118 0.92183697
2116 0.92998004
2114 0.94960868
2112 0.96887761
2110 0.97549027
2108 0.96165395
2106 0.92428547
2104 0.87279701
2102 0.82066125
2100 0.77887797
2098 0.75679117
2096 0.76134861
2094 0.79591578
2092 0.85247248
2090 0.91676629
2088 0.96674323
2086 0.98205203
2084 0.96137929
2082 0.91184527
2080 0.84386182
2078 0.76751941
2076 0.68734717
2074 0.60673833
2072 0.53384644
2070 0.47733518
2068 0.43961951
2066 0.42097464
2064 0.42387623
2062 0.45116168
2060 0.50289685
2058 0.5738728
2056 0.6417374
2054 0.68160719
2052 0.68773991
2050 0.66683495
2048 0.642317
2046 0.63921571
2044 0.66121
2042 0.70038456
2040 0.74006653
2038 0.76236331
2036 0.7580117
2034 0.72387201
2032 0.6659897
2030 0.59535867
2028 0.52772152
2026 0.47814199
2024 0.4508408
2022 0.44202077
2020 0.43493858
2018 0.410467
2016 0.36277798
2014 0.29566929
2012 0.2269292
2010 0.17505077
2008 0.13606822
2006 0.096620008
2004 0.048675254
2002 -0.0089445887
2000 -0.061551735
1998 -0.092621177
1996 -0.10846743
1994 -0.12617575
1992 -0.16111457
1990 -0.22055663
1988 -0.2836414
1986 -0.32118198
1984 -0.32515004
1982 -0.30208701
1980 -0.27356735
1978 -0.26292565
1976 -0.27287573
1974 -0.29392311
1972 -0.30924985
1970 -0.30314866
1968 -0.27714822
1966 -0.24326707
1964 -0.2211794
1962 -0.22920753
1960 -0.2661376
1958 -0.3199096
1956 -0.37497944
1954 -0.41723943
1952 -0.44307098
1950 -0.4553864
1948 -0.46171269
1946 -0.4707675
1944 -0.48798954
1942 -0.51475644
1940 -0.54286593
1938 -0.56169713
1936 -0.5712074
1934 -0.57759303
1932 -0.58838779
1930 -0.60818142
1928 -0.62766242
1926 -0.63332194
1924 -0.62566501
1922 -0.61406898
1920 -0.61112404
1918 -0.62554723
1916 -0.64451075
1914 -0.6469605
1912 -0.62763846
1910 -0.59249908
1908 -0.5541541
1906 -0.52459645
1904 -0.50063801
1902 -0.47206673
1900 -0.43590039
1898 -0.39647868
1896 -0.36898714
1894 -0.37200388
1892 -0.41395256
1890 -0.4921414
1888 -0.58274311
1886 -0.6529876
1884 -0.68151808
1882 -0.6593132
1880 -0.59795195
1878 -0.51885509
1876 -0.43707898
1874 -0.36079094
1872 -0.2888383
1870 -0.21831171
1868 -0.16080102
1866 -0.13542478
1864 -0.15416852
1862 -0.218713
1860 -0.30798721
1858 -0.39093402
1856 -0.45092857
1854 -0.48383394
1852 -0.49596271
1850 -0.49795142
1848 -0.49575439
1846 -0.49135393
1844 -0.48430577
1842 -0.4731622
1840 -0.45711839
1838 -0.43556479
1836 -0.40639758
1834 -0.36739832
1832 -0.32031584
1830 -0.27051282
1828 -0.22784385
1826 -0.20319821
1824 -0.20051509
1822 -0.21783231
1820 -0.2479932
1818 -0.28193948
1816 -0.31471771
1814 -0.34511605
1812 -0.37526882
1810 -0.40698564
1808 -0.43219361
1806 -0.43904251
1804 -0.429176
1802 -0.4137463
1800 -0.40268078
1798 -0.39992481
1796 -0.39136857
1794 -0.35589254
1792 -0.2948688
1790 -0.22566518
1788 -0.16210125
1786 -0.11144134
1784 -0.071630612
1782 -0.035238739
1780 0.0029231887
1778 0.04527856
1776 0.092118308
1774 0.14057779
1772 0.17888431
1770 0.19085139
1768 0.16813914
1766 0.11483257
1764 0.062792018
1762 0.045673579
1760 0.017947506
1758 -0.10365054
1756 -0.30204856
1754 -0.49011022
1752 -0.62971878
1750 -0.73139954
1748 -0.8145389
1746 -0.89724535
1744 -0.9912951
1742 -1.0988029
1740 -1.1981997
1738 -1.2537863
1736 -1.24282
1734 -1.1612966
1732 -1.0349003
1730 -0.90555459
1728 -0.79367054
1726 -0.69331849
1724 -0.56666291
1722 -0.35418189
1720 0.0039369166
1718 0.54928493
1716 1.2520852
1714 2.0235631
1712 2.756001
1710 3.364867
1708 3.905566
1706 4.5501122
1704 5.4968829
1702 6.9559469
1700 9.1734209
1698 12.32611
1696 16.135143
1694 19.98521
1692 23.430368
1690 26.309885
1688 28.882217
1686 31.684193
1684 35.103775
1682 39.241165
1680 43.652279
1678 47.589947
1676 50.869156
1674 53.857693
1672 56.999588
1670 60.630013
1668 64.694656
1666 68.834999
1664 72.785416
1662 76.432449
1660 79.741455
1658 82.731476
1656 85.467232
1654 88.035614
1652 90.477516
1650 92.75116
1648 94.633011
1646 95.800034
1644 96.178299
1642 95.925308
1640 95.133186
1638 93.779572
1636 91.778786
1634 89.047546
1632 85.699791
1630 82.009338
1628 78.140289
1626 74.11393
1624 69.898003
1622 65.459389
1620 60.871109
1618 56.306034
1616 51.934315
1614 47.8965
1612 44.296463
1610 41.191929
1608 38.555664
1606 36.291435
1604 34.312382
1602 32.560417
1600 31.013365
1598 29.674234
1596 28.539001
1594 27.590731
1592 26.804537
1590 26.153528
1588 25.630606
1586 25.248199
1584 25.014845
1582 24.93647
1580 25.035715
1578 25.349421
1576 25.899372
1574 26.676531
1572 27.620272
1570 28.629612
1568 29.6322
1566 30.600206
1564 31.521044
1562 32.419998
1560 33.494499
1558 35.06736
1556 37.21756
1554 39.7103
1552 42.165871
1550 44.180202
1548 45.661472
1546 46.849678
1544 47.925594
1542 48.912434
1540 49.7495
1538 50.322136
1536 50.535084
1534 50.349438
1532 49.832352
1530 49.142246
1528 48.368828
1526 47.494198
1524 46.461834
1522 45.204556
1520 43.711956
1518 42.048164
1516 40.321842
1514 38.644356
1512 36.965881
1510 35.058105
1508 32.736362
1506 29.955606
1504 26.909309
1502 24.002853
1500 21.467497
1498 19.259199
1496 17.243713
1494 15.262161
1492 13.232454
1490 11.173001
1488 9.1193562
1486 7.1109757
1484 5.227046
1482 3.5830417
1480 2.2367554
1478 1.1788208
1476 0.46651545
1474 0.23119853
1472 0.46993396
1470 0.99486673
1468 1.6184214
1466 2.2183421
1464 2.7596726
1462 3.2986341
1460 3.8890474
1458 4.5452309
1456 5.2150798
1454 5.7790079
1452 6.1482983
1450 6.3011827
1448 6.2672305
1446 6.1212034
1444 5.9257951
1442 5.7105927
1440 5.4760871
1438 5.1908135
1436 4.8045802
1434 4.2627692
1432 3.5728359
1430 2.8281488
1428 2.1362581
1426 1.5902178
1424 1.2377372
1422 1.0667515
1420 1.0482168
1418 1.1486773
1416 1.3376857
1414 1.59196
1412 1.8963922
1410 2.2452192
1408 2.6360223
1406 3.0675242
1404 3.536499
1402 4.0347767
1400 4.544064
1398 5.0331826
1396 5.4685287
1394 5.8193631
1392 6.0685468
1390 6.2176576
1388 6.2706428
1386 6.2288098
1384 6.0932102
1382 5.8669505
1380 5.560143
1378 5.1934938
1376 4.7930255
1374 4.3883309
1372 4.0038018
1370 3.6506267
1368 3.3149903
1366 2.9519751
1364 2.5259814
1362 2.032088
1360 1.5035205
1358 1.0169711
1356 0.62879872
1354 0.34627298
1352 0.15552039
1350 0.02951574
1348 -0.043767493
1346 -0.049450539
1344 0.02379252
1342 0.16948292
1340 0.3628189
1338 0.55731487
1336 0.7104249
1334 0.79688692
1332 0.81312364
1330 0.78444582
1328 0.74121416
1326 0.71105075
1324 0.71913832
1322 0.78613406
1320 0.9228096
1318 1.1231003
1316 1.36465
1314 1.6052676
1312 1.8064103
1310 1.9458481
1308 2.0186939
1306 2.043808
1304 2.043756
1302 2.0381551
1300 2.0428789
1298 2.0677757
1296 2.1187286
1294 2.1970179
1292 2.2997246
1290 2.4189978
1288 2.5480042
1286 2.6836164
1284 2.8250568
1282 2.9739459
1280 3.1309342
1278 3.293849
1276 3.4607072
1274 3.6311798
1272 3.808181
1270 3.9998655
1268 4.2167621
1266 4.4713316
1264 4.7747068
1262 5.1350446
1260 5.5564642
1258 6.0365744
1256 6.5703516
1254 7.1513338
1252 7.7766862
1250 8.4503355
1248 9.1716747
1246 9.9277
1244 10.694672
1242 11.434505
1240 12.110868
1238 12.697853
1236 13.175958
1234 13.537186
1232 13.7804
1230 13.915837
1228 13.94838
1226 13.870929
1224 13.666732
1222 13.312461
1220 12.802902
1218 12.16839
1216 11.454628
1214 10.718776
1212 10.007281
1210 9.3448591
1208 8.7391167
1206 8.1787481
1204 7.6425362
1202 7.1011128
1200 6.5302186
1198 5.9223685
1196 5.2839069
1194 4.6410913
1192 4.0210299
1190 3.442194
1188 2.9150214
1186 2.4383886
1184 2.0126698
1182 1.6479983
1180 1.3579917
1178 1.1581661
1176 1.0516
1174 1.0137447
1172 1.011376
1170 1.0074975
1168 0.97732675
1166 0.92541027
1164 0.86224043
1162 0.79621112
1160 0.73204011
1158 0.66786581
1156 0.60435331
1154 0.55073857
1152 0.51265168
1150 0.48253411
1148 0.44750738
1146 0.39076036
1144 0.30430382
1142 0.20255107
1140 0.10338434
1138 0.020765929
1136 -0.028595401
1134 -0.019960538
1132 0.067168683
1130 0.23795241
1128 0.48766658
1126 0.79667509
1124 1.1420588
1122 1.5019238
1120 1.8570679
1118 2.1949463
1116 2.5084414
1114 2.8000393
1112 3.0733137
1110 3.3288162
1108 3.5651751
1106 3.7784998
1104 3.971792
1102 4.1657677
1100 4.3842154
1098 4.6477489
1096 4.9696569
1094 5.3465877
1092 5.7692223
1090 6.2235918
1088 6.6960931
1086 7.1761713
1084 7.6494198
1082 8.0881767
1080 8.4594212
1078 8.7251997
1076 8.8630486
1074 8.8954849
1072 8.8648119
1070 8.8359985
1068 8.863637
1066 8.9579802
1064 9.103528
1062 9.2433167
1060 9.3220968
1058 9.3167067
1056 9.224597
1054 9.0775366
1052 8.9053278
1050 8.7087154
1048 8.4817019
1046 8.219779
1044 7.9289427
1042 7.6429343
1040 7.3907261
1038 7.1668029
1036 6.9486599
1034 6.6908603
1032 6.3540506
1030 5.9341145
1028 5.441638
1026 4.9061723
1024 4.3633499
1022 3.853363
1020 3.4128268
1018 3.0646262
1016 2.815563
1014 2.6347876
1012 2.4804971
1010 2.307431
1008 2.0820081
1006 1.81027
1004 1.5130515
1002 1.2253156
1000 0.97460181
998 0.75347751
996 0.54292142
994 0.31547922
992 0.050619856
990 -0.24305126
988 -0.54231393
986 -0.80059099
984 -0.97668993
982 -1.0661074
980 -1.07973
978 -1.0492765
976 -1.0015497
974 -0.93050778
972 -0.82286435
970 -0.66768748
968 -0.46130452
966 -0.22256435
964 0.022418827
962 0.24192314
960 0.40954211
958 0.52195716
956 0.58266056
954 0.59891802
952 0.5737344
950 0.49259537
948 0.35232419
946 0.20433179
944 0.093857773
942 -0.0036891997
940 -0.11547628
938 -0.2158094
936 -0.27573088
934 -0.30213407
932 -0.30895087
930 -0.30335385
928 -0.28977183
926 -0.2685532
924 -0.2312984
922 -0.14076604
920 0.034262866
918 0.27505252
916 0.54003227
914 0.74826264
912 0.83026397
910 0.79843128
908 0.69475275
906 0.59656262
904 0.56928891
902 0.5971837
900 0.65409386
898 0.75339603
896 0.91838002
