##TITLE=Methyl Ethyl Ketone
##JCAMP-DX=4.24
##DATA TYPE=INFRARED SPECTRUM
##XUNITS=cm-1
##YUNITS=Absorbance
##FIRSTX=900
##LASTX=2300
##XYDATA=(X++(Y..Y))
2296 0.00091483002
2294 0.00093387277
2292 0.00095285568
2290 0.00097191817
2288 0.00099092128
2286 0.0010100631
2284 0.0010290372
2282 0.00104801
2280 0.0010670817
2278 0.0010861545
2276 0.0011051286
2274 0.0011241998
2272 0.0011431742
2270 0.0011622453
2268 0.0011813181
2266 0.0012002928
2264 0.0012193634
2262 0.0012384361
2260 0.0012574114
2258 0.0012763842
2256 0.0012954542
2254 0.001314527
2252 0.0013335029
2250 0.0013525723
2248 0.0013716451
2246 0.001390525
2244 0.050867423
2242 0.0020356458
2240 -0.080946244
2238 -0.22680202
2236 -0.38174787
2234 -0.36309314
2232 -0.32852954
2230 -0.21836145
2228 -0.11654369
2226 -0.110138
2224 -0.11872046
2222 -0.17360336
2220 -0.22885288
2218 -0.27762899
2216 -0.31874198
2214 -0.34389964
2212 -0.3411746
2210 -0.29449764
2208 -0.20867279
2206 -0.077401176
2204 0.04720702
2202 0.1625922
2200 0.19946371
2198 0.1780903
2196 0.074152999
2194 -0.075149983
2192 -0.23514299
2190 -0.39849725
2188 -0.48671272
2186 -0.5504458
2184 -0.53219277
2182 -0.49543962
2180 -0.46329573
2178 -0.43234697
2176 -0.43036172
2174 -0.42916027
2172 -0.40640011
2170 -0.37974831
2168 -0.34246811
2166 -0.31131029
2164 -0.30625194
2162 -0.30629128
2160 -0.31272128
2158 -0.31567258
2156 -0.310817
2154 -0.30917171
2152 -0.31334731
2150 -0.30778497
2148 -0.29054466
2146 -0.27017036
2144 -0.2481079
2142 -0.2632319
2140 -0.30434608
2138 -0.33314735
2136 -0.35380685
2134 -0.28496575
2132 -0.17878409
2130 -0.038404033
2128 0.11179733
2126 0.17369285
2124 0.21487834
2122 0.13884021
2120 0.042257521
2118 -0.093803264
2116 -0.23492928
2114 -0.37218428
2112 -0.50374544
2110 -0.612643
2108 -0.70303732
2106 -0.74756724
2104 -0.77238178
2102 -0.76855826
2100 -0.75537419
2098 -0.73354268
2096 -0.70466715
2094 -0.66819942
2092 -0.63598818
2090 -0.60933101
2088 -0.59278262
2086 -0.58399802
2084 -0.54765821
2082 -0.49245751
2080 -0.37811869
2078 -0.23394103
2076 -0.10741316
2074 0.010308791
2072 0.031265438
2070 0.02128714
2068 -0.040211048
2066 -0.11369038
2064 -0.19120125
2062 -0.266561
2060 -0.31340137
2058 -0.35057199
2056 -0.365576
2054 -0.37656474
2052 -0.38855371
2050 -0.39173508
2048 -0.3713721
2046 -0.36404857
2044 -0.39089
2042 -0.47111532
2040 -0.62247032
2038 -0.7803601
2036 -0.93022913
2034 -1.0195827
2032 -1.0515703
2030 -1.01196
2028 -0.923778
2026 -0.80273408
2024 -0.66566169
2022 -0.56352037
2020 -0.4807283
2018 -0.48841795
2016 -0.53328198
2014 -0.62133992
2012 -0.72290874
2010 -0.74435067
2008 -0.74298495
2006 -0.71853471
2004 -0.69912022
2002 -0.75584221
2000 -0.83446836
1998 -0.92311037
1996 -1.0049728
1994 -1.0580771
1992 -1.1199034
1990 -1.218538
1988 -1.340848
1986 -1.490235
1984 -1.6083429
1982 -1.6739558
1980 -1.660526
1978 -1.5709453
1976 -1.3930542
1974 -1.148378
1972 -0.82946873
1970 -0.46390158
1968 -0.18980807
1966 0.020707052
1964 -0.052316826
1962 -0.26995751
1960 -0.58720118
1958 -0.94001865
1956 -1.14747
1954 -1.2987747
1952 -1.3581058
1950 -1.3899173
1948 -1.4297606
1946 -1.47795
1944 -1.5580961
1942 -1.6523763
1940 -1.7653401
1938 -1.8776203
1936 -1.9741428
1934 -2.0451775
1932 -2.0730219
1930 -2.0721254
1928 -2.0436418
1926 -1.9745808
1924 -1.8616346
1922 -1.671522
1920 -1.4112554
1918 -1.1709169
1916 -0.96531367
1914 -0.85469013
1912 -0.81040287
1910 -0.8094002
1908 -0.82769513
1906 -0.9300161
1904 -1.0769421
1902 -1.2285354
1900 -1.3803492
1898 -1.3671448
1896 -1.2827286
1894 -1.1149721
1892 -0.92755008
1890 -0.82804132
1888 -0.79561722
1886 -0.90872371
1884 -1.0894951
1882 -1.3116678
1880 -1.5243691
1878 -1.6790824
1876 -1.77789
1874 -1.8084488
1872 -1.7513337
1870 -1.5949144
1868 -1.3899866
1866 -1.1658893
1864 -1.0598606
1862 -1.086711
1860 -1.2280526
1858 -1.4404496
1856 -1.6671771
1854 -1.8913747
1852 -2.0392995
1850 -2.1353703
1848 -2.1384079
1846 -2.0902286
1844 -2.1164048
1842 -2.1831162
1840 -2.2867885
1838 -2.3922746
1836 -2.3556457
1834 -2.235034
1832 -2.0106828
1830 -1.7440406
1828 -1.4942646
1826 -1.3161807
1824 -1.3173783
1822 -1.4745244
1820 -1.80557
1818 -2.1777613
1816 -2.5010571
1814 -2.694977
1812 -2.726686
1810 -2.6414669
1808 -2.4806023
1806 -2.2961202
1804 -2.1111197
1802 -1.9370211
1800 -1.7718965
1798 -1.6117163
1796 -1.4535357
1794 -1.2609531
1792 -1.0451241
1790 -0.80238712
1788 -0.54655707
1786 -0.33669958
1784 -0.15775737
1782 -0.02047953
1780 0.09998773
1778 0.26610339
1776 0.46493655
1774 0.70016259
1772 0.89872211
1770 0.91743457
1768 0.80091494
1766 0.56361157
1764 0.3285898
1762 0.21154644
1760 0.071276516
1758 -0.18876569
1756 -0.41474956
1754 -0.52633607
1752 -0.36672503
1750 0.077205285
1748 0.61082959
1746 1.1457757
1744 1.3453971
1742 1.2225794
1740 1.0613751
1738 0.92550093
1736 1.13762
1734 1.6162392
1732 1.8558228
1730 1.8872337
1728 1.3865166
1726 0.56449741
1724 -0.0087988824
1722 -0.29923481
1720 0.1399405
1718 1.2262046
1716 2.8287129
1714 4.5065212
1712 5.635952
1710 6.3600869
1708 6.8343282
1706 7.4617515
1704 8.6203537
1702 10.555651
1700 13.36204
1698 16.854923
1696 20.811571
1694 24.462851
1692 27.52774
1690 30.27169
1688 32.859402
1686 36.144321
1684 40.172241
1682 44.817177
1680 49.901081
1678 54.232391
1676 57.882744
1674 61.621166
1672 65.525078
1670 70.200134
1668 75.419876
1666 80.410149
1664 85.102394
1662 89.217575
1660 92.814636
1658 95.985413
1656 98.763596
1654 101.21179
1652 103.2004
1650 104.59166
1648 104.84291
1646 103.52643
1644 101.0943
1642 98.045311
1640 94.680389
1638 91.230537
1636 87.255074
1634 82.629753
1632 77.73867
1630 72.75013
1628 67.996025
1626 63.524506
1624 59.024521
1622 54.452385
1620 50.063656
1618 45.865673
1616 41.881687
1614 38.128197
1612 34.72646
1610 31.70862
1608 29.149633
1606 27.021257
1604 25.15794
1602 23.567007
1600 22.218103
1598 21.146631
1596 20.365501
1594 19.872044
1592 19.620348
1590 19.547598
1588 19.566645
1586 19.677351
1584 19.870554
1582 20.22414
1580 20.772961
1578 21.622883
1576 22.801399
1574 24.174101
1572 25.684151
1570 27.055271
1568 28.22608
1566 29.311579
1564 30.335026
1562 31.685472
1560 33.481247
1558 36.275803
1556 40.0686
1554 43.81488
1552 47.294296
1550 49.786186
1548 51.38839
1546 52.832569
1544 54.10313
1542 55.223118
1540 55.869598
1538 55.591381
1536 54.485802
1534 52.825153
1532 50.996708
1530 49.436699
1528 48.117863
1526 47.00695
1524 45.832737
1522 44.423229
1520 42.573616
1518 40.155849
1516 37.7006
1514 35.377415
1512 33.221397
1510 31.273241
1508 28.820618
1506 25.689243
1504 22.45697
1502 19.186842
1500 16.56756
1498 14.69724
1496 13.001143
1494 11.489577
1492 10.008842
1490 8.542984
1488 7.0295038
1486 5.4510088
1484 3.797754
1482 2.221209
1480 0.97652602
1478 0.19500785
1476 0.038598031
1474 0.51244974
1472 1.4790589
1470 2.4610929
1468 3.1142364
1466 3.5083344
1464 3.6549382
1462 3.9051471
1460 4.4447503
1458 5.1315317
1456 5.9644399
1454 6.5054588
1452 6.5581479
1450 6.3946953
1448 5.9438195
1446 5.5028071
1444 5.0834317
1442 4.7150717
1440 4.4246464
1438 4.2093034
1436 4.0638013
1434 3.8683643
1432 3.6030645
1430 3.2570639
1428 2.8861039
1426 2.6421485
1424 2.5646045
1422 2.6876135
1420 2.9568923
1418 3.2810085
1416 3.5768027
1414 3.7463021
1412 3.8313632
1410 3.8546484
1408 3.8822172
1406 3.9595594
1404 4.0966306
1402 4.3225408
1400 4.6041923
1398 4.9625807
1396 5.3029213
1394 5.5926337
1392 5.7841682
1390 5.7995243
1388 5.7047186
1386 5.4359202
1384 5.0775928
1382 4.6092005
1380 4.1510153
1378 3.727814
1376 3.3902171
1374 3.1536779
1372 2.97242
1370 2.8344646
1368 2.6915007
1366 2.5287778
1364 2.3269539
1362 2.0812387
1360 1.7770325
1358 1.4327019
1356 1.0558925
1354 0.68455428
1352 0.35874319
1350 0.09949217
1348 -0.053068027
1346 -0.13740504
1344 -0.044762202
1342 0.12124521
1340 0.40381438
1338 0.62478501
1336 0.70365745
1334 0.68056911
1332 0.4798196
1330 0.32113808
1328 0.24714692
1326 0.29005921
1324 0.51250589
1322 0.84324044
1320 1.3037994
1318 1.7894998
1316 2.26178
1314 2.5989547
1312 2.7814503
1310 2.8161602
1308 2.7443206
1306 2.6521893
1304 2.5601447
1302 2.5017431
1300 2.4737127
1298 2.4890718
1296 2.5310001
1294 2.6054535
1292 2.6769173
1290 2.7192349
1288 2.7362881
1286 2.6971607
1284 2.6511188
1282 2.5971868
1280 2.5648496
1278 2.5835948
1276 2.6408501
1274 2.7761319
1272 2.9499681
1270 3.1881447
1268 3.4432826
1266 3.7175436
1264 3.9790995
1262 4.2207055
1260 4.4415941
1258 4.6494112
1256 4.881391
1254 5.1547451
1252 5.5125608
1250 5.9378948
1248 6.4168234
1246 6.9066
1244 7.342031
1242 7.7278757
1240 8.0159302
1238 8.2537498
1236 8.4153948
1234 8.5363054
1232 8.5707922
1230 8.5633459
1228 8.4481878
1226 8.3036432
1224 8.0817785
1222 7.835691
1220 7.5270519
1218 7.1698618
1216 6.7132311
1214 6.2146964
1212 5.6557112
1210 5.1271119
1208 4.6515937
1206 4.2427459
1204 3.9042418
1202 3.5592158
1200 3.1897216
1198 2.7365091
1196 2.2191215
1194 1.6822053
1192 1.1571996
1190 0.72877192
1188 0.36934671
1186 0.12020293
1184 -0.070581257
1182 -0.16965482
1180 -0.22084826
1178 -0.16120106
1176 -0.0683752
1174 0.09746106
1172 0.25242877
1170 0.34730041
1168 0.41165051
1166 0.38373607
1164 0.35376531
1162 0.31920108
1160 0.28706068
1158 0.25911283
1156 0.22697586
1154 0.19346522
1152 0.1912692
1150 0.23049107
1148 0.27869642
1146 0.32475144
1144 0.30740771
1142 0.23266473
1140 0.13105726
1138 0.031665273
1136 0.037158888
1134 0.12311031
1132 0.37121153
1130 0.69207847
1128 1.0694754
1126 1.4631171
1124 1.8615103
1122 2.2533133
1120 2.6059198
1118 2.9380329
1116 3.1806855
1114 3.4279945
1112 3.7010293
1110 3.9807405
1108 4.2774067
1106 4.5339251
1104 4.6908197
1102 4.8273759
1100 4.9296575
1098 5.0690656
1096 5.2728715
1094 5.5379009
1092 5.8892899
1090 6.3311872
1088 6.8617449
1086 7.4045367
1084 7.937202
1082 8.332283
1080 8.6310225
1078 8.8215122
1076 8.9505949
1074 8.9864988
1072 8.9717007
1070 8.8114624
1068 8.615366
1066 8.3918877
1064 8.1766672
1062 8.0492477
1060 7.9472942
1058 7.9830236
1056 8.0479317
1054 8.2396135
1052 8.4320621
1050 8.6231565
1048 8.7695103
1046 8.8050718
1044 8.7972078
1042 8.7099962
1040 8.6285601
1038 8.5548487
1036 8.4758997
1034 8.3820515
1032 8.1977348
1030 7.9259009
1028 7.5727091
1026 7.1724343
1024 6.8590336
1022 6.5968013
1020 6.3983617
1018 6.203301
1016 5.7828116
1014 5.2837877
1012 4.58634
1010 3.8691373
1008 3.3090761
1006 2.7873585
1004 2.5625677
1002 2.3531554
1000 2.23068
998 2.0977585
996 1.9186143
994 1.7326961
992 1.5249828
990 1.3041404
988 1.0554343
986 0.83950937
984 0.68557203
982 0.62043554
980 0.67269456
978 0.7111609
976 0.73111832
974 0.67729825
972 0.56855929
970 0.52590579
968 0.52924204
966 0.64336652
964 0.80431581
962 0.90273082
960 0.97697347
958 0.96836084
956 0.94273227
954 0.93355006
952 0.92023122
950 0.76057357
948 0.5851264
946 0.26994172
944 0.000509704
942 0.0050504655
940 0.17805803
938 0.9536494
936 1.7994828
934 2.8461993
932 3.7154617
930 4.2005939
928 4.4121642
926 4.1854086
924 3.8475361
922 3.376925
920 3.0089166
918 2.7398343
916 2.7062957
914 2.8409662
912 3.142256
910 3.5306959
908 3.8295758
906 4.0938087
904 4.234622
902 4.343585
900 4.5264573
898 4.7214136
896 5.0105
