##TITLE=Methyl Ethyl Ketone
##JCAMP-DX=4.24
##DATA TYPE=INFRARED SPECTRUM
##XUNITS=cm-1
##YUNITS=Absorbance
##FIRSTX=900
##LASTX=2300
##XYDATA=(X++(Y..Y))
2296 0.13809
2294 0.14096589
2292 0.1438318
2290 0.14670767
2288 0.14958355
2286 0.15244949
2284 0.15532531
2282 0.1582012
2280 0.1610672
2278 0.16394298
2276 0.16681886
2274 0.16969475
2272 0.1725608
2270 0.17543653
2268 0.17831241
2266 0.18117851
2264 0.18405417
2262 0.18693006
2260 0.18979619
2258 0.19267184
2256 0.19554771
2254 0.19841391
2252 0.20128949
2250 0.20416538
2248 0.20703161
2246 0.20990714
2244 0.093246244
2242 0.0034229059
2240 -0.063808322
2238 -0.087634176
2236 -0.10522339
2234 -0.14839417
2232 -0.1941808
2230 -0.25706276
2228 -0.31610915
2226 -0.33828351
2224 -0.35071132
2222 -0.32731044
2220 -0.30530614
2218 -0.29353458
2216 -0.29820886
2214 -0.33758044
2212 -0.3777886
2210 -0.41601589
2208 -0.43379477
2206 -0.42620271
2204 -0.41245526
2202 -0.39430013
2200 -0.37768209
2198 -0.362414
2196 -0.35002142
2194 -0.33926666
2192 -0.34139675
2190 -0.34914443
2188 -0.3348743
2186 -0.31332171
2184 -0.25885558
2182 -0.19691439
2180 -0.16308674
2178 -0.13411742
2176 -0.15508656
2174 -0.18434621
2172 -0.25577021
2170 -0.33374938
2168 -0.42642376
2166 -0.50820112
2164 -0.5451076
2162 -0.56900477
2160 -0.57104748
2158 -0.57739413
2156 -0.59608096
2154 -0.60053307
2152 -0.58251727
2150 -0.55462343
2148 -0.51826316
2146 -0.51059681
2144 -0.52909291
2142 -0.55067742
2140 -0.57255524
2138 -0.58506018
2136 -0.59243369
2134 -0.66065568
2132 -0.75461394
2130 -0.90420616
2128 -1.0708171
2126 -1.1813171
2124 -1.2786198
2122 -1.3070509
2120 -1.3257492
2118 -1.3658947
2116 -1.4093943
2114 -1.4549329
2112 -1.4873915
2110 -1.4600961
2108 -1.4132262
2106 -1.3339272
2104 -1.2569228
2102 -1.1961064
2100 -1.1520519
2098 -1.1322911
2096 -1.1282858
2094 -1.1403223
2092 -1.1820388
2090 -1.2519968
2088 -1.3584303
2086 -1.49138
2084 -1.6101645
2082 -1.7170736
2080 -1.7560343
2078 -1.7602844
2076 -1.69717
2074 -1.6078203
2072 -1.5032359
2070 -1.3946958
2068 -1.3232718
2066 -1.2623229
2064 -1.2524
2062 -1.2569808
2060 -1.3057071
2058 -1.365947
2056 -1.4414257
2054 -1.5123864
2052 -1.5574285
2050 -1.5798141
2048 -1.558332
2046 -1.5208
2044 -1.469438
2042 -1.4257293
2040 -1.3966274
2038 -1.3846217
2036 -1.3886186
2034 -1.4168055
2032 -1.4658434
2030 -1.54222
2028 -1.6379294
2026 -1.7369686
2024 -1.8365908
2022 -1.886402
2020 -1.9104191
2018 -1.8872514
2016 -1.84506
2014 -1.8139199
2012 -1.7863786
2010 -1.7639309
2008 -1.7432377
2006 -1.7382072
2004 -1.744094
2002 -1.80258
2000 -1.8735309
1998 -1.9449381
1996 -1.9911572
1994 -1.963366
1992 -1.9070548
1990 -1.8244184
1988 -1.770502
1986 -1.7734128
1984 -1.8019463
1982 -1.8474979
1980 -1.8720726
1978 -1.8703582
1976 -1.8450172
1974 -1.8041971
1972 -1.738686
1970 -1.6574066
1968 -1.5850422
1966 -1.5199857
1964 -1.5176398
1962 -1.5464987
1960 -1.568208
1958 -1.5845096
1956 -1.5446128
1954 -1.4849548
1952 -1.4570755
1950 -1.4426364
1948 -1.4716865
1946 -1.509325
1944 -1.5159794
1942 -1.5101942
1940 -1.4809086
1938 -1.4569864
1936 -1.4626971
1934 -1.4770025
1932 -1.495796
1930 -1.4957823
1928 -1.4684685
1926 -1.426955
1924 -1.3799075
1922 -1.3562537
1920 -1.3566154
1918 -1.388495
1916 -1.4387515
1914 -1.4763504
1912 -1.5017641
1910 -1.5081
1908 -1.505064
1906 -1.5133507
1904 -1.527872
1902 -1.5449624
1900 -1.561546
1898 -1.5432687
1896 -1.5081999
1894 -1.4431952
1892 -1.3726095
1890 -1.3362859
1888 -1.3266658
1886 -1.3673629
1884 -1.4264077
1882 -1.4823244
1880 -1.529004
1878 -1.5606282
1876 -1.58561
1874 -1.6163021
1872 -1.6282126
1870 -1.6137638
1868 -1.5819669
1866 -1.5288435
1864 -1.5178748
1862 -1.5490379
1860 -1.6023322
1858 -1.6692436
1856 -1.7358029
1854 -1.8038262
1852 -1.927614
1850 -2.0923102
1848 -2.3038721
1846 -2.5438499
1844 -2.6384451
1842 -2.6539733
1840 -2.4657633
1838 -2.178477
1836 -1.8826058
1834 -1.5870531
1832 -1.3396382
1830 -1.1428127
1828 -1.0427226
1826 -1.0223693
1824 -1.0852365
1822 -1.1615834
1820 -1.195222
1818 -1.1869383
1816 -1.1451343
1814 -1.0920193
1812 -1.0450077
1810 -0.98752952
1808 -0.91217566
1806 -0.83415902
1804 -0.75796831
1802 -0.77314132
1800 -0.87557489
1798 -1.0354397
1796 -1.2272072
1794 -1.2794986
1792 -1.223404
1790 -1.0585042
1788 -0.82677382
1786 -0.62449765
1784 -0.4436816
1782 -0.34248301
1780 -0.29694179
1778 -0.3458463
1776 -0.4266417
1774 -0.43046916
1772 -0.34886792
1770 -0.098995164
1768 0.17224871
1766 0.3089422
1764 0.31933099
1762 0.18743107
1760 0.043396857
1758 -0.26246053
1756 -0.59803659
1754 -0.81077439
1752 -0.92340076
1750 -0.97223139
1748 -1.040836
1746 -1.1476108
1744 -1.3302519
1742 -1.5653955
1740 -1.702778
1738 -1.7509892
1736 -1.5991
1734 -1.3108046
1732 -1.007789
1730 -0.7070539
1728 -0.55923367
1726 -0.50198478
1724 -0.43340918
1722 -0.3075026
1720 0.11018018
1718 0.84751511
1716 1.9057529
1714 3.0285091
1712 3.9338286
1710 4.6760001
1708 5.2887559
1706 6.0058103
1704 7.0231333
1702 8.616374
1700 10.929461
1698 14.194088
1696 18.42157
1694 22.832869
1692 27.044962
1690 30.813522
1688 34.133812
1686 37.817436
1684 41.978142
1682 46.703777
1680 51.880081
1678 56.360401
1676 60.209072
1674 64.041389
1672 67.940987
1670 72.544243
1668 77.659698
1666 82.694946
1664 87.5896
1662 92.094261
1660 96.204132
1658 99.861511
1656 103.01772
1654 105.58739
1652 107.3822
1650 108.22311
1648 107.7408
1646 105.75964
1644 102.85303
1642 99.559509
1640 96.062614
1638 92.482872
1636 88.379173
1634 83.638184
1632 78.676849
1630 73.674187
1628 68.854103
1626 64.234428
1624 59.43924
1622 54.432438
1620 49.624523
1618 45.049889
1616 41.00597
1614 37.505234
1612 34.562214
1610 32.162659
1608 30.122896
1606 28.405506
1604 26.844208
1602 25.468908
1600 24.314617
1598 23.413862
1596 22.7775
1594 22.408869
1592 22.274027
1590 22.333939
1588 22.527031
1586 22.813236
1584 23.146
1582 23.526859
1580 23.947109
1578 24.494335
1576 25.201372
1574 26.076035
1572 27.124866
1570 28.253641
1568 29.4424
1566 30.671043
1564 31.935835
1562 33.310387
1560 34.8536
1558 37.008396
1556 39.776627
1554 42.662991
1552 45.508869
1550 47.62418
1548 49.033154
1546 50.092285
1544 50.79821
1542 51.275734
1540 51.380661
1538 51.024853
1536 50.206543
1534 48.997089
1532 47.590733
1530 46.158188
1528 44.687016
1526 43.170052
1524 41.532898
1522 39.741337
1520 37.865795
1518 35.963188
1516 34.173859
1514 32.55022
1512 30.866079
1510 29.037958
1508 26.70487
1506 23.733213
1504 20.798298
1502 17.992167
1500 15.677057
1498 13.91508
1496 12.214286
1494 10.573536
1492 8.9499102
1490 7.3455462
1488 5.7732625
1486 4.2720609
1484 2.8970721
1482 1.7455674
1480 0.89449948
1478 0.35222787
1476 0.086606227
1474 0.11643042
1472 0.49583951
1470 1.0453775
1468 1.6209514
1466 2.146667
1464 2.5396023
1462 2.8829887
1460 3.1947622
1458 3.5480709
1456 3.9866002
1454 4.4271774
1452 4.8707352
1450 5.1735253
1448 5.2692604
1446 5.2750177
1444 5.1564202
1442 5.0178518
1440 4.8389931
1438 4.6092057
1436 4.2941885
1434 3.9021306
1432 3.4393983
1430 3.0000381
1428 2.6242819
1426 2.3470249
1424 2.1990132
1422 2.1946034
1420 2.355794
1418 2.7235241
1416 3.208823
1414 3.733217
1412 4.2176394
1410 4.5589085
1408 4.8326015
1406 5.0533123
1404 5.2662439
1402 5.4996624
1400 5.7074919
1398 5.86868
1396 5.9831715
1394 6.0259337
1392 6.0576854
1390 6.0854692
1388 6.0828347
1386 6.0256848
1384 5.8793836
1382 5.5987082
1380 5.2210779
1378 4.7194452
1376 4.1682372
1374 3.5783634
1372 3.0507379
1370 2.6092122
1368 2.2700036
1366 2.001123
1364 1.7085046
1362 1.3807068
1360 1.0059996
1358 0.63828939
1356 0.3454687
1354 0.13562797
1352 0.042008001
1350 0.0095612407
1348 0.044720277
1346 0.095570862
1344 0.15494481
1342 0.20105848
1340 0.21313433
1338 0.2288157
1336 0.26084515
1334 0.30244032
1332 0.38612074
1330 0.48709941
1328 0.62284333
1326 0.78938752
1324 0.99319679
1322 1.2298748
1320 1.5008686
1318 1.795972
1316 2.10271
1314 2.3813736
1312 2.6169224
1310 2.7665601
1308 2.8475883
1306 2.870157
1304 2.8645585
1302 2.8646421
1300 2.8685112
1298 2.8826497
1296 2.8887427
1294 2.8703792
1292 2.843375
1290 2.8116004
1288 2.792052
1286 2.8084028
1284 2.8326569
1282 2.8741593
1280 2.9152458
1278 2.9586701
1276 3.0188229
1274 3.1112819
1272 3.2343006
1270 3.4089851
1268 3.6200905
1266 3.8884087
1264 4.1897917
1262 4.5343285
1260 4.893332
1258 5.2706013
1256 5.6658773
1254 6.0862923
1252 6.548017
1250 7.0393391
1248 7.5440297
1246 8.0407257
1244 8.4912815
1242 8.9035683
1240 9.2494926
1238 9.5502834
1236 9.7622223
1234 9.9174709
1232 9.9401283
1230 9.9064903
1228 9.7323456
1226 9.5197515
1224 9.2060661
1222 8.8656845
1220 8.4616032
1218 8.0343323
1216 7.561554
1214 7.0768838
1212 6.5711765
1210 6.0554857
1208 5.5209022
1206 4.9562187
1204 4.3579779
1202 3.7517097
1200 3.1496308
1198 2.5986562
1196 2.0987999
1194 1.6642402
1192 1.2783858
1190 0.94212896
1188 0.64516598
1186 0.42142999
1184 0.24483165
1182 0.16373199
1180 0.12407166
1178 0.16378661
1176 0.233628
1174 0.38075945
1172 0.53505838
1170 0.69870907
1168 0.82510245
1166 0.8369146
1164 0.80827701
1162 0.68322831
1160 0.56125504
1158 0.44740355
1156 0.35109514
1154 0.28097945
1152 0.20557687
1150 0.12354967
1148 0.044477418
1146 -0.026342928
1144 -0.068286479
1142 -0.075782135
1140 -0.028278459
1138 0.073465511
1136 0.28805229
1134 0.58025742
1132 0.97166932
1130 1.4007703
1128 1.82766
1126 2.2502058
1124 2.652529
1122 3.0494342
1120 3.4367199
1118 3.8122575
1116 4.1286983
1114 4.4179287
1112 4.5946164
1110 4.7329893
1108 4.7506356
1106 4.7564549
1104 4.7402935
1102 4.7762671
1100 4.9212594
1098 5.1408615
1096 5.4781427
1094 5.850307
1092 6.2656541
1090 6.6871223
1088 7.1124988
1086 7.5227771
1084 7.9124637
1082 8.2387962
1080 8.5151472
1078 8.7049427
1076 8.8432398
1074 8.8921556
1072 8.9032764
1070 8.8502846
1068 8.7859135
1066 8.7392206
1064 8.7000723
1062 8.6982689
1060 8.6907864
1058 8.6336231
1056 8.547843
1054 8.3362322
1052 8.1061745
1050 7.8192687
1048 7.5537786
1046 7.3387394
1044 7.1179481
1042 6.8843713
1040 6.6241074
1038 6.3293996
1036 6.0676699
1034 5.8438649
1032 5.6318192
1030 5.4270105
1028 5.1968079
1026 4.9515319
1024 4.7317109
1022 4.525856
1020 4.3247566
1018 4.1153316
1016 3.7931342
1014 3.4318826
1012 2.9752588
1010 2.5116184
1008 2.1532919
1006 1.8145664
1004 1.603246
1002 1.3927032
1000 1.1805955
998 0.97207129
996 0.77956212
994 0.59242964
992 0.42226368
990 0.25017849
988 0.07483574
986 -0.085779697
984 -0.22014549
982 -0.33135512
980 -0.41108701
978 -0.47170854
976 -0.50954801
974 -0.49756068
972 -0.44108564
970 -0.29697609
968 -0.097941771
966 0.14439648
964 0.40316588
962 0.60259867
960 0.77740973
958 0.82927746
956 0.85051805
954 0.76791763
952 0.67050362
950 0.51571852
948 0.35833871
946 0.19617479
944 0.044600546
942 -0.002662085
940 -0.080090813
938 -0.049742498
936 0.0097616017
934 0.15379088
932 0.28167915
930 0.37488925
928 0.45367521
926 0.51112121
924 0.64972222
922 0.88739598
920 1.1734879
918 1.5033872
916 1.7431242
914 1.9172498
912 1.9122537
910 1.810521
908 1.5524597
906 1.2336792
904 0.97922444
902 0.7416085
900 0.73903978
898 0.77405763
896 0.90524
