##TITLE=Methyl Ethyl Ketone
##JCAMP-DX=4.24
##DATA TYPE=INFRARED SPECTRUM
##XUNITS=cm-1
##YUNITS=Absorbance
##FIRSTX=900
##LASTX=2300
##XYDATA=(X++(Y..Y))
2296 -0.029568
2294 -0.030196102
2292 -0.030825201
2290 -0.031453304
2288 -0.032081407
2286 -0.032709509
2284 -0.033337608
2282 -0.033965711
2280 -0.034593809
2278 -0.035221912
2276 -0.035850015
2274 -0.036479097
2272 -0.037107214
2270 -0.037735317
2268 -0.038363419
2266 -0.038991522
2264 -0.039619625
2262 -0.040247723
2260 -0.040875826
2258 -0.041503929
2256 -0.042133
2254 -0.042761132
2252 -0.043389231
2250 -0.044017334
2248 -0.044645436
2246 -0.045273535
2244 -0.0016824228
2242 0.048219491
2240 0.076554
2238 0.062775053
2236 0.042968087
2234 -0.0271229
2232 -0.1015293
2230 -0.19176434
2228 -0.27541864
2226 -0.3001895
2224 -0.3046
2222 -0.22950108
2220 -0.15464568
2218 -0.093436159
2216 -0.067356229
2214 -0.11636525
2212 -0.18066581
2210 -0.26271546
2208 -0.31080738
2206 -0.3152152
2204 -0.28341416
2202 -0.21943352
2200 -0.1591136
2198 -0.10311716
2196 -0.080803998
2194 -0.077726558
2192 -0.094989248
2190 -0.12059666
2188 -0.12448109
2186 -0.12114778
2184 -0.108522
2182 -0.093868926
2180 -0.11514875
2178 -0.14181271
2176 -0.1674583
2174 -0.19082828
2172 -0.18943214
2170 -0.1884266
2168 -0.20300618
2166 -0.22154336
2164 -0.24889454
2162 -0.27147239
2160 -0.27959302
2158 -0.28008676
2156 -0.26896399
2154 -0.24972263
2152 -0.22046173
2150 -0.18811284
2148 -0.15344577
2146 -0.12479464
2144 -0.1016448
2142 -0.094792515
2140 -0.098822474
2138 -0.12930514
2136 -0.17362256
2134 -0.21264739
2132 -0.24900293
2130 -0.24541292
2128 -0.22919759
2126 -0.1921365
2124 -0.15038982
2122 -0.097781681
2120 -0.044135705
2118 -0.0030927374
2116 0.029347785
2114 0.010504168
2112 -0.019497838
2110 -0.066390678
2108 -0.10698244
2106 -0.12101521
2104 -0.12407257
2102 -0.11139273
2100 -0.1015098
2098 -0.10015414
2096 -0.11049429
2094 -0.13433166
2092 -0.16124532
2090 -0.18931027
2088 -0.20809755
2086 -0.2193965
2084 -0.21505092
2082 -0.20118274
2080 -0.17557058
2078 -0.14426909
2076 -0.12526329
2074 -0.11158521
2072 -0.1176732
2070 -0.12985469
2068 -0.14302562
2066 -0.15605429
2064 -0.17485069
2062 -0.19544178
2060 -0.22784372
2058 -0.2622703
2056 -0.29515627
2054 -0.32568008
2052 -0.34744555
2050 -0.365942
2048 -0.378932
2046 -0.3894268
2044 -0.3963668
2042 -0.395419
2040 -0.38491729
2038 -0.36928412
2036 -0.35127714
2034 -0.33831707
2032 -0.33038321
2030 -0.32367972
2028 -0.31629911
2026 -0.31453523
2024 -0.31576526
2022 -0.32238561
2020 -0.33115375
2018 -0.33151147
2016 -0.32888001
2014 -0.33187163
2012 -0.33792752
2010 -0.35622054
2008 -0.37768096
2006 -0.38980073
2004 -0.399012
2002 -0.40113908
2000 -0.40582892
1998 -0.42467052
1996 -0.45415643
1994 -0.50207502
1992 -0.54523879
1990 -0.57180059
1988 -0.57190841
1986 -0.5387665
1984 -0.50063378
1982 -0.46635011
1980 -0.45206726
1978 -0.45692977
1976 -0.46481058
1974 -0.47022289
1972 -0.45510313
1970 -0.42360014
1968 -0.38800788
1966 -0.35193813
1964 -0.34560701
1962 -0.35655406
1960 -0.38300321
1958 -0.41582042
1956 -0.44419113
1954 -0.47116986
1952 -0.48806337
1950 -0.50225115
1948 -0.50117368
1946 -0.49568751
1944 -0.49612167
1942 -0.49643356
1940 -0.50752574
1938 -0.51850003
1936 -0.52462971
1934 -0.53000009
1932 -0.5304606
1930 -0.53914535
1928 -0.55688381
1926 -0.58419293
1924 -0.61681199
1922 -0.63306129
1920 -0.63356501
1918 -0.61511862
1916 -0.589261
1914 -0.56996763
1912 -0.55640215
1910 -0.54923099
1908 -0.5436002
1906 -0.54162204
1904 -0.54257441
1902 -0.54447311
1900 -0.54846358
1898 -0.53953952
1896 -0.52624571
1894 -0.50931507
1892 -0.49324453
1890 -0.50144279
1888 -0.52088314
1886 -0.55879647
1884 -0.59795266
1882 -0.62209618
1880 -0.63846773
1878 -0.64452803
1876 -0.66360795
1874 -0.70278502
1872 -0.75801796
1870 -0.82123923
1868 -0.85322803
1866 -0.85563684
1864 -0.82960522
1862 -0.79383659
1860 -0.77203339
1858 -0.76047975
1856 -0.7628783
1854 -0.76905459
1852 -0.80053622
1850 -0.84361011
1848 -0.91688877
1846 -1.0010307
1844 -1.0597643
1842 -1.098277
1840 -1.079664
1838 -1.0366362
1836 -0.98107141
1834 -0.92776948
1832 -0.88352346
1830 -0.8390215
1828 -0.78913283
1826 -0.72822601
1824 -0.66878515
1822 -0.62774086
1820 -0.62274998
1818 -0.64453197
1816 -0.67524427
1814 -0.69654471
1812 -0.69361442
1810 -0.66781586
1808 -0.62728202
1806 -0.58284599
1804 -0.54033941
1802 -0.52875507
1800 -0.53977931
1798 -0.57600033
1796 -0.62673002
1794 -0.61861962
1792 -0.57379121
1790 -0.45659381
1788 -0.30502048
1786 -0.18143658
1784 -0.083173037
1782 -0.028485093
1780 -0.004360944
1778 0.00068515388
1776 -0.0070159892
1774 -0.023422655
1772 -0.032528523
1770 -0.035246652
1768 -0.022853332
1766 0.0024422351
1764 0.026133139
1762 0.052463166
1760 0.024386853
1758 -0.084943943
1756 -0.2091127
1754 -0.30853653
1752 -0.36749765
1750 -0.37994
1748 -0.3632991
1746 -0.33610928
1744 -0.32940301
1742 -0.35797459
1740 -0.40812063
1738 -0.46614146
1736 -0.464414
1734 -0.40692452
1732 -0.28829384
1730 -0.13734224
1728 -0.055576812
1726 -0.034585394
1724 -0.038755998
1722 -0.052616429
1720 0.0083857961
1718 0.16952983
1716 0.51631445
1714 1.0140836
1712 1.5849469
1710 2.1849315
1708 2.79058
1706 3.5104043
1704 4.4666128
1702 5.9283638
1700 8.0320978
1698 11.080243
1696 15.059285
1694 19.220619
1692 23.200642
1690 26.752527
1688 29.910572
1686 33.515556
1684 37.670837
1682 42.602402
1680 48.141399
1678 52.941242
1676 57.045116
1674 60.890141
1672 64.621758
1670 68.977852
1668 73.798645
1666 78.549103
1664 83.119308
1662 87.160149
1660 90.690063
1658 93.731155
1656 96.311371
1654 98.496071
1652 100.09615
1650 100.90005
1648 100.59657
1646 98.943039
1644 96.527809
1642 93.92202
1640 91.043144
1638 87.905807
1636 84.152496
1634 79.702675
1632 75.179916
1630 70.79911
1628 66.656578
1626 62.752113
1624 58.73312
1622 54.564369
1620 50.548069
1618 46.701813
1616 43.105629
1614 39.769081
1612 36.779099
1610 34.150871
1608 31.913458
1606 30.056707
1604 28.47308
1602 27.17025
1600 26.112942
1598 25.301456
1596 24.699001
1594 24.300461
1592 24.067411
1590 23.988556
1588 24.027969
1586 24.163713
1584 24.374416
1582 24.635199
1580 24.934832
1578 25.328445
1576 25.833258
1574 26.527033
1572 27.412746
1570 28.454161
1568 29.635199
1566 30.854607
1564 32.106384
1562 33.515007
1560 35.173153
1558 37.718521
1556 41.242458
1554 45.198273
1552 49.328304
1550 52.519005
1548 54.748112
1546 56.478752
1544 57.693222
1542 58.519321
1540 58.89386
1538 58.740257
1536 58.035629
1534 56.850189
1532 55.298973
1530 53.607765
1528 51.827789
1526 50.00285
1524 48.015629
1522 45.77644
1520 43.392509
1518 40.867741
1516 38.5784
1514 36.67741
1512 34.843761
1510 33.057781
1508 30.715658
1506 27.651407
1504 24.550222
1502 21.453039
1500 18.847101
1498 16.783331
1496 14.740429
1494 12.721045
1492 10.682285
1490 8.6584387
1488 6.7152572
1486 4.9156241
1484 3.3399
1482 2.0331192
1480 1.0408659
1478 0.37771484
1476 0.063357428
1474 0.2335541
1472 0.86561668
1470 1.724491
1468 2.6643019
1466 3.47405
1464 4.0369835
1462 4.4740381
1460 4.8215275
1458 5.1825304
1456 5.5814199
1454 5.9769874
1452 6.3334885
1450 6.5790715
1448 6.6483874
1446 6.6317859
1444 6.4973722
1442 6.3128271
1440 6.0613184
1438 5.737834
1436 5.3273187
1434 4.8207579
1432 4.2446008
1430 3.711761
1428 3.2514699
1426 2.9346879
1424 2.759131
1422 2.6990137
1420 2.7582722
1418 2.9120207
1416 3.1506143
1414 3.4616539
1412 3.788192
1410 4.1192975
1408 4.43642
1406 4.7333879
1404 5.0233731
1402 5.2932482
1400 5.5578079
1398 5.8097005
1396 6.0683861
1394 6.3308525
1392 6.572401
1390 6.7437172
1388 6.7982531
1386 6.6567349
1384 6.3795204
1382 5.9211278
1380 5.4102235
1378 4.8465409
1376 4.281137
1374 3.7420154
1372 3.2533541
1370 2.8281696
1368 2.474472
1366 2.1435606
1364 1.7664859
1362 1.3514796
1360 0.89496493
1358 0.4763912
1356 0.1952972
1354 0.019154161
1352 -0.0088634854
1350 0.028095465
1348 0.11756513
1346 0.21607393
1344 0.32058477
1342 0.43311924
1340 0.56673723
1338 0.71836811
1336 0.89838976
1334 1.0936877
1332 1.2865171
1330 1.4811699
1328 1.6773331
1326 1.8868128
1324 2.133285
1322 2.4083064
1320 2.7327685
1318 3.0830097
1316 3.4583299
1314 3.8208086
1312 4.1491032
1310 4.4220567
1308 4.635766
1306 4.8086576
1304 4.9494219
1302 5.0651808
1300 5.156178
1298 5.1985717
1296 5.2131
1294 5.1854796
1292 5.1544557
1290 5.1360378
1288 5.1343079
1286 5.1694479
1284 5.2091074
1282 5.2496009
1280 5.2848086
1278 5.3076119
1276 5.3348389
1274 5.3768902
1272 5.4335184
1270 5.5198121
1268 5.6215529
1266 5.7422566
1264 5.8669624
1262 5.991425
1260 6.112606
1258 6.2311058
1256 6.3517232
1254 6.4734926
1252 6.5942397
1250 6.7120695
1248 6.8231063
1246 6.9293499
1244 7.0257406
1242 7.1121912
1240 7.1740651
1238 7.2103925
1236 7.1861572
1234 7.1173983
1232 6.9423118
1230 6.7185884
1228 6.3721094
1226 5.989141
1224 5.5106373
1222 5.0081701
1220 4.4492235
1218 3.88941
1216 3.3326542
1214 2.8105106
1212 2.3518493
1210 1.9381664
1208 1.5885451
1206 1.2655678
1204 0.97601205
1202 0.71246803
1200 0.48198536
1198 0.2963416
1196 0.15294793
1194 0.051844813
1192 -0.021583401
1190 -0.079540998
1188 -0.12816943
1186 -0.16685322
1184 -0.18851496
1182 -0.15409189
1180 -0.083133847
1178 0.086629853
1176 0.28644398
1174 0.5543347
1172 0.82483697
1170 1.0872202
1168 1.3256766
1166 1.4860663
1164 1.603146
1162 1.611658
1160 1.5835068
1158 1.4822406
1156 1.36221
1154 1.2107246
1152 1.0433508
1150 0.85491413
1148 0.65828258
1146 0.457555
1144 0.28133881
1142 0.13577527
1140 0.049329199
1138 0.011992746
1136 0.029410917
1134 0.083249025
1132 0.1904096
1130 0.32572675
1128 0.50285208
1126 0.68777776
1124 0.85518277
1122 1.0097001
1120 1.112048
1118 1.2053794
1116 1.2756058
1114 1.3431158
1112 1.4009023
1110 1.4582447
1108 1.5140042
1106 1.56911
1104 1.6217058
1102 1.6680176
1100 1.7020543
1098 1.7360057
1096 1.7703857
1094 1.807941
1092 1.848902
1090 1.8877717
1088 1.9232086
1086 1.950745
1084 1.9706279
1082 1.9779266
1080 1.9781263
1078 1.978339
1076 1.9794357
1074 1.9861426
1072 1.9941045
1070 2.0004084
1068 2.0077834
1066 2.0273621
1064 2.0495
1062 2.0794573
1060 2.1066616
1058 2.1133604
1056 2.1236713
1054 2.1505485
1052 2.1894357
1050 2.2659011
1048 2.3318732
1046 2.3697891
1044 2.3733675
1042 2.311697
1040 2.2309296
1038 2.1248076
1036 2.0421901
1034 1.9911283
1032 1.9901549
1030 2.0358546
1028 2.1015146
1026 2.1771636
1024 2.2122617
1022 2.2210021
1020 2.1768606
1018 2.1101401
1016 2.0218172
1014 1.9246935
1012 1.7949977
1010 1.6553576
1008 1.463164
1006 1.2664936
1004 1.0671252
1002 0.87439871
1000 0.72704196
998 0.58426422
996 0.46132141
994 0.3373251
992 0.20995213
990 0.090898521
988 -0.0087066218
986 -0.095998853
984 -0.16124588
982 -0.22660348
980 -0.29196882
978 -0.36484605
976 -0.44556314
974 -0.52287799
972 -0.59597749
970 -0.64017701
968 -0.66467667
966 -0.6570465
964 -0.63408947
962 -0.59686589
960 -0.55523926
958 -0.50866222
956 -0.46104357
954 -0.40633988
952 -0.35001281
950 -0.27234927
948 -0.19041799
946 -0.061330501
944 0.0020341389
942 0.063169375
940 0.17964137
938 0.28822708
936 0.38134086
934 0.42937437
932 0.46878153
930 0.48977384
928 0.50920016
926 0.52624899
924 0.543455
922 0.5611977
920 0.5799017
918 0.59880322
916 0.59110785
914 0.56363213
912 0.47723743
910 0.3606821
908 0.23205209
906 0.10114308
904 0.038773935
902 -0.0039102919
900 0.026626438
898 0.069426164
896 0.11847
