##TITLE=Methyl Ethyl Ketone
##JCAMP-DX=4.24
##DATA TYPE=INFRARED SPECTRUM
##XUNITS=cm-1
##YUNITS=Absorbance
##FIRSTX=900
##LASTX=2300
##XYDATA=(X++(Y..Y))
2296 -0.027026
2294 -0.027588196
2292 -0.028150391
2290 -0.028712587
2288 -0.029274784
2286 -0.029836979
2284 -0.030399173
2282 -0.03096137
2280 -0.031523567
2278 -0.032085761
2276 -0.032647956
2274 -0.033210151
2272 -0.033772349
2270 -0.034334544
2268 -0.034896739
2266 -0.035458937
2264 -0.036021132
2262 -0.036584303
2260 -0.037145551
2258 -0.037708692
2256 -0.038270913
2254 -0.038833108
2252 -0.039395306
2250 -0.039957501
2248 -0.040519696
2246 -0.041081894
2244 -0.0015266457
2242 0.075046226
2240 0.11445348
2238 0.032393117
2236 -0.067462586
2234 -0.24419051
2232 -0.42299715
2230 -0.52487445
2228 -0.61606145
2226 -0.65199149
2224 -0.69160235
2222 -0.76122916
2220 -0.8251096
2218 -0.8668319
2216 -0.88712686
2214 -0.86334747
2212 -0.85877317
2210 -0.88976872
2208 -0.9571476
2206 -1.067144
2204 -1.1491429
2202 -1.2015094
2200 -1.1857126
2198 -1.120316
2196 -1.0469714
2194 -0.97083843
2192 -0.95158792
2190 -0.95738518
2188 -1.0111526
2186 -1.0800079
2184 -1.185964
2182 -1.3002439
2180 -1.427086
2178 -1.5549115
2176 -1.6232085
2174 -1.6825498
2172 -1.703012
2170 -1.719515
2168 -1.7353554
2166 -1.7455993
2164 -1.7356315
2162 -1.7291647
2160 -1.7365452
2158 -1.7586738
2156 -1.80591
2154 -1.838576
2152 -1.8466343
2150 -1.843438
2148 -1.8306589
2146 -1.8353606
2144 -1.8565137
2142 -1.88036
2140 -1.9051254
2138 -1.943918
2136 -1.9902171
2134 -2.0492761
2132 -2.1132443
2130 -2.1309364
2128 -2.13362
2126 -2.1371386
2124 -2.1411963
2122 -2.2177997
2120 -2.3051875
2118 -2.3790457
2116 -2.4425771
2114 -2.442944
2112 -2.4304216
2110 -2.4008646
2108 -2.3677719
2106 -2.3315809
2104 -2.2945881
2102 -2.2570243
2100 -2.2359762
2098 -2.2429302
2096 -2.2679856
2094 -2.311434
2092 -2.3356128
2090 -2.3369796
2088 -2.314733
2086 -2.275115
2084 -2.2570899
2082 -2.2547457
2080 -2.2892897
2078 -2.3425424
2076 -2.3962085
2074 -2.4493639
2072 -2.4576321
2070 -2.4516461
2068 -2.410903
2066 -2.3629186
2064 -2.3318903
2062 -2.3053961
2060 -2.2826254
2058 -2.2581501
2056 -2.2198458
2054 -2.1836019
2052 -2.1672611
2050 -2.1596596
2048 -2.16714
2046 -2.1755714
2044 -2.181428
2042 -2.2045014
2040 -2.2522182
2038 -2.3142505
2036 -2.3852172
2034 -2.4143882
2032 -2.4018524
2030 -2.3496621
2028 -2.2737761
2026 -2.2123313
2024 -2.1637537
2022 -2.1466572
2020 -2.1455832
2018 -2.187875
2016 -2.2463799
2014 -2.3019221
2012 -2.3540325
2010 -2.3216109
2008 -2.2642136
2006 -2.1795743
2004 -2.0923789
2002 -2.0415359
2000 -2.0000741
1998 -1.9675282
1996 -1.9360358
1994 -1.906142
1992 -1.8882138
1990 -1.8886727
1988 -1.890012
1986 -1.87484
1984 -1.8357617
1982 -1.7691728
1980 -1.7064202
1978 -1.6592807
1976 -1.6352829
1974 -1.6321011
1972 -1.6170286
1970 -1.5913804
1968 -1.5593486
1966 -1.5241386
1964 -1.5304232
1962 -1.55632
1960 -1.583292
1958 -1.6086643
1956 -1.5840358
1954 -1.5395128
1952 -1.4715776
1950 -1.3958075
1948 -1.3497983
1946 -1.328425
1944 -1.3817154
1942 -1.473174
1940 -1.5867875
1938 -1.6857487
1936 -1.7213343
1934 -1.710968
1932 -1.6569121
1930 -1.5877047
1928 -1.52544
1926 -1.4621258
1924 -1.4015303
1922 -1.3277577
1920 -1.2330914
1918 -1.153978
1916 -1.0828258
1914 -1.0325238
1912 -0.99770617
1910 -0.95017624
1908 -0.89572787
1906 -0.85905468
1904 -0.83091235
1902 -0.83340806
1900 -0.84666115
1898 -0.82644808
1896 -0.7890057
1894 -0.72536796
1892 -0.65985399
1890 -0.63527542
1888 -0.63829404
1886 -0.67528999
1884 -0.72659826
1882 -0.779154
1880 -0.82289237
1878 -0.85335684
1876 -0.84931803
1874 -0.80808389
1872 -0.71948826
1870 -0.58863765
1868 -0.47819117
1866 -0.38815662
1864 -0.36748677
1862 -0.39446279
1860 -0.42409292
1858 -0.4528476
1856 -0.46165484
1854 -0.46408081
1852 -0.40682378
1850 -0.31873667
1848 -0.13496792
1846 0.092049427
1844 0.21290495
1842 0.2619642
1840 0.10174688
1838 -0.14841396
1836 -0.38447273
1834 -0.5824911
1832 -0.67217076
1830 -0.69208378
1828 -0.61815619
1826 -0.52382362
1824 -0.44099373
1822 -0.40844786
1820 -0.4755376
1818 -0.57462895
1816 -0.68418425
1814 -0.73855084
1812 -0.71808618
1810 -0.65253383
1808 -0.55688596
1806 -0.44697949
1804 -0.32931688
1802 -0.15950829
1800 0.047231689
1798 0.25051802
1796 0.44155145
1794 0.48149002
1792 0.42737082
1790 0.28214294
1788 0.10127121
1786 -0.0018563848
1784 -0.047626503
1782 -0.046697415
1780 -0.0053193187
1778 0.091895774
1776 0.21821542
1774 0.33781719
1772 0.39520165
1770 0.32035688
1768 0.17247075
1766 0.031036986
1764 -0.04385842
1762 -0.022510769
1760 0.042381052
1758 0.00012676045
1756 -0.083673924
1754 -0.13833848
1752 -0.067461051
1750 0.13141683
1748 0.36743343
1746 0.61019212
1744 0.66754884
1742 0.5692867
1740 0.42463794
1738 0.26075661
1736 0.216436
1734 0.25097841
1732 0.20442075
1730 0.097657219
1728 -0.12061211
1726 -0.37256151
1724 -0.4613378
1722 -0.36831331
1720 0.023803145
1718 0.65336877
1716 1.629986
1714 2.7433295
1712 3.7389977
1710 4.6541252
1708 5.4806218
1706 6.4581041
1704 7.7632093
1702 9.6089735
1700 12.103306
1698 15.115871
1696 18.553858
1694 21.79063
1692 24.581654
1690 27.084934
1688 29.376411
1686 32.141815
1684 35.435833
1682 39.25098
1680 43.480198
1678 47.268024
1676 50.6478
1674 53.984749
1672 57.327053
1670 61.09008
1668 65.156799
1666 69.209351
1664 73.214478
1662 77.001244
1660 80.551727
1658 83.769577
1656 86.714912
1654 89.464333
1652 92.047081
1650 94.52919
1648 96.396095
1646 97.304718
1644 97.347466
1642 96.671921
1640 95.412041
1638 93.688942
1636 91.179688
1634 87.871857
1632 84.134094
1630 80.168518
1628 76.301949
1626 72.57785
1624 68.703918
1622 64.649559
1620 60.506931
1618 56.300686
1616 52.163857
1614 48.146343
1612 44.52898
1610 41.35318
1608 38.678371
1606 36.460106
1604 34.493279
1602 32.765835
1600 31.213388
1598 29.856672
1596 28.692001
1594 27.718779
1592 26.914543
1590 26.258564
1588 25.716284
1586 25.313765
1584 25.045868
1582 24.967831
1580 25.083591
1578 25.471029
1576 26.149885
1574 27.058903
1572 28.191219
1570 29.303686
1568 30.349401
1566 31.256929
1564 32.012058
1562 32.856743
1560 33.860703
1558 35.542107
1556 37.873417
1554 40.26207
1552 42.599422
1550 44.341995
1548 45.585419
1546 46.738358
1544 47.807053
1542 48.855274
1540 49.624622
1538 49.88612
1536 49.63937
1534 48.960438
1532 48.14547
1530 47.400246
1528 46.697704
1526 46.0163
1524 45.214867
1522 44.234818
1520 42.852726
1518 41.006084
1516 39.022171
1514 36.981403
1512 35.11956
1510 33.45034
1508 31.375368
1506 28.735929
1504 25.876492
1502 22.847742
1500 20.243586
1498 18.121861
1496 16.060286
1494 14.033347
1492 11.951546
1490 9.8195448
1488 7.7273817
1486 5.7250805
1484 3.883322
1482 2.329026
1480 1.1350657
1478 0.35690212
1476 0.099735714
1474 0.42089698
1472 1.2187865
1470 2.091604
1468 2.8505402
1466 3.5541842
1464 4.1700859
1462 4.8389983
1460 5.6189008
1458 6.2920642
1456 6.7783999
1454 6.9099669
1452 6.5652852
1450 6.1423869
1448 5.6517439
1446 5.1940322
1444 4.7805562
1442 4.4082141
1440 4.0817103
1438 3.8030658
1436 3.5326114
1434 3.1923199
1432 2.7575302
1430 2.2682991
1428 1.804232
1426 1.4772507
1424 1.3272126
1422 1.3608665
1420 1.5097685
1418 1.7099115
1416 1.8877028
1414 1.9768291
1412 2.0757351
1410 2.2130995
1408 2.4410548
1406 2.80742
1404 3.2391291
1402 3.7615969
1400 4.2762198
1398 4.7654686
1396 5.1673002
1394 5.4226437
1392 5.5602093
1390 5.5375977
1388 5.4381628
1386 5.2296448
1384 4.9671011
1382 4.6391835
1380 4.3302102
1378 4.0487614
1376 3.8280914
1374 3.6425848
1372 3.4533598
1370 3.2461603
1368 2.9864292
1366 2.6864944
1364 2.3276181
1362 1.9106812
1360 1.4511143
1358 0.99532568
1356 0.60579669
1354 0.30435055
1352 0.12106048
1350 0.012504092
1348 -0.035304427
1346 -0.091546394
1344 -0.029736044
1342 0.084732488
1340 0.27696165
1338 0.43483767
1336 0.52414513
1334 0.52961785
1332 0.43859208
1330 0.34166789
1328 0.25317565
1326 0.22337721
1324 0.26664567
1322 0.3944822
1320 0.60738391
1318 0.85654926
1316 1.11408
1314 1.3050218
1312 1.4274732
1310 1.460909
1308 1.4431405
1306 1.3996757
1304 1.3526314
1302 1.32683
1300 1.3124046
1298 1.3194546
1296 1.3349571
1294 1.3691921
1292 1.4158992
1290 1.4919358
1288 1.565896
1286 1.6275293
1284 1.6677756
1282 1.6631107
1280 1.6740817
1278 1.7273548
1276 1.8283828
1274 2.0123479
1272 2.2103548
1270 2.4222918
1268 2.6268959
1266 2.8307743
1264 3.0567331
1262 3.3232601
1260 3.6301
1258 3.9854155
1256 4.3829775
1254 4.8279676
1252 5.3277173
1250 5.8745723
1248 6.4653225
1246 7.0738502
1244 7.6775665
1242 8.2622356
1240 8.7957926
1238 9.2854366
1236 9.6753101
1234 9.997201
1232 10.15532
1230 10.239666
1228 10.134491
1226 9.9752617
1224 9.6723347
1222 9.3356371
1220 8.9213467
1218 8.4963036
1216 8.0511456
1214 7.6016002
1212 7.1412916
1210 6.6664128
1208 6.1704016
1206 5.6632671
1204 5.1447258
1202 4.6228971
1200 4.0970359
1198 3.5668359
1196 3.0335286
1194 2.5033772
1192 1.9864926
1190 1.5178781
1188 1.0923413
1186 0.75798863
1184 0.47615087
1182 0.28796643
1180 0.14533916
1178 0.09884467
1176 0.082037196
1174 0.13033304
1172 0.17743072
1170 0.20708993
1168 0.21647629
1166 0.167422
1164 0.11085951
1162 0.038256098
1160 -0.019362491
1158 -0.048224539
1156 -0.071745947
1154 -0.089584179
1152 -0.11881274
1150 -0.16292632
1148 -0.20430821
1146 -0.23630929
1144 -0.23216012
1142 -0.18323083
1140 -0.062145837
1138 0.098843858
1136 0.32652801
1134 0.60885841
1132 0.94300079
1130 1.3015811
1128 1.6827302
1126 2.0729384
1124 2.4766014
1122 2.8795505
1120 3.2667918
1118 3.6428943
1116 3.9677687
1114 4.2802329
1112 4.5447011
1110 4.809896
1108 5.07897
1106 5.3605199
1104 5.674983
1102 6.0075045
1100 6.3789778
1098 6.7842097
1096 7.2422142
1094 7.7141433
1092 8.1975555
1090 8.641202
1088 9.0405579
1086 9.394474
1084 9.7110662
1082 10.009523
1080 10.290806
1078 10.52986
1076 10.742414
1074 10.890274
1072 11.011177
1070 11.082582
1068 11.135139
1066 11.127057
1064 11.10664
1062 11.053479
1060 10.998322
1058 10.940825
1056 10.872399
1054 10.7512
1052 10.599031
1050 10.344541
1048 10.0463
1046 9.6414499
1044 9.2057304
1042 8.71597
1040 8.2379827
1038 7.7827229
1036 7.3787799
1034 7.0342345
1032 6.7113328
1030 6.3996019
1028 6.0191083
1026 5.5878286
1024 5.1206384
1022 4.644681
1020 4.2699485
1018 3.9439139
1016 3.7185857
1014 3.5191977
1012 3.3068941
1010 3.0844676
1008 2.7731562
1006 2.4472563
1004 2.0388026
1002 1.6328197
1000 1.2490393
998 0.8855288
996 0.6118443
994 0.3597717
992 0.17630157
990 0.0083781928
988 -0.12289432
986 -0.24056958
984 -0.33475783
982 -0.40724462
980 -0.44961801
978 -0.45447218
976 -0.41740456
974 -0.33129677
972 -0.20385979
970 -0.03549625
968 0.15721978
966 0.35856351
964 0.56065118
962 0.70535237
960 0.82619023
958 0.81883544
956 0.78079844
954 0.65566099
952 0.519858
950 0.3752799
948 0.23180717
946 0.10772035
944 0.0
942 -0.00093015283
940 -0.024502501
938 0.096477889
936 0.21875742
934 0.34302169
932 0.42495015
930 0.41652593
928 0.39659932
926 0.35859364
924 0.34252
922 0.35260934
920 0.36826533
918 0.38953558
916 0.4102267
914 0.43089968
912 0.4463557
910 0.45787191
908 0.52211744
906 0.60385448
904 0.75275922
902 0.91667467
900 1.0319052
898 1.1385056
896 1.2122999
