##TITLE=Methyl Ethyl Ketone
##JCAMP-DX=4.24
##DATA TYPE=INFRARED SPECTRUM
##XUNITS=cm-1
##YUNITS=Absorbance
##FIRSTX=900
##LASTX=2300
##XYDATA=(X++(Y..Y))
2296 0.024251999
2294 0.024756279
2292 0.025260556
2290 0.025764836
2288 0.026270108
2286 0.026774392
2284 0.027278671
2282 0.027782951
2280 0.028288217
2278 0.028791521
2276 0.029296771
2274 0.029803034
2272 0.03030636
2270 0.030804733
2268 0.031314783
2266 0.031841688
2264 0.032324959
2262 0.032744821
2260 0.033330806
2258 0.034148607
2256 0.034351684
2254 0.03368964
2252 0.035313636
2250 0.040160161
2248 0.036513258
2246 0.016658358
2244 0.0031304732
2242 0.015145178
2240 0.02440892
2238 -0.004684913
2236 -0.082912296
2234 -0.20288059
2232 -0.31292698
2230 -0.35947505
2228 -0.33218795
2226 -0.24082001
2224 -0.12487
2222 -0.02646137
2220 0.036291782
2218 0.055903926
2216 0.038709398
2214 -0.0040406473
2212 -0.057471894
2210 -0.10580879
2208 -0.13383794
2206 -0.13085079
2204 -0.10380943
2202 -0.065792985
2200 -0.032777131
2198 -0.0170158
2196 -0.012362642
2194 -0.0066943527
2192 0.013037556
2190 0.055188097
2188 0.10826154
2186 0.15422522
2184 0.1741292
2182 0.15329301
2180 0.095147751
2178 0.013155014
2176 -0.06209138
2174 -0.097709864
2172 -0.073768713
2170 0.015508319
2168 0.13587072
2166 0.24106371
2164 0.28956231
2162 0.25325173
2160 0.15117349
2158 0.019941233
2156 -0.096606828
2154 -0.16208516
2152 -0.17905337
2150 -0.16486683
2148 -0.14257297
2146 -0.12949821
2144 -0.11307463
2142 -0.074797846
2140 -0.01497743
2138 0.053775169
2136 0.096767314
2134 0.081001222
2132 0.011877246
2130 -0.088212177
2128 -0.18452999
2126 -0.24603345
2124 -0.27339619
2122 -0.27913234
2120 -0.27623519
2118 -0.27281848
2116 -0.2576803
2114 -0.2165253
2112 -0.15198457
2110 -0.076563254
2108 -0.016656309
2106 0.00154318
2104 -0.026689865
2102 -0.09403988
2100 -0.1778378
2098 -0.25148544
2096 -0.29531714
2094 -0.2990731
2092 -0.27964962
2090 -0.26266754
2088 -0.26637068
2086 -0.29834449
2084 -0.33552811
2082 -0.34895831
2080 -0.33506101
2078 -0.3037838
2076 -0.27711299
2074 -0.27345657
2072 -0.2779384
2070 -0.26404631
2068 -0.21384446
2066 -0.12282193
2064 -0.025446948
2062 0.033536389
2060 0.032818504
2058 -0.03047091
2056 -0.12579063
2054 -0.21483007
2052 -0.28312683
2050 -0.33000386
2048 -0.36753553
2046 -0.4088825
2044 -0.45138559
2042 -0.48556352
2040 -0.50286371
2038 -0.49767888
2036 -0.47359413
2034 -0.4389933
2032 -0.40575555
2030 -0.3880918
2028 -0.40447229
2026 -0.4659985
2024 -0.54493922
2022 -0.5964244
2020 -0.57644999
2018 -0.46047986
2016 -0.30069
2014 -0.17693201
2012 -0.13984506
2010 -0.21047606
2008 -0.34954861
2006 -0.49535644
2004 -0.6046707
2002 -0.64998311
2000 -0.62731647
1998 -0.54872012
1996 -0.45049787
1994 -0.37501034
1992 -0.34463245
1990 -0.36655256
1988 -0.4263528
1986 -0.50349021
1984 -0.59235191
1982 -0.69240808
1980 -0.79135871
1978 -0.86866426
1976 -0.89494717
1974 -0.84514648
1972 -0.72942728
1970 -0.57976311
1968 -0.44631618
1966 -0.37845978
1964 -0.38876182
1962 -0.46471965
1960 -0.56740117
1958 -0.65134692
1956 -0.69445139
1954 -0.69191378
1952 -0.65882361
1950 -0.61940968
1948 -0.59746933
1946 -0.61105001
1944 -0.65717816
1942 -0.72027296
1940 -0.77705014
1938 -0.80624557
1936 -0.80912369
1934 -0.79919487
1932 -0.79065764
1930 -0.79270661
1928 -0.79546368
1926 -0.77803534
1924 -0.71550059
1922 -0.59188914
1920 -0.43581903
1918 -0.2965056
1916 -0.20711657
1914 -0.18148644
1912 -0.19626108
1910 -0.21784724
1908 -0.25335667
1906 -0.32787502
1904 -0.43925479
1902 -0.56013775
1900 -0.62839472
1898 -0.57922351
1896 -0.41493285
1894 -0.18484078
1892 0.029132679
1890 0.14152838
1888 0.11708669
1886 -0.037824135
1884 -0.26644984
1882 -0.49362093
1880 -0.67886102
1878 -0.80784732
1876 -0.88147002
1874 -0.90348631
1872 -0.86048061
1870 -0.73783296
1868 -0.56338376
1866 -0.39011008
1864 -0.26572874
1862 -0.22056161
1860 -0.23330306
1858 -0.25918964
1856 -0.28507715
1854 -0.32136992
1852 -0.38386446
1850 -0.48352391
1848 -0.60523725
1846 -0.71943104
1844 -0.80413646
1842 -0.84794223
1840 -0.85774183
1838 -0.84722924
1836 -0.81236929
1834 -0.7368533
1832 -0.6046021
1830 -0.41246235
1828 -0.20861731
1826 -0.067261472
1824 -0.032882046
1822 -0.11553515
1820 -0.27274421
1818 -0.43517959
1816 -0.55422717
1814 -0.60456878
1812 -0.58875531
1810 -0.52359086
1808 -0.41639298
1806 -0.27076849
1804 -0.11053668
1802 0.026047312
1800 0.10065603
1798 0.091107756
1796 0.040929999
1794 0.028579373
1792 0.090446837
1790 0.21986514
1788 0.36907175
1786 0.47709
1784 0.53190958
1782 0.55978763
1780 0.59366602
1778 0.6635282
1776 0.78585684
1774 0.95593303
1772 1.1152526
1770 1.1761168
1768 1.0855389
1766 0.83923542
1764 0.52201658
1762 0.25659943
1760 0.06483303
1758 -0.098643586
1756 -0.21787915
1754 -0.23051952
1752 -0.11502676
1750 0.10102493
1748 0.33544591
1746 0.48162785
1744 0.48204815
1742 0.34079942
1740 0.15683821
1738 0.0736655
1736 0.14008519
1734 0.3085508
1732 0.45645508
1730 0.4422518
1728 0.24687514
1726 -0.037494287
1724 -0.26478082
1722 -0.26989782
1720 0.076229304
1718 0.82960021
1716 1.8525785
1714 2.8804202
1712 3.7362185
1710 4.3748555
1708 4.9449759
1706 5.7303658
1704 6.997056
1702 8.9524164
1700 11.693991
1698 15.169963
1696 19.011143
1694 22.663752
1692 25.851206
1690 28.628153
1688 31.381548
1686 34.685158
1684 38.906982
1682 44.08807
1680 49.680359
1678 54.82814
1676 59.369457
1674 63.781818
1672 68.483231
1670 73.628868
1668 78.88295
1666 83.5896
1664 87.420052
1662 90.408081
1660 92.681602
1658 94.377205
1656 95.577713
1654 96.311707
1652 96.588722
1650 96.406189
1648 95.741722
1646 94.581818
1644 93.033058
1642 91.286858
1640 89.408119
1638 87.316933
1636 84.87011
1634 81.926926
1632 78.513748
1630 74.79184
1628 70.819626
1626 66.539642
1624 61.916603
1622 56.986362
1620 51.928223
1618 47.030746
1616 42.511971
1614 38.4855
1612 34.995064
1610 32.027779
1608 29.514114
1606 27.346529
1604 25.457943
1602 23.834093
1600 22.492086
1598 21.467274
1596 20.768
1594 20.365875
1592 20.215107
1590 20.263912
1588 20.484251
1586 20.87557
1584 21.443834
1582 22.206789
1580 23.233866
1578 24.638531
1576 26.506172
1574 28.859564
1572 31.596043
1570 34.504364
1568 37.41
1566 40.211021
1564 42.858349
1562 45.377869
1560 47.988823
1558 51.008682
1556 54.288914
1554 57.191639
1552 59.21508
1550 60.181252
1548 60.282749
1546 59.988358
1544 59.507507
1542 58.692425
1540 57.326118
1538 55.25391
1536 52.612999
1534 49.830357
1532 47.231094
1530 44.934303
1528 42.917835
1526 41.04385
1524 39.153732
1522 37.109146
1520 34.85767
1518 32.456947
1516 30.053829
1514 27.836567
1512 25.8174
1510 23.797754
1508 21.587595
1506 19.099743
1504 16.463606
1502 14.008505
1500 11.927523
1498 10.192104
1496 8.6975145
1494 7.3183031
1492 5.9985452
1490 4.7651005
1488 3.6242726
1486 2.5445242
1484 1.5359836
1482 0.6726644
1480 0.049256802
1478 -0.22638038
1476 -0.021024704
1474 0.78983498
1472 2.134851
1470 3.7103801
1468 5.2502866
1466 6.619905
1464 7.8114796
1462 8.9382877
1460 10.099174
1458 11.321596
1456 12.5204
1454 13.496501
1452 14.101972
1450 14.301985
1448 14.1518
1446 13.788143
1444 13.33194
1442 12.85236
1440 12.371212
1438 11.856135
1436 11.239443
1434 10.436157
1432 9.4448366
1430 8.3824701
1428 7.3952661
1426 6.6203113
1424 6.121706
1422 5.8623037
1420 5.7717752
1418 5.769835
1416 5.8043284
1414 5.8687792
1412 5.9835877
1410 6.1885452
1408 6.5029984
1406 6.907537
1404 7.3564582
1402 7.7784023
1400 8.0966959
1398 8.2410688
1396 8.1734495
1394 7.9049449
1392 7.4799323
1390 6.9725623
1388 6.4469814
1386 5.9410496
1384 5.4810934
1382 5.0818353
1380 4.7382097
1378 4.4184465
1376 4.0792999
1374 3.674026
1372 3.1854062
1370 2.6413703
1368 2.0740509
1366 1.5056958
1364 0.94992322
1362 0.41485929
1360 -0.065466642
1358 -0.41835648
1356 -0.58259243
1354 -0.53190947
1352 -0.26733407
1350 0.17698541
1348 0.7464031
1346 1.3697643
1344 1.9979761
1342 2.6213639
1340 3.2277405
1338 3.7825572
1336 4.2227459
1334 4.4554243
1332 4.4313221
1330 4.1861553
1328 3.7915096
1326 3.3438485
1324 2.9297678
1322 2.6054106
1320 2.3946636
1318 2.2772219
1316 2.2137301
1314 2.1522903
1312 2.0556223
1310 1.9174114
1308 1.7467635
1306 1.5668551
1304 1.3996818
1302 1.260391
1300 1.1661406
1298 1.140653
1296 1.2126428
1294 1.4148844
1292 1.7677972
1290 2.2652309
1288 2.87796
1286 3.5462637
1284 4.2058492
1282 4.7990232
1280 5.284358
1278 5.6493359
1276 5.9005175
1274 6.0670991
1272 6.1852779
1270 6.2940588
1268 6.4311252
1266 6.6295671
1264 6.9163909
1262 7.308497
1260 7.811326
1258 8.4140234
1256 9.1062908
1254 9.8857803
1252 10.752249
1250 11.704903
1248 12.734789
1246 13.818001
1244 14.922926
1242 16.009758
1240 17.021355
1238 17.873848
1236 18.481314
1234 18.767691
1232 18.685881
1230 18.240852
1228 17.465042
1226 16.421021
1224 15.180012
1222 13.813808
1220 12.40686
1218 11.06318
1216 9.8861885
1214 8.9672194
1212 8.3662024
1210 8.0857391
1208 8.088419
1206 8.2807722
1204 8.5463095
1202 8.751255
1200 8.7797518
1198 8.5665178
1196 8.0893784
1194 7.3940668
1192 6.5534277
1190 5.6630063
1188 4.8122063
1186 4.0635943
1184 3.4524822
1182 2.9685986
1180 2.5890839
1178 2.2881787
1176 2.0476198
1174 1.866907
1172 1.7483577
1170 1.6908624
1168 1.6916039
1166 1.7448835
1164 1.836632
1162 1.935676
1160 2.0023274
1158 1.9894745
1156 1.8668799
1154 1.6475894
1152 1.3623983
1150 1.0583327
1148 0.77632201
1146 0.53381896
1144 0.34138504
1142 0.20410079
1140 0.10958395
1138 0.010981433
1136 -0.11832986
1134 -0.23881349
1132 -0.30449381
1130 -0.2938228
1128 -0.21028452
1126 -0.10249776
1124 -0.021335959
1122 0.00501265
1120 -0.027271919
1118 -0.076923773
1116 -0.10156094
1114 -0.083886534
1112 -0.024699386
1110 0.046431482
1108 0.10402626
1106 0.15007001
1104 0.19342034
1102 0.24365413
1100 0.31051093
1098 0.40411392
1096 0.5383057
1094 0.73518544
1092 1.0080632
1090 1.3422823
1088 1.7143629
1086 2.0956836
1084 2.4580324
1082 2.7768281
1080 3.0269852
1078 3.180243
1076 3.2164199
1074 3.1395631
1072 2.9703097
1070 2.757026
1068 2.551481
1066 2.3946135
1064 2.3108239
1062 2.2851691
1060 2.2896578
1058 2.2877467
1056 2.2497745
1054 2.1711051
1052 2.0574248
1050 1.925792
1048 1.7947235
1046 1.6795821
1044 1.5976748
1042 1.5732363
1040 1.6239874
1038 1.7436676
1036 1.90959
1034 2.0689809
1032 2.1735771
1030 2.2098827
1028 2.1787081
1026 2.0970771
1024 1.9790828
1022 1.8195751
1020 1.6144326
1018 1.3776094
1016 1.1231136
1014 0.85255957
1012 0.56233311
1010 0.24433157
1008 -0.094093621
1006 -0.39589444
1004 -0.61177063
1002 -0.75507277
1000 -0.86424851
998 -1.0067358
996 -1.2320929
994 -1.5106781
992 -1.7925572
990 -2.0264466
988 -2.1753192
986 -2.2495594
984 -2.269763
982 -2.25137
980 -2.2007079
978 -2.0985367
976 -1.9265543
974 -1.688866
972 -1.4052511
970 -1.1276871
968 -0.90642184
966 -0.75875747
964 -0.68429393
962 -0.65075451
960 -0.62271857
958 -0.58121669
956 -0.51611286
954 -0.43354389
952 -0.3417272
950 -0.24210852
948 -0.13817365
946 -0.046277434
944 0.025606684
942 0.1104423
940 0.24538769
938 0.4458704
936 0.71088684
934 0.9994657
932 1.2611805
930 1.4480817
928 1.5276382
926 1.5239092
924 1.472684
922 1.4021598
920 1.3417302
918 1.3332839
916 1.4164672
914 1.6114397
912 1.92636
910 2.343008
908 2.8333907
906 3.3563864
904 3.8570862
902 4.2383089
900 4.4263568
898 4.4811211
896 4.4959002
