##TITLE=Methyl Ethyl Ketone
##JCAMP-DX=4.24
##DATA TYPE=INFRARED SPECTRUM
##XUNITS=cm-1
##YUNITS=Absorbance
##FIRSTX=900
##LASTX=2300
##XYDATA=(X++(Y..Y))
2296 0.13266
2294 0.13541605
2292 0.13818209
2290 0.14093816
2288 0.14370418
2286 0.14646028
2284 0.14921634
2282 0.15198229
2280 0.15473846
2278 0.15749452
2276 0.16026042
2274 0.16302647
2272 0.16578269
2270 0.16852893
2268 0.1712946
2266 0.17410958
2264 0.17681806
2262 0.17939734
2260 0.18233414
2258 0.18575662
2256 0.18788029
2254 0.1881631
2252 0.19329375
2250 0.20527849
2248 0.19921938
2246 0.15215464
2244 0.078751653
2242 0.005437179
2240 -0.03670501
2238 -0.028174475
2236 -0.0011296599
2234 0.0071699172
2232 -0.001741335
2230 -0.014709307
2228 -0.01727467
2226 0.0019338002
2224 0.040795155
2222 0.09420298
2220 0.16097185
2218 0.23862478
2216 0.31451514
2214 0.37497798
2212 0.41451898
2210 0.43269125
2208 0.43923101
2206 0.44598159
2204 0.46087343
2202 0.48952124
2200 0.5332846
2198 0.58924913
2196 0.64239782
2194 0.67453206
2192 0.66970605
2190 0.61807323
2188 0.53141421
2186 0.43016571
2184 0.34203401
2182 0.29050091
2180 0.27266446
2178 0.27501792
2176 0.27573401
2174 0.25862652
2172 0.24083038
2170 0.247905
2168 0.2946701
2166 0.38237521
2164 0.47214067
2162 0.51920396
2160 0.50927764
2158 0.44689652
2156 0.37022001
2154 0.32014424
2152 0.30302531
2150 0.31077316
2148 0.32586241
2146 0.33335036
2144 0.34089616
2142 0.36122099
2140 0.39496103
2138 0.43747184
2136 0.48082888
2134 0.51798683
2132 0.54990405
2130 0.57794267
2128 0.59320557
2126 0.58548319
2124 0.55477065
2122 0.50804645
2120 0.46524504
2118 0.44609901
2116 0.45033684
2114 0.46825111
2112 0.48244625
2110 0.47755033
2108 0.4573198
2106 0.43294892
2104 0.4160949
2102 0.41575038
2100 0.43010959
2098 0.45350367
2096 0.48135713
2094 0.50825042
2092 0.52293229
2090 0.51466513
2088 0.48426092
2086 0.43949699
2084 0.39765462
2082 0.37545443
2080 0.3723332
2078 0.38085949
2076 0.39413044
2074 0.40745053
2072 0.4230068
2070 0.44330579
2068 0.46065006
2066 0.46467206
2064 0.45170656
2062 0.4236612
2060 0.39328456
2058 0.37468079
2056 0.36945084
2054 0.37367952
2052 0.38337302
2050 0.39523333
2048 0.40814945
2046 0.42121428
2044 0.43065119
2042 0.43292215
2040 0.43075114
2038 0.42946324
2036 0.43376043
2034 0.44741181
2032 0.47200948
2030 0.5067122
2028 0.54420972
2026 0.57518613
2024 0.59365475
2022 0.59632176
2020 0.58437788
2018 0.56027222
2016 0.523884
2014 0.47737727
2012 0.43805194
2010 0.42550904
2008 0.43943059
2006 0.46625978
2004 0.47662452
2002 0.44151899
2000 0.36193371
1998 0.25568908
1996 0.15085
1994 0.074889183
1992 0.036089081
1990 0.031525668
1988 0.050253801
1986 0.079109639
1984 0.10923668
1982 0.13451061
1980 0.15072775
1978 0.15633222
1976 0.15782914
1974 0.1658293
1972 0.1919834
1970 0.24202794
1968 0.29541612
1966 0.32161123
1964 0.30325365
1962 0.2374301
1960 0.15099759
1958 0.079853296
1956 0.036797184
1954 0.019666303
1952 0.016802387
1950 0.0149085
1948 0.010454859
1946 0.0049476251
1944 -0.0013033893
1942 -0.0092879068
1940 -0.021187978
1938 -0.03824928
1936 -0.055324201
1934 -0.064962268
1932 -0.064485461
1930 -0.05554558
1928 -0.046435297
1926 -0.043836519
1924 -0.033010066
1922 0.0088231992
1920 0.088159963
1918 0.1980069
1916 0.31533256
1914 0.41350636
1912 0.48494908
1910 0.5308913
1908 0.54246795
1906 0.50709534
1904 0.42461041
1902 0.30867219
1900 0.20064597
1898 0.14923921
1896 0.16994858
1894 0.24972677
1892 0.33849764
1890 0.37533802
1888 0.33639902
1886 0.22761114
1884 0.084671676
1882 -0.048924427
1880 -0.16164306
1878 -0.26234445
1876 -0.36156702
1874 -0.4631485
1872 -0.54537666
1870 -0.57641512
1868 -0.54595619
1866 -0.46289071
1864 -0.35802346
1862 -0.26835218
1860 -0.20639734
1858 -0.16930878
1856 -0.15662372
1854 -0.17122546
1852 -0.21712852
1850 -0.2962777
1848 -0.39982522
1846 -0.51104283
1844 -0.60791188
1842 -0.66944861
1840 -0.69084889
1838 -0.67835599
1836 -0.6411556
1834 -0.5844537
1832 -0.49233001
1830 -0.34381592
1828 -0.15569437
1826 0.027228024
1824 0.14932984
1822 0.16392183
1820 0.082880184
1818 -0.044161879
1816 -0.17045583
1814 -0.26244786
1812 -0.31790486
1810 -0.35095814
1808 -0.36007079
1806 -0.3356615
1804 -0.28927991
1802 -0.24895829
1800 -0.24695127
1798 -0.30492908
1796 -0.39208072
1794 -0.44653004
1792 -0.4269028
1790 -0.31852022
1788 -0.14499417
1786 0.046812169
1784 0.21327753
1782 0.32066506
1780 0.35654965
1778 0.32817391
1776 0.26813999
1774 0.2202135
1772 0.20621872
1770 0.2234178
1768 0.23669498
1766 0.20280243
1764 0.1360928
1762 0.081763074
1760 0.024986789
1758 -0.083823346
1756 -0.228504
1754 -0.34483176
1752 -0.39714304
1750 -0.38501
1748 -0.34041363
1746 -0.31250894
1744 -0.3376556
1742 -0.42668465
1740 -0.52883941
1738 -0.5593555
1736 -0.48059398
1734 -0.3090055
1732 -0.11915942
1730 -0.0095233051
1728 -0.013058525
1726 -0.097839959
1724 -0.18721865
1722 -0.1764912
1720 0.047828108
1718 0.57495934
1716 1.3666981
1714 2.2873378
1712 3.2105184
1710 4.0620413
1708 4.9079223
1706 5.9278908
1704 7.3326769
1702 9.3266954
1700 12.048294
1698 15.508818
1696 19.382286
1694 23.129292
1692 26.436867
1690 29.291809
1688 32.034435
1686 35.231773
1684 39.320187
1682 44.453243
1680 50.132118
1678 55.477081
1676 60.25383
1674 64.858734
1672 69.723236
1670 75.090477
1668 80.665771
1666 85.769249
1664 89.995216
1662 93.275185
1660 95.68335
1658 97.351776
1656 98.365028
1654 98.757179
1652 98.570854
1650 97.873589
1648 96.76783
1646 95.38607
1644 93.866653
1642 92.315002
1640 90.676476
1638 88.748993
1636 86.313644
1634 83.207718
1632 79.486908
1630 75.380501
1628 71.024261
1626 66.43042
1624 61.601078
1622 56.574509
1620 51.499393
1618 46.614998
1616 42.110657
1614 38.099224
1612 34.643658
1610 31.757881
1608 29.382538
1606 27.400999
1604 25.721661
1602 24.297899
1600 23.116972
1598 22.190361
1596 21.529999
1594 21.139366
1592 21.011995
1590 21.134449
1588 21.488337
1586 22.049286
1584 22.780092
1582 23.64521
1580 24.678413
1578 25.986433
1576 27.696571
1574 29.91223
1572 32.587284
1570 35.52206
1568 38.502399
1566 41.350285
1564 43.964222
1562 46.353813
1560 48.722744
1558 51.377827
1556 54.236271
1554 56.793209
1552 58.617851
1550 59.511375
1548 59.588776
1546 59.208714
1544 58.497082
1542 57.278095
1540 55.409519
1538 52.905537
1536 50.042515
1534 47.306042
1532 44.957737
1530 42.944157
1528 41.128292
1526 39.355
1524 37.479519
1522 35.392975
1520 33.083046
1518 30.652058
1516 28.260672
1514 26.072809
1512 24.06996
1510 22.029579
1508 19.780479
1506 17.297092
1504 14.744194
1502 12.442016
1500 10.547934
1498 8.9797459
1496 7.5989428
1494 6.2753696
1492 4.9625874
1490 3.7120028
1488 2.57616
1486 1.5845194
1484 0.76808536
1482 0.16390558
1480 -0.19831628
1478 -0.2896122
1476 -0.029336125
1474 0.70064688
1472 1.8781835
1470 3.2981529
1468 4.7544518
1466 6.1067863
1464 7.3161511
1462 8.4525642
1460 9.5855398
1458 10.740671
1456 11.863
1454 12.810472
1452 13.461728
1450 13.756513
1448 13.699217
1446 13.361215
1444 12.819312
1442 12.133551
1440 11.341549
1438 10.452601
1436 9.4693174
1434 8.4035816
1432 7.3171625
1430 6.331687
1428 5.539084
1426 4.9674573
1424 4.6047521
1422 4.4046531
1420 4.3262711
1418 4.3479691
1416 4.4589314
1414 4.6571207
1412 4.9406505
1410 5.3041892
1408 5.736649
1406 6.2168427
1404 6.7050252
1402 7.1370697
1400 7.4399681
1398 7.5438399
1396 7.4237499
1394 7.1226888
1392 6.7156019
1390 6.2955623
1388 5.921217
1386 5.5933399
1384 5.2964129
1382 5.009594
1380 4.7107468
1378 4.3773851
1376 3.9850116
1374 3.5106261
1372 2.953738
1370 2.3472362
1368 1.7275885
1366 1.1246272
1364 0.56233382
1362 0.060758039
1360 -0.34464896
1358 -0.59752989
1356 -0.66303086
1354 -0.54721004
1352 -0.26392215
1350 0.17244866
1348 0.73199022
1346 1.362275
1344 2.0174079
1342 2.6678381
1340 3.2743332
1338 3.7775643
1336 4.1246285
1334 4.2836761
1332 4.2509365
1330 4.0606718
1328 3.7569056
1326 3.3857634
1324 2.9957342
1322 2.6358371
1320 2.3409753
1318 2.1203778
1316 1.9639499
1314 1.8406463
1312 1.7231942
1310 1.5999093
1308 1.4699489
1306 1.3453143
1304 1.2390835
1302 1.162648
1300 1.1323286
1298 1.1735808
1296 1.3136142
1294 1.5764134
1292 1.9709785
1290 2.4791873
1288 3.066592
1286 3.681488
1284 4.2741022
1282 4.8067679
1280 5.2532897
1278 5.6044636
1276 5.8610754
1274 6.0359769
1272 6.1516323
1270 6.2426906
1268 6.3446317
1266 6.4891691
1264 6.7037058
1262 7.0095191
1260 7.4259181
1258 7.9704323
1256 8.6531372
1254 9.4703178
1252 10.407845
1250 11.438097
1248 12.527589
1246 13.6345
1244 14.714277
1242 15.714395
1240 16.583319
1238 17.27125
1236 17.733086
1234 17.930931
1232 17.833881
1230 17.417635
1228 16.678261
1226 15.645836
1224 14.378874
1222 12.976521
1220 11.549323
1218 10.215483
1216 9.0765514
1214 8.198103
1212 7.6164484
1210 7.3259797
1208 7.2889156
1206 7.4209051
1204 7.617846
1202 7.7608161
1200 7.750093
1198 7.5373459
1196 7.1097713
1194 6.5056458
1192 5.7792072
1190 4.992856
1188 4.2044554
1186 3.4566913
1184 2.7852879
1182 2.217561
1180 1.7743168
1178 1.4649115
1176 1.28458
1174 1.2040322
1172 1.1897063
1170 1.2115717
1168 1.2482983
1166 1.2960578
1164 1.3536749
1162 1.416823
1160 1.4726268
1158 1.4915617
1156 1.4417229
1154 1.297659
1152 1.055859
1150 0.75955045
1148 0.46405458
1146 0.22465622
1144 0.078193009
1142 0.017041989
1140 0.0095118443
1138 -0.0047922544
1136 -0.068268336
1134 -0.16472629
1132 -0.26453477
1130 -0.34005851
1128 -0.37054259
1126 -0.35185897
1124 -0.29535195
1122 -0.23943995
1120 -0.223194
1118 -0.26958725
1116 -0.3813383
1114 -0.52123678
1112 -0.64653385
1110 -0.72558588
1108 -0.73882866
1106 -0.69045699
1104 -0.59121573
1102 -0.45391589
1100 -0.29116625
1098 -0.11306138
1096 0.077802852
1094 0.29679111
1092 0.56618559
1090 0.91335237
1088 1.35116
1086 1.8507886
1084 2.3664734
1082 2.8351457
1080 3.1941819
1078 3.3963301
1076 3.4164941
1074 3.2818773
1072 3.0482743
1070 2.812407
1068 2.6579142
1066 2.6044335
1064 2.6368761
1062 2.6891496
1060 2.6965625
1058 2.6336761
1056 2.4983742
1054 2.3258517
1052 2.1541398
1050 2.0028601
1048 1.8816321
1046 1.7839357
1044 1.7107995
1042 1.6960374
1040 1.778072
1038 1.9842122
1036 2.31268
1034 2.6857607
1032 3.0072954
1030 3.184695
1028 3.1573045
1026 2.9567442
1024 2.6457326
1022 2.3107829
1020 2.0259485
1018 1.8090099
1016 1.6549971
1014 1.5312631
1012 1.4034206
1010 1.2525904
1008 1.0667081
1006 0.84291255
1004 0.58178782
1002 0.28678802
1000 -0.035832614
998 -0.37310258
996 -0.70666146
994 -1.0064659
992 -1.2443817
990 -1.4079578
988 -1.4980477
986 -1.5449471
984 -1.5773629
982 -1.594141
980 -1.58161
978 -1.5103377
976 -1.3567286
974 -1.1307266
972 -0.85663396
970 -0.57864565
968 -0.34167033
966 -0.17516875
964 -0.08977659
962 -0.045355935
960 0.0058047548
958 0.093568176
956 0.22527272
954 0.34596613
952 0.39712521
950 0.3622019
948 0.2493332
946 0.11688528
944 0.031453189
942 0.043860734
940 0.17904803
938 0.38313788
936 0.59206802
934 0.77613866
932 0.92017949
930 1.0310736
928 1.1201074
926 1.1944778
924 1.258402
922 1.3080219
920 1.3354286
918 1.3247043
916 1.2674929
914 1.1903762
912 1.1351554
910 1.167605
908 1.3387966
906 1.6182972
904 1.9389126
902 2.167417
900 2.1942439
898 2.0696335
896 1.8834
