##TITLE=Methyl Ethyl Ketone
##JCAMP-DX=4.24
##DATA TYPE=INFRARED SPECTRUM
##XUNITS=cm-1
##YUNITS=Absorbance
##FIRSTX=900
##LASTX=2300
##XYDATA=(X++(Y..Y))
2296 -0.011877
2294 -0.012129638
2292 -0.01238128
2290 -0.012633916
2288 -0.012886555
2286 -0.013139193
2284 -0.01339084
2282 -0.01364347
2280 -0.013896109
2278 -0.01414776
2276 -0.014400385
2274 -0.014653024
2272 -0.01490468
2270 -0.015157302
2268 -0.01540994
2266 -0.015662577
2264 -0.015914241
2262 -0.016166855
2260 -0.016419495
2258 -0.01667116
2256 -0.01692377
2254 -0.01717641
2252 -0.017429048
2250 -0.017680721
2248 -0.017933326
2246 -0.018185964
2244 -0.00067581428
2242 0.031378143
2240 0.067051083
2238 0.10589325
2236 0.14512572
2234 0.22018018
2232 0.29571444
2230 0.32408723
2228 0.34236011
2226 0.29770598
2224 0.25591582
2222 0.24155238
2220 0.25280491
2218 0.3374559
2216 0.43926972
2214 0.56952155
2212 0.67206842
2210 0.72666287
2208 0.75235015
2206 0.74565381
2204 0.77091366
2202 0.82899994
2200 0.89686221
2198 0.97045439
2196 0.96911216
2194 0.92432964
2192 0.83784115
2190 0.73431486
2188 0.67978495
2186 0.6415484
2184 0.6488964
2182 0.66649884
2180 0.69417357
2178 0.72350776
2176 0.77148485
2174 0.82217795
2172 0.88416672
2170 0.94517899
2168 0.99430782
2166 1.0347136
2164 1.0476383
2162 1.0409136
2160 0.99107486
2158 0.93931335
2156 0.892299
2154 0.8823384
2152 0.92535913
2150 0.97096276
2148 1.0131695
2146 1.0100107
2144 0.96681064
2142 0.91202468
2140 0.85201591
2138 0.81271958
2136 0.78502887
2134 0.79077095
2132 0.81026572
2130 0.85373932
2128 0.9045096
2126 0.93393576
2124 0.95819265
2122 0.9570154
2120 0.94975048
2118 0.90373313
2116 0.84892768
2114 0.77020031
2112 0.69944698
2110 0.67974621
2108 0.6775313
2106 0.70546019
2104 0.72857535
2102 0.7310676
2100 0.73140281
2098 0.73312706
2096 0.76218283
2094 0.82656342
2092 0.9206717
2090 1.0402441
2088 1.1284726
2086 1.188215
2084 1.1852292
2082 1.1435537
2080 1.1054468
2078 1.0716009
2076 1.0694343
2074 1.0802655
2072 1.0742201
2070 1.0622178
2068 1.0293095
2066 0.99105817
2064 0.95852345
2062 0.92698509
2060 0.8990519
2058 0.8786568
2056 0.89602655
2054 0.93359077
2052 1.015401
2050 1.0911255
2048 1.1271045
2046 1.1230643
2044 1.055418
2042 0.98058128
2040 0.9150154
2038 0.88951361
2036 0.91197485
2034 0.96312678
2032 1.0332325
2030 1.081525
2028 1.1090057
2026 1.1123086
2024 1.1015257
2022 1.132217
2020 1.1850995
2018 1.2605349
2016 1.34506
2014 1.3495027
2012 1.327886
2010 1.2304196
2008 1.1151778
2006 1.022125
2004 0.94939935
2002 0.97605842
2000 1.0505525
1998 1.2177081
1996 1.41065
1994 1.6074886
1992 1.7684114
1990 1.8510551
1988 1.868744
1986 1.8129643
1984 1.7339292
1982 1.6466287
1980 1.58324
1978 1.5461777
1976 1.5417
1974 1.560441
1972 1.6010005
1970 1.6533326
1968 1.6898137
1966 1.7151371
1964 1.687058
1962 1.6335032
1960 1.575996
1958 1.5187856
1956 1.4862229
1954 1.4628186
1952 1.4197875
1950 1.374926
1948 1.3513505
1946 1.3406501
1944 1.3670206
1942 1.3890773
1940 1.3745825
1938 1.3419267
1936 1.2959057
1934 1.2636745
1932 1.260378
1930 1.2637419
1928 1.2574234
1926 1.234815
1924 1.190078
1922 1.141616
1920 1.0992771
1918 1.066792
1916 1.0488914
1914 1.0398918
1912 1.0347068
1910 1.0239395
1908 1.0069994
1906 0.99680674
1904 0.99201041
1902 1.0154061
1900 1.0536858
1898 1.1157441
1896 1.1889714
1894 1.2754977
1892 1.3560821
1890 1.3717099
1888 1.3314748
1886 1.1695507
1884 0.95700204
1882 0.73066717
1880 0.54565412
1878 0.46294692
1876 0.48499402
1874 0.62299961
1872 0.83645475
1870 1.0988524
1868 1.2592632
1866 1.2872572
1864 1.1418126
1862 0.86615616
1860 0.63034618
1858 0.45550531
1856 0.38007829
1854 0.36497012
1852 0.34287035
1850 0.30300465
1848 0.2172744
1846 0.099790648
1844 0.0068545081
1842 -0.073133878
1840 -0.035488222
1838 0.07454738
1836 0.29874027
1834 0.60007709
1832 0.99226868
1830 1.3833437
1828 1.6358491
1826 1.7062129
1824 1.4747137
1822 1.1115519
1820 0.73089695
1818 0.43045008
1816 0.26575285
1814 0.19215938
1812 0.17184694
1810 0.16529036
1808 0.15742765
1806 0.1681215
1804 0.20028162
1802 0.23386085
1800 0.2576468
1798 0.26426479
1796 0.25693929
1794 0.26682279
1792 0.29837719
1790 0.255905
1788 0.17431526
1786 0.063704103
1784 -0.051989757
1782 -0.10776453
1780 -0.12073126
1778 -0.096617751
1776 -0.016247626
1774 0.2174814
1772 0.53066623
1770 0.88168573
1768 1.1108817
1766 1.0160108
1764 0.73934317
1762 0.37607992
1760 0.085151255
1758 -0.20762502
1756 -0.43473402
1754 -0.51333839
1752 -0.47339022
1750 -0.3607235
1748 -0.31604993
1746 -0.3623057
1744 -0.57071394
1742 -0.89615124
1740 -1.1001228
1738 -1.1846943
1736 -1.04501
1734 -0.75693345
1732 -0.56454325
1730 -0.45159429
1728 -0.50654775
1726 -0.6411128
1724 -0.63187927
1722 -0.45549929
1720 0.093029708
1718 0.94702101
1716 2.0264513
1714 3.0621879
1712 3.7038977
1710 4.1216693
1708 4.4767079
1706 5.0575843
1704 6.0982342
1702 7.8195643
1700 10.316061
1698 13.579295
1696 17.525143
1694 21.440851
1692 25.01206
1690 28.252995
1688 31.214216
1686 34.711601
1684 38.81813
1682 43.500019
1680 48.624519
1678 53.075699
1676 56.917957
1674 60.776062
1672 64.706963
1670 69.151825
1668 73.935837
1666 78.460602
1664 82.747139
1662 86.761292
1660 90.536247
1658 94.098267
1656 97.410172
1654 100.39783
1652 102.8194
1650 104.42551
1648 104.66383
1646 103.21072
1644 100.70323
1642 97.729507
1640 94.620049
1638 91.564964
1636 88.128242
1634 84.180717
1632 79.913612
1630 75.447426
1628 71.048531
1626 66.758675
1624 62.30508
1622 57.663719
1620 53.103924
1618 48.653618
1616 44.516399
1614 40.714657
1612 37.337463
1610 34.394749
1608 31.822897
1606 29.599514
1604 27.60099
1602 25.870518
1600 24.458063
1598 23.386652
1596 22.633999
1594 22.146589
1592 21.819693
1590 21.617695
1588 21.493492
1586 21.498793
1584 21.653183
1582 21.98934
1580 22.502554
1578 23.24453
1576 24.225687
1574 25.397289
1572 26.749619
1570 28.112226
1568 29.451521
1566 30.777536
1564 32.091167
1562 33.596092
1560 35.361736
1558 37.778725
1556 40.797085
1554 43.649689
1552 46.200359
1550 48.001022
1548 49.162434
1546 50.242821
1544 51.276958
1542 52.372337
1540 53.193039
1538 53.326103
1536 52.647514
1534 51.126724
1532 49.242928
1530 47.455517
1528 45.841492
1526 44.457001
1524 43.164452
1522 41.899235
1520 40.492218
1518 38.899479
1516 37.201756
1514 35.406166
1512 33.563641
1510 31.636854
1508 29.254679
1506 26.28442
1504 23.257309
1502 20.256491
1500 17.767481
1498 15.86791
1496 14.095
1494 12.443069
1492 10.800786
1490 9.1344748
1488 7.3871431
1486 5.5770264
1484 3.771476
1482 2.1515253
1480 0.93830216
1478 0.20782931
1476 0.036389947
1474 0.39516869
1472 1.1837685
1470 2.039479
1468 2.7373452
1466 3.2857552
1464 3.6268096
1462 3.9716387
1460 4.4050012
1458 4.9608951
1456 5.69944
1454 6.31991
1452 6.7449307
1450 6.8867302
1448 6.6302886
1446 6.3030605
1444 5.8910871
1442 5.5593028
1440 5.3262091
1438 5.1503425
1436 4.9961071
1434 4.753808
1432 4.3916831
1430 3.9344902
1428 3.44539
1426 3.0467601
1424 2.8031173
1422 2.779783
1420 2.9495685
1418 3.289871
1416 3.6704571
1414 3.9623871
1412 4.1954455
1410 4.3428483
1408 4.5005183
1406 4.7204266
1404 4.9834847
1402 5.3193245
1400 5.6787558
1398 6.0710216
1396 6.4324212
1394 6.7374797
1392 6.9434462
1390 7.0045438
1388 6.9764504
1386 6.81288
1384 6.5650764
1382 6.1983585
1380 5.778173
1378 5.2948465
1376 4.8184257
1374 4.345799
1372 3.9120121
1370 3.5193918
1368 3.1498902
1366 2.7960064
1364 2.4091415
1362 1.9821191
1360 1.5133308
1358 1.0466833
1356 0.63821614
1354 0.31490126
1352 0.12074916
1350 0.0088646961
1348 0.017942786
1346 0.10342446
1344 0.25580639
1342 0.43879211
1340 0.66713524
1338 0.88541305
1336 1.0828571
1334 1.2124161
1332 1.2554392
1330 1.2876461
1328 1.3178303
1326 1.4018478
1324 1.5562227
1322 1.7780606
1320 2.0786567
1318 2.4403465
1316 2.8478
1314 3.2282624
1312 3.5582874
1310 3.7678366
1308 3.8804784
1306 3.907675
1304 3.8854206
1302 3.8471029
1300 3.8010187
1298 3.7620707
1296 3.7330859
1294 3.7347047
1292 3.7599788
1290 3.8345268
1288 3.9200759
1286 4.0187163
1284 4.1141706
1282 4.2041416
1280 4.2964721
1278 4.3956585
1276 4.4936914
1274 4.5853229
1272 4.6808128
1270 4.7836962
1268 4.9173703
1266 5.1049004
1264 5.3404222
1262 5.6418214
1260 5.9784999
1258 6.3494711
1256 6.7264571
1254 7.1109681
1252 7.5050178
1250 7.9165478
1248 8.3672953
1246 8.837225
1244 9.3124943
1242 9.7664185
1240 10.146948
1238 10.479362
1236 10.716671
1234 10.904521
1232 10.98628
1230 11.006408
1228 10.85782
1226 10.648256
1224 10.278346
1222 9.8833952
1220 9.4323568
1218 8.9825974
1216 8.5345116
1214 8.0777111
1212 7.6020613
1210 7.1022024
1208 6.5694575
1206 6.0290241
1204 5.4871039
1202 4.9728031
1200 4.4882722
1198 4.0289464
1196 3.5889857
1194 3.1572611
1192 2.7386291
1190 2.3555989
1188 2.0006225
1186 1.697795
1184 1.4242675
1182 1.2014754
1180 1.0166284
1178 0.93728751
1176 0.89815402
1174 0.96228051
1172 1.0320183
1170 1.1018325
1168 1.1632411
1166 1.2010622
1164 1.2347944
1162 1.25553
1160 1.2510737
1158 1.1908443
1156 1.0857753
1154 0.90661412
1152 0.70747489
1150 0.48806372
1148 0.3019374
1146 0.15871233
1144 0.063824698
1142 0.01524986
1140 -0.0016791623
1138 0.0071073174
1136 0.048489772
1134 0.12056856
1132 0.29165077
1130 0.52149522
1128 0.85983211
1126 1.233165
1124 1.6331735
1122 2.0247965
1120 2.348316
1118 2.6498904
1116 2.8677673
1114 3.0622542
1112 3.1625996
1110 3.2303793
1108 3.197124
1106 3.16587
1104 3.1458731
1102 3.1784112
1100 3.3170438
1098 3.5045452
1096 3.7703428
1094 4.0703545
1092 4.4143701
1090 4.7773066
1088 5.1543236
1086 5.5010576
1084 5.8069577
1082 5.9886751
1080 6.069068
1078 5.9539099
1076 5.7453756
1074 5.4955106
1072 5.260848
1070 5.2295275
1068 5.2682004
1066 5.4868097
1064 5.716784
1062 5.8582973
1060 5.9511023
1058 5.7587752
1056 5.5421429
1054 5.2231503
1052 4.9436617
1050 4.7890649
1048 4.6433611
1046 4.5149179
1044 4.3449259
1042 4.1012769
1040 3.8751464
1038 3.6794813
1036 3.5327702
1034 3.4393995
1032 3.3338246
1030 3.2088327
1028 3.0019555
1026 2.7333629
1024 2.4085162
1022 2.0577109
1020 1.7372403
1018 1.4281977
1016 1.1128883
1014 0.79657304
1012 0.48796993
1010 0.19366828
1008 0.048418798
1006 -0.07766857
1004 -0.12377343
1002 -0.18058619
1000 -0.31471771
998 -0.46235704
996 -0.66842139
994 -0.86460817
992 -1.0271183
990 -1.1488204
988 -1.17619
986 -1.1844764
984 -1.1614325
982 -1.1485859
980 -1.146858
978 -1.0928602
976 -0.98013604
974 -0.78721702
972 -0.52966768
970 -0.25709048
968 0.020481035
966 0.2314315
964 0.40744191
962 0.48884737
960 0.53877079
958 0.55728024
956 0.56763196
954 0.53694725
952 0.49739802
950 0.3606596
948 0.22119465
946 0.098173931
944 0.00060322322
942 0.019937605
940 0.096706465
938 0.34411478
936 0.5930357
934 0.84594566
932 1.0996751
930 1.3555465
928 1.6337795
926 1.9473987
924 2.259506
922 2.5696006
920 2.8924479
918 3.2263842
916 3.5044212
914 3.7428541
912 3.9253407
910 4.079309
908 4.4203238
906 4.8310399
904 5.2700458
902 5.7133293
900 5.7899489
898 5.8069468
896 5.6999998
