##TITLE=Methyl Ethyl Ketone
##JCAMP-DX=4.24
##DATA TYPE=INFRARED SPECTRUM
##XUNITS=cm-1
##YUNITS=Absorbance
##FIRSTX=900
##LASTX=2300
##XYDATA=(X++(Y..Y))
2296 0.21585999
2294 0.22035357
2292 0.22483717
2290 0.22933072
2288 0.23382428
2286 0.23830794
2284 0.24280144
2282 0.24729499
2280 0.25178856
2278 0.25627229
2276 0.2607657
2274 0.26525927
2272 0.26974303
2270 0.27422661
2268 0.2787298
2266 0.28327248
2264 0.28770852
2262 0.29199582
2260 0.29668888
2258 0.30195642
2256 0.30569428
2254 0.3072744
2252 0.31455523
2250 0.32989678
2248 0.32401699
2246 0.26614502
2244 0.15487014
2242 0.0086826701
2240 -0.10709333
2238 -0.13291235
2236 -0.085626371
2234 -0.0034519681
2232 0.077413812
2230 0.12893391
2228 0.15275472
2226 0.15868551
2224 0.15477577
2222 0.14652771
2220 0.13174297
2218 0.10949416
2216 0.093288541
2214 0.097138152
2212 0.11955784
2210 0.15319116
2208 0.18599144
2206 0.20782164
2204 0.22171812
2202 0.2337663
2200 0.24584028
2198 0.25924361
2196 0.27829713
2194 0.30677184
2192 0.34217942
2190 0.37833688
2188 0.40229648
2186 0.40392259
2184 0.39323801
2182 0.38618311
2180 0.3963981
2178 0.43216714
2176 0.4833883
2174 0.53502995
2172 0.57626969
2170 0.59854054
2168 0.59622872
2166 0.56788814
2164 0.52519667
2162 0.48673236
2160 0.48152
2158 0.53359675
2156 0.63268501
2154 0.7539168
2152 0.86097986
2150 0.92186356
2148 0.93712473
2146 0.9199186
2144 0.8884455
2142 0.85763711
2140 0.82308114
2138 0.77370393
2136 0.69933027
2134 0.59539276
2132 0.47824314
2130 0.37224954
2128 0.30395362
2126 0.29725251
2124 0.36270961
2122 0.4990575
2120 0.67629123
2118 0.85499376
2116 0.9996987
2114 1.087039
2112 1.13692
2110 1.1820081
2108 1.2421937
2106 1.3226814
2104 1.3907759
2102 1.406433
2100 1.35891
2098 1.2573298
2096 1.1442715
2094 1.0671587
2092 1.0420355
2090 1.0659386
2088 1.1087291
2086 1.135375
2084 1.1323659
2082 1.0996015
2080 1.0542361
2078 1.0188853
2076 1.0105814
2074 1.0414695
2072 1.11418
2070 1.2235873
2068 1.3468429
2066 1.4550337
2064 1.5214394
2062 1.5287848
2060 1.4926317
2058 1.4423231
2056 1.4067372
2054 1.4071555
2052 1.4359789
2050 1.4718864
2048 1.4871868
2046 1.4583786
2044 1.388314
2042 1.2942618
2040 1.2067977
2038 1.1566137
2036 1.1523014
2034 1.1900851
2032 1.2569417
2030 1.337001
2028 1.4180135
2026 1.4924214
2024 1.5653172
2022 1.6452905
2020 1.7313894
2018 1.815359
2016 1.8779
2014 1.903375
2012 1.91248
2010 1.9377714
2008 1.9898891
2006 2.062295
2004 2.1221035
2002 2.1319621
2000 2.0841067
1998 1.9879628
1996 1.8645929
1994 1.7396917
1992 1.6386069
1990 1.5829139
1988 1.579808
1986 1.6249107
1984 1.6946309
1982 1.7591943
1980 1.8004323
1978 1.8110278
1976 1.8026971
1974 1.796227
1972 1.8117779
1970 1.8609108
1968 1.9219275
1966 1.9587407
1964 1.9432483
1962 1.8625176
1960 1.746452
1958 1.6410153
1956 1.5712199
1954 1.5441307
1952 1.5418348
1950 1.5385604
1948 1.5255026
1946 1.506675
1944 1.5002028
1942 1.525327
1940 1.5777735
1938 1.6395155
1936 1.6873943
1934 1.6997346
1932 1.6681581
1930 1.5909456
1928 1.4648423
1926 1.2930493
1924 1.1125488
1922 0.97568458
1920 0.92145461
1918 0.96931499
1916 1.0911905
1914 1.2389895
1912 1.3872703
1910 1.5244646
1908 1.6365495
1906 1.7078922
1904 1.72682
1902 1.6928774
1900 1.6432711
1898 1.6312472
1896 1.6893857
1894 1.8235769
1892 1.9840071
1890 2.095794
1888 2.1086955
1886 2.0024736
1884 1.8151406
1882 1.6090354
1880 1.4141057
1878 1.2339083
1876 1.052773
1874 0.8557263
1872 0.67143822
1870 0.55250239
1868 0.53933567
1866 0.64798617
1864 0.83026797
1862 1.0095497
1860 1.1493599
1858 1.243434
1856 1.2953485
1854 1.3034574
1852 1.2284342
1850 1.0209129
1848 0.69181842
1846 0.30383357
1844 -0.025872685
1842 -0.17418814
1840 -0.12402914
1838 0.065261886
1836 0.30323043
1834 0.50402731
1832 0.65677577
1830 0.79618651
1828 0.94226754
1826 1.0942612
1824 1.2244811
1822 1.2965792
1820 1.30574
1818 1.267886
1816 1.1911886
1814 1.0781734
1812 0.94023979
1810 0.80083299
1808 0.70799708
1806 0.70622998
1804 0.75384277
1802 0.75426751
1800 0.63071299
1798 0.35757864
1796 0.049234148
1794 -0.10907125
1792 -0.028557282
1790 0.27733406
1788 0.67989773
1786 1.0036957
1784 1.1770846
1782 1.2132815
1780 1.1464202
1778 1.0154969
1776 0.86145627
1774 0.72340518
1772 0.62803769
1770 0.5840537
1768 0.5582546
1766 0.498175
1764 0.39398199
1762 0.26179793
1760 0.079691716
1758 -0.19123471
1756 -0.52088457
1754 -0.83442765
1752 -1.1010323
1750 -1.329177
1748 -1.5260683
1746 -1.6946501
1744 -1.8471121
1742 -1.9931588
1740 -2.0959363
1738 -2.0827572
1736 -1.8807601
1734 -1.4498127
1732 -0.88000828
1730 -0.34939837
1728 0.0084007978
1726 0.13211778
1724 0.075091027
1722 -0.021429699
1720 0.017189808
1718 0.35184389
1716 1.0142255
1714 1.9172878
1712 2.8973336
1710 3.7817576
1708 4.5647941
1706 5.3932476
1704 6.4806919
1702 8.0771351
1700 10.455432
1698 13.800119
1696 17.814287
1694 21.8531
1692 25.459085
1690 28.485119
1688 31.249765
1686 34.395527
1684 38.464752
1682 43.700127
1680 49.566238
1678 55.051472
1676 59.832058
1674 64.276588
1672 68.845009
1670 73.855026
1668 79.106964
1666 84.013054
1664 88.199677
1662 91.570885
1660 94.138847
1658 95.964607
1656 97.09623
1654 97.5765
1652 97.520821
1650 97.099098
1648 96.439072
1646 95.604034
1644 94.584137
1642 93.311676
1640 91.705994
1638 89.686981
1636 87.192413
1634 84.198166
1632 80.779106
1630 77.070656
1628 73.075867
1626 68.678391
1624 63.848358
1622 58.690796
1620 53.458961
1618 48.501358
1616 44.050774
1614 40.192692
1612 36.926296
1610 34.187981
1608 31.875692
1606 29.872065
1604 28.111076
1602 26.583948
1600 25.312252
1598 24.331316
1596 23.6525
1594 23.259365
1592 23.125034
1590 23.218637
1588 23.516232
1586 23.999407
1584 24.633018
1582 25.370689
1580 26.211157
1578 27.215216
1576 28.499485
1574 30.20859
1572 32.394894
1570 34.986927
1568 37.807961
1566 40.610023
1564 43.211067
1562 45.559513
1560 47.840992
1558 50.392544
1556 53.184601
1554 55.767101
1552 57.715633
1550 58.784733
1548 59.029774
1546 58.753716
1544 58.065598
1542 56.821098
1540 54.942558
1538 52.522614
1536 49.850945
1534 47.350502
1532 45.222141
1530 43.374218
1528 41.642639
1526 39.858749
1524 37.887409
1522 35.659012
1520 33.240532
1518 30.832371
1516 28.594471
1514 26.57408
1512 24.634399
1510 22.487165
1508 20.012691
1506 17.346907
1504 14.751566
1502 12.532616
1500 10.773329
1498 9.285284
1496 7.8833857
1494 6.4756722
1492 5.0782075
1490 3.8052678
1488 2.7326789
1486 1.8607342
1484 1.1658039
1482 0.61845702
1480 0.20799281
1478 -0.036916159
1476 -0.0058507174
1474 0.47899032
1472 1.4744272
1470 2.8563249
1468 4.4240942
1466 5.949163
1464 7.3059425
1462 8.5109959
1460 9.6138344
1458 10.659866
1456 11.654
1454 12.546045
1452 13.259166
1450 13.708073
1448 13.860297
1446 13.75375
1444 13.435903
1442 12.942511
1440 12.288629
1438 11.468506
1436 10.485393
1434 9.3703117
1432 8.2095804
1430 7.1474438
1428 6.2870822
1426 5.6533265
1424 5.2288918
1422 4.9662213
1420 4.836832
1418 4.8479128
1416 5.0109029
1414 5.3280616
1412 5.7767086
1410 6.3026261
1408 6.8507023
1406 7.3727612
1404 7.8149056
1402 8.1154346
1400 8.2275238
1398 8.1357327
1396 7.8710432
1394 7.5191503
1392 7.1597824
1390 6.841094
1388 6.5783195
1386 6.348855
1384 6.1264486
1382 5.8903785
1380 5.610713
1378 5.2447391
1376 4.7631855
1374 4.1667743
1372 3.4923439
1370 2.8157458
1368 2.185411
1366 1.59393
1364 1.0206456
1362 0.45185107
1360 -0.078113467
1358 -0.4683823
1356 -0.64125842
1354 -0.58027059
1352 -0.29203987
1350 0.19701979
1348 0.82775474
1346 1.5006821
1344 2.1356759
1342 2.7002211
1340 3.184957
1338 3.5984354
1336 3.9378886
1334 4.1754546
1332 4.2780628
1330 4.2187271
1328 4.0050106
1326 3.6985078
1324 3.3700562
1322 3.0809712
1320 2.8643568
1318 2.7095656
1316 2.5938401
1314 2.4925456
1312 2.3906319
1310 2.2902339
1308 2.19645
1306 2.1123843
1304 2.0394697
1302 1.97812
1300 1.9350246
1298 1.9289886
1296 1.9844571
1294 2.1291831
1292 2.3826442
1290 2.746907
1288 3.2095361
1286 3.7384984
1284 4.294488
1282 4.8331499
1280 5.312469
1278 5.6987944
1276 5.9731841
1274 6.1421943
1272 6.2351165
1270 6.3111796
1268 6.429739
1266 6.634644
1264 6.9466476
1262 7.3518119
1260 7.8373981
1258 8.4078341
1256 9.075469
1254 9.8583679
1252 10.763489
1250 11.773581
1248 12.868395
1246 14.03
1244 15.229032
1242 16.416225
1240 17.525942
1238 18.473322
1236 19.170958
1234 19.539314
1232 19.51936
1230 19.084118
1228 18.250803
1226 17.102556
1224 15.736491
1222 14.249125
1220 12.740726
1218 11.31454
1216 10.074217
1214 9.1119957
1212 8.4852657
1210 8.1830044
1208 8.1543131
1206 8.2987432
1204 8.5023918
1202 8.650115
1200 8.6451311
1198 8.4340105
1196 8.0005493
1194 7.3865814
1192 6.6517038
1190 5.8629861
1188 5.0755792
1186 4.3154659
1184 3.6019971
1182 2.9540358
1180 2.3916068
1178 1.9359052
1176 1.59816
1174 1.3676214
1172 1.2285945
1170 1.1670671
1168 1.1748034
1166 1.2545915
1164 1.4020588
1162 1.591195
1160 1.7840543
1158 1.9290234
1156 1.9850243
1154 1.9436727
1152 1.8145308
1150 1.6290092
1148 1.41467
1146 1.1777536
1144 0.92074209
1142 0.64850461
1140 0.36625004
1138 0.079600096
1136 -0.193046
1134 -0.40469781
1132 -0.5132091
1130 -0.50633079
1128 -0.3973285
1126 -0.24346113
1124 -0.11118421
1122 -0.059474621
1120 -0.1078534
1118 -0.18545136
1116 -0.21434213
1114 -0.1549471
1112 -0.00086294115
1110 0.19712
1108 0.39508614
1106 0.60044152
1104 0.83232999
1102 1.1072239
1100 1.42969
1098 1.7757382
1096 2.1205428
1094 2.4552875
1092 2.7884879
1090 3.1626577
1088 3.6110492
1086 4.1206069
1084 4.6448255
1082 5.081357
1080 5.3405213
1078 5.402792
1076 5.2861528
1074 5.0615158
1072 4.8009515
1070 4.5441918
1068 4.3146758
1066 4.113698
1064 3.9399641
1062 3.7997923
1060 3.7022204
1058 3.6570594
1056 3.6674829
1054 3.7165244
1052 3.7799723
1050 3.8282192
1048 3.8356178
1046 3.7926607
1044 3.7019486
1042 3.5888622
1040 3.4872241
1038 3.4379096
1036 3.4751899
1034 3.6075578
1032 3.8217795
1030 4.0591526
1028 4.2475109
1026 4.3089499
1024 4.1888223
1022 3.9064732
1020 3.5151982
1018 3.1148381
1016 2.7917571
1014 2.5558426
1012 2.3814371
1010 2.192054
1008 1.921504
1006 1.5741935
1004 1.1786733
1002 0.78450745
1000 0.43922526
998 0.16623618
996 -0.020824
994 -0.1216209
992 -0.15231258
990 -0.17051436
988 -0.23276334
986 -0.35821593
984 -0.53910929
982 -0.71042562
980 -0.79998642
978 -0.75936538
976 -0.56621683
974 -0.26529068
972 0.07720229
970 0.37983462
968 0.5795446
966 0.6882785
964 0.74415767
962 0.8104673
960 0.93557572
958 1.0950233
956 1.2381614
954 1.2866204
952 1.1777912
950 0.92935598
948 0.59244835
946 0.26678577
944 0.063728206
942 0.091955662
940 0.4109008
938 0.9055618
936 1.42634
934 1.8564142
932 2.1141257
930 2.2174437
928 2.2189209
926 2.2083864
924 2.275666
922 2.4766467
920 2.8357017
918 3.2903495
916 3.7563357
914 4.1483769
912 4.3931251
910 4.4634008
908 4.3523326
906 4.0875583
904 3.7327223
902 3.458055
900 3.4250567
898 3.6548848
896 4.1335001
