##TITLE=Methyl Ethyl Ketone
##JCAMP-DX=4.24
##DATA TYPE=INFRARED SPECTRUM
##XUNITS=cm-1
##YUNITS=Absorbance
##FIRSTX=900
##LASTX=2300
##XYDATA=(X++(Y..Y))
2296 0.0040726
2294 0.0041573788
2292 0.0042420579
2290 0.0043268362
2288 0.0044115153
2286 0.0044962936
2284 0.0045809732
2282 0.004665751
2280 0.004750431
2278 0.0048351097
2276 0.0049198871
2274 0.0050045671
2272 0.0050893445
2270 0.005174025
2268 0.0052588023
2266 0.0053434828
2264 0.0054282597
2262 0.0055129402
2260 0.0055977171
2258 0.0056823981
2256 0.0057671745
2254 0.005851856
2252 0.0059366319
2250 0.0060213138
2248 0.0061060893
2246 0.0061907712
2244 0.0049016457
2242 0.00018714086
2240 -0.015782401
2238 0.020633709
2236 0.064848959
2234 0.10061126
2232 0.13316566
2230 0.10765556
2228 0.077725761
2226 0.0346446
2224 -0.0051277364
2222 -0.026728252
2220 -0.043060187
2218 -0.046319321
2216 -0.053961374
2214 -0.072793625
2212 -0.10161342
2210 -0.14565326
2208 -0.1744632
2206 -0.18311557
2204 -0.15970032
2202 -0.10661957
2200 -0.051797614
2198 0.0028630402
2196 0.041788429
2194 0.071647719
2192 0.09305352
2190 0.11101531
2188 0.097274974
2186 0.073300786
2184 0.033204239
2182 -0.010452146
2180 -0.030311871
2178 -0.046691746
2176 -0.071656227
2174 -0.097408764
2172 -0.1229831
2170 -0.1426128
2168 -0.12829371
2166 -0.10781143
2164 -0.076873593
2162 -0.049885005
2160 -0.035678573
2158 -0.034209359
2156 -0.054434199
2154 -0.090658985
2152 -0.14682075
2150 -0.19762363
2148 -0.24005122
2146 -0.24548571
2144 -0.21897411
2142 -0.1668067
2140 -0.09909936
2138 -0.052742574
2136 -0.018876772
2134 -0.028162107
2132 -0.05511748
2130 -0.096706137
2128 -0.14245321
2126 -0.1567845
2124 -0.16373651
2122 -0.14645649
2120 -0.12649171
2118 -0.12737668
2116 -0.13387415
2114 -0.16002481
2112 -0.18594857
2110 -0.19821423
2108 -0.20201266
2106 -0.186297
2104 -0.16780715
2102 -0.14954032
2100 -0.1340584
2098 -0.12319257
2096 -0.11045286
2094 -0.094385684
2092 -0.083353758
2090 -0.078039587
2088 -0.091726132
2086 -0.12043551
2084 -0.15074626
2082 -0.18074429
2080 -0.20281938
2078 -0.22075123
2076 -0.25408256
2074 -0.29402775
2072 -0.33375239
2070 -0.37318841
2068 -0.38408056
2066 -0.38760921
2064 -0.37227023
2062 -0.3537038
2060 -0.3396185
2058 -0.3293556
2056 -0.33532456
2054 -0.34241703
2052 -0.34200114
2050 -0.33355904
2048 -0.30823869
2046 -0.28530213
2044 -0.27343321
2042 -0.27753279
2040 -0.30256802
2038 -0.33278376
2036 -0.36446714
2034 -0.38180625
2032 -0.38497368
2030 -0.3811067
2028 -0.37365291
2026 -0.3814002
2024 -0.39924282
2022 -0.42582759
2020 -0.45615619
2018 -0.48907986
2016 -0.52290601
2014 -0.56286466
2012 -0.60486943
2010 -0.62523043
2008 -0.63809329
2006 -0.62286413
2004 -0.6012122
2002 -0.58466667
2000 -0.57134259
1998 -0.56624496
1996 -0.558725
1994 -0.53754091
1992 -0.51366848
1990 -0.49144578
1988 -0.4817014
1986 -0.49313864
1984 -0.51319546
1982 -0.53826249
1980 -0.56791282
1978 -0.60141087
1976 -0.636976
1974 -0.67366689
1972 -0.66891211
1970 -0.63225508
1968 -0.54863238
1966 -0.43890557
1964 -0.36286148
1962 -0.30681312
1960 -0.30354002
1958 -0.32225761
1956 -0.348407
1954 -0.37638023
1952 -0.39884374
1950 -0.41827193
1948 -0.4254522
1946 -0.42791998
1944 -0.42604461
1942 -0.42573807
1940 -0.43618593
1938 -0.44919452
1936 -0.46031201
1934 -0.46933955
1932 -0.47519562
1930 -0.48359245
1928 -0.49743986
1926 -0.50285578
1924 -0.4952288
1922 -0.46718231
1920 -0.42082953
1918 -0.38065639
1916 -0.35018042
1914 -0.33274356
1912 -0.32359633
1910 -0.31547946
1908 -0.3069779
1906 -0.3169148
1904 -0.33701319
1902 -0.35441247
1900 -0.37002721
1898 -0.33476943
1896 -0.27793428
1894 -0.20090002
1892 -0.12323957
1890 -0.094505921
1888 -0.096965805
1886 -0.15304896
1884 -0.23145016
1882 -0.31700027
1880 -0.39918098
1878 -0.46742371
1876 -0.51599699
1874 -0.53700995
1872 -0.5215959
1870 -0.46497393
1868 -0.40839756
1866 -0.36808577
1864 -0.38490468
1862 -0.4572472
1860 -0.53828102
1858 -0.61412078
1856 -0.65542775
1854 -0.67086607
1852 -0.66599888
1850 -0.65072155
1848 -0.64241558
1846 -0.63894677
1844 -0.67192549
1842 -0.72282469
1840 -0.76550066
1838 -0.79655337
1836 -0.76015145
1834 -0.68017262
1832 -0.53451943
1830 -0.36631474
1828 -0.2227468
1826 -0.13769865
1824 -0.18210372
1822 -0.30167776
1820 -0.4676016
1818 -0.61408615
1816 -0.69551969
1814 -0.72094947
1812 -0.69971764
1810 -0.66973066
1808 -0.64822888
1806 -0.6236735
1804 -0.59322977
1802 -0.55095887
1800 -0.49920079
1798 -0.44439301
1796 -0.38880572
1794 -0.31753647
1792 -0.23533599
1790 -0.18660648
1788 -0.1601378
1786 -0.16028151
1784 -0.17120515
1782 -0.13445076
1780 -0.064401262
1778 0.051391628
1776 0.19370343
1774 0.34521022
1772 0.47276276
1770 0.51009339
1768 0.46782699
1766 0.33780992
1764 0.1948476
1762 0.10606182
1760 0.030996114
1758 -0.059198469
1756 -0.12689346
1754 -0.15451647
1752 -0.099286869
1750 0.040209092
1748 0.18233374
1746 0.2994068
1744 0.27442399
1742 0.12022714
1740 -0.03720209
1738 -0.17444037
1736 -0.15904801
1734 -0.028569495
1732 0.077474594
1730 0.15217023
1728 0.070569649
1726 -0.10497329
1724 -0.20435749
1722 -0.207973
1720 0.011611477
1718 0.39747965
1716 0.97532737
1714 1.6135859
1712 2.0866165
1710 2.4627192
1708 2.8194661
1706 3.3526802
1704 4.239892
1702 5.7031202
1700 7.8422318
1698 10.756761
1696 14.381286
1694 18.0571
1692 21.482557
1690 24.621788
1688 27.525286
1686 31.011116
1684 35.143646
1682 40.02998
1680 45.500999
1678 50.261631
1676 54.359901
1674 58.334396
1672 62.301891
1670 67.00856
1668 72.254486
1666 77.394051
1664 82.322861
1662 86.666588
1660 90.462318
1658 93.748161
1656 96.542656
1654 98.882256
1652 100.63782
1650 101.68084
1648 101.66234
1646 100.35571
1644 98.250366
1642 95.825417
1640 93.115425
1638 90.181519
1636 86.5662
1634 82.162697
1632 77.481216
1630 72.736778
1628 68.215965
1626 63.955441
1624 59.615879
1622 55.154839
1620 50.811485
1618 46.604546
1616 42.694859
1614 39.101871
1612 35.934864
1610 33.20491
1608 30.877737
1606 28.927471
1604 27.210142
1602 25.739008
1600 24.500902
1598 23.518236
1596 22.785
1594 22.289583
1592 21.982092
1590 21.835369
1588 21.800404
1586 21.863214
1584 22.003035
1582 22.211031
1580 22.475266
1578 22.852854
1576 23.362715
1574 24.03285
1572 24.865189
1570 25.781393
1568 26.761721
1566 27.766056
1564 28.795273
1562 30.077259
1560 31.724846
1558 34.441547
1556 38.277214
1554 42.418098
1552 46.606079
1550 49.737064
1548 51.903671
1546 53.843857
1544 55.631084
1542 57.480869
1540 59.089878
1538 60.000114
1536 60.031425
1534 59.096024
1532 57.617481
1530 56.093884
1528 54.5835
1526 53.13295
1524 51.571869
1522 49.792679
1520 47.71867
1518 45.297508
1516 42.875027
1514 40.563595
1512 38.3494
1510 36.244438
1508 33.692062
1506 30.547886
1504 27.368601
1502 24.213367
1500 21.541018
1498 19.40481
1496 17.296286
1494 15.201312
1492 13.04632
1490 10.825303
1488 8.5629396
1486 6.3254719
1484 4.2538018
1482 2.4848318
1480 1.1762614
1478 0.35991827
1476 0.069784112
1474 0.36657178
1472 1.1495717
1470 2.0933862
1468 3.0097194
1466 3.8033664
1464 4.3963642
1462 4.9232454
1460 5.4299998
1458 5.931253
1456 6.4296403
1454 6.8220468
1452 7.0466132
1450 7.1279058
1448 7.005343
1446 6.8331394
1444 6.5990238
1442 6.3879571
1440 6.2025766
1438 6.0085711
1436 5.7674599
1434 5.3791428
1432 4.8247709
1430 4.1786413
1428 3.5003319
1426 2.9464722
1424 2.5494404
1422 2.3302574
1420 2.2684846
1418 2.3255496
1416 2.4594543
1414 2.631438
1412 2.8237302
1410 3.0268252
1408 3.2499697
1406 3.5064628
1404 3.79545
1402 4.1315589
1400 4.493588
1398 4.8902926
1396 5.2871928
1394 5.6756048
1392 5.9989176
1390 6.2034674
1388 6.295392
1386 6.208725
1384 6.0189619
1382 5.6891651
1380 5.3120117
1378 4.8823438
1376 4.4510741
1374 4.0285993
1372 3.6397879
1370 3.2918785
1368 2.9841652
1366 2.6836536
1364 2.3260608
1362 1.9034988
1360 1.3974731
1358 0.88974535
1356 0.474307
1354 0.16985816
1352 0.048266716
1350 0.026715953
1348 0.11719316
1346 0.25660715
1344 0.46646079
1342 0.70645517
1340 0.99473864
1338 1.2625884
1336 1.4808886
1334 1.6425475
1332 1.7058806
1330 1.773626
1328 1.8570988
1326 1.9885393
1324 2.1926973
1322 2.4410989
1320 2.7476737
1318 3.0878425
1316 3.4561701
1314 3.8108983
1312 4.1344113
1310 4.3914466
1308 4.5849781
1306 4.7188425
1304 4.8091435
1302 4.8658247
1300 4.8999825
1298 4.9107189
1296 4.9108858
1294 4.902729
1292 4.8920212
1290 4.8796544
1288 4.867352
1286 4.8558803
1284 4.8555875
1282 4.8841162
1280 4.9194145
1278 4.9680877
1276 5.0063114
1274 5.0257268
1272 5.0468459
1270 5.0760207
1268 5.1326647
1266 5.2303829
1264 5.349515
1262 5.492672
1260 5.636878
1258 5.7820997
1256 5.9277945
1254 6.0729413
1252 6.2150016
1250 6.3509784
1248 6.4720631
1246 6.5792999
1244 6.6639409
1242 6.7314072
1240 6.7700925
1238 6.7912989
1236 6.7808414
1234 6.748558
1232 6.664444
1230 6.5527935
1228 6.3680296
1226 6.1506724
1224 5.8430581
1222 5.4945741
1220 5.0498714
1218 4.5893092
1216 4.1025629
1214 3.6425407
1212 3.2321773
1210 2.8634622
1208 2.5585263
1206 2.2994001
1204 2.095794
1202 1.920858
1200 1.7708377
1198 1.6188878
1196 1.4674715
1194 1.3240703
1192 1.1898897
1190 1.0760163
1188 0.97300059
1186 0.87824142
1184 0.79373109
1182 0.74014395
1180 0.71476775
1178 0.77567399
1176 0.87892795
1174 1.106243
1172 1.3624271
1170 1.7012469
1168 2.0222685
1166 2.2834635
1164 2.4824522
1162 2.524035
1160 2.5018816
1158 2.3517301
1156 2.1681342
1154 1.9304105
1152 1.6811892
1150 1.4162416
1148 1.1447647
1146 0.86880213
1144 0.60494965
1142 0.36182415
1140 0.17724586
1138 0.047714047
1136 0.0087729571
1134 0.02707275
1132 0.073143147
1130 0.13290578
1128 0.20879343
1126 0.29359806
1124 0.40217146
1122 0.50909966
1120 0.58520079
1118 0.6494025
1116 0.66549069
1114 0.6830247
1112 0.71050763
1110 0.74694234
1108 0.81082499
1106 0.86937499
1104 0.91121966
1102 0.92074531
1100 0.86637938
1098 0.79353726
1096 0.69798571
1094 0.64157605
1092 0.639736
1090 0.69133842
1088 0.79475784
1086 0.90193164
1084 1.0047573
1082 1.0567229
1080 1.0692942
1078 1.0154124
1076 0.92425174
1074 0.77959472
1072 0.61128986
1070 0.39828068
1068 0.17596927
1066 -0.042281002
1064 -0.24594
1062 -0.34555244
1060 -0.42439872
1058 -0.40263975
1056 -0.38365114
1054 -0.37771282
1052 -0.38530263
1050 -0.43594092
1048 -0.49147469
1046 -0.55984789
1044 -0.6408602
1042 -0.74713796
1040 -0.87483108
1038 -1.0320302
1036 -1.17757
1034 -1.3047183
1032 -1.3777772
1030 -1.4001013
1028 -1.39053
1026 -1.3631235
1024 -1.3774005
1022 -1.418768
1020 -1.5159222
1018 -1.633167
1016 -1.7355515
1014 -1.8294339
1012 -1.8729082
1010 -1.9062644
1008 -1.920408
1006 -1.9323536
1004 -1.9368317
1002 -1.9409816
1000 -1.9434154
998 -1.9465736
996 -1.9526929
994 -1.952549
992 -1.932584
990 -1.9013729
988 -1.8436263
986 -1.7725507
984 -1.6786605
982 -1.5859977
980 -1.49698
978 -1.4422637
976 -1.4235715
974 -1.4166281
972 -1.4169271
970 -1.3812608
968 -1.322588
966 -1.240245
964 -1.147992
962 -1.0699251
960 -0.99657869
958 -0.92867041
956 -0.85971498
954 -0.74097562
952 -0.61420596
950 -0.43827885
948 -0.26039734
946 -0.085799254
944 0.00099603459
942 0.031343639
940 0.10282293
938 0.2303863
936 0.37921888
934 0.5895229
932 0.77123272
930 0.89003968
928 0.92257726
926 0.81724292
924 0.69486541
922 0.55322748
920 0.48601002
918 0.48783717
916 0.49469855
914 0.50407904
912 0.43596315
910 0.32684261
908 0.20022589
906 0.067626067
904 0.030732594
902 0.019511074
900 0.13771786
898 0.27665311
896 0.33476001
