##TITLE=Methyl Ethyl Ketone
##JCAMP-DX=4.24
##DATA TYPE=INFRARED SPECTRUM
##XUNITS=cm-1
##YUNITS=Absorbance
##FIRSTX=900
##LASTX=2300
##XYDATA=(X++(Y..Y))
2296 0.082970999
2294 0.08469753
2292 0.086423062
2290 0.088149585
2288 0.089875124
2286 0.091601647
2284 0.093328178
2282 0.095053725
2280 0.096780241
2278 0.09850578
2276 0.10023525
2274 0.10196281
2272 0.10368051
2270 0.10540787
2268 0.1071354
2266 0.1088825
2264 0.11059091
2262 0.11223993
2260 0.11404346
2258 0.11605517
2256 0.11749914
2254 0.1181317
2252 0.12091043
2250 0.12671581
2248 0.12454399
2246 0.10302392
2244 0.062768266
2242 0.010463728
2240 -0.036130466
2238 -0.059005596
2236 -0.051589731
2234 -0.014069341
2232 0.039349474
2230 0.092412233
2228 0.13671602
2226 0.16873701
2224 0.19535229
2222 0.22352362
2220 0.2483886
2218 0.26160911
2216 0.25476715
2214 0.22414662
2212 0.18480161
2210 0.15637402
2208 0.15425766
2206 0.18710163
2204 0.24163328
2202 0.29690632
2200 0.32797605
2198 0.31513789
2196 0.26463857
2194 0.19426188
2192 0.13587549
2190 0.11734828
2188 0.13290216
2186 0.16452286
2184 0.188168
2182 0.18380882
2180 0.15470016
2178 0.111737
2176 0.066198744
2174 0.028455729
2172 0.005362323
2170 0.00018087038
2168 0.0062059481
2166 0.014768856
2164 0.022592945
2162 0.03192728
2160 0.059944484
2158 0.12319271
2156 0.21520001
2154 0.31890523
2152 0.40643412
2150 0.45286104
2148 0.45974401
2146 0.43794179
2144 0.39858097
2142 0.34976131
2140 0.28799787
2138 0.21013713
2136 0.13126485
2134 0.072834343
2132 0.055412628
2130 0.09085384
2128 0.15729645
2126 0.22340214
2124 0.26899189
2122 0.28394541
2120 0.28135073
2118 0.27727982
2116 0.26547629
2114 0.2344649
2112 0.18663405
2110 0.13229777
2108 0.091837861
2106 0.083360858
2104 0.10064033
2102 0.12875292
2100 0.15561859
2098 0.17344491
2096 0.18621001
2094 0.20062312
2092 0.21598433
2090 0.22839753
2088 0.2335472
2086 0.22762901
2084 0.20922855
2082 0.17719465
2080 0.12755309
2078 0.058008797
2076 -0.021894485
2074 -0.095674999
2072 -0.137998
2070 -0.12597488
2068 -0.060995813
2066 0.040805928
2064 0.14366642
2062 0.21051979
2060 0.23074995
2058 0.20942231
2056 0.16980514
2054 0.1384557
2052 0.12601985
2050 0.13304906
2048 0.1471488
2046 0.1523775
2044 0.1394182
2042 0.10480484
2040 0.056662567
2038 0.0045450875
2036 -0.056307498
2034 -0.13544621
2032 -0.23529553
2030 -0.3497248
2028 -0.45118576
2026 -0.50817436
2024 -0.51158142
2022 -0.46820825
2020 -0.40767494
2018 -0.36759859
2016 -0.37877798
2014 -0.45958552
2012 -0.59132278
2010 -0.73619592
2008 -0.84628671
2006 -0.8813256
2004 -0.84911913
2002 -0.78347313
2000 -0.7331568
1998 -0.74140435
1996 -0.80409145
1994 -0.89258331
1992 -0.97015131
1990 -1.0049368
1988 -0.9964096
1986 -0.95918155
1984 -0.90910983
1982 -0.86152339
1980 -0.83121538
1978 -0.82775176
1976 -0.83932483
1974 -0.84229589
1972 -0.80687344
1970 -0.7131868
1968 -0.59389669
1966 -0.50320286
1964 -0.47538289
1962 -0.52268827
1960 -0.6134252
1958 -0.70238996
1956 -0.77774245
1954 -0.84555036
1952 -0.90950352
1950 -0.96769691
1948 -1.0051446
1946 -1.005625
1944 -0.97611666
1942 -0.93528885
1940 -0.89867371
1938 -0.8772046
1936 -0.87309033
1934 -0.8852182
1932 -0.91689616
1930 -0.9701848
1928 -1.0300575
1926 -1.0698843
1924 -1.0527999
1922 -0.94965029
1920 -0.78487271
1918 -0.61015093
1916 -0.46735814
1914 -0.38238788
1912 -0.34562925
1910 -0.33671373
1908 -0.37049535
1906 -0.47417107
1904 -0.6366452
1902 -0.81746113
1900 -0.94923455
1898 -0.96788538
1896 -0.8810429
1894 -0.74150848
1892 -0.61729312
1890 -0.57073087
1888 -0.61791313
1886 -0.74254876
1884 -0.90457982
1882 -1.0572169
1880 -1.1735674
1878 -1.2406937
1876 -1.25239
1874 -1.2049038
1872 -1.0932165
1870 -0.92116296
1868 -0.73488545
1866 -0.60215807
1864 -0.57433248
1862 -0.67613989
1860 -0.86900139
1858 -1.0807374
1856 -1.2540514
1854 -1.3508579
1852 -1.3620108
1850 -1.2995555
1848 -1.197016
1846 -1.0964607
1844 -1.0277799
1842 -1.0057808
1840 -1.0171834
1838 -1.0336928
1836 -1.0329599
1834 -0.99835491
1832 -0.91460943
1830 -0.77411377
1828 -0.60262579
1826 -0.44879857
1824 -0.36853361
1822 -0.40698779
1820 -0.55083799
1818 -0.74580276
1816 -0.92490798
1814 -1.0270892
1812 -1.0357206
1810 -0.96706915
1808 -0.85239822
1806 -0.72646147
1804 -0.61064857
1802 -0.51372778
1800 -0.43095234
1798 -0.35006857
1796 -0.26067713
1794 -0.15974171
1792 -0.067619361
1790 -0.012356734
1788 0.014170917
1786 0.0438371
1784 0.095004626
1782 0.17237538
1780 0.27600718
1778 0.40449581
1776 0.55719572
1774 0.72404462
1772 0.84848464
1770 0.85378069
1768 0.7213884
1766 0.48889327
1764 0.2425586
1762 0.079339907
1760 0.01305696
1758 0.0043372144
1756 0.061978422
1754 0.23015943
1752 0.51574552
1750 0.8788653
1748 1.2167399
1746 1.400625
1744 1.3738205
1742 1.1604396
1740 0.88371783
1738 0.70810241
1736 0.68488801
1734 0.75715852
1732 0.80310965
1730 0.69225037
1728 0.41916066
1726 0.085890755
1724 -0.17192557
1722 -0.2139596
1720 0.070382565
1718 0.7331273
1716 1.6671971
1714 2.6619618
1712 3.583756
1710 4.4105353
1708 5.2762599
1706 6.4229908
1704 8.0786581
1702 10.40951
1700 13.424271
1698 16.964903
1696 20.660713
1694 24.05245
1692 26.970789
1690 29.559887
1688 32.232052
1686 35.528751
1684 39.768112
1682 44.938541
1680 50.465961
1678 55.496502
1676 59.89957
1674 64.200806
1672 68.858353
1670 74.046761
1668 79.390892
1666 84.155998
1664 87.969421
1662 90.869064
1660 93.033401
1658 94.67894
1656 95.928284
1654 96.798286
1652 97.226616
1650 97.102417
1648 96.343407
1646 94.939285
1644 93.077156
1642 91.069359
1640 89.016724
1638 86.787323
1636 84.170929
1634 80.970512
1632 77.201515
1630 73.060677
1628 68.674141
1626 64.068985
1624 59.269161
1622 54.331253
1620 49.39817
1618 44.67606
1616 40.31443
1614 36.392456
1612 32.965679
1610 30.06813
1608 27.663754
1606 25.65383
1604 23.959625
1602 22.539454
1600 21.3876
1598 20.523476
1596 19.949501
1594 19.643257
1592 19.568909
1590 19.688604
1588 19.99122
1586 20.493643
1584 21.211378
1582 22.16222
1580 23.409679
1578 25.058264
1576 27.188286
1574 29.817648
1572 32.819759
1570 35.939209
1568 38.96516
1566 41.777092
1564 44.329639
1562 46.679203
1560 49.093338
1558 51.943539
1556 55.113556
1554 57.968182
1552 59.982079
1550 60.942646
1548 61.049393
1546 60.818035
1544 60.453754
1542 59.732803
1540 58.328503
1538 55.983852
1536 52.883228
1534 49.65173
1532 46.754688
1530 44.341602
1528 42.36549
1526 40.628349
1524 38.914272
1522 37.039562
1520 34.903423
1518 32.519619
1516 30.038013
1514 27.700829
1512 25.570599
1510 23.475388
1508 21.209492
1506 18.632278
1504 15.85308
1502 13.23468
1500 11.02038
1498 9.2267284
1496 7.7599716
1494 6.4617357
1492 5.2278137
1490 4.0377889
1488 2.887491
1486 1.7813851
1484 0.7790184
1482 0.0013307929
1480 -0.44485885
1478 -0.48462099
1476 -0.036705703
1474 0.96129835
1472 2.3834989
1470 3.893748
1468 5.2475019
1466 6.392262
1464 7.3984928
1462 8.4314022
1460 9.6156845
1458 10.970466
1456 12.3576
1454 13.484365
1452 14.142205
1450 14.292643
1448 14.008406
1446 13.452893
1444 12.774911
1442 12.07112
1440 11.392543
1438 10.737357
1436 10.058123
1434 9.274704
1432 8.3779612
1430 7.4659872
1428 6.6541939
1426 6.0384994
1424 5.6448956
1422 5.4103937
1420 5.2651172
1418 5.1629376
1416 5.0987511
1414 5.115253
1412 5.2498693
1410 5.5142088
1408 5.8947682
1406 6.3500237
1404 6.8325791
1402 7.2926903
1400 7.6667318
1398 7.8757529
1396 7.8613214
1394 7.6085339
1392 7.1597719
1390 6.622611
1388 6.0900908
1386 5.608705
1384 5.1957965
1382 4.8404746
1380 4.5267019
1378 4.2377114
1376 3.9437373
1374 3.5991528
1372 3.1766419
1370 2.6841171
1368 2.1484177
1366 1.6106222
1364 1.0981894
1362 0.61596918
1360 0.18173248
1358 -0.15951076
1356 -0.36006343
1354 -0.38099647
1352 -0.20512447
1350 0.15215486
1348 0.66081572
1346 1.2796321
1344 1.967744
1342 2.6853113
1340 3.3728533
1338 3.9413245
1336 4.3105173
1334 4.4326658
1332 4.3103909
1330 4.0159316
1328 3.6315067
1326 3.2280965
1324 2.8661981
1322 2.5887344
1320 2.4091063
1318 2.2974195
1316 2.2100701
1314 2.0997295
1312 1.9396702
1310 1.7392428
1308 1.5188509
1306 1.3036507
1304 1.1194314
1302 0.99168617
1300 0.94451314
1298 0.99908078
1296 1.1692001
1294 1.45667
1292 1.8577168
1290 2.3628399
1288 2.9545841
1286 3.6020758
1284 4.2625933
1282 4.8784356
1280 5.3960261
1278 5.7793355
1276 6.0203271
1274 6.1548748
1272 6.2339535
1270 6.315567
1268 6.447226
1266 6.6530104
1264 6.9484262
1262 7.3427682
1260 7.8416057
1258 8.4462366
1256 9.1548491
1254 9.9610796
1252 10.857368
1250 11.835708
1248 12.883308
1246 13.97975
1244 15.089197
1242 16.149437
1240 17.087818
1238 17.825869
1236 18.305815
1234 18.506413
1232 18.41328
1230 18.007736
1228 17.276363
1226 16.227228
1224 14.912051
1222 13.455207
1220 11.997323
1218 10.67526
1216 9.5931911
1214 8.7896156
1212 8.271409
1210 8.0101318
1208 7.9587345
1206 8.0474701
1204 8.1911821
1202 8.2858667
1200 8.2370424
1198 7.9832644
1196 7.5001216
1194 6.8263621
1192 6.0272541
1190 5.1912012
1188 4.3985233
1186 3.6995308
1184 3.120832
1182 2.6538942
1180 2.2832966
1178 1.9970784
1176 1.7877799
1174 1.6545262
1172 1.5900503
1170 1.5698694
1168 1.5681583
1166 1.5663557
1164 1.5543735
1162 1.5357959
1160 1.5110401
1158 1.4661947
1156 1.38448
1154 1.2522392
1152 1.0653679
1150 0.84055376
1148 0.60204458
1146 0.37952894
1144 0.20083648
1142 0.084393054
1140 0.029738326
1138 -0.0011240914
1136 -0.042558201
1134 -0.099167004
1132 -0.16780388
1130 -0.24356356
1128 -0.31950784
1126 -0.38479215
1124 -0.42740843
1122 -0.43558633
1120 -0.40446439
1118 -0.34607357
1116 -0.27809528
1114 -0.22129935
1112 -0.18993314
1110 -0.17963122
1108 -0.17746162
1106 -0.1605505
1104 -0.10813233
1102 -0.011396542
1100 0.12926845
1098 0.29828554
1096 0.48431569
1094 0.69611412
1092 0.94677603
1090 1.2472121
1088 1.5979618
1086 1.974205
1084 2.3486965
1082 2.7036927
1080 3.0166183
1078 3.246593
1076 3.353523
1074 3.3126154
1072 3.1293075
1070 2.8785992
1068 2.6434159
1066 2.4795656
1064 2.41324
1062 2.4069824
1060 2.409848
1058 2.3772666
1056 2.2829514
1054 2.1477823
1052 2.0089231
1050 1.916044
1048 1.9037898
1046 1.9554644
1044 2.0399961
1042 2.1226075
1040 2.186276
1038 2.2675393
1036 2.40731
1034 2.6205311
1032 2.8899429
1030 3.1251633
1028 3.23069
1026 3.1523507
1024 2.8784554
1022 2.494056
1020 2.0972898
1018 1.751676
1016 1.4864485
1014 1.2534095
1012 0.99804324
1010 0.70544964
1008 0.3841956
1006 0.084166288
1004 -0.14980371
1002 -0.3202143
1000 -0.44295794
998 -0.53921765
996 -0.62718284
994 -0.71152198
992 -0.79411983
990 -0.87853318
988 -0.96610618
986 -1.0496578
984 -1.1187092
982 -1.1592966
980 -1.160218
978 -1.1238279
976 -1.058956
974 -0.98514199
972 -0.91696954
970 -0.8426792
968 -0.74368143
966 -0.60066551
964 -0.41110644
962 -0.22969219
960 -0.11417758
958 -0.083456457
956 -0.12588499
954 -0.15844867
952 -0.10949872
950 -0.0088798255
948 0.089351758
946 0.13502619
944 0.095357522
942 -0.0034269989
940 -0.10410386
938 -0.091830432
936 0.11922687
934 0.45772624
932 0.81749493
930 1.1083542
928 1.263872
926 1.2911793
924 1.224422
922 1.131451
920 1.0819411
918 1.121021
916 1.26942
914 1.4805013
912 1.6894953
910 1.827657
908 1.8423899
906 1.747555
904 1.5876828
902 1.4629656
900 1.478856
898 1.7085273
896 2.2169001
