##TITLE=Methyl Ethyl Ketone
##JCAMP-DX=4.24
##DATA TYPE=INFRARED SPECTRUM
##XUNITS=cm-1
##YUNITS=Absorbance
##FIRSTX=900
##LASTX=2300
##XYDATA=(X++(Y..Y))
2296 0.0054736999
2294 0.0055874377
2292 0.0057013743
2290 0.0058153109
2288 0.0059291488
2286 0.0060428865
2284 0.006156723
2282 0.0062707583
2280 0.0063845972
2278 0.0064980392
2276 0.0066122655
2274 0.0067275846
2272 0.006840168
2270 0.0069485852
2268 0.0070677102
2266 0.0072016199
2264 0.0072961561
2262 0.0073356703
2260 0.0075213243
2258 0.007912132
2256 0.0077592144
2254 0.0068419208
2252 0.007945572
2250 0.011898939
2248 0.0083415229
2246 -0.0068614786
2244 -0.00027558886
2242 0.056317601
2240 0.12773828
2238 0.17134969
2236 0.18690242
2234 0.18729062
2232 0.18905498
2230 0.20502412
2228 0.22931029
2226 0.25476351
2224 0.29121304
2222 0.34954131
2220 0.42460212
2218 0.50317752
2216 0.55889916
2214 0.56771505
2212 0.53072381
2210 0.46180466
2208 0.39588907
2206 0.3697052
2204 0.40181494
2202 0.49146745
2200 0.5824821
2198 0.6086964
2196 0.53269213
2194 0.34317428
2192 0.097447328
2190 -0.13135758
2188 -0.29273951
2186 -0.35423386
2184 -0.32591879
2182 -0.23387834
2180 -0.11438123
2178 -0.0037054899
2176 0.074182995
2174 0.10672745
2172 0.11138009
2170 0.1140197
2168 0.1352571
2166 0.18562093
2164 0.24266574
2162 0.27704522
2160 0.27611935
2158 0.23990329
2156 0.195904
2154 0.17393684
2152 0.1755396
2150 0.18765698
2148 0.178065
2146 0.11905572
2144 0.027492423
2142 -0.059873093
2140 -0.089355201
2138 -0.015778404
2136 0.14832428
2134 0.36484441
2132 0.57549328
2130 0.72475213
2128 0.7959404
2126 0.78959274
2124 0.71874654
2122 0.5994243
2120 0.44296011
2118 0.26520166
2116 0.10822383
2114 0.016849436
2112 0.0067936298
2110 0.071415089
2108 0.1579245
2106 0.20673229
2104 0.20042412
2102 0.14541876
2100 0.07810846
2098 0.039228514
2096 0.042594288
2094 0.084370248
2092 0.13229735
2090 0.14959545
2088 0.12499274
2086 0.063386455
2084 -0.0064692814
2082 -0.054197416
2080 -0.080260165
2078 -0.096852727
2076 -0.11221487
2074 -0.12944755
2072 -0.1391364
2070 -0.1325255
2068 -0.12429448
2066 -0.13576807
2064 -0.17486343
2062 -0.2375733
2060 -0.29496899
2058 -0.316053
2056 -0.30346113
2054 -0.27619091
2052 -0.26088464
2050 -0.27825558
2048 -0.31358984
2046 -0.33935714
2044 -0.33780101
2042 -0.30164611
2040 -0.24669549
2038 -0.19739173
2036 -0.17363271
2034 -0.19001934
2032 -0.24929464
2030 -0.34627429
2028 -0.46364266
2026 -0.57685137
2024 -0.65235478
2022 -0.66056037
2020 -0.60449058
2018 -0.50671577
2016 -0.40976599
2014 -0.35355255
2012 -0.33220488
2010 -0.32277837
2008 -0.32040924
2006 -0.33191463
2004 -0.37301397
2002 -0.45363441
2000 -0.54390764
1998 -0.6020121
1996 -0.61514068
1994 -0.59074503
1992 -0.55948532
1990 -0.55455077
1988 -0.5770092
1986 -0.61200714
1984 -0.64504528
1982 -0.66459697
1980 -0.66661817
1978 -0.64722496
1976 -0.58809972
1974 -0.46896529
1972 -0.29236042
1970 -0.082312994
1968 0.095236704
1966 0.16626821
1964 0.10780359
1962 -0.063177794
1960 -0.27346721
1958 -0.43719202
1956 -0.52737159
1954 -0.55449289
1952 -0.55365002
1950 -0.56308818
1948 -0.59065568
1946 -0.62800246
1944 -0.66755575
1942 -0.7046414
1940 -0.73991746
1938 -0.77581525
1936 -0.81073344
1934 -0.84112626
1932 -0.86497664
1930 -0.88025492
1928 -0.88065189
1926 -0.85629731
1924 -0.7922051
1922 -0.67764068
1920 -0.53142381
1918 -0.38561499
1916 -0.25933215
1914 -0.16115353
1912 -0.090348125
1910 -0.045228425
1908 -0.039076179
1906 -0.085919753
1904 -0.16520801
1902 -0.23569408
1900 -0.25332779
1898 -0.18171749
1896 -0.017169997
1894 0.21602929
1892 0.45199004
1890 0.60653293
1888 0.6118443
1886 0.43079856
1884 0.11114467
1882 -0.25337887
1880 -0.57773316
1878 -0.79692024
1876 -0.89193797
1874 -0.87125772
1872 -0.7497099
1870 -0.55007541
1868 -0.32478309
1866 -0.14035222
1864 -0.04812659
1862 -0.07743334
1860 -0.208012
1858 -0.39404273
1856 -0.60428143
1854 -0.81985044
1852 -1.0245063
1850 -1.2036747
1848 -1.348104
1846 -1.4533678
1844 -1.5221711
1842 -1.559247
1840 -1.5614246
1838 -1.5202508
1836 -1.4292185
1834 -1.2850261
1832 -1.0896292
1830 -0.85526955
1828 -0.62486255
1826 -0.45629677
1824 -0.38814875
1822 -0.43500572
1820 -0.56925058
1818 -0.73899758
1816 -0.89874429
1814 -1.014073
1812 -1.0686952
1810 -1.0578681
1808 -0.97930902
1806 -0.83782148
1804 -0.66835284
1802 -0.52303785
1800 -0.44130325
1798 -0.43922102
1796 -0.47645286
1794 -0.4851661
1792 -0.43972
1790 -0.35036135
1788 -0.23959196
1786 -0.13075288
1784 -0.03137669
1782 0.063206658
1780 0.16116272
1778 0.2720938
1776 0.407572
1774 0.5715456
1772 0.72728342
1770 0.81301892
1768 0.7844137
1766 0.62933815
1764 0.40964019
1762 0.21841413
1760 0.059136115
1758 -0.11801396
1756 -0.28013331
1754 -0.33501199
1752 -0.23758073
1750 -0.0024459958
1748 0.28258836
1746 0.49345928
1744 0.55923897
1742 0.4778102
1740 0.35310131
1738 0.33858201
1736 0.48073199
1734 0.71843112
1732 0.91117978
1730 0.9001357
1728 0.6601665
1726 0.28774798
1724 -0.059431374
1722 -0.1931151
1720 0.072668567
1718 0.86376822
1716 2.0540028
1714 3.3355708
1712 4.4623008
1710 5.3154893
1708 6.0116739
1706 6.8415871
1704 8.0999622
1702 10.028981
1700 12.732977
1698 16.14929
1696 19.918428
1694 23.51296
1692 26.663717
1690 29.413408
1688 32.125565
1686 35.346344
1684 39.438114
1682 44.456383
1680 49.884441
1678 54.89835
1676 59.313244
1674 63.545788
1672 68.004898
1670 72.892998
1668 77.940765
1666 82.550705
1664 86.37941
1662 89.38501
1660 91.634773
1658 93.241341
1656 94.31234
1654 94.940392
1652 95.205017
1650 95.155212
1648 94.727448
1646 93.789001
1644 92.355377
1642 90.577911
1640 88.544899
1638 86.248039
1636 83.608086
1634 80.523941
1632 77.025635
1630 73.249725
1628 69.237328
1626 64.930214
1624 60.31424
1622 55.455887
1620 50.522106
1618 45.749508
1616 41.324059
1614 37.359119
1612 33.926327
1610 31.054001
1608 28.68047
1606 26.673193
1604 24.935238
1602 23.427496
1600 22.160246
1598 21.178316
1596 20.506001
1594 20.132328
1592 20.019983
1590 20.115204
1588 20.381506
1586 20.805908
1584 21.382395
1582 22.12072
1580 23.094597
1578 24.439251
1576 26.284
1574 28.706522
1572 31.615789
1570 34.759163
1568 37.89632
1566 40.845264
1564 43.492882
1562 45.835999
1560 48.120277
1558 50.751328
1556 53.719788
1554 56.537071
1552 58.70813
1550 59.9147
1548 60.239426
1546 60.112179
1544 59.727428
1542 58.939655
1540 57.567822
1538 55.52776
1536 53.032227
1534 50.563389
1532 48.429138
1530 46.658314
1528 45.155743
1526 43.748249
1524 42.228065
1522 40.386837
1520 38.134857
1518 35.544769
1516 32.83857
1514 30.326445
1512 28.076962
1510 25.860111
1508 23.450232
1506 20.744965
1504 17.896658
1502 15.289352
1500 13.126363
1498 11.32952
1496 9.7470713
1494 8.2288933
1492 6.7239637
1490 5.2947383
1488 3.9838314
1486 2.786468
1484 1.7235699
1482 0.8578614
1480 0.24568835
1478 -0.068015285
1476 0.00071971118
1474 0.55936688
1472 1.5679777
1470 2.803555
1468 4.0692415
1466 5.2642636
1464 6.37041
1462 7.4488549
1460 8.5711918
1458 9.7816343
1456 11.02
1454 12.103685
1452 12.865103
1450 13.206721
1448 13.126138
1446 12.725929
1444 12.119566
1442 11.39843
1440 10.624474
1438 9.8252201
1436 9.0044231
1434 8.1519737
1432 7.2885518
1430 6.4807777
1428 5.7947717
1426 5.2769065
1424 4.9394603
1422 4.7527475
1420 4.6749449
1418 4.6642132
1416 4.7010002
1414 4.7970219
1412 4.9682708
1410 5.2257333
1408 5.5705152
1406 5.9895892
1404 6.4577584
1402 6.931603
1400 7.3363237
1398 7.5639944
1396 7.5370641
1394 7.2439742
1392 6.7488971
1390 6.1983442
1388 5.7120404
1386 5.336545
1384 5.0670776
1382 4.8479462
1380 4.6223898
1378 4.3510742
1376 4.0083313
1374 3.5859165
1372 3.0942681
1370 2.5656471
1368 2.0319932
1366 1.5158494
1364 1.0289574
1362 0.57240713
1360 0.16281965
1358 -0.15616274
1356 -0.34007242
1354 -0.35570925
1352 -0.1903104
1350 0.13861918
1348 0.59594297
1346 1.1326175
1344 1.7164
1342 2.342659
1340 2.987278
1338 3.5828762
1336 4.0445743
1334 4.2850199
1332 4.275104
1330 4.0810208
1328 3.7836435
1326 3.4515021
1324 3.145083
1322 2.9125838
1320 2.7799141
1318 2.7360468
1316 2.73805
1314 2.7078793
1312 2.5873189
1310 2.3689973
1308 2.078871
1306 1.7775149
1304 1.5194211
1302 1.333943
1300 1.2382911
1298 1.2391753
1296 1.3448572
1294 1.5701872
1292 1.9268888
1290 2.4159944
1288 3.019536
1286 3.6896701
1284 4.3690176
1282 4.9977303
1280 5.5306339
1278 5.9516349
1276 6.2621512
1274 6.483335
1272 6.6435471
1270 6.7756019
1268 6.9140053
1266 7.0944238
1264 7.3515158
1262 7.7154684
1260 8.2023563
1258 8.8046713
1256 9.510869
1254 10.314006
1252 11.219522
1250 12.248981
1248 13.400743
1246 14.6235
1244 15.837608
1242 16.938751
1240 17.845074
1238 18.528097
1236 18.979029
1234 19.197174
1232 19.168159
1230 18.8514
1228 18.217974
1226 17.279985
1224 16.080544
1222 14.704426
1220 13.259445
1218 11.87428
1216 10.67044
1214 9.7368431
1212 9.1233253
1210 8.8086863
1208 8.7402353
1206 8.8327169
1204 8.9883337
1202 9.1004248
1200 9.0700169
1198 8.8224459
1196 8.3191566
1194 7.5891371
1192 6.6985102
1190 5.7571902
1188 4.8739381
1186 4.1298223
1184 3.5710263
1182 3.1814065
1180 2.9181333
1178 2.7145977
1176 2.5134599
1174 2.2925422
1172 2.0587268
1170 1.8624831
1168 1.750272
1166 1.7343471
1164 1.7978457
1162 1.8791269
1160 1.9211309
1158 1.9021392
1156 1.81758
1154 1.68174
1152 1.5059344
1150 1.2854742
1148 1.0201514
1146 0.73017824
1144 0.44862372
1142 0.22462463
1140 0.087219507
1138 0.010629375
1136 -0.033099573
1134 -0.046707623
1132 -0.03064052
1130 0.0054883584
1128 0.047004085
1126 0.073117711
1124 0.068543993
1122 0.035968818
1120 -0.0075358562
1118 -0.022509487
1116 0.015851345
1114 0.083066113
1112 0.14192189
1110 0.15561788
1108 0.11281221
1106 0.063917398
1104 0.059544574
1102 0.11317287
1100 0.2253883
1098 0.38754678
1096 0.59689713
1094 0.87027764
1092 1.217438
1090 1.6182549
1088 2.0521994
1086 2.5155642
1084 3.006726
1082 3.5162039
1080 4.0153766
1078 4.4303131
1076 4.6815853
1074 4.7072024
1072 4.4768224
1070 4.0352211
1068 3.460182
1066 2.8668172
1064 2.36166
1062 2.0005646
1060 1.8073163
1058 1.7510011
1056 1.7807457
1054 1.8289655
1052 1.8320003
1050 1.7522739
1048 1.5812868
1046 1.3754286
1044 1.2048134
1042 1.1327418
1040 1.1991898
1038 1.3821975
1036 1.6428399
1034 1.9356464
1032 2.2111177
1030 2.4134343
1028 2.4907243
1026 2.4092815
1024 2.1601944
1022 1.7946341
1020 1.3787603
1018 0.97844136
1016 0.6489563
1014 0.41390061
1012 0.27405843
1010 0.18454242
1008 0.0876
1006 -0.077955738
1004 -0.34623882
1002 -0.6649611
1000 -0.96713376
998 -1.2070823
996 -1.3596286
994 -1.446637
992 -1.4925606
990 -1.492716
988 -1.439063
986 -1.3356292
984 -1.1937441
982 -1.0377141
980 -0.89111102
978 -0.7629137
976 -0.65594429
974 -0.5639776
972 -0.47877282
970 -0.39277184
968 -0.30052623
966 -0.20278901
964 -0.096269265
962 0.040722921
960 0.22083235
958 0.40999269
956 0.56119251
954 0.62327898
952 0.56476438
950 0.42625916
948 0.26172662
946 0.10947593
944 0.012487017
942 0.043803632
940 0.26416805
938 0.66277391
936 1.1927514
934 1.7407504
932 2.1952028
930 2.5100994
928 2.6767907
926 2.7636657
924 2.846514
922 2.9576855
920 3.1016779
918 3.2213938
916 3.2578428
914 3.2040198
912 3.0814302
910 2.9714081
908 2.9531507
906 3.0413001
904 3.223264
902 3.4441156
900 3.6574717
898 3.8923352
896 4.1964998
