##TITLE=Methyl Ethyl Ketone
##JCAMP-DX=4.24
##DATA TYPE=INFRARED SPECTRUM
##XUNITS=cm-1
##YUNITS=Absorbance
##FIRSTX=900
##LASTX=2300
##XYDATA=(X++(Y..Y))
2296 -0.030618999
2294 -0.031270068
2292 -0.031920142
2290 -0.032571208
2288 -0.033221278
2286 -0.033872344
2284 -0.034522418
2282 -0.035173479
2280 -0.035823561
2278 -0.036474619
2276 -0.037124701
2274 -0.037775755
2272 -0.03842584
2270 -0.039075911
2268 -0.039726961
2266 -0.040377051
2264 -0.041028097
2262 -0.04167819
2260 -0.042329233
2258 -0.04297933
2256 -0.043630369
2254 -0.044280469
2252 -0.044931509
2250 -0.045581609
2248 -0.046232644
2246 -0.046882749
2244 -0.0017422228
2242 0.011386198
2240 -0.0049704402
2238 -0.021123171
2236 -0.037022971
2234 -0.040719323
2232 -0.044379361
2230 -0.066980161
2228 -0.094133452
2226 -0.15011364
2224 -0.19924234
2222 -0.21013221
2220 -0.19721813
2218 -0.11791375
2216 -0.031505056
2214 0.062226772
2212 0.1187074
2210 0.11369119
2208 0.070881113
2206 -0.014352065
2204 -0.059749108
2202 -0.064181164
2200 0.0025255973
2198 0.12037956
2196 0.24413428
2194 0.36935645
2192 0.45911118
2190 0.53327471
2188 0.57483912
2186 0.60612863
2184 0.60544884
2182 0.59755588
2180 0.56898052
2178 0.53751427
2176 0.51892316
2174 0.50349069
2172 0.51057243
2170 0.52291059
2168 0.55324239
2166 0.59164017
2164 0.65318137
2162 0.71013033
2160 0.74937713
2158 0.76565802
2156 0.741696
2154 0.71550816
2152 0.69211906
2150 0.68296838
2148 0.68953997
2146 0.69615108
2144 0.70135957
2142 0.71742272
2140 0.74118996
2138 0.81151259
2136 0.90674174
2134 1.0197721
2132 1.1391312
2130 1.1855484
2128 1.208468
2126 1.1454586
2124 1.0629832
2122 0.96427917
2120 0.8659538
2118 0.82015467
2116 0.79234397
2114 0.84246498
2112 0.91099942
2110 1.0107244
2108 1.1054578
2106 1.1713264
2104 1.2136966
2102 1.2135007
2100 1.195314
2098 1.1573844
2096 1.1158571
2094 1.0737033
2092 1.0226645
2090 0.96263456
2088 0.90015578
2086 0.83641303
2084 0.81380987
2082 0.81836879
2080 0.86787492
2078 0.93930912
2076 1.0012122
2074 1.0581408
2072 1.0932239
2070 1.1215961
2068 1.1623483
2066 1.2065892
2064 1.2485228
2062 1.2873816
2060 1.2942989
2058 1.291744
2056 1.2718114
2054 1.2506782
2052 1.2388428
2050 1.2348745
2048 1.2480595
2046 1.2684143
2044 1.297128
2042 1.3347698
2040 1.3824303
2038 1.4375063
2036 1.4977343
2034 1.535274
2032 1.5501446
2030 1.524822
2028 1.4719071
2026 1.4131979
2024 1.3542628
2022 1.3286445
2020 1.3207843
2018 1.3463074
2016 1.3841799
2014 1.4328868
2012 1.4837745
2010 1.553142
2008 1.6279508
2006 1.71999
2004 1.808696
2002 1.845523
2000 1.8567297
1998 1.8186493
1996 1.7775714
1994 1.7679667
1992 1.7819263
1990 1.8272375
1988 1.877254
1986 1.9165957
1984 1.9477811
1982 1.9713105
1980 1.9967186
1978 2.0285907
1976 2.0733058
1974 2.130038
1972 2.193119
1970 2.2601657
1968 2.2975931
1966 2.3156643
1964 2.3021119
1962 2.2720537
1960 2.2652121
1958 2.2690654
1956 2.2932928
1954 2.3235981
1952 2.3462367
1950 2.3658054
1948 2.3988538
1946 2.4410501
1944 2.5059719
1942 2.5849175
1940 2.6714213
1938 2.755527
1936 2.8233514
1934 2.8720486
1932 2.898052
1930 2.9031262
1928 2.8913057
1926 2.8846722
1924 2.8944471
1922 2.9445434
1920 3.0303006
1918 3.0980861
1916 3.1358757
1914 3.1066523
1912 3.0320029
1910 2.9684677
1908 2.9195316
1906 2.9175935
1904 2.93908
1902 2.9818723
1900 3.0317137
1898 3.1167989
1896 3.2149999
1894 3.3185627
1892 3.4158742
1890 3.447757
1888 3.4421892
1886 3.3739722
1884 3.2846854
1882 3.2003851
1880 3.1305656
1878 3.0949867
1876 3.0676301
1874 3.0436711
1872 3.009563
1870 2.964484
1868 2.9370863
1866 2.9241252
1864 2.9216607
1862 2.9152379
1860 2.8810077
1858 2.8271143
1856 2.7622342
1854 2.6972795
1852 2.6221619
1850 2.5448115
1848 2.464772
1846 2.3888285
1844 2.3669252
1842 2.3774979
1840 2.4049907
1838 2.4334269
1836 2.4343128
1834 2.4200139
1832 2.4243605
1830 2.4513159
1828 2.5202506
1826 2.6041701
1824 2.6564257
1822 2.6607645
1820 2.5927119
1818 2.4839983
1816 2.3661716
1814 2.2520878
1812 2.153702
1810 2.0669641
1808 1.9848691
1806 1.9110349
1804 1.8430457
1802 1.7514206
1800 1.6417217
1798 1.5089296
1796 1.3624572
1794 1.2781059
1792 1.233044
1790 1.2731557
1788 1.3560811
1786 1.4119092
1784 1.4410542
1782 1.4028382
1780 1.3215709
1778 1.224406
1776 1.11868
1774 1.0143795
1772 0.91109586
1770 0.77997804
1768 0.63990581
1766 0.49544358
1764 0.34443581
1762 0.20098837
1760 0.056712627
1758 -0.085233331
1756 -0.21210743
1754 -0.31769457
1752 -0.38604105
1750 -0.4107596
1748 -0.41860256
1746 -0.427755
1744 -0.4721348
1742 -0.5621742
1740 -0.66007406
1738 -0.7525658
1736 -0.722372
1734 -0.59008318
1732 -0.36957985
1730 -0.10354123
1728 0.027437279
1726 0.052664395
1724 0.036725953
1722 0.0065422081
1720 0.018056311
1718 0.035309609
1716 0.17070466
1714 0.41922882
1712 0.67561901
1710 0.91839111
1708 1.147378
1706 1.4747801
1704 2.0254989
1702 3.0710635
1700 4.7511477
1698 7.353199
1696 10.860429
1694 14.53005
1692 18.005239
1690 21.099894
1688 23.857075
1686 27.144022
1684 31.051565
1682 35.8018
1680 41.209961
1678 45.912792
1676 49.943001
1674 53.759472
1672 57.504841
1670 61.97213
1668 66.989235
1666 72.013603
1664 76.916077
1662 81.300743
1660 85.191978
1658 88.623222
1656 91.684685
1654 94.542557
1652 97.183624
1650 99.597794
1648 101.15955
1646 101.31142
1644 100.31612
1642 98.53627
1640 96.252663
1638 93.724762
1636 90.613586
1634 86.841881
1632 82.763206
1630 78.536819
1628 74.39888
1626 70.404366
1624 66.236839
1622 61.874691
1620 57.497257
1618 53.129486
1616 48.937714
1614 44.950291
1612 41.374527
1610 38.22422
1608 35.507633
1606 33.206535
1604 31.186117
1602 29.466518
1600 28.032944
1598 26.879978
1596 25.956501
1594 25.250399
1592 24.710789
1590 24.340738
1588 24.118385
1586 24.010429
1584 23.984915
1582 23.997349
1580 24.023077
1578 24.139915
1576 24.376572
1574 24.826006
1572 25.496346
1570 26.293398
1568 27.188999
1566 28.094414
1564 29.005199
1562 30.111797
1560 31.507521
1558 33.746548
1556 36.904427
1554 40.401119
1552 44.030037
1550 46.914604
1548 49.077492
1546 50.99464
1544 52.714542
1542 54.402508
1540 55.936981
1538 57.071499
1536 57.638
1534 57.515942
1532 56.868755
1530 55.985748
1528 54.902771
1526 53.6576
1524 52.200127
1522 50.482063
1520 48.544075
1518 46.358582
1516 44.185616
1514 42.116711
1512 40.062359
1510 38.04084
1508 35.497467
1506 32.276566
1504 29.005011
1502 25.724125
1500 22.956562
1498 20.75499
1496 18.570429
1494 16.387596
1492 14.117848
1490 11.769958
1488 9.3983116
1486 7.0833492
1484 4.9821239
1482 3.1808503
1480 1.7866428
1478 0.81358451
1476 0.22008215
1474 0.1871275
1472 0.78097343
1470 1.6345439
1468 2.581409
1466 3.3928907
1464 3.938333
1462 4.3632936
1460 4.7160697
1458 5.1172571
1456 5.6078801
1454 6.1108508
1452 6.5900607
1450 6.9206266
1448 7.0164986
1446 6.9959464
1444 6.8181453
1442 6.5972562
1440 6.3232222
1438 6.005971
1436 5.6299386
1434 5.1520734
1432 4.5798635
1430 3.989167
1428 3.4052219
1426 2.9194436
1424 2.5415673
1422 2.2754519
1420 2.1254599
1418 2.0688732
1416 2.1018798
1414 2.2198529
1412 2.3877015
1410 2.6194692
1408 2.8940413
1406 3.2238927
1404 3.5883265
1402 3.9798918
1400 4.3642359
1398 4.7198462
1396 5.0781212
1394 5.4367833
1392 5.7961612
1390 6.1224923
1388 6.3423862
1386 6.3811097
1384 6.2836494
1382 5.999692
1380 5.6427116
1378 5.2008905
1376 4.7226114
1374 4.2318649
1372 3.775686
1370 3.3694606
1368 3.0326662
1366 2.7028601
1364 2.2853577
1362 1.7867044
1360 1.1969367
1358 0.6352883
1356 0.24445303
1354 0.0010062307
1352 -0.023939166
1350 0.050445884
1348 0.21107852
1346 0.39529645
1344 0.60694325
1342 0.81587958
1340 1.0164021
1338 1.2058042
1336 1.3679628
1334 1.5473773
1332 1.7314714
1330 1.932236
1328 2.1559708
1326 2.3867908
1324 2.6431303
1322 2.9167027
1320 3.2233577
1318 3.5438609
1316 3.8785701
1314 4.2029195
1312 4.5062819
1310 4.7898884
1308 5.0466528
1306 5.2887821
1304 5.5078726
1302 5.6872692
1300 5.8272181
1298 5.89534
1296 5.9308429
1294 5.9323921
1292 5.9377556
1290 5.9703097
1288 6.0137801
1286 6.0731716
1284 6.1280155
1282 6.1642704
1280 6.1961517
1278 6.216866
1276 6.2351217
1274 6.255836
1272 6.2938781
1270 6.3719831
1268 6.49757
1266 6.6891036
1264 6.9060593
1262 7.1442194
1260 7.3684378
1258 7.57548
1256 7.7669573
1254 7.940268
1252 8.0916147
1250 8.2201672
1248 8.3176699
1246 8.3975
1244 8.4645596
1242 8.5283632
1240 8.5936937
1238 8.650013
1236 8.6763296
1234 8.6642742
1232 8.5474281
1230 8.3704023
1228 8.0329456
1226 7.6484756
1224 7.1417112
1222 6.6153097
1220 6.0430312
1218 5.4749551
1216 4.9187374
1214 4.3911262
1212 3.9178121
1210 3.4906974
1208 3.1326473
1206 2.8185792
1204 2.5563638
1202 2.3191416
1200 2.1071239
1198 1.9085732
1196 1.7259142
1194 1.5686401
1192 1.4326371
1190 1.32576
1188 1.2328329
1186 1.1438335
1184 1.0611755
1182 0.99851042
1180 0.96462852
1178 1.0311344
1176 1.1453
1174 1.3981853
1172 1.6712885
1170 1.9875234
1168 2.2677453
1166 2.4323158
1164 2.5408421
1162 2.5118821
1160 2.4592199
1158 2.358871
1156 2.2418427
1154 2.0911412
1152 1.8917377
1150 1.6250144
1148 1.323976
1146 0.99338925
1144 0.69473469
1142 0.43198043
1140 0.22297604
1138 0.057982717
1136 -0.059182264
1134 -0.1365227
1132 -0.15745413
1130 -0.14028548
1128 -0.035226338
1126 0.10173209
1124 0.28164107
1122 0.45793697
1120 0.57473123
1118 0.67286307
1116 0.70046628
1114 0.72756028
1112 0.75749975
1110 0.78967977
1108 0.82908463
1106 0.87172449
1104 0.92253792
1102 0.97890973
1100 1.0429943
1098 1.0853562
1096 1.0920143
1094 1.0782267
1092 1.04185
1090 1.0219042
1088 1.0169795
1086 1.0075629
1084 0.9924379
1082 0.96080285
1080 0.92245454
1078 0.90246683
1076 0.8864913
1074 0.83954817
1072 0.77192563
1070 0.6306079
1068 0.47268432
1066 0.31453478
1064 0.1686444
1062 0.11432588
1060 0.083313927
1058 0.17290637
1056 0.26415741
1054 0.36025691
1052 0.42592832
1050 0.3956098
1048 0.35898623
1046 0.30836287
1044 0.27030501
1042 0.25134361
1040 0.19913521
1038 0.095966503
1036 -0.036806196
1034 -0.20199887
1032 -0.36155331
1030 -0.51483983
1028 -0.66064942
1026 -0.79825568
1024 -0.90683055
1022 -0.99767101
1020 -1.0583843
1018 -1.1090162
1016 -1.1725514
1014 -1.2384766
1012 -1.2925003
1010 -1.3357843
1008 -1.282148
1006 -1.2162822
1004 -1.1033995
1002 -1.0032444
1000 -0.99324125
998 -1.0075674
996 -1.1288929
994 -1.256048
992 -1.4001131
990 -1.509715
988 -1.5388306
986 -1.5302107
984 -1.4553771
982 -1.3733362
980 -1.2814541
978 -1.1927097
976 -1.1091114
974 -1.0511051
972 -1.0137347
970 -0.9795031
968 -0.94345313
966 -0.84633303
964 -0.72143984
962 -0.59395051
960 -0.47032341
958 -0.43723348
956 -0.42475644
954 -0.43411127
952 -0.4421308
950 -0.35252827
948 -0.25376269
946 -0.082285389
944 0.00079872087
942 0.024757978
940 0.068896309
938 0.104022
936 0.13940428
934 0.17593925
932 0.21388377
930 0.25461262
928 0.28731918
926 0.30693692
924 0.30582061
922 0.27962881
920 0.23954679
918 0.18565626
916 0.087740891
914 -0.042175069
912 -0.22860378
910 -0.44349003
908 -0.62009543
906 -0.77982098
904 -0.86791909
902 -0.93558866
900 -0.92825317
898 -0.90817487
896 -0.72986001
