##TITLE=Methyl Ethyl Ketone
##JCAMP-DX=4.24
##DATA TYPE=INFRARED SPECTRUM
##XUNITS=cm-1
##YUNITS=Absorbance
##FIRSTX=900
##LASTX=2300
##XYDATA=(X++(Y..Y))
2296 -0.052806001
2294 -0.053927395
2292 -0.055049788
2290 -0.056171186
2288 -0.057293579
2286 -0.058414981
2284 -0.059537366
2282 -0.060658768
2280 -0.061781157
2278 -0.062902562
2276 -0.064024948
2274 -0.065149307
2272 -0.066268787
2270 -0.067381307
2268 -0.068512343
2266 -0.069668181
2264 -0.070757106
2262 -0.071751863
2260 -0.07299678
2258 -0.074590437
2256 -0.075257659
2254 -0.074622221
2252 -0.077431194
2250 -0.085096695
2248 -0.079961449
2246 -0.046830967
2244 -0.0016941229
2242 0.029472593
2240 0.01572028
2238 -0.06280414
2236 -0.17587776
2234 -0.28135982
2232 -0.34657899
2230 -0.35451108
2228 -0.33987013
2226 -0.3459785
2224 -0.39053395
2222 -0.47281203
2220 -0.54876596
2218 -0.57071704
2216 -0.52780455
2214 -0.42744794
2212 -0.30608839
2210 -0.20141892
2208 -0.12167171
2206 -0.062866896
2204 -0.008392551
2202 0.057497561
2200 0.13186529
2198 0.2051139
2196 0.26425499
2194 0.29997924
2192 0.32187223
2190 0.34428188
2188 0.37678573
2186 0.42414144
2184 0.4783392
2182 0.53125733
2180 0.59102881
2178 0.67155898
2176 0.78839797
2174 0.9492119
2172 1.1275642
2170 1.286188
2168 1.3888857
2166 1.4109535
2164 1.3711805
2162 1.3029671
2160 1.2393199
2158 1.2059768
2156 1.20057
2154 1.2140481
2152 1.2477177
2150 1.3055907
2148 1.3861257
2146 1.4793643
2144 1.5478885
2142 1.5554451
2140 1.5097386
2138 1.4396821
2136 1.3965143
2134 1.4243648
2132 1.5062032
2130 1.6018223
2128 1.666716
2126 1.6673229
2124 1.6185957
2122 1.5521762
2120 1.4957891
2118 1.4680387
2116 1.45829
2114 1.448861
2112 1.4382194
2110 1.4339385
2108 1.453498
2106 1.5117415
2104 1.5976257
2102 1.690702
2100 1.7731019
2098 1.834197
2096 1.8871429
2094 1.9499648
2092 2.0228589
2090 2.0959585
2088 2.1487606
2086 2.1637502
2084 2.1524563
2082 2.1362221
2080 2.1296406
2078 2.139369
2076 2.1517515
2074 2.1486516
2072 2.1266999
2070 2.0911696
2068 2.056637
2066 2.0384808
2064 2.0405052
2062 2.0607224
2060 2.0937831
2058 2.1340621
2056 2.1806228
2054 2.2334657
2052 2.2868104
2050 2.3343468
2048 2.3771422
2046 2.4192643
2044 2.464848
2042 2.5137193
2040 2.5491755
2038 2.5523267
2036 2.5253172
2034 2.4820712
2032 2.446804
2030 2.4418151
2028 2.4644973
2026 2.5017629
2024 2.5434818
2022 2.5828259
2020 2.6189816
2018 2.6516457
2016 2.67152
2014 2.665956
2012 2.6261547
2010 2.5489643
2008 2.4475646
2006 2.3427086
2004 2.2568152
2002 2.208142
2000 2.1959937
1998 2.2116876
1996 2.2499857
1994 2.3085315
1992 2.3881731
1990 2.4865181
1988 2.5811281
1986 2.6428421
1984 2.6550663
1982 2.6136994
1980 2.5403767
1978 2.4671636
1976 2.4186544
1974 2.4098699
1972 2.4323885
1970 2.4669473
1968 2.4955382
1966 2.50384
1964 2.4876409
1962 2.4485924
1960 2.3928559
1958 2.3296721
1956 2.2742741
1954 2.2423048
1952 2.2385137
1950 2.2591002
1948 2.2870157
1946 2.3021998
1944 2.299211
1942 2.282656
1940 2.2656193
1938 2.2619464
1936 2.2716086
1934 2.2881715
1932 2.3106339
1930 2.3420854
1928 2.3895526
1926 2.4559772
1924 2.5192509
1922 2.5455599
1920 2.5086327
1918 2.398289
1916 2.2506542
1914 2.1223428
1912 2.0515096
1910 2.0556142
1908 2.1145289
1906 2.1908877
1904 2.258564
1902 2.3033464
1900 2.3285298
1898 2.3447495
1896 2.3552573
1894 2.3575861
1892 2.3456192
1890 2.3134649
1888 2.2622657
1886 2.1979971
1884 2.1288002
1882 2.0645344
1880 2.0204754
1878 2.013037
1876 2.0497799
1874 2.1275618
1872 2.2199223
1870 2.2889297
1868 2.3035061
1866 2.2460477
1864 2.1351171
1862 2.0084488
1860 1.8968443
1858 1.8216285
1856 1.7898571
1854 1.7991859
1852 1.8420184
1850 1.9052416
1848 1.963788
1846 1.9900571
1844 1.9776423
1842 1.9373333
1840 1.8940194
1838 1.8750826
1836 1.88509
1834 1.912137
1832 1.9399834
1830 1.9529698
1828 1.9443154
1826 1.9151186
1824 1.8748623
1822 1.8370854
1820 1.81091
1818 1.8000437
1816 1.7989228
1814 1.7962837
1812 1.7817451
1810 1.7487204
1808 1.7020983
1806 1.65184
1804 1.5973611
1802 1.5310645
1800 1.4487834
1798 1.353007
1796 1.2616
1794 1.1989135
1792 1.1733921
1790 1.1790255
1788 1.1996092
1786 1.2134401
1784 1.1990572
1782 1.1403333
1780 1.041822
1778 0.92314619
1776 0.80706459
1774 0.71304107
1772 0.6434561
1770 0.58692336
1768 0.52462864
1766 0.43776393
1764 0.32462838
1762 0.19524957
1760 0.055169713
1758 -0.091581337
1756 -0.22515714
1754 -0.32051998
1752 -0.38462275
1750 -0.44918031
1748 -0.54486996
1746 -0.69077575
1744 -0.87167609
1742 -1.0463805
1740 -1.1684686
1738 -1.1987634
1736 -1.1347001
1734 -1.0049492
1732 -0.85614866
1730 -0.73595393
1728 -0.65169078
1726 -0.57627577
1724 -0.47155029
1722 -0.3047151
1720 -0.085857049
1718 0.15180634
1716 0.42429498
1714 0.77633321
1712 1.1844125
1710 1.5833337
1708 1.9934521
1706 2.5181658
1704 3.2914875
1702 4.4708581
1700 6.2652206
1698 8.8482952
1696 12.044143
1694 15.404221
1692 18.55497
1690 21.304752
1688 23.826851
1686 26.553942
1684 29.818016
1682 33.720261
1680 37.869801
1678 41.600666
1676 44.766602
1674 47.730362
1672 50.916389
1670 54.633297
1668 58.787872
1666 62.9804
1664 66.931351
1662 70.537262
1660 73.780075
1658 76.696198
1656 79.365112
1654 81.892616
1652 84.368874
1650 86.820114
1648 89.061111
1646 90.761826
1644 91.772194
1642 92.138763
1640 91.934608
1638 91.212257
1636 89.9776
1634 88.214752
1632 85.9935
1630 83.451729
1628 80.645271
1626 77.537445
1624 74.079681
1622 70.248383
1620 66.11718
1618 61.852554
1616 57.64537
1614 53.681526
1612 50.094303
1610 46.947739
1608 44.203411
1606 41.743694
1604 39.482552
1602 37.388351
1600 35.46928
1598 33.75671
1596 32.260498
1594 30.964716
1592 29.849445
1590 28.898737
1588 28.111517
1586 27.497744
1584 27.058525
1582 26.78443
1580 26.679161
1578 26.761147
1576 27.042
1574 27.517012
1572 28.146137
1570 28.860256
1568 29.604481
1566 30.34388
1564 31.039869
1562 31.683798
1560 32.460674
1558 33.718357
1556 35.62907
1554 38.09235
1552 40.751781
1550 43.097775
1548 44.930813
1546 46.422321
1544 47.743198
1542 48.96587
1540 50.074039
1538 50.97047
1536 51.541027
1534 51.696442
1532 51.479004
1530 51.059986
1528 50.534916
1526 49.87875
1524 49.037922
1522 47.968746
1520 46.700729
1518 45.343884
1516 43.996101
1514 42.693089
1512 41.312599
1510 39.581524
1508 37.315804
1506 34.515129
1504 31.411476
1502 28.429359
1500 25.804354
1498 23.48373
1496 21.323572
1494 19.1549
1492 16.873314
1490 14.466619
1488 11.966366
1486 9.444521
1484 7.0342321
1482 4.9136238
1480 3.1652982
1478 1.7596757
1476 0.74891812
1474 0.28848159
1472 0.39478868
1470 0.8833617
1468 1.5561734
1466 2.2667651
1464 2.9507732
1462 3.6327212
1460 4.3370767
1458 5.0551658
1456 5.7297201
1454 6.2573442
1452 6.5694575
1450 6.6616502
1448 6.5695286
1446 6.3616176
1444 6.1033883
1442 5.8412976
1440 5.5886917
1438 5.3175316
1436 4.9790716
1434 4.5180054
1432 3.927392
1430 3.2686892
1428 2.6194561
1426 2.05393
1424 1.6182246
1422 1.3200353
1420 1.15687
1418 1.123726
1416 1.2135772
1414 1.41539
1412 1.7072189
1410 2.0548062
1408 2.4334669
1406 2.8378193
1404 3.2748463
1402 3.7602019
1400 4.2935801
1398 4.8474259
1396 5.3810573
1394 5.8458905
1392 6.2054591
1390 6.4448867
1388 6.5585513
1386 6.5492601
1384 6.4300785
1382 6.2264171
1380 5.9642973
1378 5.6639695
1376 5.3315144
1374 4.9558535
1372 4.53721
1370 4.0979142
1368 3.6572292
1366 3.2200613
1364 2.7763615
1362 2.3023729
1360 1.7989314
1358 1.3082392
1356 0.87341744
1354 0.52138889
1352 0.25904679
1350 0.068665572
1348 -0.064318918
1346 -0.14105
1344 -0.1620452
1342 -0.1323009
1340 -0.0617618
1338 0.033153161
1336 0.13396057
1334 0.22252293
1332 0.2886948
1330 0.33580428
1328 0.37330845
1326 0.41571838
1324 0.47857952
1322 0.57620555
1320 0.71625775
1318 0.89419305
1316 1.0933599
1314 1.2825719
1312 1.4345331
1310 1.5355865
1308 1.5836085
1306 1.5906243
1304 1.5705954
1302 1.5355451
1300 1.49942
1298 1.4790694
1296 1.4853144
1294 1.5169615
1292 1.5660157
1290 1.6189463
1288 1.6671519
1286 1.7134043
1284 1.7612077
1282 1.8106512
1280 1.8616726
1278 1.9151983
1276 1.9755
1274 2.05161
1272 2.1519701
1270 2.2815135
1268 2.4465129
1266 2.6566601
1264 2.9210651
1262 3.2451549
1260 3.6281941
1258 4.0605321
1256 4.5370431
1254 5.0644875
1252 5.6493201
1250 6.2900405
1248 6.9724441
1246 7.6627498
1244 8.3317766
1242 8.9681835
1240 9.5689278
1238 10.137136
1236 10.667272
1234 11.132089
1232 11.49712
1230 11.71871
1228 11.770214
1226 11.661614
1224 11.421668
1222 11.097008
1220 10.722577
1218 10.303844
1216 9.8338346
1214 9.3040028
1212 8.717063
1210 8.102932
1208 7.4962411
1206 6.9264631
1204 6.4091721
1202 5.9335155
1200 5.4809198
1198 5.0310144
1196 4.5684643
1194 4.0902295
1192 3.5985663
1190 3.1015611
1188 2.6095605
1186 2.1359029
1184 1.6962674
1182 1.3095932
1180 0.99381733
1178 0.76158702
1176 0.61824399
1174 0.55546772
1172 0.55780113
1170 0.60116714
1168 0.65910059
1166 0.70537508
1164 0.72221041
1162 0.71096772
1160 0.68058348
1158 0.64591253
1156 0.61582983
1154 0.58240116
1152 0.53388697
1150 0.45965549
1148 0.3549912
1146 0.22925749
1144 0.10363974
1142 0.01696275
1140 -0.0056124618
1138 0.02029844
1136 0.07908909
1134 0.1775187
1132 0.32281315
1130 0.51034504
1128 0.7306897
1126 0.96993071
1124 1.216184
1122 1.4656737
1120 1.7215999
1118 1.9981349
1116 2.29721
1114 2.5845752
1112 2.8248286
1110 3.0023544
1108 3.1238904
1106 3.23823
1104 3.3924222
1102 3.6022897
1100 3.86917
1098 4.1770296
1096 4.5105286
1094 4.8659234
1092 5.2408781
1090 5.6285505
1088 6.0169268
1086 6.3835216
1084 6.7063808
1082 6.9712939
1080 7.173584
1078 7.328279
1076 7.4547372
1074 7.5700235
1072 7.6851425
1070 7.7949924
1068 7.8899055
1066 7.9587049
1064 7.9904242
1062 7.9770045
1060 7.9114819
1058 7.7898936
1056 7.6161914
1054 7.4135804
1052 7.2061248
1050 7.0050349
1048 6.8139172
1046 6.6229501
1044 6.4267097
1042 6.2402987
1040 6.076148
1038 5.9249206
1036 5.7685399
1034 5.5798893
1032 5.3376384
1030 5.0439987
1028 4.7083836
1026 4.3446465
1024 3.9676859
1022 3.5917511
1020 3.22698
1018 2.8708735
1016 2.5188971
1014 2.1685612
1012 1.8245764
1010 1.5117354
1008 1.2531281
1006 1.0512158
1004 0.89253736
1002 0.73029399
1000 0.52377409
998 0.27739954
996 0.010872945
994 -0.2433781
992 -0.46109062
990 -0.65362298
988 -0.83513731
986 -1.000542
984 -1.1384286
982 -1.2321712
980 -1.266786
978 -1.2358947
976 -1.136348
974 -0.9677707
972 -0.7406562
970 -0.49879119
968 -0.28772444
966 -0.13070554
964 -0.033454444
962 0.038948581
960 0.12258235
958 0.22281109
956 0.32932898
954 0.40434784
952 0.4122836
950 0.34953561
948 0.23280728
946 0.12164146
944 0.059624165
942 -0.0037690401
940 -0.11892489
938 -0.25194782
936 -0.35449401
934 -0.40207547
932 -0.38241783
930 -0.3064684
928 -0.19353962
926 -0.072438389
924 0.031514056
922 0.11489435
920 0.17932755
918 0.22499637
916 0.25805572
914 0.30868137
912 0.40562749
910 0.54901934
908 0.72356224
906 0.88184345
904 0.98129928
902 1.0299561
900 1.0429134
898 1.0125757
896 0.92576998
