##TITLE=Methyl Ethyl Ketone
##JCAMP-DX=4.24
##DATA TYPE=INFRARED SPECTRUM
##XUNITS=cm-1
##YUNITS=Absorbance
##FIRSTX=900
##LASTX=2300
##XYDATA=(X++(Y..Y))
2296 -0.027998
2294 -0.028581165
2292 -0.029163335
2290 -0.029745502
2288 -0.030328663
2286 -0.030910835
2284 -0.031493004
2282 -0.032076158
2280 -0.032658335
2278 -0.033240505
2276 -0.033822671
2274 -0.034405824
2272 -0.034988005
2270 -0.035570174
2268 -0.03615234
2266 -0.036735486
2264 -0.037317675
2262 -0.037900817
2260 -0.038483009
2258 -0.039065175
2256 -0.039647344
2254 -0.040230479
2252 -0.040812675
2250 -0.041394845
2248 -0.041977976
2246 -0.042560179
2244 -0.00158158
2242 0.019423742
2240 0.07441324
2238 0.16380422
2236 0.25800085
2234 0.37014127
2232 0.48017868
2230 0.51414829
2228 0.53575981
2226 0.48744699
2224 0.43554327
2222 0.38320184
2220 0.33273765
2218 0.28786597
2216 0.24071686
2214 0.18790717
2212 0.14394701
2210 0.11502246
2208 0.11478069
2206 0.14915521
2204 0.21940455
2202 0.32215801
2200 0.42457896
2198 0.52518594
2196 0.57875144
2194 0.60523039
2192 0.59734702
2190 0.57516354
2188 0.54979408
2186 0.5237062
2184 0.47775683
2182 0.42725819
2180 0.37598804
2178 0.32568789
2176 0.36198029
2174 0.40957889
2172 0.4949683
2170 0.57245678
2168 0.58397371
2166 0.57828957
2164 0.53317136
2162 0.49603996
2160 0.48945805
2158 0.51070923
2156 0.57891399
2154 0.66658026
2152 0.77538538
2150 0.87584507
2148 0.96439743
2146 1.0168185
2144 1.038224
2142 1.0349489
2140 1.0164397
2138 1.0041753
2136 0.99622172
2134 0.95904237
2132 0.90955561
2130 0.82808161
2128 0.73681045
2126 0.71564645
2124 0.71090806
2122 0.78828222
2120 0.87749112
2118 0.94681865
2116 1.0083674
2114 1.0338609
2112 1.0533502
2110 1.070121
2108 1.0818229
2106 1.0794107
2104 1.0617155
2102 1.0148087
2100 0.95872301
2098 0.894256
2096 0.84580427
2094 0.81970984
2092 0.82463682
2090 0.85828656
2088 0.91275603
2086 0.9814105
2084 1.0504696
2082 1.1185904
2080 1.1716239
2078 1.2165486
2076 1.2346101
2074 1.2419169
2072 1.224672
2070 1.1996487
2068 1.2010251
2066 1.2092872
2064 1.2559183
2062 1.3072923
2060 1.3362532
2058 1.3558379
2056 1.3481457
2054 1.3347336
2052 1.3188583
2050 1.3001738
2048 1.2739246
2046 1.2345822
2044 1.1717501
2042 1.097716
2040 1.0155234
2038 0.96755511
2036 0.96465039
2034 1.0295849
2032 1.1519766
2030 1.2827051
2028 1.4108354
2026 1.4733971
2024 1.4933772
2022 1.4860269
2020 1.4671414
2018 1.4741597
2016 1.49362
2014 1.5032303
2012 1.5104989
2010 1.4812058
2008 1.4422435
2006 1.3920994
2004 1.3406581
2002 1.296109
2000 1.2557149
1998 1.2198287
1996 1.1889071
1994 1.1655594
1992 1.1563594
1990 1.1805745
1988 1.2341881
1986 1.3325535
1984 1.4423634
1982 1.5530043
1980 1.6356617
1978 1.6832597
1976 1.7161371
1974 1.740448
1972 1.7890242
1970 1.8561068
1968 1.9126999
1966 1.960692
1964 1.9524759
1962 1.9173373
1960 1.8723279
1958 1.8251195
1956 1.8155172
1954 1.8218434
1952 1.8745389
1950 1.942219
1948 1.9867277
1946 2.0085001
1944 1.9531137
1942 1.8736274
1940 1.8177058
1938 1.7882326
1936 1.8143171
1934 1.8535743
1932 1.877534
1930 1.889738
1928 1.8820537
1926 1.8885528
1924 1.915844
1922 1.9820758
1920 2.0890429
1918 2.1971772
1916 2.3054972
1914 2.3744929
1912 2.412931
1910 2.3935804
1908 2.3383443
1906 2.2324922
1904 2.1033041
1902 2.0138724
1900 1.9465423
1898 1.9589473
1896 2.0042713
1894 2.0541408
1892 2.0979264
1890 2.100328
1888 2.08162
1886 2.05372
1884 2.0187297
1882 1.9755028
1880 1.9242972
1878 1.8553721
1876 1.79787
1874 1.7591486
1872 1.7610303
1870 1.8066515
1868 1.8727611
1866 1.9638014
1864 2.0202136
1862 2.047401
1860 2.0232389
1858 1.9537163
1856 1.8741915
1854 1.7880564
1852 1.777486
1850 1.8119351
1848 1.9090641
1846 2.0313108
1844 2.0493085
1842 2.0026762
1840 1.8403983
1838 1.630613
1836 1.4327457
1834 1.2586501
1832 1.1373429
1830 1.06217
1828 1.0808101
1826 1.1309249
1824 1.1892194
1822 1.2059408
1820 1.125024
1818 1.0079764
1816 0.877258
1814 0.79304409
1812 0.7752645
1810 0.80543548
1808 0.87130767
1806 0.93999499
1804 1.0020628
1802 1.0688
1800 1.134632
1798 1.214026
1796 1.3022286
1794 1.3326454
1792 1.3297601
1790 1.2513605
1788 1.1388248
1786 1.0461364
1784 0.97385913
1782 0.92235869
1780 0.89328891
1778 0.9053238
1776 0.930794
1774 0.91707879
1772 0.8244679
1770 0.58699977
1768 0.29699707
1766 0.071904533
1764 -0.044595979
1762 -0.027342707
1760 0.033655271
1758 0.01783675
1756 -0.059689939
1754 -0.16988546
1752 -0.21959703
1750 -0.19128141
1748 -0.097400017
1746 0.048046358
1744 0.12527542
1742 0.14199834
1740 0.12632081
1738 0.088212773
1736 0.098622799
1734 0.13729021
1732 0.10031028
1730 0.01059108
1728 -0.14678624
1726 -0.3181707
1724 -0.36439565
1722 -0.27613881
1720 -0.019634336
1718 0.35093918
1716 0.99145329
1714 1.7909003
1712 2.6060767
1710 3.4354763
1708 4.24124
1706 5.2023973
1704 6.4486814
1702 8.1722145
1700 10.46973
1698 13.265572
1696 16.487572
1694 19.6017
1692 22.387007
1690 24.962051
1688 27.38257
1686 30.299843
1684 33.755268
1682 37.696316
1680 42.01144
1678 45.758621
1676 48.993557
1674 52.182724
1672 55.393982
1670 59.164997
1668 63.360657
1666 67.628601
1664 71.911621
1662 75.992668
1660 79.858536
1658 83.434761
1656 86.789253
1654 90.017494
1652 93.068497
1650 95.902985
1648 97.876083
1646 98.522392
1644 98.133461
1642 97.037659
1640 95.504982
1638 93.725601
1636 91.342445
1634 88.297058
1632 84.787262
1630 80.959862
1628 77.071037
1626 73.176254
1624 69.11264
1622 64.873703
1620 60.70961
1618 56.638435
1616 52.707657
1614 48.941914
1612 45.457344
1610 42.294121
1608 39.542629
1606 37.18718
1604 35.115822
1602 33.324127
1600 31.755434
1598 30.414696
1596 29.268501
1594 28.317745
1592 27.539463
1590 26.919374
1588 26.426468
1586 26.081335
1584 25.876795
1582 25.849979
1580 25.997272
1578 26.361031
1576 26.948399
1574 27.681347
1572 28.544674
1570 29.377701
1568 30.1514
1566 30.92502
1564 31.706284
1562 32.726204
1560 34.054527
1558 36.009026
1556 38.547043
1554 40.989952
1552 43.244091
1550 44.954201
1548 46.21965
1546 47.461071
1544 48.688663
1542 49.94371
1540 50.948742
1538 51.401203
1536 51.243401
1534 50.496159
1532 49.507519
1530 48.575558
1528 47.700729
1526 46.881649
1524 45.963833
1522 44.873314
1520 43.43729
1518 41.604858
1516 39.68853
1514 37.772141
1512 35.956238
1510 34.229271
1508 32.011703
1506 29.138636
1504 26.147108
1502 23.10528
1500 20.523766
1498 18.45162
1496 16.379999
1494 14.28502
1492 12.130617
1490 9.9278383
1488 7.7736826
1486 5.7254801
1484 3.8639441
1482 2.3082771
1480 1.1295924
1478 0.36654976
1476 0.081739143
1474 0.33780575
1472 1.0710216
1470 1.930114
1468 2.7403286
1466 3.4941771
1464 4.1318874
1462 4.7869005
1460 5.5099516
1458 6.1197443
1456 6.5409398
1454 6.6430073
1452 6.3148661
1450 5.9278922
1448 5.4944353
1446 5.0878181
1444 4.713716
1442 4.3479619
1440 3.9819903
1438 3.6148176
1436 3.2105885
1434 2.7405686
1432 2.2031703
1430 1.6778579
1428 1.235626
1426 0.95524681
1424 0.85986716
1422 0.92879874
1420 1.1038514
1418 1.3266549
1416 1.5524771
1414 1.7455289
1412 1.9725566
1410 2.2548974
1408 2.5960503
1406 3.005868
1404 3.4280474
1402 3.8639889
1400 4.2712002
1398 4.6322808
1396 4.9249215
1394 5.1068492
1392 5.2079859
1390 5.2009549
1388 5.1315775
1386 4.9726
1384 4.7668948
1382 4.5036077
1380 4.2517605
1378 4.0107899
1376 3.7902029
1374 3.570364
1372 3.3435819
1370 3.1163428
1368 2.8987064
1366 2.6826057
1364 2.4156785
1362 2.0718369
1360 1.6193262
1358 1.129611
1356 0.67917597
1354 0.31998575
1352 0.11741953
1350 0.01102422
1348 0.0032608062
1346 0.010555781
1344 0.11486224
1342 0.26811844
1340 0.49841166
1338 0.71150029
1336 0.88739914
1334 0.98123437
1332 0.96893877
1330 0.94512361
1328 0.91975027
1326 0.95293385
1324 1.0626303
1322 1.2494274
1320 1.5179675
1318 1.8249364
1316 2.1462898
1314 2.4091146
1312 2.6073205
1310 2.717037
1308 2.768904
1306 2.785378
1304 2.7875142
1302 2.796833
1300 2.815026
1298 2.8608146
1296 2.9247713
1294 3.0256753
1292 3.1421697
1290 3.2833288
1288 3.4269562
1286 3.5711966
1284 3.7251053
1282 3.9102621
1280 4.1132889
1278 4.3564954
1276 4.5925188
1274 4.8065062
1272 5.0011716
1270 5.1621718
1268 5.3320637
1266 5.5247574
1264 5.7551165
1262 6.0435972
1260 6.3802719
1258 6.775423
1256 7.2232685
1254 7.7266293
1252 8.2851944
1250 8.8886404
1248 9.5284138
1246 10.18375
1244 10.837317
1242 11.47678
1240 12.07448
1238 12.626951
1236 13.066
1234 13.430595
1232 13.61804
1230 13.740604
1228 13.706566
1226 13.625622
1224 13.41952
1222 13.156487
1220 12.757568
1218 12.30865
1216 11.759628
1214 11.1799
1212 10.548543
1210 9.9051733
1208 9.2526751
1206 8.62918
1204 8.0457621
1202 7.4972486
1200 6.9778695
1198 6.4514675
1196 5.9125071
1194 5.3435531
1192 4.7581735
1190 4.176043
1188 3.6111715
1186 3.1125479
1184 2.6545382
1182 2.2744873
1180 1.9365202
1178 1.6953743
1176 1.4998
1174 1.4342828
1172 1.3888448
1170 1.3930413
1168 1.3828331
1166 1.3302565
1164 1.2646315
1162 1.168188
1160 1.0747681
1158 0.98686057
1156 0.899822
1154 0.8110078
1152 0.70704842
1150 0.58272296
1148 0.45573419
1146 0.32911325
1144 0.21942538
1142 0.12820724
1140 0.058196589
1138 0.013016516
1136 0.025856059
1134 0.08645758
1132 0.26414996
1130 0.49911591
1128 0.79819769
1126 1.1154071
1124 1.4339677
1122 1.7580843
1120 2.1110761
1118 2.4728358
1116 2.8670673
1114 3.254817
1112 3.611599
1110 3.9459376
1108 4.2078967
1106 4.44204
1104 4.6109157
1102 4.7927437
1100 5.0070567
1098 5.2819386
1096 5.6520286
1094 6.0499396
1092 6.4791441
1090 6.8904357
1088 7.2810998
1086 7.6448178
1084 7.984725
1082 8.3025818
1080 8.6049929
1078 8.8942814
1076 9.167984
1074 9.3736191
1072 9.542345
1070 9.602087
1068 9.6339951
1066 9.6358566
1064 9.6351795
1062 9.6440487
1060 9.6449966
1058 9.591259
1056 9.5076084
1054 9.2892246
1052 9.0137215
1050 8.5549803
1048 8.0645161
1046 7.5040498
1044 6.9971685
1042 6.5981255
1040 6.2850981
1038 6.0982947
1036 5.9369402
1034 5.79739
1032 5.5957956
1030 5.3299766
1028 4.9748926
1026 4.5564241
1024 4.1157198
1022 3.669661
1020 3.2854612
1018 2.9353542
1016 2.6923144
1014 2.4879148
1012 2.3913958
1010 2.3115177
1008 2.21472
1006 2.1014085
1004 1.8125043
1002 1.5116343
1000 1.1411811
998 0.79005212
996 0.52484429
994 0.27546376
992 0.075163327
990 -0.13317659
988 -0.36034828
986 -0.60153949
984 -0.86709678
982 -1.1191541
980 -1.3487301
978 -1.4882236
976 -1.5275486
974 -1.4439878
972 -1.2589906
970 -1.0064029
968 -0.71260309
966 -0.39940912
964 -0.079974413
962 0.1933165
960 0.44622195
958 0.57127547
956 0.66401941
954 0.63424891
952 0.58576959
950 0.43880916
948 0.2876991
946 0.13316785
944 0.0
942 -0.00091139227
940 -0.024577662
938 0.075723566
936 0.17208228
934 0.25550002
932 0.3051053
930 0.28256863
928 0.25091875
926 0.20497507
924 0.17866139
922 0.17514056
920 0.13970987
918 0.074788317
916 -0.0063730478
914 -0.098100126
912 -0.14944898
910 -0.180843
908 -0.21512425
906 -0.25224277
904 -0.1979828
902 -0.12078886
900 0.14052066
898 0.43082273
896 0.71232003
