##TITLE=Methyl Ethyl Ketone
##JCAMP-DX=4.24
##DATA TYPE=INFRARED SPECTRUM
##XUNITS=cm-1
##YUNITS=Absorbance
##FIRSTX=900
##LASTX=2300
##XYDATA=(X++(Y..Y))
2296 -0.042133
2294 -0.043008748
2292 -0.043885492
2290 -0.044762239
2288 -0.045638982
2286 -0.046514735
2284 -0.047391474
2282 -0.048268221
2280 -0.049144965
2278 -0.050021712
2276 -0.050897472
2274 -0.0517742
2272 -0.052650951
2270 -0.053527694
2268 -0.054403462
2266 -0.055280186
2264 -0.056156933
2262 -0.057033677
2260 -0.057909448
2258 -0.058786169
2256 -0.059662912
2254 -0.060539659
2252 -0.061415438
2250 -0.062292151
2248 -0.063168898
2246 -0.064045638
2244 0.053114269
2242 0.0022230644
2240 -0.074601606
2238 -0.24529703
2236 -0.42986026
2234 -0.48279503
2232 -0.5232805
2230 -0.49810651
2228 -0.4803198
2226 -0.54717702
2224 -0.61682701
2222 -0.68010843
2220 -0.71052527
2218 -0.64217454
2216 -0.55818999
2214 -0.4521935
2212 -0.37179041
2210 -0.33519551
2208 -0.3335036
2206 -0.37194106
2204 -0.41709
2202 -0.46616316
2200 -0.47209734
2198 -0.44557109
2196 -0.39360285
2194 -0.32827187
2192 -0.28021839
2190 -0.24018525
2188 -0.21230976
2186 -0.18819866
2184 -0.2349696
2182 -0.297961
2180 -0.43062535
2178 -0.57233626
2176 -0.61473829
2174 -0.6397633
2172 -0.57157242
2170 -0.50031197
2168 -0.46233988
2166 -0.43832293
2164 -0.45364311
2162 -0.46683592
2160 -0.46448275
2158 -0.44613454
2156 -0.40027699
2154 -0.36440825
2152 -0.34713888
2150 -0.34137702
2148 -0.3464435
2146 -0.32240358
2144 -0.27166834
2142 -0.2150488
2140 -0.15637983
2138 -0.11215078
2136 -0.075839199
2134 -0.053408038
2132 -0.036210079
2130 -0.10300107
2128 -0.1963692
2126 -0.32707971
2124 -0.46612316
2122 -0.43410113
2120 -0.36845544
2118 -0.18265542
2116 0.0040962566
2114 0.071042195
2112 0.095182113
2110 0.0074117044
2108 -0.086726256
2106 -0.15074316
2104 -0.18809949
2102 -0.17680494
2100 -0.15463199
2098 -0.12648132
2096 -0.097878002
2094 -0.070230484
2092 -0.047650658
2090 -0.030198466
2088 -0.045118615
2086 -0.085467853
2084 -0.14438187
2082 -0.21296918
2080 -0.260364
2078 -0.29633141
2076 -0.32537216
2074 -0.35226297
2072 -0.3406156
2070 -0.31682697
2068 -0.23385395
2066 -0.13852051
2064 -0.091830485
2062 -0.060375132
2060 -0.076118462
2058 -0.0986664
2056 -0.10709315
2054 -0.11009477
2052 -0.10660611
2050 -0.09896563
2048 -0.087409958
2046 -0.082842179
2044 -0.095119745
2042 -0.12543382
2040 -0.17504285
2038 -0.24593411
2036 -0.33441186
2034 -0.43965128
2032 -0.55861348
2030 -0.62769377
2028 -0.65774781
2026 -0.60701883
2024 -0.51020908
2022 -0.39630246
2020 -0.27804634
2018 -0.23671409
2016 -0.226512
2014 -0.33805189
2012 -0.48714978
2010 -0.63206482
2008 -0.76832467
2006 -0.81213087
2004 -0.82601124
2002 -0.80290872
2000 -0.76412916
1998 -0.70870137
1996 -0.65306711
1994 -0.6161117
1992 -0.62322229
1990 -0.70911533
1988 -0.82318521
1986 -0.93963248
1984 -1.0084627
1982 -1.0107157
1980 -0.99185741
1978 -0.97189194
1976 -0.96688086
1974 -0.97907311
1972 -0.90049976
1970 -0.75218165
1968 -0.51706445
1966 -0.23449856
1964 -0.10575794
1962 -0.0587622
1960 -0.17175961
1958 -0.34894478
1956 -0.48171356
1954 -0.5922181
1952 -0.61400557
1950 -0.60209316
1948 -0.58295512
1946 -0.57501251
1944 -0.63088661
1942 -0.71635854
1940 -0.7960934
1938 -0.85622078
1936 -0.86036432
1934 -0.84722018
1932 -0.84714258
1930 -0.84104985
1928 -0.83361483
1926 -0.73045439
1924 -0.51151329
1922 -0.19813804
1920 0.19222754
1918 0.43526891
1916 0.54250085
1914 0.49342081
1912 0.34701377
1910 0.20784982
1908 0.081146255
1906 -0.1122864
1904 -0.3410036
1902 -0.54851776
1900 -0.74015707
1898 -0.69586176
1896 -0.54825854
1894 -0.29316548
1892 -0.021892134
1890 0.096389815
1888 0.10271717
1886 -0.097290106
1884 -0.38674444
1882 -0.70953715
1880 -0.98978472
1878 -1.1539383
1876 -1.17111
1874 -1.0150455
1872 -0.69296825
1870 -0.22104122
1868 0.15773684
1866 0.39015928
1864 0.27908725
1862 -0.12458189
1860 -0.58206046
1858 -1.0301151
1856 -1.2906115
1854 -1.4194292
1852 -1.355888
1850 -1.1911457
1848 -0.88007563
1846 -0.50528181
1844 -0.27694044
1842 -0.14640981
1840 -0.28031242
1838 -0.52618146
1836 -0.74303317
1834 -0.90024364
1832 -0.89006162
1830 -0.7717548
1828 -0.51124418
1826 -0.26129901
1824 -0.14904931
1822 -0.20795049
1820 -0.51367623
1818 -0.87857622
1816 -1.2087212
1814 -1.401361
1812 -1.4274231
1810 -1.3693051
1808 -1.2690023
1806 -1.135375
1804 -0.97709179
1802 -0.72672272
1800 -0.40977725
1798 -0.045072854
1796 0.34230429
1794 0.63923198
1792 0.8845104
1790 0.90025359
1788 0.79344237
1786 0.62595558
1784 0.44988719
1782 0.41426209
1780 0.4898378
1778 0.73248351
1776 1.0707234
1774 1.4316701
1772 1.6784363
1770 1.5994645
1768 1.2849343
1766 0.81795305
1764 0.41478902
1762 0.23717678
1760 0.078213885
1758 -0.090103626
1756 -0.13635172
1754 -0.054061566
1752 0.37457407
1750 1.1545044
1748 1.9935728
1746 2.7922499
1744 3.0552092
1742 2.8479507
1740 2.5751939
1738 2.3203008
1736 2.4476199
1734 2.8465099
1732 2.8518476
1730 2.550112
1728 1.7173052
1726 0.61105633
1724 -0.10211802
1722 -0.3970688
1720 0.11949173
1718 1.2747756
1716 2.9057486
1714 4.5106487
1712 5.4358139
1710 5.9617581
1708 6.341362
1706 7.0651021
1704 8.5243053
1702 10.887127
1700 14.191243
1698 17.815985
1696 21.439857
1694 24.432999
1692 26.631496
1690 28.737385
1688 30.954412
1686 34.083214
1684 38.102493
1682 42.480255
1680 47.068478
1678 50.789974
1676 53.770256
1674 56.965317
1672 60.398808
1670 64.478874
1668 68.993744
1666 73.269653
1664 77.329704
1662 81.114807
1660 84.674553
1658 88.048927
1656 91.285599
1654 94.430519
1652 97.345901
1650 99.899643
1648 101.19949
1646 100.63643
1644 98.688339
1642 95.848991
1640 92.659683
1638 89.435143
1636 85.756531
1634 81.524101
1632 77.063042
1630 72.534744
1628 68.353111
1626 64.540131
1624 60.730442
1622 56.858051
1620 53.000378
1618 49.163406
1616 45.344799
1614 41.578785
1612 38.030018
1610 34.767281
1608 31.981241
1606 29.650942
1604 27.642828
1602 25.947065
1600 24.496819
1598 23.319471
1596 22.407
1594 21.735338
1592 21.246616
1590 20.888893
1588 20.598957
1586 20.451765
1584 20.47772
1582 20.797911
1580 21.44161
1578 22.45808
1576 23.849428
1574 25.380436
1572 26.996334
1570 28.385681
1568 29.493559
1566 30.517206
1564 31.482895
1562 32.8834
1560 34.831181
1558 37.712585
1556 41.399757
1554 44.575912
1552 47.120213
1550 48.790581
1548 49.829899
1546 51.110001
1544 52.67065
1542 54.529778
1540 56.06728
1538 56.491405
1536 55.7318
1534 53.885677
1532 51.755295
1530 50.052959
1528 48.821514
1526 48.076099
1524 47.458809
1522 46.786846
1520 45.503136
1518 43.399357
1516 40.995354
1514 38.413944
1512 36.173962
1510 34.351379
1508 32.129738
1506 29.318707
1504 26.135218
1502 22.626062
1500 19.662357
1498 17.344931
1496 15.251286
1494 13.378786
1492 11.56208
1490 9.7744007
1488 7.9740295
1486 6.1426554
1484 4.246778
1482 2.4925742
1480 1.1115568
1478 0.24049065
1476 0.003656473
1474 0.35627216
1472 1.2457137
1470 2.106883
1468 2.6309614
1466 2.9839993
1464 3.1638978
1462 3.5176549
1460 4.2192626
1458 5.0942903
1456 6.1672001
1454 6.8430738
1452 6.9164748
1450 6.691927
1448 6.0918283
1446 5.5295677
1444 5.0285048
1442 4.6481018
1440 4.4282351
1438 4.3723364
1436 4.444057
1434 4.4611282
1432 4.3441129
1430 4.0093651
1428 3.5552881
1426 3.1884472
1424 2.9981468
1422 3.0750549
1420 3.3226483
1418 3.6463556
1416 3.9028344
1414 3.9488599
1412 3.929024
1410 3.874841
1408 3.9035914
1406 4.0952702
1404 4.3840518
1402 4.8220549
1400 5.29562
1398 5.8124371
1396 6.2346001
1394 6.4893212
1392 6.5674067
1390 6.4006515
1388 6.1417923
1386 5.7598801
1384 5.3507504
1382 4.9218435
1380 4.5678244
1378 4.3114448
1376 4.1592112
1374 4.0692358
1372 3.9509799
1370 3.7864797
1368 3.5425034
1366 3.2494001
1364 2.9091735
1362 2.4952989
1360 1.9866207
1358 1.436058
1356 0.90106487
1354 0.46232352
1352 0.19455442
1350 0.030094963
1348 -0.028885383
1346 -0.057085361
1344 0.051109038
1342 0.26021585
1340 0.64405286
1338 0.96964121
1336 1.1640258
1334 1.1406925
1332 0.80520421
1330 0.47377908
1328 0.19223912
1326 0.099239342
1324 0.25654304
1322 0.56595874
1320 1.0240563
1318 1.4954541
1316 1.9296901
1314 2.2212977
1312 2.3687549
1310 2.3656287
1308 2.2674532
1306 2.1185429
1304 1.9430137
1302 1.7582409
1300 1.5700797
1298 1.4028739
1296 1.2659
1294 1.2125119
1292 1.2128483
1290 1.3155643
1288 1.4276561
1286 1.5307835
1284 1.5887297
1282 1.5408938
1280 1.48106
1278 1.4040014
1276 1.3719571
1274 1.419433
1272 1.5076743
1270 1.6509877
1268 1.7962794
1266 1.9497601
1264 2.1041613
1262 2.2744269
1260 2.471298
1258 2.7034681
1256 2.9755943
1254 3.2912626
1252 3.6529021
1250 4.0498128
1248 4.4671063
1246 4.880825
1244 5.2591562
1242 5.6054015
1240 5.8974071
1238 6.160141
1236 6.3732314
1234 6.5433617
1232 6.5998158
1230 6.5914469
1228 6.4076552
1226 6.1827378
1224 5.8512006
1222 5.499186
1220 5.100162
1218 4.684413
1216 4.2368946
1214 3.7807114
1212 3.3079052
1210 2.8266392
1208 2.3376732
1206 1.8637178
1204 1.4138319
1202 0.99182546
1200 0.59615135
1198 0.20968306
1196 -0.16295207
1194 -0.49960101
1192 -0.80444729
1190 -1.060939
1188 -1.2918925
1186 -1.5037507
1184 -1.6967875
1182 -1.838112
1180 -1.9400523
1178 -1.9334686
1176 -1.8889
1174 -1.7529213
1172 -1.6028976
1170 -1.4147317
1168 -1.2195017
1166 -0.99710977
1164 -0.75628966
1162 -0.47006011
1160 -0.17426965
1158 0.13305463
1156 0.40192997
1154 0.59668088
1152 0.71168578
1150 0.71184266
1148 0.63968998
1146 0.48876536
1144 0.3122164
1142 0.13106254
1140 0.034362927
1138 0.021709129
1136 0.16143057
1134 0.39329129
1132 0.74727356
1130 1.1471376
1128 1.5402263
1126 1.9308665
1124 2.3151557
1122 2.6912632
1120 3.031204
1118 3.3492126
1116 3.568723
1114 3.7711976
1112 3.9085269
1110 4.0312772
1108 4.1104255
1106 4.2050052
1104 4.3452859
1102 4.5518723
1100 4.8873
1098 5.2415466
1096 5.6163859
1094 5.9351401
1092 6.1844001
1090 6.4164867
1088 6.636445
1086 6.8838849
1084 7.1510248
1082 7.4139028
1080 7.6714053
1078 7.9159441
1076 8.1453905
1074 8.3109245
1072 8.4353971
1070 8.409317
1068 8.3485641
1066 8.2716074
1064 8.2091722
1062 8.2679472
1060 8.3312426
1058 8.3849487
1056 8.4173746
1054 8.3565788
1052 8.2919083
1050 8.2158022
1048 8.1600294
1046 8.1528111
1044 8.1444693
1042 8.1334085
1040 8.0991602
1038 8.0312748
1036 7.9483199
1034 7.8406363
1032 7.6618848
1030 7.4108238
1028 7.0753326
1026 6.6829491
1024 6.303534
1022 5.9326811
1020 5.5746517
1018 5.2171621
1016 4.803946
1014 4.3662591
1012 3.8239005
1010 3.2561493
1008 2.604948
1006 1.9579849
1004 1.4469403
1002 0.97047043
1000 0.72351438
998 0.48777103
996 0.29982856
994 0.08802551
992 -0.19712034
990 -0.50172347
988 -0.84972894
986 -1.1921422
984 -1.5236959
982 -1.8053362
980 -2.0153759
978 -2.112546
976 -2.0861144
974 -1.9428235
972 -1.7035345
970 -1.40801
968 -1.0785733
966 -0.73204398
964 -0.38136733
962 -0.096966848
960 0.15604994
958 0.17804068
956 0.14371064
954 -0.0640724
952 -0.28509599
950 -0.32781956
948 -0.34545872
946 -0.11386286
944 0.0075767934
942 0.22778715
940 0.43210757
938 0.56822515
936 0.74532002
934 1.0420835
932 1.3667922
930 1.7490557
928 2.0526776
926 2.2302549
924 2.381268
922 2.5004978
920 2.6733282
918 2.8952341
916 3.049227
914 3.1547375
912 3.1648142
910 3.121716
908 3.0132198
906 2.8749607
904 2.6316319
902 2.3588676
900 2.3747754
898 2.4372106
896 3.2832999
