##TITLE=Methyl Ethyl Ketone
##JCAMP-DX=4.24
##DATA TYPE=INFRARED SPECTRUM
##XUNITS=cm-1
##YUNITS=Absorbance
##FIRSTX=900
##LASTX=2300
##XYDATA=(X++(Y..Y))
2296 0.11099
2294 0.1132967
2292 0.1156034
2290 0.11791009
2288 0.12021679
2286 0.12253343
2284 0.1248402
2282 0.1271469
2280 0.1294536
2278 0.1317603
2276 0.13407686
2274 0.1363837
2272 0.1386904
2270 0.1409971
2268 0.1433136
2266 0.14564006
2264 0.14792766
2262 0.15017536
2260 0.15253906
2258 0.15509051
2256 0.15717086
2254 0.15860739
2252 0.16174944
2250 0.16731437
2248 0.16651498
2246 0.14654821
2244 0.088888772
2242 -0.01470118
2240 -0.12455236
2238 -0.19694188
2236 -0.22632587
2234 -0.21983561
2232 -0.19132857
2230 -0.15411445
2228 -0.11192331
2226 -0.068781048
2224 -0.041261788
2222 -0.047797538
2220 -0.099384174
2218 -0.196843
2216 -0.30890629
2214 -0.39958963
2212 -0.45244101
2210 -0.46403039
2208 -0.459342
2206 -0.46588621
2204 -0.48669004
2202 -0.51740235
2200 -0.55470866
2198 -0.59742945
2196 -0.65108502
2194 -0.71795154
2192 -0.77868354
2190 -0.81132299
2188 -0.81114751
2186 -0.78320497
2184 -0.74944037
2182 -0.73238945
2180 -0.73552227
2178 -0.75629467
2176 -0.79329681
2174 -0.84481627
2172 -0.90587389
2170 -0.96813488
2168 -1.0138634
2166 -1.0265179
2164 -1.0080178
2162 -0.96733278
2160 -0.91806108
2158 -0.87360924
2156 -0.84063303
2154 -0.82255167
2152 -0.81916547
2150 -0.8290289
2148 -0.85040194
2146 -0.8817364
2144 -0.92241818
2142 -0.97126311
2140 -1.0233544
2138 -1.0731136
2136 -1.1171399
2134 -1.1526963
2132 -1.1771823
2130 -1.1914467
2128 -1.2104241
2126 -1.2520722
2124 -1.3263557
2122 -1.4338173
2120 -1.5498166
2118 -1.6458502
2116 -1.7153014
2114 -1.760775
2112 -1.7882749
2110 -1.8030463
2108 -1.8037611
2106 -1.7881292
2104 -1.7616262
2102 -1.7329909
2100 -1.711628
2098 -1.7058809
2096 -1.7164571
2094 -1.7395217
2092 -1.7629194
2090 -1.7732081
2088 -1.7650342
2086 -1.7398551
2084 -1.713722
2082 -1.7054796
2080 -1.7221217
2078 -1.7632084
2076 -1.8167257
2074 -1.8682287
2072 -1.911412
2070 -1.9435925
2068 -1.9628152
2066 -1.967355
2064 -1.9545183
2062 -1.9225835
2060 -1.8752948
2058 -1.819839
2056 -1.7692685
2054 -1.7362338
2052 -1.7243291
2050 -1.7318023
2048 -1.7519674
2046 -1.7789822
2044 -1.8189319
2042 -1.8808713
2040 -1.9657892
2038 -2.0685656
2036 -2.1740887
2034 -2.2644999
2032 -2.3268082
2030 -2.3529711
2028 -2.344795
2026 -2.31036
2024 -2.2650926
2022 -2.2262416
2020 -2.2053514
2018 -2.2092931
2016 -2.2351799
2014 -2.2749796
2012 -2.3152261
2010 -2.3423176
2008 -2.3506949
2006 -2.3408172
2004 -2.3218548
2002 -2.3059871
2000 -2.3014019
1998 -2.3112328
1996 -2.3256285
1994 -2.3317018
1992 -2.3281941
1990 -2.3200452
1988 -2.3142779
1986 -2.3154578
1984 -2.3157892
1982 -2.3040643
1980 -2.2821946
1978 -2.2570922
1976 -2.2298543
1974 -2.1969349
1972 -2.1498029
1970 -2.0828424
1968 -2.0132656
1966 -1.9660701
1964 -1.9507786
1962 -1.9639241
1960 -1.98342
1958 -1.9830935
1956 -1.9569685
1954 -1.910483
1952 -1.8501782
1950 -1.7835563
1948 -1.7216392
1946 -1.67775
1944 -1.6680251
1942 -1.7026675
1940 -1.7616037
1938 -1.8106718
1936 -1.8242286
1934 -1.7887442
1932 -1.719638
1930 -1.6430038
1928 -1.5674669
1926 -1.4881071
1924 -1.3875439
1922 -1.2507303
1920 -1.0988795
1918 -0.96958393
1916 -0.88487887
1914 -0.85129982
1912 -0.85238355
1910 -0.86536008
1908 -0.89141989
1906 -0.94210964
1904 -1.0118296
1902 -1.081391
1900 -1.1187872
1898 -1.0942938
1896 -1.0151643
1894 -0.91055632
1892 -0.81173927
1890 -0.74471098
1888 -0.71559691
1886 -0.71994251
1884 -0.75676984
1882 -0.82474637
1880 -0.90750778
1878 -0.97785664
1876 -1.0005029
1874 -0.94396269
1872 -0.81004024
1870 -0.6276949
1868 -0.45702356
1866 -0.36553258
1864 -0.38038418
1862 -0.4943774
1860 -0.66222137
1858 -0.82157242
1856 -0.92480457
1854 -0.93846661
1852 -0.84320986
1850 -0.63599008
1848 -0.35314161
1846 -0.057365108
1844 0.17585683
1842 0.27955836
1840 0.24923417
1838 0.12343933
1836 -0.043858871
1834 -0.1978367
1832 -0.30411404
1830 -0.34738344
1828 -0.33705822
1826 -0.29981223
1824 -0.27570242
1822 -0.30371577
1820 -0.3865602
1818 -0.49773458
1816 -0.58861941
1814 -0.60750127
1812 -0.54134905
1810 -0.40828031
1808 -0.24613279
1806 -0.095015392
1804 0.039558638
1802 0.17509989
1800 0.32366663
1798 0.48230192
1796 0.6096943
1794 0.64888787
1792 0.58598161
1790 0.44765168
1788 0.29805461
1786 0.20937379
1784 0.19152606
1782 0.2143129
1780 0.2729784
1778 0.38080409
1776 0.52636027
1774 0.66982448
1772 0.73434567
1770 0.64296395
1768 0.4259828
1766 0.18934101
1764 0.0227673
1762 -0.027101614
1760 -0.010523978
1758 -0.02463042
1756 -0.074821331
1754 -0.092905737
1752 -0.019249056
1750 0.17186816
1748 0.42562896
1746 0.63551855
1744 0.71912378
1742 0.64088166
1740 0.46328264
1738 0.30431241
1736 0.217216
1734 0.18649492
1732 0.14850435
1730 0.029445544
1728 -0.16128671
1726 -0.34411651
1724 -0.42618367
1722 -0.32017708
1720 0.033593491
1718 0.65552598
1716 1.4819269
1714 2.391062
1712 3.2808115
1710 4.0991144
1708 4.9134979
1706 5.8890266
1704 7.2240353
1702 9.1069555
1700 11.620109
1698 14.704876
1696 18.043428
1694 21.177189
1692 23.900583
1690 26.293787
1688 28.678183
1686 31.488001
1684 34.944656
1682 38.992722
1680 43.198799
1678 46.959099
1676 50.204227
1674 53.347729
1672 56.766094
1670 60.6553
1668 64.883064
1666 69.093704
1664 73.107689
1662 76.942726
1660 80.620575
1658 84.134979
1656 87.488373
1654 90.675926
1652 93.5961
1650 96.038849
1648 97.691406
1646 98.250999
1644 97.814484
1642 96.798302
1640 95.401344
1638 93.549065
1636 91.090927
1634 87.906639
1632 84.136185
1630 80.128265
1628 76.094269
1626 72.061386
1624 67.974716
1622 63.757107
1620 59.429188
1618 55.10907
1616 50.921398
1614 46.97963
1612 43.38863
1610 40.232193
1608 37.523045
1606 35.206699
1604 33.228577
1602 31.547375
1600 30.122257
1598 28.909901
1596 27.862499
1594 26.93326
1592 26.099749
1590 25.367411
1588 24.765499
1586 24.339329
1584 24.119942
1582 24.12574
1580 24.388361
1578 24.949667
1576 25.82423
1574 26.975885
1572 28.277718
1570 29.534531
1568 30.618879
1566 31.504679
1564 32.242275
1562 32.973057
1560 34.004265
1558 35.722466
1556 38.12677
1554 40.778271
1552 43.199017
1550 45.040428
1548 46.335545
1546 47.471607
1544 48.692455
1542 49.968784
1540 51.088398
1538 51.73082
1536 51.733658
1534 51.160645
1532 50.216003
1530 49.186405
1528 48.230297
1526 47.330399
1524 46.404194
1522 45.334797
1520 44.002296
1518 42.321411
1516 40.360371
1514 38.330051
1512 36.311398
1510 34.189232
1508 31.782255
1506 28.933344
1504 25.768034
1502 22.705999
1500 20.028608
1498 17.7572
1496 15.776857
1494 13.890856
1492 11.9686
1490 9.9859009
1488 7.9574804
1486 5.9298606
1484 4.0082302
1482 2.3549666
1480 1.0978315
1478 0.30923426
1476 0.070076272
1474 0.44851696
1472 1.3103081
1470 2.298311
1468 3.1816118
1466 3.9600456
1464 4.7149367
1462 5.5460148
1460 6.4330311
1458 7.1968603
1456 7.64394
1454 7.6412106
1452 7.2504277
1450 6.7473035
1448 6.3065333
1446 5.911757
1444 5.5339417
1442 5.1820831
1440 4.8706732
1438 4.6033921
1436 4.3444028
1434 4.0172157
1432 3.5910046
1430 3.1123495
1428 2.6581941
1426 2.3153014
1424 2.1244919
1422 2.0590475
1420 2.0746534
1418 2.1276171
1416 2.1992972
1414 2.305527
1412 2.4669411
1410 2.6982265
1408 2.999789
1406 3.355185
1404 3.7519796
1402 4.1868343
1400 4.6468801
1398 5.1003122
1396 5.4990001
1394 5.7817783
1392 5.9141378
1390 5.9059668
1388 5.7823858
1386 5.5766149
1384 5.3214083
1382 5.0462499
1380 4.7790947
1378 4.5425277
1376 4.3349342
1374 4.1216717
1372 3.87128
1370 3.5705369
1368 3.2241685
1366 2.8547385
1364 2.4716866
1362 2.0604417
1360 1.6177343
1358 1.1677591
1356 0.74807286
1354 0.40355894
1352 0.16027583
1350 0.012322191
1348 -0.049094282
1346 -0.026657786
1344 0.074520156
1342 0.24026561
1340 0.43693742
1338 0.6059702
1336 0.70246261
1334 0.71645617
1332 0.66695392
1330 0.60467529
1328 0.57002008
1326 0.57502192
1324 0.62798882
1322 0.74015456
1320 0.91419178
1318 1.1353376
1316 1.37322
1314 1.5806956
1312 1.7240286
1310 1.8005586
1308 1.8232703
1306 1.81954
1304 1.8130462
1302 1.815093
1300 1.829864
1298 1.85384
1296 1.8823143
1294 1.9122707
1292 1.9450183
1290 1.9880378
1288 2.04708
1286 2.1220458
1284 2.2105165
1282 2.3089845
1280 2.4164445
1278 2.5369627
1276 2.6755085
1274 2.8364921
1272 3.0226035
1270 3.2333887
1268 3.4660656
1266 3.7151234
1264 3.9777544
1262 4.2573781
1260 4.5601478
1258 4.894465
1256 5.2698426
1254 5.6960344
1252 6.1809292
1250 6.7270651
1248 7.3268719
1246 7.9558001
1244 8.5854464
1242 9.1887207
1240 9.744297
1238 10.241928
1236 10.671371
1234 11.014462
1232 11.24988
1230 11.351614
1228 11.311511
1226 11.151607
1224 10.902417
1222 10.597924
1220 10.257052
1218 9.8681812
1216 9.4185772
1214 8.9049501
1212 8.3388281
1210 7.7550545
1208 7.1836801
1206 6.6320052
1204 6.0929561
1202 5.5419121
1200 4.9620447
1198 4.3620772
1196 3.7618072
1194 3.1898341
1192 2.667824
1190 2.19788
1188 1.7741518
1186 1.3852372
1184 1.0273354
1182 0.71629071
1180 0.47373965
1178 0.32163951
1176 0.267288
1174 0.28534272
1172 0.34004754
1170 0.39141122
1168 0.41156584
1166 0.40219527
1164 0.37451747
1162 0.34457609
1160 0.32256052
1158 0.30304068
1156 0.2787903
1154 0.24704763
1152 0.20761183
1150 0.16349524
1148 0.11651884
1146 0.064799964
1144 0.012404785
1142 -0.021224445
1140 -0.016943332
1138 0.035211317
1136 0.14376086
1134 0.31779781
1132 0.55628848
1130 0.83441424
1128 1.1272336
1126 1.4238436
1124 1.7213738
1122 2.0282769
1120 2.35432
1118 2.7052326
1116 3.0829859
1114 3.4812093
1112 3.8871973
1110 4.2771587
1108 4.630394
1106 4.9416299
1104 5.2177539
1102 5.486774
1100 5.7734737
1098 6.0814476
1096 6.4038715
1094 6.7207732
1092 7.0168519
1090 7.2974596
1088 7.5746598
1086 7.8643713
1084 8.1757555
1082 8.4981222
1080 8.8100662
1078 9.0768681
1076 9.2708559
1074 9.394496
1072 9.4665298
1070 9.5299244
1068 9.6237926
1066 9.7603827
1064 9.9332962
1062 10.103296
1060 10.220514
1058 10.234271
1056 10.109571
1054 9.8582449
1052 9.5091734
1050 9.1100969
1048 8.7045507
1046 8.3109856
1044 7.9398794
1042 7.5947471
1040 7.2737422
1038 6.9628878
1036 6.6437602
1034 6.293005
1032 5.8937249
1030 5.4527078
1028 4.9920216
1026 4.5621643
1024 4.2136426
1022 3.9743681
1020 3.8439412
1018 3.7534077
1016 3.6223202
1014 3.3886511
1012 3.0258527
1010 2.6028111
1008 2.2072561
1006 1.9119885
1004 1.7523029
1002 1.6593667
1000 1.5482926
998 1.3663391
996 1.0902071
994 0.76331151
992 0.44113606
990 0.16299024
988 -0.048444599
986 -0.21100071
984 -0.34600675
982 -0.45339057
980 -0.520657
978 -0.5125255
976 -0.40181944
974 -0.20690966
972 0.039872199
970 0.2973755
968 0.52945429
966 0.72409403
964 0.87113881
962 0.94700086
960 0.9323566
958 0.83447266
956 0.67606115
954 0.51014501
952 0.38206959
950 0.28423068
948 0.20001483
946 0.12710622
944 0.063721694
942 -0.0023412034
940 -0.07214871
938 -0.09817706
936 -0.046098456
934 0.026940722
932 0.053547665
930 0.012311943
928 -0.099360764
926 -0.25670251
924 -0.4247964
922 -0.55651063
920 -0.6122334
918 -0.59229809
916 -0.51516843
914 -0.43025592
912 -0.38217029
910 -0.36748999
908 -0.36734155
906 -0.34972998
904 -0.28800684
902 -0.18948919
900 -0.065720387
898 0.088679478
896 0.28334001
