##TITLE=Methyl Ethyl Ketone
##JCAMP-DX=4.24
##DATA TYPE=INFRARED SPECTRUM
##XUNITS=cm-1
##YUNITS=Absorbance
##FIRSTX=900
##LASTX=2300
##XYDATA=(X++(Y..Y))
2296 -0.00097380998
2294 -0.00099410105
2292 -0.0010143422
2290 -0.001034613
2288 -0.0010548841
2286 -0.001075155
2284 -0.0010953269
2282 -0.001115696
2280 -0.0011358692
2278 -0.001156139
2276 -0.0011765086
2274 -0.0011966826
2272 -0.001216952
2270 -0.001237223
2268 -0.001257494
2266 -0.0012777649
2264 -0.0012979383
2262 -0.001318207
2260 -0.0013384779
2258 -0.001358749
2256 -0.00137902
2254 -0.001399291
2252 -0.001419562
2250 -0.0014398331
2248 -0.0014601039
2246 -0.001480375
2244 -5.5012286e-05
2242 0.0119121
2240 0.0107916
2238 0.0083813891
2236 0.0058763316
2234 0.0054744356
2232 0.0060752644
2230 0.025804354
2228 0.045411777
2226 0.056829147
2224 0.05955223
2222 0.024527211
2220 -0.005110234
2218 -0.012136192
2216 0.0059885858
2214 0.076275609
2212 0.14325914
2210 0.19982
2208 0.22455189
2206 0.21040036
2204 0.18262811
2202 0.14410737
2200 0.13053504
2198 0.13614699
2196 0.16717072
2194 0.21211295
2192 0.21663566
2190 0.20303209
2188 0.13877735
2186 0.058445957
2184 0.0076720081
2182 -0.036076851
2180 -0.026179608
2178 -0.0079519367
2176 0.041274808
2174 0.093474478
2172 0.14735661
2170 0.1911708
2168 0.17638612
2166 0.13773444
2164 0.032896817
2162 -0.082310542
2160 -0.20718621
2158 -0.30814859
2156 -0.36191398
2154 -0.37341449
2152 -0.33074725
2150 -0.28334895
2148 -0.23698668
2146 -0.23284
2144 -0.26593068
2142 -0.3216145
2140 -0.39029774
2138 -0.42225805
2136 -0.43350515
2134 -0.38606578
2132 -0.31479469
2130 -0.22076076
2128 -0.1201524
2126 -0.0536463
2124 0.0048218598
2122 -0.0036244232
2120 -0.02432191
2118 -0.076789595
2116 -0.13184722
2114 -0.17262121
2112 -0.21201199
2110 -0.25456652
2108 -0.3030909
2106 -0.3682335
2104 -0.42265961
2102 -0.4479917
2100 -0.44112319
2098 -0.38741469
2096 -0.32753
2094 -0.26853564
2092 -0.25070974
2090 -0.2753624
2088 -0.34531379
2086 -0.44774801
2084 -0.54718214
2082 -0.64170837
2080 -0.6879127
2078 -0.70898467
2076 -0.68664068
2074 -0.64747667
2072 -0.58309561
2070 -0.5111059
2068 -0.43146098
2066 -0.35171878
2064 -0.35676068
2062 -0.38901863
2060 -0.53226334
2058 -0.69318074
2056 -0.83096969
2054 -0.93664527
2052 -0.94296801
2050 -0.91858387
2048 -0.86517507
2046 -0.8294968
2044 -0.839149
2042 -0.88395518
2040 -0.96904624
2038 -1.055178
2036 -1.1337442
2034 -1.1798826
2032 -1.1958011
2030 -1.194398
2028 -1.1831694
2026 -1.1615707
2024 -1.1341983
2022 -1.0773866
2020 -1.005625
2018 -0.9656086
2016 -0.93994796
2014 -0.99020338
2012 -1.0657989
2010 -1.1437249
2008 -1.2205423
2006 -1.2756257
2004 -1.3242052
2002 -1.3654261
2000 -1.3983034
1998 -1.4019089
1996 -1.3930857
1994 -1.3679205
1992 -1.3516577
1990 -1.3657788
1988 -1.3995939
1986 -1.4566164
1984 -1.5169731
1982 -1.574283
1980 -1.6350057
1978 -1.6997768
1976 -1.73198
1974 -1.7328651
1972 -1.6249223
1970 -1.4382974
1968 -1.2347349
1966 -1.0295788
1964 -1.0078739
1962 -1.0834342
1960 -1.26828
1958 -1.4956851
1956 -1.6513157
1954 -1.7778399
1952 -1.8361577
1950 -1.8723781
1948 -1.8991089
1946 -1.92495
1944 -1.9625909
1942 -2.0044546
1940 -2.0529823
1938 -2.1024444
1936 -2.1502857
1934 -2.1906743
1932 -2.2153001
1930 -2.2099383
1928 -2.1618977
1926 -2.0331678
1924 -1.8132874
1922 -1.5193088
1920 -1.1719006
1918 -0.92383158
1916 -0.7787137
1914 -0.76630533
1912 -0.83753294
1910 -0.93042302
1908 -1.0264447
1906 -1.1746886
1904 -1.351488
1902 -1.4977137
1900 -1.6286438
1898 -1.5957894
1896 -1.4950286
1894 -1.3459687
1892 -1.1924086
1890 -1.1375589
1888 -1.1495348
1886 -1.2885942
1884 -1.4888183
1882 -1.7315578
1880 -1.965229
1878 -2.1407721
1876 -2.2303901
1874 -2.196018
1872 -2.027288
1870 -1.716504
1868 -1.4114701
1866 -1.172025
1864 -1.1526999
1862 -1.348594
1860 -1.6199067
1858 -1.907777
1856 -2.0820029
1854 -2.164068
1852 -2.0779426
1850 -1.8895568
1848 -1.557292
1846 -1.1481965
1844 -0.89436245
1842 -0.73204374
1840 -0.84692228
1838 -1.0856681
1836 -1.2630771
1834 -1.3795689
1832 -1.317328
1830 -1.1583203
1828 -0.94143724
1826 -0.75609756
1824 -0.72937363
1822 -0.8435474
1820 -1.1176895
1818 -1.4174244
1816 -1.6500857
1814 -1.7551693
1812 -1.7099577
1810 -1.5890213
1808 -1.4379108
1806 -1.2922349
1804 -1.1622448
1802 -1.0213428
1800 -0.86528695
1798 -0.67855668
1796 -0.46945572
1794 -0.27171549
1792 -0.08658544
1790 -0.058187723
1788 -0.1304238
1786 -0.28028387
1784 -0.46320301
1782 -0.53100932
1780 -0.5105294
1778 -0.3229031
1776 -0.023479253
1774 0.37366092
1772 0.75554651
1770 0.92544514
1768 0.90380013
1766 0.66133279
1764 0.37284499
1762 0.19783401
1760 0.057279255
1758 -0.1027504
1756 -0.16265985
1754 -0.070432961
1752 0.3003276
1750 0.94846809
1748 1.6418474
1746 2.2909391
1744 2.5621126
1742 2.4811316
1740 2.332468
1738 2.1896167
1736 2.29496
1734 2.5926874
1732 2.5865579
1730 2.3363528
1728 1.6616023
1726 0.741593
1724 0.11170175
1722 -0.21916348
1720 0.10452983
1718 0.97880185
1716 2.2619958
1714 3.6076975
1712 4.5119243
1710 5.1584768
1708 5.7622623
1706 6.6762128
1704 8.2260504
1702 10.618024
1700 13.910034
1698 17.731213
1696 21.776285
1694 25.27438
1692 27.990194
1690 30.449934
1688 32.892605
1686 36.208321
1684 40.410374
1682 45.156651
1680 50.25108
1678 54.439957
1676 57.825642
1674 61.267002
1672 64.847725
1670 69.123482
1668 73.903969
1666 78.555199
1664 83.03643
1662 87.187553
1660 91.028435
1658 94.584404
1656 97.851112
1654 100.82821
1652 103.2648
1650 104.87551
1648 105.06548
1646 103.39393
1644 100.6002
1642 97.398071
1640 94.049217
1638 90.737465
1636 86.887772
1634 82.31562
1632 77.495399
1630 72.623192
1628 68.09948
1626 63.972263
1624 59.770317
1622 55.432659
1620 51.124664
1618 46.866695
1616 42.813087
1614 38.985783
1612 35.531555
1610 32.482338
1608 29.911669
1606 27.806557
1604 26.039797
1602 24.612267
1600 23.466257
1598 22.603401
1596 21.98
1594 21.571484
1592 21.314007
1590 21.17642
1588 21.111677
1586 21.172394
1584 21.387617
1582 21.829859
1580 22.525063
1578 23.523697
1576 24.8272
1574 26.298876
1572 27.882469
1570 29.33308
1568 30.59668
1566 31.750244
1564 32.811203
1562 34.164772
1560 35.914314
1558 38.512722
1556 41.922714
1554 45.046791
1552 47.704784
1550 49.482689
1548 50.518135
1546 51.593285
1544 52.694904
1542 53.780804
1540 54.433838
1538 54.029999
1536 52.692028
1534 50.744236
1532 48.646397
1530 46.910011
1528 45.498451
1526 44.36755
1524 43.297321
1522 42.148842
1520 40.616364
1518 38.527351
1516 36.247742
1514 33.87722
1512 31.70224
1510 29.820257
1508 27.597898
1506 24.893242
1504 21.969629
1502 18.844786
1500 16.213745
1498 14.15783
1496 12.272429
1494 10.573948
1492 8.9309263
1490 7.3464289
1488 5.7833138
1486 4.2477651
1484 2.742152
1482 1.400417
1480 0.42393559
1478 -0.079569519
1476 0.0032284111
1474 0.65642709
1472 1.7557886
1470 2.881881
1468 3.7212548
1466 4.3291245
1464 4.7135758
1462 5.1775122
1460 5.8797293
1458 6.6754131
1456 7.54598
1454 8.0627708
1452 8.0070486
1450 7.7211285
1448 7.1331544
1446 6.5684819
1444 6.0455146
1442 5.5879478
1440 5.2330966
1438 4.9881229
1436 4.8583555
1434 4.7091856
1432 4.5126529
1430 4.2148499
1428 3.8703761
1426 3.6403036
1424 3.5763645
1422 3.7358248
1420 4.054059
1418 4.4233532
1416 4.743814
1414 4.8963003
1412 4.9682612
1410 5.0233002
1408 5.1419425
1406 5.4008093
1404 5.7404451
1402 6.1688466
1400 6.600244
1398 7.0104523
1396 7.329793
1394 7.4789085
1392 7.5113955
1390 7.3430328
1388 7.1095314
1386 6.7724452
1384 6.3827257
1382 5.9301677
1380 5.4906902
1378 5.0858703
1376 4.7527714
1374 4.4932623
1372 4.2399359
1370 3.973798
1368 3.6548681
1366 3.2831485
1364 2.8738568
1362 2.4283609
1360 1.9416652
1358 1.446843
1356 0.97837085
1354 0.56791043
1352 0.27669817
1350 0.069071516
1348 -0.025073729
1346 -0.044564821
1344 0.064677559
1342 0.2537967
1340 0.58595538
1338 0.88498604
1336 1.0940315
1334 1.1717434
1332 1.0115236
1330 0.8371824
1328 0.65769613
1326 0.56827861
1324 0.62294912
1322 0.78156966
1320 1.0726854
1318 1.416715
1316 1.78654
1314 2.0661864
1312 2.2270401
1310 2.2409391
1308 2.139924
1306 1.9924358
1304 1.8266772
1302 1.68195
1300 1.557416
1298 1.462379
1296 1.3898857
1294 1.3507872
1292 1.3256866
1290 1.3164145
1288 1.3061399
1286 1.2865843
1284 1.2652051
1282 1.2403035
1280 1.2245971
1278 1.2302558
1276 1.2517414
1274 1.306143
1272 1.3763828
1270 1.4763597
1268 1.5972991
1266 1.7523614
1264 1.9407115
1262 2.1722369
1260 2.434382
1258 2.7269938
1256 3.02858
1254 3.3399587
1252 3.662765
1250 4.002203
1248 4.3761096
1246 4.7655249
1244 5.1487794
1242 5.5024271
1240 5.7641606
1238 5.9634643
1236 6.0411787
1234 6.0661793
1232 5.9926362
1230 5.8822684
1228 5.6839247
1226 5.4436107
1224 5.0876312
1222 4.6877589
1220 4.1843324
1218 3.665791
1216 3.1204228
1214 2.5886981
1212 2.0853412
1210 1.6184
1208 1.2071744
1206 0.83697474
1204 0.50797302
1202 0.16522282
1200 -0.19955903
1198 -0.60887587
1196 -1.0445029
1194 -1.4568789
1192 -1.8359222
1190 -2.130254
1188 -2.3681395
1186 -2.5267293
1184 -2.6422625
1182 -2.6875265
1180 -2.6910591
1178 -2.5892739
1176 -2.4421401
1174 -2.1693213
1172 -1.8827112
1170 -1.5723135
1168 -1.2782582
1166 -1.0341412
1164 -0.7921955
1162 -0.55554521
1160 -0.32075614
1158 -0.093045138
1156 0.109972
1154 0.26753587
1152 0.38202509
1150 0.43278086
1148 0.430123
1146 0.36800712
1144 0.28045154
1142 0.17504881
1140 0.087434351
1138 0.021754375
1136 0.010716178
1134 0.048676655
1132 0.20300257
1130 0.42901728
1128 0.79808581
1126 1.2168715
1124 1.6921324
1122 2.1631324
1120 2.5591519
1118 2.9327235
1116 3.2233357
1114 3.5074217
1112 3.7693989
1110 4.0257177
1108 4.2629285
1106 4.4868999
1104 4.6766052
1102 4.8490853
1100 4.990694
1098 5.1472845
1096 5.3361855
1094 5.5980706
1092 5.9584999
1090 6.3945742
1088 6.9055743
1086 7.4339113
1084 7.9671707
1082 8.4412441
1080 8.8610764
1078 9.1434689
1076 9.3442287
1074 9.401309
1072 9.4062519
1070 9.3728924
1068 9.3402786
1066 9.3746338
1064 9.430872
1062 9.5845127
1060 9.749032
1058 9.9519186
1056 10.135085
1054 10.229577
1052 10.293434
1050 10.262691
1048 10.246063
1046 10.269107
1044 10.33554
1042 10.484207
1040 10.652469
1038 10.849054
1036 11.0244
1034 11.166451
1032 11.190228
1030 11.094646
1028 10.839585
1026 10.470371
1024 10.052369
1022 9.6071911
1020 9.147191
1018 8.6740065
1016 8.1208801
1014 7.5416579
1012 6.9112797
1010 6.2772694
1008 5.6997123
1006 5.137845
1004 4.7041979
1002 4.2808824
1000 3.9198995
998 3.545682
996 3.1128786
994 2.666172
992 2.178797
990 1.7291533
988 1.3696017
986 1.0749679
984 0.8950128
982 0.75231981
980 0.66039419
978 0.58620411
976 0.53035742
974 0.47750252
972 0.42557269
970 0.34786737
968 0.25552619
966 0.17913651
964 0.11619328
962 0.17702916
960 0.27927601
958 0.41627017
956 0.55312747
954 0.52283663
952 0.46807602
950 0.31012279
948 0.15290074
946 0.066239446
944 0.0005934604
942 0.0038482249
940 0.12835667
938 0.48641598
936 0.88122571
934 1.382369
932 1.8346744
930 2.1815705
928 2.4615726
926 2.6349936
924 2.8023019
922 2.9614954
920 3.0843291
918 3.1720157
916 3.1721201
914 3.1106658
912 3.0536795
910 3.0012779
908 3.1294971
906 3.3286572
904 3.7283902
902 4.1806645
900 4.5452027
898 4.8952742
896 5.0169001
