##TITLE=Methyl Ethyl Ketone
##JCAMP-DX=4.24
##DATA TYPE=INFRARED SPECTRUM
##XUNITS=cm-1
##YUNITS=Absorbance
##FIRSTX=900
##LASTX=2300
##XYDATA=(X++(Y..Y))
2296 0.14907999
2294 0.15217558
2292 0.15528111
2290 0.15838668
2288 0.16148229
2286 0.16458778
2284 0.16768344
2282 0.1707889
2280 0.17388457
2278 0.17699002
2276 0.18009557
2274 0.18319128
2272 0.18629669
2270 0.18939242
2268 0.1924978
2266 0.19559357
2264 0.19869892
2262 0.20180446
2260 0.20490028
2258 0.20800559
2256 0.21110143
2254 0.21420671
2252 0.21731226
2250 0.22040814
2248 0.22351336
2246 0.22660929
2244 0.11147562
2242 0.0041282997
2240 -0.0979008
2238 -0.10592932
2236 -0.10014944
2234 -0.045227613
2232 0.013480936
2230 0.078423105
2228 0.14144966
2226 0.18669951
2224 0.22493726
2222 0.23511119
2220 0.24885729
2218 0.27805245
2216 0.31570941
2214 0.36996043
2212 0.3911728
2210 0.35688892
2208 0.28857639
2206 0.18209164
2204 0.11789238
2202 0.096804313
2200 0.098076887
2198 0.11395847
2196 0.068498783
2194 -0.01291059
2192 -0.099057704
2190 -0.18623483
2188 -0.21707501
2186 -0.22957665
2184 -0.24070039
2182 -0.25176775
2180 -0.26787624
2178 -0.28414866
2176 -0.25293484
2174 -0.212818
2172 -0.12116309
2170 -0.02376944
2168 0.078399882
2166 0.16585937
2164 0.1978967
2162 0.20247985
2160 0.15093017
2158 0.095864363
2156 0.045004703
2154 0.02134918
2152 0.036470555
2150 0.058664855
2148 0.084265061
2146 0.074146032
2144 0.032113314
2142 -0.022425711
2140 -0.083385408
2138 -0.099495269
2136 -0.090803139
2134 -0.059916154
2132 -0.020618122
2130 -0.029302493
2128 -0.053520121
2126 -0.097362921
2124 -0.14551511
2122 -0.14176708
2120 -0.1294964
2118 -0.11264627
2116 -0.10249871
2114 -0.14695279
2112 -0.20459011
2110 -0.28531945
2108 -0.35832199
2106 -0.39783159
2104 -0.42016679
2102 -0.41558757
2100 -0.41462362
2098 -0.42647395
2096 -0.43550858
2094 -0.43848699
2092 -0.42225957
2090 -0.38704848
2088 -0.37137908
2086 -0.37390399
2084 -0.41143709
2082 -0.47035342
2080 -0.50260043
2078 -0.51944965
2076 -0.49540856
2074 -0.45519206
2072 -0.45250481
2070 -0.46254298
2068 -0.48735979
2066 -0.5143792
2064 -0.47236532
2062 -0.41948995
2060 -0.39159051
2058 -0.3866891
2056 -0.48114428
2054 -0.59728241
2052 -0.7216239
2050 -0.83163548
2048 -0.9015488
2046 -0.96696317
2044 -1.0393963
2042 -1.1080354
2040 -1.167776
2038 -1.1979771
2036 -1.1936057
2034 -1.1891614
2032 -1.1911154
2030 -1.222885
2028 -1.2779057
2026 -1.3257636
2024 -1.3670509
2022 -1.3667767
2020 -1.3456919
2018 -1.311267
2016 -1.2720599
2014 -1.2298412
2012 -1.1861256
2010 -1.1546813
2008 -1.1305521
2006 -1.1783664
2004 -1.2464712
2002 -1.330162
2000 -1.3992263
1998 -1.3904451
1996 -1.3430715
1994 -1.2405092
1992 -1.144708
1990 -1.09228
1988 -1.094722
1986 -1.1709521
1984 -1.2694143
1982 -1.3745463
1980 -1.458662
1978 -1.5187844
1976 -1.5579914
1974 -1.583379
1972 -1.5781475
1970 -1.5521392
1968 -1.5126572
1966 -1.4669313
1964 -1.4788619
1962 -1.5207211
1960 -1.5941479
1958 -1.6793647
1956 -1.7312428
1954 -1.7704461
1952 -1.8179159
1950 -1.8647056
1948 -1.8905778
1946 -1.8979501
1944 -1.8399622
1942 -1.7687218
1940 -1.7123737
1938 -1.6748363
1936 -1.6720715
1934 -1.6808212
1932 -1.695706
1930 -1.7266885
1928 -1.7845303
1926 -1.8560957
1924 -1.9382346
1922 -2.0149848
1920 -2.0807068
1918 -2.144393
1916 -2.2046857
1914 -2.2300074
1912 -2.2296536
1910 -2.1986492
1908 -2.1522691
1906 -2.1545272
1904 -2.184216
1902 -2.2347896
1900 -2.2924509
1898 -2.2517576
1896 -2.1655285
1894 -2.0002375
1892 -1.8165543
1890 -1.711082
1888 -1.6679137
1886 -1.7569271
1884 -1.8968352
1882 -2.0404215
1880 -2.1533749
1878 -2.1951346
1876 -2.1769199
1874 -2.1003962
1872 -1.9752852
1870 -1.8097715
1868 -1.6898123
1866 -1.6345407
1864 -1.6827776
1862 -1.813483
1860 -1.9265095
1858 -2.0074174
1856 -2.0567944
1854 -2.0906286
1852 -2.1714439
1850 -2.2886608
1848 -2.415004
1846 -2.5472357
1844 -2.5404592
1842 -2.4605832
1840 -2.2409892
1838 -1.9507529
1836 -1.6309114
1834 -1.290753
1832 -0.93670815
1830 -0.61748058
1828 -0.43940866
1826 -0.39926299
1824 -0.5511182
1822 -0.76167589
1820 -0.93005079
1818 -1.0302992
1816 -1.0493886
1814 -1.0526916
1812 -1.0796543
1810 -1.1288558
1808 -1.1934137
1806 -1.20788
1804 -1.1637857
1802 -1.1180438
1800 -1.0882634
1798 -1.1151223
1796 -1.18575
1794 -1.178529
1792 -1.106348
1790 -1.0029981
1788 -0.87987697
1786 -0.80771917
1784 -0.7616995
1782 -0.70901674
1780 -0.65368152
1778 -0.61979288
1776 -0.5763514
1774 -0.4447259
1772 -0.23926425
1770 0.075626582
1768 0.35630333
1766 0.43391871
1764 0.36868781
1762 0.19314381
1760 0.041328508
1758 -0.21357535
1756 -0.46929884
1754 -0.60017622
1752 -0.63385308
1750 -0.60700279
1748 -0.62288678
1746 -0.7012189
1744 -0.87816215
1742 -1.125186
1740 -1.2752272
1738 -1.3329021
1736 -1.21232
1734 -0.97118211
1732 -0.78555733
1730 -0.6503495
1728 -0.65897739
1726 -0.73887295
1724 -0.68623215
1722 -0.47887969
1720 0.1255351
1718 1.0707903
1716 2.2051129
1714 3.2359481
1712 3.7708435
1710 4.0208173
1708 4.2070622
1706 4.6386881
1704 5.5806227
1702 7.2714648
1700 9.808219
1698 13.245083
1696 17.494143
1694 21.736401
1692 25.608515
1690 29.062336
1688 32.158669
1686 35.785343
1684 40.034996
1682 44.892063
1680 50.211159
1678 54.77898
1676 58.667126
1674 62.542618
1672 66.482834
1670 71.019417
1668 75.973297
1666 80.753845
1664 85.341766
1662 89.608208
1660 93.578743
1658 97.272522
1656 100.65966
1654 103.68683
1652 106.0168
1650 107.28239
1648 106.97617
1646 104.81214
1644 101.62014
1642 98.160362
1640 94.719498
1638 91.442101
1636 87.807602
1634 83.638
1632 79.169037
1630 74.529297
1628 69.975288
1626 65.549889
1624 60.911362
1622 56.033813
1620 51.263733
1618 46.636978
1616 42.425087
1614 38.647606
1612 35.377987
1610 32.614571
1608 30.243275
1606 28.223364
1604 26.369574
1602 24.720785
1600 23.32951
1598 22.24815
1596 21.512501
1594 21.099426
1592 20.932102
1590 20.950186
1588 21.071524
1586 21.287622
1584 21.577765
1582 21.971769
1580 22.473408
1578 23.152763
1576 24.031256
1574 25.068802
1572 26.253637
1570 27.486712
1568 28.748039
1566 30.064686
1564 31.441706
1562 33.046692
1560 34.956879
1558 37.596947
1556 40.928356
1554 44.093628
1552 46.925255
1550 48.900864
1548 50.119869
1546 51.199642
1544 52.144531
1542 53.019066
1540 53.5201
1538 53.2775
1536 52.297913
1534 50.712055
1532 48.892632
1530 47.208485
1528 45.666294
1526 44.265549
1524 42.917709
1522 41.58004
1520 40.131882
1518 38.533924
1516 36.797215
1514 34.907845
1512 32.950161
1510 30.909174
1508 28.450691
1506 25.454144
1504 22.379395
1502 19.2911
1500 16.697845
1498 14.68118
1496 12.830428
1494 11.158641
1492 9.5561008
1490 8.0029383
1488 6.4241433
1486 4.8330402
1484 3.264508
1482 1.8637772
1480 0.81418717
1478 0.18140452
1476 0.026221484
1474 0.34749538
1472 1.0821044
1470 1.922561
1468 2.669395
1466 3.2721472
1464 3.6545675
1462 4.0078888
1460 4.4054952
1458 4.9115562
1456 5.5856204
1454 6.1647539
1452 6.5757198
1450 6.735292
1448 6.5374079
1446 6.2709537
1444 5.9175706
1442 5.6007247
1440 5.3270993
1438 5.0754824
1436 4.8201885
1434 4.4958444
1432 4.0889015
1430 3.6387916
1428 3.2017882
1426 2.8808379
1424 2.7218742
1422 2.7606838
1420 2.9752095
1418 3.3391318
1416 3.7462029
1414 4.0892968
1412 4.3766804
1410 4.5806189
1408 4.7916923
1406 5.0628629
1404 5.3781672
1402 5.7612319
1400 6.1314878
1398 6.4646435
1396 6.7262998
1394 6.8657732
1392 6.9424467
1390 6.9236794
1388 6.8322554
1386 6.6195402
1384 6.2850952
1382 5.7847691
1380 5.2293277
1378 4.6220698
1376 4.0610313
1374 3.5619841
1372 3.149704
1370 2.8302567
1368 2.5739777
1366 2.3556588
1364 2.1033046
1362 1.7974755
1360 1.4108429
1358 1.0004849
1356 0.6278007
1354 0.32723868
1352 0.152558
1350 0.03895966
1348 -0.0047750575
1346 -0.013293108
1344 -0.0077331923
1342 0.026403103
1340 0.1174767
1338 0.24083599
1336 0.42726687
1334 0.58638287
1332 0.71167099
1330 0.80353206
1328 0.85193932
1326 0.924936
1324 1.0373782
1322 1.2194539
1320 1.4863783
1318 1.8080821
1316 2.17099
1314 2.5054262
1312 2.7937794
1310 2.9915123
1308 3.1130702
1306 3.1662078
1304 3.1777754
1302 3.172034
1300 3.1629179
1298 3.1705298
1296 3.1871572
1294 3.2190509
1292 3.2506149
1290 3.2746758
1288 3.2879839
1286 3.2772949
1284 3.2672012
1282 3.2671683
1280 3.2947469
1278 3.3869498
1276 3.5089285
1274 3.684813
1272 3.872308
1270 4.0761709
1268 4.2835627
1266 4.4997945
1264 4.729094
1262 4.9827976
1260 5.268126
1258 5.5898347
1256 5.9390998
1254 6.31673
1252 6.7208052
1250 7.153389
1248 7.6279068
1246 8.1215496
1244 8.6134233
1242 9.0753775
1240 9.4417639
1238 9.7357626
1236 9.877656
1234 9.9508114
1232 9.8900642
1230 9.7875223
1228 9.5917625
1226 9.3700075
1224 9.0791302
1222 8.7671089
1220 8.4035912
1218 8.0146751
1216 7.5739832
1214 7.1091428
1212 6.6034122
1210 6.0836997
1208 5.54529
1206 5.0041986
1204 4.4660783
1202 3.9528627
1200 3.4699907
1198 3.0247509
1196 2.614707
1194 2.2421167
1192 1.9046891
1190 1.625702
1188 1.38797
1186 1.2152557
1184 1.0744705
1182 0.97795397
1180 0.90355158
1178 0.87714785
1176 0.871342
1174 0.92168593
1172 0.97344452
1170 1.0185418
1168 1.0516891
1166 1.0508243
1164 1.0569646
1162 1.079675
1160 1.1018034
1158 1.1171964
1156 1.0968556
1154 1.0179304
1152 0.92448413
1150 0.81272918
1148 0.70357203
1146 0.59125638
1144 0.44623673
1142 0.27915654
1140 0.13730861
1138 0.037235219
1136 0.073096745
1134 0.20243059
1132 0.44078285
1130 0.72693729
1128 1.0443972
1126 1.3635736
1124 1.6459811
1122 1.9138927
1120 2.140132
1118 2.3587716
1116 2.5571628
1114 2.7465556
1112 2.8979783
1110 3.0298223
1108 3.0980678
1106 3.142525
1104 3.1312463
1102 3.1303251
1100 3.1560547
1098 3.2333364
1096 3.3940144
1094 3.5950713
1092 3.8503439
1090 4.1457663
1088 4.4891176
1086 4.8982606
1084 5.3567014
1082 5.8122573
1080 6.2466407
1078 6.544775
1076 6.7555656
1074 6.7790451
1072 6.7269144
1070 6.5688548
1068 6.3908954
1066 6.2360306
1064 6.0896196
1062 5.9836636
1060 5.8864331
1058 5.833993
1056 5.7986455
1054 5.8374901
1052 5.8762569
1050 5.9117951
1048 5.9177294
1046 5.8506961
1044 5.752646
1042 5.5972805
1040 5.4328427
1038 5.256073
1036 5.0840902
1034 4.9153166
1032 4.7272277
1030 4.5163031
1028 4.2483072
1026 3.9361207
1024 3.5712051
1022 3.181479
1020 2.8160331
1018 2.4684818
1016 2.2104001
1014 1.980365
1012 1.7958177
1010 1.613464
1008 1.3697641
1006 1.1170951
1004 0.82023239
1002 0.53984827
1000 0.3753148
998 0.23240736
996 0.18251072
994 0.10533545
992 -0.056620598
990 -0.23675558
988 -0.45252752
986 -0.57794178
984 -0.5428226
982 -0.42599213
980 -0.20466259
978 -0.04647423
976 0.043787055
974 0.079686128
972 0.077476531
970 0.16514307
968 0.31140518
966 0.54283702
964 0.80816138
962 0.98545265
960 1.1268034
958 1.1034093
956 1.0414494
954 0.90006179
952 0.74657762
950 0.52977949
948 0.31337404
946 0.1393007
944 0.0012386739
942 0.039735124
940 0.15513492
938 0.4480373
936 0.7339251
934 0.99966097
932 1.2894814
930 1.6318512
928 2.0307932
926 2.5188723
924 2.9638622
922 3.3542852
920 3.6312521
918 3.8028586
916 3.9525185
914 4.0874677
912 4.2872696
910 4.5207849
908 4.778986
906 5.0448475
904 5.2471571
902 5.4312725
900 5.471447
898 5.4879165
896 5.4296999
