##TITLE=Methyl Ethyl Ketone
##JCAMP-DX=4.24
##DATA TYPE=INFRARED SPECTRUM
##XUNITS=cm-1
##YUNITS=Absorbance
##FIRSTX=900
##LASTX=2300
##XYDATA=(X++(Y..Y))
2296 0.049554002
2294 0.050585523
2292 0.05161605
2290 0.052647576
2288 0.053678103
2286 0.054708626
2284 0.055740144
2282 0.056770682
2280 0.057801206
2278 0.058831729
2276 0.059863243
2274 0.060895748
2272 0.061925326
2270 0.062951915
2268 0.063987255
2266 0.065034524
2264 0.066048801
2262 0.06701649
2260 0.06810879
2258 0.069377393
2256 0.070179433
2254 0.070326164
2252 0.072206125
2250 0.076529197
2248 0.074411333
2246 0.057938144
2244 0.033806473
2242 0.014358811
2240 0.0181558
2238 0.058069158
2236 0.11709397
2234 0.17448932
2232 0.22882862
2230 0.28105867
2228 0.31914148
2226 0.33277801
2224 0.33432961
2222 0.34219393
2220 0.37210792
2218 0.43456477
2216 0.52224344
2214 0.62091798
2212 0.70984542
2210 0.76826376
2208 0.78314501
2206 0.75092608
2204 0.69670439
2202 0.65031582
2200 0.62527692
2198 0.62560374
2196 0.63785857
2194 0.64849716
2192 0.6653952
2190 0.70040792
2188 0.75385332
2186 0.82057208
2184 0.88843238
2182 0.94593465
2180 0.99295866
2178 1.0310469
2176 1.0532171
2174 1.0541785
2172 1.0460794
2170 1.047484
2168 1.0780463
2166 1.1494079
2164 1.2380049
2162 1.3106139
2160 1.34268
2158 1.32016
2156 1.25773
2154 1.1784055
2152 1.1016582
2150 1.0388927
2148 0.97778755
2146 0.90215927
2144 0.81397015
2142 0.7284565
2140 0.68815881
2138 0.73348981
2136 0.85731083
2134 1.0304312
2132 1.203746
2130 1.3309172
2128 1.4050521
2126 1.4325285
2124 1.4145871
2122 1.3509254
2120 1.2456039
2118 1.1104602
2116 0.98331368
2114 0.9057467
2112 0.89524108
2110 0.95314723
2108 1.0525604
2106 1.1578685
2104 1.2389852
2102 1.2730309
2100 1.2546121
2098 1.1898698
2096 1.1064286
2094 1.0369527
2092 1.0026624
2090 1.0134192
2088 1.0506531
2086 1.08645
2084 1.0990826
2082 1.0742233
2080 1.0175731
2078 0.94528514
2076 0.88508403
2074 0.86561155
2072 0.9017356
2070 0.99310708
2068 1.0997952
2066 1.1696322
2064 1.1654669
2062 1.069903
2060 0.92002577
2058 0.77125895
2056 0.66349888
2054 0.61922491
2052 0.61982542
2050 0.63287133
2048 0.63913047
2046 0.63104391
2044 0.6230092
2042 0.63405496
2040 0.66450113
2038 0.70576757
2036 0.74789816
2034 0.78281689
2032 0.81117952
2030 0.83442354
2028 0.84120083
2026 0.82023311
2024 0.78537327
2022 0.76045942
2020 0.7629081
2018 0.79761291
2016 0.831568
2014 0.82338017
2012 0.76800323
2010 0.68297315
2008 0.60706139
2006 0.57888377
2004 0.59937447
2002 0.64880031
2000 0.69583249
1998 0.71034473
1996 0.68568283
1994 0.62962705
1992 0.56337976
1990 0.51128614
1988 0.4871366
1986 0.4948262
1984 0.51899183
1982 0.53589427
1980 0.52395147
1978 0.47064361
1976 0.39519599
1974 0.33306369
1972 0.32333782
1970 0.39290655
1968 0.51319927
1966 0.6305775
1964 0.70205528
1962 0.70432061
1960 0.66745281
1958 0.6399225
1956 0.63602948
1954 0.64786333
1952 0.65475082
1950 0.63587183
1948 0.5919314
1946 0.53435004
1944 0.47136393
1942 0.40899944
1940 0.35445845
1938 0.31351256
1936 0.28227887
1934 0.24986283
1932 0.19739419
1930 0.10890767
1928 -0.0024117045
1926 -0.10224314
1924 -0.13335738
1922 -0.043950349
1920 0.14633626
1918 0.3764317
1916 0.57731801
1914 0.6934402
1912 0.73245865
1910 0.7307806
1908 0.6982221
1906 0.62844807
1904 0.52193922
1902 0.39174828
1900 0.28266758
1898 0.24685861
1896 0.29284
1894 0.39645457
1892 0.50534284
1890 0.56127191
1888 0.54041076
1886 0.44689327
1884 0.31557921
1882 0.1918274
1880 0.097781636
1878 0.037776489
1876 0.0037571699
1874 -0.014048629
1872 -0.0072651468
1870 0.039987423
1868 0.12689015
1866 0.23801349
1864 0.34210104
1862 0.40482581
1860 0.41543582
1858 0.37879062
1856 0.30227229
1854 0.1950002
1852 0.073947981
1850 -0.040337469
1848 -0.132718
1846 -0.19454858
1844 -0.22904137
1842 -0.24609022
1840 -0.25440127
1838 -0.2590405
1836 -0.25556645
1834 -0.2311869
1832 -0.16186011
1830 -0.027579505
1828 0.14441511
1826 0.29561973
1824 0.36584136
1822 0.31137186
1820 0.15212482
1818 -0.05229038
1816 -0.24777199
1814 -0.39294627
1812 -0.46661127
1810 -0.45966467
1808 -0.36215344
1806 -0.17319384
1804 0.057985261
1802 0.25228792
1800 0.34756693
1798 0.31667343
1796 0.22133857
1794 0.16910467
1792 0.21126321
1790 0.34453839
1788 0.52382845
1786 0.68979657
1784 0.82326436
1782 0.93562406
1780 1.0381655
1778 1.13747
1776 1.2371458
1774 1.3302157
1772 1.3685309
1770 1.2855735
1768 1.0628506
1766 0.73422748
1764 0.39988041
1762 0.1754797
1760 0.052944161
1758 -0.051163707
1756 -0.1312454
1754 -0.11440557
1752 0.026336983
1750 0.26168665
1748 0.50554401
1746 0.64815325
1744 0.63539946
1742 0.47901851
1740 0.28216404
1738 0.19105452
1736 0.265596
1734 0.47235179
1732 0.68544006
1730 0.74340069
1728 0.59538251
1726 0.30030751
1724 -0.0032304823
1722 -0.13391431
1720 0.067211583
1718 0.69037342
1716 1.6175799
1714 2.5885398
1712 3.4182091
1710 4.0474648
1708 4.6211438
1706 5.4285593
1704 6.7415991
1702 8.7667408
1700 11.574639
1698 15.071526
1696 18.870142
1694 22.42606
1692 25.484175
1690 28.126289
1688 30.762016
1686 33.985867
1684 38.206184
1682 43.503757
1680 49.29668
1678 54.63319
1676 59.276543
1674 63.669476
1672 68.246994
1670 73.223015
1668 78.323509
1666 82.945396
1664 86.785675
1662 89.876328
1660 92.326477
1658 94.252907
1656 95.748398
1654 96.874641
1652 97.647324
1650 98.022324
1648 97.840263
1646 96.900497
1644 95.273735
1642 93.260612
1640 91.039398
1638 88.613976
1636 85.873222
1634 82.66761
1632 79.027451
1630 75.13549
1628 71.067299
1626 66.774765
1624 62.231117
1622 57.47493
1620 52.659782
1618 48.02071
1616 43.712944
1614 39.794609
1612 36.299446
1610 33.248661
1608 30.620611
1606 28.358
1604 26.419794
1602 24.789145
1600 23.459623
1598 22.424725
1596 21.6595
1594 21.12611
1592 20.803623
1590 20.694496
1588 20.816593
1586 21.191372
1584 21.809216
1582 22.637209
1580 23.688004
1578 25.0271
1576 26.730171
1574 28.85401
1572 31.354816
1570 34.085815
1568 36.888439
1566 39.623787
1564 42.205994
1562 44.63982
1560 47.127155
1558 49.970802
1556 53.033955
1554 55.719761
1552 57.579788
1550 58.489323
1548 58.642456
1546 58.456463
1544 58.099827
1542 57.412411
1540 56.193859
1538 54.323425
1536 51.942829
1534 49.440586
1532 47.091125
1530 44.964474
1528 43.014351
1526 41.114349
1524 39.142223
1522 37.014637
1520 34.736473
1518 32.410145
1516 30.172514
1514 28.145908
1512 26.292641
1510 24.403875
1508 22.313423
1506 19.979349
1504 17.527081
1502 15.222686
1500 13.19662
1498 11.38081
1496 9.677371
1494 8.0162354
1492 6.4058161
1490 4.9329958
1488 3.6419508
1486 2.5086722
1484 1.5238661
1482 0.71697181
1480 0.13755536
1478 -0.14195296
1476 -0.0035987198
1474 0.68814939
1472 1.894572
1470 3.360064
1468 4.8432775
1466 6.2005658
1464 7.410284
1462 8.5773506
1460 9.8066998
1458 11.143606
1456 12.4968
1454 13.629099
1452 14.353728
1450 14.607358
1448 14.430046
1446 13.956679
1444 13.314303
1442 12.58499
1440 11.821245
1438 11.044867
1436 10.248791
1434 9.4073744
1432 8.5306406
1430 7.6863976
1428 6.9453759
1426 6.3618879
1424 5.9648247
1422 5.7502489
1420 5.692945
1418 5.7487803
1416 5.8724141
1414 6.0272322
1412 6.2034245
1410 6.4241939
1408 6.7072549
1406 7.048615
1404 7.4194403
1402 7.762095
1400 8.0111122
1398 8.1043453
1396 8.010643
1394 7.747263
1392 7.3640532
1390 6.9387116
1388 6.5299864
1386 6.1576753
1384 5.8235092
1382 5.5142794
1380 5.2100024
1378 4.8851619
1376 4.5127368
1374 4.0693026
1372 3.5542979
1370 2.9996378
1368 2.4372721
1366 1.88699
1364 1.3601806
1362 0.86247599
1360 0.41659674
1358 0.070526585
1356 -0.14034885
1354 -0.20840274
1352 -0.12712982
1350 0.11507279
1348 0.51366663
1346 1.0369942
1344 1.6497999
1342 2.3175223
1340 2.9859805
1338 3.5706582
1336 3.989563
1334 4.182281
1332 4.1336827
1330 3.8951962
1328 3.5337973
1326 3.117033
1324 2.7096436
1322 2.3688993
1320 2.132164
1318 2.0029953
1316 1.957
1314 1.9370949
1312 1.8898914
1310 1.7840729
1308 1.6139071
1306 1.4099685
1304 1.2132902
1302 1.0678511
1300 1.0096287
1298 1.0576574
1296 1.2181429
1294 1.4815702
1292 1.8346543
1290 2.2633038
1288 2.750576
1286 3.2732406
1284 3.7975485
1282 4.2752242
1280 4.6634545
1278 4.9388332
1276 5.1025414
1274 5.1927781
1272 5.2556748
1270 5.3351407
1268 5.4651847
1266 5.662746
1264 5.9436302
1262 6.3285079
1260 6.8339219
1258 7.4651899
1256 8.2149687
1254 9.0568666
1252 9.9630156
1250 10.911272
1248 11.883657
1246 12.8675
1244 13.84538
1242 14.785957
1240 15.64176
1238 16.346357
1236 16.831213
1234 17.040724
1232 16.93652
1230 16.507727
1228 15.766292
1226 14.760271
1224 13.55796
1222 12.2513
1220 10.940256
1218 9.7243681
1216 8.6915112
1214 7.9052644
1212 7.4023004
1210 7.1729846
1208 7.1768537
1206 7.3306751
1204 7.537776
1202 7.6955519
1200 7.7111869
1198 7.5185914
1196 7.0837431
1194 6.4299974
1192 5.6159811
1190 4.7448206
1188 3.9187443
1186 3.2122955
1184 2.6669478
1182 2.266736
1180 1.9803163
1178 1.7737693
1176 1.6243199
1174 1.535311
1172 1.5123186
1170 1.55164
1168 1.6418148
1166 1.7591672
1164 1.8776703
1162 1.973266
1160 2.0218496
1158 1.999477
1156 1.8911514
1154 1.7029791
1152 1.4520063
1150 1.1683095
1148 0.88028079
1146 0.60653281
1144 0.36785823
1142 0.1929698
1140 0.088489488
1138 0.0068865195
1136 -0.094352201
1134 -0.2146185
1132 -0.3357718
1130 -0.42324191
1128 -0.44596761
1126 -0.39262623
1124 -0.27346978
1122 -0.13828471
1120 -0.034381479
1118 0.02189862
1116 0.038898487
1114 0.065570995
1112 0.14319548
1110 0.26891395
1108 0.4196595
1106 0.55018246
1104 0.62748349
1102 0.66350549
1100 0.68707132
1098 0.74135292
1096 0.86149144
1094 1.05314
1092 1.313782
1090 1.6376257
1088 2.017976
1086 2.4460757
1084 2.8999753
1082 3.3240469
1080 3.6524999
1078 3.8172431
1076 3.77335
1074 3.5414524
1072 3.1752453
1070 2.7729678
1068 2.4293945
1066 2.1985464
1064 2.1047721
1062 2.1186047
1060 2.1962564
1058 2.2914405
1056 2.3619714
1054 2.3801134
1052 2.329989
1050 2.2205839
1048 2.0763755
1046 1.9483286
1044 1.8814348
1042 1.8837572
1040 1.9474771
1038 2.0454948
1036 2.15516
1034 2.2792213
1032 2.4171731
1030 2.5412261
1028 2.6196311
1026 2.6293664
1024 2.5597246
1022 2.4282382
1020 2.2524054
1018 2.0280972
1016 1.7539401
1014 1.4525024
1012 1.1511114
1010 0.87298751
1008 0.621934
1006 0.34724909
1004 0.0061374605
1002 -0.37724796
1000 -0.75387222
998 -1.0499096
996 -1.2145572
994 -1.288524
992 -1.3331159
990 -1.4013318
988 -1.5257674
986 -1.67799
984 -1.8159382
982 -1.9001904
980 -1.896926
978 -1.7877594
976 -1.5720172
974 -1.2960836
972 -1.0220263
970 -0.82559764
968 -0.76590157
966 -0.83353245
964 -0.99105752
962 -1.1634911
960 -1.2777206
958 -1.2996217
956 -1.2152942
954 -1.0474529
952 -0.82561761
950 -0.5708819
948 -0.31077152
946 -0.10145289
944 0.017297044
942 0.089170687
940 0.17050174
938 0.28837949
936 0.45708829
934 0.6706987
932 0.91379619
930 1.1549312
928 1.3697652
926 1.5736443
924 1.780192
922 1.9582094
920 2.0642097
918 2.0508814
916 1.8962743
914 1.6782497
912 1.4971714
910 1.444131
908 1.5781517
906 1.8407543
904 2.1415558
902 2.3779531
900 2.4833734
898 2.5441015
896 2.6849
