##TITLE=Methyl Ethyl Ketone
##JCAMP-DX=4.24
##DATA TYPE=INFRARED SPECTRUM
##XUNITS=cm-1
##YUNITS=Absorbance
##FIRSTX=900
##LASTX=2300
##XYDATA=(X++(Y..Y))
2296 0.010964
2294 0.011192673
2292 0.011420349
2290 0.011649018
2288 0.011876697
2286 0.012104372
2284 0.012333036
2282 0.012560721
2280 0.012789383
2278 0.013017069
2276 0.013244743
2274 0.013473402
2272 0.013701092
2270 0.013929748
2268 0.014157441
2266 0.014385114
2264 0.014613766
2262 0.014841463
2260 0.015070111
2258 0.015297811
2256 0.015526458
2254 0.01575416
2252 0.015981834
2250 0.016210474
2248 0.016438182
2246 0.01666682
2244 0.0006193571
2242 0.018990137
2240 0.03853536
2238 0.053759839
2236 0.068297982
2234 0.033998244
2232 -0.0052914782
2230 -0.077452116
2228 -0.14831983
2226 -0.1965335
2224 -0.23356029
2222 -0.22498354
2220 -0.21117891
2218 -0.18904136
2216 -0.17452343
2214 -0.17766459
2212 -0.18491299
2210 -0.19716723
2208 -0.19924264
2206 -0.18823244
2204 -0.15055639
2202 -0.087951168
2200 -0.031709515
2198 0.018581379
2196 0.017624643
2194 -0.012686038
2192 -0.033774681
2190 -0.049989857
2188 -0.0012010599
2186 0.06863071
2184 0.16731553
2182 0.27233768
2180 0.3517426
2178 0.42651638
2176 0.43949345
2174 0.4464187
2172 0.44898871
2170 0.45824361
2168 0.50803936
2166 0.56121093
2164 0.61218745
2162 0.65723878
2160 0.68768287
2158 0.70981759
2156 0.71911204
2154 0.72082651
2152 0.71352857
2150 0.72674274
2148 0.76411563
2146 0.80526859
2144 0.84750551
2142 0.84437591
2140 0.80957431
2138 0.75875503
2136 0.70101571
2134 0.65010691
2132 0.60249019
2130 0.55641192
2128 0.51076162
2126 0.50578952
2124 0.51022816
2122 0.5541966
2120 0.60372335
2118 0.64126939
2116 0.67206001
2114 0.66558576
2112 0.6445666
2110 0.583426
2108 0.51242959
2106 0.42937893
2104 0.35600039
2102 0.30773306
2100 0.28745461
2098 0.30784345
2096 0.37601998
2094 0.4987388
2092 0.64917147
2090 0.82004976
2088 0.92519194
2086 0.9739455
2084 0.93806177
2082 0.85157239
2080 0.76200068
2078 0.67411488
2076 0.60203844
2074 0.53638983
2072 0.48538882
2070 0.43879738
2068 0.42963734
2066 0.42936012
2064 0.43846372
2062 0.44864023
2060 0.45632291
2058 0.4657155
2056 0.48733371
2054 0.51588553
2052 0.55934441
2050 0.61416048
2048 0.68915862
2046 0.76162106
2044 0.820701
2042 0.83773959
2040 0.79633546
2038 0.7261306
2036 0.63615769
2034 0.58223021
2032 0.56651711
2030 0.58463264
2028 0.62313491
2026 0.64690542
2024 0.65844512
2022 0.6487785
2020 0.62862825
2018 0.62933081
2016 0.64002401
2014 0.70714617
2012 0.7939713
2010 0.87898076
2008 0.96150619
2006 1.0083741
2004 1.0457994
2002 1.07809
2000 1.0998194
1998 1.0770584
1996 1.0236
1994 0.90862715
1992 0.79164702
1990 0.70887953
1988 0.68197298
1986 0.74379385
1984 0.83333856
1982 0.93202287
1980 1.0012255
1978 1.0324985
1976 1.0575258
1974 1.083035
1972 1.1234857
1970 1.1743284
1968 1.1892799
1966 1.1805464
1964 1.1254969
1962 1.0494517
1960 0.99871916
1958 0.96078038
1956 0.96405697
1954 0.98320788
1952 1.0276344
1950 1.0798745
1948 1.1112852
1946 1.1216
1944 1.0582485
1942 0.97078127
1940 0.89637727
1938 0.84787333
1936 0.86060858
1934 0.88750231
1932 0.89999002
1930 0.88894558
1928 0.84068322
1926 0.81375581
1924 0.82443649
1922 0.91458625
1920 1.083228
1918 1.248994
1916 1.4009585
1914 1.4715855
1912 1.4821469
1910 1.4396017
1908 1.3684183
1906 1.2817222
1904 1.1900879
1902 1.1392937
1900 1.1096351
1898 1.1148976
1896 1.1337428
1894 1.1419089
1892 1.1466994
1890 1.164672
1888 1.1898937
1886 1.2344836
1884 1.2707597
1882 1.261752
1880 1.2216172
1878 1.1423568
1876 1.06767
1874 1.0164437
1872 1.001536
1870 1.023789
1868 1.0712914
1866 1.1480093
1864 1.2299452
1862 1.319322
1860 1.3822088
1858 1.4152284
1856 1.3980657
1854 1.3422952
1852 1.3067406
1850 1.2850493
1848 1.3485121
1846 1.4548857
1844 1.5162795
1842 1.5426495
1840 1.4162309
1838 1.2169576
1836 0.97588253
1834 0.7322818
1832 0.5445599
1830 0.41630739
1828 0.42156985
1826 0.49909779
1824 0.6400637
1822 0.76956737
1820 0.81762838
1818 0.81847948
1816 0.78012288
1814 0.75086957
1812 0.74961555
1810 0.75296372
1808 0.75359213
1806 0.74619704
1804 0.73253626
1802 0.75665438
1800 0.81188715
1798 0.90338588
1796 1.0168357
1794 1.0877132
1792 1.1321319
1790 1.1155244
1788 1.0702488
1786 1.0110421
1784 0.95029485
1782 0.89954108
1780 0.86599696
1778 0.88637972
1776 0.92015767
1774 0.88614458
1772 0.75937492
1770 0.47953993
1768 0.16566281
1766 -0.034102049
1764 -0.10601194
1762 -0.044470757
1760 0.043367863
1758 -0.017678473
1756 -0.16475624
1754 -0.32341823
1752 -0.36652377
1750 -0.27062809
1748 -0.075472414
1746 0.18545492
1744 0.31373569
1742 0.31210646
1740 0.20050576
1738 0.014150485
1736 -0.10749561
1734 -0.1792351
1732 -0.21698771
1730 -0.23202273
1728 -0.27755737
1726 -0.32522556
1724 -0.31069744
1722 -0.2183775
1720 -0.0035442859
1718 0.33710074
1716 0.9993847
1714 1.877075
1712 2.8573606
1710 3.8666306
1708 4.790164
1706 5.8043394
1704 7.0475488
1702 8.7765064
1700 11.131801
1698 14.052656
1696 17.450001
1694 20.685169
1692 23.503849
1690 26.031143
1688 28.350777
1686 31.141407
1684 34.45747
1682 38.301949
1680 42.556961
1678 46.290352
1676 49.544029
1674 52.695156
1672 55.821758
1670 59.464436
1668 63.51321
1666 67.7173
1664 72.008598
1662 76.16378
1660 80.129372
1658 83.750298
1656 87.040771
1654 90.013962
1652 92.665756
1650 95.023552
1648 96.724785
1646 97.538467
1644 97.58287
1642 97.027313
1640 95.913658
1638 94.323486
1636 91.975998
1634 88.866035
1632 85.345909
1630 81.603912
1628 77.854454
1626 74.139809
1624 70.194199
1622 66.005074
1620 61.805691
1618 57.623188
1616 53.584145
1614 49.714088
1612 46.140476
1610 42.895748
1608 40.038567
1606 37.560814
1604 35.37318
1602 33.488304
1600 31.88545
1598 30.559229
1596 29.451
1594 28.532726
1592 27.743561
1590 27.073658
1588 26.501005
1586 26.067923
1584 25.785921
1582 25.69405
1580 25.79224
1578 26.124802
1576 26.698
1574 27.453499
1572 28.376543
1570 29.289917
1568 30.15756
1566 30.970886
1564 31.728493
1562 32.640392
1560 33.767925
1558 35.453621
1556 37.675499
1554 39.886749
1552 42.002205
1550 43.660542
1548 44.931526
1546 46.142464
1544 47.29908
1542 48.444721
1540 49.396759
1538 49.971004
1536 50.086086
1534 49.707458
1532 49.054272
1530 48.319054
1528 47.516121
1526 46.661148
1524 45.645618
1522 44.416584
1520 42.869431
1518 40.973644
1516 39.050655
1514 37.19495
1512 35.445038
1510 33.790604
1508 31.656797
1506 28.87977
1504 25.954531
1502 22.93364
1500 20.353569
1498 18.263741
1496 16.190714
1494 14.116271
1492 11.994774
1490 9.8534355
1488 7.8118992
1486 5.9152842
1484 4.1987162
1482 2.7370527
1480 1.5516655
1478 0.69546187
1476 0.19496085
1474 0.2272118
1472 0.89802182
1470 1.743449
1468 2.6091135
1466 3.4545271
1464 4.2173557
1462 4.9691596
1460 5.7296209
1458 6.3032093
1456 6.5840397
1454 6.5829816
1452 6.2212224
1450 5.8721471
1448 5.5720983
1446 5.2804284
1444 4.9942565
1442 4.6926351
1440 4.3627977
1438 4.0203085
1436 3.6270657
1434 3.1430652
1432 2.5623577
1430 1.9661252
1428 1.421454
1426 1.0259557
1424 0.80824065
1422 0.76424187
1420 0.85630208
1418 1.0456055
1416 1.2901428
1414 1.5589499
1412 1.8749425
1410 2.2369738
1408 2.6326041
1406 3.0562551
1404 3.4553447
1402 3.8098919
1400 4.1097283
1398 4.3286715
1396 4.5151
1394 4.6603074
1392 4.7794638
1390 4.8719053
1388 4.9146066
1386 4.8810301
1384 4.7851934
1382 4.6049314
1380 4.4011164
1378 4.1663241
1376 3.9318943
1374 3.6806359
1372 3.41278
1370 3.1260357
1368 2.818572
1366 2.4909506
1364 2.1200516
1362 1.7121686
1360 1.2842304
1358 0.88044602
1356 0.56351614
1354 0.32184044
1352 0.16438243
1350 0.049515668
1348 -0.047366366
1346 -0.15400322
1344 -0.1718736
1342 -0.14007026
1340 -0.026014768
1338 0.076313093
1336 0.15303057
1334 0.18606284
1332 0.17191371
1330 0.16283651
1328 0.17038703
1326 0.20705779
1324 0.27848464
1322 0.39149642
1320 0.55023837
1318 0.74698752
1316 0.97216398
1314 1.1845688
1312 1.3790326
1310 1.5260051
1308 1.6392673
1306 1.7180814
1304 1.7727783
1302 1.806348
1300 1.8273157
1298 1.8462071
1296 1.8694142
1294 1.9144595
1292 1.9649401
1290 2.0207193
1288 2.0737321
1286 2.1198409
1284 2.1728351
1282 2.2492609
1280 2.3370864
1278 2.452261
1276 2.5758886
1274 2.713007
1272 2.8632126
1270 3.0340993
1268 3.2253759
1266 3.4513607
1264 3.7029514
1262 3.9969769
1260 4.3347659
1258 4.7293301
1256 5.1863117
1254 5.7042818
1252 6.270534
1250 6.8705482
1248 7.4832582
1246 8.1001749
1244 8.7149734
1242 9.3240404
1240 9.9202557
1238 10.486235
1236 10.964685
1234 11.372977
1232 11.60312
1230 11.754742
1228 11.707771
1226 11.599299
1224 11.32876
1222 11.007241
1220 10.565311
1218 10.080338
1216 9.5098944
1214 8.9190359
1212 8.296937
1210 7.6860237
1208 7.0920939
1206 6.5092087
1204 5.9381456
1202 5.3619132
1200 4.7794547
1198 4.1906362
1196 3.5986214
1194 3.0140874
1192 2.4434013
1190 1.913491
1188 1.4194485
1186 1.000433
1184 0.6290974
1182 0.3532967
1180 0.12603042
1178 0.0066534355
1176 -0.070895202
1174 -0.039571837
1172 0.011787392
1170 0.11635314
1168 0.19983816
1166 0.21823765
1164 0.20191798
1162 0.10273144
1160 0.0056360513
1158 -0.083240002
1156 -0.14029858
1154 -0.14571752
1152 -0.13665651
1150 -0.11287554
1148 -0.107462
1146 -0.12025178
1144 -0.12962589
1142 -0.1222911
1140 -0.041945025
1138 0.087528914
1136 0.23677228
1134 0.45449018
1132 0.754583
1130 1.0972724
1128 1.4969703
1126 1.9190979
1124 2.3754866
1122 2.8372893
1120 3.2967682
1118 3.7519946
1116 4.1858287
1114 4.6062317
1112 4.9707098
1110 5.3114586
1108 5.5782104
1106 5.8433399
1104 6.1084886
1102 6.4070687
1100 6.7744966
1098 7.1831307
1096 7.6560569
1094 8.1446877
1092 8.6482449
1090 9.1226969
1088 9.5627785
1086 9.955142
1084 10.304359
1082 10.607669
1080 10.874206
1078 11.07675
1076 11.245972
1074 11.376003
1072 11.499492
1070 11.663626
1068 11.842169
1066 12.055471
1064 12.256599
1062 12.334944
1060 12.370571
1058 12.168659
1056 11.928715
1054 11.523164
1052 11.102294
1050 10.63074
1048 10.167924
1046 9.7281036
1044 9.313323
1042 8.9482574
1040 8.6151495
1038 8.3305521
1036 8.0690899
1034 7.8308825
1032 7.567956
1030 7.2762365
1028 6.9181991
1026 6.5117793
1024 6.0755558
1022 5.6289248
1020 5.2339592
1018 4.8656354
1016 4.5664058
1014 4.2828755
1012 3.9681358
1010 3.6378641
1008 3.1926601
1006 2.7358387
1004 2.2565422
1002 1.7943316
1000 1.4514742
998 1.1266764
996 0.88041145
994 0.62394333
992 0.33714467
990 0.060102716
988 -0.18975812
986 -0.36302972
984 -0.40049353
982 -0.36760938
980 -0.2410666
978 -0.10259265
976 0.049020827
974 0.21112321
972 0.38254562
970 0.57043666
968 0.76675498
966 0.94345701
964 1.1077843
962 1.2050971
960 1.2757748
958 1.2304089
956 1.1562772
954 0.9828133
952 0.79680681
950 0.59327918
948 0.39116246
946 0.21857092
944 0.055437796
942 -0.0043009967
940 -0.13267194
938 -0.18862429
936 -0.2323257
934 -0.24089453
932 -0.26199913
930 -0.3100898
928 -0.37314221
926 -0.45983723
924 -0.530617
922 -0.58223677
920 -0.62547481
918 -0.66191673
916 -0.77496588
914 -0.94257039
912 -1.1744525
910 -1.4395901
908 -1.5479312
906 -1.5958815
904 -1.3271952
902 -0.97647071
900 -0.53855819
898 -0.087505519
896 0.062406
