##TITLE=Methyl Ethyl Ketone
##JCAMP-DX=4.24
##DATA TYPE=INFRARED SPECTRUM
##XUNITS=cm-1
##YUNITS=Absorbance
##FIRSTX=900
##LASTX=2300
##XYDATA=(X++(Y..Y))
2296 -0.022759
2294 -0.023232322
2292 -0.023705646
2290 -0.024179963
2288 -0.024653291
2286 -0.025126614
2284 -0.025599938
2282 -0.02607326
2280 -0.026546583
2278 -0.027019905
2276 -0.027493229
2274 -0.027967537
2272 -0.028440876
2270 -0.028914196
2268 -0.029387519
2266 -0.029860843
2264 -0.030334165
2262 -0.030808466
2260 -0.03128181
2258 -0.031755134
2256 -0.032228459
2254 -0.032701779
2252 -0.033175103
2250 -0.033648424
2248 -0.034122713
2246 -0.034596071
2244 0.015733836
2242 0.00068178854
2240 -0.047127359
2238 -0.13532314
2236 -0.22933729
2234 -0.2758137
2232 -0.31554109
2230 -0.28096992
2228 -0.23912436
2226 -0.16793899
2224 -0.1051376
2222 -0.087626249
2220 -0.09271507
2218 -0.15934846
2216 -0.23415343
2214 -0.31923398
2212 -0.38756901
2210 -0.42756665
2208 -0.44545782
2206 -0.43797565
2204 -0.42960742
2202 -0.42191434
2200 -0.42628068
2198 -0.43961349
2196 -0.44810215
2194 -0.45348263
2192 -0.44754663
2190 -0.43676195
2188 -0.42598084
2186 -0.41531837
2184 -0.40229002
2182 -0.38870987
2180 -0.37818095
2178 -0.36843839
2176 -0.38636285
2174 -0.40899703
2172 -0.45646119
2170 -0.5048694
2168 -0.54530847
2166 -0.57768738
2164 -0.58359164
2162 -0.58530164
2160 -0.5830484
2158 -0.58099616
2156 -0.58003497
2154 -0.56636357
2152 -0.53409386
2150 -0.49578941
2148 -0.45287436
2146 -0.43126214
2144 -0.42892581
2142 -0.4457466
2140 -0.47452268
2138 -0.48147178
2136 -0.47585401
2134 -0.4362587
2132 -0.38277292
2130 -0.36313739
2128 -0.35468078
2126 -0.42622578
2124 -0.51622665
2122 -0.61555314
2120 -0.71252471
2118 -0.73999739
2116 -0.75140613
2114 -0.71668112
2112 -0.67576545
2110 -0.63671887
2108 -0.60097432
2106 -0.57439816
2104 -0.55462754
2102 -0.54702508
2100 -0.5557918
2098 -0.58908278
2096 -0.63110715
2094 -0.6799401
2092 -0.71277708
2090 -0.72803247
2088 -0.72917777
2086 -0.7205075
2084 -0.71961945
2082 -0.72467732
2080 -0.74913162
2078 -0.78351188
2076 -0.81634331
2074 -0.84809488
2072 -0.84547603
2070 -0.83187747
2068 -0.79023612
2066 -0.74225843
2064 -0.69493502
2062 -0.65003955
2060 -0.62489057
2058 -0.60400277
2056 -0.58499885
2054 -0.56067479
2052 -0.51689816
2050 -0.4766984
2048 -0.45672604
2046 -0.46760786
2044 -0.53131098
2042 -0.61380929
2040 -0.70829666
2038 -0.77664137
2036 -0.80958527
2034 -0.80196387
2032 -0.76151085
2030 -0.70659381
2028 -0.64554775
2026 -0.60800904
2024 -0.58666003
2022 -0.60270303
2020 -0.63723785
2018 -0.68075657
2016 -0.72657001
2014 -0.73689002
2012 -0.73438001
2010 -0.6818133
2008 -0.61567205
2006 -0.54781407
2004 -0.48622969
2002 -0.4743146
2000 -0.47745079
1998 -0.49452025
1996 -0.49981573
1994 -0.46108887
1992 -0.40988064
1990 -0.35197526
1988 -0.32188478
1986 -0.33891115
1984 -0.38793281
1982 -0.4660759
1980 -0.53670293
1978 -0.59314197
1976 -0.6132943
1974 -0.60373271
1972 -0.58938694
1970 -0.57676554
1968 -0.59058958
1966 -0.62085032
1964 -0.63555199
1962 -0.63953745
1960 -0.59960961
1958 -0.54065335
1956 -0.46701646
1954 -0.38878644
1952 -0.33190328
1950 -0.28460461
1948 -0.27769372
1946 -0.28904998
1944 -0.32671937
1942 -0.37284777
1940 -0.40664554
1938 -0.43092641
1936 -0.43718514
1934 -0.43337852
1932 -0.42476761
1930 -0.41104802
1928 -0.3960771
1926 -0.38409391
1924 -0.37932023
1922 -0.38113171
1920 -0.38550696
1918 -0.37089521
1916 -0.33400473
1914 -0.27399319
1912 -0.20046704
1910 -0.15506914
1908 -0.13085191
1906 -0.15409814
1904 -0.2007544
1902 -0.25249776
1900 -0.30402035
1898 -0.32094207
1896 -0.32145572
1894 -0.29522932
1892 -0.26159012
1890 -0.24167781
1888 -0.23115873
1886 -0.23104671
1884 -0.22949825
1882 -0.2100904
1880 -0.18025
1878 -0.14471269
1876 -0.11733
1874 -0.11640566
1872 -0.14172989
1870 -0.19793457
1868 -0.26129431
1866 -0.31237701
1864 -0.33382159
1862 -0.31940359
1860 -0.30016676
1858 -0.28829539
1856 -0.30469429
1854 -0.34548718
1852 -0.37738433
1850 -0.40383673
1848 -0.40671042
1846 -0.40056643
1844 -0.4078986
1842 -0.42610323
1840 -0.44728041
1838 -0.4649986
1836 -0.46519443
1834 -0.45082739
1832 -0.42672807
1830 -0.40548131
1828 -0.4027319
1826 -0.4184663
1824 -0.44424269
1822 -0.47085777
1820 -0.4917112
1818 -0.50453889
1816 -0.51696944
1814 -0.52271914
1812 -0.52344668
1810 -0.52433652
1808 -0.52505964
1806 -0.51759553
1804 -0.50057697
1802 -0.44663626
1800 -0.36505011
1798 -0.27483666
1796 -0.18387571
1794 -0.17997321
1792 -0.23295359
1790 -0.33095667
1788 -0.44648609
1786 -0.48386636
1784 -0.47023526
1782 -0.42593929
1780 -0.36602592
1778 -0.3317633
1776 -0.31397656
1774 -0.30989143
1772 -0.30125612
1770 -0.23411624
1768 -0.14169131
1766 -0.044838984
1764 0.040751629
1762 0.08711753
1760 0.037484393
1758 -0.053924873
1756 -0.12789595
1754 -0.18691102
1752 -0.24653046
1750 -0.3189092
1748 -0.40038311
1746 -0.48349965
1744 -0.54241985
1742 -0.56823379
1740 -0.53403687
1738 -0.45771113
1736 -0.35704401
1734 -0.24913612
1732 -0.19909757
1730 -0.18811093
1728 -0.19844748
1726 -0.20952137
1724 -0.18494986
1722 -0.1184975
1720 0.015236415
1718 0.24883798
1716 0.71535146
1714 1.3461732
1712 2.1044779
1710 2.944098
1708 3.793088
1706 4.7886648
1704 6.0356522
1702 7.7998199
1700 10.223637
1698 13.477541
1696 17.554714
1694 21.640471
1692 25.370621
1690 28.649071
1688 31.525423
1686 34.875286
1684 38.802128
1682 43.510132
1680 48.850239
1678 53.567127
1676 57.694073
1674 61.73708
1672 65.791901
1670 70.541084
1668 75.757851
1666 80.656097
1664 85.137764
1662 88.771729
1660 91.632156
1658 93.801971
1656 95.3274
1654 96.281227
1652 96.689117
1650 96.629738
1648 96.156509
1646 95.403931
1644 94.501511
1642 93.550659
1640 92.346031
1638 90.785179
1636 88.41967
1634 85.173943
1632 81.34417
1630 77.123856
1628 72.777611
1626 68.378326
1624 63.70092
1622 58.747849
1620 53.896294
1618 49.181019
1616 44.798088
1614 40.769802
1612 37.205193
1610 34.118919
1608 31.46715
1606 29.2356
1604 27.308735
1602 25.706564
1600 24.418411
1598 23.448267
1596 22.748001
1594 22.309982
1592 22.088303
1590 22.064743
1588 22.197317
1586 22.492243
1584 22.93224
1582 23.551519
1580 24.350241
1578 25.467539
1576 26.946085
1574 28.79034
1572 30.995914
1570 33.306839
1568 35.666
1566 37.921314
1564 40.047405
1562 42.070946
1560 44.029312
1558 46.439789
1556 49.269943
1554 51.99556
1552 54.429855
1550 55.936275
1548 56.558514
1546 56.800823
1544 56.604
1542 55.998871
1540 54.88916
1538 53.298637
1536 51.462059
1534 49.729515
1532 48.151386
1530 46.714245
1528 45.368336
1526 44.070702
1524 42.665062
1522 41.06572
1520 39.073288
1518 36.599854
1516 34.137257
1514 31.842579
1512 29.73732
1510 27.827276
1508 25.442015
1506 22.418686
1504 19.399879
1502 16.477417
1500 14.0989
1498 12.328489
1496 10.601471
1494 8.9197893
1492 7.2670345
1490 5.6698236
1488 4.1890235
1486 2.8759305
1484 1.7704799
1482 0.93669915
1480 0.38110909
1478 0.088234462
1476 0.046613216
1474 0.36010244
1472 1.0435964
1470 1.9394989
1468 3.0027361
1466 4.059103
1464 4.972384
1462 5.7960143
1460 6.5255656
1458 7.2893662
1456 8.1452999
1454 8.9822588
1452 9.7836113
1450 10.314983
1448 10.444189
1446 10.388392
1444 10.075686
1442 9.6938162
1440 9.1960468
1438 8.5677547
1436 7.7520514
1434 6.7883339
1432 5.7220631
1430 4.7914519
1428 4.0644941
1426 3.5753706
1424 3.3064759
1422 3.1612694
1420 3.1366918
1418 3.2392535
1416 3.4709942
1414 3.855304
1412 4.3284802
1410 4.8332758
1408 5.3399658
1406 5.8226871
1404 6.2614818
1402 6.638154
1400 6.9153838
1398 7.031848
1396 7.0414357
1394 6.8844085
1392 6.6943378
1390 6.4667726
1388 6.2296162
1386 5.9797201
1384 5.7116547
1382 5.4165082
1380 5.1057892
1378 4.7586913
1376 4.3538656
1374 3.8654623
1372 3.313014
1370 2.7174759
1368 2.146848
1366 1.6168815
1364 1.1309477
1362 0.68521202
1360 0.28655249
1358 -0.036425084
1356 -0.22366285
1354 -0.27375868
1352 -0.13143177
1350 0.12176928
1348 0.50806189
1346 0.92141467
1344 1.342428
1342 1.7345551
1340 2.0574021
1338 2.3315539
1336 2.5106971
1334 2.6074724
1332 2.574368
1330 2.4841402
1328 2.3110759
1326 2.1404214
1324 1.9718575
1322 1.8413364
1320 1.75194
1318 1.6883717
1316 1.64399
1314 1.5912459
1312 1.5272274
1310 1.4312828
1308 1.3135477
1306 1.1728685
1304 1.0291289
1302 0.90889418
1300 0.8152343
1298 0.77472013
1296 0.77330142
1294 0.83845395
1292 0.95587248
1290 1.1756262
1288 1.443632
1286 1.8018608
1284 2.1688046
1282 2.543942
1280 2.8892114
1278 3.1647975
1276 3.3892715
1274 3.5117161
1272 3.604095
1270 3.6526308
1268 3.7330875
1266 3.8731644
1264 4.0855532
1262 4.398211
1260 4.7832022
1258 5.2505627
1256 5.7776227
1254 6.3639798
1252 7.000114
1250 7.6820502
1248 8.4154587
1246 9.1786003
1244 9.9602737
1242 10.710183
1240 11.333972
1238 11.835918
1236 12.051828
1234 12.117816
1232 11.867081
1230 11.496929
1228 10.842877
1226 10.1099
1224 9.1709442
1222 8.2077551
1220 7.1974502
1218 6.2487631
1216 5.4403601
1214 4.7722306
1212 4.3526268
1210 4.0839081
1208 4.026773
1206 4.0405059
1204 4.117228
1202 4.128305
1200 4.0446839
1198 3.7970133
1196 3.4022
1194 2.8791881
1192 2.2869136
1190 1.7097059
1188 1.1730193
1186 0.77670044
1184 0.46517622
1182 0.31346521
1180 0.22371174
1178 0.2377346
1176 0.28067201
1174 0.3825337
1172 0.49072415
1170 0.61085355
1168 0.72102481
1166 0.80206817
1164 0.87730563
1162 0.93557268
1160 0.97004598
1158 0.9490903
1156 0.86678755
1154 0.6863932
1152 0.49500591
1150 0.30227143
1148 0.1852078
1146 0.15171857
1144 0.15041195
1142 0.16460091
1140 0.11673487
1138 0.024294227
1136 -0.09087114
1134 -0.2030389
1132 -0.19373326
1130 -0.11962243
1128 0.050005659
1126 0.24725835
1124 0.45158762
1122 0.64274454
1120 0.75810003
1118 0.84881347
1116 0.84613514
1114 0.84861726
1112 0.880907
1110 0.93965983
1108 1.0811877
1106 1.2230799
1104 1.3619452
1102 1.4656737
1100 1.5003872
1098 1.5159233
1096 1.5101571
1094 1.5635502
1092 1.701556
1090 1.9366623
1088 2.2682428
1086 2.6229808
1084 2.985265
1082 3.2775605
1080 3.5125172
1078 3.6358552
1076 3.6970999
1074 3.6720743
1072 3.6162326
1070 3.5388086
1068 3.4557095
1066 3.3637826
1064 3.267884
1062 3.1511798
1060 3.0375435
1058 2.9517543
1056 2.8796713
1054 2.8669522
1052 2.8511474
1050 2.8241539
1048 2.7808971
1046 2.7021749
1044 2.6570971
1042 2.6795897
1040 2.7587702
1038 2.9173987
1036 3.0533299
1034 3.1556263
1032 3.1787343
1030 3.1260204
1028 3.0145779
1026 2.8595245
1024 2.6697922
1022 2.4602811
1020 2.230782
1018 1.9938645
1016 1.7574114
1014 1.5229375
1012 1.3092502
1010 1.0976694
1008 0.87154162
1006 0.63927257
1004 0.35004649
1002 0.061453417
1000 -0.21892804
998 -0.489461
996 -0.71599716
994 -0.92797369
992 -1.0924366
990 -1.2210557
988 -1.2669502
986 -1.2961771
984 -1.2982177
982 -1.3140377
980 -1.34604
978 -1.3321096
976 -1.2676572
974 -1.1472071
972 -0.98494542
970 -0.86776245
968 -0.78178024
966 -0.76220351
964 -0.77156758
962 -0.7592327
960 -0.73473185
958 -0.60792792
956 -0.45721799
954 -0.26519334
952 -0.073443122
950 -0.0098710805
948 0.042853862
946 0.014122928
944 0.0019762293
942 0.062481508
940 0.21454838
938 0.51744676
936 0.79217458
934 0.98264098
932 1.113608
930 1.1185597
928 1.1550885
926 1.2428986
924 1.3743939
922 1.5573055
920 1.6584423
918 1.6839367
916 1.6924558
914 1.691749
912 1.8753034
910 2.1559839
908 2.514117
906 2.9000807
904 3.2188165
902 3.5193048
900 3.9398577
898 4.3795338
896 4.8926001
