##TITLE=Methyl Ethyl Ketone
##JCAMP-DX=4.24
##DATA TYPE=INFRARED SPECTRUM
##XUNITS=cm-1
##YUNITS=Absorbance
##FIRSTX=900
##LASTX=2300
##XYDATA=(X++(Y..Y))
2296 -0.040495001
2294 -0.041337792
2292 -0.042179588
2290 -0.043022383
2288 -0.043865174
2286 -0.044706982
2284 -0.045549765
2282 -0.04639256
2280 -0.047234368
2278 -0.048076164
2276 -0.04891894
2274 -0.049762722
2272 -0.050604548
2270 -0.051442418
2268 -0.052289039
2266 -0.053146593
2264 -0.053974077
2262 -0.054759912
2260 -0.055656832
2258 -0.056710254
2256 -0.057350028
2254 -0.057406802
2252 -0.059003238
2250 -0.062769793
2248 -0.060815848
2246 -0.043243106
2244 -0.0015820999
2242 0.068253741
2240 0.15437567
2238 0.2434025
2236 0.33407557
2234 0.41955933
2232 0.45645371
2230 0.4047181
2228 0.28048745
2226 0.11968651
2224 -0.028140424
2222 -0.11873675
2220 -0.14442161
2218 -0.11140908
2216 -0.038102459
2214 0.054403495
2212 0.1483628
2210 0.23207098
2208 0.31412882
2206 0.40777114
2204 0.52027452
2202 0.65191394
2200 0.78239208
2198 0.887595
2196 0.95339572
2194 0.97078729
2192 0.93820584
2190 0.86165959
2188 0.76849228
2186 0.69147629
2184 0.65786558
2182 0.68214452
2180 0.7345401
2178 0.77587169
2176 0.78673887
2174 0.76422602
2172 0.74497539
2170 0.77056539
2168 0.85002518
2166 0.97490746
2164 1.11053
2162 1.2203394
2160 1.2945223
2158 1.3334007
2156 1.34104
2154 1.3209227
2152 1.2704234
2150 1.1879581
2148 1.0835797
2146 0.97332674
2144 0.87885022
2142 0.82294607
2140 0.82521498
2138 0.89775807
2136 1.0269097
2134 1.186627
2132 1.3378402
2130 1.4445125
2128 1.499972
2126 1.5117863
2124 1.5011095
2122 1.4868897
2120 1.4605325
2118 1.4062871
2116 1.3210814
2114 1.2129431
2112 1.1165068
2110 1.0705416
2108 1.0905057
2106 1.1752971
2104 1.2935274
2102 1.4060047
2100 1.48762
2098 1.5269904
2096 1.5446429
2094 1.5690486
2092 1.6100469
2090 1.6662922
2088 1.7216434
2086 1.759125
2084 1.7812715
2082 1.796753
2080 1.8068652
2078 1.8082156
2076 1.7905843
2074 1.744892
2072 1.678604
2070 1.6055295
2068 1.539688
2066 1.4910915
2064 1.4555681
2062 1.4257638
2060 1.4060174
2058 1.404992
2056 1.4282686
2054 1.4741089
2052 1.5159763
2050 1.520692
2048 1.4699235
2046 1.358475
2044 1.207942
2042 1.0511025
2040 0.92141318
2038 0.84780419
2036 0.84238899
2034 0.90715849
2032 1.0323883
2030 1.2012269
2028 1.3867306
2026 1.5570893
2024 1.6790372
2022 1.7249091
2020 1.6938686
2018 1.5995281
2016 1.46632
2014 1.3224273
2012 1.1949919
2010 1.1088891
2008 1.0824771
2006 1.1221179
2004 1.1961186
2002 1.2597049
2000 1.2887601
1998 1.2800547
1996 1.2747715
1994 1.3223767
1992 1.4221057
1990 1.5436223
1988 1.6372
1986 1.656445
1984 1.602744
1982 1.5032901
1980 1.3958417
1978 1.3182728
1976 1.2941915
1974 1.333511
1972 1.4198598
1970 1.5208089
1968 1.5890348
1966 1.5775315
1964 1.4689503
1962 1.270238
1960 1.0270553
1958 0.80017704
1956 0.63702875
1954 0.56720412
1952 0.57839948
1950 0.63579768
1948 0.69713283
1946 0.72661251
1944 0.72616017
1942 0.71808654
1940 0.72778702
1938 0.77351487
1936 0.84235084
1934 0.90588361
1932 0.93963438
1930 0.92589396
1928 0.8616783
1926 0.75633025
1924 0.63989592
1922 0.55049658
1920 0.51579636
1918 0.55000991
1916 0.63719416
1914 0.74605447
1912 0.84759146
1910 0.9165234
1908 0.93233871
1906 0.88402253
1904 0.79154241
1902 0.69401675
1900 0.63966799
1898 0.66927636
1896 0.77522284
1894 0.91859329
1892 1.0446987
1890 1.100239
1888 1.066048
1886 0.95024049
1884 0.79270017
1882 0.64464271
1880 0.53495562
1878 0.47195926
1876 0.43735301
1874 0.4034887
1872 0.3643457
1870 0.33004674
1868 0.31957686
1866 0.34932849
1864 0.40690377
1862 0.46165749
1860 0.48015118
1858 0.43560195
1856 0.33045512
1854 0.18891028
1852 0.053038925
1850 -0.032495294
1848 -0.051972482
1846 -0.012960736
1844 0.056892227
1842 0.12412605
1840 0.1761333
1838 0.21665923
1836 0.25911728
1834 0.32014349
1832 0.41025513
1830 0.52975148
1828 0.65271223
1826 0.73904783
1824 0.75810456
1822 0.6946553
1820 0.5673458
1818 0.41462308
1816 0.26930001
1814 0.15447158
1812 0.076905273
1810 0.035856888
1808 0.042047709
1806 0.10738655
1804 0.20951283
1802 0.30258232
1800 0.34245977
1798 0.30242658
1796 0.21657571
1794 0.15395516
1792 0.15798479
1790 0.24480999
1788 0.40843061
1786 0.62728679
1784 0.86557645
1782 1.0807979
1780 1.2377329
1778 1.3133531
1776 1.3131458
1774 1.2602017
1772 1.1713905
1770 1.0529175
1768 0.89477056
1766 0.68577003
1764 0.45843861
1762 0.26227427
1760 0.074419774
1758 -0.16019654
1756 -0.38523015
1754 -0.47451791
1752 -0.38726395
1750 -0.17239872
1748 0.049800195
1746 0.13438606
1744 0.017705996
1742 -0.27462029
1740 -0.60903251
1738 -0.80509782
1736 -0.795214
1734 -0.622774
1732 -0.40691519
1730 -0.28817049
1728 -0.30331698
1726 -0.39271036
1724 -0.44449109
1722 -0.32328761
1720 0.087452963
1718 0.84518301
1716 1.8174558
1714 2.7506566
1712 3.5014749
1710 4.0651793
1708 4.5816159
1706 5.2885814
1704 6.4266768
1702 8.215539
1700 10.835302
1698 14.353726
1696 18.443001
1694 22.507219
1692 26.155336
1690 29.296026
1688 32.241474
1686 35.564247
1684 39.679676
1682 44.702312
1680 50.159199
1678 55.252556
1676 59.808956
1674 64.242378
1672 68.931046
1670 74.028038
1668 79.220863
1666 83.887398
1664 87.705956
1662 90.690346
1660 92.938141
1658 94.558685
1656 95.639969
1654 96.24395
1652 96.402786
1650 96.119102
1648 95.354248
1646 94.07196
1644 92.400749
1642 90.58474
1640 88.706062
1638 86.661263
1636 84.272713
1634 81.36647
1632 77.949081
1630 74.17971
1628 70.137451
1626 65.801262
1624 61.17524
1622 56.325184
1620 51.415653
1618 46.682232
1616 42.298603
1614 38.360325
1612 34.928169
1610 32.028091
1608 29.613617
1606 27.579601
1604 25.850914
1602 24.397831
1600 23.221041
1598 22.33745
1596 21.737
1594 21.379354
1592 21.221193
1590 21.228146
1588 21.393078
1586 21.733393
1584 22.253281
1582 22.94961
1580 23.877703
1578 25.154329
1576 26.893343
1574 29.158476
1572 31.850075
1570 34.717812
1568 37.552361
1566 40.2318
1564 42.702965
1562 45.008404
1560 47.404491
1558 50.261944
1556 53.472313
1554 56.408058
1552 58.523468
1550 59.553463
1548 59.647724
1546 59.294144
1544 58.728001
1542 57.826897
1540 56.427402
1538 54.447453
1536 52.05257
1534 49.636387
1532 47.454437
1530 45.53484
1528 43.784508
1526 42.026649
1524 40.077515
1522 37.797932
1520 35.217243
1518 32.554195
1516 30.063572
1514 27.943321
1512 26.110161
1510 24.190754
1508 21.928137
1506 19.315664
1504 16.586931
1502 14.153387
1500 12.209748
1498 10.643872
1496 9.2867289
1494 7.9939404
1492 6.6982188
1490 5.4175572
1488 4.1662378
1486 2.9423935
1484 1.7980859
1482 0.85023052
1480 0.19279732
1478 -0.11956657
1476 -0.0034987181
1474 0.63920635
1472 1.742484
1470 3.040827
1468 4.306459
1466 5.4306602
1464 6.4107132
1462 7.3456354
1460 8.340579
1458 9.4603443
1456 10.6574
1454 11.754021
1452 12.575272
1450 13.006084
1448 13.038394
1446 12.782143
1444 12.34898
1442 11.809071
1440 11.189491
1438 10.474286
1436 9.638257
1434 8.667079
1432 7.6059666
1430 6.5738349
1428 5.6771579
1426 4.976613
1424 4.4874477
1422 4.17766
1420 4.0165782
1418 3.9909291
1416 4.0975027
1414 4.3385091
1412 4.6999006
1410 5.1433616
1408 5.6285892
1406 6.1192207
1404 6.5742693
1402 6.9445467
1400 7.180264
1398 7.2399492
1396 7.1217141
1394 6.8790731
1392 6.5766644
1390 6.2716122
1388 5.9858809
1386 5.6948452
1384 5.3828249
1382 5.0617404
1380 4.7434273
1378 4.4274483
1376 4.0947886
1374 3.7063935
1372 3.2433879
1370 2.7240739
1368 2.1734581
1366 1.6130686
1364 1.0587826
1362 0.52335846
1360 0.043295205
1358 -0.3107411
1356 -0.48176914
1354 -0.45009193
1352 -0.22614868
1350 0.14570156
1348 0.61711788
1346 1.1473253
1344 1.707952
1342 2.2859049
1340 2.860373
1338 3.3894119
1336 3.8101344
1334 4.0402794
1332 4.0341797
1330 3.8168039
1328 3.4462543
1326 3.0084963
1324 2.5907698
1322 2.26651
1320 2.072849
1318 1.9888011
1316 1.96272
1314 1.9185225
1312 1.8012623
1310 1.6040672
1308 1.3479774
1306 1.0820936
1304 0.85323602
1302 0.69180989
1300 0.61582398
1298 0.6279999
1296 0.72816288
1294 0.9174577
1292 1.1994071
1290 1.5799687
1288 2.0577919
1286 2.615885
1284 3.2223091
1282 3.8245122
1280 4.3663597
1278 4.7963061
1276 5.083497
1274 5.23525
1272 5.285305
1270 5.2993722
1268 5.3462672
1266 5.4844465
1264 5.7531514
1262 6.159492
1260 6.6945844
1258 7.3342605
1256 8.0554056
1254 8.8435841
1252 9.6889248
1250 10.586422
1248 11.530645
1246 12.51375
1244 13.519809
1242 14.518223
1240 15.461805
1238 16.276403
1236 16.885542
1234 17.2229
1232 17.24184
1230 16.929207
1228 16.294821
1226 15.377299
1224 14.232348
1222 12.934917
1220 11.577117
1218 10.271885
1216 9.1239109
1214 8.211504
1212 7.5816736
1210 7.2280684
1208 7.1146202
1206 7.1680408
1204 7.2948799
1202 7.3800626
1200 7.3172569
1198 7.034163
1196 6.5033641
1194 5.7767091
1192 4.9328661
1190 4.0663052
1188 3.2578461
1186 2.5506537
1184 1.9707944
1182 1.5255902
1180 1.2124814
1178 1.0171163
1176 0.92010403
1174 0.89835411
1172 0.93410403
1170 1.0233248
1168 1.1635634
1166 1.3473229
1164 1.5542114
1162 1.7393401
1160 1.8575331
1158 1.8794678
1156 1.7973557
1154 1.6434938
1152 1.4542811
1150 1.2525244
1148 1.0477109
1146 0.82796603
1144 0.59152669
1142 0.37018073
1140 0.1882035
1138 0.034115478
1136 -0.10615898
1134 -0.2326899
1132 -0.34073436
1130 -0.42194322
1128 -0.46638966
1126 -0.46387264
1124 -0.41776055
1122 -0.36316541
1120 -0.33245841
1118 -0.33095115
1116 -0.34092343
1114 -0.30642036
1112 -0.18464753
1110 0.010451108
1108 0.23807332
1106 0.427665
1104 0.53305387
1102 0.5882799
1100 0.65445089
1098 0.80938947
1096 1.1051999
1094 1.5174009
1092 1.99886
1090 2.4923525
1088 2.9474492
1086 3.3370523
1084 3.6423516
1082 3.850105
1080 3.9503286
1078 3.9380441
1076 3.8141716
1074 3.5940642
1072 3.3074977
1070 3.0130811
1068 2.7715025
1066 2.6286085
1064 2.6124122
1062 2.7107599
1060 2.894958
1058 3.1170015
1056 3.3255057
1054 3.4743195
1052 3.5337186
1050 3.515712
1048 3.4399102
1046 3.3180141
1044 3.1560197
1042 2.9513886
1040 2.7193875
1038 2.53037
1036 2.4529099
1034 2.5084176
1032 2.6812434
1030 2.8804021
1028 3.014807
1026 3.0467906
1024 2.9710858
1022 2.838145
1020 2.6996415
1018 2.5696328
1016 2.4387772
1014 2.2569776
1012 1.9821005
1010 1.627453
1008 1.2298312
1006 0.85580415
1004 0.56180978
1002 0.34944445
1000 0.2043421
998 0.10372661
996 0.016597569
994 -0.10707742
992 -0.31221449
990 -0.61112833
988 -0.98413259
986 -1.3351929
984 -1.565408
982 -1.629408
980 -1.523658
978 -1.3391253
976 -1.1722457
974 -1.0611081
972 -1.0068774
970 -0.93767291
968 -0.7856434
966 -0.55851448
964 -0.29649639
962 -0.085795902
960 -0.0037325583
958 -0.057327628
956 -0.22087657
954 -0.41569287
952 -0.55408162
950 -0.56383014
948 -0.40775061
946 -0.15788604
944 0.11079937
942 0.40896124
940 0.74747831
938 1.0622211
936 1.2903628
934 1.4414821
932 1.5432777
930 1.6241614
928 1.7140422
926 1.8484628
924 2.0528519
922 2.3105929
920 2.5952115
918 2.8810978
916 3.1544542
914 3.4454315
912 3.7821498
910 4.1445627
908 4.4894829
906 4.7308574
904 4.7938046
902 4.689239
900 4.4653301
898 4.2314296
896 4.1124001
