##TITLE=Methyl Ethyl Ketone
##JCAMP-DX=4.24
##DATA TYPE=INFRARED SPECTRUM
##XUNITS=cm-1
##YUNITS=Absorbance
##FIRSTX=900
##LASTX=2300
##XYDATA=(X++(Y..Y))
2296 0.026168
2294 0.026712222
2292 0.027256442
2290 0.027800664
2288 0.028344886
2286 0.028889107
2284 0.02943432
2282 0.029978549
2280 0.030522771
2278 0.03106798
2276 0.03161123
2274 0.032154452
2272 0.032700624
2270 0.033248805
2268 0.03378918
2266 0.034316685
2264 0.034877155
2262 0.035483234
2260 0.035968579
2258 0.036282584
2256 0.037048716
2254 0.038448401
2252 0.03817137
2250 0.03553037
2248 0.039121337
2246 0.054366216
2244 0.063558012
2242 0.042944353
2240 -0.029450562
2238 -0.16622749
2236 -0.344401
2234 -0.53441292
2232 -0.72090113
2230 -0.89178735
2228 -1.0312884
2226 -1.12312
2224 -1.1529268
2222 -1.115846
2220 -1.042866
2218 -0.96902668
2216 -0.90242684
2214 -0.83731538
2212 -0.74462301
2210 -0.59777951
2208 -0.40836489
2206 -0.20169821
2204 -0.011468508
2202 0.13141149
2200 0.21696292
2198 0.2432625
2196 0.21470644
2194 0.13999869
2192 0.03777929
2190 -0.072071917
2188 -0.17726587
2186 -0.27179921
2184 -0.36518082
2182 -0.46627161
2180 -0.56119412
2178 -0.6276257
2176 -0.63917315
2174 -0.57846081
2172 -0.46970972
2170 -0.35184771
2168 -0.26776743
2166 -0.25028351
2164 -0.28694585
2162 -0.34746021
2160 -0.39071995
2158 -0.38182154
2156 -0.32496101
2154 -0.23981558
2152 -0.15479538
2150 -0.096244998
2148 -0.071302712
2146 -0.079463214
2144 -0.11652803
2142 -0.17503761
2140 -0.23860745
2138 -0.28936082
2136 -0.31586599
2134 -0.3140336
2132 -0.29993227
2130 -0.29360947
2128 -0.30193201
2126 -0.32410392
2124 -0.34833211
2122 -0.36442944
2120 -0.38476366
2118 -0.42588681
2116 -0.48693028
2114 -0.55671471
2112 -0.60924435
2110 -0.6203872
2108 -0.59554273
2106 -0.55112278
2104 -0.50208443
2102 -0.45955071
2100 -0.42277119
2098 -0.3876099
2096 -0.35470715
2094 -0.32692006
2092 -0.30808708
2090 -0.30126718
2088 -0.30519584
2086 -0.31567451
2084 -0.32351518
2082 -0.31959492
2080 -0.30312884
2078 -0.27844831
2076 -0.25696442
2074 -0.25148022
2072 -0.2692292
2070 -0.31233767
2068 -0.37137893
2066 -0.43203264
2064 -0.47869855
2062 -0.4992241
2060 -0.497224
2058 -0.4824771
2056 -0.4631283
2054 -0.44320023
2052 -0.41359136
2050 -0.36317116
2048 -0.29539108
2046 -0.22260821
2044 -0.16744399
2042 -0.15368329
2040 -0.19284257
2038 -0.28652561
2036 -0.41778713
2034 -0.56102109
2032 -0.68687707
2030 -0.7695027
2028 -0.80286527
2026 -0.7886194
2024 -0.72349805
2022 -0.60504669
2020 -0.44573498
2018 -0.27091104
2016 -0.13158999
2014 -0.079205126
2012 -0.11944795
2010 -0.23143312
2008 -0.37275213
2006 -0.49933344
2004 -0.59658414
2002 -0.66554332
2000 -0.71344042
1998 -0.74737334
1996 -0.76518142
1994 -0.76275355
1992 -0.7467593
1990 -0.73103422
1988 -0.73709661
1986 -0.78473145
1984 -0.87200361
1982 -0.98306358
1980 -1.0877448
1978 -1.1510432
1976 -1.1422257
1974 -1.040851
1972 -0.85880101
1970 -0.63016182
1968 -0.41745338
1966 -0.28650728
1964 -0.26167181
1962 -0.33669275
1960 -0.46665919
1958 -0.59583449
1956 -0.69894087
1954 -0.77047455
1952 -0.81816989
1950 -0.85357964
1948 -0.88091642
1946 -0.89864254
1944 -0.89828545
1942 -0.87089688
1940 -0.81959432
1938 -0.75732428
1936 -0.71127743
1934 -0.70939815
1932 -0.7527684
1930 -0.8240642
1928 -0.89026034
1926 -0.91481906
1924 -0.87699711
1922 -0.77349365
1920 -0.63742346
1918 -0.51457244
1916 -0.42336786
1914 -0.36077902
1912 -0.30224052
1910 -0.2253449
1908 -0.1626496
1906 -0.16983314
1904 -0.26679522
1902 -0.43827218
1900 -0.61424565
1898 -0.708197
1896 -0.68728858
1894 -0.56331998
1892 -0.3995553
1890 -0.2801069
1888 -0.26507965
1886 -0.38284799
1884 -0.59357852
1882 -0.82301521
1880 -1.0123289
1878 -1.1234214
1876 -1.1538401
1874 -1.118836
1872 -1.0236534
1870 -0.87106121
1868 -0.68757069
1866 -0.51462966
1864 -0.39397326
1862 -0.35845089
1860 -0.40710065
1858 -0.5195691
1856 -0.67935574
1854 -0.87106508
1852 -1.0646733
1850 -1.222985
1848 -1.318476
1846 -1.3360643
1844 -1.2839363
1842 -1.1826929
1840 -1.0462193
1838 -0.88052636
1836 -0.68129987
1834 -0.44321108
1832 -0.18291837
1830 0.063334726
1828 0.23693138
1826 0.27887321
1824 0.18530497
1822 -0.0054198429
1820 -0.23109359
1818 -0.42556006
1816 -0.55563229
1814 -0.61680287
1812 -0.63100737
1810 -0.62959003
1808 -0.61994022
1806 -0.59301955
1804 -0.54501379
1802 -0.48044002
1800 -0.41640687
1798 -0.36865354
1796 -0.31150928
1794 -0.20108093
1792 -0.042128481
1790 0.12255651
1788 0.24387741
1786 0.28475142
1784 0.26193291
1782 0.22873221
1780 0.23582366
1778 0.3230826
1776 0.5108403
1774 0.78928602
1772 1.0694618
1770 1.2203151
1768 1.1655343
1766 0.90062851
1764 0.54032457
1762 0.24953356
1760 0.060273197
1758 -0.085929081
1756 -0.17553256
1754 -0.13865447
1752 0.048000738
1750 0.3489666
1748 0.65602988
1746 0.82985711
1744 0.80713046
1742 0.61195934
1740 0.38245419
1738 0.30329263
1736 0.42182201
1734 0.65357983
1732 0.83036381
1730 0.77295822
1728 0.46965143
1726 0.056005426
1724 -0.27130949
1722 -0.30161101
1720 0.11420384
1718 1.0233179
1716 2.2366529
1714 3.4184415
1712 4.3697834
1710 5.0691319
1708 5.6999521
1706 6.5766878
1704 7.9646735
1702 10.042459
1700 12.86598
1698 16.345341
1696 20.125999
1694 23.708839
1692 26.857265
1690 29.646704
1688 32.466896
1686 35.877434
1684 40.218395
1682 45.492615
1680 51.12632
1678 56.253212
1676 60.715073
1674 65.005692
1672 69.564194
1670 74.570885
1668 79.715218
1666 84.358604
1664 88.140884
1662 91.032402
1660 93.138008
1658 94.621826
1656 95.643623
1654 96.330032
1652 96.718384
1650 96.749596
1648 96.260567
1646 95.067505
1644 93.267281
1642 91.190948
1640 89.027451
1638 86.761513
1636 84.232574
1634 81.219124
1632 77.691101
1630 73.796982
1628 69.634987
1626 65.223274
1624 60.570038
1622 55.708439
1620 50.770935
1618 45.970818
1616 41.4716
1614 37.370445
1612 33.743324
1610 30.642109
1608 28.048227
1606 25.880842
1604 24.066031
1602 22.554615
1600 21.332424
1598 20.41391
1596 19.8055
1594 19.495237
1592 19.446304
1590 19.603937
1588 19.930668
1586 20.413984
1584 21.063148
1582 21.9153
1580 23.057358
1578 24.609909
1576 26.636972
1574 29.115088
1572 31.901009
1570 34.762222
1568 37.55072
1566 40.231728
1564 42.816761
1562 45.370159
1560 48.102337
1558 51.269886
1556 54.619675
1554 57.398731
1552 59.123142
1550 59.773788
1548 59.670536
1546 59.333965
1544 58.961582
1542 58.333557
1540 57.11898
1538 55.03492
1536 52.193542
1534 49.115261
1532 46.235153
1530 43.763733
1528 41.719311
1526 39.950802
1524 38.264187
1522 36.471298
1520 34.455147
1518 32.204708
1516 29.851042
1514 27.631712
1512 25.621801
1510 23.674383
1508 21.596729
1506 19.239365
1504 16.677937
1502 14.220294
1500 12.067517
1498 10.222762
1496 8.607914
1494 7.110323
1492 5.6855536
1490 4.3735404
1488 3.1896925
1486 2.1059577
1484 1.1324228
1482 0.3394008
1480 -0.18518674
1478 -0.34497648
1476 -0.027969152
1474 0.85908341
1472 2.217232
1470 3.7284832
1468 5.1451635
1466 6.3878336
1464 7.5010576
1462 8.6342983
1460 9.9087334
1458 11.350389
1456 12.8152
1454 13.986344
1452 14.632952
1450 14.705553
1448 14.292628
1446 13.602357
1444 12.817248
1442 12.04279
1440 11.331268
1438 10.675939
1436 10.018386
1434 9.2615118
1432 8.3743496
1430 7.4321675
1428 6.5496001
1426 5.853786
1424 5.4183812
1422 5.2344089
1420 5.2520938
1418 5.3914585
1416 5.5742946
1414 5.742166
1412 5.883616
1410 6.0453739
1408 6.2741995
1406 6.5926099
1404 6.9866714
1402 7.39678
1400 7.7493401
1398 7.9689293
1396 8.0005646
1394 7.8261399
1392 7.4688735
1390 6.9996195
1388 6.4904957
1386 5.9971051
1384 5.5565157
1382 5.1816344
1380 4.8687234
1378 4.5945907
1376 4.3185487
1374 3.9848065
1372 3.5617321
1370 3.0617344
1368 2.5170531
1366 1.9718751
1364 1.4516848
1362 0.95269537
1360 0.48536074
1358 0.092556305
1356 -0.17600045
1354 -0.27339479
1352 -0.16762744
1350 0.14711222
1348 0.64983416
1346 1.2881964
1344 2.0147519
1342 2.7961988
1340 3.5733483
1338 4.2406015
1336 4.6868143
1334 4.8219304
1332 4.6380477
1330 4.2516518
1328 3.7902143
1326 3.3488836
1324 2.9882002
1322 2.7217691
1320 2.5448091
1318 2.4377081
1316 2.3676801
1314 2.2880154
1312 2.1629388
1310 1.9832822
1308 1.7605015
1306 1.5303428
1304 1.3285526
1302 1.181025
1300 1.1092317
1298 1.1300925
1296 1.2567428
1294 1.4962821
1292 1.8476537
1290 2.2971101
1288 2.8221641
1286 3.3898108
1284 3.9636338
1282 4.5067673
1280 4.9880362
1278 5.3883343
1276 5.7005901
1274 5.9355407
1272 6.1161594
1270 6.2801027
1268 6.4670796
1266 6.7127395
1264 7.039515
1262 7.4472952
1260 7.9310579
1258 8.4875937
1256 9.1234121
1254 9.8615828
1252 10.719316
1250 11.694523
1248 12.767102
1246 13.88925
1244 15.00396
1242 16.052492
1240 16.978519
1238 17.741236
1236 18.2978
1234 18.606936
1232 18.61924
1230 18.277792
1228 17.558176
1226 16.508999
1224 15.21636
1222 13.808343
1220 12.409348
1218 11.11075
1216 9.9886513
1214 9.1009388
1212 8.4902897
1210 8.1759024
1208 8.1405535
1206 8.3025103
1204 8.5501137
1202 8.743145
1200 8.7575436
1198 8.5215149
1196 8.0115213
1194 7.2814026
1192 6.4142675
1190 5.5146537
1188 4.6763544
1186 3.9568107
1184 3.3877172
1182 2.9630222
1180 2.6615977
1178 2.4496074
1176 2.2945602
1174 2.1736691
1172 2.0739131
1170 1.997988
1168 1.9507508
1166 1.9327629
1164 1.9347957
1162 1.929158
1160 1.887692
1158 1.7926835
1156 1.6362529
1154 1.4278107
1152 1.1802446
1150 0.90593338
1148 0.62262881
1146 0.36029071
1144 0.15200981
1142 0.028628139
1140 -0.0018165726
1138 0.01766183
1136 0.041859142
1134 0.04983069
1132 0.032757431
1130 -0.0030005835
1128 -0.046957787
1126 -0.088119477
1124 -0.12156037
1122 -0.15659398
1120 -0.19934839
1118 -0.24017523
1116 -0.26899242
1114 -0.28406048
1112 -0.28748465
1110 -0.28564632
1108 -0.28222832
1106 -0.2717005
1104 -0.24697155
1102 -0.20163286
1100 -0.12138432
1098 0.027425662
1096 0.27172428
1094 0.60823643
1092 1.0148602
1090 1.4407908
1088 1.8400062
1086 2.196913
1084 2.5065646
1082 2.7710922
1080 2.9896719
1078 3.1486149
1076 3.2336285
1074 3.238385
1072 3.1659126
1070 3.0402572
1068 2.8909628
1066 2.7488873
1064 2.638056
1062 2.5634525
1060 2.5203028
1058 2.4909739
1056 2.4568543
1054 2.4049065
1052 2.3318198
1050 2.25578
1048 2.1965828
1046 2.1626678
1044 2.156306
1042 2.1715894
1040 2.2082188
1038 2.2872596
1036 2.4240901
1034 2.600971
1032 2.785284
1030 2.9259875
1028 2.9813502
1026 2.951535
1024 2.8472891
1022 2.6821101
1020 2.4673548
1018 2.2074099
1016 1.9088914
1014 1.5904094
1012 1.26773
1010 0.93797195
1008 0.59413397
1006 0.23104309
1004 -0.13843784
1002 -0.4478209
1000 -0.63408202
998 -0.68766326
996 -0.63487285
994 -0.57241881
992 -0.58791423
990 -0.68405873
988 -0.83181262
986 -0.96831256
984 -1.0419275
982 -1.0644727
980 -1.0597939
978 -1.0388851
976 -1.0022982
974 -0.92538339
972 -0.78647488
970 -0.59494871
968 -0.37597892
966 -0.18168205
964 -0.059164792
962 -0.015299166
960 -0.035253275
958 -0.06441465
956 -0.053770587
954 -0.0079793222
952 0.050859001
950 0.086606905
948 0.07270515
946 0.029370453
944 0.008212395
942 0.12982243
940 0.48062497
938 0.9629153
936 1.4476571
934 1.8588642
932 2.1532512
930 2.3599658
928 2.5227492
926 2.6736951
924 2.8369122
922 3.0174675
920 3.2089298
918 3.3787353
916 3.4945171
914 3.5510387
912 3.5620098
910 3.589776
908 3.6875999
906 3.8273058
904 3.9533727
902 3.9828827
900 3.8621805
898 3.680733
896 3.5639
