##TITLE=Methyl Ethyl Ketone
##JCAMP-DX=4.24
##DATA TYPE=INFRARED SPECTRUM
##XUNITS=cm-1
##YUNITS=Absorbance
##FIRSTX=900
##LASTX=2300
##XYDATA=(X++(Y..Y))
2296 0.060083002
2294 0.061333213
2292 0.062583424
2290 0.063833639
2288 0.065082856
2286 0.066333063
2284 0.06758327
2282 0.068833485
2280 0.070082702
2278 0.071332902
2276 0.072583109
2274 0.073833324
2272 0.075082555
2270 0.076332748
2268 0.077582955
2266 0.07883317
2264 0.080082402
2262 0.081332594
2260 0.082582809
2258 0.083832048
2256 0.085082233
2254 0.08633244
2252 0.087582655
2250 0.088831894
2248 0.090082079
2246 0.091332287
2244 0.10399332
2242 0.0040299427
2240 -0.12527041
2238 -0.23853059
2236 -0.34924185
2234 -0.31833231
2232 -0.27451965
2230 -0.17022984
2228 -0.075258091
2226 -0.077447198
2224 -0.087548673
2222 -0.11111436
2220 -0.11222031
2218 -0.042605758
2216 0.018747514
2214 0.053325567
2212 0.045379721
2210 -0.029385004
2208 -0.11757993
2206 -0.21740578
2204 -0.3018181
2202 -0.37068766
2200 -0.40518612
2198 -0.41475558
2196 -0.33757931
2194 -0.21133102
2192 -0.012494409
2190 0.21675557
2188 0.36799353
2186 0.4932152
2184 0.43931282
2182 0.3445867
2180 0.18911171
2178 0.026415095
2176 -0.010301685
2174 -0.030495796
2172 0.0050400151
2170 0.036963794
2168 0.01792912
2166 5.8620935e-06
2164 0.0042863223
2162 0.015217853
2160 0.03748922
2158 0.027779901
2156 -0.044817299
2154 -0.13867916
2152 -0.25392887
2150 -0.33197248
2148 -0.36555746
2146 -0.34333429
2144 -0.27587643
2142 -0.1936705
2140 -0.10446947
2138 -0.061960362
2136 -0.045283742
2134 -0.088508904
2132 -0.15597659
2130 -0.22693415
2128 -0.29831758
2126 -0.32349619
2124 -0.33787701
2122 -0.27459201
2120 -0.19808497
2118 -0.10378126
2116 -0.020220989
2114 -0.036032006
2112 -0.079071559
2110 -0.17917025
2108 -0.27526283
2106 -0.33402234
2104 -0.36468655
2102 -0.34543571
2100 -0.30305719
2098 -0.2341959
2096 -0.18342428
2094 -0.16136271
2092 -0.18212762
2090 -0.24288471
2088 -0.28148383
2086 -0.29721999
2084 -0.2474914
2082 -0.15670015
2080 -0.061777532
2078 0.032571457
2076 0.080212861
2074 0.10851386
2072 0.1067848
2070 0.096062548
2068 0.10662564
2066 0.12233622
2064 0.11675731
2062 0.099133313
2060 -0.0024200343
2058 -0.11507913
2056 -0.19785343
2054 -0.25620371
2052 -0.24734217
2050 -0.22574961
2048 -0.20468177
2046 -0.17313001
2044 -0.120586
2042 -0.06427069
2040 -0.0091060502
2038 -0.0010004117
2036 -0.050144318
2034 -0.12414113
2032 -0.21186766
2030 -0.25230712
2028 -0.25315073
2026 -0.199505
2024 -0.11481198
2022 -0.01530369
2020 0.089702114
2018 0.14897645
2016 0.188354
2014 0.12503463
2012 0.027219396
2010 -0.12960275
2008 -0.30001011
2006 -0.44161415
2004 -0.56898797
2002 -0.64628559
2000 -0.70277405
1998 -0.72179723
1996 -0.72076571
1994 -0.68613511
1992 -0.63447177
1990 -0.56561321
1988 -0.51168519
1986 -0.49425316
1984 -0.51601952
1982 -0.58021283
1980 -0.64521837
1978 -0.69891578
1976 -0.67514145
1974 -0.58117431
1972 -0.34215444
1970 -0.0024590939
1968 0.34591854
1966 0.68796122
1964 0.77362454
1962 0.72371936
1960 0.49904358
1958 0.20520136
1956 -0.086696707
1954 -0.37478638
1952 -0.61937982
1950 -0.83441824
1948 -0.8889724
1946 -0.87615001
1944 -0.77786136
1942 -0.67803884
1940 -0.67769158
1938 -0.71834254
1936 -0.78849661
1934 -0.85613608
1932 -0.89762455
1930 -0.93511826
1928 -0.97498691
1926 -0.93740541
1924 -0.7957707
1922 -0.52233374
1920 -0.13775457
1918 0.17811975
1916 0.4043707
1914 0.49630812
1912 0.50129914
1910 0.47007462
1908 0.42722118
1906 0.27051494
1904 0.051846962
1902 -0.18431261
1900 -0.42622703
1898 -0.46575603
1896 -0.41908857
1894 -0.2847012
1892 -0.13186908
1890 -0.089423425
1888 -0.11947866
1886 -0.28446144
1884 -0.50832999
1882 -0.75960636
1880 -0.97981465
1878 -1.1021361
1876 -1.1027399
1874 -0.93568802
1872 -0.65107059
1870 -0.26963222
1868 0.0067588463
1866 0.10762255
1864 -0.034811027
1862 -0.38667554
1860 -0.74689627
1858 -1.0634904
1856 -1.2522086
1854 -1.3469111
1852 -1.3176688
1850 -1.2148083
1848 -0.99670601
1846 -0.71460003
1844 -0.56362873
1842 -0.4898479
1840 -0.68812096
1838 -1.0077645
1836 -1.2550186
1834 -1.4170899
1832 -1.2922822
1830 -0.99092501
1828 -0.52127028
1826 -0.063772753
1824 0.15257671
1822 0.12591599
1820 -0.20487757
1818 -0.64018738
1816 -1.044432
1814 -1.3418138
1812 -1.4983554
1810 -1.5762466
1808 -1.6173731
1806 -1.595075
1804 -1.5184449
1802 -1.3735089
1800 -1.1765584
1798 -0.97649032
1796 -0.78226429
1794 -0.59978276
1792 -0.42850721
1790 -0.32469752
1788 -0.26718584
1786 -0.23699428
1784 -0.21716464
1782 -0.11817656
1780 0.042453416
1778 0.33214408
1776 0.70928717
1774 1.1674806
1772 1.5778303
1770 1.6928715
1768 1.5532291
1766 1.1327759
1764 0.66174239
1762 0.35420445
1760 0.10095178
1758 -0.17203674
1756 -0.32169744
1754 -0.2858305
1752 0.074220926
1750 0.75519514
1748 1.5043745
1746 2.2182178
1744 2.4871833
1742 2.3346355
1740 2.0592117
1738 1.7559999
1736 1.81296
1734 2.1546307
1732 2.3074605
1730 2.2839887
1728 1.7086412
1726 0.79452932
1724 0.12546974
1722 -0.25645182
1720 0.1476123
1718 1.2431769
1716 2.8571601
1714 4.5358415
1712 5.6270151
1710 6.3361592
1708 6.904532
1706 7.7667499
1704 9.3326731
1702 11.791784
1700 15.183503
1698 19.05665
1696 23.056286
1694 26.42775
1692 28.959774
1690 31.217939
1688 33.464989
1686 36.565845
1684 40.532978
1682 45.039227
1680 49.887642
1678 53.925064
1676 57.240871
1674 60.75581
1672 64.52459
1670 69.010979
1668 73.997742
1666 78.711647
1664 83.130547
1662 87.133934
1660 90.779839
1658 94.178558
1656 97.366119
1654 100.41438
1652 103.049
1650 104.95402
1648 105.3592
1646 103.64285
1644 100.59228
1642 96.992622
1640 93.299957
1638 89.807281
1636 85.968483
1634 81.582031
1632 76.929123
1630 72.1418
1628 67.601372
1626 63.369781
1624 59.076962
1622 54.675026
1620 50.307152
1618 45.988209
1616 41.827972
1614 37.859035
1612 34.309917
1610 31.217018
1608 28.669828
1606 26.630959
1604 24.892303
1602 23.448624
1600 22.233959
1598 21.261236
1596 20.516499
1594 19.975679
1592 19.575428
1590 19.294516
1588 19.093937
1586 19.0317
1584 19.140474
1582 19.48188
1580 20.077671
1578 21.028646
1576 22.355572
1574 23.953512
1572 25.768665
1570 27.40011
1568 28.757559
1566 29.923571
1564 30.920712
1562 32.372498
1560 34.421509
1558 37.561859
1556 41.735573
1554 45.458061
1552 48.513783
1550 50.490303
1548 51.568546
1546 52.752892
1544 54.033161
1542 55.348389
1540 56.192841
1538 55.777424
1536 54.280659
1534 52.129143
1532 49.895676
1530 48.220661
1528 46.972095
1526 46.02285
1524 45.07502
1522 43.935112
1520 42.351479
1518 40.163815
1516 37.793613
1514 35.363293
1512 33.165241
1510 31.313046
1508 29.085983
1506 26.317871
1504 23.166018
1502 19.614553
1500 16.594608
1498 14.2157
1496 12.143857
1494 10.418161
1492 8.8355789
1490 7.384161
1488 5.9244542
1486 4.436183
1484 2.8872581
1482 1.4437208
1480 0.39066947
1478 -0.13910294
1476 -0.006419003
1474 0.73023736
1472 1.8928874
1470 3.0242059
1468 3.7679849
1466 4.2400379
1464 4.4896264
1462 4.8735929
1460 5.5908751
1458 6.4872327
1456 7.56424
1454 8.2473946
1452 8.2678118
1450 7.9493904
1448 7.1726122
1446 6.4081001
1444 5.6797867
1442 5.0707493
1440 4.6479654
1438 4.4192538
1436 4.4074154
1434 4.4097562
1432 4.3788662
1430 4.1835151
1428 3.870038
1426 3.6243401
1424 3.5213542
1422 3.6705692
1420 4.0059004
1418 4.4096489
1416 4.7412658
1414 4.8312101
1412 4.7950315
1410 4.7179899
1408 4.710247
1406 4.8718886
1404 5.1179805
1402 5.4429832
1400 5.7723999
1398 6.0838218
1396 6.327857
1394 6.4420085
1392 6.4535594
1390 6.28228
1388 6.0584741
1386 5.7483149
1384 5.3906245
1382 4.975297
1380 4.5669899
1378 4.190856
1376 3.8964942
1374 3.690429
1372 3.496558
1370 3.2970152
1368 3.053
1366 2.767827
1364 2.468776
1362 2.1366844
1360 1.7333331
1358 1.2899942
1356 0.8279624
1354 0.41920942
1352 0.16272373
1350 0.023883451
1348 0.044502698
1346 0.13477543
1344 0.3692016
1342 0.66117108
1340 1.0435345
1338 1.3403442
1336 1.4432458
1334 1.4085965
1332 1.1253897
1330 0.88277686
1328 0.72439808
1326 0.69841653
1324 0.87720108
1322 1.1692518
1320 1.6056166
1318 2.0892079
1316 2.58655
1314 2.9664671
1312 3.198015
1310 3.2632143
1308 3.2068703
1306 3.1304579
1304 3.0567012
1302 3.0250781
1300 3.011044
1298 2.991472
1296 2.9653857
1294 2.9218524
1292 2.8787131
1290 2.8449788
1288 2.8236001
1286 2.829735
1284 2.8555059
1282 2.9265819
1280 3.0241046
1278 3.1812396
1276 3.3648944
1274 3.6004441
1272 3.8406625
1270 4.0895247
1268 4.3347058
1266 4.5805001
1264 4.8578696
1262 5.1726227
1260 5.5061121
1258 5.8481998
1256 6.1566458
1254 6.44065
1252 6.7301822
1250 7.0430388
1248 7.4268503
1246 7.8446498
1244 8.2565384
1242 8.6262703
1240 8.8604059
1238 9.0242682
1236 9.0802183
1234 9.107255
1232 9.1056957
1230 9.0823507
1228 8.9972544
1226 8.8738165
1224 8.6433516
1222 8.3697414
1220 7.9896812
1218 7.560626
1216 7.0320888
1214 6.4692163
1212 5.8552527
1210 5.2564144
1208 4.6845746
1206 4.1494384
1204 3.658366
1202 3.190027
1200 2.7434447
1198 2.3035996
1196 1.8672072
1194 1.4234549
1192 0.99633718
1190 0.65628272
1188 0.3914535
1186 0.27930185
1184 0.22033155
1182 0.17521076
1180 0.13892692
1178 0.12676714
1176 0.15344
1174 0.32436669
1172 0.48697507
1170 0.58122683
1168 0.61577785
1166 0.47202736
1164 0.34734035
1162 0.27534148
1160 0.25778863
1158 0.34322816
1156 0.41253942
1154 0.44950241
1152 0.44089204
1150 0.36937004
1148 0.26672339
1146 0.13564214
1144 0.024588916
1142 -0.05185926
1140 -0.031030096
1138 0.059175119
1136 0.22942086
1134 0.45049199
1132 0.69558817
1130 0.94701338
1128 1.183928
1126 1.41451
1124 1.6335888
1122 1.8542106
1120 2.0940039
1118 2.3255684
1116 2.502547
1114 2.6442287
1112 2.6443183
1110 2.6594076
1108 2.7312255
1106 2.8977249
1104 3.29474
1102 3.7094817
1100 4.1468954
1098 4.4974704
1096 4.7182856
1094 4.9512463
1092 5.2140779
1090 5.5884914
1088 6.0692406
1086 6.54601
1084 6.9973316
1082 7.2887659
1080 7.4626312
1078 7.469964
1076 7.4001856
1074 7.3113832
1072 7.2348504
1070 7.2918506
1068 7.3817286
1066 7.497026
1064 7.5973921
1062 7.5631385
1060 7.5214357
1058 7.4750333
1056 7.4464426
1054 7.495573
1052 7.5538054
1050 7.6387458
1048 7.7005057
1046 7.6988964
1044 7.6111412
1042 7.3632517
1040 7.0974555
1038 6.8171735
1036 6.6521802
1034 6.6149406
1032 6.5566783
1030 6.4604788
1028 6.1621065
1026 5.7210298
1024 5.2305131
1022 4.7291269
1020 4.3857989
1018 4.1111522
1016 3.9260828
1014 3.7527401
1012 3.4431002
1010 3.0942066
1008 2.5607321
1006 2.0178335
1004 1.5454301
1002 1.1053976
1000 0.88370216
998 0.68528783
996 0.58910573
994 0.49627072
992 0.41290897
990 0.32158172
988 0.21101083
986 0.084561214
984 -0.069535434
982 -0.23414746
980 -0.41438657
978 -0.62730002
976 -0.87355542
974 -1.1121758
972 -1.333544
970 -1.3532716
968 -1.2384608
966 -0.89240956
964 -0.44344124
962 -0.022259802
960 0.38246208
958 0.63371307
956 0.84631383
954 0.93030912
952 0.98869038
950 0.8056699
948 0.60456866
946 0.28543654
944 0.0056914371
942 0.0011420473
940 0.044424236
938 0.35118949
936 0.64533508
934 0.90140247
932 1.1064891
930 1.2027622
928 1.2828457
926 1.3369057
924 1.37404
922 1.3914261
920 1.4308252
918 1.4931843
916 1.7226644
914 2.0721765
912 2.6151874
910 3.2604918
908 3.888746
906 4.5098929
904 4.8999896
902 5.2295394
900 5.4018211
898 5.5490351
896 5.7832999
