##TITLE=Methyl Ethyl Ketone
##JCAMP-DX=4.24
##DATA TYPE=INFRARED SPECTRUM
##XUNITS=cm-1
##YUNITS=Absorbance
##FIRSTX=900
##LASTX=2300
##XYDATA=(X++(Y..Y))
2296 -0.029848
2294 -0.030469112
2292 -0.031090222
2290 -0.031711332
2288 -0.032332446
2286 -0.032953557
2284 -0.033573676
2282 -0.034194779
2280 -0.034815893
2278 -0.035437003
2276 -0.036058117
2274 -0.036679223
2272 -0.037299354
2270 -0.037920449
2268 -0.038541563
2266 -0.039162669
2264 -0.039783783
2262 -0.040404893
2260 -0.041026007
2258 -0.041646142
2256 -0.042267229
2254 -0.04288834
2252 -0.04350945
2250 -0.044130564
2248 -0.044751674
2246 -0.045371823
2244 -0.0016860629
2242 0.050183684
2240 0.090365633
2238 0.13229652
2236 0.17460372
2234 0.22527611
2232 0.27657118
2230 0.32828751
2228 0.37715971
2226 0.4034605
2224 0.4209311
2222 0.40340701
2220 0.38071367
2218 0.34808195
2216 0.32313943
2214 0.31619498
2212 0.31827521
2210 0.33329698
2208 0.3392556
2206 0.33289963
2204 0.32241511
2202 0.3086873
2200 0.32740313
2198 0.3705233
2196 0.43134284
2194 0.50146806
2192 0.53911328
2190 0.56226689
2188 0.55843133
2186 0.54612041
2184 0.54221201
2182 0.54035252
2180 0.54328245
2178 0.54676503
2176 0.53898686
2174 0.53070807
2172 0.52869576
2170 0.53029901
2168 0.5492956
2166 0.57370526
2164 0.61178571
2162 0.65329105
2160 0.70004928
2158 0.74193311
2156 0.77349597
2154 0.79161006
2152 0.79179382
2150 0.78481257
2148 0.77188456
2146 0.77172679
2144 0.78341508
2142 0.80476493
2140 0.8320123
2138 0.84889734
2136 0.85979939
2134 0.87144113
2132 0.8835544
2130 0.91110551
2128 0.94354558
2126 0.97791493
2124 1.0127147
2122 1.0334634
2120 1.0506629
2118 1.0428494
2116 1.0276314
2114 0.9834137
2112 0.93412441
2110 0.88066423
2108 0.83675504
2106 0.82357526
2104 0.83045912
2102 0.87171888
2100 0.92078018
2098 0.97446918
2096 1.0109957
2094 1.024186
2092 1.014836
2090 0.98568302
2088 0.95603168
2086 0.92809248
2084 0.91382354
2082 0.90835184
2080 0.90122026
2078 0.89273697
2076 0.86864132
2074 0.83818948
2072 0.81418198
2070 0.79254591
2068 0.80352908
2066 0.82299578
2064 0.85641271
2062 0.8918165
2060 0.91659343
2058 0.93551773
2056 0.93365514
2054 0.92005742
2052 0.88000035
2050 0.83546877
2048 0.79393929
2046 0.76657963
2044 0.76619518
2042 0.77808797
2040 0.79969198
2038 0.82392418
2036 0.84794843
2034 0.87842768
2032 0.91539222
2030 0.9490689
2028 0.97993332
2026 0.99393022
2024 0.99791038
2022 1.0008129
2020 1.00421
2018 1.0061021
2016 1.0068799
2014 0.9995653
2012 0.98876202
2010 0.99962723
2008 1.0162646
2006 1.038015
2004 1.057204
2002 1.051046
2000 1.0382274
1998 1.0275499
1996 1.02265
1994 1.0357034
1992 1.0525737
1990 1.0647177
1988 1.0698301
1986 1.0604786
1984 1.047264
1982 1.0335176
1980 1.0218054
1978 1.0143538
1976 1.0090429
1974 1.005821
1972 1.0234921
1970 1.0575378
1968 1.1099988
1966 1.1721613
1964 1.2039828
1962 1.2180326
1960 1.218596
1958 1.2139554
1956 1.2289028
1954 1.24997
1952 1.25246
1950 1.2459536
1948 1.226216
1946 1.2056749
1944 1.2006503
1942 1.2046345
1940 1.2107725
1938 1.215526
1936 1.2116971
1934 1.2002873
1932 1.183358
1930 1.1621298
1928 1.1409674
1926 1.1355
1924 1.1534165
1922 1.1940511
1920 1.2501663
1918 1.2882459
1916 1.3023014
1914 1.2972286
1912 1.2819451
1910 1.2649596
1908 1.2494572
1906 1.2104551
1904 1.157688
1902 1.11725
1900 1.0820131
1898 1.1054239
1896 1.1519142
1894 1.2077576
1892 1.2596889
1890 1.254559
1888 1.2185698
1886 1.1368514
1884 1.0464734
1882 0.98010778
1880 0.93765604
1878 0.93405551
1876 0.95007896
1874 0.98490614
1872 1.0320177
1870 1.0924997
1868 1.132326
1866 1.132093
1864 1.0783172
1862 0.97230643
1860 0.8726266
1858 0.79403061
1856 0.74405086
1854 0.71619093
1852 0.6782909
1850 0.63432014
1848 0.59256679
1846 0.55671108
1844 0.5319705
1842 0.51566756
1840 0.49139804
1838 0.46478578
1836 0.47585759
1834 0.5108301
1832 0.60308707
1830 0.71567881
1828 0.80214179
1826 0.84735793
1824 0.79419726
1822 0.68474841
1820 0.54302883
1818 0.40636286
1816 0.30940714
1814 0.25088879
1812 0.23114564
1810 0.23841223
1808 0.26047817
1806 0.29591051
1804 0.33974457
1802 0.36572835
1800 0.37703472
1798 0.36396024
1796 0.33511785
1794 0.32748675
1792 0.33202961
1790 0.33358386
1788 0.32626736
1786 0.29625094
1784 0.2514483
1782 0.22273326
1780 0.20376557
1778 0.2068983
1776 0.226566
1774 0.26820859
1772 0.31703544
1770 0.33171794
1768 0.31256184
1766 0.23961422
1764 0.1454298
1762 0.070269749
1760 0.017297102
1758 -0.065598205
1756 -0.14622286
1754 -0.18654723
1752 -0.15889114
1750 -0.059978001
1748 0.039852127
1746 0.11341885
1744 0.095166236
1742 -0.013289455
1740 -0.11944441
1738 -0.2046659
1736 -0.186914
1734 -0.086150706
1732 -0.0088003073
1730 0.039551288
1728 -0.019802481
1726 -0.14949623
1724 -0.20687583
1722 -0.18654799
1720 -0.019017763
1718 0.23773003
1716 0.64266014
1714 1.1313981
1712 1.5260389
1710 1.8595947
1708 2.188514
1706 2.6725013
1704 3.473001
1702 4.8356671
1700 6.8752813
1698 9.7645864
1696 13.441856
1694 17.17375
1692 20.628223
1690 23.720341
1688 26.517229
1686 29.867907
1684 33.851906
1682 38.592567
1680 43.9132
1678 48.539719
1676 52.514027
1674 56.398056
1672 60.301201
1670 64.874176
1668 69.932816
1666 74.843948
1664 79.528687
1662 83.714424
1660 87.40802
1658 90.598808
1656 93.296112
1654 95.530945
1652 97.337097
1650 98.780525
1648 99.519455
1646 99.260109
1644 98.147629
1642 96.416611
1640 94.163216
1638 91.536377
1636 88.302139
1634 84.437073
1632 80.408104
1630 76.392845
1628 72.4189
1626 68.496086
1624 64.222198
1622 59.585274
1620 54.991756
1618 50.487988
1616 46.34837
1614 42.583172
1612 39.24234
1610 36.326973
1608 33.781662
1606 31.59025
1604 29.636311
1602 27.94663
1600 26.531979
1598 25.410553
1596 24.567501
1594 23.974232
1592 23.554434
1590 23.274002
1588 23.077902
1586 22.976315
1584 22.971691
1582 23.067421
1580 23.261349
1578 23.600676
1576 24.096743
1574 24.789095
1572 25.672262
1570 26.64576
1568 27.680759
1566 28.702879
1564 29.709482
1562 30.908659
1560 32.393681
1558 34.71743
1556 37.934341
1554 41.399422
1552 44.912872
1550 47.662064
1548 49.694195
1546 51.540176
1544 53.238987
1542 54.920509
1540 56.381378
1538 57.270374
1536 57.448772
1534 56.857891
1532 55.762127
1530 54.538155
1528 53.225605
1526 51.860699
1524 50.352295
1522 48.631531
1520 46.729828
1518 44.625679
1516 42.580128
1514 40.688023
1512 38.813839
1510 36.95689
1508 34.560421
1506 31.461235
1504 28.268776
1502 25.019245
1500 22.257208
1498 20.03812
1496 17.865999
1494 15.735642
1492 13.561468
1490 11.341722
1488 9.0834436
1486 6.8463979
1484 4.7594376
1482 2.933295
1480 1.5194337
1478 0.55460119
1476 0.096903197
1474 0.27084181
1472 0.98845178
1470 1.9146161
1468 2.8544886
1466 3.6622815
1464 4.2514157
1462 4.7959661
1460 5.3723359
1458 6.0087633
1456 6.7242804
1454 7.2910151
1452 7.5907707
1450 7.6805367
1448 7.4705906
1446 7.2286286
1444 6.9500389
1442 6.6935101
1440 6.4615574
1438 6.1962738
1436 5.8724227
1434 5.4203653
1432 4.8438692
1430 4.237299
1428 3.6406479
1426 3.1697936
1424 2.837616
1422 2.6428373
1420 2.5774744
1418 2.6061389
1416 2.7012515
1414 2.8317208
1412 2.9776936
1410 3.1496553
1408 3.3583052
1406 3.631283
1404 3.964488
1402 4.3736773
1400 4.8194556
1398 5.3060303
1396 5.7719998
1394 6.1846948
1392 6.5233264
1390 6.7150092
1388 6.8070335
1386 6.7338648
1384 6.5519423
1382 6.22052
1380 5.8281112
1378 5.3681183
1376 4.8918886
1374 4.4150724
1372 3.9580719
1370 3.5343809
1368 3.1655469
1366 2.8108721
1364 2.4098618
1362 1.9505188
1360 1.4004972
1358 0.85515052
1356 0.42333716
1354 0.11728197
1352 0.023651918
1350 0.035771959
1348 0.14331569
1346 0.25822145
1344 0.40134162
1342 0.56631541
1340 0.77531624
1338 0.98724085
1336 1.1938629
1334 1.3706623
1332 1.4746329
1330 1.576187
1328 1.678376
1326 1.8165307
1324 2.0193515
1322 2.2601602
1320 2.5575006
1318 2.8798177
1316 3.2251401
1314 3.5573487
1312 3.8556333
1310 4.0934405
1308 4.2675047
1306 4.3892355
1304 4.4749627
1302 4.5410161
1300 4.5940289
1298 4.6275568
1296 4.6506858
1294 4.6561956
1292 4.661396
1290 4.6733837
1288 4.6908598
1286 4.7184901
1284 4.7465453
1282 4.7714305
1280 4.7981286
1278 4.8280587
1276 4.8619871
1274 4.9073362
1272 4.9581246
1270 5.0228481
1268 5.1013632
1266 5.1994958
1264 5.3124304
1262 5.4397287
1260 5.5697498
1258 5.7024226
1256 5.8364143
1254 5.9745712
1252 6.1250277
1250 6.2855811
1248 6.4557266
1246 6.6257
1244 6.7751708
1242 6.9020972
1240 6.9769168
1238 7.0180759
1236 6.9965644
1234 6.9344306
1232 6.7793479
1230 6.5718884
1228 6.225101
1226 5.8364501
1224 5.3385434
1222 4.8221602
1220 4.2623148
1218 3.7017181
1216 3.1434886
1214 2.6131403
1212 2.1377826
1210 1.7188644
1208 1.3839097
1206 1.1002198
1204 0.87518841
1202 0.66887236
1200 0.47808194
1198 0.28242344
1196 0.086412571
1194 -0.097501621
1192 -0.2614029
1190 -0.36997721
1188 -0.43750769
1186 -0.43600407
1184 -0.402448
1182 -0.3300249
1180 -0.2375492
1178 -0.097985782
1176 0.074876398
1174 0.35753912
1172 0.6602087
1170 1.0119137
1168 1.3258795
1166 1.5194472
1164 1.6574571
1162 1.6597329
1160 1.6412629
1158 1.5825597
1156 1.5187585
1154 1.4435799
1152 1.343992
1150 1.207247
1148 1.0313264
1146 0.81373888
1144 0.58837491
1142 0.3643797
1140 0.18449549
1138 0.045077953
1136 -0.033314943
1134 -0.063796557
1132 0.0064452365
1130 0.13225488
1128 0.34832561
1126 0.58190548
1124 0.77896762
1122 0.94572753
1120 0.98626441
1118 1.0096534
1116 1.0039428
1114 1.0199951
1112 1.129636
1110 1.255571
1108 1.4306462
1106 1.58837
1104 1.7007508
1102 1.7853055
1100 1.8154098
1098 1.836511
1096 1.8450714
1094 1.8601104
1092 1.884024
1090 1.9169507
1088 1.9597628
1086 2.0123971
1084 2.0695148
1082 2.1040831
1080 2.1190491
1078 2.0866451
1076 2.0354202
1074 1.9997714
1072 1.9749624
1070 1.9934676
1068 2.0162168
1066 2.0018563
1064 1.971016
1062 1.8548884
1060 1.732182
1058 1.5939835
1056 1.47154
1054 1.4186763
1052 1.3784111
1050 1.3773559
1048 1.3631709
1046 1.3162501
1044 1.2523937
1042 1.1566384
1040 1.0578461
1038 0.95466352
1036 0.85403001
1034 0.75706393
1032 0.66614372
1030 0.58063245
1028 0.49176055
1026 0.39899856
1024 0.28777069
1022 0.1685693
1020 0.068279043
1018 -0.018498586
1016 -0.035726685
1014 -0.033349156
1012 -0.020854544
1010 -0.013894744
1008 -0.090193324
1006 -0.175412
1004 -0.28445634
1002 -0.38578957
1000 -0.43373966
998 -0.48072267
996 -0.52356142
994 -0.56712031
992 -0.61249524
990 -0.64411557
988 -0.64445359
986 -0.64166874
984 -0.6334635
982 -0.63358039
980 -0.64389682
978 -0.64723504
976 -0.64336514
974 -0.63595229
972 -0.62718558
970 -0.64376086
968 -0.67553806
966 -0.711317
964 -0.74634564
962 -0.73253965
960 -0.70054674
958 -0.61057091
956 -0.50704563
954 -0.37210765
952 -0.23510921
950 -0.1378701
948 -0.046461307
946 -0.015312857
944 0.00089835376
942 0.025663678
940 0.010980204
938 0.048192691
936 0.095857546
934 0.17485061
932 0.27190918
930 0.40768802
928 0.55525005
926 0.72078824
924 0.84360641
922 0.91352862
920 0.91393757
918 0.84929168
916 0.75761324
914 0.64634669
912 0.50768614
910 0.35536602
908 0.20820493
906 0.065482229
904 0.084357105
902 0.14702123
900 0.31045502
898 0.49022079
896 0.51174998
