##TITLE=Methyl Ethyl Ketone
##JCAMP-DX=4.24
##DATA TYPE=INFRARED SPECTRUM
##XUNITS=cm-1
##YUNITS=Absorbance
##FIRSTX=900
##LASTX=2300
##XYDATA=(X++(Y..Y))
2296 0.10065
2294 0.102747
2292 0.10483404
2290 0.106931
2288 0.109028
2286 0.111125
2284 0.11321209
2282 0.115309
2280 0.117406
2278 0.11949313
2276 0.12159
2274 0.123687
2272 0.12577417
2270 0.12787101
2268 0.12996799
2266 0.13205521
2264 0.13415201
2262 0.13624899
2260 0.138346
2258 0.14043327
2256 0.14252999
2254 0.144627
2252 0.14671431
2250 0.148811
2248 0.15090799
2246 0.15299536
2244 0.065377787
2242 0.0023912357
2240 -0.062349122
2238 -0.086712323
2236 -0.1052137
2234 -0.11425737
2232 -0.12414469
2230 -0.16821226
2228 -0.22006311
2226 -0.32150447
2224 -0.4327603
2222 -0.57780629
2220 -0.71355408
2218 -0.81566846
2216 -0.8877126
2214 -0.89813232
2212 -0.88920522
2210 -0.85457742
2208 -0.79744279
2206 -0.71419621
2204 -0.60575306
2202 -0.47455195
2200 -0.37423822
2198 -0.29809478
2196 -0.26648927
2194 -0.25969449
2192 -0.29205325
2190 -0.34090352
2188 -0.45190755
2186 -0.58274734
2184 -0.65492719
2182 -0.71330154
2180 -0.68689972
2178 -0.64910972
2176 -0.70924085
2174 -0.78222936
2172 -0.89866674
2170 -1.0092233
2168 -1.062348
2166 -1.1052536
2164 -1.13139
2162 -1.1354182
2160 -1.0870262
2158 -1.0077477
2156 -0.87974298
2154 -0.78872055
2152 -0.75858003
2150 -0.79348129
2148 -0.89453804
2146 -0.98146105
2144 -1.0497822
2142 -1.034305
2140 -0.96192485
2138 -0.8644591
2136 -0.75645
2134 -0.75996673
2132 -0.81065243
2130 -0.93268174
2128 -1.0760676
2126 -1.1533307
2124 -1.2150179
2122 -1.2387007
2120 -1.2554258
2118 -1.249557
2116 -1.23132
2114 -1.1441491
2112 -1.047596
2110 -0.95346659
2108 -0.88797367
2106 -0.90806401
2104 -0.96438497
2102 -1.0731329
2100 -1.156294
2098 -1.1836846
2096 -1.1348
2094 -0.9972952
2092 -0.87521559
2090 -0.78254539
2088 -0.8114599
2086 -0.93667501
2084 -1.0986145
2082 -1.2757775
2080 -1.3998652
2078 -1.4952588
2076 -1.5569686
2074 -1.6062727
2072 -1.580552
2070 -1.5312651
2068 -1.436272
2066 -1.3331543
2064 -1.3225405
2062 -1.3310459
2060 -1.3393177
2058 -1.333313
2056 -1.2489429
2054 -1.1703433
2052 -1.1707114
2050 -1.2331783
2048 -1.4185355
2046 -1.61095
2044 -1.771718
2042 -1.8682781
2040 -1.8740211
2038 -1.8431052
2036 -1.7854629
2034 -1.7121042
2032 -1.6286851
2030 -1.566835
2028 -1.5253743
2026 -1.5698379
2024 -1.6685725
2022 -1.7576034
2020 -1.8382679
2018 -1.8051128
2016 -1.72324
2014 -1.5981525
2012 -1.4580448
2010 -1.3621417
2008 -1.2807217
2006 -1.2587879
2004 -1.2564503
2002 -1.292856
2000 -1.33848
1998 -1.3909206
1996 -1.4396644
1994 -1.4779558
1992 -1.5300097
1990 -1.6098155
1988 -1.72035
1986 -1.8607279
1984 -1.9739674
1982 -2.0396867
1980 -2.0303974
1978 -1.9535382
1976 -1.8082143
1974 -1.615914
1972 -1.3595263
1970 -1.0635948
1968 -0.82817066
1966 -0.63536358
1964 -0.65212762
1962 -0.77277774
1960 -0.9426176
1958 -1.126986
1956 -1.2310085
1954 -1.3037313
1952 -1.3634155
1950 -1.4108528
1948 -1.4187441
1946 -1.4146249
1944 -1.4058149
1942 -1.4197118
1940 -1.4841368
1938 -1.5580119
1936 -1.6075515
1934 -1.6303853
1932 -1.62683
1930 -1.6125044
1928 -1.6061885
1926 -1.5189536
1924 -1.3310566
1922 -1.0037951
1920 -0.54755068
1918 -0.18403524
1916 0.080246635
1914 0.1218708
1912 0.0096974187
1910 -0.17135619
1908 -0.38163882
1906 -0.60616887
1904 -0.83383799
1902 -0.99368703
1900 -1.1180025
1898 -1.0473479
1896 -0.89230716
1894 -0.65724444
1892 -0.41483235
1890 -0.31469798
1888 -0.31733495
1886 -0.5066911
1884 -0.77595741
1882 -1.0722759
1880 -1.3357029
1878 -1.5098758
1876 -1.5733401
1874 -1.5109156
1872 -1.3100971
1870 -0.9762255
1868 -0.67838848
1866 -0.45165065
1864 -0.45925823
1862 -0.66951066
1860 -0.94285089
1858 -1.2349999
1856 -1.4298229
1854 -1.5568036
1852 -1.5225414
1850 -1.39877
1848 -1.134652
1846 -0.80805433
1844 -0.6527459
1842 -0.60742933
1840 -0.8435207
1838 -1.1992915
1836 -1.5177085
1834 -1.765739
1832 -1.8035995
1830 -1.7105126
1828 -1.4640986
1826 -1.2281036
1824 -1.1477474
1822 -1.240145
1820 -1.56665
1818 -1.9404172
1816 -2.2647085
1814 -2.435329
1812 -2.4225457
1810 -2.2947834
1808 -2.094892
1806 -1.85558
1804 -1.5950072
1802 -1.2935908
1800 -0.97062349
1798 -0.65742302
1796 -0.35933071
1794 -0.14566319
1792 0.023855761
1790 0.054541893
1788 0.0175767
1786 -0.085393101
1784 -0.21038908
1782 -0.29176685
1780 -0.30986273
1778 -0.11974155
1776 0.21565257
1774 0.69301343
1772 1.1235566
1770 1.2421565
1768 1.108376
1766 0.76145667
1764 0.42779481
1762 0.27808455
1760 0.09543097
1758 -0.13010043
1756 -0.25617972
1754 -0.27365953
1752 0.019878343
1750 0.63171029
1748 1.3446167
1746 2.0718999
1744 2.3802702
1742 2.3131509
1740 2.1293581
1738 1.9040302
1736 1.9787999
1734 2.2708285
1732 2.3224134
1730 2.1775837
1728 1.5283246
1726 0.6050989
1724 -0.042829961
1722 -0.3549071
1720 0.11563325
1718 1.2269682
1716 2.8742929
1714 4.5521836
1712 5.6040988
1710 6.2715459
1708 6.7670078
1706 7.5688429
1704 9.0637674
1702 11.446878
1700 14.776323
1698 18.46225
1696 22.186857
1694 25.262199
1692 27.50128
1690 29.608744
1688 31.803137
1686 34.902721
1684 38.892731
1682 43.322258
1680 48.03384
1678 51.985016
1676 55.276756
1674 58.744133
1672 62.41074
1670 66.656456
1668 71.291672
1666 75.719353
1664 79.964127
1662 83.982895
1660 87.816353
1658 91.492104
1656 95.028229
1654 98.425423
1652 101.42546
1650 103.75637
1648 104.57331
1646 103.32214
1644 100.70073
1642 97.383446
1640 93.877945
1638 90.458107
1636 86.656197
1634 82.33651
1632 77.812752
1630 73.236626
1628 68.977165
1626 65.053169
1624 61.038681
1622 56.872478
1620 52.631458
1618 48.340881
1616 44.197285
1614 40.243649
1612 36.694313
1610 33.584778
1608 30.938862
1606 28.725685
1604 26.784
1602 25.117691
1600 23.693886
1598 22.539001
1596 21.646
1594 20.991316
1592 20.516582
1590 20.15597
1588 19.835209
1586 19.620422
1584 19.539274
1582 19.73419
1580 20.252518
1578 21.181236
1576 22.535744
1574 24.101442
1572 25.824276
1570 27.34886
1568 28.60804
1566 29.751366
1564 30.80102
1562 32.302437
1560 34.372993
1558 37.40139
1556 41.241516
1554 44.423931
1552 46.829269
1550 48.334293
1548 49.20118
1546 50.374855
1544 51.874786
1542 53.65517
1540 55.124123
1538 55.518822
1536 54.785801
1534 53.035557
1532 50.965668
1530 49.198616
1528 47.755253
1526 46.6395
1524 45.604691
1522 44.533566
1520 43.013527
1518 40.904461
1516 38.577057
1514 36.114914
1512 33.91864
1510 32.037872
1508 29.778864
1506 26.974987
1504 23.91383
1502 20.663038
1500 17.975924
1498 15.95908
1496 14.185857
1494 12.651451
1492 11.161457
1490 9.6514406
1488 7.9925885
1486 6.1673555
1484 4.20749
1482 2.3631294
1480 0.95956701
1478 0.13188145
1476 0.039264411
1474 0.57083291
1472 1.5352949
1470 2.395617
1468 2.8069789
1466 3.0226543
1464 3.099139
1462 3.4088621
1460 4.1534619
1458 5.0688
1456 6.1485801
1454 6.7668948
1452 6.6841097
1450 6.3095517
1448 5.5760078
1446 4.9180036
1444 4.373508
1442 3.9618809
1440 3.7191188
1438 3.6034479
1436 3.5727944
1434 3.4622242
1432 3.2090027
1430 2.7827563
1428 2.282234
1426 1.9007243
1424 1.7161652
1422 1.7959571
1420 2.0484302
1418 2.3807216
1416 2.6550114
1414 2.7332251
1412 2.7543266
1410 2.7543352
1408 2.8510602
1406 3.1323059
1404 3.5147557
1402 4.0413027
1400 4.583468
1398 5.1315732
1396 5.5821214
1394 5.8642821
1392 5.9897718
1390 5.9000802
1388 5.7356663
1386 5.4704847
1384 5.1712394
1382 4.8301926
1380 4.5029798
1378 4.1885343
1376 3.9067829
1374 3.622508
1372 3.3122718
1370 2.9855218
1368 2.664192
1366 2.37677
1364 2.1155901
1362 1.8364893
1360 1.4952058
1358 1.1159818
1356 0.72360343
1354 0.38939354
1352 0.16521046
1350 0.022585075
1348 -0.015174933
1346 -0.0031858236
1344 0.1402126
1342 0.35651225
1340 0.68950284
1338 0.97828126
1336 1.1730086
1334 1.2239503
1332 1.0829529
1330 0.9299714
1328 0.78447282
1326 0.73513693
1324 0.81152272
1322 1.0084773
1320 1.3352057
1318 1.7296184
1316 2.15611
1314 2.499598
1312 2.7440915
1310 2.834784
1308 2.816186
1306 2.7156386
1304 2.5822475
1302 2.471664
1300 2.386014
1298 2.3610106
1296 2.3625286
1294 2.4009097
1292 2.4558296
1290 2.5410688
1288 2.625808
1286 2.7027078
1284 2.7607319
1282 2.7795596
1280 2.7913611
1278 2.7944019
1276 2.8251429
1274 2.9053829
1272 3.032361
1270 3.2260935
1268 3.4286635
1266 3.6488807
1264 3.8742754
1262 4.1226234
1260 4.4108858
1258 4.7392612
1256 5.0785661
1254 5.4278927
1252 5.7815561
1250 6.1493449
1248 6.5547271
1246 6.9843001
1244 7.4433804
1242 7.9055524
1240 8.3487663
1238 8.7619867
1236 9.0917912
1234 9.3669796
1232 9.5110559
1230 9.587491
1228 9.4841337
1226 9.3179369
1224 8.9836245
1222 8.6164474
1220 8.1738968
1218 7.7207561
1216 7.2466202
1214 6.7591209
1212 6.2444878
1210 5.7038131
1208 5.1261697
1206 4.532362
1204 3.9296
1202 3.3581004
1200 2.8263125
1198 2.3494153
1196 1.9181215
1194 1.5190949
1192 1.148204
1190 0.8196404
1188 0.53382105
1186 0.34941056
1184 0.22702292
1182 0.22385791
1180 0.26861545
1178 0.39509562
1176 0.532552
1174 0.66669339
1172 0.7783156
1170 0.80613625
1168 0.81216383
1166 0.75519615
1164 0.68442142
1162 0.58003992
1160 0.4710736
1158 0.35513738
1156 0.25930202
1154 0.1962492
1152 0.14751525
1150 0.11391237
1148 0.068962321
1146 0.014742607
1144 -0.026797641
1142 -0.047862917
1140 -0.020228775
1138 0.042060435
1136 0.13577543
1134 0.28501949
1132 0.55767435
1130 0.90004885
1128 1.3585485
1126 1.8357435
1124 2.2413516
1122 2.6049359
1120 2.8145959
1118 3.0047472
1116 3.16764
1114 3.3347564
1112 3.5206268
1110 3.7008309
1108 3.8637586
1106 4.0275502
1104 4.1941328
1102 4.3592548
1100 4.5188351
1098 4.6548862
1096 4.7584
1094 4.8863029
1092 5.0583239
1090 5.3359571
1088 5.7246027
1086 6.1787
1084 6.6749163
1082 7.120995
1080 7.5210395
1078 7.8110037
1076 8.0333185
1074 8.1268501
1072 8.1632099
1070 8.0859728
1068 7.9817538
1066 7.8574905
1064 7.7425199
1062 7.714344
1060 7.7023435
1058 7.7671571
1056 7.8111057
1054 7.7593122
1052 7.6467586
1050 7.3410678
1048 7.028358
1046 6.7087893
1044 6.486834
1042 6.4520278
1040 6.4834042
1038 6.6032481
1036 6.6484799
1034 6.5976849
1032 6.4292316
1030 6.1513176
1028 5.8245349
1026 5.4641223
1024 5.1075702
1022 4.753161
1020 4.396553
1018 4.0361733
1016 3.6372657
1014 3.2270327
1012 2.8066516
1010 2.389972
1008 2.0381322
1006 1.6914257
1004 1.3432842
1002 0.98874831
1000 0.59211534
998 0.21502902
996 -0.074949294
994 -0.34308019
992 -0.5435735
990 -0.75893259
988 -1.0068134
986 -1.2415636
984 -1.4520389
982 -1.6084951
980 -1.693372
978 -1.7581654
976 -1.8007828
974 -1.8240458
972 -1.8231857
970 -1.6630844
968 -1.3982457
966 -0.95412749
964 -0.43523881
962 -0.031799823
960 0.32053703
958 0.36198473
956 0.33168799
954 0.16574642
952 -0.0099148881
950 -0.031722859
948 -0.042575996
946 0.012121323
944 0.048869971
942 -0.0028467774
940 -0.083214439
938 0.02902092
936 0.26008087
934 0.83792907
932 1.4193687
930 2.0059028
928 2.487268
926 2.7984293
924 3.0164881
922 3.1225271
920 3.3245039
918 3.619628
916 4.1448417
914 4.8321428
912 5.4720125
910 6.0826511
908 6.4864554
906 6.8058667
904 6.898675
902 6.9281845
900 6.7147746
898 6.461503
896 6.3938999
