##TITLE=Methyl Ethyl Ketone
##JCAMP-DX=4.24
##DATA TYPE=INFRARED SPECTRUM
##XUNITS=cm-1
##YUNITS=Absorbance
##FIRSTX=900
##LASTX=2300
##XYDATA=(X++(Y..Y))
2296 -0.013735
2294 -0.014020591
2292 -0.014306183
2290 -0.014591774
2288 -0.014877366
2286 -0.015163951
2284 -0.015449549
2282 -0.01573514
2280 -0.01602073
2278 -0.016306324
2276 -0.016591914
2274 -0.016877506
2272 -0.017164081
2270 -0.017449688
2268 -0.01773528
2266 -0.018020872
2264 -0.018306462
2262 -0.018592054
2260 -0.018877646
2258 -0.01916421
2256 -0.019449828
2254 -0.01973542
2252 -0.02002101
2250 -0.020306602
2248 -0.020592196
2246 -0.020877786
2244 -0.00077584002
2242 0.020175578
2240 0.0369258
2238 0.026992993
2236 0.013183814
2234 0.011209771
2232 0.010051625
2230 0.007876615
2228 0.0035624802
2226 -0.017261321
2224 -0.035823427
2222 -0.04007937
2220 -0.036863212
2218 -0.013154341
2216 0.015647516
2214 0.053039983
2212 0.087512523
2210 0.11637566
2208 0.12934759
2206 0.12291371
2204 0.10821886
2202 0.086743787
2200 0.076743707
2198 0.075640768
2196 0.077071212
2194 0.079633512
2192 0.063965738
2190 0.04028092
2188 0.020860881
2186 0.0029918752
2184 0.02277788
2182 0.051194273
2180 0.082988448
2178 0.11473291
2176 0.10726143
2174 0.095574796
2172 0.07716085
2170 0.061550729
2168 0.065765344
2166 0.070346646
2164 0.069297083
2162 0.063783489
2160 0.048254754
2158 0.03546188
2156 0.0297444
2154 0.022737546
2152 0.012801902
2150 0.0054105381
2148 0.001242338
2146 0.02009948
2144 0.059035342
2142 0.10762576
2140 0.16150714
2138 0.20803373
2136 0.25024715
2134 0.29407123
2132 0.33865255
2130 0.35564828
2128 0.3638036
2126 0.31307516
2124 0.24883801
2122 0.18882257
2120 0.13335429
2118 0.14824396
2116 0.177589
2114 0.2395225
2112 0.29968894
2110 0.33085817
2108 0.34710541
2106 0.33113608
2104 0.30856919
2102 0.28203359
2100 0.25999498
2098 0.24655402
2096 0.24087
2094 0.24380399
2092 0.25475541
2090 0.27273282
2088 0.30045131
2086 0.335179
2084 0.36348537
2082 0.38683555
2080 0.38058427
2078 0.35921413
2076 0.34635386
2074 0.33783126
2072 0.3682768
2070 0.4112339
2068 0.43296489
2066 0.44857973
2064 0.41780201
2062 0.37886679
2060 0.3461318
2058 0.3196201
2056 0.32058287
2054 0.33085302
2052 0.3559643
2050 0.38186279
2048 0.40328261
2046 0.41486502
2044 0.40956259
2042 0.3990812
2040 0.38481015
2038 0.37894395
2036 0.38299543
2034 0.3923305
2032 0.40520862
2030 0.41453159
2028 0.42119783
2026 0.43198887
2024 0.44614011
2022 0.47247711
2020 0.50516599
2018 0.52978206
2016 0.55021602
2014 0.54942656
2012 0.54091817
2010 0.53442895
2008 0.52937186
2006 0.54258591
2004 0.56004709
2002 0.57683933
2000 0.58667225
1998 0.57021064
1996 0.54225498
1994 0.50157124
1992 0.4691253
1990 0.45941329
1988 0.4726994
1986 0.51256317
1984 0.55693871
1982 0.59893215
1980 0.62148029
1978 0.62430435
1976 0.62095284
1974 0.61677754
1972 0.6347453
1970 0.67047596
1968 0.70392442
1966 0.73371005
1964 0.71975875
1962 0.68203855
1960 0.6339308
1958 0.58224773
1956 0.56597787
1954 0.56281251
1952 0.5824905
1950 0.60754746
1948 0.62863612
1946 0.64763498
1944 0.65983313
1942 0.675704
1940 0.70054072
1938 0.7304312
1936 0.76360685
1934 0.7898429
1932 0.80425757
1930 0.80299968
1928 0.78631276
1926 0.75770026
1924 0.72165805
1922 0.69198209
1920 0.6690138
1918 0.66077906
1916 0.66024429
1914 0.66653162
1912 0.67703331
1910 0.68260705
1908 0.68573302
1906 0.67662871
1904 0.66033399
1902 0.65395945
1900 0.65141654
1898 0.66438454
1896 0.68216139
1894 0.6918804
1892 0.69770151
1890 0.69258469
1888 0.6823675
1886 0.66154778
1884 0.63540679
1882 0.60358202
1880 0.56816494
1878 0.53238094
1876 0.486808
1874 0.43036184
1872 0.36356938
1870 0.29068017
1868 0.23405612
1866 0.19183378
1864 0.17199525
1862 0.1639346
1860 0.15921211
1858 0.15777637
1856 0.14912599
1854 0.1377513
1852 0.10431413
1850 0.059668288
1848 -0.0015552398
1846 -0.067665249
1844 -0.10812781
1842 -0.13136944
1840 -0.13223439
1838 -0.12659727
1836 -0.13308243
1834 -0.1483334
1832 -0.1584896
1830 -0.15839833
1828 -0.13631991
1826 -0.096995316
1824 -0.053129718
1822 -0.015308707
1820 0.006842488
1818 0.0087569123
1816 -0.0051422743
1814 -0.03406116
1812 -0.072375536
1810 -0.10384657
1808 -0.12527309
1806 -0.1277235
1804 -0.11430377
1802 -0.12412971
1800 -0.15562308
1798 -0.21642922
1796 -0.29578501
1794 -0.31425834
1792 -0.29172719
1790 -0.20442295
1788 -0.085080333
1786 -0.0052943993
1784 0.044620335
1782 0.055076662
1780 0.041333534
1778 0.027273159
1776 0.015307942
1774 0.014546067
1772 0.027205454
1770 0.043907508
1768 0.06167784
1766 0.06640967
1764 0.05940916
1762 0.052526165
1760 0.019299828
1758 -0.0503642
1756 -0.11995251
1754 -0.16879199
1752 -0.20559205
1750 -0.2315255
1748 -0.26695004
1746 -0.31964856
1744 -0.39391658
1742 -0.49313959
1740 -0.58226061
1738 -0.65554988
1736 -0.65391397
1734 -0.59064716
1732 -0.46379423
1730 -0.30142513
1728 -0.19496298
1726 -0.13700444
1724 -0.1074348
1722 -0.086308993
1720 -0.0091446079
1718 0.13521442
1716 0.46193984
1714 0.92798293
1712 1.4338931
1710 1.9434772
1708 2.4315939
1706 3.0276015
1704 3.8652325
1702 5.2143712
1700 7.2132759
1698 10.114916
1696 13.897285
1694 17.81529
1692 21.514757
1690 24.80201
1688 27.716669
1686 31.136429
1684 35.160606
1682 40.080505
1680 45.714001
1678 50.663902
1676 54.954529
1674 58.971943
1672 62.871864
1670 67.533524
1668 72.787437
1666 78.139297
1664 83.426437
1662 88.153542
1660 92.322861
1658 95.909134
1656 98.971489
1654 101.62567
1652 103.6526
1650 104.807
1648 104.64657
1646 102.8425
1644 100.15682
1642 97.294731
1640 94.204079
1638 90.907486
1636 86.862915
1634 81.929016
1632 76.81604
1630 71.78656
1628 67.148148
1626 62.924294
1624 58.679359
1622 54.350437
1620 50.144817
1618 46.079357
1616 42.32777
1614 38.90303
1612 35.889462
1610 33.28503
1608 31.025959
1606 29.100136
1604 27.406281
1602 25.974241
1600 24.821234
1598 23.949389
1596 23.317001
1594 22.903486
1592 22.647989
1590 22.540684
1588 22.549644
1586 22.65
1584 22.816338
1582 23.014471
1580 23.226463
1578 23.524628
1576 23.935143
1574 24.54949
1572 25.379602
1570 26.34413
1568 27.41836
1566 28.490679
1564 29.552248
1562 30.764914
1560 32.226566
1558 34.617142
1556 38.038502
1554 42.004139
1552 46.261559
1550 49.617901
1548 52.078922
1546 54.133823
1544 55.829845
1542 57.390839
1540 58.61726
1538 59.197498
1536 59.057686
1534 58.226574
1532 56.994598
1530 55.749191
1528 54.425617
1526 52.974499
1524 51.226456
1522 49.064171
1520 46.660526
1518 44.056091
1516 41.626286
1514 39.515827
1512 37.450241
1510 35.403561
1508 32.823483
1506 29.555086
1504 26.309996
1502 23.148771
1500 20.482941
1498 18.361099
1496 16.239285
1494 14.115342
1492 11.961943
1490 9.8036413
1488 7.6986551
1486 5.709765
1484 3.9295859
1482 2.4252625
1480 1.2653098
1478 0.47174338
1476 0.082363613
1474 0.25007746
1472 0.95030975
1470 1.8968079
1468 2.9249797
1466 3.8064179
1464 4.3988862
1462 4.8501959
1460 5.2017994
1458 5.5781908
1456 6.0176401
1454 6.4476051
1452 6.831439
1450 7.0625472
1448 7.0587626
1446 6.9593716
1444 6.7313089
1442 6.4730554
1440 6.1712542
1438 5.808845
1436 5.3649101
1434 4.8182964
1432 4.1859026
1430 3.5723295
1428 3.0063381
1426 2.5571237
1424 2.2364395
1422 2.0427332
1420 1.9916903
1418 2.08213
1416 2.2841656
1414 2.5692339
1412 2.8740451
1410 3.1717603
1408 3.461807
1406 3.7481992
1404 4.0424953
1402 4.3432221
1400 4.643456
1398 4.9356546
1396 5.2251215
1394 5.5037274
1392 5.7660971
1390 5.9774661
1388 6.1057897
1386 6.0906701
1384 5.9548478
1382 5.6505284
1380 5.2676539
1378 4.7968493
1376 4.30618
1374 3.818399
1372 3.3753359
1370 2.9834189
1368 2.638284
1366 2.2972822
1364 1.8965211
1362 1.4514911
1360 0.97291964
1358 0.53425759
1356 0.23007619
1354 0.035717383
1352 -0.0029468308
1350 0.033219829
1348 0.13586864
1346 0.25450286
1344 0.4067384
1342 0.56275731
1340 0.72222072
1338 0.88445228
1336 1.0474206
1334 1.2159756
1332 1.3757203
1330 1.541016
1328 1.7156332
1326 1.9076686
1324 2.1349926
1322 2.3796353
1320 2.6554172
1318 2.9490266
1316 3.26454
1314 3.588176
1312 3.9001806
1310 4.1680832
1308 4.3773379
1306 4.5152926
1304 4.5978603
1302 4.6337647
1300 4.640523
1298 4.6151519
1296 4.5743999
1294 4.5144048
1292 4.4584646
1290 4.4223537
1288 4.4040122
1286 4.4233074
1284 4.4481311
1282 4.477375
1280 4.4989519
1278 4.5023274
1276 4.5027113
1274 4.5016971
1272 4.5077372
1270 4.5322046
1268 4.5815105
1266 4.6685729
1264 4.7863235
1262 4.9345593
1260 5.07794
1258 5.2131472
1256 5.3342113
1254 5.4515953
1252 5.5963182
1250 5.7631221
1248 5.9492064
1246 6.1316252
1244 6.2657084
1242 6.3571072
1240 6.3644686
1238 6.3306828
1236 6.2382917
1234 6.1229787
1232 5.9698
1230 5.7873082
1228 5.522018
1226 5.2111888
1224 4.7758894
1222 4.3102555
1220 3.7748561
1218 3.24576
1216 2.7328429
1214 2.2474802
1212 1.81258
1210 1.4137617
1208 1.0703962
1206 0.76970941
1204 0.52272999
1202 0.31404781
1200 0.14474419
1198 -9.7155571e-06
1196 -0.12318957
1194 -0.23018724
1192 -0.32047525
1190 -0.3790665
1188 -0.41299054
1186 -0.40275356
1184 -0.36838326
1182 -0.29438126
1180 -0.19559102
1178 -0.031275555
1176 0.16317999
1174 0.44423014
1172 0.73403227
1170 1.035212
1168 1.3041229
1166 1.4702307
1164 1.5915756
1162 1.603186
1160 1.5928943
1158 1.5389848
1156 1.4718314
1154 1.3810395
1152 1.2699034
1150 1.1302963
1148 0.9726426
1146 0.79436827
1144 0.60430235
1142 0.40643018
1140 0.22070169
1138 0.054347113
1136 -0.051672317
1134 -0.10872857
1132 -0.061205607
1130 0.038251847
1128 0.2010584
1126 0.3771975
1124 0.53345042
1122 0.67632234
1120 0.76679599
1118 0.84478188
1116 0.88150758
1114 0.91470069
1112 0.93649679
1110 0.96373934
1108 1.0086806
1106 1.0611451
1104 1.1304086
1102 1.1916833
1100 1.2348176
1098 1.2552233
1096 1.242
1094 1.2322222
1092 1.229838
1090 1.2499646
1088 1.2894892
1086 1.3146544
1084 1.3253678
1082 1.310201
1080 1.2782514
1078 1.232944
1076 1.1762629
1074 1.0800893
1072 0.96629727
1070 0.81993997
1068 0.67031008
1066 0.55079126
1064 0.443822
1062 0.40130633
1060 0.36921099
1058 0.38366315
1056 0.40025115
1054 0.42528787
1052 0.43952826
1050 0.4182016
1048 0.37564027
1046 0.28132394
1044 0.17471743
1042 0.044948459
1040 -0.086363897
1038 -0.22033054
1036 -0.355768
1034 -0.49299324
1032 -0.63361025
1030 -0.77659488
1028 -0.91741586
1026 -1.0529692
1024 -1.1518052
1022 -1.2275051
1020 -1.260388
1018 -1.2767022
1016 -1.2880743
1014 -1.2977118
1012 -1.3013072
1010 -1.3037953
1008 -1.3061841
1006 -1.3098478
1004 -1.3295583
1002 -1.3501761
1000 -1.3763057
998 -1.4037626
996 -1.4370071
994 -1.461744
992 -1.4600263
990 -1.4434025
988 -1.3927499
986 -1.3400358
984 -1.2825011
982 -1.2148813
980 -1.133142
978 -1.0488143
976 -0.96387112
974 -0.9094041
972 -0.87930888
970 -0.85138392
968 -0.82314128
966 -0.77034795
964 -0.70658702
962 -0.64656603
960 -0.58752191
958 -0.51800734
956 -0.44605443
954 -0.36479503
952 -0.2833252
950 -0.22201934
948 -0.15837103
946 -0.051251784
944 0.0016975552
942 0.052353419
940 0.13679142
938 0.1615341
936 0.16081625
934 0.086460739
932 0.033655591
930 0.028460249
928 0.097100362
926 0.28364986
924 0.4757778
922 0.67315006
920 0.77757078
918 0.79512787
916 0.77811545
914 0.7368204
912 0.71601313
910 0.70648372
908 0.67784196
906 0.64312083
904 0.6082958
902 0.57452726
900 0.57857984
898 0.58907521
896 0.63463998
