##TITLE=Methyl Ethyl Ketone
##JCAMP-DX=4.24
##DATA TYPE=INFRARED SPECTRUM
##XUNITS=cm-1
##YUNITS=Absorbance
##FIRSTX=900
##LASTX=2300
##XYDATA=(X++(Y..Y))
2296 -0.017813999
2294 -0.018192459
2292 -0.018570919
2290 -0.018949376
2288 -0.019327834
2286 -0.019706294
2284 -0.020084752
2282 -0.02046321
2280 -0.020841669
2278 -0.021220127
2276 -0.021598585
2274 -0.021977045
2272 -0.022355502
2270 -0.02273396
2268 -0.02311242
2266 -0.02349088
2264 -0.023870315
2262 -0.024248796
2260 -0.024627255
2258 -0.025005713
2256 -0.025384171
2254 -0.025762631
2252 -0.026141088
2250 -0.026519546
2248 -0.026898006
2246 -0.027276464
2244 -0.0010136286
2242 0.057354983
2240 0.10131424
2238 0.13211389
2236 0.16108885
2234 0.15688242
2232 0.15014085
2230 0.1399584
2228 0.13073589
2226 0.13072699
2224 0.13172702
2222 0.13527496
2220 0.13604689
2218 0.12800635
2216 0.11704543
2214 0.10076158
2212 0.083865345
2210 0.066465296
2208 0.046701688
2206 0.024025759
2204 0.0084873941
2202 -1.4597143e-05
2200 0.00046560023
2198 0.0073036645
2196 0.0063017285
2194 0.00054718269
2192 -0.0081082815
2190 -0.017885102
2188 -0.016517734
2186 -0.011507186
2184 -0.014498999
2182 -0.019389693
2180 -0.044566277
2178 -0.072657362
2176 -0.092212774
2174 -0.11026995
2172 -0.12028895
2170 -0.13219379
2168 -0.1591752
2166 -0.18820506
2164 -0.2193132
2162 -0.24620645
2160 -0.26179534
2158 -0.27389094
2156 -0.28160301
2154 -0.28154823
2152 -0.27091858
2150 -0.24371636
2148 -0.19906995
2146 -0.15209642
2144 -0.10465187
2142 -0.07725402
2140 -0.063800491
2138 -0.068556227
2136 -0.082468912
2134 -0.098353252
2132 -0.11476832
2130 -0.12072813
2128 -0.12334681
2126 -0.12225943
2124 -0.12033325
2122 -0.13093135
2120 -0.14365213
2118 -0.15871945
2116 -0.17307171
2114 -0.17989379
2112 -0.18704137
2110 -0.20072231
2108 -0.21688503
2106 -0.23761164
2104 -0.25064993
2102 -0.24511014
2100 -0.222675
2098 -0.1764188
2096 -0.12089857
2094 -0.057728261
2092 -0.0072177579
2090 0.029029369
2088 0.031806052
2086 0.0084347352
2084 -0.041806031
2082 -0.10746904
2080 -0.16730429
2078 -0.22290924
2076 -0.24334215
2074 -0.24931961
2072 -0.22389761
2070 -0.18875659
2068 -0.15516523
2066 -0.12211458
2064 -0.098958105
2062 -0.077524073
2060 -0.056707621
2058 -0.038446981
2056 -0.033668742
2054 -0.035035554
2052 -0.048111349
2050 -0.063286223
2048 -0.077006556
2046 -0.090482041
2044 -0.10357532
2042 -0.11305794
2040 -0.11803114
2038 -0.11931206
2036 -0.11814342
2034 -0.11650878
2032 -0.11469074
2030 -0.110128
2028 -0.10287357
2026 -0.097434193
2024 -0.093038127
2022 -0.070296451
2020 -0.037678294
2018 0.015572978
2016 0.076574199
2014 0.090661123
2012 0.088028386
2010 0.033909678
2008 -0.032519013
2006 -0.076203294
2004 -0.10924867
2002 -0.106331
2000 -0.09463153
1998 -0.081721954
1996 -0.074454926
1994 -0.083406776
1992 -0.095688663
1990 -0.10903338
1988 -0.1107586
1986 -0.095249772
1984 -0.069368288
1982 -0.034640368
1980 -0.0075541199
1978 0.010073767
1976 0.016130401
1974 0.0142115
1972 0.018438309
1970 0.029237797
1968 0.04094005
1966 0.052330349
1964 0.038996443
1962 0.011731234
1960 -0.026025234
1958 -0.067917809
1956 -0.10425066
1954 -0.13880549
1952 -0.17105263
1950 -0.20184496
1948 -0.21350528
1946 -0.21490499
1944 -0.19613086
1942 -0.16988623
1940 -0.15008999
1938 -0.13644062
1936 -0.13615486
1934 -0.14368941
1932 -0.1551756
1930 -0.17335129
1928 -0.19662629
1926 -0.21860036
1924 -0.23471232
1922 -0.23745735
1920 -0.22945583
1918 -0.22614171
1916 -0.23311186
1914 -0.25277331
1912 -0.28007233
1910 -0.31364867
1908 -0.3492043
1906 -0.39990121
1904 -0.459364
1902 -0.4977878
1900 -0.52699149
1898 -0.49262932
1896 -0.43259856
1894 -0.35444349
1892 -0.27496639
1890 -0.2393959
1888 -0.23224108
1886 -0.28078249
1884 -0.35675499
1882 -0.4544223
1880 -0.54839486
1878 -0.61264384
1876 -0.64266801
1874 -0.62229991
1872 -0.5758149
1870 -0.51140082
1868 -0.46879372
1866 -0.46789742
1864 -0.50655097
1862 -0.58102459
1860 -0.65243685
1858 -0.71004063
1856 -0.74741
1854 -0.76845443
1852 -0.78147751
1850 -0.78830445
1848 -0.79775518
1846 -0.80580932
1844 -0.82884467
1842 -0.85669565
1840 -0.88316226
1838 -0.90801239
1836 -0.90501285
1834 -0.8862766
1832 -0.83292353
1830 -0.75946075
1828 -0.67532778
1826 -0.59759903
1824 -0.56427187
1822 -0.57324588
1820 -0.6321848
1818 -0.7079677
1816 -0.77144486
1814 -0.80586684
1812 -0.80131412
1810 -0.77348894
1808 -0.73515087
1806 -0.69336152
1804 -0.6520775
1802 -0.62373114
1800 -0.60399991
1798 -0.59262741
1796 -0.58542359
1794 -0.5344165
1792 -0.45586121
1790 -0.35205027
1788 -0.23960704
1786 -0.17170314
1784 -0.13434166
1782 -0.1231575
1780 -0.12492394
1778 -0.10303545
1776 -0.062322658
1774 0.0063545667
1772 0.0812001
1770 0.11258273
1768 0.11287863
1766 0.079020843
1764 0.043056242
1762 0.044290598
1760 0.019621046
1758 -0.067235999
1756 -0.15801728
1754 -0.21972348
1752 -0.21889383
1750 -0.14952379
1748 -0.055166688
1746 0.040257182
1744 0.052404452
1742 -0.022787545
1740 -0.1280567
1738 -0.24096161
1736 -0.23810601
1734 -0.14010313
1732 -0.016221225
1730 0.11113489
1728 0.095964238
1726 -0.016867202
1724 -0.10071701
1722 -0.1341096
1720 0.012131363
1718 0.3136816
1716 0.81583667
1714 1.4239039
1712 1.9629714
1710 2.4580164
1708 2.9535499
1706 3.6166208
1704 4.6123266
1702 6.1875424
1700 8.4566422
1698 11.550274
1696 15.39
1694 19.22793
1692 22.734123
1690 25.860624
1688 28.688635
1686 32.102127
1684 36.181755
1682 41.120964
1680 46.730759
1678 51.681866
1676 56.000797
1674 60.097515
1672 64.09642
1670 68.628006
1668 73.542412
1666 78.322952
1664 82.900475
1662 87.029289
1660 90.688553
1658 93.807556
1656 96.35363
1654 98.291122
1652 99.550583
1650 100.09155
1648 99.737595
1646 98.3825
1644 96.376945
1642 94.080956
1640 91.437553
1638 88.476898
1636 84.837257
1634 80.449455
1632 75.871117
1630 71.315262
1628 66.991829
1626 62.924641
1624 58.784958
1622 54.53281
1620 50.395397
1618 46.388721
1616 42.633942
1614 39.150257
1612 36.07473
1610 33.41608
1608 31.1492
1606 29.249815
1604 27.576372
1602 26.146189
1600 24.953543
1598 24.018803
1596 23.3335
1594 22.888508
1592 22.633936
1590 22.540642
1588 22.557117
1586 22.668379
1584 22.855131
1582 23.107121
1580 23.417671
1578 23.839878
1576 24.390085
1574 25.106096
1572 25.984917
1570 26.955687
1568 27.996601
1566 29.073608
1564 30.190832
1562 31.571966
1560 33.322529
1558 36.031223
1556 39.743931
1554 43.660061
1552 47.545097
1550 50.487686
1548 52.531952
1546 54.281677
1544 55.745983
1542 57.038254
1540 58.01004
1538 58.436768
1536 58.273743
1534 57.56654
1532 56.481941
1530 55.273399
1528 53.937553
1526 52.477451
1524 50.79623
1522 48.822781
1520 46.632225
1518 44.22517
1516 41.941486
1514 39.907848
1512 37.940521
1510 36.032837
1508 33.572262
1506 30.389071
1504 27.132841
1502 23.847395
1500 21.077131
1498 18.88015
1496 16.719999
1494 14.588789
1492 12.410063
1490 10.195522
1488 7.9874592
1486 5.8560047
1484 3.9285021
1482 2.3047068
1480 1.1003144
1478 0.34355983
1476 0.064440995
1474 0.35858876
1472 1.1532171
1470 2.1266909
1468 3.0764799
1466 3.8552628
1464 4.3655272
1462 4.7885799
1460 5.192791
1458 5.6411448
1456 6.1598001
1454 6.5964508
1452 6.8752933
1450 6.9983196
1448 6.8935995
1446 6.7395892
1444 6.5217242
1442 6.2994561
1440 6.0676188
1438 5.7931209
1436 5.4475741
1434 4.9698906
1432 4.3615394
1430 3.7175894
1428 3.0848141
1426 2.5900772
1424 2.2519858
1422 2.0740209
1420 2.044591
1418 2.1246867
1416 2.2858744
1414 2.498791
1412 2.738656
1410 3.0109241
1408 3.3099587
1406 3.6484663
1404 4.0136538
1402 4.4033208
1400 4.8006639
1398 5.2006159
1396 5.5864573
1394 5.937489
1392 6.2309222
1390 6.4058928
1388 6.4774075
1386 6.3774748
1384 6.1605124
1382 5.7839766
1380 5.3478107
1378 4.8509078
1376 4.3597341
1374 3.8925936
1372 3.4620099
1370 3.0705302
1368 2.7093148
1366 2.3484678
1364 1.9470973
1362 1.5141501
1360 1.0528555
1358 0.62538439
1356 0.31170911
1354 0.095527798
1352 0.022554858
1350 0.024062
1348 0.09541817
1346 0.18588106
1344 0.3312524
1342 0.51018864
1340 0.75175631
1338 0.99446142
1336 1.2280715
1334 1.4326675
1332 1.5691723
1330 1.704964
1328 1.8433069
1326 2.0131943
1324 2.2411973
1322 2.5102103
1320 2.8370895
1318 3.1854396
1316 3.5457401
1314 3.8677707
1312 4.1347656
1310 4.3356304
1308 4.4737706
1306 4.5707593
1304 4.6327133
1302 4.6597762
1300 4.6588898
1298 4.6157646
1296 4.5554428
1294 4.4802108
1292 4.4117298
1290 4.3679552
1288 4.3386879
1286 4.3368783
1284 4.3372121
1282 4.3354282
1280 4.3266797
1278 4.3018055
1276 4.2767925
1274 4.2562418
1272 4.2496462
1270 4.271009
1268 4.3127561
1266 4.3840356
1264 4.4731994
1262 4.5824566
1260 4.7021441
1258 4.8310232
1256 4.9585285
1254 5.0822392
1252 5.1962881
1250 5.3021097
1248 5.4008627
1246 5.4953251
1244 5.5835013
1242 5.6630569
1240 5.7196856
1238 5.7521968
1236 5.7274547
1234 5.660254
1232 5.4904799
1230 5.2718759
1228 4.9291663
1226 4.560636
1224 4.1282544
1222 3.6953607
1220 3.2616849
1218 2.834727
1216 2.4229629
1214 2.0286386
1212 1.6660903
1210 1.3251313
1208 1.0153387
1206 0.72071159
1204 0.44809264
1202 0.20448488
1200 -0.0032788664
1198 -0.16553167
1196 -0.28602928
1194 -0.36765265
1192 -0.41999412
1190 -0.44194341
1188 -0.44094574
1186 -0.40049651
1184 -0.33571893
1182 -0.22419122
1180 -0.088420801
1178 0.10404824
1176 0.32077402
1174 0.60502934
1172 0.89462209
1170 1.1869786
1168 1.4498503
1166 1.6186372
1164 1.7469726
1162 1.774632
1160 1.7754205
1158 1.7214181
1156 1.6454157
1154 1.5306293
1152 1.3872405
1150 1.2038965
1148 0.99785036
1146 0.76893359
1144 0.5426054
1142 0.3269996
1140 0.15941818
1138 0.041166909
1136 0.018513143
1134 0.062848836
1132 0.19594346
1130 0.36845714
1128 0.57019848
1126 0.7682243
1124 0.90554196
1122 1.0158972
1120 1.0403401
1118 1.0594487
1116 1.0933814
1114 1.1470681
1112 1.2827766
1110 1.4260424
1108 1.5910866
1106 1.73833
1104 1.8389194
1102 1.9099925
1100 1.9218258
1098 1.9097887
1096 1.8614286
1094 1.8090819
1092 1.754802
1090 1.7225202
1088 1.7144829
1086 1.7303278
1084 1.7614785
1082 1.7721539
1080 1.7619869
1078 1.687723
1076 1.5794028
1074 1.4314919
1072 1.2742188
1070 1.1441388
1068 1.0273678
1066 0.96466821
1064 0.91607159
1062 0.92052358
1060 0.93629622
1058 1.0077851
1056 1.0793514
1054 1.1497329
1052 1.1979377
1050 1.1747991
1048 1.1291971
1046 1.0296068
1044 0.92747736
1042 0.82045454
1040 0.71558702
1038 0.6140666
1036 0.51806998
1034 0.42994812
1032 0.35649809
1030 0.29521281
1028 0.22245717
1026 0.13909455
1024 0.025374725
1022 -0.10145596
1020 -0.19867308
1018 -0.27868226
1016 -0.29380286
1014 -0.29233974
1012 -0.30005312
1010 -0.31519261
1008 -0.39774919
1006 -0.48839629
1004 -0.608482
1002 -0.72233272
1000 -0.79174632
998 -0.84625334
996 -0.8351593
994 -0.81650376
992 -0.77521193
990 -0.73893684
988 -0.71474969
986 -0.6993463
984 -0.6995033
982 -0.71326745
980 -0.74514395
978 -0.78341043
976 -0.82696313
974 -0.84523195
972 -0.8415044
970 -0.80229098
968 -0.74123061
966 -0.679079
964 -0.61737365
962 -0.57605124
960 -0.54115331
958 -0.49790156
956 -0.45237571
954 -0.39138499
952 -0.32861519
950 -0.26624867
948 -0.19906181
946 -0.06476143
944 0.0026156604
942 0.081104219
940 0.22649814
938 0.34314081
936 0.44072402
934 0.48288822
932 0.52825385
930 0.58080757
928 0.64871657
926 0.74049473
924 0.80003339
922 0.81913728
920 0.75581884
918 0.61585635
916 0.47004285
914 0.32098266
912 0.25100285
910 0.2238573
908 0.25274116
906 0.30447236
904 0.40273678
902 0.51394689
900 0.60873443
898 0.70102602
896 0.70523
