##TITLE=Methyl Ethyl Ketone
##JCAMP-DX=4.24
##DATA TYPE=INFRARED SPECTRUM
##XUNITS=cm-1
##YUNITS=Absorbance
##FIRSTX=900
##LASTX=2300
##XYDATA=(X++(Y..Y))
2296 0.015544
2294 0.015874527
2292 0.016205054
2290 0.016534586
2288 0.01686511
2286 0.017195636
2284 0.017526163
2282 0.0178557
2280 0.018186217
2278 0.018516744
2276 0.018846286
2274 0.0191768
2272 0.019507326
2270 0.019837853
2268 0.020167401
2266 0.020497907
2264 0.020828433
2262 0.021158962
2260 0.021488514
2258 0.021819016
2256 0.022149544
2254 0.0224791
2252 0.022809597
2250 0.023140123
2248 0.023470651
2246 0.023800215
2244 0.00088444568
2242 0.077280588
2240 0.17440245
2238 0.24600473
2236 0.3137477
2234 0.26870182
2232 0.2144428
2230 0.1354451
2228 0.060874667
2226 0.03104385
2224 0.0085990746
2222 0.0094933575
2220 0.0120233
2218 0.015724789
2216 0.017206915
2214 0.013706571
2212 0.01264458
2210 0.016041188
2208 0.04180789
2206 0.095131256
2204 0.1607631
2202 0.23655887
2200 0.28219852
2198 0.30477512
2196 0.30662143
2194 0.29738784
2192 0.31043464
2190 0.33357495
2188 0.37305102
2186 0.41760898
2184 0.46031359
2182 0.50251126
2180 0.52733779
2178 0.54889375
2176 0.513708
2174 0.47183609
2172 0.41333845
2170 0.36350191
2168 0.37237424
2166 0.39795792
2164 0.46357733
2162 0.52818704
2160 0.57998753
2158 0.61558461
2156 0.62290901
2154 0.61108452
2152 0.57574314
2150 0.52993953
2148 0.47512311
2146 0.42617536
2144 0.38325799
2142 0.35871509
2140 0.34652013
2138 0.35090673
2136 0.36363026
2134 0.38708377
2132 0.41471416
2130 0.44145483
2128 0.46778038
2126 0.46397293
2124 0.45315969
2122 0.42810944
2120 0.40194863
2118 0.39617363
2116 0.39337
2114 0.39085239
2112 0.38858438
2110 0.38715404
2108 0.39158562
2106 0.41334537
2104 0.43709973
2102 0.4595857
2100 0.46887201
2098 0.45628881
2096 0.4302043
2094 0.39068362
2092 0.35378194
2090 0.32163647
2088 0.29620811
2086 0.27573299
2084 0.26583567
2082 0.26246521
2080 0.28458446
2078 0.3196753
2076 0.36497056
2074 0.41386607
2072 0.4628332
2070 0.51171809
2068 0.56833333
2066 0.6262731
2064 0.65403748
2062 0.67196846
2060 0.64895761
2058 0.61637813
2056 0.57549113
2054 0.53327632
2052 0.49233213
2050 0.4528603
2048 0.4166663
2046 0.38410714
2044 0.3574326
2042 0.33357719
2040 0.31212547
2038 0.29385817
2036 0.27872771
2034 0.27287424
2032 0.27550119
2030 0.28603241
2028 0.30170187
2026 0.31370014
2024 0.32286805
2022 0.32641181
2020 0.3272855
2018 0.32042557
2016 0.31039599
2014 0.29012054
2012 0.26639858
2010 0.223654
2008 0.17471611
2006 0.10718727
2004 0.037657492
2002 -0.01217673
2000 -0.048960119
1998 -0.050412681
1996 -0.041594215
1994 -0.028359089
1992 -0.025475504
1990 -0.048823915
1988 -0.081518702
1986 -0.11995789
1984 -0.14345469
1982 -0.14422359
1980 -0.14106974
1978 -0.13909522
1976 -0.14713942
1974 -0.1640698
1972 -0.15878054
1970 -0.13500069
1968 -0.093989223
1966 -0.044209063
1964 -0.036380168
1962 -0.051580559
1960 -0.10227457
1958 -0.16727155
1956 -0.22356486
1954 -0.27615499
1952 -0.3227343
1950 -0.3663739
1948 -0.39788952
1946 -0.4245775
1944 -0.44638351
1942 -0.47433016
1940 -0.53142625
1938 -0.59704047
1936 -0.66193718
1934 -0.71122283
1932 -0.72885299
1930 -0.73582119
1928 -0.73972142
1926 -0.73449188
1924 -0.71804816
1922 -0.66722298
1920 -0.58279121
1918 -0.50539112
1916 -0.44233584
1914 -0.41296232
1912 -0.40677726
1910 -0.40498903
1908 -0.40298647
1906 -0.44132385
1904 -0.50189
1902 -0.59700447
1900 -0.70722407
1898 -0.75615335
1896 -0.77448428
1894 -0.70740074
1892 -0.60872751
1890 -0.52218288
1888 -0.46385714
1886 -0.50739527
1884 -0.60309523
1882 -0.74238443
1880 -0.87887716
1878 -0.9717201
1876 -1.014232
1874 -0.99081981
1872 -0.91099817
1870 -0.77843857
1868 -0.64821607
1866 -0.5426513
1864 -0.50996232
1862 -0.54779977
1860 -0.62018979
1858 -0.70678037
1856 -0.78711027
1854 -0.85959691
1852 -0.91342509
1850 -0.95527035
1848 -0.95968002
1846 -0.94270426
1844 -0.91597551
1842 -0.88575315
1840 -0.8812229
1838 -0.88634032
1836 -0.86514413
1834 -0.82002354
1832 -0.71015823
1830 -0.57121044
1828 -0.43277848
1826 -0.32766429
1824 -0.31419978
1822 -0.36219215
1820 -0.46034059
1818 -0.56222373
1816 -0.63546288
1814 -0.67458558
1812 -0.67895901
1810 -0.66052866
1808 -0.62879843
1806 -0.568165
1804 -0.48147833
1802 -0.38699082
1800 -0.29115376
1798 -0.22828062
1796 -0.19196786
1794 -0.15850279
1792 -0.124454
1790 -0.094670765
1788 -0.068471305
1786 -0.044401042
1784 -0.019344537
1782 0.038858637
1780 0.11921185
1778 0.22694099
1776 0.34977999
1774 0.47504914
1772 0.57214558
1770 0.57404447
1768 0.4998911
1766 0.35117137
1764 0.19804239
1762 0.105555
1760 0.03068715
1758 -0.056562595
1756 -0.10999565
1754 -0.10880417
1752 -0.014518335
1750 0.17097047
1748 0.35034826
1746 0.4925718
1744 0.49449235
1742 0.37074414
1740 0.24798483
1738 0.14874104
1736 0.173566
1734 0.29188392
1732 0.34719416
1730 0.34547448
1728 0.19125937
1726 -0.051962852
1724 -0.19382377
1722 -0.2181271
1720 0.01423806
1718 0.43868124
1716 1.07517
1714 1.7705148
1712 2.2593949
1710 2.6160486
1708 2.9254861
1706 3.4028208
1704 4.2458873
1702 5.6823845
1700 7.8140764
1698 10.715055
1696 14.301857
1694 17.886419
1692 21.165312
1690 24.131134
1688 26.852194
1686 30.152592
1684 34.098389
1682 38.780025
1680 44.028999
1678 48.628071
1676 52.616726
1674 56.521725
1672 60.43697
1670 64.931458
1668 69.832176
1666 74.541451
1664 79.028328
1662 83.146271
1660 86.953888
1658 90.556114
1656 93.96003
1654 97.180794
1652 99.917717
1650 101.8217
1648 102.26903
1646 100.79929
1644 98.179558
1642 95.147133
1640 91.952682
1638 88.771072
1636 85.213516
1634 81.158417
1632 76.957214
1630 72.750137
1628 68.70063
1626 64.825417
1624 60.795959
1622 56.583889
1620 52.39727
1618 48.261101
1616 44.35146
1614 40.696072
1612 37.465107
1610 34.67078
1608 32.290359
1606 30.297678
1604 28.543959
1602 27.048435
1600 25.805925
1598 24.834757
1596 24.123501
1594 23.650061
1592 23.350092
1590 23.178583
1588 23.072929
1586 23.035
1584 23.060062
1582 23.186939
1580 23.430754
1578 23.852697
1576 24.467972
1574 25.250248
1572 26.181543
1570 27.160391
1568 28.162399
1566 29.206642
1564 30.301765
1562 31.654413
1560 33.358917
1558 35.921009
1556 39.370872
1554 42.99107
1552 46.586266
1550 49.370598
1548 51.405922
1546 53.240856
1544 54.916435
1542 56.577202
1540 58.037479
1538 59.023788
1536 59.323112
1534 58.771362
1532 57.630791
1530 56.241451
1528 54.719189
1526 53.165298
1524 51.518551
1522 49.738754
1520 47.720673
1518 45.398048
1516 43.023071
1514 40.67276
1512 38.404202
1510 36.244316
1508 33.656689
1506 30.503836
1504 27.320601
1502 24.164934
1500 21.490292
1498 19.348799
1496 17.229856
1494 15.121185
1492 12.958894
1490 10.741079
1488 8.4958487
1486 6.2868252
1484 4.2424116
1482 2.4919989
1480 1.1858332
1478 0.36322445
1476 0.07147786
1474 0.39562273
1472 1.2530047
1470 2.2931221
1468 3.3084636
1466 4.1685905
1464 4.7713728
1462 5.2929025
1460 5.7952909
1458 6.3086424
1456 6.8443799
1454 7.2458835
1452 7.429039
1450 7.4485474
1448 7.2372093
1446 6.9814825
1444 6.6707706
1442 6.381547
1440 6.1196499
1438 5.8627982
1436 5.5847759
1434 5.1992297
1432 4.6906514
1430 4.1071396
1428 3.4913781
1426 2.9630692
1424 2.5558481
1422 2.3028486
1420 2.1990209
1418 2.2265623
1416 2.3364944
1414 2.4819081
1412 2.6409295
1410 2.8015468
1408 2.9923687
1406 3.2435822
1404 3.5709155
1402 4.0158305
1400 4.531024
1398 5.1430011
1396 5.7374144
1394 6.2785239
1392 6.6924143
1390 6.8825393
1388 6.9331369
1386 6.7652054
1384 6.4889097
1382 6.0642023
1380 5.5843763
1378 5.0455055
1376 4.5106797
1374 3.9979777
1372 3.5421662
1370 3.152797
1368 2.8233647
1366 2.5166178
1364 2.1604667
1362 1.7473246
1360 1.2588724
1358 0.77544451
1356 0.39112628
1354 0.11894842
1352 0.027918801
1350 0.033336572
1348 0.14091006
1346 0.29376572
1344 0.52421278
1342 0.78592175
1340 1.0971277
1338 1.3906283
1336 1.63954
1334 1.8342661
1332 1.9308611
1330 2.0208311
1328 2.108932
1326 2.2416248
1324 2.4473014
1322 2.7136183
1320 3.0589755
1318 3.4444563
1316 3.8592901
1314 4.2415318
1312 4.5729923
1310 4.825902
1308 5.0082173
1306 5.1362343
1304 5.2238188
1302 5.2790513
1300 5.3099256
1298 5.3099432
1296 5.294786
1294 5.2644196
1292 5.2391686
1290 5.2364969
1288 5.2500482
1286 5.2974725
1284 5.3465085
1282 5.3931623
1280 5.4308372
1278 5.4485931
1276 5.4651175
1274 5.4817052
1272 5.5099421
1270 5.5619183
1268 5.6416492
1266 5.7631073
1264 5.9097161
1262 6.0818324
1260 6.2458682
1258 6.3980999
1256 6.5334001
1254 6.6591516
1252 6.7975531
1250 6.9455628
1248 7.0997252
1246 7.2464752
1244 7.3568864
1242 7.4392395
1240 7.4734354
1238 7.4809189
1236 7.4444442
1234 7.3803492
1232 7.2532358
1230 7.0877151
1228 6.8174558
1226 6.5037842
1224 6.0723739
1222 5.6121216
1220 5.085453
1218 4.5608549
1216 4.0451512
1214 3.5613654
1212 3.1341891
1210 2.7401533
1208 2.3923628
1206 2.05862
1204 1.7459259
1202 1.4616588
1200 1.2128526
1198 1.0107292
1196 0.84418929
1194 0.68754107
1192 0.53503466
1190 0.37640449
1188 0.22674443
1186 0.12536439
1184 0.062511355
1182 0.092896178
1180 0.17016751
1178 0.35256949
1176 0.57266402
1174 0.88737345
1172 1.2139943
1170 1.563593
1168 1.8846349
1166 2.1139321
1164 2.287323
1162 2.3202209
1160 2.3040121
1158 2.1877995
1156 2.0373957
1154 1.8294224
1152 1.5957869
1150 1.3282254
1148 1.051738
1146 0.77040541
1144 0.5123015
1142 0.28609964
1140 0.12918073
1138 0.031616621
1136 0.0082438057
1134 0.02958785
1132 0.098924749
1130 0.19413325
1128 0.32892781
1126 0.47963351
1124 0.65734053
1122 0.83154303
1120 0.96206361
1118 1.0743037
1116 1.1104743
1114 1.141807
1112 1.1591029
1110 1.1915979
1108 1.2727529
1106 1.3682001
1104 1.49534
1102 1.5997052
1100 1.6548872
1098 1.6634254
1096 1.5997715
1094 1.5245563
1092 1.439904
1090 1.3887671
1088 1.3735247
1086 1.3848885
1084 1.4162285
1082 1.4460661
1080 1.4726669
1078 1.481895
1076 1.4774014
1074 1.4303442
1072 1.3627309
1070 1.2470902
1068 1.1211042
1066 0.99682093
1064 0.88230437
1062 0.83792657
1060 0.80835342
1058 0.85206866
1056 0.90096718
1054 0.97215647
1052 1.0399848
1050 1.0966419
1048 1.1469543
1046 1.1811178
1044 1.2016138
1042 1.1930991
1040 1.1443251
1038 1.0360268
1036 0.91002899
1034 0.76656342
1032 0.64767706
1030 0.54901671
1028 0.43523312
1026 0.31035227
1024 0.17735286
1022 0.045412347
1020 -0.030779153
1018 -0.082750343
1016 -0.10431029
1014 -0.11952579
1012 -0.1547316
1010 -0.19444582
1008 -0.24697439
1006 -0.30085978
1004 -0.35819146
1002 -0.41936454
1000 -0.50663114
998 -0.59695768
996 -0.69995356
994 -0.79068214
992 -0.84198856
990 -0.86656207
988 -0.8290087
986 -0.7705828
984 -0.67626506
982 -0.58580601
980 -0.50170863
978 -0.43951413
976 -0.40187687
974 -0.39908674
972 -0.42574507
970 -0.48487672
968 -0.56124943
966 -0.59339046
964 -0.60108149
962 -0.51930034
960 -0.4091408
958 -0.30745187
956 -0.21009386
954 -0.16853538
952 -0.13395201
950 -0.10502662
948 -0.074874878
946 -0.024677999
944 0.0008383207
942 0.026480753
940 0.090067014
938 0.2119236
936 0.32732341
934 0.42335805
932 0.49864098
930 0.52937031
928 0.54442215
926 0.53399688
924 0.50161839
922 0.4422527
920 0.36303359
918 0.26557469
916 0.18021029
914 0.1029929
912 -0.0010176972
910 -0.11926529
908 -0.25966614
906 -0.4070721
904 -0.37913626
902 -0.30408815
900 0.0040145814
898 0.34961626
896 0.66154999
