##TITLE=Methyl Ethyl Ketone
##JCAMP-DX=4.24
##DATA TYPE=INFRARED SPECTRUM
##XUNITS=cm-1
##YUNITS=Absorbance
##FIRSTX=900
##LASTX=2300
##XYDATA=(X++(Y..Y))
2296 -0.0027778
2294 -0.0028356174
2292 -0.0028934344
2290 -0.0029512518
2288 -0.0030089696
2286 -0.0030667866
2284 -0.0031246035
2282 -0.003182322
2280 -0.0032401383
2278 -0.0032979557
2276 -0.0033556744
2274 -0.00341349
2272 -0.0034713075
2270 -0.0035291249
2268 -0.0035868441
2266 -0.0036446592
2264 -0.0037024766
2262 -0.0037602938
2260 -0.003818111
2258 -0.0038758311
2256 -0.0039335489
2254 -0.00399146
2252 -0.0040491833
2250 -0.004106998
2248 -0.0041649118
2246 -0.0042226356
2244 -0.00015691742
2242 0.0087214066
2240 0.015491492
2238 0.0017233095
2236 -0.015055856
2234 -0.034502443
2232 -0.05318556
2230 -0.050564881
2228 -0.044380922
2226 -0.017897699
2224 0.010433657
2222 0.042527493
2220 0.068877593
2218 0.077130511
2216 0.07466583
2214 0.051013712
2212 0.02739626
2210 0.0058742333
2208 -0.0099677015
2206 -0.018887149
2204 -0.025546031
2202 -0.030453714
2200 -0.025950268
2198 -0.01450196
2196 0.011180643
2194 0.044806778
2192 0.080957048
2190 0.11798783
2188 0.13550112
2186 0.14664456
2184 0.1446472
2182 0.13971528
2180 0.13910741
2178 0.13918157
2176 0.13930885
2174 0.13896398
2172 0.13329737
2170 0.1238593
2168 0.095734671
2166 0.063112624
2164 0.020755056
2162 -0.015152388
2160 -0.032061052
2158 -0.038577721
2156 -0.029058199
2154 -0.014615881
2152 0.0045587537
2150 0.032055501
2148 0.068374276
2146 0.1083286
2144 0.15068726
2142 0.18009761
2140 0.20031832
2138 0.20277163
2136 0.19604315
2134 0.1812425
2132 0.16339613
2130 0.15356632
2128 0.1463788
2126 0.14114715
2124 0.13632971
2122 0.11560733
2120 0.09225674
2118 0.067128949
2116 0.043283485
2114 0.030839039
2112 0.019683417
2110 0.0068654246
2108 -0.010474822
2106 -0.040726729
2104 -0.071906835
2102 -0.10090995
2100 -0.1182544
2098 -0.11654926
2096 -0.10011286
2094 -0.068054549
2092 -0.038146149
2090 -0.012822614
2088 -0.011629852
2086 -0.02986435
2084 -0.062574625
2082 -0.10308282
2080 -0.13459155
2078 -0.1608106
2076 -0.16687344
2074 -0.16482827
2072 -0.14840159
2070 -0.12758228
2068 -0.12672167
2066 -0.131432
2064 -0.16867657
2062 -0.21276392
2060 -0.26280397
2058 -0.31119868
2056 -0.34413913
2054 -0.36652419
2052 -0.36180678
2050 -0.34733126
2048 -0.32130843
2046 -0.30553749
2044 -0.31399119
2042 -0.34246424
2040 -0.39431232
2038 -0.44003016
2036 -0.47322398
2034 -0.47734427
2032 -0.45549148
2030 -0.42427221
2028 -0.38916507
2026 -0.37426278
2024 -0.37262198
2022 -0.3785291
2020 -0.38728812
2018 -0.38724673
2016 -0.38343
2014 -0.38219869
2012 -0.38209203
2010 -0.38861486
2008 -0.39785159
2006 -0.42178798
2004 -0.45180312
2002 -0.49797648
2000 -0.5451082
1998 -0.57805985
1996 -0.59609002
1994 -0.57952029
1992 -0.5501402
1990 -0.51182866
1988 -0.4817462
1986 -0.47055134
1984 -0.47096622
1982 -0.48128399
1980 -0.49555394
1978 -0.51143348
1976 -0.52733946
1974 -0.54277182
1972 -0.54834437
1970 -0.54631335
1968 -0.54245478
1966 -0.53834057
1964 -0.54719323
1962 -0.56310296
1960 -0.575984
1958 -0.5872153
1956 -0.60551989
1954 -0.62711793
1952 -0.66980958
1950 -0.71775329
1948 -0.7489996
1946 -0.77248251
1944 -0.78328025
1942 -0.79645371
1940 -0.83448374
1938 -0.88227993
1936 -0.93618858
1934 -0.98016268
1932 -0.99967343
1930 -1.0001156
1928 -0.98053193
1926 -0.94659764
1924 -0.90069252
1922 -0.85040814
1920 -0.79919338
1918 -0.7689085
1916 -0.75846314
1914 -0.75931227
1912 -0.76537085
1910 -0.7627905
1908 -0.75377637
1906 -0.76908064
1904 -0.79839718
1902 -0.84765774
1900 -0.90570366
1898 -0.92113477
1896 -0.91698861
1894 -0.8763271
1892 -0.82575822
1890 -0.80531681
1888 -0.80671924
1886 -0.85349691
1884 -0.91842133
1882 -0.98735219
1880 -1.0508634
1878 -1.0977287
1876 -1.12491
1874 -1.1252923
1872 -1.0935594
1870 -1.0260081
1868 -0.95956522
1866 -0.90996474
1864 -0.91928458
1862 -0.98699558
1860 -1.0801423
1858 -1.1819941
1856 -1.25866
1854 -1.3136617
1852 -1.3264223
1850 -1.3130431
1848 -1.26398
1846 -1.1955249
1844 -1.143412
1842 -1.1014255
1840 -1.0968331
1838 -1.1077613
1836 -1.09596
1834 -1.0644131
1832 -0.98062187
1830 -0.87416613
1828 -0.77146637
1826 -0.6993705
1824 -0.70839363
1822 -0.76934487
1820 -0.86942959
1818 -0.96384245
1816 -1.0205326
1814 -1.0361836
1812 -1.0117586
1810 -0.97384328
1808 -0.93625492
1806 -0.89946151
1804 -0.86356843
1802 -0.81842399
1800 -0.76395696
1798 -0.70048243
1796 -0.631235
1794 -0.56110227
1792 -0.49188039
1790 -0.45017064
1788 -0.42683133
1786 -0.41382164
1784 -0.40530366
1782 -0.37949434
1780 -0.34101552
1778 -0.27938208
1776 -0.19677943
1774 -0.077042758
1772 0.05438599
1770 0.15936562
1768 0.2188292
1766 0.19647029
1764 0.1328602
1762 0.063720599
1760 0.01651652
1758 -0.10416047
1756 -0.2305517
1754 -0.28679726
1752 -0.24830645
1750 -0.12311746
1748 0.013465907
1746 0.13306047
1744 0.14099166
1742 0.045260504
1740 -0.062494352
1738 -0.16162804
1736 -0.145062
1734 -0.039516177
1732 0.036678486
1730 0.080806725
1728 0.00110697
1726 -0.15176874
1724 -0.2241044
1722 -0.2043916
1720 0.037875995
1718 0.47601444
1716 1.1204623
1714 1.8446246
1712 2.4613171
1710 3.0191116
1708 3.5768461
1706 4.3099971
1704 5.3794651
1702 7.01331
1700 9.3165083
1698 12.419573
1696 16.265858
1694 20.152819
1692 23.762056
1690 27.032934
1688 30.021715
1686 33.602749
1684 37.851749
1682 42.929649
1680 48.65572
1678 53.669041
1676 58.010727
1674 62.220768
1672 66.425026
1670 71.440796
1668 77.058479
1666 82.620499
1664 87.984062
1662 92.660583
1660 96.658714
1658 99.943489
1656 102.52657
1654 104.43839
1652 105.5126
1650 105.59842
1648 104.43851
1646 101.90107
1644 98.630676
1642 95.21666
1640 91.594955
1638 87.763229
1636 83.277328
1634 78.031532
1632 72.750717
1630 67.684418
1628 63.02589
1626 58.76387
1624 54.468201
1622 50.076694
1620 45.892082
1618 41.931023
1616 38.339287
1614 35.121655
1612 32.293896
1610 29.86026
1608 27.7714
1606 26.017393
1604 24.506365
1602 23.262541
1600 22.290737
1598 21.599653
1596 21.158501
1594 20.942701
1592 20.886915
1590 20.955538
1588 21.0965
1586 21.312157
1584 21.596817
1582 21.96376
1580 22.415003
1578 22.998102
1576 23.725058
1574 24.611034
1572 25.653107
1570 26.800638
1568 28.03948
1566 29.330328
1564 30.672142
1562 32.215733
1560 34.052475
1558 36.769176
1556 40.409515
1554 44.299751
1552 48.215027
1550 51.214928
1548 53.353317
1546 55.211212
1544 56.827091
1542 58.368374
1540 59.598042
1538 60.178627
1536 59.939915
1534 58.797363
1532 57.087109
1530 55.226986
1528 53.319157
1526 51.447899
1524 49.51181
1522 47.44632
1520 45.161922
1518 42.600086
1516 40.088871
1514 37.740913
1512 35.555161
1510 33.55975
1508 31.143002
1506 28.156858
1504 25.079931
1502 21.955488
1500 19.294271
1498 17.153101
1496 15.072429
1494 13.0499
1492 11.015052
1490 8.9728336
1488 6.9393578
1486 4.9792914
1484 3.206882
1482 1.7380688
1480 0.69770545
1478 0.12121455
1476 0.037594631
1474 0.50396323
1472 1.4469337
1470 2.5296059
1468 3.5340247
1466 4.3551598
1464 4.9031954
1462 5.3668008
1460 5.8134341
1458 6.2686925
1456 6.74154
1454 7.096415
1452 7.258873
1450 7.2779298
1448 7.0936971
1446 6.8628035
1444 6.5710506
1442 6.2807531
1440 5.988812
1438 5.6763592
1436 5.3148746
1434 4.8416905
1432 4.2525697
1430 3.6239841
1428 3.0070081
1426 2.5209808
1424 2.1947749
1422 2.0435057
1420 2.0519431
1418 2.1866002
1416 2.3926885
1414 2.6153491
1412 2.8409178
1410 3.0625184
1408 3.305424
1406 3.5947051
1404 3.9238777
1402 4.3070331
1400 4.713716
1398 5.147954
1396 5.5636854
1394 5.9361358
1392 6.2269936
1390 6.3705606
1388 6.4041228
1386 6.2613649
1384 6.0115395
1382 5.6149921
1380 5.1634979
1378 4.6523571
1376 4.1420202
1374 3.6451142
1372 3.185364
1370 2.7726767
1368 2.4106486
1366 2.073822
1364 1.7129097
1362 1.3241658
1360 0.89769053
1358 0.49721491
1356 0.2040447
1354 0.01676094
1352 -0.010900503
1350 0.039118588
1348 0.16753791
1346 0.33052713
1344 0.53320801
1342 0.75687307
1340 1.0170212
1338 1.2698982
1336 1.50112
1334 1.6914914
1332 1.8071077
1330 1.92091
1328 2.0403297
1326 2.2070966
1324 2.4483953
1322 2.7402303
1320 3.0944638
1318 3.4670284
1316 3.8483698
1314 4.1973486
1312 4.4994121
1310 4.7348633
1308 4.9067979
1306 5.0220051
1304 5.0967631
1302 5.1428761
1300 5.1658859
1298 5.1570015
1296 5.1264286
1294 5.0635715
1292 5.0003319
1290 4.9552956
1288 4.9278121
1286 4.9392557
1284 4.9526873
1282 4.9639225
1280 4.9714355
1278 4.972064
1276 4.983911
1274 5.019413
1272 5.0701432
1270 5.14744
1268 5.2372189
1266 5.3454871
1264 5.4637613
1262 5.5926981
1260 5.7213101
1258 5.8471699
1256 5.9634542
1254 6.0697131
1252 6.1660872
1250 6.2555237
1248 6.342072
1246 6.4253254
1244 6.5016947
1242 6.5663457
1240 6.600141
1238 6.6050582
1236 6.5428343
1234 6.4399424
1232 6.2457361
1230 6.0157309
1228 5.6989264
1226 5.3532934
1224 4.9305105
1222 4.4848576
1220 3.986232
1218 3.4865708
1216 2.9899259
1214 2.5243361
1212 2.1161284
1210 1.754233
1208 1.4588474
1206 1.1929971
1204 0.96222758
1202 0.74698979
1200 0.55198538
1198 0.38579533
1196 0.24892929
1194 0.14966948
1192 0.078734577
1190 0.037271291
1188 0.013612553
1186 0.010045168
1184 0.022761136
1182 0.075270496
1180 0.16061242
1178 0.34305394
1176 0.56403804
1174 0.88744116
1172 1.2137001
1170 1.5256274
1168 1.797848
1166 1.9455435
1164 2.0479131
1162 2.038492
1160 2.0041807
1158 1.9194343
1156 1.8173686
1154 1.6835831
1152 1.5215578
1150 1.3185971
1148 1.0862978
1146 0.82504928
1144 0.57030147
1142 0.33231613
1140 0.1565585
1138 0.039146163
1136 0.0153962
1134 0.056721903
1132 0.19542229
1130 0.38017565
1128 0.61123431
1126 0.8435533
1124 1.0162647
1122 1.1558806
1120 1.1765679
1118 1.1830082
1116 1.1724786
1114 1.1799555
1112 1.2629595
1110 1.3448535
1108 1.4209732
1106 1.477905
1104 1.489184
1102 1.505511
1100 1.5324378
1098 1.5677257
1096 1.6134429
1094 1.6426294
1092 1.649398
1090 1.6371459
1088 1.6062018
1086 1.5731908
1084 1.5394803
1082 1.5124443
1080 1.4885702
1078 1.45831
1076 1.4209214
1074 1.3520303
1072 1.2690212
1070 1.157884
1068 1.0418452
1066 0.93591064
1064 0.83325124
1062 0.74547225
1060 0.65773654
1058 0.56596112
1056 0.48118031
1054 0.42767361
1052 0.38620001
1050 0.38226828
1048 0.37336388
1046 0.35129145
1044 0.31515515
1042 0.25226474
1040 0.18034509
1038 0.095288619
1036 0.0086396039
1034 -0.079383992
1032 -0.16352624
1030 -0.24444118
1028 -0.32799578
1026 -0.4139173
1024 -0.50605601
1022 -0.60165757
1020 -0.69923693
1018 -0.79505551
1016 -0.86329257
1014 -0.92031741
1012 -0.93528038
1010 -0.94263393
1008 -0.94448036
1006 -0.94537205
1004 -0.94049799
1002 -0.93377596
1000 -0.91501385
998 -0.89911956
996 -0.8957293
994 -0.89074194
992 -0.87993443
990 -0.85304576
988 -0.78936166
986 -0.72140259
984 -0.64775324
982 -0.60349751
980 -0.5991466
978 -0.6097005
976 -0.63363659
974 -0.62322843
972 -0.58425844
970 -0.52180851
968 -0.44639328
966 -0.395785
964 -0.35747024
962 -0.3415941
960 -0.33227319
958 -0.30772886
956 -0.27897042
954 -0.22783741
952 -0.1742948
950 -0.12723352
948 -0.07991986
946 -0.026167821
944 0.0013050847
942 0.040953964
940 0.1305792
938 0.2760357
936 0.40895599
934 0.50465226
932 0.57661259
930 0.59758615
928 0.59831816
926 0.56631035
924 0.51218957
922 0.43172699
920 0.37495121
918 0.34138104
916 0.39058787
914 0.49832281
912 0.62447631
910 0.75958455
908 0.8076793
906 0.82241839
904 0.79277474
902 0.75174761
900 0.73022747
898 0.71188325
896 0.69316
