##TITLE=Methyl Ethyl Ketone
##JCAMP-DX=4.24
##DATA TYPE=INFRARED SPECTRUM
##XUNITS=cm-1
##YUNITS=Absorbance
##FIRSTX=900
##LASTX=2300
##XYDATA=(X++(Y..Y))
2296 0.048
2294 0.048998572
2292 0.049997143
2290 0.050995715
2288 0.051994286
2286 0.052992858
2284 0.05399143
2282 0.054990001
2280 0.055988573
2278 0.056987144
2276 0.057985712
2274 0.058984287
2272 0.059982855
2270 0.06098143
2268 0.061979998
2266 0.062978573
2264 0.063977145
2262 0.064975709
2260 0.065974288
2258 0.066972859
2256 0.067971431
2254 0.068969995
2252 0.069968574
2250 0.070967145
2248 0.071965709
2246 0.072964281
2244 0.030823968
2242 0.00112617
2240 0.0060096961
2238 0.061683647
2236 0.12464796
2234 0.20988593
2232 0.29321152
2230 0.29797286
2228 0.29023734
2226 0.212871
2224 0.14090228
2222 0.10975286
2220 0.11511426
2218 0.22506602
2216 0.35108429
2214 0.49934658
2212 0.6022892
2210 0.62914562
2208 0.61576873
2206 0.55802894
2204 0.5073036
2202 0.46605203
2200 0.46330136
2198 0.48884711
2196 0.59308928
2194 0.74161685
2192 0.92659324
2190 1.1262852
2188 1.2239112
2186 1.2881129
2184 1.248932
2182 1.186587
2180 1.1548029
2178 1.1283166
2176 1.1481342
2174 1.171926
2172 1.191864
2170 1.2126189
2168 1.2404852
2166 1.2694979
2164 1.3002771
2162 1.3244507
2160 1.3311239
2158 1.3370086
2156 1.34498
2154 1.3575712
2152 1.3767532
2150 1.3741423
2148 1.3464137
2146 1.3131107
2144 1.2773194
2142 1.2875509
2140 1.3299078
2138 1.3693324
2136 1.40532
2134 1.3872929
2132 1.3466136
2130 1.3343723
2128 1.331816
2126 1.406015
2124 1.4977865
2122 1.5844239
2120 1.6664417
2118 1.6808023
2116 1.6786114
2114 1.6251301
2112 1.5573554
2110 1.4594178
2108 1.3580166
2106 1.2597001
2104 1.1941972
2102 1.1998552
2100 1.2521521
2098 1.364874
2096 1.4570999
2094 1.5105888
2092 1.4952031
2090 1.4141312
2088 1.3256189
2086 1.2386351
2084 1.2218663
2082 1.2512736
2080 1.336028
2078 1.4465797
2076 1.5475743
2074 1.6432881
2072 1.6941839
2070 1.7308532
2068 1.7139971
2066 1.6836094
2064 1.6157618
2062 1.5395031
2060 1.4514557
2058 1.361998
2056 1.2771171
2054 1.203063
2052 1.1645075
2050 1.1515814
2048 1.1867818
2046 1.2359357
2044 1.29369
2042 1.3327225
2040 1.340716
2038 1.3207071
2036 1.2741643
2034 1.2188362
2032 1.1596954
2030 1.102635
2028 1.0476711
2026 1.0141157
2024 0.9939521
2022 1.0315833
2020 1.0982014
2018 1.1516906
2016 1.19806
2014 1.1207945
2012 1.0021152
2010 0.87463784
2008 0.75302899
2006 0.75305957
2004 0.78598326
2002 0.83169371
2000 0.86659342
1998 0.84042913
1996 0.80451
1994 0.78553826
1992 0.7798292
1990 0.79465699
1988 0.78956199
1986 0.74110442
1984 0.67010516
1982 0.58203673
1980 0.52406716
1978 0.50438714
1976 0.53200144
1974 0.59566623
1972 0.66348124
1970 0.72885966
1968 0.752599
1966 0.75017804
1964 0.72487986
1962 0.68976873
1960 0.69988239
1958 0.73037493
1956 0.78557956
1954 0.84762675
1952 0.85857618
1950 0.85126996
1948 0.82634884
1946 0.80210751
1944 0.81143409
1942 0.83158201
1940 0.85351843
1938 0.86761576
1936 0.85991168
1934 0.84551412
1932 0.83053678
1930 0.80110186
1928 0.74850011
1926 0.65683568
1924 0.52239442
1922 0.3818388
1920 0.24687949
1918 0.17207751
1916 0.15057456
1914 0.19580963
1912 0.28289703
1910 0.38875663
1908 0.50147957
1906 0.59591085
1904 0.67975998
1902 0.72884887
1900 0.76233584
1898 0.77600604
1896 0.78235859
1894 0.79041326
1892 0.79087108
1890 0.73581022
1888 0.6471889
1886 0.50613433
1884 0.36031055
1882 0.25969827
1880 0.19237177
1878 0.16436644
1876 0.14457901
1874 0.1143702
1872 0.096539095
1870 0.1022685
1868 0.13882671
1866 0.20526206
1864 0.25659487
1862 0.2833795
1860 0.29082417
1858 0.28642443
1856 0.249832
1854 0.19023097
1852 0.027973223
1850 -0.2002719
1848 -0.49391001
1846 -0.82032537
1844 -0.98632711
1842 -1.0614567
1840 -0.92023849
1838 -0.67572057
1836 -0.41162771
1834 -0.14722496
1832 0.070603997
1830 0.2355344
1828 0.28555617
1826 0.24603893
1824 0.099582419
1822 -0.071846843
1820 -0.20284741
1818 -0.28958935
1816 -0.32753372
1814 -0.35975778
1812 -0.40960458
1810 -0.45439142
1808 -0.48563582
1806 -0.4773455
1804 -0.43169996
1802 -0.4575147
1800 -0.55796647
1798 -0.73826337
1796 -0.96943212
1794 -1.0352874
1792 -0.97721356
1790 -0.78549469
1788 -0.51900858
1786 -0.34487092
1784 -0.23245531
1782 -0.207278
1780 -0.2358368
1778 -0.30146539
1776 -0.36660141
1774 -0.34530213
1772 -0.24402352
1770 -0.029375494
1768 0.18612832
1766 0.26982191
1764 0.24761119
1762 0.13418044
1760 0.032055765
1758 -0.18115607
1756 -0.42983428
1754 -0.60404575
1752 -0.73103386
1750 -0.83247852
1748 -0.93381375
1746 -1.0432376
1744 -1.1851652
1742 -1.3555959
1740 -1.4993706
1738 -1.6155201
1736 -1.58526
1734 -1.446053
1732 -1.1953532
1730 -0.87828279
1728 -0.66511679
1726 -0.52443284
1724 -0.41082627
1722 -0.2784265
1720 0.085792854
1718 0.70955086
1716 1.6147871
1714 2.5927949
1712 3.3793068
1710 4.0083427
1708 4.5107322
1706 5.1009316
1704 5.9759555
1702 7.422348
1700 9.5878286
1698 12.741968
1696 16.883286
1694 21.202721
1692 25.306871
1690 28.916765
1688 32.046761
1686 35.514828
1684 39.441998
1682 44.017494
1680 49.112961
1678 53.648773
1676 57.657772
1674 61.655304
1672 65.713127
1670 70.323532
1668 75.327286
1666 80.190498
1664 84.898827
1662 89.365189
1660 93.560982
1658 97.40258
1656 100.79486
1654 103.5865
1652 105.601
1650 106.67776
1648 106.55251
1646 105.09035
1644 102.72552
1642 99.895981
1640 96.698593
1638 93.249741
1636 89.260872
1634 84.681961
1632 80.002571
1630 75.404099
1628 70.975807
1626 66.714104
1624 62.194241
1622 57.385597
1620 52.697865
1618 48.173191
1616 44.111801
1614 40.521488
1612 37.409496
1610 34.764629
1608 32.452396
1606 30.455086
1604 28.662596
1602 27.113752
1600 25.851435
1598 24.881758
1596 24.167999
1594 23.693058
1592 23.398565
1590 23.279667
1588 23.309429
1586 23.479765
1584 23.768612
1582 24.154131
1580 24.613956
1578 25.198128
1576 25.921629
1574 26.799707
1572 27.830311
1570 28.92157
1568 30.051281
1566 31.16173
1564 32.247131
1562 33.421112
1560 34.74963
1558 36.720943
1556 39.364902
1554 42.201401
1552 45.061989
1550 47.229088
1548 48.704372
1546 49.819607
1544 50.549881
1542 50.975746
1540 51.016941
1538 50.636974
1536 49.874542
1534 48.844994
1532 47.614975
1530 46.273262
1528 44.806221
1526 43.2085
1524 41.500298
1522 39.693256
1520 37.911152
1518 36.2136
1516 34.595345
1514 33.062588
1512 31.399441
1510 29.540802
1508 27.21841
1506 24.317507
1504 21.446972
1502 18.68248
1500 16.412493
1498 14.70416
1496 13.083714
1494 11.543075
1492 9.9735813
1490 8.3692484
1488 6.7379293
1486 5.1214366
1484 3.6079602
1482 2.2845922
1480 1.2504627
1478 0.53592134
1476 0.13704543
1474 0.15504436
1472 0.64307559
1470 1.328954
1468 2.0847845
1466 2.7562642
1464 3.2325852
1462 3.6189826
1460 3.9419484
1458 4.3072395
1456 4.7603397
1454 5.221981
1452 5.6778951
1450 5.9801822
1448 6.048697
1446 6.0075321
1444 5.8182063
1442 5.6073141
1440 5.3669114
1438 5.1093001
1436 4.81108
1434 4.4291291
1432 3.9581127
1430 3.4538944
1428 2.9608779
1426 2.5768027
1424 2.3379653
1422 2.2746551
1420 2.3902297
1418 2.6805637
1416 3.0832114
1414 3.540844
1412 3.9901018
1410 4.37393
1408 4.7044888
1406 4.969708
1404 5.1943407
1402 5.3707538
1400 5.5376239
1398 5.7004676
1396 5.8950572
1394 6.1458817
1392 6.3723831
1390 6.5442762
1388 6.5843592
1386 6.4167852
1384 6.135457
1382 5.7054405
1380 5.2496939
1378 4.7633247
1376 4.2690086
1374 3.7759824
1372 3.3142219
1370 2.8985279
1368 2.5444798
1366 2.2216079
1364 1.8657088
1362 1.4792616
1360 1.0634128
1358 0.67682952
1356 0.396741
1354 0.19858097
1352 0.10098723
1350 0.036270991
1348 -0.0067189801
1346 -0.030817073
1344 -0.0622642
1342 -0.087781422
1340 -0.098072283
1338 -0.084994152
1336 -0.02349543
1334 0.063637868
1332 0.19757918
1330 0.33949891
1328 0.49618405
1326 0.66665971
1324 0.86171973
1322 1.0884229
1320 1.356348
1318 1.6487817
1316 1.9623001
1314 2.26847
1312 2.555609
1310 2.7990081
1308 2.9963791
1306 3.1400492
1304 3.2412336
1302 3.3025181
1300 3.3380842
1298 3.349319
1296 3.3483429
1294 3.3359072
1292 3.3226674
1290 3.314333
1288 3.31496
1286 3.3374579
1284 3.3645663
1282 3.3999224
1280 3.4324136
1278 3.4605861
1276 3.5048044
1274 3.5842311
1272 3.7004776
1270 3.8813491
1268 4.1006756
1266 4.3792467
1264 4.6968231
1262 5.064682
1260 5.46134
1258 5.8846049
1256 6.3074484
1254 6.7310643
1252 7.1580667
1250 7.5936003
1248 8.0518713
1246 8.5113249
1244 8.9369345
1242 9.3188009
1240 9.5976496
1238 9.820611
1236 9.9530954
1234 10.046554
1232 10.06712
1230 10.048562
1228 9.9268293
1226 9.7551661
1224 9.4454565
1222 9.0861092
1220 8.6104126
1218 8.1203136
1216 7.6058717
1214 7.1104059
1212 6.6464295
1210 6.1910377
1208 5.7448006
1206 5.2880945
1204 4.817852
1202 4.3376217
1200 3.8512444
1198 3.377485
1196 2.9189498
1194 2.4876661
1192 2.078352
1190 1.6963949
1188 1.3432143
1186 1.0595218
1184 0.81985289
1182 0.66819245
1180 0.55150342
1178 0.49609274
1176 0.46928599
1174 0.52457917
1172 0.59761345
1170 0.71917909
1168 0.81635839
1166 0.83692485
1164 0.82384783
1162 0.73182249
1160 0.65231371
1158 0.60201639
1156 0.58594614
1154 0.62298977
1152 0.65747613
1150 0.68010265
1148 0.65275598
1146 0.56507927
1144 0.42718512
1142 0.25472969
1140 0.11971319
1138 0.028295131
1136 0.037721027
1134 0.11217633
1132 0.28363457
1130 0.5017817
1128 0.77013934
1126 1.0502886
1124 1.3203435
1122 1.5811663
1120 1.80296
1118 2.0225909
1116 2.2494886
1114 2.4672508
1112 2.6437325
1110 2.785429
1108 2.8159347
1106 2.8235149
1104 2.7767382
1102 2.7390277
1100 2.7271624
1098 2.7806036
1096 2.944
1094 3.1905465
1092 3.5375919
1090 3.8849227
1088 4.2288461
1086 4.5472465
1084 4.8406515
1082 5.0939703
1080 5.309442
1078 5.4237962
1076 5.4840388
1074 5.4813504
1072 5.4539342
1070 5.396071
1068 5.3274107
1066 5.2286291
1064 5.1244321
1062 5.0080676
1060 4.8877835
1058 4.7457385
1056 4.6115828
1054 4.513473
1052 4.4367523
1050 4.4265409
1048 4.406918
1046 4.3617144
1044 4.2839537
1042 4.1471033
1040 4.0158973
1038 3.8953123
1036 3.8024099
1034 3.73842
1032 3.6524417
1030 3.5385795
1028 3.3392553
1026 3.0727701
1024 2.7172
1022 2.3136911
1020 1.8935622
1018 1.4726543
1016 1.1127092
1014 0.77432591
1012 0.49306455
1010 0.22408894
1008 -0.015209094
1006 -0.24534658
1004 -0.39655891
1002 -0.53532606
1000 -0.59377515
998 -0.65113449
996 -0.70430571
994 -0.76789391
992 -0.86331934
990 -0.95537359
988 -1.0368942
986 -1.0723714
984 -1.0255272
982 -0.93127745
980 -0.77445579
978 -0.62454373
976 -0.48214087
974 -0.34670213
972 -0.21637583
970 -0.078450903
968 0.062029019
966 0.164341
964 0.24708596
962 0.28305718
960 0.3036477
958 0.31751135
956 0.3285687
954 0.308806
952 0.28232279
950 0.18372899
948 0.085651129
946 0.036625497
944 0.00042956602
942 0.013414862
940 0.040630039
938 0.078056782
936 0.15803885
934 0.36447936
932 0.64763582
930 1.093383
928 1.5110418
926 1.8820479
924 2.1520581
922 2.2972674
920 2.3094935
918 2.1973338
916 2.0144701
914 1.7840006
912 1.7307606
910 1.7725799
908 1.9708149
906 2.2280014
904 2.3678234
902 2.4762335
900 2.4606981
898 2.4252453
896 2.4568999
