##TITLE=Methyl Ethyl Ketone
##JCAMP-DX=4.24
##DATA TYPE=INFRARED SPECTRUM
##XUNITS=cm-1
##YUNITS=Absorbance
##FIRSTX=900
##LASTX=2300
##XYDATA=(X++(Y..Y))
2296 -0.081885003
2294 -0.083588563
2292 -0.085292131
2290 -0.086995691
2288 -0.088699251
2286 -0.090402812
2284 -0.092106372
2282 -0.09380994
2280 -0.0955135
2278 -0.097216077
2276 -0.09891963
2274 -0.10062319
2272 -0.10233068
2270 -0.10402843
2268 -0.1057358
2266 -0.10743357
2264 -0.10914092
2262 -0.11084847
2260 -0.11254629
2258 -0.11425358
2256 -0.11595143
2254 -0.1176587
2252 -0.11936626
2250 -0.12106414
2248 -0.12277137
2246 -0.12446929
2244 -0.0046254001
2242 0.090998255
2240 0.17678756
2238 0.13635536
2236 0.077328146
2234 0.046916664
2232 0.022991298
2230 0.097604834
2228 0.18064205
2226 0.29322749
2224 0.40491441
2222 0.50552583
2220 0.58355486
2218 0.59458554
2216 0.58659858
2214 0.54534501
2212 0.51566285
2210 0.50805455
2208 0.52303916
2206 0.56453025
2204 0.65952402
2202 0.80449265
2200 0.97817725
2198 1.1709011
2196 1.2863642
2194 1.3566895
2192 1.3370687
2190 1.2791808
2188 1.2443303
2186 1.2177508
2184 1.2661159
2182 1.3316768
2180 1.3654398
2178 1.39364
2176 1.3688457
2174 1.344574
2172 1.3809623
2170 1.4290171
2168 1.5115372
2166 1.5875263
2164 1.6273774
2162 1.6676948
2160 1.7181875
2158 1.7922494
2156 1.90897
2154 2.0259633
2152 2.1370242
2150 2.2190719
2148 2.2691526
2146 2.3004394
2144 2.3181303
2142 2.3341401
2140 2.3501172
2138 2.360594
2136 2.3680773
2134 2.3568738
2132 2.337996
2130 2.3230956
2128 2.309696
2126 2.3574758
2124 2.41956
2122 2.5343122
2120 2.6545892
2118 2.7229443
2116 2.7759271
2114 2.770159
2112 2.769429
2110 2.8287392
2108 2.9207354
2106 3.0847635
2104 3.2328377
2102 3.321945
2100 3.3393779
2098 3.2511084
2096 3.1439998
2094 3.0326743
2092 2.9694288
2090 2.9567947
2088 2.9635777
2086 2.9804552
2084 2.9986441
2082 3.0168178
2080 3.0511451
2078 3.0938797
2076 3.1237943
2074 3.1479578
2072 3.1562359
2070 3.1595318
2068 3.171385
2066 3.1847148
2064 3.1639571
2062 3.1341646
2060 3.0815423
2058 3.0355461
2056 3.0511343
2054 3.0897303
2052 3.1669033
2050 3.2378337
2048 3.2726755
2046 3.2923036
2044 3.2960742
2042 3.3176467
2040 3.3712652
2038 3.4397895
2036 3.5193272
2034 3.5760369
2032 3.6087258
2030 3.6128039
2028 3.5974605
2026 3.5883305
2024 3.5850663
2022 3.6125891
2020 3.6556089
2018 3.6834939
2016 3.70436
2014 3.6817276
2012 3.6448681
2010 3.5979712
2008 3.5482652
2006 3.4909835
2004 3.433826
2002 3.3902419
2000 3.3570387
1998 3.3529189
1996 3.3560357
1994 3.3584254
1992 3.3578041
1990 3.3517175
1988 3.3419881
1986 3.329345
1984 3.2950034
1982 3.2313898
1980 3.1374745
1978 3.01647
1976 2.8978057
1974 2.786423
1972 2.7129874
1970 2.6671238
1968 2.6794229
1966 2.7254608
1964 2.8051131
1962 2.8998826
1960 2.965028
1958 3.0163045
1956 3.0072
1954 2.9753859
1952 2.8963971
1950 2.8050158
1948 2.7343583
1946 2.683975
1944 2.7070091
1942 2.7528937
1940 2.8012638
1938 2.8290579
1936 2.8019114
1934 2.7523682
1932 2.6896422
1930 2.6100385
1928 2.5084622
1926 2.3750401
1924 2.2072582
1922 2.0520303
1920 1.9206594
1918 1.863029
1916 1.8678243
1914 1.9307078
1912 2.0272937
1910 2.1013749
1908 2.1563885
1906 2.1473534
1904 2.105036
1902 2.0527942
1900 1.9980289
1898 1.9733388
1896 1.9610572
1894 1.9506854
1892 1.9363749
1890 1.892011
1888 1.8286092
1886 1.7349501
1884 1.6316526
1882 1.5335773
1880 1.4464114
1878 1.3795143
1876 1.31848
1874 1.2534052
1872 1.1976063
1870 1.1565673
1868 1.1464415
1866 1.1714964
1864 1.192564
1862 1.200757
1860 1.18312
1858 1.1443719
1856 1.0758429
1854 0.98702037
1852 0.81585836
1850 0.59127122
1848 0.28816521
1846 -0.057240002
1844 -0.20782448
1842 -0.24744798
1840 0.0061926246
1838 0.391882
1836 0.7268151
1834 1.0115367
1832 1.15044
1830 1.2008853
1828 1.1696301
1826 1.1050186
1824 1.0498606
1822 1.0352795
1820 1.098178
1818 1.1904227
1816 1.2787086
1814 1.3036789
1812 1.2382578
1810 1.1249597
1808 0.9907375
1806 0.899427
1804 0.86017036
1802 0.76233196
1800 0.59734732
1798 0.32925874
1796 -0.0099449903
1794 -0.1801312
1792 -0.220258
1790 -0.074728221
1788 0.1792033
1786 0.35095608
1784 0.46491
1782 0.47377068
1780 0.41466027
1778 0.28663319
1776 0.13624001
1774 0.046792619
1772 0.044153418
1770 0.2213871
1768 0.43506056
1766 0.52732491
1764 0.48342839
1762 0.27634344
1760 0.065315425
1758 -0.22516055
1756 -0.50923014
1754 -0.67979753
1752 -0.81904095
1750 -0.97000957
1748 -1.1470196
1746 -1.3471535
1744 -1.5428011
1742 -1.7260506
1740 -1.8460314
1738 -1.9150676
1736 -1.87578
1734 -1.760813
1732 -1.5404618
1730 -1.2508302
1728 -0.96295804
1726 -0.68124235
1724 -0.44998044
1722 -0.23871139
1720 0.075367153
1718 0.56078595
1716 1.2889946
1714 2.112386
1712 2.8782902
1710 3.5678661
1708 4.1484761
1706 4.7701559
1704 5.5677385
1702 6.835866
1700 8.7401838
1698 11.715522
1696 15.847571
1694 20.34248
1692 24.777361
1690 28.705597
1688 32.082745
1686 35.682556
1684 39.64344
1682 44.178894
1680 49.1842
1678 53.623032
1676 57.5364
1674 61.480633
1672 65.529129
1670 70.266693
1668 75.497353
1666 80.580849
1664 85.445526
1662 89.809174
1660 93.682426
1658 97.04335
1656 99.896172
1654 102.24535
1652 103.9676
1650 104.95853
1648 104.87474
1646 103.49928
1644 101.26031
1642 98.588692
1640 95.596939
1638 92.397133
1636 88.636002
1634 84.239578
1632 79.674217
1630 75.124451
1628 70.772415
1626 66.630798
1624 62.28772
1622 57.706905
1620 53.17844
1618 48.739964
1616 44.693115
1614 41.060509
1612 37.954533
1610 35.36272
1608 33.131268
1606 31.227699
1604 29.496305
1602 27.97382
1600 26.703342
1598 25.707228
1596 24.978001
1594 24.493572
1592 24.189096
1590 24.025009
1588 23.945229
1586 23.954079
1584 24.043955
1582 24.221149
1580 24.480732
1578 24.867649
1576 25.393486
1574 26.102844
1572 27.004885
1570 28.044643
1568 29.20788
1566 30.374271
1564 31.5271
1562 32.695198
1560 33.940685
1558 35.856701
1556 38.504757
1554 41.565441
1552 44.848038
1550 47.394314
1548 49.166939
1546 50.415466
1544 51.116871
1542 51.415382
1540 51.289219
1538 50.820545
1536 50.068626
1534 49.161209
1532 48.11293
1530 46.941078
1528 45.59708
1526 44.048599
1524 42.319351
1522 40.425964
1520 38.63229
1518 37.071461
1516 35.677773
1514 34.446518
1512 32.914238
1510 30.933647
1508 28.338068
1506 25.006073
1504 21.887983
1502 19.108749
1500 16.886106
1498 15.27498
1496 13.657286
1494 12.023923
1492 10.359159
1490 8.6735754
1488 7.0153561
1486 5.4205995
1484 3.9425161
1482 2.6524453
1480 1.6163297
1478 0.85016418
1476 0.33739686
1474 0.17165077
1472 0.46579468
1470 1.060605
1468 1.8189738
1466 2.545125
1464 3.105108
1462 3.5326624
1460 3.810446
1458 4.0717249
1456 4.3541799
1454 4.7085567
1452 5.1721935
1450 5.5486937
1448 5.7831793
1446 5.9121251
1444 5.8908868
1442 5.8022151
1440 5.6098995
1438 5.3116617
1436 4.8829246
1434 4.3942804
1432 3.8700025
1430 3.4171276
1428 3.049418
1426 2.7513113
1424 2.5324726
1422 2.3886783
1420 2.3611829
1418 2.5070248
1416 2.8066514
1414 3.2562909
1412 3.7500272
1410 4.2025266
1408 4.6035213
1406 4.9257689
1404 5.2035074
1402 5.4335012
1400 5.6028843
1398 5.6748333
1396 5.7038569
1394 5.6720152
1392 5.6721044
1390 5.7258077
1388 5.764461
1386 5.768815
1384 5.6942043
1382 5.49962
1380 5.2126293
1378 4.7982841
1376 4.2900114
1374 3.6978202
1372 3.1321061
1370 2.6296151
1368 2.2513576
1366 1.9549999
1364 1.6422251
1362 1.2974517
1360 0.89629889
1358 0.50962114
1356 0.22476229
1354 0.039992727
1352 0.00015279988
1350 0.023096923
1348 0.092156768
1346 0.13606322
1344 0.133798
1342 0.10015394
1340 0.0092852563
1338 -0.059243668
1336 -0.074530572
1334 -0.052970618
1332 0.036833286
1330 0.11934321
1328 0.1922043
1326 0.26877671
1324 0.35716894
1322 0.48696876
1320 0.66875541
1318 0.88058221
1316 1.1171
1314 1.3427573
1312 1.5493103
1310 1.7175194
1308 1.847928
1306 1.9347258
1304 1.9863446
1302 2.002703
1300 1.991311
1298 1.9454318
1296 1.8750143
1294 1.769363
1292 1.6626105
1290 1.5750786
1288 1.522848
1286 1.5566314
1284 1.6189005
1282 1.7402992
1280 1.8611869
1278 1.9794421
1276 2.0840342
1274 2.161658
1272 2.2332978
1270 2.3006997
1268 2.3983216
1266 2.5448079
1264 2.7306886
1262 2.9673951
1260 3.2314219
1258 3.5327058
1256 3.8807199
1254 4.2777681
1252 4.7238197
1250 5.2028933
1248 5.6912551
1246 6.1745248
1244 6.6254478
1242 7.0412326
1240 7.3812304
1238 7.667542
1236 7.8461628
1234 7.9731221
1232 7.9964442
1230 7.9753141
1228 7.8423548
1226 7.6579471
1224 7.3319683
1222 6.9551826
1220 6.4582658
1218 5.9396162
1216 5.3803029
1214 4.8252077
1212 4.2794819
1210 3.7496817
1208 3.2490668
1206 2.7904286
1204 2.3830042
1202 2.0036852
1200 1.6438377
1198 1.2603856
1196 0.8574
1194 0.44360292
1192 0.037016004
1190 -0.31324631
1188 -0.61445773
1186 -0.81482822
1184 -0.9623884
1182 -1.0283035
1180 -1.0635643
1178 -1.0493699
1176 -1.012334
1174 -0.91003478
1172 -0.78938842
1170 -0.61247206
1168 -0.43630907
1166 -0.26429394
1164 -0.11381111
1162 -0.020192932
1160 0.032588407
1158 0.0025561713
1156 -0.053864323
1154 -0.14834839
1152 -0.2225059
1150 -0.264534
1148 -0.26907641
1146 -0.23118892
1144 -0.17140576
1142 -0.094399229
1140 -0.022514723
1138 0.042083886
1136 0.085858025
1134 0.1277197
1132 0.26648217
1130 0.46572542
1128 0.78782743
1126 1.1528171
1124 1.5667049
1122 1.9825819
1120 2.363512
1118 2.7223494
1116 2.9801271
1114 3.2122788
1112 3.3439479
1110 3.4637413
1108 3.54758
1106 3.6437149
1104 3.7716999
1102 3.9173415
1100 4.0953569
1098 4.2621284
1096 4.4115286
1094 4.5587649
1092 4.7137442
1090 4.9448085
1088 5.2604527
1086 5.6579151
1084 6.1087246
1082 6.4998503
1080 6.832531
1078 7.0010891
1076 7.0824957
1074 7.0661845
1072 7.0163178
1070 6.9533095
1068 6.885673
1066 6.8047457
1064 6.7258677
1062 6.6752443
1060 6.6364098
1058 6.6631923
1056 6.6799488
1054 6.6498899
1052 6.5757322
1050 6.3612962
1048 6.1304531
1046 5.864943
1044 5.6462502
1042 5.5154591
1040 5.4043527
1038 5.3188357
1036 5.2076802
1034 5.0648022
1032 4.8928852
1030 4.685605
1028 4.3791714
1026 3.9983022
1024 3.5484383
1022 3.0722289
1020 2.6945591
1018 2.3621087
1016 2.1086543
1014 1.8716763
1012 1.5838997
1010 1.2891257
1008 1.0136671
1006 0.75025773
1004 0.6083802
1002 0.47173423
1000 0.36370546
998 0.24936335
996 0.10744393
994 -0.033997446
992 -0.17403914
990 -0.31743199
988 -0.46924466
986 -0.63441813
984 -0.82291484
982 -1.0131557
980 -1.204326
978 -1.3695122
976 -1.5037342
974 -1.5674235
972 -1.569622
970 -1.4747759
968 -1.3177418
966 -1.0936655
964 -0.83924806
962 -0.58301103
960 -0.33187234
958 -0.20228049
956 -0.104031
954 -0.1282253
952 -0.1646252
950 -0.14013457
948 -0.11003611
946 -0.036266789
944 0.0010038167
942 0.030690629
940 0.075733766
938 0.18634279
936 0.31770229
934 0.50930727
932 0.68762332
930 0.83792239
928 0.99962634
926 1.181073
924 1.437976
922 1.7859843
920 2.1182547
918 2.4327333
916 2.5407672
914 2.5018759
912 2.3361371
910 2.1065199
908 2.1794147
906 2.3707614
904 3.0091228
902 3.7640331
900 4.4007678
898 5.0176973
896 5.0855999
