##TITLE=Methyl Ethyl Ketone
##JCAMP-DX=4.24
##DATA TYPE=INFRARED SPECTRUM
##XUNITS=cm-1
##YUNITS=Absorbance
##FIRSTX=900
##LASTX=2300
##XYDATA=(X++(Y..Y))
2296 -0.056332
2294 -0.057504322
2292 -0.058675647
2290 -0.059847966
2288 -0.061019298
2286 -0.062191613
2284 -0.063363932
2282 -0.064535275
2280 -0.065707579
2278 -0.066878922
2276 -0.068051226
2274 -0.069223553
2272 -0.070394889
2270 -0.0715672
2268 -0.072738536
2266 -0.07391084
2264 -0.075082183
2262 -0.076254487
2260 -0.077426814
2258 -0.078598164
2256 -0.079770461
2254 -0.080941811
2252 -0.082114108
2250 -0.083286427
2248 -0.084457785
2246 -0.085630067
2244 -0.0031821027
2242 0.083313555
2240 0.16850944
2238 0.24401416
2236 0.31812128
2234 0.4134213
2232 0.50988352
2230 0.59794182
2228 0.680668
2226 0.72421902
2224 0.75286001
2222 0.72251391
2220 0.68554056
2218 0.63804322
2216 0.61276913
2214 0.63734579
2212 0.66430241
2210 0.69033223
2208 0.67668271
2206 0.61361283
2204 0.53983915
2202 0.45878223
2200 0.41462708
2198 0.39841589
2196 0.40660286
2194 0.42779988
2192 0.45666301
2190 0.48851955
2188 0.55254149
2186 0.62695378
2184 0.72611123
2182 0.83080781
2180 0.87418473
2178 0.90733796
2176 0.85644972
2174 0.80027264
2172 0.77170199
2170 0.75208271
2168 0.76879585
2166 0.7745235
2164 0.7273066
2162 0.65580362
2160 0.53559589
2158 0.4201794
2156 0.323219
2154 0.25871643
2152 0.23846972
2150 0.23367126
2148 0.24107134
2146 0.23340072
2144 0.2112788
2142 0.2021952
2140 0.203256
2138 0.23624331
2136 0.28605971
2134 0.32477468
2132 0.35807186
2130 0.38320652
2128 0.4058964
2126 0.45430326
2124 0.50875759
2122 0.59624964
2120 0.69013768
2118 0.80656701
2116 0.91783142
2114 0.96635634
2112 0.97785664
2110 0.86550176
2108 0.72532976
2106 0.55594611
2104 0.41757137
2102 0.35718894
2100 0.3442266
2098 0.39153183
2096 0.45071286
2094 0.51384461
2092 0.5653286
2090 0.60416394
2088 0.61707002
2086 0.60996348
2084 0.55892342
2082 0.48068208
2080 0.38679382
2078 0.28659272
2076 0.24279971
2074 0.2227861
2072 0.26840919
2070 0.33445159
2068 0.41336599
2066 0.49474251
2064 0.55754638
2062 0.61429983
2060 0.64508772
2058 0.66561329
2056 0.65775257
2054 0.63897157
2052 0.60138673
2050 0.56321156
2048 0.5334301
2046 0.50595754
2044 0.47996321
2042 0.43868256
2040 0.37349075
2038 0.30881611
2036 0.24982886
2034 0.22062252
2032 0.21932548
2030 0.2188841
2028 0.21547465
2026 0.19643207
2024 0.16787246
2022 0.163166
2020 0.17172548
2018 0.18050803
2016 0.188492
2014 0.16283873
2012 0.12562278
2010 0.12559456
2008 0.13764948
2006 0.18458864
2004 0.23390532
2002 0.23804349
2000 0.22003463
1998 0.15693849
1996 0.084013782
1994 0.016441524
1992 -0.036029853
1990 -0.058545288
1988 -0.064965338
1986 -0.057430319
1984 -0.05783616
1982 -0.073873028
1980 -0.10653324
1978 -0.15333557
1976 -0.18684857
1974 -0.20486219
1972 -0.18940388
1970 -0.15047203
1968 -0.11269943
1966 -0.078459047
1964 -0.064599618
1962 -0.061558183
1960 -0.027107161
1958 0.021573229
1956 0.085459344
1954 0.15243325
1952 0.15719959
1950 0.13939416
1948 0.10179605
1946 0.066406503
1944 0.075458899
1942 0.1027353
1940 0.14115848
1938 0.17073695
1936 0.16722886
1934 0.14790826
1932 0.118145
1930 0.088570371
1928 0.065667696
1926 0.022459676
1924 -0.048758887
1922 -0.15016367
1920 -0.27707061
1918 -0.3511712
1916 -0.37349731
1914 -0.29048991
1912 -0.13587432
1910 0.056093253
1908 0.26374587
1906 0.39431944
1904 0.4810268
1902 0.42403796
1900 0.30187649
1898 0.14828785
1896 -0.0088142864
1894 -0.057096828
1892 -0.054373506
1890 0.00419835
1888 0.080307275
1886 0.13776657
1884 0.18674186
1882 0.23048845
1880 0.26122159
1878 0.26719135
1876 0.22794399
1874 0.12358299
1872 -0.014215536
1870 -0.16850625
1868 -0.26161093
1866 -0.2747995
1864 -0.21607256
1862 -0.10835656
1860 -0.021573938
1858 0.036079243
1856 0.023943745
1854 -0.035813145
1852 -0.19770125
1850 -0.42078468
1848 -0.71561319
1846 -1.0457032
1844 -1.1960694
1842 -1.2425122
1840 -1.0233502
1838 -0.6808849
1836 -0.33709699
1834 -0.01104252
1832 0.22718494
1830 0.39451554
1828 0.44580883
1826 0.42390665
1824 0.33359754
1822 0.2483104
1820 0.23389579
1818 0.26960921
1816 0.3473317
1814 0.39783591
1812 0.38846684
1810 0.32987007
1808 0.2348392
1806 0.14905
1804 0.084245667
1802 -0.041338474
1800 -0.22638226
1798 -0.47773093
1796 -0.77130431
1794 -0.87918639
1792 -0.85162318
1790 -0.62811667
1788 -0.29359844
1786 -0.038503964
1784 0.15692137
1782 0.23000574
1780 0.21981454
1778 0.11269563
1776 -0.041584883
1774 -0.17612171
1772 -0.24148166
1770 -0.12896048
1768 0.054913133
1766 0.19821686
1764 0.26513541
1762 0.22146589
1760 0.07159429
1758 -0.1739516
1756 -0.40156245
1754 -0.55090088
1752 -0.72417605
1750 -0.95846653
1748 -1.3021934
1746 -1.7444679
1744 -2.1700983
1742 -2.5585601
1740 -2.7857189
1738 -2.8810077
1736 -2.7690799
1734 -2.5111697
1732 -2.0779889
1730 -1.5363059
1728 -1.0735103
1726 -0.6822955
1724 -0.41811278
1722 -0.22520009
1720 0.076479316
1718 0.57208669
1716 1.3645782
1714 2.28579
1712 3.1376874
1710 3.8721063
1708 4.4299278
1706 4.9916897
1704 5.7327428
1702 6.9839172
1700 8.930706
1698 12.011986
1696 16.290714
1694 20.91461
1692 25.439571
1690 29.390955
1688 32.739811
1686 36.327507
1684 40.305511
1682 45.047272
1680 50.422482
1678 55.249878
1676 59.546001
1674 63.722656
1672 67.885765
1670 72.707413
1668 78.002853
1666 83.158096
1664 88.094376
1662 92.521454
1660 96.462357
1658 99.930824
1656 102.89457
1654 105.29617
1652 106.925
1650 107.58617
1648 107.08526
1646 105.34178
1644 102.86552
1642 100.14362
1640 97.164413
1638 93.9636
1636 90.131699
1634 85.573997
1632 80.79142
1630 75.985466
1628 71.330208
1626 66.848953
1624 62.117081
1622 57.103844
1620 52.217503
1618 47.500721
1616 43.285057
1614 39.582661
1612 36.438904
1610 33.836109
1608 31.602827
1606 29.708279
1604 27.997477
1602 26.506462
1600 25.273966
1598 24.315775
1596 23.6145
1594 23.161514
1592 22.908417
1590 22.845905
1588 22.940041
1586 23.162508
1584 23.477474
1582 23.84026
1580 24.220566
1578 24.682545
1576 25.250458
1574 25.990467
1572 26.914061
1570 27.959791
1568 29.10976
1566 30.295944
1564 31.510683
1562 32.791592
1560 34.197777
1558 36.212616
1556 38.896843
1554 41.926502
1552 45.118023
1550 47.614841
1548 49.361706
1546 50.569107
1544 51.197269
1542 51.35725
1540 51.053341
1538 50.390873
1536 49.465115
1534 48.450386
1532 47.341938
1530 46.160683
1528 44.82618
1526 43.279751
1524 41.483475
1522 39.407726
1520 37.342968
1518 35.415527
1516 33.710545
1514 32.279324
1512 30.67972
1510 28.80459
1508 26.416643
1506 23.399887
1504 20.487646
1502 17.765226
1500 15.538337
1498 13.86691
1496 12.246572
1494 10.672039
1492 9.0665874
1490 7.4438758
1488 5.8525987
1486 4.3535237
1484 3.0440779
1482 1.9671195
1480 1.1429451
1478 0.56012648
1476 0.16823472
1474 0.11381646
1472 0.48860252
1470 1.088195
1468 1.8406602
1466 2.5111134
1464 2.9481616
1462 3.228349
1460 3.3526008
1458 3.5598686
1456 3.9456799
1454 4.491188
1452 5.241509
1450 5.8208418
1448 6.1205525
1446 6.250989
1444 6.147615
1442 5.9710269
1440 5.6893668
1438 5.3124685
1436 4.8225412
1434 4.2736611
1432 3.6993279
1430 3.2170236
1428 2.8400941
1426 2.5574393
1424 2.3635378
1422 2.2295065
1420 2.2060056
1418 2.3540232
1416 2.6764743
1414 3.1924548
1412 3.7540298
1410 4.2544794
1408 4.6625509
1406 4.9272614
1404 5.129631
1402 5.2720013
1400 5.3883162
1398 5.471118
1396 5.5290284
1394 5.5443387
1392 5.5567441
1390 5.5551009
1388 5.5203962
1386 5.4249549
1384 5.260169
1382 4.9927778
1380 4.6546364
1378 4.226265
1376 3.745703
1374 3.2344413
1372 2.7763259
1370 2.3903439
1368 2.0916834
1366 1.8322914
1364 1.5204414
1362 1.1676128
1360 0.78395945
1358 0.43369222
1356 0.20055506
1354 0.052747346
1352 0.0096456576
1350 0.023795761
1348 0.10386995
1346 0.20209715
1344 0.30894318
1342 0.39131203
1340 0.42005545
1338 0.45688179
1336 0.51564056
1334 0.61776036
1332 0.78878343
1330 0.96317601
1328 1.1419948
1326 1.3219442
1324 1.5123683
1322 1.7285324
1320 1.9803486
1318 2.249269
1316 2.5280399
1314 2.780761
1312 2.9919229
1310 3.1402612
1308 3.2377782
1306 3.3135428
1304 3.3823473
1302 3.4659319
1300 3.548003
1298 3.6061304
1296 3.6485572
1294 3.6670094
1292 3.6886215
1290 3.7324116
1288 3.789108
1286 3.8709557
1284 3.9631002
1282 4.0766244
1280 4.1955218
1278 4.3249531
1276 4.4474831
1274 4.5605493
1272 4.6871905
1270 4.8451209
1268 5.0510769
1266 5.3253484
1264 5.6250067
1262 5.9524455
1260 6.2827582
1258 6.6266227
1256 7.0133996
1254 7.4487562
1252 7.9428511
1250 8.4754171
1248 9.0159798
1246 9.5441504
1244 10.015407
1242 10.43704
1240 10.76396
1238 11.035949
1236 11.214343
1234 11.344726
1232 11.373321
1230 11.34191
1228 11.14986
1226 10.898829
1224 10.489068
1222 10.050079
1220 9.537425
1218 9.0035429
1216 8.4238024
1214 7.8147717
1212 7.1613469
1210 6.5174394
1208 5.895916
1206 5.324955
1204 4.8116722
1202 4.3137708
1200 3.8236532
1198 3.3080008
1196 2.7761285
1194 2.2523143
1192 1.7458487
1190 1.2933092
1188 0.88633025
1186 0.56998652
1184 0.31421879
1182 0.18539767
1180 0.11327551
1178 0.15548667
1176 0.227548
1174 0.35739368
1172 0.48666188
1170 0.59945476
1168 0.69416916
1166 0.73179334
1164 0.74661922
1162 0.70435619
1160 0.64276403
1158 0.54478133
1156 0.45193958
1154 0.36998737
1152 0.30497485
1150 0.2595495
1148 0.202262
1146 0.13156465
1144 0.0541545
1142 -0.015900869
1140 -0.01525332
1138 0.053531542
1136 0.23829572
1134 0.49749482
1132 0.82908523
1130 1.1905611
1128 1.5637742
1126 1.9386585
1124 2.3052568
1122 2.6671896
1120 3.011976
1118 3.3439693
1116 3.6155543
1114 3.8552933
1112 3.9647663
1110 4.0482974
1108 4.0536346
1106 4.0857201
1104 4.1894093
1102 4.3529468
1100 4.6361246
1098 4.9662309
1096 5.370986
1094 5.8043594
1092 6.2723022
1090 6.7410564
1088 7.2009573
1086 7.5922432
1084 7.9163408
1082 8.1313753
1080 8.2780533
1078 8.3949814
1076 8.4998055
1074 8.6136503
1072 8.7218351
1070 8.7694502
1068 8.7992525
1066 8.7974834
1064 8.7922878
1062 8.791975
1060 8.7799101
1058 8.6902142
1056 8.5809374
1054 8.385354
1052 8.1759863
1050 7.9215751
1048 7.6492672
1046 7.3335929
1044 7.0091515
1042 6.669848
1040 6.3429146
1038 6.0320992
1036 5.70856
1034 5.3673511
1032 4.9929638
1030 4.5920148
1028 4.2151909
1026 3.860522
1024 3.5626147
1022 3.2969429
1020 3.0610893
1018 2.8389282
1016 2.6416371
1014 2.4514902
1012 2.2666376
1010 2.0785563
1008 1.8434479
1006 1.6014829
1004 1.3257631
1002 1.0581546
1000 0.84843409
998 0.64969879
996 0.49832213
994 0.33455202
992 0.13166204
990 -0.083873063
988 -0.32699367
986 -0.54999822
984 -0.73435795
982 -0.85802346
980 -0.89515978
978 -0.83748859
976 -0.67785889
974 -0.44110596
972 -0.14179671
970 0.18192333
968 0.52030218
966 0.85440147
964 1.1830918
962 1.4429106
960 1.6706429
958 1.6935788
956 1.6635942
954 1.4270539
952 1.1632404
950 0.84219003
948 0.52287149
946 0.26178557
944 0.027673509
942 -0.0021277294
940 -0.060185239
938 0.085643962
936 0.25168484
934 0.47629556
932 0.67674732
930 0.82470578
928 0.92855799
926 0.96091604
924 0.9374454
922 0.84593529
920 0.73240995
918 0.59953535
916 0.53640884
914 0.52329475
912 0.58313775
910 0.68132997
908 0.74512845
906 0.79581672
904 0.79248166
902 0.77599502
900 0.92170197
898 1.0940238
896 1.5301
