##TITLE=Methyl Ethyl Ketone
##JCAMP-DX=4.24
##DATA TYPE=INFRARED SPECTRUM
##XUNITS=cm-1
##YUNITS=Absorbance
##FIRSTX=900
##LASTX=2300
##XYDATA=(X++(Y..Y))
2296 0.055998001
2294 0.057163332
2292 0.058328666
2290 0.059493005
2288 0.060658332
2286 0.061822671
2284 0.062987991
2282 0.064153336
2280 0.065317668
2278 0.066482991
2276 0.067648329
2274 0.068813667
2272 0.069978014
2270 0.071138427
2268 0.072307579
2266 0.073487669
2264 0.074637689
2262 0.075747043
2260 0.076966532
2258 0.078339569
2256 0.079303749
2254 0.079691842
2252 0.081602372
2250 0.085662171
2248 0.084058747
2246 0.068984039
2244 0.042041861
2242 0.0072081536
2240 -0.0326517
2238 -0.075170703
2236 -0.11862352
2234 -0.15945446
2232 -0.18607143
2230 -0.18822239
2228 -0.17062099
2226 -0.1430155
2224 -0.11795262
2222 -0.10625143
2220 -0.10847877
2218 -0.12321977
2216 -0.15321429
2214 -0.20158072
2212 -0.26785481
2210 -0.34708896
2208 -0.42082441
2206 -0.46953085
2204 -0.48623794
2202 -0.47127613
2200 -0.43886194
2198 -0.40502369
2196 -0.37592569
2194 -0.35390863
2192 -0.33850983
2190 -0.32966372
2188 -0.33243534
2186 -0.3507708
2184 -0.3773708
2182 -0.4019264
2180 -0.4166216
2178 -0.41761434
2176 -0.41362286
2174 -0.4162533
2172 -0.43225303
2170 -0.46397382
2168 -0.50268501
2166 -0.53541744
2164 -0.54690462
2162 -0.52654833
2160 -0.48561257
2158 -0.44505933
2156 -0.43513101
2154 -0.48057571
2152 -0.57125974
2150 -0.68196225
2148 -0.77486646
2146 -0.81715643
2144 -0.81307495
2142 -0.78163528
2140 -0.74869817
2138 -0.73572499
2136 -0.73764884
2134 -0.74254221
2132 -0.74922168
2130 -0.76296937
2128 -0.79853719
2126 -0.86781287
2124 -0.9572103
2122 -1.0441593
2120 -1.108144
2118 -1.1337808
2116 -1.1237643
2114 -1.08797
2112 -1.0373869
2110 -0.98365694
2108 -0.93860501
2106 -0.91300702
2104 -0.91218793
2102 -0.93753999
2100 -0.98275399
2098 -1.0377461
2096 -1.0889
2094 -1.1235684
2092 -1.1382805
2090 -1.1350534
2088 -1.1226206
2086 -1.1104
2084 -1.1004537
2082 -1.0921381
2080 -1.0857412
2078 -1.0821826
2076 -1.0839758
2074 -1.0928143
2072 -1.105908
2070 -1.1180791
2068 -1.1228462
2066 -1.1142071
2064 -1.0907921
2062 -1.0548514
2060 -1.0162405
2058 -0.98578769
2056 -0.96729314
2054 -0.9596743
2052 -0.95464879
2050 -0.94343871
2048 -0.9272908
2046 -0.91170573
2044 -0.90161461
2042 -0.89963979
2040 -0.90081024
2038 -0.89825952
2036 -0.890894
2034 -0.88006902
2032 -0.86633468
2030 -0.84863883
2028 -0.82129139
2026 -0.77872324
2024 -0.72423214
2022 -0.66733551
2020 -0.6266008
2018 -0.62080657
2016 -0.65349001
2014 -0.7175259
2012 -0.79076403
2010 -0.84760886
2008 -0.87527418
2006 -0.86936873
2004 -0.83467466
2002 -0.78047532
2000 -0.7187956
1998 -0.66164464
1996 -0.61655998
1994 -0.58681053
1992 -0.56677806
1990 -0.54737461
1988 -0.52207017
1986 -0.48798907
1984 -0.45159873
1982 -0.42284152
1980 -0.40778989
1978 -0.40884197
1976 -0.42189488
1974 -0.44027022
1972 -0.4591184
1970 -0.475274
1968 -0.48792607
1966 -0.49690601
1964 -0.50014734
1962 -0.49484167
1960 -0.4794232
1958 -0.45489651
1956 -0.43015227
1954 -0.41686642
1952 -0.42173377
1950 -0.44548866
1948 -0.47537595
1946 -0.49370247
1944 -0.49034324
1942 -0.46358588
1940 -0.4290112
1938 -0.40775928
1936 -0.40743998
1934 -0.42586511
1932 -0.452133
1930 -0.47453627
1928 -0.4953168
1926 -0.52275372
1924 -0.55764705
1922 -0.59411067
1920 -0.61749578
1918 -0.6120345
1916 -0.57608831
1914 -0.51707929
1912 -0.44684201
1910 -0.37714636
1908 -0.31194606
1906 -0.25093427
1904 -0.1947712
1902 -0.14585115
1900 -0.11003111
1898 -0.092551529
1896 -0.087635003
1894 -0.083712354
1892 -0.071814708
1890 -0.046919409
1888 -0.012303059
1886 0.024513921
1884 0.057454195
1882 0.082033746
1880 0.095236488
1878 0.094801091
1876 0.078534499
1874 0.045524679
1872 0.00063825212
1870 -0.046464302
1868 -0.080018669
1866 -0.084538303
1864 -0.060354043
1862 -0.018520715
1860 0.025814332
1858 0.057863217
1856 0.071028858
1854 0.063456193
1852 0.031592548
1850 -0.027012259
1848 -0.10291728
1846 -0.17777035
1844 -0.22689591
1842 -0.22886834
1840 -0.19084303
1838 -0.13830021
1836 -0.097365111
1834 -0.086491615
1832 -0.096760951
1830 -0.1025806
1828 -0.080632672
1826 -0.017222553
1824 0.073207572
1822 0.16034463
1820 0.2221148
1818 0.24713016
1816 0.23892258
1814 0.21013179
1812 0.17439315
1810 0.14455026
1808 0.13147537
1806 0.13977
1804 0.15140171
1802 0.13455033
1800 0.062559359
1798 -0.075049818
1796 -0.23922858
1794 -0.36014128
1792 -0.37723681
1790 -0.25722703
1788 -0.043853264
1786 0.17368436
1784 0.33365834
1782 0.40686461
1780 0.39668581
1778 0.32571959
1776 0.21544029
1774 0.087170213
1772 -0.023657318
1770 -0.079114959
1768 -0.077371404
1766 -0.042980976
1764 0.0021775197
1762 0.036920786
1760 0.018143984
1758 -0.098151013
1756 -0.28401786
1754 -0.46867651
1752 -0.63435221
1750 -0.80599409
1748 -0.99316597
1746 -1.1866071
1744 -1.3716862
1742 -1.5327199
1740 -1.6561248
1738 -1.7280903
1736 -1.7250201
1734 -1.622329
1732 -1.4255406
1730 -1.1665531
1728 -0.88880044
1726 -0.63476586
1724 -0.41717362
1722 -0.2185545
1720 0.0091701671
1718 0.33028743
1716 0.79066515
1714 1.4050975
1712 2.1242018
1710 2.8666828
1708 3.62551
1706 4.4722085
1704 5.537992
1702 7.0140753
1700 9.198513
1698 12.367189
1696 16.314428
1694 20.453701
1692 24.286053
1690 27.542519
1688 30.405252
1686 33.387115
1684 36.935257
1682 41.261784
1680 45.98336
1678 50.350502
1676 54.138672
1674 57.659885
1672 61.334576
1670 65.502663
1668 70.084816
1666 74.6745
1664 78.996483
1662 82.962143
1660 86.556435
1658 89.796753
1656 92.69632
1654 95.249184
1652 97.403244
1650 99.059158
1648 100.0685
1646 100.29429
1644 99.808601
1642 98.827621
1640 97.378571
1638 95.289856
1636 92.398132
1634 88.642815
1632 84.242203
1630 79.61779
1628 75.000153
1626 70.390961
1624 65.73864
1622 61.008266
1620 56.290359
1618 51.781391
1616 47.630943
1614 43.916077
1612 40.667953
1610 37.878773
1608 35.499142
1606 33.4524
1604 31.687662
1602 30.186102
1600 28.932755
1598 27.906685
1596 27.076
1594 26.40436
1592 25.872326
1590 25.47938
1588 25.232971
1586 25.141085
1584 25.190041
1582 25.347939
1580 25.60006
1578 25.957138
1576 26.450771
1574 27.1199
1572 27.975231
1570 28.99172
1568 30.120081
1566 31.292278
1564 32.438492
1562 33.527206
1560 34.713375
1558 36.307064
1556 38.437901
1554 40.967541
1552 43.541687
1550 45.691257
1548 47.2388
1546 48.34425
1544 49.144783
1542 49.674496
1540 49.956219
1538 50.020824
1536 49.882717
1534 49.535549
1532 48.985897
1530 48.254036
1528 47.333321
1526 46.187649
1524 44.789406
1522 43.139404
1520 41.305588
1518 39.421295
1516 37.600685
1514 35.892406
1512 34.19772
1510 32.278156
1508 29.963165
1506 27.235516
1504 24.283041
1502 21.464287
1500 18.981735
1498 16.795639
1496 14.786428
1494 12.815277
1492 10.819443
1490 8.8405581
1488 6.9470587
1486 5.2110372
1484 3.699188
1482 2.4607215
1480 1.4928548
1478 0.74956977
1476 0.26747099
1474 0.17833371
1472 0.52169192
1470 1.1887434
1468 2.0187423
1466 2.8386843
1464 3.5452304
1462 4.1286645
1460 4.5974917
1458 4.9616795
1456 5.2533603
1454 5.5251842
1452 5.7925758
1450 6.0171828
1448 6.1566081
1446 6.1827178
1444 6.0914326
1442 5.9034729
1440 5.6263571
1438 5.2432308
1436 4.7365227
1434 4.1033177
1432 3.3905115
1430 2.7029424
1428 2.125844
1426 1.6963714
1424 1.4197937
1422 1.2742729
1420 1.2471898
1418 1.3453262
1416 1.5702
1414 1.908066
1412 2.3318853
1410 2.8026581
1408 3.2904336
1406 3.7810807
1404 4.2584505
1402 4.6985569
1400 5.0776839
1398 5.3780217
1396 5.5997639
1394 5.7659202
1392 5.8936872
1390 5.9828358
1388 6.0213642
1386 5.98733
1384 5.8674908
1382 5.6643701
1380 5.3810291
1378 5.0171361
1376 4.5806656
1374 4.0951395
1372 3.597064
1370 3.1319945
1368 2.7139709
1366 2.307303
1364 1.8764317
1362 1.4090004
1360 0.93300343
1358 0.52551687
1356 0.241175
1354 0.079486236
1352 0.014149211
1350 0.00027478999
1348 0.0049711056
1346 0.021176785
1344 0.04792136
1342 0.085535005
1340 0.13934931
1338 0.22097731
1336 0.33556628
1334 0.47404286
1332 0.61569941
1330 0.72903603
1328 0.79827034
1326 0.83804423
1324 0.87245089
1322 0.92834139
1320 1.0235243
1318 1.1586397
1316 1.32481
1314 1.5038353
1312 1.6757892
1310 1.8228954
1308 1.9354975
1306 2.0177186
1304 2.0778258
1302 2.125283
1300 2.1656134
1298 2.197536
1296 2.2223001
1294 2.2491078
1292 2.2911391
1290 2.3637493
1288 2.476352
1286 2.6258256
1284 2.8022199
1282 2.9890175
1280 3.1701207
1278 3.3344102
1276 3.4776843
1274 3.607301
1272 3.7390337
1270 3.8988464
1268 4.1113577
1266 4.3928399
1264 4.7490826
1262 5.169488
1260 5.6388979
1258 6.1412792
1256 6.665123
1254 7.2076306
1252 7.7677584
1250 8.3439274
1248 8.9303904
1246 9.5143499
1244 10.081443
1242 10.618301
1240 11.110571
1238 11.541851
1236 11.892057
1234 12.130592
1232 12.22652
1230 12.156855
1228 11.912731
1226 11.513907
1224 10.990663
1222 10.377778
1220 9.7070293
1218 9.0000038
1216 8.2748337
1214 7.5493655
1212 6.8419952
1210 6.1717496
1208 5.5500498
1206 4.9720263
1204 4.4243517
1202 3.8848631
1200 3.3357913
1198 2.7735898
1196 2.2026072
1194 1.636341
1192 1.0901555
1190 0.57871145
1188 0.11630361
1186 -0.28336573
1184 -0.60867953
1182 -0.85247546
1180 -1.010552
1178 -1.08341
1176 -1.07662
1174 -1.0047746
1172 -0.88763976
1170 -0.75083518
1168 -0.61759663
1166 -0.50236374
1164 -0.41357303
1162 -0.35082179
1160 -0.31027234
1158 -0.28506756
1156 -0.26780701
1154 -0.25182283
1152 -0.23331913
1150 -0.21452576
1148 -0.1976292
1146 -0.1810475
1144 -0.15923858
1142 -0.11993305
1140 -0.052453339
1138 0.0470431
1136 0.18628886
1134 0.3843857
1132 0.64911401
1130 0.95540255
1128 1.2751458
1126 1.5923328
1124 1.8986757
1122 2.1971021
1120 2.4914119
1118 2.780539
1116 3.0619786
1114 3.3332348
1112 3.5930109
1110 3.8439794
1108 4.0899153
1106 4.3350401
1104 4.5827618
1102 4.8337479
1100 5.0888314
1098 5.351017
1096 5.6252999
1094 5.9207006
1092 6.243288
1090 6.5893521
1088 6.9504471
1086 7.3126478
1084 7.6628785
1082 7.9930139
1080 8.2944784
1078 8.5539513
1076 8.7579384
1074 8.895772
1072 8.9616423
1070 8.9609623
1068 8.9022951
1066 8.7951536
1064 8.6518278
1062 8.4914694
1060 8.3326988
1058 8.1871996
1056 8.0562916
1054 7.9170947
1052 7.7428293
1050 7.5125999
1048 7.2183347
1046 6.8846607
1044 6.5452423
1042 6.2370982
1040 5.9852486
1038 5.7773213
1036 5.5880704
1034 5.3814855
1032 5.1283903
1030 4.8270998
1028 4.4839034
1026 4.1091123
1024 3.7133698
1022 3.305572
1020 2.8993745
1018 2.522604
1016 2.1981885
1014 1.9239041
1012 1.6830752
1010 1.4346323
1008 1.1433672
1006 0.80993861
1004 0.45100528
1002 0.10461375
1000 -0.19420967
998 -0.43667591
996 -0.62461996
994 -0.7730301
992 -0.89990294
990 -1.0222286
988 -1.1525817
986 -1.2905008
984 -1.425112
982 -1.524393
980 -1.554726
978 -1.4962026
976 -1.3421829
974 -1.1196591
972 -0.86221266
970 -0.59839427
968 -0.35062417
966 -0.12519404
964 0.074438184
962 0.2408461
960 0.36556366
958 0.43999553
956 0.45724899
954 0.41686729
952 0.32593721
950 0.21231866
948 0.10705666
946 0.033966627
944 0.009279592
942 0.028336287
940 0.074694619
938 0.10857545
936 0.098360859
934 0.063042395
932 0.033019327
930 0.034174051
928 0.085335895
926 0.18340693
924 0.3220498
922 0.50301534
920 0.72282934
918 0.95066494
916 1.1482357
914 1.2752664
912 1.3027784
910 1.247968
908 1.1449814
906 1.0500722
904 1.0187622
902 1.0825329
900 1.2534806
898 1.4913595
896 1.7426
