##TITLE=Methyl Ethyl Ketone
##JCAMP-DX=4.24
##DATA TYPE=INFRARED SPECTRUM
##XUNITS=cm-1
##YUNITS=Absorbance
##FIRSTX=900
##LASTX=2300
##XYDATA=(X++(Y..Y))
2296 -0.028569
2294 -0.029164148
2292 -0.029758299
2290 -0.030352451
2288 -0.030946601
2286 -0.031540748
2284 -0.032135893
2282 -0.03273005
2280 -0.033324201
2278 -0.033918347
2276 -0.034512497
2274 -0.035106648
2272 -0.035701782
2270 -0.03629595
2268 -0.036890101
2266 -0.037484247
2264 -0.038078398
2262 -0.038673528
2260 -0.0392677
2258 -0.03986185
2256 -0.040456001
2254 -0.041050147
2252 -0.04164527
2250 -0.04223945
2248 -0.0428336
2246 -0.04342775
2244 -0.00161382
2242 0.0013045624
2240 0.0063130916
2238 -0.028460205
2236 -0.069119141
2234 -0.074139588
2232 -0.073978946
2230 -0.015487158
2228 0.045127269
2226 0.1004342
2224 0.14530657
2222 0.14377302
2220 0.13364892
2218 0.10496861
2216 0.085180745
2214 0.087117165
2212 0.10470916
2210 0.14577498
2208 0.18409514
2206 0.21718143
2204 0.22943634
2202 0.2219222
2200 0.21178286
2198 0.2006454
2196 0.21823643
2194 0.25244305
2192 0.30256468
2190 0.35918444
2188 0.39523783
2186 0.42445478
2184 0.4388364
2182 0.44989324
2180 0.46665573
2178 0.48427066
2176 0.49912685
2174 0.51181811
2172 0.50284779
2170 0.48871142
2168 0.45670936
2166 0.42847401
2164 0.4203389
2162 0.42904699
2160 0.47576874
2158 0.53504616
2156 0.61082101
2154 0.68311542
2152 0.7479248
2150 0.7930268
2148 0.81679976
2146 0.8216514
2144 0.81175309
2142 0.80423552
2140 0.79945254
2138 0.7948603
2136 0.79020369
2134 0.77035719
2132 0.74408996
2130 0.72807115
2128 0.71550721
2126 0.73923624
2124 0.77136749
2122 0.81880671
2120 0.86747777
2118 0.8947655
2116 0.91487771
2114 0.90413988
2112 0.88663858
2110 0.85890001
2108 0.83206856
2106 0.81252074
2104 0.79901719
2102 0.79652059
2100 0.8003732
2098 0.81215566
2096 0.82208145
2094 0.82808506
2092 0.82487196
2090 0.81271052
2088 0.8047955
2086 0.8013885
2084 0.82181942
2082 0.85756201
2080 0.9038074
2078 0.95454407
2076 0.98015571
2074 0.99510223
2072 0.98516202
2070 0.96755445
2068 0.95171797
2066 0.93644863
2064 0.9169206
2062 0.89626652
2060 0.8719644
2058 0.84947169
2056 0.84088284
2054 0.83662933
2052 0.83826202
2050 0.84373695
2048 0.85633647
2046 0.87027073
2044 0.88422364
2042 0.87898815
2040 0.84448624
2038 0.79750627
2036 0.74194032
2034 0.71515042
2032 0.71782404
2030 0.7449708
2028 0.78741616
2026 0.82149726
2024 0.84871387
2022 0.86649358
2020 0.87996095
2018 0.87415111
2016 0.86036801
2014 0.81554693
2012 0.76038784
2010 0.7188347
2008 0.68304169
2006 0.68069571
2004 0.68780494
2002 0.70191675
2000 0.71837389
1998 0.73793197
1996 0.75516355
1994 0.76343274
1992 0.75777256
1990 0.72509074
1988 0.68323082
1986 0.6359725
1984 0.59562969
1982 0.56670994
1980 0.55064911
1978 0.54649979
1976 0.56304431
1974 0.59654766
1972 0.65052867
1970 0.71770519
1968 0.7729761
1966 0.81912178
1964 0.815786
1962 0.78688347
1960 0.74070877
1958 0.68833297
1956 0.65539002
1954 0.62953085
1952 0.60260767
1950 0.57483011
1948 0.54581296
1946 0.51690751
1944 0.49014235
1942 0.46063271
1940 0.41633746
1938 0.3666434
1936 0.31411457
1934 0.27214864
1932 0.25411081
1930 0.25052097
1928 0.25994131
1926 0.26616365
1924 0.26408336
1922 0.25912249
1920 0.25290719
1918 0.25606748
1916 0.26706272
1914 0.28781506
1912 0.3147561
1910 0.32605797
1908 0.32679111
1906 0.28694355
1904 0.22560599
1902 0.16462165
1900 0.10470207
1898 0.092772365
1896 0.10175086
1894 0.13948426
1892 0.18492688
1890 0.2055026
1888 0.20517424
1886 0.15458772
1884 0.080163941
1882 -0.010211533
1880 -0.099269256
1878 -0.17112519
1876 -0.215331
1874 -0.21796711
1872 -0.17131229
1870 -0.070252478
1868 0.038364477
1866 0.13348946
1864 0.16271074
1862 0.1248615
1860 0.04842522
1858 -0.046427175
1856 -0.1384916
1854 -0.22442532
1852 -0.27726564
1850 -0.30801344
1848 -0.27699441
1846 -0.21100357
1844 -0.14057025
1842 -0.071263969
1840 -0.068104953
1838 -0.097766958
1836 -0.13643715
1834 -0.17222139
1832 -0.16649988
1830 -0.13982677
1828 -0.10601515
1826 -0.08692421
1824 -0.11940371
1822 -0.18394016
1820 -0.27120119
1818 -0.35268429
1816 -0.40696287
1814 -0.43968627
1812 -0.45475623
1810 -0.46210316
1808 -0.46772486
1806 -0.4506245
1804 -0.41035628
1802 -0.35516965
1800 -0.29117206
1798 -0.23912881
1796 -0.19801214
1794 -0.15167898
1792 -0.1012852
1790 -0.061625276
1788 -0.03039065
1786 -0.020562477
1784 -0.022847565
1782 -0.018905232
1780 -0.0093789799
1778 0.01752219
1776 0.060495399
1774 0.13293365
1772 0.21368608
1770 0.26890218
1768 0.28430435
1766 0.23032586
1764 0.1525598
1762 0.093071096
1760 0.028111668
1758 -0.056911089
1756 -0.1141761
1754 -0.1211805
1752 -0.063780822
1750 0.051946122
1748 0.15706488
1746 0.23080036
1744 0.19446823
1742 0.059221376
1740 -0.082775384
1738 -0.21239285
1736 -0.232954
1734 -0.16985214
1732 -0.097483329
1730 -0.028654972
1728 -0.053396754
1726 -0.13667512
1724 -0.17838077
1722 -0.1618651
1720 0.018954352
1718 0.34744543
1716 0.87370956
1714 1.4936097
1712 2.0440891
1710 2.5469701
1708 3.0301521
1706 3.66113
1704 4.5950475
1702 6.0733261
1700 8.2127886
1698 11.178738
1696 14.929572
1694 18.782391
1692 22.415937
1690 25.713442
1688 28.71324
1686 32.236805
1684 36.363331
1682 41.263065
1680 46.77084
1678 51.619568
1676 55.845772
1674 60.002991
1672 64.213341
1670 69.365166
1668 75.246292
1666 81.257057
1664 87.201881
1662 92.468231
1660 96.993752
1658 100.58012
1656 103.13885
1654 104.53525
1652 104.75661
1650 103.87369
1648 102.15794
1646 99.957146
1644 97.518997
1642 95.064507
1640 92.255478
1638 88.944298
1636 84.788002
1634 79.754883
1632 74.608131
1630 69.623116
1628 65.015671
1626 60.784473
1624 56.5126
1622 52.141064
1620 47.903507
1618 43.814919
1616 39.999886
1614 36.478798
1612 33.377548
1610 30.714651
1608 28.496462
1606 26.701672
1604 25.188515
1602 23.959055
1600 22.967617
1598 22.222557
1596 21.697498
1594 21.383837
1592 21.237663
1590 21.233786
1588 21.328695
1586 21.514343
1584 21.775988
1582 22.106789
1580 22.497292
1578 22.986158
1576 23.584515
1574 24.315285
1572 25.177776
1570 26.147795
1568 27.21736
1566 28.374386
1564 29.622246
1562 31.09585
1560 32.888081
1558 35.567047
1556 39.190987
1554 43.163063
1552 47.264683
1550 50.511135
1548 52.940113
1546 55.064823
1544 56.903889
1542 58.595055
1540 59.91254
1538 60.551968
1536 60.4044
1534 59.461937
1532 57.991142
1530 56.335125
1528 54.556789
1526 52.713402
1524 50.780785
1522 48.740627
1520 46.558605
1518 44.205158
1516 41.859184
1514 39.581192
1512 37.348282
1510 35.166916
1508 32.5354
1506 29.317385
1504 26.103376
1502 22.959562
1500 20.30394
1498 18.184681
1496 16.064571
1494 13.933643
1492 11.754786
1490 9.5464993
1488 7.3815231
1486 5.3300529
1484 3.5008321
1482 1.9937471
1480 0.90091807
1478 0.24680206
1476 0.056354471
1474 0.41193879
1472 1.2485411
1470 2.2596259
1468 3.2628629
1466 4.1234322
1464 4.7401137
1462 5.2591248
1460 5.7257128
1458 6.184155
1456 6.6437998
1454 7.0125537
1452 7.2328424
1450 7.307497
1448 7.1710796
1446 6.9689569
1444 6.6815643
1442 6.4009099
1440 6.1255956
1438 5.8319826
1436 5.4920444
1434 5.0406833
1432 4.4760427
1430 3.8794022
1428 3.2970181
1426 2.8365493
1424 2.5252542
1422 2.3780415
1420 2.3847063
1418 2.5187631
1416 2.727277
1414 2.957664
1412 3.1905446
1410 3.4148588
1408 3.6583776
1406 3.9472594
1404 4.2811489
1402 4.6788878
1400 5.0973558
1398 5.5353017
1396 5.9463711
1394 6.3005462
1392 6.5788121
1390 6.718555
1388 6.7488446
1386 6.6036949
1384 6.3524742
1382 5.9596715
1380 5.5287189
1378 5.0602612
1376 4.6056399
1374 4.1726608
1372 3.7615042
1370 3.3747773
1368 3.0084176
1366 2.6383064
1364 2.2227125
1362 1.7642351
1360 1.2606542
1358 0.7815246
1356 0.41427755
1354 0.15213054
1352 0.044249326
1350 0.020023022
1348 0.085318416
1346 0.19383216
1344 0.38129199
1342 0.60500914
1340 0.88913655
1338 1.1617342
1336 1.4018342
1334 1.595345
1332 1.7023197
1330 1.799854
1328 1.8889359
1326 2.0112307
1324 2.1913497
1322 2.4273684
1320 2.7388353
1318 3.0946398
1316 3.4830401
1314 3.835628
1312 4.129673
1310 4.328721
1308 4.4438114
1306 4.4980378
1304 4.5104771
1302 4.4972558
1300 4.4632435
1298 4.3999109
1296 4.3255572
1294 4.2457013
1292 4.1765704
1290 4.1387844
1288 4.1123676
1286 4.1035109
1284 4.093472
1282 4.0770435
1280 4.0638995
1278 4.0588818
1276 4.0647197
1274 4.0923886
1272 4.1275301
1270 4.1769195
1268 4.2368298
1266 4.3133435
1264 4.4038839
1262 4.5092239
1260 4.6136618
1258 4.7159467
1256 4.8133454
1254 4.9093108
1252 5.0134187
1250 5.1248369
1248 5.2440262
1246 5.3627501
1244 5.4661102
1242 5.5490408
1240 5.5827389
1238 5.5816059
1236 5.5108728
1234 5.4073024
1232 5.2389522
1230 5.0406461
1228 4.7659202
1226 4.4546218
1224 4.0435171
1222 3.6064072
1220 3.1101122
1218 2.619132
1216 2.1428599
1214 1.6958249
1212 1.3010248
1210 0.93943584
1208 0.62712663
1206 0.34426188
1204 0.10122956
1202 -0.10347913
1200 -0.26661807
1198 -0.39517134
1196 -0.496445
1194 -0.58682603
1192 -0.66560513
1190 -0.72156793
1188 -0.75593942
1186 -0.7424742
1184 -0.7012763
1182 -0.61038405
1180 -0.48688182
1178 -0.27620721
1176 -0.025326401
1174 0.34030741
1172 0.71309137
1170 1.0848202
1168 1.4094126
1166 1.5862986
1164 1.7037909
1162 1.674723
1160 1.6108217
1158 1.4788421
1156 1.3416972
1154 1.1988084
1152 1.0701578
1150 0.95883209
1148 0.84294319
1146 0.71668607
1144 0.55873775
1142 0.3760671
1140 0.20158646
1138 0.048143528
1136 -0.0228462
1134 -0.032679997
1132 0.085077718
1130 0.26099274
1128 0.48609754
1126 0.7119692
1124 0.87148446
1122 0.9946636
1120 0.9878996
1118 0.96158677
1116 0.8957597
1114 0.85522491
1112 0.92441994
1110 1.0190039
1108 1.191728
1106 1.3534399
1104 1.4856669
1102 1.5908164
1100 1.6414357
1098 1.6676128
1096 1.6537286
1094 1.6181314
1092 1.5570461
1090 1.5018991
1088 1.4572034
1086 1.44837
1084 1.4664097
1082 1.4834789
1080 1.4924165
1078 1.448738
1076 1.3776928
1074 1.2800592
1072 1.1763389
1070 1.0914453
1068 1.0101006
1066 0.92468381
1064 0.83547962
1062 0.72264498
1060 0.61252606
1058 0.52738959
1056 0.44766915
1054 0.39119625
1052 0.33105946
1050 0.2600635
1048 0.19601765
1046 0.14992107
1044 0.11948337
1042 0.1167031
1040 0.10443829
1038 0.075687274
1036 0.018502399
1034 -0.073522031
1032 -0.19505022
1030 -0.34395441
1028 -0.50803697
1026 -0.67822087
1024 -0.80500513
1022 -0.90363729
1020 -0.943349
1018 -0.96105403
1016 -0.98497599
1014 -1.0130779
1012 -1.0689294
1010 -1.1302023
1008 -1.1989601
1006 -1.2673
1004 -1.3230734
1002 -1.3750141
1000 -1.4013829
998 -1.4241172
996 -1.4305999
994 -1.42685
992 -1.3910909
990 -1.3422158
988 -1.263832
986 -1.1887257
984 -1.1197091
982 -1.0585978
980 -1.0078664
978 -0.95206249
976 -0.89041483
974 -0.81744808
972 -0.73619694
970 -0.66739351
968 -0.60752445
966 -0.575257
964 -0.5558086
962 -0.54398066
960 -0.53435075
958 -0.51791906
956 -0.49839646
954 -0.44103143
952 -0.377332
950 -0.27071229
948 -0.16220319
946 -0.053251717
944 0.0012467317
942 0.039147213
940 0.12562259
938 0.26943308
936 0.4173483
934 0.57684231
932 0.71672773
930 0.8141551
928 0.88106847
926 0.89895976
924 0.89849579
922 0.87582123
920 0.85330552
918 0.83119464
916 0.82722557
914 0.83629525
912 0.86790955
910 0.91130841
908 0.93004215
906 0.93917888
904 0.8886022
902 0.82263637
900 0.7681998
898 0.71579385
896 0.73243999
