##TITLE=Methyl Ethyl Ketone
##JCAMP-DX=4.24
##DATA TYPE=INFRARED SPECTRUM
##XUNITS=cm-1
##YUNITS=Absorbance
##FIRSTX=900
##LASTX=2300
##XYDATA=(X++(Y..Y))
2296 -0.082662001
2294 -0.084382541
2292 -0.086102083
2290 -0.087821618
2288 -0.08954116
2286 -0.091260701
2284 -0.092980243
2282 -0.094699785
2280 -0.09641932
2278 -0.098139852
2276 -0.099859402
2274 -0.10158288
2272 -0.10330051
2270 -0.10501806
2268 -0.1067356
2266 -0.10845314
2264 -0.11018046
2262 -0.11189823
2260 -0.11361577
2258 -0.11533331
2256 -0.11706057
2254 -0.1187784
2252 -0.12049595
2250 -0.12221349
2248 -0.12393103
2246 -0.12565821
2244 -0.0046695997
2242 0.054692786
2240 0.099513881
2238 0.081384301
2236 0.054084841
2234 0.048625134
2232 0.045307439
2230 0.054194897
2228 0.063526437
2226 0.072031245
2224 0.084373794
2222 0.11463716
2220 0.14254303
2218 0.16046169
2216 0.165984
2214 0.14564271
2212 0.120202
2210 0.088894151
2208 0.0656588
2206 0.052924763
2204 0.058989774
2202 0.082488321
2200 0.11255823
2198 0.1466606
2196 0.17185715
2194 0.19178201
2192 0.21218714
2190 0.23297212
2188 0.24197899
2186 0.24714264
2184 0.2322028
2182 0.21269147
2180 0.19735037
2178 0.18271311
2176 0.17119429
2174 0.15923007
2172 0.1389762
2170 0.1174813
2168 0.093582548
2166 0.070561327
2164 0.051696118
2162 0.039761797
2160 0.044481147
2158 0.061750777
2156 0.099543102
2154 0.13279748
2152 0.15639338
2150 0.16212372
2148 0.14888214
2146 0.15017179
2144 0.16608435
2142 0.20632121
2140 0.26248163
2138 0.31232017
2136 0.35782114
2134 0.4152855
2132 0.47784713
2130 0.55212277
2128 0.6299448
2126 0.63962871
2124 0.63344228
2122 0.583206
2120 0.52926832
2118 0.53460908
2116 0.55077475
2114 0.58388937
2112 0.6115545
2110 0.6037845
2108 0.59631169
2106 0.6054284
2104 0.63160008
2102 0.69015902
2100 0.7381832
2098 0.76058239
2096 0.74832284
2094 0.69582355
2092 0.6539191
2090 0.62907183
2088 0.65665984
2086 0.72522205
2084 0.78552777
2082 0.83653855
2080 0.80215335
2078 0.72365445
2076 0.60866326
2074 0.48077914
2072 0.44739962
2070 0.44508415
2068 0.56503069
2066 0.71440244
2064 0.85226744
2062 0.97939509
2060 1.0164466
2058 1.030573
2056 1.0165601
2054 1.0001891
2052 0.99671859
2050 0.99208415
2048 0.97943723
2046 0.95879924
2044 0.92647982
2042 0.90000671
2040 0.88446409
2038 0.87403679
2036 0.86566871
2034 0.83551681
2032 0.78412914
2030 0.72430998
2028 0.66173959
2026 0.63901573
2024 0.64275455
2022 0.70000702
2020 0.78344268
2018 0.85925657
2016 0.92977399
2014 0.93130434
2012 0.9087097
2010 0.87127894
2008 0.83158952
2006 0.82115489
2004 0.81734473
2002 0.81084359
2000 0.80430102
1998 0.80516189
1996 0.81312215
1994 0.83979583
1992 0.86285561
1990 0.86290807
1988 0.85133284
1986 0.82337338
1984 0.81463355
1982 0.83821714
1980 0.87749642
1978 0.92856157
1976 0.96051002
1974 0.9737882
1972 0.98072135
1970 0.98673517
1968 0.98279297
1966 0.97241658
1964 0.92054623
1962 0.84581524
1960 0.76974159
1958 0.69382721
1956 0.64828885
1954 0.61280507
1952 0.5691964
1950 0.52168792
1948 0.48288378
1946 0.46025252
1944 0.50557226
1942 0.58276635
1940 0.680215
1938 0.76360881
1936 0.78985888
1934 0.78087288
1932 0.74156797
1930 0.68582278
1928 0.62410158
1926 0.55763441
1924 0.49098012
1922 0.44923902
1920 0.43105114
1918 0.45510641
1916 0.50597072
1914 0.57813799
1912 0.66250747
1910 0.7379443
1908 0.80796146
1906 0.83819962
1904 0.84604877
1902 0.82502621
1900 0.78994238
1898 0.7885164
1896 0.80286998
1894 0.86148834
1892 0.93429118
1890 0.97769839
1888 0.99691713
1886 0.95083535
1884 0.87561417
1882 0.78353786
1880 0.69279754
1878 0.62413824
1876 0.572519
1874 0.54862052
1872 0.54323816
1870 0.55803049
1868 0.58408976
1866 0.60395902
1864 0.61087763
1862 0.59482193
1860 0.56411463
1858 0.5300979
1856 0.4869563
1854 0.44247726
1852 0.3687937
1850 0.280525
1848 0.1579808
1846 0.02242443
1844 -0.072399527
1842 -0.13777876
1840 -0.10948864
1838 -0.03770557
1836 0.063945442
1834 0.17560899
1832 0.30011493
1830 0.42883062
1828 0.54208195
1826 0.62633556
1824 0.62584084
1822 0.57473695
1820 0.49199417
1818 0.4165675
1816 0.38801801
1814 0.37779909
1812 0.37529191
1810 0.35711384
1808 0.3133339
1806 0.2788375
1804 0.26091352
1802 0.23617449
1800 0.20634726
1798 0.15244004
1796 0.081776924
1794 0.092899993
1792 0.1574052
1790 0.28710416
1788 0.44517425
1786 0.51942879
1784 0.53541338
1782 0.48923019
1780 0.40567622
1778 0.3252812
1776 0.25758171
1774 0.2392329
1772 0.26216537
1770 0.30542672
1768 0.33769751
1766 0.30273151
1764 0.2253572
1762 0.14213187
1760 0.042164057
1758 -0.070757881
1756 -0.15702929
1754 -0.19759023
1752 -0.21544297
1750 -0.21757591
1748 -0.27221143
1746 -0.39362785
1744 -0.59068322
1742 -0.85623091
1740 -1.0730788
1738 -1.2321157
1736 -1.1981601
1734 -1.0138482
1732 -0.74251622
1730 -0.43087277
1728 -0.28119519
1726 -0.25159627
1724 -0.23045623
1722 -0.1889483
1720 0.001802966
1718 0.30810148
1716 0.77722955
1714 1.3209151
1712 1.7306097
1710 2.0428193
1708 2.3236921
1706 2.7464037
1704 3.4926212
1702 4.8406696
1700 6.9234304
1698 10.036845
1696 14.150143
1694 18.425791
1692 22.463953
1690 26.021049
1688 29.144114
1686 32.697392
1684 36.794064
1682 41.562973
1680 46.844761
1678 51.375427
1676 55.212471
1674 58.953476
1672 62.711273
1670 67.120766
1668 71.984016
1666 76.577652
1664 80.822952
1662 84.42482
1660 87.453667
1658 90.035934
1656 92.221855
1654 94.113838
1652 95.684982
1650 96.914734
1648 97.55777
1646 97.386108
1644 96.531151
1642 95.201729
1640 93.327957
1638 90.969337
1636 87.753227
1634 83.628372
1632 79.163109
1630 74.594238
1628 70.221024
1626 66.097961
1624 61.83836
1622 57.404911
1620 53.040802
1618 48.771667
1616 44.803486
1614 41.153687
1612 37.943985
1610 35.168842
1608 32.75322
1606 30.671442
1604 28.77846
1602 27.120289
1600 25.753645
1598 24.705175
1596 23.972
1594 23.518522
1592 23.253965
1590 23.152172
1588 23.162151
1586 23.28615
1584 23.518618
1582 23.847179
1580 24.263811
1578 24.84236
1576 25.604799
1574 26.603752
1572 27.83223
1570 29.170704
1568 30.5842
1566 31.945492
1564 33.242512
1562 34.584904
1560 36.037647
1558 38.097366
1556 40.811501
1554 43.689579
1552 46.552608
1550 48.737762
1548 50.259434
1546 51.543999
1544 52.628147
1542 53.651428
1540 54.518898
1538 55.027439
1536 55.052231
1534 54.515808
1532 53.581173
1530 52.525402
1528 51.377224
1526 50.164101
1524 48.80389
1522 47.228264
1520 45.527279
1518 43.699188
1516 41.88443
1514 40.136761
1512 38.245602
1510 36.182404
1508 33.575428
1506 30.28755
1504 27.023136
1502 23.838247
1500 21.164686
1498 19.057699
1496 16.980713
1494 14.932523
1492 12.848188
1490 10.731902
1488 8.5929956
1486 6.4871264
1484 4.5276937
1482 2.8148057
1480 1.4972762
1478 0.58981198
1476 0.10938799
1474 0.14592022
1472 0.60923338
1470 1.2700074
1468 1.9887166
1466 2.6187158
1464 3.0894704
1462 3.5241668
1460 3.9809601
1458 4.548408
1456 5.2763
1454 5.9845643
1452 6.6048498
1450 7.025701
1448 7.143889
1446 7.1737967
1444 7.0852041
1442 6.9627728
1440 6.7955399
1438 6.5703588
1436 6.2696028
1434 5.8600607
1432 5.3483605
1430 4.8131433
1428 4.2859678
1426 3.8742523
1424 3.5940423
1422 3.4554062
1420 3.4580553
1418 3.5704181
1416 3.7717686
1414 4.0379682
1412 4.3319597
1410 4.6622753
1408 5.0144768
1406 5.3980699
1404 5.7848544
1402 6.1484694
1400 6.464004
1398 6.6888032
1396 6.8682427
1394 6.9686756
1392 7.0578704
1390 7.0983624
1388 7.0684924
1386 6.91289
1384 6.6442523
1382 6.2228718
1380 5.7488456
1378 5.2213941
1376 4.6902118
1374 4.1798267
1372 3.708272
1370 3.2852242
1368 2.9170063
1366 2.5606022
1364 2.15923
1362 1.7215228
1360 1.2450805
1358 0.79666001
1356 0.45807987
1354 0.20456547
1352 0.075861588
1350 0.015335491
1348 0.044889871
1346 0.13805115
1344 0.276548
1342 0.42375481
1340 0.58342254
1338 0.73491776
1336 0.86049372
1334 0.97360855
1332 1.035466
1330 1.093086
1328 1.1475635
1326 1.2389457
1324 1.4031851
1322 1.6200821
1320 1.9105937
1318 2.2164121
1316 2.5334201
1314 2.8236077
1312 3.0679681
1310 3.2549407
1308 3.3726463
1306 3.4223437
1304 3.4170573
1302 3.36252
1300 3.2836394
1298 3.1865718
1296 3.0900714
1294 3.0027337
1292 2.9311049
1290 2.8917441
1288 2.8795838
1286 2.9244678
1284 2.9872839
1282 3.0824306
1280 3.177273
1278 3.271476
1276 3.3775187
1274 3.5121891
1272 3.6635652
1270 3.8445597
1268 4.0239468
1266 4.199554
1264 4.3778095
1262 4.5594649
1260 4.7586298
1258 4.9720898
1256 5.1786628
1254 5.3740497
1252 5.5485926
1250 5.7169404
1248 5.9105721
1246 6.1266747
1244 6.3722563
1242 6.6198792
1240 6.8336239
1238 7.0145006
1236 7.1189814
1234 7.174984
1232 7.1208801
1230 7.0116959
1228 6.7601109
1226 6.4610167
1224 6.0353236
1222 5.5715365
1220 5.0168905
1218 4.4460406
1216 3.84886
1214 3.2850618
1212 2.7865229
1210 2.3542299
1208 2.0176954
1206 1.7273586
1204 1.488368
1202 1.2610264
1200 1.0451441
1198 0.83395338
1196 0.628775
1194 0.43288621
1192 0.24579744
1190 0.073456511
1188 -0.08304444
1186 -0.20130643
1184 -0.29245767
1182 -0.32399949
1180 -0.3242476
1178 -0.25030804
1176 -0.14674938
1174 0.036862195
1172 0.23090135
1170 0.44490397
1168 0.64501041
1166 0.79991192
1164 0.93930233
1162 1.0396559
1160 1.1255314
1158 1.1789324
1156 1.1987572
1154 1.1592103
1152 1.07296
1150 0.92366588
1148 0.74897295
1146 0.55084425
1144 0.36786669
1142 0.20582062
1140 0.092110276
1138 0.020053076
1136 -0.00045805826
1134 0.015054278
1132 0.11610897
1130 0.26198709
1128 0.47250098
1126 0.6977911
1124 0.90935999
1122 1.0994738
1120 1.1885159
1118 1.2535324
1116 1.2394886
1114 1.2350532
1112 1.2777697
1110 1.3453865
1108 1.4889491
1106 1.61261
1104 1.679612
1102 1.6759207
1100 1.5353892
1098 1.3773937
1096 1.2039143
1094 1.1101111
1092 1.12516
1090 1.2333956
1088 1.4366965
1086 1.6819879
1084 1.9579886
1082 2.2248619
1080 2.4798949
1078 2.685533
1076 2.8536458
1074 2.9100175
1072 2.9130566
1070 2.7961028
1068 2.6524806
1066 2.5100844
1064 2.378464
1062 2.3262968
1060 2.2800813
1058 2.2469378
1056 2.203577
1054 2.1156299
1052 2.0229213
1050 1.917192
1048 1.8298228
1046 1.7878035
1044 1.766054
1042 1.7791687
1040 1.7762052
1038 1.7485921
1036 1.70637
1034 1.6496418
1032 1.6080091
1030 1.5764339
1028 1.5051317
1026 1.3989679
1024 1.2103977
1022 0.9772594
1020 0.72762638
1018 0.47537172
1016 0.26655895
1014 0.076730154
1012 -0.032655224
1010 -0.12189302
1008 -0.1385632
1006 -0.1522695
1004 -0.20364781
1002 -0.26609078
1000 -0.40178427
998 -0.53195179
996 -0.63691425
994 -0.72256601
992 -0.74925572
990 -0.77479565
988 -0.79849184
986 -0.83113718
984 -0.87869889
982 -0.92996097
980 -0.9856782
978 -1.0432026
976 -1.1012143
974 -1.1297953
972 -1.1324385
970 -1.0873674
968 -1.0122025
966 -0.92059648
964 -0.8212148
962 -0.71681422
960 -0.61044639
958 -0.48811859
956 -0.36247927
954 -0.23149344
952 -0.10250613
950 -0.034455016
948 0.025694039
946 0.0093626492
944 0.0022610268
942 0.0018743016
940 0.064620674
938 0.3056908
936 0.55873311
934 0.84568763
932 1.0760311
930 1.1846285
928 1.2371589
926 1.1999292
924 1.14016
922 1.0525454
920 0.92529017
918 0.7612685
916 0.61198884
914 0.47397873
912 0.42629027
910 0.4270595
908 0.41500005
906 0.39957565
904 0.34439245
902 0.28063267
900 0.32557997
898 0.38845149
896 0.43143001
