##TITLE=Methyl Ethyl Ketone
##JCAMP-DX=4.24
##DATA TYPE=INFRARED SPECTRUM
##XUNITS=cm-1
##YUNITS=Absorbance
##FIRSTX=900
##LASTX=2300
##XYDATA=(X++(Y..Y))
2296 0.081152
2294 0.082840584
2292 0.084528171
2290 0.086216748
2288 0.08790534
2286 0.089592934
2284 0.091281511
2282 0.092970088
2280 0.094657689
2278 0.096346259
2276 0.098034844
2274 0.099722445
2272 0.10141101
2270 0.10309861
2268 0.10478619
2266 0.10647378
2264 0.10816137
2262 0.10984895
2260 0.11153654
2258 0.11322413
2256 0.11492143
2254 0.1166093
2252 0.11829688
2250 0.11998447
2248 0.12167206
2246 0.12335964
2244 0.051209569
2242 0.0018677829
2240 -0.019110719
2238 0.027760839
2236 0.084566697
2234 0.15327959
2232 0.22240566
2230 0.28202677
2228 0.33745304
2226 0.36348149
2224 0.3783789
2222 0.34956914
2220 0.32108063
2218 0.3008998
2216 0.30348659
2214 0.35482016
2212 0.4250032
2210 0.5212037
2208 0.61050391
2206 0.68920672
2204 0.76466578
2202 0.83758795
2200 0.93828672
2198 1.0597858
2196 1.1707286
2194 1.2748375
2192 1.3066536
2190 1.3071212
2188 1.2653791
2186 1.2106686
2184 1.150548
2182 1.0894834
2180 1.0456131
2178 1.0051051
2176 1.0211743
2174 1.0431741
2172 1.0743569
2170 1.101861
2168 1.1026646
2166 1.1089407
2164 1.1449229
2162 1.1989688
2160 1.2914257
2158 1.372103
2156 1.42292
2154 1.4392017
2152 1.4100869
2150 1.3798182
2148 1.3537169
2146 1.3494822
2144 1.3642759
2142 1.396716
2140 1.4400414
2138 1.5230685
2136 1.6270628
2134 1.7567215
2132 1.8961414
2130 2.0015361
2128 2.0956919
2126 2.1419551
2124 2.1773248
2122 2.1672382
2120 2.1478891
2118 2.0897992
2116 2.0263643
2114 1.9632161
2112 1.9076629
2110 1.8850648
2108 1.874822
2106 1.8872557
2104 1.8944908
2102 1.8833262
2100 1.865404
2098 1.8409064
2096 1.8395286
2094 1.86985
2092 1.911976
2090 1.9615399
2088 2.0062926
2086 2.0458651
2084 2.1031234
2082 2.1722777
2080 2.2387478
2078 2.303272
2076 2.3285556
2074 2.3377109
2072 2.3169761
2070 2.2873073
2068 2.2744472
2066 2.2671337
2064 2.2954504
2062 2.3305333
2060 2.3566036
2058 2.3763871
2056 2.3716457
2054 2.3588336
2052 2.3362701
2050 2.3054578
2048 2.2605498
2046 2.2071679
2044 2.1441
2042 2.1027677
2040 2.0951376
2038 2.1259787
2036 2.1929314
2034 2.237895
2032 2.2554862
2030 2.21578
2028 2.1361203
2026 2.0726242
2024 2.02474
2022 2.0656047
2020 2.1519644
2018 2.2734241
2016 2.4061201
2014 2.4596519
2012 2.484575
2010 2.4291236
2008 2.351428
2006 2.2648151
2004 2.179287
2002 2.1218631
2000 2.080467
1998 2.0844796
1996 2.10375
1994 2.1386871
1992 2.170429
1990 2.1799476
1988 2.1808782
1986 2.1679757
1984 2.1530316
1982 2.1401811
1980 2.1236176
1978 2.1059206
1976 2.0896342
1974 2.0769138
1972 2.0854981
1970 2.111454
1968 2.1205206
1966 2.1166143
1964 2.0452459
1962 1.9371539
1960 1.8597879
1958 1.797172
1956 1.8211415
1954 1.8740307
1952 1.8931342
1950 1.8909593
1948 1.8209946
1946 1.7344
1944 1.66856
1942 1.6291684
1940 1.6355159
1938 1.6486871
1936 1.6372372
1934 1.5977495
1932 1.525242
1930 1.4429202
1928 1.3691103
1926 1.3151121
1924 1.2894766
1922 1.3015091
1920 1.3413188
1918 1.394434
1916 1.4445443
1914 1.4775964
1912 1.4989611
1910 1.5078938
1908 1.5129143
1906 1.4740443
1904 1.4099721
1902 1.3330394
1900 1.2488408
1898 1.2757735
1896 1.3515286
1894 1.5122794
1892 1.6952323
1890 1.792098
1888 1.8282435
1886 1.7311257
1884 1.5853597
1882 1.4396334
1880 1.3114948
1878 1.2310593
1876 1.15659
1874 1.0776827
1872 1.0006871
1870 0.93757337
1868 0.92714089
1866 0.95937771
1864 1.0048631
1862 1.035477
1860 1.0259677
1858 0.99037141
1856 0.92265683
1854 0.84203601
1852 0.71652383
1850 0.5694766
1848 0.40245759
1846 0.23381858
1844 0.1580025
1842 0.13976389
1840 0.21953496
1838 0.33985999
1836 0.4634034
1834 0.58021849
1832 0.70065063
1830 0.82618016
1828 0.94999963
1826 1.0646927
1824 1.1215205
1822 1.1183376
1820 1.040584
1818 0.90092695
1816 0.72291541
1814 0.52488214
1812 0.32662642
1810 0.18581669
1808 0.11069113
1806 0.1359317
1804 0.24397351
1802 0.32186303
1800 0.35949194
1798 0.28568777
1796 0.13197128
1794 0.064720914
1792 0.05907248
1790 0.19808087
1788 0.4115653
1786 0.56267297
1784 0.66227645
1782 0.67679942
1780 0.63489377
1778 0.56436151
1776 0.48724371
1774 0.45047185
1772 0.45886093
1770 0.50116116
1768 0.53651744
1766 0.49142355
1764 0.37426019
1762 0.21186149
1760 0.054955311
1758 -0.11803243
1756 -0.26917371
1754 -0.35557812
1752 -0.42074424
1750 -0.4768717
1748 -0.58869195
1746 -0.77077252
1744 -0.97726059
1742 -1.2082103
1740 -1.3667517
1738 -1.4533093
1736 -1.37064
1734 -1.1536379
1732 -0.85497278
1730 -0.52014601
1728 -0.34303892
1726 -0.28906536
1724 -0.25189668
1722 -0.20203109
1720 0.0079833716
1718 0.35634732
1716 0.90355271
1714 1.5574541
1712 2.092623
1710 2.521523
1708 2.892864
1706 3.3731506
1704 4.1494412
1702 5.5143147
1700 7.6100516
1698 10.75229
1696 14.903143
1694 19.183529
1692 23.18325
1690 26.660904
1688 29.682846
1686 33.145123
1684 37.167793
1682 41.936169
1680 47.276039
1678 51.884701
1676 55.806042
1674 59.55191
1672 63.247028
1670 67.491417
1668 72.126907
1666 76.5681
1664 80.772339
1662 84.597229
1660 88.056511
1658 91.181755
1656 93.91214
1654 96.17527
1652 97.877838
1650 98.927544
1648 99.229073
1646 98.694466
1644 97.566513
1642 96.136147
1640 94.2714
1638 91.98999
1636 88.848068
1634 84.757492
1632 80.270508
1630 75.623474
1628 71.109818
1626 66.797806
1624 62.296642
1622 57.577084
1620 52.991028
1618 48.56889
1616 44.543858
1614 40.9231
1612 37.76683
1610 35.065071
1608 32.729462
1606 30.735071
1604 28.93401
1602 27.362623
1600 26.055765
1598 25.0362
1596 24.299999
1594 23.828043
1592 23.551989
1590 23.446667
1588 23.459129
1586 23.592543
1584 23.84441
1582 24.215069
1580 24.705317
1578 25.348331
1576 26.147343
1574 27.113356
1572 28.223078
1570 29.412712
1568 30.659161
1566 31.882158
1564 33.077847
1562 34.348351
1560 35.765469
1558 37.850922
1556 40.674728
1554 43.74102
1552 46.83601
1550 49.15612
1548 50.682549
1546 51.835217
1544 52.653587
1542 53.326859
1540 53.84412
1538 54.107769
1536 53.994114
1534 53.411617
1532 52.44183
1530 51.305836
1528 50.058823
1526 48.748051
1524 47.307045
1522 45.66901
1520 43.914764
1518 42.023754
1516 40.16843
1514 38.417671
1512 36.536682
1510 34.508507
1508 31.899822
1506 28.564121
1504 25.263239
1502 22.053755
1500 19.416986
1498 17.41098
1496 15.426858
1494 13.463695
1492 11.453712
1490 9.4243126
1488 7.4334254
1486 5.5358014
1484 3.8164802
1482 2.3407197
1480 1.2142977
1478 0.45204949
1476 0.067931145
1474 0.14077191
1472 0.57819152
1470 1.1825945
1468 1.8157618
1466 2.3527472
1464 2.7507064
1462 3.1152263
1460 3.5015564
1458 3.999176
1456 4.6535602
1454 5.3283215
1452 5.9674048
1450 6.4177113
1448 6.5728612
1446 6.6286283
1444 6.5524921
1442 6.4411402
1440 6.2837448
1438 6.0547514
1436 5.7405701
1434 5.3130369
1432 4.785902
1430 4.2473488
1428 3.713866
1426 3.2745843
1424 2.9499559
1422 2.7683289
1420 2.7655952
1418 2.949744
1416 3.27212
1414 3.6780529
1412 4.0629549
1410 4.3802662
1408 4.6550322
1406 4.902503
1404 5.173595
1402 5.4798884
1400 5.7998919
1398 6.1238461
1396 6.4008074
1394 6.5764542
1392 6.6907291
1390 6.6666675
1388 6.5747252
1386 6.3652
1384 6.0835953
1382 5.7006302
1380 5.2626371
1378 4.7610807
1376 4.2189517
1374 3.6681108
1372 3.157306
1370 2.7073145
1368 2.3479195
1366 2.0241606
1364 1.6651108
1362 1.2753785
1360 0.84203279
1358 0.44536608
1356 0.18370658
1354 0.018615402
1352 -0.0080961483
1350 0.01894477
1348 0.073933288
1346 0.12329358
1344 0.1752516
1342 0.24426122
1340 0.35654184
1338 0.48740482
1336 0.64141828
1334 0.79234344
1332 0.89255553
1330 0.96640056
1328 0.99507403
1326 1.0225507
1324 1.0750129
1322 1.1628867
1320 1.3165754
1318 1.5118811
1316 1.7536399
1314 1.9989629
1312 2.2241366
1310 2.4070437
1308 2.5317144
1306 2.6042929
1304 2.6272395
1302 2.5939622
1300 2.5302072
1298 2.4357719
1296 2.3501
1294 2.3036785
1292 2.2920792
1290 2.343533
1288 2.414144
1286 2.5076773
1284 2.594872
1282 2.6560256
1280 2.7095196
1278 2.7457049
1276 2.7936101
1274 2.8726089
1272 2.9737685
1270 3.1186812
1268 3.2824039
1266 3.4699531
1264 3.6682382
1262 3.8711059
1260 4.0653119
1258 4.2492037
1256 4.4249601
1254 4.5994368
1252 4.7933574
1250 5.0020733
1248 5.2227025
1246 5.4442
1244 5.6413789
1242 5.8198109
1240 5.9609656
1238 6.0777216
1236 6.1497002
1234 6.1858115
1232 6.1349764
1230 6.0244088
1228 5.749145
1226 5.4129386
1224 4.9161353
1222 4.4031763
1220 3.854013
1218 3.3261991
1216 2.8417857
1214 2.3806143
1212 1.962985
1210 1.5765297
1208 1.2398839
1206 0.94880867
1204 0.71266901
1202 0.50903964
1200 0.33393005
1198 0.15703161
1196 -0.021894574
1194 -0.2068855
1192 -0.38739663
1190 -0.53467488
1188 -0.65565598
1186 -0.72891837
1184 -0.77545315
1182 -0.77669215
1180 -0.75262672
1178 -0.66479236
1176 -0.55345798
1174 -0.3806237
1172 -0.19729315
1170 0.0096562803
1168 0.20365383
1166 0.35356635
1164 0.47932482
1162 0.5474481
1160 0.6173107
1158 0.69036794
1156 0.75708526
1154 0.80465078
1152 0.791044
1150 0.69201636
1148 0.5434624
1146 0.34935641
1144 0.18541178
1142 0.059065618
1140 0.0052048899
1138 0.0094454326
1136 0.068397917
1134 0.16183521
1132 0.32556972
1130 0.52312303
1128 0.75860423
1126 0.99622834
1124 1.1926614
1122 1.3669586
1120 1.462476
1118 1.542894
1116 1.5808443
1114 1.6255254
1112 1.7008874
1110 1.7784469
1108 1.8606638
1106 1.919735
1104 1.9213234
1102 1.9117092
1100 1.88
1098 1.8439535
1096 1.8005428
1094 1.7505689
1092 1.702406
1090 1.7264287
1088 1.836944
1086 2.07125
1084 2.4014049
1082 2.7431602
1080 3.0718315
1078 3.2553701
1076 3.3562772
1074 3.3297908
1072 3.2626204
1070 3.2042031
1068 3.1487083
1066 3.1042542
1064 3.05304
1062 2.9421999
1060 2.8225212
1058 2.6647146
1056 2.5166628
1054 2.4128942
1052 2.3389065
1050 2.360193
1048 2.3884857
1046 2.429318
1044 2.4263778
1042 2.3394182
1040 2.2248468
1038 2.0721796
1036 1.9419199
1034 1.8361756
1032 1.7194988
1030 1.5886896
1028 1.4032121
1026 1.1832142
1024 0.9867031
1022 0.80849224
1020 0.69667226
1018 0.60816622
1016 0.50120574
1014 0.38321769
1012 0.19806996
1010 -0.0016407669
1008 -0.2397732
1006 -0.47546342
1004 -0.64577579
1002 -0.79196715
1000 -0.77757972
998 -0.74619538
996 -0.6423043
994 -0.56737256
992 -0.58471286
990 -0.63747972
988 -0.76940882
986 -0.87274075
984 -0.92222619
982 -0.91720158
980 -0.83832639
978 -0.75033271
976 -0.65579659
974 -0.60318863
972 -0.58683825
970 -0.62179685
968 -0.68512499
966 -0.711119
964 -0.71597993
962 -0.63925505
960 -0.53708065
958 -0.43996099
956 -0.34590855
954 -0.2861799
952 -0.2309984
950 -0.18199259
948 -0.13055243
946 -0.040959965
944 0.0022857934
942 0.071053818
940 0.20437668
938 0.3399694
936 0.48781085
934 0.67270672
932 0.88336664
930 1.1480318
928 1.3783183
926 1.5522064
924 1.648454
922 1.6502383
920 1.6031057
918 1.5110762
916 1.4719671
914 1.4710281
912 1.5748342
910 1.734472
908 1.8313489
906 1.9065814
904 1.9318812
902 1.9467646
900 2.1249871
898 2.3302228
896 2.5559001
