##TITLE=Methyl Ethyl Ketone
##JCAMP-DX=4.24
##DATA TYPE=INFRARED SPECTRUM
##XUNITS=cm-1
##YUNITS=Absorbance
##FIRSTX=900
##LASTX=2300
##XYDATA=(X++(Y..Y))
2296 0.079310998
2294 0.080960639
2292 0.082611278
2290 0.084260926
2288 0.085910559
2286 0.087560199
2284 0.089210831
2282 0.090860479
2280 0.092511103
2278 0.094159774
2276 0.095810391
2274 0.097462989
2272 0.099110715
2270 0.10074953
2268 0.1024068
2266 0.10410357
2264 0.1057132
2262 0.10721357
2260 0.10900372
2258 0.11120974
2256 0.11232886
2254 0.1119138
2252 0.11554182
2250 0.12487688
2248 0.11918326
2246 0.082368612
2244 0.042072166
2242 0.028588679
2240 0.033586722
2238 0.039250102
2236 0.033872314
2234 0.012699459
2232 -0.0084074326
2230 -0.015819989
2228 -0.028774923
2226 -0.068740495
2224 -0.12743023
2222 -0.18345475
2220 -0.19807066
2218 -0.13992044
2216 -0.027852656
2214 0.10105918
2212 0.19680439
2210 0.21833879
2208 0.17572789
2206 0.096974395
2204 0.019498933
2202 -0.022044722
2200 -0.014943955
2198 0.044454068
2196 0.15072507
2194 0.29284739
2192 0.44800583
2190 0.59084004
2188 0.70052952
2186 0.76340389
2184 0.78879678
2182 0.79426509
2180 0.80069816
2178 0.82611167
2176 0.87304455
2174 0.93715906
2172 1.0067893
2170 1.0686921
2168 1.113632
2166 1.1340193
2164 1.1260995
2162 1.0899233
2160 1.0373554
2158 0.9859919
2156 0.961447
2154 0.98616523
2152 1.059177
2150 1.1688635
2148 1.2939166
2146 1.4136392
2144 1.5230309
2142 1.622287
2140 1.7081842
2138 1.776595
2136 1.8243999
2134 1.8498501
2132 1.8562963
2130 1.848779
2128 1.830716
2126 1.8066993
2124 1.7877361
2122 1.7849746
2120 1.8003749
2118 1.8302696
2116 1.86297
2114 1.8832949
2112 1.8738005
2110 1.821619
2108 1.7355529
2106 1.6373172
2104 1.5673692
2102 1.5627934
2100 1.61854
2098 1.7094936
2096 1.7955143
2094 1.8396038
2092 1.8386782
2090 1.8049356
2088 1.7584314
2086 1.719595
2084 1.6996592
2082 1.7043855
2080 1.7321708
2078 1.7782011
2076 1.8348542
2074 1.892887
2072 1.94074
2070 1.9653746
2068 1.9521246
2066 1.8908179
2064 1.7918
2062 1.6775388
2060 1.5863477
2058 1.555864
2056 1.5951056
2054 1.6952993
2052 1.8228989
2050 1.9386146
2048 2.0194559
2046 2.0542037
2044 2.0488141
2042 2.0164766
2040 1.9695966
2038 1.9185908
2036 1.8674086
2034 1.8164443
2032 1.7618657
2030 1.6998841
2028 1.6329789
2026 1.5684236
2024 1.5209709
2022 1.5045376
2020 1.5173726
2018 1.5480883
2016 1.57664
2014 1.5840166
2012 1.5719051
2010 1.5519104
2008 1.5381479
2006 1.5423601
2004 1.5649146
2002 1.6008149
2000 1.6448588
1998 1.6935422
1996 1.7504572
1994 1.8194902
1992 1.8928531
1990 1.9564109
1988 1.994348
1986 1.9932808
1984 1.9515989
1982 1.8757606
1980 1.7804457
1978 1.686147
1976 1.6221857
1974 1.616969
1972 1.6775346
1970 1.7939847
1968 1.9298217
1966 2.0398514
1964 2.0946193
1962 2.0805197
1960 2.015492
1958 1.9315318
1956 1.85601
1954 1.8079691
1952 1.7845229
1950 1.7723455
1948 1.7607828
1946 1.74445
1944 1.732664
1942 1.7390163
1940 1.7631037
1938 1.7948614
1936 1.8162999
1934 1.8118287
1932 1.791976
1930 1.7818164
1928 1.8096383
1926 1.8969822
1924 2.0338616
1922 2.188092
1920 2.303628
1918 2.3255899
1916 2.2552872
1914 2.1300361
1912 2.0047886
1910 1.9281429
1908 1.8888301
1906 1.8459044
1904 1.7765399
1902 1.6803279
1900 1.597486
1898 1.5809522
1896 1.6440142
1894 1.7684425
1892 1.9056678
1890 1.99754
1888 2.0094345
1886 1.9289871
1884 1.7759877
1882 1.5875008
1880 1.40168
1878 1.2537488
1876 1.1704
1874 1.1678672
1872 1.2386583
1870 1.3552427
1868 1.4619317
1866 1.4969271
1864 1.4389074
1862 1.299116
1860 1.1179157
1858 0.94598871
1856 0.81286341
1854 0.73282689
1852 0.71598655
1850 0.76498318
1848 0.85403562
1846 0.94007504
1844 0.98054242
1842 0.94659227
1840 0.8609609
1838 0.77486789
1836 0.72375441
1834 0.72428292
1832 0.76901305
1830 0.83612764
1828 0.90122449
1826 0.94137681
1824 0.94083637
1822 0.89357573
1820 0.81639922
1818 0.7389757
1816 0.68465769
1814 0.66541487
1812 0.66775841
1810 0.66697669
1808 0.66022539
1806 0.66096151
1804 0.6824587
1802 0.73232979
1800 0.80188382
1798 0.87299764
1796 0.93320715
1794 0.97424543
1792 0.98356444
1790 0.95103711
1788 0.89372414
1786 0.84354812
1784 0.81332368
1782 0.80295587
1780 0.8244698
1778 0.89482951
1776 1.006206
1774 1.1225654
1772 1.1640872
1770 1.0448176
1768 0.78147197
1766 0.4683612
1764 0.20439941
1762 0.060749296
1760 0.012141112
1758 -0.020206146
1756 -0.046129216
1754 -0.019685687
1752 0.089487717
1750 0.27902049
1748 0.48498368
1746 0.61255074
1744 0.62087709
1742 0.5288685
1740 0.41988045
1738 0.39719844
1736 0.463606
1734 0.53700942
1732 0.51866817
1730 0.33428538
1728 0.027845196
1726 -0.2676518
1724 -0.42428431
1722 -0.34628838
1720 -0.0084729046
1718 0.54831123
1716 1.217077
1714 1.858812
1712 2.3887234
1710 2.7973864
1708 3.2000139
1706 3.8007121
1704 4.7965403
1702 6.3510756
1700 8.561367
1698 11.416649
1696 14.633286
1694 17.75728
1692 20.531834
1690 22.955757
1688 25.319422
1686 28.084478
1684 31.536415
1682 35.680374
1680 40.045319
1678 43.914288
1676 47.142101
1674 50.130253
1672 53.318954
1670 57.011292
1668 61.119648
1666 65.2631
1664 69.191154
1662 72.828644
1660 76.159103
1658 79.200859
1656 82.027573
1654 84.752647
1652 87.464966
1650 90.160835
1648 92.533058
1646 94.080391
1644 94.623756
1642 94.323242
1640 93.38382
1638 91.96711
1636 90.110626
1634 87.767807
1632 85.007286
1630 81.999435
1628 78.814026
1626 75.403664
1624 71.708519
1622 67.70063
1620 63.45422
1618 59.133083
1616 54.896458
1614 50.878014
1612 47.192978
1610 43.929558
1608 41.091812
1606 38.607838
1604 36.404598
1602 34.42997
1600 32.669273
1598 31.136976
1596 29.838001
1594 28.756899
1592 27.858343
1590 27.098007
1588 26.459785
1586 25.959536
1584 25.620651
1582 25.46899
1580 25.5466
1578 25.907314
1576 26.578114
1574 27.540651
1572 28.695223
1570 29.879013
1568 30.9902
1566 32.012043
1564 32.963837
1562 33.91658
1560 35.096527
1558 36.819324
1556 39.082542
1554 41.517761
1552 43.724583
1550 45.410175
1548 46.599838
1546 47.616821
1544 48.670128
1542 49.749577
1540 50.717621
1538 51.363934
1536 51.561401
1534 51.315445
1532 50.746361
1530 50.052284
1528 49.331944
1526 48.543049
1524 47.589199
1522 46.359741
1520 44.815826
1518 43.023411
1516 41.145943
1514 39.391705
1512 37.759159
1510 35.995239
1508 33.850803
1506 31.197721
1504 28.202993
1502 25.314777
1500 22.806185
1498 20.654739
1496 18.715857
1494 16.787413
1492 14.742931
1490 12.567357
1488 10.285263
1486 7.9516411
1484 5.6964459
1482 3.7201815
1480 2.1456316
1478 0.99219871
1476 0.32481915
1474 0.25869286
1472 0.73320508
1470 1.468163
1468 2.2389629
1466 2.9648108
1464 3.6555076
1462 4.384613
1460 5.1645055
1458 5.9050856
1456 6.4702401
1454 6.7171388
1452 6.6337643
1450 6.3721552
1448 6.0581627
1446 5.7355752
1444 5.4316216
1442 5.1698828
1440 4.9467897
1438 4.718698
1436 4.4101171
1434 3.9296641
1432 3.2665756
1430 2.5267582
1428 1.846566
1426 1.3566121
1424 1.1174406
1422 1.0910461
1420 1.2048057
1418 1.3739533
1416 1.5455086
1414 1.717253
1412 1.9098594
1410 2.1576109
1408 2.4795828
1406 2.8694973
1404 3.3205814
1402 3.8292472
1400 4.3712797
1398 4.8905916
1396 5.3208284
1394 5.5986943
1392 5.7059832
1390 5.6876359
1388 5.5898542
1386 5.4384198
1384 5.2448521
1382 5.0078902
1380 4.7330823
1378 4.4386144
1376 4.13486
1374 3.8170626
1372 3.4854581
1370 3.1517375
1368 2.8247051
1366 2.5026987
1364 2.168993
1362 1.792099
1360 1.3660131
1358 0.9303264
1356 0.53843874
1354 0.24427858
1352 0.070031315
1350 -0.011151213
1348 -0.02881965
1346 0.002014786
1344 0.077486522
1342 0.20247093
1340 0.36067685
1338 0.50027347
1336 0.57237399
1334 0.55089742
1332 0.44475457
1330 0.30926001
1328 0.19504966
1326 0.12739679
1324 0.12371035
1322 0.19652146
1320 0.34961349
1318 0.5715304
1316 0.83263397
1314 1.0801179
1312 1.2665234
1310 1.3653349
1308 1.3713329
1306 1.3077294
1304 1.2055686
1302 1.097515
1300 1.0119888
1298 0.96823525
1296 0.97717857
1294 1.0381768
1292 1.1455686
1290 1.2890291
1288 1.4546
1286 1.6242907
1284 1.7809554
1282 1.9125183
1280 2.0174634
1278 2.1114306
1276 2.2143614
1274 2.3457971
1272 2.5166309
1270 2.7221079
1268 2.9527483
1266 3.1984758
1264 3.4585633
1262 3.7491858
1260 4.08988
1258 4.4968219
1256 4.9767375
1254 5.5197582
1252 6.1127267
1250 6.7443237
1248 7.406579
1246 8.0971251
1244 8.8080273
1242 9.5176678
1240 10.193326
1238 10.787852
1236 11.259157
1234 11.582286
1232 11.744801
1230 11.756575
1228 11.638046
1226 11.423594
1224 11.140451
1222 10.796185
1220 10.391932
1218 9.9246655
1216 9.4051399
1214 8.8691635
1212 8.3493557
1210 7.857029
1208 7.3881154
1206 6.9185414
1204 6.4270301
1202 5.9084716
1200 5.3659639
1198 4.8110962
1196 4.254643
1194 3.7006454
1192 3.149549
1190 2.597718
1188 2.0464163
1186 1.5092043
1184 1.00832
1182 0.57738489
1180 0.2485019
1178 0.042997383
1176 -0.034146398
1174 -0.0088011399
1172 0.080449417
1170 0.18449427
1168 0.26312995
1166 0.30236945
1164 0.30136767
1162 0.2745904
1160 0.23713925
1158 0.19727109
1156 0.15999487
1154 0.12640424
1152 0.095037237
1150 0.061003197
1148 0.02104982
1146 -0.021836892
1144 -0.057737276
1142 -0.06496162
1140 -0.026536994
1138 0.056972176
1136 0.18148914
1134 0.34420019
1132 0.54006529
1130 0.75908172
1128 0.99991381
1126 1.2844586
1124 1.6366792
1122 2.0705278
1120 2.5787921
1118 3.1102459
1116 3.6113129
1114 4.0504837
1112 4.4155936
1110 4.7287993
1108 5.0130711
1106 5.2723351
1104 5.5082493
1102 5.7284741
1100 5.9502721
1098 6.2100554
1096 6.5387144
1094 6.9404149
1092 7.404274
1090 7.8974462
1088 8.3855953
1086 8.8446941
1084 9.2579985
1082 9.6205292
1080 9.9296055
1078 10.18087
1076 10.372257
1074 10.50846
1072 10.604686
1070 10.69205
1068 10.801078
1066 10.9434
1064 11.10948
1062 11.25579
1060 11.335766
1058 11.321271
1056 11.202171
1054 11.006478
1052 10.769697
1050 10.51584
1048 10.258142
1046 9.9794531
1044 9.6630688
1042 9.3126745
1040 8.9416676
1038 8.580595
1036 8.2503901
1034 7.9338346
1032 7.6062894
1030 7.2503104
1028 6.8634586
1026 6.48103
1024 6.1365032
1022 5.8297219
1020 5.5448565
1018 5.2446399
1016 4.8935485
1014 4.4783449
1012 3.9973507
1010 3.4695528
1008 2.923852
1006 2.4040864
1004 1.9500009
1002 1.5756388
1000 1.2810675
998 1.042276
996 0.83342785
994 0.64055657
992 0.45736057
990 0.29154581
988 0.14961824
986 0.023227036
984 -0.094514675
982 -0.19344297
980 -0.25050101
978 -0.21484958
976 -0.042303652
974 0.2658003
972 0.68192458
970 1.1287851
968 1.5232989
966 1.80483
964 1.9319375
962 1.9102445
960 1.763364
958 1.5359573
956 1.2730814
954 1.0028787
952 0.74520236
950 0.50631714
948 0.29309103
946 0.12696671
944 0.028399726
942 0.0013780296
940 0.045443036
938 0.1584481
936 0.3265363
934 0.49509948
932 0.60734737
930 0.63609195
928 0.57459319
926 0.46472022
924 0.3595576
922 0.30870259
920 0.3483935
918 0.46759659
916 0.63353956
914 0.77557147
912 0.82148618
910 0.72969902
908 0.4935407
906 0.21221328
904 0.003896527
902 -0.042748883
900 0.12785673
898 0.46937022
896 0.90990001
