##TITLE=Methyl Ethyl Ketone
##JCAMP-DX=4.24
##DATA TYPE=INFRARED SPECTRUM
##XUNITS=cm-1
##YUNITS=Absorbance
##FIRSTX=900
##LASTX=2300
##XYDATA=(X++(Y..Y))
2296 0.035429999
2294 0.036166947
2292 0.036903892
2290 0.037640836
2288 0.038377784
2286 0.039114729
2284 0.039851673
2282 0.040588621
2280 0.041325565
2278 0.042063497
2276 0.042800456
2274 0.043537404
2272 0.044274349
2270 0.045010313
2268 0.045748223
2266 0.046488121
2264 0.047222201
2262 0.04795127
2260 0.048696794
2258 0.049465101
2256 0.050171826
2254 0.05078952
2252 0.051640972
2250 0.052823737
2248 0.053134367
2246 0.050738107
2244 0.042680394
2242 0.031623267
2240 0.044090562
2238 0.10276727
2236 0.18769957
2234 0.27169868
2232 0.34758309
2230 0.41624403
2228 0.48732591
2226 0.56486148
2224 0.62011564
2222 0.62304205
2220 0.57717341
2218 0.50280261
2216 0.4475143
2214 0.45150897
2212 0.49263319
2210 0.534284
2208 0.55794448
2206 0.5634771
2204 0.60194427
2202 0.72577083
2200 0.92968017
2198 1.1828275
2196 1.4243071
2194 1.5964255
2192 1.6912663
2190 1.7208223
2188 1.7139329
2186 1.7001157
2184 1.6928359
2182 1.7009345
2180 1.7350841
2178 1.8044894
2176 1.9089772
2174 2.0407054
2172 2.1732554
2170 2.2771831
2168 2.3364532
2166 2.3458543
2164 2.3248343
2162 2.3020728
2160 2.3094702
2158 2.3707154
2156 2.4716201
2154 2.5822906
2152 2.6598091
2150 2.669908
2148 2.6283474
2146 2.5697391
2144 2.5322783
2142 2.5447869
2140 2.5945163
2138 2.6534626
2136 2.6904027
2134 2.680063
2132 2.624434
2130 2.5390291
2128 2.4544921
2126 2.4028435
2124 2.3998191
2122 2.4483643
2120 2.5244434
2118 2.5960238
2116 2.6401186
2114 2.642864
2112 2.6128819
2110 2.5678177
2108 2.527837
2106 2.5098951
2104 2.5160971
2102 2.5416923
2100 2.57742
2098 2.6155691
2096 2.6595714
2094 2.714519
2092 2.7738717
2090 2.8260102
2088 2.8592131
2086 2.86727
2084 2.8681545
2082 2.8860748
2080 2.9332771
2078 3.0111225
2076 3.0986772
2074 3.1661148
2072 3.1856921
2070 3.1379404
2068 3.0353932
2066 2.9057322
2064 2.7865224
2062 2.7103159
2060 2.6745391
2058 2.661051
2056 2.6479487
2054 2.6170635
2052 2.5700619
2050 2.5186195
2048 2.4818521
2046 2.4783642
2044 2.5136681
2042 2.5835116
2040 2.666512
2038 2.7376318
2036 2.7841556
2034 2.801573
2032 2.7941439
2030 2.7694631
2028 2.7327466
2026 2.688575
2024 2.6441069
2022 2.6058218
2020 2.5723467
2018 2.538331
2016 2.4983799
2014 2.450491
2012 2.4056649
2010 2.3785782
2008 2.3738205
2006 2.3885472
2004 2.4103656
2002 2.4236319
2000 2.4178565
1998 2.3875203
1996 2.3372357
1994 2.2771311
1992 2.2203515
1990 2.1786838
1988 2.1519139
1986 2.1335423
1984 2.1142573
1982 2.0853651
1980 2.0458574
1978 1.9996121
1976 1.9564772
1974 1.928035
1972 1.921862
1970 1.9389608
1968 1.9602799
1966 1.9602321
1964 1.9264311
1962 1.8594451
1960 1.782624
1958 1.7250853
1956 1.6923329
1954 1.6759757
1952 1.66224
1950 1.6397527
1948 1.6145639
1946 1.6007249
1944 1.6080062
1942 1.6402892
1940 1.6891754
1938 1.7393421
1936 1.7726514
1934 1.7734978
1932 1.740368
1930 1.6815667
1928 1.615064
1926 1.5611292
1924 1.53011
1922 1.5227939
1920 1.5224268
1918 1.5052451
1916 1.4559872
1914 1.371285
1912 1.274888
1910 1.2022803
1908 1.1769931
1906 1.2091336
1904 1.285628
1902 1.383538
1900 1.4888908
1898 1.5938206
1896 1.6887143
1894 1.7633456
1892 1.8104322
1890 1.827422
1888 1.8242023
1886 1.8154651
1884 1.8068014
1882 1.7981727
1880 1.7908206
1878 1.7879583
1876 1.7955101
1874 1.8178313
1872 1.8475417
1870 1.8703969
1868 1.8735229
1866 1.8497128
1864 1.8099686
1862 1.773378
1860 1.7478892
1858 1.7314112
1856 1.7124629
1854 1.6782917
1852 1.6315937
1850 1.5856808
1848 1.557592
1846 1.5623322
1844 1.5995257
1842 1.6576078
1840 1.7181177
1838 1.7619593
1836 1.7826957
1834 1.7817069
1832 1.7600456
1830 1.7169759
1828 1.6496723
1826 1.5576057
1824 1.4550291
1822 1.3641093
1820 1.298474
1818 1.2611576
1816 1.2378343
1814 1.2060763
1812 1.1565599
1810 1.0925446
1808 1.0312777
1806 0.99261647
1804 0.97104597
1802 0.94467324
1800 0.89771146
1798 0.82554734
1796 0.74606216
1794 0.68858975
1792 0.6687296
1790 0.68711936
1788 0.72685182
1786 0.76026595
1784 0.75934738
1782 0.70275253
1780 0.59476036
1778 0.45839021
1776 0.32164714
1774 0.21073118
1772 0.13787606
1770 0.1026361
1768 0.092219211
1766 0.088436931
1764 0.082598895
1762 0.06949012
1760 0.024142971
1758 -0.082899764
1756 -0.231519
1754 -0.37036669
1752 -0.47907472
1750 -0.56700027
1748 -0.65257561
1746 -0.75400645
1744 -0.8753497
1742 -1.0065948
1740 -1.123022
1738 -1.1933273
1736 -1.20034
1734 -1.1431777
1732 -1.041554
1730 -0.92508125
1728 -0.80445361
1726 -0.67213798
1724 -0.51201546
1722 -0.30856878
1720 -0.068656534
1718 0.19096819
1716 0.49093175
1714 0.86844605
1712 1.2898886
1710 1.6825216
1708 2.072058
1706 2.580838
1704 3.377979
1702 4.6636395
1700 6.6727748
1698 9.5773449
1696 13.136571
1694 16.80327
1692 20.161783
1690 23.036629
1688 25.639452
1686 28.449986
1684 31.834944
1682 35.909866
1680 40.258919
1678 44.160774
1676 47.424469
1674 50.387127
1672 53.479332
1670 57.045971
1668 61.045914
1666 65.13105
1664 69.034737
1662 72.629723
1660 75.871529
1658 78.777405
1656 81.415314
1654 83.884087
1652 86.263161
1650 88.562637
1648 90.579376
1646 91.970787
1644 92.59967
1642 92.551956
1640 91.960823
1638 90.947304
1636 89.559196
1634 87.784164
1632 85.639023
1630 83.167847
1628 80.358177
1626 77.150803
1624 73.534798
1622 69.567413
1620 65.37587
1618 61.138138
1616 57.010654
1614 53.112068
1612 49.535072
1610 46.33947
1608 43.511639
1606 40.978786
1604 38.687531
1602 36.618584
1600 34.773548
1598 33.165874
1596 31.792
1594 30.628025
1592 29.645573
1590 28.816753
1588 28.125565
1586 27.568501
1584 27.141119
1582 26.83791
1580 26.666632
1578 26.650587
1576 26.823971
1574 27.222765
1572 27.846451
1570 28.651064
1568 29.56168
1566 30.485542
1564 31.352642
1562 32.158863
1560 33.106995
1558 34.556347
1556 36.63253
1554 39.139259
1552 41.68335
1550 43.79364
1548 45.317402
1546 46.462105
1544 47.415775
1542 48.256298
1540 49.017582
1538 49.694149
1536 50.205715
1534 50.415646
1532 50.283714
1530 49.888592
1528 49.302483
1526 48.55875
1524 47.663605
1522 46.604996
1520 45.390244
1518 44.054111
1516 42.641399
1514 41.181599
1512 39.594643
1510 37.68951
1508 35.332878
1506 32.523071
1504 29.462229
1502 26.527075
1500 23.923943
1498 21.601999
1496 19.430429
1494 17.259171
1492 15.010134
1490 12.700293
1488 10.376959
1486 8.1067295
1484 5.9900861
1482 4.1484127
1480 2.6350822
1478 1.4290092
1476 0.58542311
1474 0.24770875
1472 0.42584658
1470 0.93844378
1468 1.5828162
1466 2.1982498
1464 2.7199502
1462 3.1937122
1460 3.6763997
1458 4.2000127
1456 4.7483802
1454 5.2503238
1452 5.632061
1450 5.8402767
1448 5.8685927
1446 5.7659287
1444 5.5842214
1442 5.3590031
1440 5.1000686
1438 4.7850928
1436 4.3735285
1434 3.8199003
1432 3.1339388
1430 2.4013076
1428 1.71837
1426 1.1675714
1424 0.79480135
1422 0.59890813
1420 0.56628734
1418 0.67897236
1416 0.91193599
1414 1.232706
1412 1.6141568
1410 2.040251
1408 2.5028737
1406 3.0003734
1404 3.5232859
1402 4.0488391
1400 4.5510921
1398 5.0059528
1396 5.4019074
1394 5.7438135
1392 6.0341783
1390 6.2650609
1388 6.4185205
1386 6.4672999
1384 6.3952007
1382 6.2059484
1380 5.9125171
1378 5.5356803
1376 5.1034427
1374 4.6516962
1372 4.21487
1370 3.817349
1368 3.4527836
1366 3.0734501
1364 2.6366706
1362 2.1278985
1360 1.5732532
1358 1.0488597
1356 0.61808985
1354 0.30435467
1352 0.10818892
1350 0.0089411028
1348 -0.013584918
1346 0.027732614
1344 0.11594412
1342 0.22682846
1340 0.34568995
1338 0.47558784
1336 0.62188172
1334 0.78597021
1332 0.96086109
1330 1.128998
1328 1.2808108
1326 1.4241443
1324 1.5717112
1322 1.7369757
1320 1.9269491
1318 2.1372252
1316 2.3572199
1314 2.5707531
1312 2.7611337
1310 2.9140813
1308 3.021548
1306 3.0856771
1304 3.116188
1302 3.1310151
1300 3.1491706
1298 3.1874712
1296 3.2556429
1294 3.3516526
1292 3.4673347
1290 3.5889461
1288 3.7058198
1286 3.8150156
1284 3.9185011
1282 4.0232353
1280 4.1337781
1278 4.2483969
1276 4.3625927
1274 4.470964
1272 4.577105
1270 4.7014184
1268 4.8705182
1266 5.113884
1264 5.449379
1262 5.87257
1260 6.3717279
1258 6.9319587
1256 7.5423713
1254 8.1999798
1252 8.8989229
1250 9.624608
1248 10.362811
1246 11.10475
1244 11.847683
1242 12.594604
1240 13.338634
1238 14.049206
1236 14.686999
1234 15.211434
1232 15.58772
1230 15.798609
1228 15.835234
1226 15.700714
1224 15.40852
1222 14.984709
1220 14.457532
1218 13.85035
1216 13.185314
1214 12.476504
1212 11.741842
1210 10.999028
1208 10.263317
1206 9.5433483
1204 8.8448095
1202 8.1727066
1200 7.5290728
1198 6.9093986
1196 6.3058429
1194 5.7074218
1192 5.1097975
1190 4.5235629
1188 3.9611011
1186 3.4310286
1184 2.9418023
1182 2.5041962
1180 2.1351528
1178 1.862704
1176 1.70678
1174 1.6622714
1172 1.7060022
1170 1.7880266
1168 1.8558846
1166 1.8669807
1164 1.796508
1162 1.655102
1160 1.4692041
1158 1.2804776
1156 1.1237015
1154 1.007925
1152 0.92699504
1150 0.85371923
1148 0.76150322
1146 0.63752753
1144 0.48148403
1142 0.31424636
1140 0.15884583
1138 0.032559738
1136 -0.040927745
1134 -0.021210857
1132 0.1214637
1130 0.38088512
1128 0.73242271
1126 1.1287949
1124 1.5262277
1122 1.9030681
1120 2.2537038
1118 2.5967331
1116 2.9506242
1114 3.3180618
1112 3.6885309
1110 4.0296249
1108 4.3144736
1106 4.5445552
1104 4.7378297
1102 4.9365077
1100 5.180625
1098 5.4893732
1096 5.868
1094 6.2977638
1092 6.7515278
1090 7.1963596
1088 7.6067772
1086 7.9811645
1084 8.328229
1082 8.6666708
1080 9.0078125
1078 9.335804
1076 9.6297846
1074 9.8725538
1072 10.053594
1070 10.17944
1068 10.257054
1066 10.283936
1064 10.26168
1062 10.197092
1060 10.103817
1058 10.000209
1056 9.8978596
1054 9.7886114
1052 9.6555986
1050 9.4686737
1048 9.2042656
1046 8.8667536
1044 8.4781647
1042 8.0906649
1040 7.7504611
1038 7.4657454
1036 7.2263203
1034 6.996736
1032 6.7455215
1030 6.4703789
1028 6.1751981
1026 5.8606834
1024 5.5225973
1022 5.1456842
1020 4.7211862
1018 4.2684627
1016 3.8121629
1014 3.3727491
1012 2.9628692
1010 2.57444
1008 2.2024281
1006 1.8662971
1004 1.5842946
1002 1.3527994
1000 1.1566023
998 0.96269572
996 0.74647641
994 0.52398878
992 0.31811678
990 0.14158483
988 -0.0010537654
986 -0.12310764
984 -0.23351583
982 -0.31303859
980 -0.34071681
978 -0.31314218
976 -0.23810001
974 -0.14563376
972 -0.06185656
970 0.018739909
968 0.110744
966 0.2326255
964 0.39314014
962 0.56491041
960 0.71093041
958 0.79240513
956 0.78043282
954 0.68224216
952 0.5201664
950 0.33796427
948 0.17933862
946 0.068773247
944 0.016567793
942 -8.5290521e-05
940 -0.0016790982
938 0.028944038
936 0.10883486
934 0.22073697
932 0.34112966
930 0.45497453
928 0.55648667
926 0.66618311
924 0.80478585
922 0.96897703
920 1.1394898
918 1.2596033
916 1.2774314
914 1.1948277
912 1.0418113
910 0.90396321
908 0.86225033
906 0.92572176
904 1.06126
902 1.1409142
900 1.0506594
898 0.8266933
896 0.5424
