##TITLE=Methyl Ethyl Ketone
##JCAMP-DX=4.24
##DATA TYPE=INFRARED SPECTRUM
##XUNITS=cm-1
##YUNITS=Absorbance
##FIRSTX=900
##LASTX=2300
##XYDATA=(X++(Y..Y))
2296 0.045805998
2294 0.046758637
2292 0.047711272
2290 0.048664905
2288 0.049617551
2286 0.050570186
2284 0.051523816
2282 0.052476458
2280 0.053429097
2278 0.054381732
2276 0.055335358
2274 0.056288008
2272 0.057240646
2270 0.058194265
2268 0.059146918
2266 0.060099557
2264 0.061052196
2262 0.062005807
2260 0.062958464
2258 0.06391111
2256 0.064864717
2254 0.065817386
2252 0.066770017
2250 0.067723617
2248 0.068676293
2246 0.069628932
2244 0.002587483
2242 0.032183822
2240 0.093734197
2238 0.18374819
2236 0.27778858
2234 0.31211659
2232 0.3391712
2230 0.29965582
2228 0.26191384
2226 0.2636905
2224 0.28296527
2222 0.37303141
2220 0.459095
2218 0.52136087
2216 0.56379431
2214 0.5658493
2212 0.56601804
2210 0.56702489
2208 0.57106352
2206 0.57882506
2204 0.60166007
2202 0.63878119
2200 0.7097348
2198 0.80526835
2196 0.91240287
2194 1.0253321
2192 1.0918275
2190 1.1377232
2188 1.1133219
2186 1.0664029
2184 0.9880892
2182 0.90291601
2180 0.83882034
2178 0.77850652
2176 0.76618886
2174 0.76239717
2172 0.80532908
2170 0.85769629
2168 0.93874365
2166 1.0195175
2164 1.0892226
2162 1.1485102
2160 1.1839845
2158 1.2106371
2156 1.22508
2154 1.2226261
2152 1.1976184
2150 1.1583444
2148 1.1054509
2146 1.0700572
2144 1.0511674
2142 1.065676
2140 1.1021765
2138 1.156801
2136 1.22024
2134 1.267835
2132 1.3084142
2130 1.2945019
2128 1.2634001
2126 1.1939586
2124 1.1157811
2122 1.0651165
2120 1.0198697
2118 0.99264914
2116 0.96340203
2114 0.89985061
2112 0.83115488
2110 0.76163548
2108 0.7148326
2106 0.73697829
2104 0.78516001
2102 0.86833918
2100 0.92761618
2098 0.93811184
2096 0.91951716
2094 0.87227929
2092 0.84483409
2090 0.84220463
2088 0.85695052
2086 0.88308752
2084 0.88566321
2082 0.87163937
2080 0.82194376
2078 0.75464374
2076 0.68068999
2074 0.60486203
2072 0.5545364
2070 0.51251638
2068 0.4845247
2066 0.45942864
2064 0.4153477
2062 0.36854887
2060 0.33237335
2058 0.30736402
2056 0.33222115
2054 0.36745259
2052 0.40463337
2050 0.43004966
2048 0.42426977
2046 0.41631964
2044 0.4160668
2042 0.42625201
2040 0.44991001
2038 0.46457198
2036 0.46522844
2034 0.45728606
2032 0.44350651
2030 0.43676531
2028 0.43640602
2026 0.44755751
2024 0.46543413
2022 0.49863532
2020 0.53930718
2018 0.57725501
2016 0.613612
2014 0.64448971
2012 0.67351133
2010 0.69414049
2008 0.70965368
2006 0.67791528
2004 0.63069105
2002 0.55946243
2000 0.48622572
1998 0.43104187
1996 0.38622072
1994 0.35910535
1992 0.34795278
1990 0.36259872
1988 0.39231941
1986 0.43710843
1984 0.46185744
1982 0.45375559
1980 0.40736231
1978 0.32634622
1976 0.25028914
1974 0.1858491
1972 0.1649864
1970 0.1757139
1968 0.21656166
1966 0.27283528
1964 0.31728294
1962 0.35411766
1960 0.36220118
1958 0.35809785
1956 0.34836
1954 0.33725911
1952 0.33704668
1950 0.339968
1948 0.34038198
1946 0.33645752
1944 0.31350136
1942 0.28249073
1940 0.24305797
1938 0.20579389
1936 0.18074314
1934 0.16755621
1932 0.171244
1930 0.18549655
1928 0.20921057
1926 0.23769172
1924 0.26918414
1922 0.29056102
1920 0.2999889
1918 0.28257748
1916 0.24323614
1914 0.2088531
1912 0.18192525
1910 0.18708076
1908 0.21208011
1906 0.23366928
1904 0.2516188
1902 0.23627347
1900 0.20548466
1898 0.1820913
1896 0.16426571
1894 0.17942277
1892 0.20415589
1890 0.206305
1888 0.18950456
1886 0.12803607
1884 0.045951501
1882 -0.04837938
1880 -0.13825756
1878 -0.20723127
1876 -0.232484
1874 -0.1898741
1872 -0.089432538
1870 0.064629577
1868 0.18351972
1866 0.2369675
1864 0.19866377
1862 0.082783341
1860 -0.037746619
1858 -0.14416683
1856 -0.216244
1854 -0.26396638
1852 -0.27283415
1850 -0.25852102
1848 -0.2083064
1846 -0.13882215
1844 -0.10843883
1842 -0.10045502
1840 -0.14321297
1838 -0.20638165
1836 -0.23864242
1834 -0.2488078
1832 -0.2163616
1830 -0.16603631
1828 -0.12045152
1826 -0.093855098
1824 -0.11418755
1822 -0.1631321
1820 -0.231701
1818 -0.2855044
1816 -0.29987428
1814 -0.27701458
1812 -0.22089842
1810 -0.17636214
1808 -0.15980342
1806 -0.17804
1804 -0.2240656
1802 -0.26923755
1800 -0.3066268
1798 -0.31125441
1796 -0.29087785
1794 -0.24780902
1792 -0.192082
1790 -0.1539229
1788 -0.12837636
1786 -0.12241428
1784 -0.12709017
1782 -0.12763023
1780 -0.11981117
1778 -0.071158141
1776 0.0060119983
1774 0.11218046
1772 0.21317746
1770 0.24999358
1768 0.23113823
1766 0.15151729
1764 0.069247663
1762 0.037735019
1760 0.013009869
1758 -0.034737982
1756 -0.078272827
1754 -0.10344624
1752 -0.098323032
1750 -0.063623898
1748 -0.022134731
1746 0.016616467
1744 -0.0066220742
1742 -0.088863373
1740 -0.18788922
1738 -0.2905457
1736 -0.30754
1734 -0.25782612
1732 -0.18866718
1730 -0.11398807
1728 -0.12060322
1726 -0.1764725
1724 -0.18872231
1722 -0.14853661
1720 0.02238892
1718 0.32221156
1716 0.80357772
1714 1.4083987
1712 2.0669308
1710 2.7917321
1708 3.6036539
1706 4.6264005
1704 5.9691119
1702 7.8677015
1700 10.434418
1698 13.778465
1696 17.837999
1694 21.776909
1692 25.247047
1690 28.227629
1688 30.819851
1686 33.926144
1684 37.647934
1682 42.250359
1680 47.558559
1678 52.380985
1676 56.718628
1674 60.984562
1672 65.263176
1670 70.109642
1668 75.341187
1666 80.302803
1664 84.92112
1662 88.885513
1660 92.220375
1658 94.929916
1656 97.0112
1654 98.468117
1652 99.245155
1650 99.319733
1648 98.722519
1646 97.552574
1644 96.109818
1642 94.659157
1640 93.039963
1638 91.183273
1636 88.606529
1634 85.197403
1632 81.246704
1630 76.933144
1628 72.537331
1626 68.139626
1624 63.45332
1622 58.474442
1620 53.511971
1618 48.607609
1616 44.049713
1614 39.871056
1612 36.268322
1610 33.245129
1608 30.714098
1606 28.640657
1604 26.835789
1602 25.315853
1600 24.065434
1598 23.105785
1596 22.4245
1594 22.024906
1592 21.870565
1590 21.937819
1588 22.173206
1586 22.566601
1584 23.094011
1582 23.775629
1580 24.610851
1578 25.722643
1576 27.147457
1574 28.942905
1572 31.111565
1570 33.447613
1568 35.90012
1566 38.253605
1564 40.478256
1562 42.651318
1560 44.811852
1558 47.372967
1556 50.278687
1554 52.81794
1552 54.823746
1550 55.964195
1548 56.300156
1546 56.401321
1544 56.225697
1542 55.774303
1540 54.914642
1538 53.517754
1536 51.751659
1534 49.904423
1532 48.08527
1530 46.408993
1528 44.829544
1526 43.304298
1524 41.716572
1522 39.993793
1520 37.974136
1518 35.563953
1516 33.136272
1514 30.810093
1512 28.691561
1510 26.834467
1508 24.630894
1506 21.945263
1504 19.136251
1502 16.240313
1500 13.793557
1498 11.86027
1496 10.031114
1494 8.3212337
1492 6.669446
1490 5.110671
1488 3.6843252
1486 2.4420252
1484 1.418479
1482 0.66012037
1480 0.1769494
1478 -0.033163682
1476 0.027352542
1474 0.45117891
1472 1.2286122
1470 2.191927
1468 3.2598531
1466 4.2934051
1464 5.2021275
1462 6.0724859
1460 6.9354672
1458 7.8661366
1456 8.9075994
1454 9.8334541
1452 10.550809
1450 10.950818
1448 10.884514
1446 10.652822
1444 10.195185
1442 9.6910391
1440 9.1160069
1438 8.4664507
1436 7.7094932
1434 6.8403525
1432 5.8941097
1430 5.0386176
1428 4.32336
1426 3.7988329
1424 3.4635589
1422 3.268609
1420 3.2254889
1418 3.3408818
1416 3.5896599
1414 3.9572349
1412 4.3823509
1410 4.8286991
1408 5.2921205
1406 5.7770009
1404 6.2472968
1402 6.6793747
1400 7.0096121
1398 7.1615925
1396 7.1871643
1394 7.0060215
1392 6.7886338
1390 6.5119467
1388 6.2321081
1386 5.94451
1384 5.6406884
1382 5.3154368
1380 4.9852438
1378 4.640521
1376 4.2602544
1374 3.8279383
1372 3.3334241
1370 2.7857056
1368 2.2312653
1366 1.6794878
1364 1.149617
1362 0.65951467
1360 0.23956715
1358 -0.079111874
1356 -0.22886315
1354 -0.25133914
1352 -0.11847874
1350 0.1022862
1348 0.42528829
1346 0.77573502
1344 1.14974
1342 1.5070235
1340 1.8209924
1338 2.0805359
1336 2.227603
1334 2.3097634
1332 2.2723022
1330 2.199609
1328 2.0716527
1326 1.9338286
1324 1.78817
1322 1.6614804
1320 1.5672395
1318 1.5139896
1316 1.50493
1314 1.5139372
1312 1.5283359
1310 1.5147302
1308 1.4704525
1306 1.3903314
1304 1.2931468
1302 1.2027249
1300 1.135348
1298 1.124611
1296 1.1618714
1294 1.2803324
1292 1.4488051
1290 1.7013786
1288 1.9880919
1286 2.3330328
1284 2.6831255
1282 3.0345831
1280 3.3598733
1278 3.6232872
1276 3.8459713
1274 3.9915729
1272 4.1235113
1270 4.2375317
1268 4.3682013
1266 4.5257249
1264 4.705812
1262 4.9231415
1260 5.1927843
1258 5.5347505
1256 5.9702001
1254 6.5032368
1252 7.1330094
1250 7.8380218
1248 8.5974751
1246 9.3750753
1244 10.123145
1242 10.824061
1240 11.403651
1238 11.888331
1236 12.167529
1234 12.312096
1232 12.14548
1230 11.83301
1228 11.148577
1226 10.366672
1224 9.3346281
1222 8.2894831
1220 7.2240639
1218 6.2338829
1216 5.4083142
1214 4.715858
1212 4.2592182
1210 3.9424009
1208 3.8245051
1206 3.7875159
1204 3.828712
1202 3.8279598
1200 3.7606738
1198 3.5605996
1196 3.2432001
1194 2.8284295
1192 2.3593473
1190 1.893855
1188 1.4494991
1186 1.0857981
1184 0.77673978
1182 0.58387268
1180 0.44188273
1178 0.40016791
1176 0.388616
1174 0.44393444
1172 0.51479083
1170 0.63027889
1168 0.74185139
1166 0.83889765
1164 0.91011941
1162 0.91720325
1160 0.90650862
1158 0.86156541
1156 0.81677717
1154 0.77056199
1152 0.71398294
1150 0.64170814
1148 0.55456561
1146 0.45169467
1144 0.34637538
1142 0.23922631
1140 0.13320506
1138 0.02703701
1136 -0.086507685
1134 -0.1995942
1132 -0.23040706
1130 -0.2127496
1128 -0.10573729
1126 0.027851477
1124 0.17305817
1122 0.30823165
1120 0.37956119
1118 0.43919891
1116 0.46821898
1114 0.50601345
1112 0.58287221
1110 0.66712213
1108 0.77399004
1106 0.87618601
1104 0.96755505
1102 1.0628411
1100 1.1678525
1098 1.290614
1096 1.4425571
1094 1.6121271
1092 1.806748
1090 2.0288765
1088 2.2820115
1086 2.5685837
1084 2.8781545
1082 3.1715713
1080 3.4401801
1078 3.6007252
1076 3.6958871
1074 3.6690323
1072 3.6018486
1070 3.5298021
1068 3.4644222
1066 3.4550209
1064 3.448092
1062 3.4068
1060 3.3526049
1058 3.2263813
1056 3.0982542
1054 2.9622495
1052 2.8353131
1050 2.738482
1048 2.6601324
1046 2.6275392
1044 2.6168079
1042 2.6485229
1040 2.7044499
1038 2.7967818
1036 2.9049199
1034 3.026849
1032 3.1075034
1030 3.1434417
1028 3.0950868
1026 2.9845722
1024 2.8280787
1022 2.6472139
1020 2.4619193
1018 2.2699151
1016 2.0235031
1014 1.7520573
1012 1.3647414
1010 0.95640337
1008 0.53116
1006 0.1168215
1004 -0.15280138
1002 -0.4055205
1000 -0.55103022
998 -0.69213784
996 -0.81289357
994 -0.91573322
992 -0.96128076
990 -0.97204274
988 -0.90353119
986 -0.83277208
984 -0.7611897
982 -0.74016988
980 -0.78791595
978 -0.86210847
976 -0.95912343
974 -0.98008156
972 -0.93674165
970 -0.82253242
968 -0.66787297
966 -0.55991805
964 -0.47707945
962 -0.47527745
960 -0.50033927
958 -0.54132891
956 -0.58279568
954 -0.55858725
952 -0.52348882
950 -0.41688186
948 -0.3011049
946 -0.099244289
944 0.012457371
942 0.37488499
940 0.72390568
938 1.014173
936 1.2371514
934 1.2639322
932 1.3103757
930 1.4007068
928 1.5726143
926 1.8736707
924 2.1274381
922 2.3214993
920 2.3783984
918 2.306632
916 2.1232529
914 1.861568
912 1.6184303
910 1.3867221
908 1.3095458
906 1.2922707
904 1.3722045
902 1.4786947
900 1.7804534
898 2.114219
896 2.8264999
