##TITLE=Methyl Ethyl Ketone
##JCAMP-DX=4.24
##DATA TYPE=INFRARED SPECTRUM
##XUNITS=cm-1
##YUNITS=Absorbance
##FIRSTX=900
##LASTX=2300
##XYDATA=(X++(Y..Y))
2296 0.075383
2294 0.076950759
2292 0.078518517
2290 0.080087267
2288 0.081655033
2286 0.083223782
2284 0.084791541
2282 0.086360283
2280 0.087928057
2278 0.089496799
2276 0.091064572
2274 0.092633314
2272 0.094201088
2270 0.095769823
2268 0.097337604
2266 0.098906338
2264 0.10047411
2262 0.10204187
2260 0.10360963
2258 0.10517738
2256 0.10674514
2254 0.1083129
2252 0.10988066
2250 0.11144841
2248 0.11301617
2246 0.11458392
2244 0.06365864
2242 0.0023795485
2240 -0.042383041
2238 -0.07381966
2236 -0.10343152
2234 -0.039591007
2232 0.03268424
2230 0.14306313
2228 0.24088642
2226 0.22389299
2224 0.19743264
2222 0.15422469
2220 0.14455126
2218 0.23972949
2216 0.35121515
2214 0.48538187
2212 0.5819062
2210 0.61479735
2208 0.61001998
2206 0.56313109
2204 0.50874114
2202 0.44972831
2200 0.39268583
2198 0.33735099
2196 0.33225429
2194 0.35604319
2192 0.46608046
2190 0.61307931
2188 0.7748819
2186 0.9407028
2184 1.0413816
2182 1.1270785
2180 1.1297811
2178 1.1196935
2176 1.0667771
2174 1.012697
2172 0.99019068
2170 0.99089879
2168 1.1074916
2166 1.2583557
2164 1.4928697
2162 1.7020829
2160 1.8249062
2158 1.8691726
2156 1.78091
2154 1.6639497
2152 1.525044
2150 1.4232575
2148 1.3658817
2146 1.3445857
2144 1.3511686
2142 1.371246
2140 1.3988354
2138 1.452922
2136 1.5210458
2134 1.6170748
2132 1.72439
2130 1.7933351
2128 1.84974
2126 1.8312728
2124 1.7955211
2122 1.7671806
2120 1.7450904
2118 1.8148471
2116 1.9047871
2114 2.0474348
2112 2.1886001
2110 2.2894652
2108 2.3667688
2106 2.390888
2104 2.406388
2102 2.4200432
2100 2.4404759
2098 2.4726057
2096 2.5079999
2094 2.5452747
2092 2.5887158
2090 2.6381841
2088 2.6905556
2086 2.744725
2084 2.7877762
2082 2.823396
2080 2.8683641
2078 2.9185743
2076 2.9747956
2074 3.0331075
2072 3.0280361
2070 3.0023232
2068 2.9264917
2066 2.8388901
2064 2.7665007
2062 2.6998649
2060 2.6650212
2058 2.6445961
2056 2.66924
2054 2.7102363
2052 2.7770514
2050 2.8455691
2048 2.904156
2046 2.9455786
2044 2.9566641
2042 2.9436026
2040 2.9038103
2038 2.8648474
2036 2.8341229
2034 2.8380477
2032 2.8737931
2030 2.913595
2028 2.9514215
2026 2.9527886
2024 2.9304514
2022 2.9324777
2020 2.9485712
2018 2.9892061
2016 3.03984
2014 3.0443704
2012 3.0338128
2010 3.0078673
2008 2.9778125
2006 2.9382207
2004 2.8975263
2002 2.8637412
2000 2.8443041
1998 2.8756917
1996 2.926743
1994 2.9963725
1992 3.0657125
1990 3.1273859
1988 3.1844139
1986 3.2413342
1984 3.2814331
1982 3.2981431
1980 3.274684
1978 3.209986
1976 3.11868
1974 3.0099752
1972 2.9162352
1970 2.8357329
1968 2.7984338
1966 2.7871735
1964 2.8141072
1962 2.860234
1960 2.9176521
1958 2.9792831
1956 2.9924829
1954 2.9865346
1952 2.910352
1950 2.8172889
1948 2.7617121
1946 2.7306252
1944 2.7693384
1942 2.8154571
1940 2.8232901
1938 2.8032718
1936 2.74418
1934 2.6876681
1932 2.6550601
1930 2.6327901
1928 2.6113777
1926 2.5909121
1924 2.568491
1922 2.5636191
1920 2.5808496
1918 2.6024761
1916 2.6279442
1914 2.6771834
1912 2.7434821
1910 2.835753
1908 2.9413073
1906 2.9671321
1904 2.9488959
1902 2.832315
1900 2.6735249
1898 2.5672789
1896 2.4929142
1894 2.5491471
1892 2.6528215
1890 2.7395551
1888 2.7867081
1886 2.699975
1884 2.5525198
1882 2.3734632
1880 2.2015502
1878 2.0690897
1876 1.98268
1874 1.9481162
1872 1.9881234
1870 2.1097527
1868 2.2221317
1866 2.3008463
1864 2.2546709
1862 2.095439
1860 1.9138325
1858 1.7350389
1856 1.5872142
1854 1.4588801
1852 1.3180372
1850 1.1627529
1848 1.0269096
1846 0.89926392
1844 0.86570579
1842 0.87852782
1840 0.95954305
1838 1.0794895
1836 1.2403214
1834 1.4388609
1832 1.7113137
1830 1.9878254
1828 2.1680009
1826 2.2129056
1824 2.0239148
1822 1.7242815
1820 1.39319
1818 1.1063569
1816 0.90755033
1814 0.78571081
1812 0.72404003
1810 0.71297431
1808 0.74162298
1806 0.8035025
1804 0.88875669
1802 0.92034167
1800 0.89321744
1798 0.81336117
1796 0.70035571
1794 0.69130915
1792 0.76535076
1790 0.83049607
1788 0.88940477
1786 0.83921522
1784 0.73234445
1782 0.64576423
1780 0.58093816
1778 0.56730038
1776 0.60081631
1774 0.71755147
1772 0.86137789
1770 0.97985983
1768 0.99672002
1766 0.80767179
1764 0.5294984
1762 0.24803796
1760 0.053381771
1758 -0.15301731
1756 -0.32428598
1754 -0.39116502
1752 -0.33700165
1750 -0.1853167
1748 -0.030802291
1746 0.098603427
1744 0.054135438
1742 -0.13968503
1740 -0.32247272
1738 -0.47263119
1736 -0.43329999
1734 -0.25888172
1732 -0.1387748
1730 -0.07003016
1728 -0.17448445
1726 -0.37004736
1724 -0.44910082
1722 -0.3775031
1720 0.081878275
1718 0.87454736
1716 1.9683187
1714 3.0573595
1712 3.7155509
1710 4.0832987
1708 4.2919617
1706 4.6556935
1704 5.4447222
1702 6.9026942
1700 9.1396837
1698 12.232
1696 16.115572
1694 20.068439
1692 23.754385
1690 27.133961
1688 30.243904
1686 33.910736
1684 38.204762
1682 43.019302
1680 48.217358
1678 52.614029
1676 56.297359
1674 59.994926
1672 63.782131
1670 68.200554
1668 73.065872
1666 77.791351
1664 82.374001
1662 86.737495
1660 90.897339
1658 94.854698
1656 98.554741
1654 101.90549
1652 104.6568
1650 106.55093
1648 107.04274
1646 105.79179
1644 103.39208
1642 100.42592
1640 97.185196
1638 93.861549
1636 90.04097
1634 85.617561
1632 80.988022
1630 76.323441
1628 71.883133
1626 67.687683
1624 63.288521
1622 58.642086
1620 53.965153
1618 49.296192
1616 44.950542
1614 40.962421
1612 37.501488
1610 34.57148
1608 32.069382
1606 29.957287
1604 28.054977
1602 26.390221
1600 24.983463
1598 23.861557
1596 23.021
1594 22.443689
1592 22.071749
1590 21.873079
1588 21.794621
1586 21.834272
1584 21.972982
1582 22.23303
1580 22.612268
1578 23.193254
1576 24.001657
1574 25.023268
1572 26.25316
1570 27.534487
1568 28.833799
1566 30.1113
1564 31.3622
1562 32.7869
1560 34.459103
1558 36.817322
1556 39.830685
1554 42.742863
1552 45.408592
1550 47.335621
1548 48.612675
1546 49.763786
1544 50.795967
1542 51.774204
1540 52.434078
1538 52.465626
1536 51.834827
1534 50.607758
1532 49.115379
1530 47.679493
1528 46.305664
1526 44.995998
1524 43.673183
1522 42.300446
1520 40.803604
1518 39.169151
1516 37.438686
1514 35.61195
1512 33.72168
1510 31.737295
1508 29.301823
1506 26.286865
1504 23.215725
1502 20.162981
1500 17.624634
1498 15.67483
1496 13.840428
1494 12.119596
1492 10.411775
1490 8.7133446
1488 7.0250568
1486 5.3667688
1484 3.7687621
1482 2.348232
1480 1.2311738
1478 0.47578996
1476 0.1111411
1474 0.15365046
1472 0.65507603
1470 1.337302
1468 1.9658613
1466 2.4956443
1464 2.8563218
1462 3.2084465
1460 3.6149211
1458 4.126236
1456 4.7980399
1454 5.4053016
1452 5.8963823
1450 6.1606793
1448 6.0972104
1446 5.9219179
1444 5.596282
1442 5.2692342
1440 4.9426365
1438 4.6529522
1436 4.3796101
1434 4.0599589
1432 3.671505
1430 3.2181537
1428 2.7598159
1426 2.4123807
1424 2.2339821
1422 2.2794864
1420 2.4961183
1418 2.8166859
1416 3.1342771
1414 3.337415
1412 3.4996331
1410 3.6481295
1408 3.8508458
1406 4.16225
1404 4.5289888
1402 4.965415
1400 5.409564
1398 5.8551283
1396 6.2394571
1394 6.5126996
1392 6.6699324
1390 6.6467509
1388 6.5351954
1386 6.2879949
1384 5.9606261
1382 5.5227609
1380 5.0447097
1378 4.5233717
1376 4.0212688
1374 3.5404866
1372 3.101686
1370 2.7157347
1368 2.3820915
1366 2.0947971
1364 1.8142662
1362 1.5174909
1360 1.1771411
1358 0.82863873
1356 0.51344603
1354 0.26121813
1352 0.11454758
1350 0.023486478
1348 -0.007975217
1346 -0.013713225
1344 0.022794645
1342 0.091265745
1340 0.21569626
1338 0.33789271
1336 0.45414943
1334 0.53225654
1332 0.56699777
1330 0.60761309
1328 0.66966307
1326 0.78378779
1324 0.9707315
1322 1.2238063
1320 1.5498737
1318 1.9045634
1316 2.26843
1314 2.5801044
1312 2.8293715
1310 2.9934661
1308 3.0927279
1306 3.1438143
1304 3.163861
1302 3.1651452
1300 3.1549373
1298 3.1415186
1296 3.1368856
1294 3.16555
1292 3.215265
1290 3.3042262
1288 3.3954999
1286 3.4796822
1284 3.5521982
1282 3.5989208
1280 3.6454642
1278 3.6952167
1276 3.7653556
1274 3.8751662
1272 4.0197473
1270 4.2201147
1268 4.444334
1266 4.7019744
1264 4.9599633
1262 5.2230458
1260 5.49404
1258 5.7792606
1256 6.0903425
1254 6.4233894
1252 6.7639575
1250 7.1036234
1248 7.422565
1246 7.7241001
1244 8.0043621
1242 8.2707319
1240 8.5203724
1238 8.7501106
1236 8.9288101
1234 9.0679569
1232 9.1077719
1230 9.0944662
1228 8.9393244
1226 8.7314367
1224 8.3821726
1222 8.0066977
1220 7.5705638
1218 7.1281877
1216 6.6713967
1214 6.1952567
1212 5.6846614
1210 5.1546969
1208 4.6029906
1206 4.0691528
1204 3.5647478
1202 3.1047502
1200 2.6912005
1198 2.3109038
1196 1.9590286
1194 1.6287837
1192 1.3153325
1190 1.0216323
1188 0.74769729
1186 0.52020276
1184 0.33195928
1182 0.2425978
1180 0.1981788
1178 0.24426989
1176 0.30663002
1174 0.38380766
1172 0.45157698
1170 0.48021215
1168 0.49393362
1166 0.46360943
1164 0.42665726
1162 0.37679207
1160 0.34945056
1158 0.36687231
1156 0.39592558
1154 0.43432981
1152 0.42036772
1150 0.33399433
1148 0.21540701
1146 0.0738068
1144 -0.011650834
1142 -0.040884394
1140 -0.018665196
1138 0.033446975
1136 0.070017427
1134 0.10393066
1132 0.2058076
1130 0.3524206
1128 0.59668142
1126 0.87477732
1124 1.1895912
1122 1.5143346
1120 1.857548
1118 2.1942041
1116 2.4860656
1114 2.742836
1112 2.8540583
1110 2.9336345
1108 2.915292
1106 2.9070749
1104 2.9289742
1102 2.9970984
1100 3.1581731
1098 3.3585143
1096 3.6197715
1094 3.8932729
1092 4.178556
1090 4.4399185
1088 4.6736536
1086 4.8722696
1084 5.0458622
1082 5.2309952
1080 5.4215827
1078 5.6047997
1076 5.77706
1074 5.8961816
1072 6.000474
1070 6.121573
1068 6.2499743
1066 6.4021821
1064 6.53862
1062 6.5356755
1060 6.5000544
1058 6.2992835
1056 6.0974083
1054 5.8914204
1052 5.6985626
1050 5.5470881
1048 5.3990998
1046 5.2592034
1044 5.1183462
1042 4.9748044
1040 4.8175044
1038 4.6398635
1036 4.4521599
1034 4.2540302
1032 4.0657754
1030 3.8786364
1028 3.6203978
1026 3.3019271
1024 2.8670332
1022 2.3814058
1020 1.9992377
1018 1.6755151
1016 1.5512228
1014 1.4764122
1012 1.3573937
1010 1.2149574
1008 0.89306283
1006 0.55262661
1004 0.17129718
1002 -0.18245259
1000 -0.34368691
998 -0.45800763
996 -0.36778
994 -0.2912342
992 -0.26119485
990 -0.30983847
988 -0.53905648
986 -0.79560363
984 -1.0931578
982 -1.279851
980 -1.310712
978 -1.1914227
976 -0.91593456
974 -0.61641049
972 -0.30218649
970 -0.067924209
968 0.11278337
966 0.20351601
964 0.25204462
962 0.27038145
960 0.28406298
958 0.39784425
956 0.53666168
954 0.75239801
952 0.96779162
950 0.95030701
948 0.89997208
946 0.51401103
944 0.14441292
942 -0.0083650947
940 -0.25031477
938 -0.11273217
936 0.086557835
934 0.46489903
932 0.8013376
930 1.0486472
928 1.2973417
926 1.5509557
924 1.934222
922 2.4743743
920 3.0051622
918 3.5229945
916 3.7741058
914 3.8352025
912 3.7256062
910 3.5257909
908 3.3852758
906 3.2666349
904 3.2437069
902 3.2455103
900 3.3877707
898 3.552362
896 3.8053
