##TITLE=Methyl Ethyl Ketone
##JCAMP-DX=4.24
##DATA TYPE=INFRARED SPECTRUM
##XUNITS=cm-1
##YUNITS=Absorbance
##FIRSTX=900
##LASTX=2300
##XYDATA=(X++(Y..Y))
2296 0.021397
2294 0.021841364
2292 0.022286726
2290 0.022732088
2288 0.023177452
2286 0.023621822
2284 0.024067178
2282 0.024512541
2280 0.024957903
2278 0.025403265
2276 0.025847644
2274 0.026292991
2272 0.026738353
2270 0.027183717
2268 0.0276281
2266 0.028073443
2264 0.028518805
2262 0.028964169
2260 0.029408557
2258 0.029853895
2256 0.030299257
2254 0.030744622
2252 0.031189013
2250 0.031634346
2248 0.032079708
2246 0.03252507
2244 0.0012086657
2242 0.02398668
2240 0.043227401
2238 0.070275903
2236 0.098512545
2234 0.11486834
2232 0.13002743
2230 0.1374567
2228 0.14170989
2226 0.1235845
2224 0.10397109
2222 0.082720503
2220 0.066719644
2218 0.06698592
2216 0.065623567
2214 0.058701288
2212 0.046610601
2210 0.026609331
2208 0.013128657
2206 0.0083834911
2204 0.0082493648
2202 0.012028669
2200 0.011794235
2198 0.0083679873
2196 0.0043422501
2194 8.9730514e-05
2192 -0.0007750513
2190 -0.00015117278
2188 0.00113109
2186 0.0025994414
2184 -6.4119202e-05
2182 -0.0036817384
2180 0.0061511355
2178 0.018239588
2176 0.049995314
2174 0.082137637
2172 0.09810935
2170 0.1093363
2168 0.10216103
2166 0.091703422
2164 0.075840637
2162 0.05179337
2160 0.0081575681
2158 -0.04332928
2156 -0.10593539
2154 -0.15405864
2152 -0.17952091
2150 -0.18284051
2148 -0.16386595
2146 -0.15469928
2144 -0.15626794
2142 -0.1873273
2140 -0.23812655
2138 -0.28623024
2136 -0.33177599
2134 -0.33599612
2132 -0.32290965
2130 -0.27769151
2128 -0.22270961
2126 -0.17063178
2124 -0.11941519
2122 -0.090095721
2120 -0.066021748
2118 -0.075274445
2116 -0.092132844
2114 -0.13033411
2112 -0.16985354
2110 -0.20157191
2108 -0.22914414
2106 -0.24762979
2104 -0.26779526
2102 -0.29463801
2100 -0.32731861
2098 -0.36813867
2096 -0.39895573
2094 -0.41511422
2092 -0.40664083
2090 -0.37485501
2088 -0.33333251
2086 -0.28652149
2084 -0.24614994
2082 -0.21050222
2080 -0.19540583
2078 -0.19078475
2076 -0.20968786
2074 -0.23784606
2072 -0.25308761
2070 -0.26385629
2068 -0.25883448
2066 -0.25047657
2064 -0.26369834
2062 -0.28087518
2060 -0.29498091
2058 -0.30392492
2056 -0.28778228
2054 -0.26705468
2052 -0.24761803
2050 -0.23319159
2048 -0.23100281
2046 -0.23611644
2044 -0.25073358
2042 -0.26791039
2040 -0.28624251
2038 -0.29718536
2036 -0.29903656
2034 -0.29895619
2032 -0.29860544
2030 -0.30946499
2028 -0.32916364
2026 -0.35110629
2024 -0.3735247
2022 -0.38237181
2020 -0.38410228
2018 -0.3778486
2016 -0.368644
2014 -0.34838083
2012 -0.3245309
2010 -0.29370767
2008 -0.26280838
2006 -0.25940013
2004 -0.26550797
2002 -0.2890242
2000 -0.31173599
1998 -0.31166098
1996 -0.29765213
1994 -0.25883007
1992 -0.22156125
1990 -0.20183912
1988 -0.2066578
1986 -0.24707329
1984 -0.29765308
1982 -0.35060501
1980 -0.38763717
1978 -0.40601277
1976 -0.39774486
1974 -0.3685196
1972 -0.31689382
1970 -0.25134319
1968 -0.2001912
1966 -0.15981451
1964 -0.15545022
1962 -0.16923468
1960 -0.18423919
1958 -0.19877446
1956 -0.21393242
1954 -0.229837
1952 -0.26251584
1950 -0.29774818
1948 -0.3052406
1946 -0.297425
1944 -0.25513595
1942 -0.20666176
1940 -0.17521992
1938 -0.15655211
1936 -0.15777114
1934 -0.16294903
1932 -0.1639102
1930 -0.16541316
1928 -0.16954514
1926 -0.178339
1924 -0.19214974
1922 -0.20483238
1920 -0.21498245
1918 -0.22433171
1916 -0.23371042
1914 -0.23213255
1912 -0.22220527
1910 -0.20015787
1908 -0.17127705
1906 -0.16313314
1904 -0.16698
1902 -0.18262741
1900 -0.20320414
1898 -0.18973415
1896 -0.16105857
1894 -0.10977525
1892 -0.053784616
1890 -0.025711671
1888 -0.018383069
1886 -0.054489266
1884 -0.10911711
1882 -0.17093347
1880 -0.22600332
1878 -0.25918359
1876 -0.26623499
1874 -0.23873572
1872 -0.1794488
1870 -0.089298144
1868 -0.019060219
1866 0.013895422
1864 -0.018807195
1862 -0.10984561
1860 -0.20651974
1858 -0.29454109
1856 -0.35086229
1854 -0.38401374
1852 -0.38357413
1850 -0.36341581
1848 -0.30910602
1846 -0.236375
1844 -0.17615609
1842 -0.12446587
1840 -0.1125284
1838 -0.11778804
1836 -0.10870843
1834 -0.084239982
1832 -0.012921229
1830 0.076362185
1828 0.15458328
1826 0.196747
1824 0.15381446
1822 0.061329711
1820 -0.061897539
1818 -0.1714197
1816 -0.23610286
1814 -0.25513893
1812 -0.23173726
1810 -0.19500434
1808 -0.15948623
1806 -0.13055399
1804 -0.10819997
1802 -0.089325376
1800 -0.071868449
1798 -0.052294053
1796 -0.0307115
1794 0.0058467221
1792 0.0525662
1790 0.069674768
1788 0.066880316
1786 0.03584585
1784 -0.0081503205
1782 -0.018756708
1780 -0.00391301
1778 0.057411697
1776 0.14881432
1774 0.26298001
1772 0.36848933
1770 0.4094744
1768 0.38862285
1766 0.29267386
1764 0.1784562
1762 0.096679725
1760 0.027082549
1758 -0.044635594
1756 -0.080112986
1754 -0.063296847
1752 0.018278323
1750 0.15687799
1748 0.26790848
1746 0.33038858
1744 0.28074262
1742 0.13595164
1740 0.010947412
1738 -0.080220312
1736 -0.064853996
1734 0.028728954
1732 0.071045667
1730 0.067980707
1728 -0.037367284
1726 -0.19832543
1724 -0.26090097
1722 -0.2201515
1720 0.013558462
1718 0.38606638
1716 0.90741485
1714 1.4754187
1712 1.9109428
1710 2.2836196
1708 2.675112
1706 3.2573206
1704 4.1850886
1702 5.6722107
1700 7.8142729
1698 10.750119
1696 14.432285
1694 18.21277
1692 21.785528
1690 25.052771
1688 28.048805
1686 31.609486
1684 35.807106
1682 40.831017
1680 46.507839
1678 51.47155
1676 55.7612
1674 59.843292
1672 63.847073
1670 68.519455
1668 73.67244
1666 78.68335
1664 83.472092
1662 87.73735
1660 91.535965
1658 94.953552
1656 98.011856
1654 100.75376
1652 102.8912
1650 104.11932
1648 103.96509
1646 102.11572
1644 99.392395
1642 96.520401
1640 93.50489
1638 90.373718
1636 86.583298
1634 81.98526
1632 77.131409
1630 72.246529
1628 67.664055
1626 63.419521
1624 59.163601
1622 54.844067
1620 50.582863
1618 46.39222
1616 42.403
1614 38.649864
1612 35.355209
1610 32.536129
1608 30.184469
1606 28.2708
1604 26.624691
1602 25.250429
1600 24.110184
1598 23.213842
1596 22.536999
1594 22.071552
1592 21.777081
1590 21.632864
1588 21.59791
1586 21.660707
1584 21.801525
1582 22.02669
1580 22.332695
1578 22.780184
1576 23.388201
1574 24.160795
1572 25.091509
1570 26.106054
1568 27.18572
1566 28.302835
1564 29.456963
1562 30.779949
1560 32.358685
1558 34.778824
1556 38.097729
1554 41.772701
1552 45.596104
1550 48.609039
1548 50.873104
1546 52.931999
1544 54.833279
1542 56.735481
1540 58.326881
1538 59.151875
1536 59.107571
1534 58.206406
1532 56.842537
1530 55.476494
1528 54.097805
1526 52.697502
1524 51.103359
1522 49.207184
1520 46.974442
1518 44.369095
1516 41.825527
1514 39.490623
1512 37.340038
1510 35.396996
1508 33.005196
1506 30.005886
1504 26.899086
1502 23.724546
1500 20.997032
1498 18.76811
1496 16.577
1494 14.421945
1492 12.25722
1490 10.089567
1488 7.9419003
1486 5.8702564
1484 3.9685621
1482 2.349993
1480 1.1363738
1478 0.36191949
1476 0.063429929
1474 0.31797895
1472 1.0629585
1470 1.989634
1468 2.9149327
1466 3.7157464
1464 4.296948
1462 4.8153005
1460 5.3275838
1458 5.8512349
1456 6.3947001
1454 6.8143325
1452 7.0339923
1450 7.0991969
1448 6.9453678
1446 6.7346821
1444 6.449543
1442 6.167953
1440 5.888834
1438 5.6000056
1436 5.2726355
1434 4.8349557
1432 4.2794724
1430 3.676527
1428 3.0774281
1426 2.6025794
1424 2.2800601
1422 2.1241231
1420 2.1152761
1418 2.2168131
1416 2.3746798
1414 2.534163
1412 2.6960461
1410 2.8625166
1408 3.0647538
1406 3.3357685
1404 3.6582637
1402 4.0484328
1400 4.4628639
1398 4.9033904
1396 5.3270855
1394 5.7116551
1392 6.017765
1390 6.182847
1388 6.2314019
1386 6.0940304
1384 5.844718
1382 5.4458151
1380 5.0065742
1378 4.5286708
1376 4.071703
1374 3.6448581
1372 3.2503419
1370 2.8909717
1368 2.5578978
1366 2.2305286
1364 1.8693372
1362 1.47357
1360 1.0379298
1358 0.62300241
1356 0.30511713
1354 0.086292118
1352 0.018136263
1350 0.025624085
1348 0.10669651
1346 0.22214749
1344 0.40379679
1342 0.61886585
1340 0.89068192
1338 1.1512718
1336 1.3806485
1334 1.5595822
1332 1.6490434
1330 1.7327809
1328 1.8151795
1326 1.9372964
1324 2.1227973
1322 2.3585036
1320 2.6603074
1318 3.0000877
1316 3.3681898
1314 3.7083755
1312 4.0024576
1310 4.2192407
1308 4.3700843
1306 4.4764314
1304 4.5521564
1302 4.608665
1300 4.6470532
1298 4.6570582
1296 4.6511288
1294 4.6264839
1292 4.5980215
1290 4.5706172
1288 4.544168
1286 4.5198584
1284 4.4994898
1282 4.4895287
1280 4.4874969
1278 4.5033751
1276 4.5245686
1274 4.5571818
1272 4.5991011
1270 4.6586657
1268 4.7341681
1266 4.832665
1264 4.9405222
1262 5.0591974
1260 5.1797762
1258 5.3022528
1256 5.4249802
1254 5.5479016
1252 5.6704245
1250 5.7921948
1248 5.9123707
1246 6.0289001
1244 6.1355028
1242 6.2292118
1240 6.2923899
1238 6.3284988
1236 6.3032112
1234 6.238996
1232 6.085156
1230 5.8934698
1228 5.6081967
1226 5.2952681
1224 4.9090915
1222 4.498702
1220 4.0312963
1218 3.553967
1216 3.0618286
1214 2.5965049
1212 2.1824129
1210 1.8168535
1208 1.5215161
1206 1.2600121
1204 1.0383208
1202 0.83207321
1200 0.64424938
1198 0.47802496
1196 0.33373427
1194 0.21756554
1192 0.12299082
1190 0.052242786
1188 0.00066040643
1186 -0.014861171
1184 -0.0053173304
1182 0.058701061
1180 0.15144594
1178 0.31100532
1176 0.49273399
1174 0.72727638
1172 0.96172345
1170 1.1828351
1168 1.3836389
1166 1.5209386
1164 1.63218
1162 1.6786211
1160 1.7058709
1158 1.6949495
1156 1.6757572
1154 1.638993
1152 1.5725462
1150 1.4581718
1148 1.283712
1146 1.0428874
1144 0.77658778
1142 0.49701384
1140 0.25932187
1138 0.0660505
1136 -0.036004517
1134 -0.06763497
1132 0.016552866
1130 0.1621483
1128 0.39762866
1126 0.65153188
1124 0.87332553
1122 1.0678178
1120 1.1481999
1118 1.2084906
1116 1.2180815
1114 1.2348078
1112 1.2850394
1110 1.3451794
1108 1.4358799
1106 1.5269001
1104 1.6173869
1102 1.6960695
1100 1.7488085
1098 1.7749367
1096 1.7583572
1094 1.7245922
1092 1.674118
1090 1.6522621
1088 1.6640079
1086 1.7203279
1084 1.8080834
1082 1.88017
1080 1.9330388
1078 1.9148999
1076 1.8595071
1074 1.7652704
1072 1.6599081
1070 1.5666274
1068 1.4764377
1066 1.3890235
1064 1.29906
1062 1.187054
1060 1.073119
1058 0.95434684
1056 0.84271657
1054 0.76340652
1052 0.69844818
1050 0.68028063
1048 0.67990893
1046 0.72144675
1044 0.75881183
1042 0.78315723
1040 0.75277781
1038 0.63903821
1036 0.47490099
1034 0.25583667
1032 0.054023303
1030 -0.12819433
1028 -0.26591289
1026 -0.37089306
1024 -0.45182377
1022 -0.51811731
1020 -0.56219316
1018 -0.59660506
1016 -0.61881512
1014 -0.63944644
1012 -0.67878723
1010 -0.72212374
1008 -0.77484721
1006 -0.82673579
1004 -0.85937047
1002 -0.88603401
1000 -0.87273979
998 -0.85143155
996 -0.79538572
994 -0.74379838
992 -0.70693046
990 -0.68560606
988 -0.70008141
986 -0.72108644
984 -0.75273621
982 -0.77453381
980 -0.78196877
978 -0.76863521
976 -0.73316777
974 -0.68426663
972 -0.62508512
970 -0.57280225
968 -0.52493751
966 -0.48209849
964 -0.44080526
962 -0.38517588
960 -0.32500565
958 -0.2663846
956 -0.20967714
954 -0.18859318
952 -0.17191
950 -0.15783897
948 -0.1385892
946 -0.045629036
944 0.0018748119
942 0.058418453
940 0.17264695
938 0.30724519
936 0.429878
934 0.51703072
932 0.58515102
930 0.61280352
928 0.64220715
926 0.67497015
924 0.7338748
922 0.82424039
920 0.90147704
918 0.9651193
916 0.93873501
914 0.84816188
912 0.69961035
910 0.52105707
908 0.3951222
906 0.28981373
904 0.24708961
902 0.22101201
900 0.24247332
898 0.27172679
896 0.3953
