##TITLE=Methyl Ethyl Ketone
##JCAMP-DX=4.24
##DATA TYPE=INFRARED SPECTRUM
##XUNITS=cm-1
##YUNITS=Absorbance
##FIRSTX=900
##LASTX=2300
##XYDATA=(X++(Y..Y))
2296 -0.0036683001
2294 -0.0037446909
2292 -0.0038210815
2290 -0.0038972732
2288 -0.0039735632
2286 -0.004049954
2284 -0.0041262452
2282 -0.0042025358
2280 -0.0042789257
2278 -0.0043551191
2276 -0.0044315071
2274 -0.0045077996
2272 -0.0045840903
2270 -0.0046604793
2268 -0.0047367723
2266 -0.004813063
2264 -0.0048893536
2262 -0.0049657421
2260 -0.0050420356
2258 -0.0051183263
2256 -0.005194617
2254 -0.0052709081
2252 -0.0053471993
2250 -0.0054235863
2248 -0.0054998808
2246 -0.0055762678
2244 -0.00020722
2242 0.022883922
2240 0.024332879
2238 0.045660209
2236 0.070103742
2234 0.065567024
2232 0.057834033
2230 0.02539997
2228 -0.0077838479
2226 -0.037307996
2224 -0.06654074
2222 -0.095122918
2220 -0.11641456
2218 -0.11552923
2216 -0.10069012
2214 -0.058118135
2212 -0.019191179
2210 0.011093674
2208 0.026182696
2206 0.022976378
2204 0.018657951
2202 0.014360849
2200 0.010203311
2198 0.0061309822
2196 -0.00554795
2194 -0.021594867
2192 -0.036890257
2190 -0.051713444
2188 -0.055563889
2186 -0.055862948
2184 -0.050818201
2182 -0.044607617
2180 -0.061870232
2178 -0.082844272
2176 -0.11938174
2174 -0.15511945
2172 -0.16558434
2170 -0.17002189
2168 -0.15355417
2166 -0.13520485
2164 -0.11727866
2162 -0.10397898
2160 -0.10245206
2158 -0.1039975
2156 -0.109192
2154 -0.10925578
2152 -0.10133205
2150 -0.096810423
2148 -0.097045407
2146 -0.10401318
2144 -0.11647315
2142 -0.1159231
2140 -0.10587017
2138 -0.090607174
2136 -0.073055401
2134 -0.07812535
2132 -0.092930868
2130 -0.12049914
2128 -0.1518912
2126 -0.18179357
2124 -0.21124063
2122 -0.23729581
2120 -0.26092955
2118 -0.24909253
2116 -0.22780342
2114 -0.1741894
2112 -0.12151246
2110 -0.094096221
2108 -0.082172178
2106 -0.10580541
2104 -0.13633189
2102 -0.17035682
2100 -0.200692
2098 -0.22387594
2096 -0.23493856
2094 -0.23139098
2092 -0.21732002
2090 -0.19456583
2088 -0.18925902
2086 -0.19965149
2084 -0.22289005
2082 -0.25327486
2080 -0.26382086
2078 -0.26328275
2076 -0.26190272
2074 -0.26066506
2072 -0.27866441
2070 -0.3027924
2068 -0.31890857
2066 -0.33262736
2064 -0.34683201
2062 -0.36311039
2060 -0.40382978
2058 -0.4492186
2056 -0.49389428
2054 -0.5320285
2052 -0.54600483
2050 -0.55262989
2048 -0.55127257
2046 -0.55404389
2044 -0.5672158
2042 -0.582425
2040 -0.59882814
2038 -0.61690545
2036 -0.6381166
2034 -0.67269462
2032 -0.71944755
2030 -0.76605344
2028 -0.81004947
2026 -0.82554132
2024 -0.8224802
2022 -0.78778327
2020 -0.73771888
2018 -0.69598192
2016 -0.65915
2014 -0.66157669
2012 -0.67796999
2010 -0.71575165
2008 -0.75971889
2006 -0.80825877
2004 -0.85650897
2002 -0.89170313
2000 -0.91657656
1998 -0.90718699
1996 -0.8829093
1994 -0.83722377
1992 -0.78918433
1990 -0.75159347
1988 -0.72409904
1986 -0.71482515
1984 -0.72018361
1982 -0.73975283
1980 -0.77633923
1978 -0.8263787
1976 -0.87088257
1974 -0.9063589
1972 -0.90777773
1970 -0.88363284
1968 -0.85328835
1966 -0.82217079
1964 -0.83098018
1962 -0.86222601
1960 -0.91189039
1958 -0.9688254
1956 -1.0046766
1954 -1.0327089
1952 -1.0432714
1950 -1.0503722
1948 -1.059664
1946 -1.0702749
1944 -1.0870731
1942 -1.0997196
1940 -1.1059794
1938 -1.1081675
1936 -1.1082029
1934 -1.1144763
1932 -1.12928
1930 -1.154897
1928 -1.1884949
1926 -1.2156043
1924 -1.2280211
1922 -1.2041103
1920 -1.1480812
1918 -1.081506
1916 -1.0176643
1914 -0.97940928
1912 -0.95979404
1910 -0.96024549
1908 -0.96974504
1906 -1.0111465
1904 -1.070136
1902 -1.1344383
1900 -1.2018092
1898 -1.2132987
1896 -1.2006285
1894 -1.1473278
1892 -1.0804458
1890 -1.036195
1888 -1.0081857
1886 -1.0212657
1884 -1.0500951
1882 -1.0820527
1880 -1.1092606
1878 -1.1187043
1876 -1.1137199
1874 -1.0847242
1872 -1.0287526
1870 -0.9389798
1868 -0.84291023
1866 -0.76273918
1864 -0.73966342
1862 -0.78159553
1860 -0.85964519
1858 -0.95115632
1856 -1.0216869
1854 -1.0691715
1852 -1.0865654
1850 -1.0826397
1848 -1.062016
1846 -1.0284928
1844 -1.0052578
1842 -0.98436934
1840 -0.97751313
1838 -0.97840905
1836 -0.9610917
1834 -0.9335894
1832 -0.86892563
1830 -0.77821481
1828 -0.6621775
1826 -0.54486179
1824 -0.47456312
1822 -0.45487851
1820 -0.50008357
1818 -0.57580906
1816 -0.64951283
1814 -0.70733994
1812 -0.73827249
1810 -0.74002963
1808 -0.71993363
1806 -0.67352003
1804 -0.60751629
1802 -0.56281686
1800 -0.53792763
1798 -0.54475731
1796 -0.57209855
1794 -0.54045367
1792 -0.47018442
1790 -0.35045484
1788 -0.20981729
1786 -0.12243914
1784 -0.072945058
1782 -0.059031136
1780 -0.0651237
1778 -0.05378636
1776 -0.026940743
1774 0.028471515
1772 0.095727861
1770 0.12860908
1768 0.13569313
1766 0.1065892
1764 0.06923198
1762 0.06316942
1760 0.025487183
1758 -0.077241361
1756 -0.17643571
1754 -0.2341042
1752 -0.21803269
1750 -0.12312623
1748 -0.0081259832
1746 0.097943179
1744 0.12079286
1742 0.055480987
1740 -0.031390004
1738 -0.11740669
1736 -0.094234794
1734 0.020313699
1732 0.1590668
1730 0.29906842
1728 0.28878441
1726 0.16909422
1724 0.046708457
1722 -0.052372016
1720 0.019750945
1718 0.26824901
1716 0.75177747
1714 1.371819
1712 1.9594235
1710 2.512325
1708 3.049644
1706 3.7345266
1704 4.7354531
1702 6.3142843
1700 8.5950432
1698 11.754278
1696 15.723143
1694 19.7281
1692 23.422426
1690 26.723934
1688 29.711018
1686 33.300343
1684 37.577015
1682 42.739143
1680 48.588161
1678 53.696815
1676 58.100258
1674 62.268749
1672 66.346199
1670 71.087837
1668 76.321831
1666 81.474899
1664 86.442184
1662 90.886383
1660 94.813896
1658 98.213402
1656 101.06263
1654 103.35744
1652 104.8748
1650 105.37923
1648 104.55354
1646 102.18393
1644 98.965637
1642 95.557732
1640 91.992668
1638 88.331238
1636 84.117531
1634 79.216988
1632 74.227478
1630 69.359169
1628 64.846634
1626 60.703922
1624 56.570763
1622 52.392853
1620 48.366764
1618 44.49892
1616 40.838684
1614 37.401798
1612 34.320137
1610 31.612619
1608 29.314045
1606 27.412914
1604 25.799471
1602 24.492292
1600 23.475143
1598 22.7491
1596 22.271
1594 22.011774
1592 21.899593
1590 21.912247
1588 22.007246
1586 22.186863
1584 22.448954
1582 22.780321
1580 23.173201
1578 23.666159
1576 24.268885
1574 25.031404
1572 25.952232
1570 26.99568
1568 28.146839
1566 29.341471
1564 30.57818
1562 32.022346
1560 33.771736
1558 36.419479
1556 40.02367
1554 43.87402
1552 47.732258
1550 50.665554
1548 52.708691
1546 54.44957
1544 55.911221
1542 57.23494
1540 58.256058
1538 58.698643
1536 58.471771
1534 57.574684
1532 56.203838
1530 54.668976
1528 53.002098
1526 51.23325
1524 49.301754
1522 47.155495
1520 44.854805
1518 42.386734
1516 40.040157
1514 37.926559
1512 35.88752
1510 33.93298
1508 31.49766
1506 28.431664
1504 25.316063
1502 22.190487
1500 19.549549
1498 17.44714
1496 15.382857
1494 13.351076
1492 11.272486
1490 9.1624308
1488 7.064949
1486 5.0604696
1484 3.2921081
1482 1.8447616
1480 0.81373495
1478 0.21298631
1476 0.0471249
1474 0.40984961
1472 1.2374328
1470 2.2429638
1468 3.2376614
1466 4.0663772
1464 4.6365061
1462 5.1184287
1460 5.5779982
1458 6.0787668
1456 6.64324
1454 7.1287026
1452 7.4558325
1450 7.6288991
1448 7.5717807
1446 7.4350753
1444 7.1894803
1442 6.9008851
1440 6.5610418
1438 6.1893754
1436 5.7758698
1434 5.2846317
1432 4.7250843
1430 4.1608186
1428 3.6246819
1426 3.2117558
1424 2.9366806
1422 2.8035967
1420 2.8096914
1418 2.9231181
1416 3.1141057
1414 3.3487821
1412 3.5900633
1410 3.8365476
1408 4.0875201
1406 4.3532171
1404 4.6413431
1402 4.9526634
1400 5.2883639
1398 5.6557684
1396 6.0273499
1394 6.391223
1392 6.6990485
1390 6.8837805
1388 6.9536247
1386 6.8329148
1384 6.5878549
1382 6.1734867
1380 5.6963525
1378 5.153564
1376 4.6061316
1374 4.076942
1372 3.5872922
1370 3.1488934
1368 2.7711902
1366 2.4177763
1364 2.0389616
1362 1.6312449
1360 1.1763301
1358 0.74038982
1356 0.40225345
1354 0.15312068
1352 0.045860194
1350 0.012774911
1348 0.056157388
1346 0.13559407
1344 0.2759628
1342 0.45781416
1340 0.7193864
1338 0.98825729
1336 1.2568885
1334 1.4923984
1332 1.643598
1330 1.7823761
1328 1.9047674
1326 2.0565422
1324 2.267164
1322 2.5198982
1320 2.8348069
1318 3.1725774
1316 3.5283201
1314 3.8582282
1312 4.141871
1310 4.3614645
1308 4.5139837
1306 4.6150031
1304 4.6757588
1302 4.7041621
1300 4.7079988
1298 4.6737227
1296 4.6222429
1294 4.550108
1292 4.480895
1290 4.428894
1288 4.3864241
1286 4.3607368
1284 4.3367386
1282 4.3108521
1280 4.2875533
1278 4.2693157
1276 4.2573314
1274 4.2617197
1272 4.272438
1270 4.2988629
1268 4.3386674
1266 4.400105
1264 4.4886603
1262 4.6089883
1260 4.7501297
1258 4.9087715
1256 5.0609512
1254 5.2024946
1252 5.3238664
1250 5.4296536
1248 5.5258579
1246 5.6166
1244 5.700757
1242 5.7749109
1240 5.8208127
1238 5.8402882
1236 5.7993011
1234 5.7205539
1232 5.5570998
1230 5.3556452
1228 5.0590324
1226 4.726644
1224 4.2981701
1222 3.8417087
1220 3.3195314
1218 2.7945549
1216 2.2679515
1214 1.7676641
1212 1.3182632
1210 0.91748714
1208 0.59053874
1206 0.31606814
1204 0.10449788
1202 -0.074203573
1200 -0.21882406
1198 -0.34135789
1196 -0.44309929
1194 -0.52481937
1192 -0.59200966
1190 -0.645971
1188 -0.68601191
1186 -0.69295627
1184 -0.66971588
1182 -0.56734163
1180 -0.42109323
1178 -0.16763794
1176 0.1175032
1174 0.47240075
1172 0.82275927
1170 1.1367712
1168 1.4166914
1166 1.5888894
1164 1.7220955
1162 1.757925
1160 1.760748
1158 1.6961051
1156 1.60111
1154 1.4557116
1152 1.288844
1150 1.0938239
1148 0.89068317
1146 0.68054354
1144 0.47766545
1142 0.28813258
1140 0.14065665
1138 0.03574688
1136 0.0108549
1134 0.0415067
1132 0.14879191
1130 0.29157814
1128 0.46772355
1126 0.65016288
1124 0.81907105
1122 0.97621626
1120 1.083464
1118 1.1787165
1116 1.2344257
1114 1.2965946
1112 1.3892509
1110 1.4943726
1108 1.6372489
1106 1.767205
1104 1.8616931
1102 1.9214877
1100 1.9131691
1098 1.8882002
1096 1.8408428
1094 1.8119665
1092 1.810752
1090 1.8484789
1088 1.9283051
1086 2.0440614
1084 2.1853497
1082 2.3132226
1080 2.4212565
1078 2.441669
1076 2.41136
1074 2.2983491
1072 2.1564023
1070 2.0018878
1068 1.8461437
1066 1.7036786
1064 1.56804
1062 1.470678
1060 1.3870981
1058 1.3799645
1056 1.3824401
1054 1.4262286
1052 1.4669657
1050 1.498062
1048 1.5193937
1046 1.5162857
1044 1.500208
1042 1.4584563
1040 1.4042222
1038 1.3332591
1036 1.2788401
1034 1.2477068
1032 1.2611778
1030 1.3141813
1028 1.3649671
1026 1.409568
1024 1.4044474
1022 1.371357
1020 1.3179351
1018 1.2553211
1016 1.1819515
1014 1.1031573
1012 0.99679381
1010 0.88590926
1008 0.77578801
1006 0.66697705
1004 0.57201374
1002 0.47712791
1000 0.38179806
998 0.28994459
996 0.21359786
994 0.14300479
992 0.089552641
990 0.035667736
988 -0.019483056
986 -0.07578367
984 -0.13258532
982 -0.17594756
980 -0.19916581
978 -0.19271633
976 -0.15574743
974 -0.11443729
972 -0.072517596
970 -0.08021611
968 -0.11885417
966 -0.1828285
964 -0.2546646
962 -0.25841898
960 -0.23785155
958 -0.15934165
956 -0.070613429
954 -0.024013881
952 0.01526662
950 0.0028146375
948 -0.010354063
946 -0.0034115466
944 0.00040028617
942 0.013206273
940 0.062583178
938 0.1994414
936 0.33994457
934 0.49090829
932 0.62179029
930 0.70966494
928 0.78548783
926 0.84200495
924 0.8900314
922 0.92732751
920 0.9260301
918 0.88810515
916 0.80921531
914 0.70154804
912 0.6176734
910 0.54804081
908 0.56239223
906 0.61063129
904 0.68915153
902 0.77636218
900 0.76517391
898 0.73833251
896 0.55137002
