##TITLE=Methyl Ethyl Ketone
##JCAMP-DX=4.24
##DATA TYPE=INFRARED SPECTRUM
##XUNITS=cm-1
##YUNITS=Absorbance
##FIRSTX=900
##LASTX=2300
##XYDATA=(X++(Y..Y))
2296 0.11637
2294 0.11883647
2292 0.12131292
2290 0.12378937
2288 0.12625588
2286 0.12873228
2284 0.13119882
2282 0.1336752
2280 0.13614178
2278 0.13861811
2276 0.14109457
2274 0.14356118
2272 0.14603749
2270 0.14850414
2268 0.1509804
2266 0.15345687
2264 0.15592355
2262 0.15839978
2260 0.16086648
2258 0.16334268
2256 0.16581914
2254 0.16828589
2252 0.17076205
2250 0.17322885
2248 0.17570497
2246 0.17818142
2244 0.16798669
2242 0.0064641861
2240 -0.17983679
2238 -0.41806772
2236 -0.66390872
2234 -0.75505584
2232 -0.83051407
2230 -0.80459243
2228 -0.76927865
2226 -0.697972
2224 -0.61801636
2222 -0.50710857
2220 -0.40220937
2218 -0.32080773
2216 -0.27120543
2214 -0.28818351
2212 -0.33483079
2210 -0.42347789
2208 -0.48200107
2206 -0.49973544
2204 -0.44596085
2202 -0.32573608
2200 -0.21278852
2198 -0.1085188
2196 -0.10078572
2194 -0.14841442
2192 -0.23096605
2190 -0.32724148
2188 -0.31953052
2186 -0.27770871
2184 -0.10700964
2182 0.092852026
2180 0.25638056
2178 0.41195369
2176 0.37836656
2174 0.31970239
2172 0.1734582
2170 0.031305321
2168 -0.039898187
2166 -0.078224428
2164 -0.021938132
2162 0.043389201
2160 0.10773954
2158 0.13548006
2156 0.094032399
2154 0.043623704
2152 -0.0094073825
2150 -0.040616646
2148 -0.046944004
2146 -0.088289782
2144 -0.16291906
2142 -0.25714371
2140 -0.36263943
2138 -0.42064482
2136 -0.45214257
2134 -0.44897705
2132 -0.43219444
2130 -0.4031876
2128 -0.37065321
2126 -0.33057436
2124 -0.28885403
2122 -0.23376802
2120 -0.17996691
2118 -0.18976445
2116 -0.22062215
2114 -0.3405126
2112 -0.46429557
2110 -0.547813
2108 -0.60984045
2106 -0.62479156
2104 -0.63618255
2102 -0.65516055
2100 -0.6716584
2098 -0.68220097
2096 -0.68160719
2094 -0.66775113
2092 -0.6395424
2090 -0.59848976
2088 -0.58258295
2086 -0.58867055
2084 -0.64976245
2082 -0.7450496
2080 -0.8360368
2078 -0.92255145
2076 -0.95054144
2074 -0.95450532
2072 -0.89931679
2070 -0.82591748
2068 -0.72775334
2066 -0.62469739
2064 -0.54481655
2062 -0.47555247
2060 -0.46478358
2058 -0.47916111
2056 -0.56840885
2054 -0.68151551
2052 -0.82836533
2050 -0.9657709
2048 -1.0631192
2046 -1.1319821
2044 -1.161458
2042 -1.1918399
2040 -1.2337359
2038 -1.2980027
2036 -1.3850442
2034 -1.4953972
2032 -1.6244143
2030 -1.763286
2028 -1.9082131
2026 -2.0177214
2024 -2.1046381
2022 -2.1280582
2020 -2.1205671
2018 -2.0775876
2016 -2.0207801
2014 -1.9389056
2012 -1.848102
2010 -1.6924779
2008 -1.5202857
2006 -1.3647615
2004 -1.2309891
2002 -1.22375
2000 -1.2594389
1998 -1.3460782
1996 -1.4321214
1994 -1.4802303
1992 -1.5312657
1990 -1.606005
1988 -1.712286
1986 -1.8585236
1984 -1.9820607
1982 -2.0609691
1980 -2.0669537
1978 -2.0042262
1976 -1.8708086
1974 -1.6871201
1972 -1.4426715
1970 -1.1604888
1968 -0.94576126
1966 -0.77811915
1964 -0.84615117
1962 -1.0332012
1960 -1.320748
1958 -1.6451114
1956 -1.8414299
1954 -1.9857824
1952 -1.9947298
1950 -1.9576409
1948 -1.9082991
1946 -1.869375
1944 -1.9038429
1942 -1.9730656
1940 -2.0682595
1938 -2.1541662
1936 -2.1912658
1934 -2.1872132
1932 -2.134886
1930 -2.0589097
1928 -1.9729366
1926 -1.857
1924 -1.7089311
1922 -1.4822071
1920 -1.17662
1918 -0.90582401
1916 -0.67816597
1914 -0.60284102
1912 -0.6366238
1910 -0.73266309
1908 -0.85701883
1906 -1.0084645
1904 -1.171396
1902 -1.3021195
1900 -1.4154766
1898 -1.3601408
1896 -1.2303857
1894 -1.0016534
1892 -0.75177652
1890 -0.61128706
1888 -0.56181884
1886 -0.71411967
1884 -0.96737027
1882 -1.2973343
1880 -1.6106131
1878 -1.824978
1876 -1.9075301
1874 -1.8192058
1872 -1.585968
1870 -1.2250055
1868 -0.90413439
1866 -0.67187381
1864 -0.65794003
1862 -0.83749127
1860 -1.0696388
1858 -1.3080952
1856 -1.4756286
1854 -1.5918028
1852 -1.6502097
1850 -1.6807163
1848 -1.621768
1846 -1.5181428
1844 -1.4534577
1842 -1.4205557
1840 -1.543016
1838 -1.7306094
1836 -1.8776143
1834 -1.961875
1832 -1.8456434
1830 -1.5941356
1828 -1.1699758
1826 -0.74939567
1824 -0.51718795
1822 -0.51315618
1820 -0.83027625
1818 -1.2583708
1816 -1.6733714
1814 -1.9396479
1812 -2.003695
1810 -1.9073217
1808 -1.6948154
1806 -1.415575
1804 -1.1019158
1802 -0.80889261
1800 -0.54767388
1798 -0.37514129
1796 -0.26964
1794 -0.1999363
1792 -0.14132839
1790 -0.097250536
1788 -0.054072648
1786 -0.00053082965
1784 0.06661097
1782 0.17797638
1780 0.32263041
1778 0.50454229
1776 0.7011537
1774 0.87367082
1772 0.96350586
1770 0.85964209
1768 0.63614261
1766 0.36458343
1764 0.1683424
1762 0.14969988
1760 0.065380514
1758 -0.082173228
1756 -0.16466571
1754 -0.18036835
1752 0.013088055
1750 0.4269833
1748 0.87848514
1746 1.302325
1744 1.4271891
1742 1.2859397
1740 1.1501554
1738 1.0624256
1736 1.2468001
1734 1.626897
1732 1.7042469
1730 1.5425906
1728 0.95937884
1726 0.15028892
1724 -0.33215004
1722 -0.46711978
1720 0.13037571
1718 1.3264494
1716 2.9678671
1714 4.5925875
1712 5.5509171
1710 6.0501423
1708 6.2892938
1706 6.7105193
1704 7.6999612
1702 9.5501251
1700 12.385963
1698 15.895028
1696 19.825714
1694 23.331902
1692 26.118347
1690 28.658499
1688 31.144182
1686 34.514336
1684 38.789776
1682 43.605389
1680 48.77824
1678 53.018917
1676 56.439041
1674 59.863438
1672 63.37138
1670 67.497589
1668 72.074577
1666 76.596146
1664 81.023483
1662 85.183907
1660 89.059982
1658 92.570892
1656 95.76506
1654 98.713165
1652 101.27394
1650 103.30788
1648 104.07166
1646 103.01214
1644 100.70292
1642 97.729874
1640 94.478355
1638 91.195816
1636 87.400856
1634 82.959747
1632 78.32653
1630 73.689789
1628 69.456451
1626 65.655251
1624 61.795479
1622 57.805973
1620 53.724754
1618 49.571598
1616 45.499371
1614 41.548649
1612 37.959423
1610 34.7771
1608 32.102947
1606 29.913958
1604 28.058765
1602 26.519205
1600 25.202154
1598 24.098515
1596 23.154999
1594 22.393963
1592 21.820354
1590 21.459063
1588 21.311262
1586 21.384108
1584 21.652542
1582 22.10779
1580 22.721457
1578 23.520325
1576 24.505314
1574 25.594803
1572 26.770462
1570 27.875761
1568 28.88044
1566 29.853292
1564 30.806873
1562 32.102684
1560 33.847111
1558 36.513084
1556 40.045097
1554 43.344292
1552 46.245365
1550 48.261738
1548 49.522541
1546 50.712463
1544 51.807331
1542 52.796749
1540 53.341801
1538 53.047894
1536 52.007713
1534 50.468639
1532 48.8232
1530 47.431267
1528 46.24884
1526 45.231148
1524 44.174313
1522 42.967365
1520 41.444767
1518 39.545757
1516 37.558201
1514 35.560532
1512 33.604359
1510 31.673925
1508 29.244097
1506 26.158184
1504 22.99044
1502 19.824562
1500 17.264286
1498 15.40226
1496 13.702143
1494 12.157492
1492 10.611525
1490 9.0323668
1488 7.3721552
1486 5.6358957
1484 3.8678138
1482 2.243691
1480 0.99711227
1478 0.22570366
1476 0.038382687
1474 0.40888485
1472 1.2245574
1470 2.1048629
1468 2.8066947
1466 3.3990712
1464 3.8770165
1462 4.4654393
1460 5.2828465
1458 6.1434979
1456 7.0135202
1454 7.5284185
1452 7.5087867
1450 7.3026962
1448 6.8643374
1446 6.4282141
1444 5.9956217
1442 5.585187
1440 5.2132621
1438 4.9314876
1436 4.7308388
1434 4.52281
1432 4.2739983
1430 3.9353092
1428 3.5685639
1426 3.3003078
1424 3.1780772
1422 3.2414067
1420 3.4264832
1418 3.6561821
1416 3.8622713
1414 3.975548
1412 4.0657816
1410 4.1571279
1408 4.2996097
1406 4.5338235
1404 4.8326764
1402 5.2288065
1400 5.6379957
1398 6.0517669
1396 6.3798428
1394 6.553915
1392 6.6165719
1390 6.5109224
1388 6.3294621
1386 6.0318203
1384 5.6597853
1382 5.1930561
1380 4.7243338
1378 4.2668543
1376 3.8783572
1374 3.5583761
1372 3.284986
1370 3.0548427
1368 2.8358915
1366 2.623148
1364 2.3810825
1362 2.0851061
1360 1.703072
1358 1.276015
1356 0.84115052
1354 0.46215492
1352 0.20524336
1350 0.03650479
1348 -0.020708058
1346 -0.035277639
1344 0.060225524
1342 0.21338382
1340 0.4605732
1338 0.6708824
1336 0.79793257
1334 0.81760579
1332 0.67798018
1330 0.54895538
1328 0.45906535
1326 0.47486991
1324 0.64353687
1322 0.93112403
1320 1.3531948
1318 1.8194038
1316 2.29213
1314 2.6527314
1312 2.8862669
1310 2.9769011
1308 2.9648149
1306 2.9024529
1304 2.8188171
1302 2.7477901
1300 2.6872573
1298 2.6489797
1296 2.6151714
1294 2.58165
1292 2.5588629
1290 2.5682867
1288 2.6008558
1286 2.68419
1284 2.7721841
1282 2.8673859
1280 2.9660213
1278 3.0750332
1276 3.1984556
1274 3.348073
1272 3.5186217
1270 3.7240248
1268 3.9589231
1266 4.2349901
1264 4.511868
1262 4.7885785
1260 5.0475059
1258 5.2945251
1256 5.5582542
1254 5.8475399
1252 6.1833162
1250 6.5598507
1248 6.9769731
1246 7.4048753
1244 7.8060923
1242 8.1659079
1240 8.424881
1238 8.6331453
1236 8.7651272
1234 8.8767042
1232 8.9658518
1230 9.0325575
1228 9.0312338
1226 8.9711132
1224 8.7435398
1222 8.4459887
1220 7.9804454
1218 7.4572721
1216 6.8172855
1214 6.1309986
1212 5.3721275
1210 4.6201315
1208 3.8959589
1206 3.2663522
1204 2.7647941
1202 2.3825028
1200 2.1098461
1198 1.8578815
1196 1.6023
1194 1.2687762
1192 0.89129144
1190 0.51492453
1188 0.16670874
1186 -0.066419646
1184 -0.24490845
1182 -0.35299
1180 -0.4424842
1178 -0.52255839
1176 -0.58383799
1174 -0.57479835
1172 -0.53381234
1170 -0.38451537
1168 -0.240014
1166 -0.11227801
1164 -0.023470838
1162 -0.02823437
1160 -0.035843723
1158 -0.044752717
1156 -0.022158384
1154 0.047006223
1152 0.10216431
1150 0.13367628
1148 0.1337866
1146 0.10224339
1144 0.073827349
1142 0.048277006
1140 0.022072168
1138 0.0062688366
1136 0.047472972
1134 0.14709799
1132 0.4282676
1130 0.78783381
1128 1.1933178
1126 1.5915436
1124 1.8841554
1122 2.1534114
1120 2.398596
1118 2.6430454
1116 2.8956499
1114 3.1290798
1112 3.2820268
1110 3.4245143
1108 3.5360985
1106 3.664655
1104 3.8333549
1102 3.9956155
1100 4.1454968
1098 4.2937369
1096 4.4485855
1094 4.6726742
1092 4.9871659
1090 5.3512192
1088 5.7615685
1086 6.1629071
1084 6.5582023
1082 6.9595208
1080 7.3561692
1078 7.6971321
1076 7.9957232
1074 8.1710529
1072 8.2946424
1070 8.3328485
1068 8.3436127
1066 8.2897348
1064 8.228508
1062 8.1747694
1060 8.1341438
1058 8.1763525
1056 8.2197199
1054 8.2659082
1052 8.28549
1050 8.2183857
1048 8.1229677
1046 7.9600177
1044 7.7888794
1042 7.6018863
1040 7.3979177
1038 7.1712728
1036 6.9580002
1034 6.7657013
1032 6.6380835
1030 6.56598
1028 6.4836426
1026 6.3887219
1024 6.2387614
1022 6.0539536
1020 5.8024483
1018 5.5129385
1016 5.0870972
1014 4.6211367
1012 4.1174603
1010 3.6139159
1008 3.1866801
1006 2.7699857
1004 2.4027891
1002 2.0427029
1000 1.7294092
998 1.4266757
996 1.1712807
994 0.93684328
992 0.76799792
990 0.61088526
988 0.4768793
986 0.28156564
984 -0.024685144
982 -0.40223888
980 -0.87082863
978 -1.2679713
976 -1.579083
974 -1.677122
972 -1.5939083
970 -1.2961861
968 -0.86376894
966 -0.33329049
964 0.23518082
962 0.68249089
960 1.0772914
958 1.1812688
956 1.21383
954 1.031678
952 0.82067084
950 0.53339696
948 0.25229925
946 0.10353535
944 0.0048798919
942 0.15316862
940 0.48952031
938 1.038486
936 1.5398514
934 1.9001654
932 2.2047958
930 2.3929501
928 2.6611562
926 3.0596442
924 3.5915899
922 4.284862
920 4.9654908
918 5.6312742
916 6.0721426
914 6.3516798
912 6.3952641
910 6.3140521
908 6.2894602
906 6.2858367
904 6.4309459
902 6.6131825
900 6.6790333
898 6.7257543
896 6.8337998
