##TITLE=Methyl Ethyl Ketone
##JCAMP-DX=4.24
##DATA TYPE=INFRARED SPECTRUM
##XUNITS=cm-1
##YUNITS=Absorbance
##FIRSTX=900
##LASTX=2300
##XYDATA=(X++(Y..Y))
2296 0.14381
2294 0.1468057
2292 0.14980143
2290 0.15278718
2288 0.15578286
2286 0.15876865
2284 0.16176428
2282 0.16476001
2280 0.16774583
2278 0.17074144
2276 0.17373714
2274 0.17672302
2272 0.17971857
2270 0.18270448
2268 0.1857
2266 0.18872507
2264 0.19168235
2262 0.19456005
2260 0.19766003
2258 0.20108663
2256 0.20366685
2254 0.2050689
2252 0.2095848
2250 0.21850199
2248 0.2158256
2246 0.18327178
2244 0.11247468
2242 0.0072119166
2240 -0.0912067
2238 -0.13943543
2236 -0.12850514
2234 -0.066401117
2232 0.010513069
2230 0.06131319
2228 0.059231617
2226 -0.0051757144
2224 -0.088283308
2222 -0.13776009
2220 -0.12870446
2218 -0.056141142
2216 0.037802543
2214 0.10307714
2212 0.1140756
2210 0.063220792
2208 -0.014396263
2206 -0.077268712
2204 -0.10985757
2202 -0.11145021
2200 -0.10833698
2198 -0.1263566
2196 -0.15612571
2194 -0.17566611
2192 -0.15709011
2190 -0.078244671
2188 0.052859746
2186 0.21639457
2184 0.38349482
2182 0.52561861
2180 0.62643307
2178 0.67824453
2176 0.69225401
2174 0.68545806
2172 0.67356408
2170 0.6677025
2168 0.66247815
2166 0.6472317
2164 0.61199117
2162 0.55139244
2160 0.47755444
2158 0.40882766
2156 0.365201
2154 0.3619087
2152 0.39314878
2150 0.44366437
2148 0.48898831
2146 0.50678933
2144 0.49552342
2142 0.46248069
2140 0.42082572
2138 0.38309714
2136 0.35150486
2134 0.32559758
2132 0.30941832
2130 0.30736032
2128 0.31818798
2126 0.33956963
2124 0.37319541
2122 0.42146334
2120 0.48329583
2118 0.55383897
2116 0.61798942
2114 0.66145808
2112 0.68895805
2110 0.71183074
2108 0.73916388
2106 0.77597302
2104 0.81489772
2102 0.84582722
2100 0.86643481
2098 0.8768729
2096 0.87451571
2094 0.85534102
2092 0.81451887
2090 0.75103384
2088 0.68101954
2086 0.62630302
2084 0.6044392
2082 0.6267767
2080 0.6870687
2078 0.77184266
2076 0.86651433
2074 0.95801854
2072 1.0402752
2070 1.110726
2068 1.169266
2066 1.2156893
2064 1.2457761
2062 1.2540479
2060 1.236758
2058 1.195169
2056 1.14622
2054 1.1140437
2052 1.1252015
2050 1.1983346
2048 1.3158926
2046 1.4428965
2044 1.537696
2042 1.5646327
2040 1.5222389
2038 1.4263868
2036 1.3027714
2034 1.179994
2032 1.0840092
2030 1.035086
2028 1.0356048
2026 1.0769693
2024 1.1372405
2022 1.1915641
2020 1.2252433
2018 1.2316411
2016 1.21772
2014 1.1962321
2012 1.1780689
2010 1.169587
2008 1.1609132
2006 1.1389407
2004 1.1080577
2002 1.0806019
2000 1.0681605
1998 1.0776349
1996 1.1001071
1994 1.1214778
1992 1.1371732
1990 1.1488177
1988 1.163134
1986 1.1852636
1984 1.2031897
1982 1.197569
1980 1.1541725
1978 1.0691878
1976 0.971452
1974 0.90356857
1972 0.89909375
1970 0.97531229
1968 1.103503
1966 1.2341107
1964 1.323674
1962 1.3414147
1960 1.29028
1958 1.1901503
1956 1.0618671
1954 0.92593342
1952 0.805664
1950 0.72247165
1948 0.68347013
1946 0.6842925
1944 0.70329612
1942 0.71405494
1940 0.70582998
1938 0.67859542
1936 0.6405471
1934 0.60350376
1932 0.57941961
1930 0.57965851
1928 0.61416173
1926 0.68926477
1924 0.79881847
1922 0.92619962
1920 1.0379974
1918 1.0996341
1916 1.1088672
1914 1.082759
1912 1.0435731
1910 1.0072107
1908 0.95610291
1906 0.86146212
1904 0.7265836
1902 0.57870322
1900 0.46444786
1898 0.42865688
1896 0.46806714
1894 0.54874796
1892 0.62526155
1890 0.65515965
1888 0.62680209
1886 0.54912394
1884 0.44222558
1882 0.33081558
1880 0.23887131
1878 0.18791521
1876 0.192504
1874 0.25760755
1872 0.36350429
1870 0.4744485
1868 0.54666579
1866 0.54210812
1864 0.4632096
1862 0.33696961
1860 0.19043426
1858 0.045419455
1856 -0.088632993
1854 -0.2050904
1852 -0.27753177
1850 -0.27465254
1848 -0.2008256
1846 -0.088476606
1844 0.0088952463
1842 0.039548021
1840 0.0070990846
1838 -0.049150202
1836 -0.090175256
1834 -0.08672221
1832 -0.035224635
1830 0.047830503
1828 0.12714371
1826 0.16009657
1824 0.11728974
1822 -0.011797555
1820 -0.1961301
1818 -0.38046059
1816 -0.51680714
1814 -0.57459062
1812 -0.5670808
1810 -0.53212464
1808 -0.49237755
1806 -0.45260999
1804 -0.3969509
1802 -0.30123228
1800 -0.15877891
1798 0.018638939
1796 0.19539537
1794 0.32331535
1792 0.3631832
1790 0.29745975
1788 0.17139775
1786 0.063680522
1784 0.013717424
1782 0.027470697
1780 0.10587631
1778 0.245289
1776 0.41846484
1774 0.5775193
1772 0.65606225
1770 0.59515977
1768 0.42004183
1766 0.21649286
1764 0.067672759
1762 0.021714874
1760 0.011376329
1758 -0.082057759
1756 -0.23806942
1754 -0.333895
1752 -0.29109001
1750 -0.096288212
1748 0.18278235
1746 0.43166465
1744 0.56522614
1742 0.54762584
1740 0.43693602
1738 0.3409856
1736 0.29262602
1734 0.25365242
1732 0.16045797
1730 -0.040580854
1728 -0.31086594
1726 -0.53978378
1724 -0.61461705
1722 -0.43951029
1720 0.043922216
1718 0.84084338
1716 1.8361357
1714 2.8384347
1712 3.7178285
1710 4.4362516
1708 5.0985761
1706 5.9109869
1704 7.0706449
1702 8.7351141
1700 10.982628
1698 13.787048
1696 16.904142
1694 19.95834
1692 22.735302
1690 25.229202
1688 27.688166
1686 30.503508
1684 33.89262
1682 37.820683
1680 41.876198
1678 45.475052
1676 48.540699
1674 51.465359
1672 54.636303
1670 58.28846
1668 62.322327
1666 66.396751
1664 70.299706
1662 73.981415
1660 77.419044
1658 80.601501
1656 83.591026
1654 86.505554
1652 89.429214
1650 92.337318
1648 94.878647
1646 96.502251
1644 97.031647
1642 96.671944
1640 95.633919
1638 94.038269
1636 91.874298
1634 89.061302
1632 85.693893
1630 82.023163
1628 78.196945
1626 74.22934
1624 70.110519
1622 65.848549
1620 61.523769
1618 57.275249
1616 53.207798
1614 49.382942
1612 45.86874
1610 42.734112
1608 39.984428
1606 37.562714
1604 35.40987
1602 33.481159
1600 31.759373
1598 30.253504
1596 28.969
1594 27.899879
1592 27.020275
1590 26.288862
1588 25.681625
1586 25.197508
1584 24.857702
1582 24.70397
1580 24.789928
1578 25.166595
1576 25.831543
1574 26.719568
1572 27.714169
1570 28.676544
1568 29.5508
1566 30.374079
1564 31.200232
1562 32.107201
1560 33.316303
1558 35.126812
1556 37.49144
1554 39.980869
1552 42.180527
1550 43.840832
1548 45.034275
1546 46.118893
1544 47.317219
1542 48.607315
1540 49.796619
1538 50.582573
1536 50.78677
1534 50.42971
1532 49.710941
1530 48.954247
1528 48.329006
1526 47.779198
1524 47.137291
1522 46.178982
1520 44.765755
1518 42.90633
1516 40.789871
1514 38.73151
1512 36.823997
1510 34.865719
1508 32.615387
1506 29.913086
1504 26.893742
1502 23.983524
1500 21.445086
1498 19.256109
1496 17.279285
1494 15.326714
1492 13.291257
1490 11.177089
1488 9.0096321
1486 6.826787
1484 4.7387877
1482 2.9284878
1480 1.5127017
1478 0.52180272
1476 0.054901347
1474 0.27032647
1472 1.0716829
1470 2.0569439
1468 2.9537349
1466 3.7459135
1464 4.4952793
1462 5.2733865
1460 6.0478959
1458 6.6534257
1456 6.9257197
1454 6.7710686
1452 6.2749257
1450 5.7130218
1448 5.256361
1446 4.8848357
1444 4.5579057
1442 4.262846
1440 3.9923763
1438 3.7355173
1436 3.4642413
1434 3.1339338
1432 2.725708
1430 2.2644906
1428 1.802134
1426 1.41063
1424 1.1443063
1422 1.0223788
1420 1.0336558
1418 1.1366067
1416 1.2919171
1414 1.4755981
1412 1.683066
1410 1.9311343
1408 2.234272
1406 2.5966878
1404 3.0181336
1402 3.4912758
1400 3.9876361
1398 4.4505014
1396 4.8178644
1394 5.0369396
1392 5.0984769
1390 5.0518312
1388 4.9458871
1386 4.8076448
1384 4.6501126
1382 4.4736123
1380 4.2801771
1378 4.0768166
1376 3.8575742
1374 3.5986445
1372 3.290978
1370 2.9537189
1368 2.6111853
1366 2.2822151
1364 1.9617511
1362 1.6147809
1360 1.228749
1358 0.83749914
1356 0.48987931
1354 0.23542161
1352 0.086734414
1350 0.00094899908
1348 -0.058128882
1346 -0.093789965
1344 -0.087285355
1342 -0.0031062067
1340 0.15802409
1338 0.33235884
1336 0.45176199
1334 0.47100592
1332 0.39188778
1330 0.28169131
1328 0.20322703
1326 0.1869487
1324 0.25180775
1322 0.40805662
1320 0.6535778
1318 0.96678472
1316 1.3096499
1314 1.6267698
1312 1.8764024
1310 2.0487309
1308 2.1523821
1306 2.2136543
1304 2.2571783
1302 2.29707
1300 2.3435292
1298 2.4036753
1296 2.480557
1294 2.5709178
1292 2.6685898
1290 2.7654448
1288 2.8575959
1286 2.9496429
1284 3.0499954
1282 3.1694517
1280 3.3170755
1278 3.4967356
1276 3.7072928
1274 3.9408121
1272 4.1879144
1270 4.4404545
1268 4.6976519
1266 4.9724665
1264 5.2806654
1262 5.6360826
1260 6.0438938
1258 6.49367
1256 6.9755311
1254 7.4876118
1252 8.0323353
1250 8.6159592
1248 9.2373676
1246 9.8805752
1244 10.527086
1242 11.16024
1240 11.76676
1238 12.333982
1236 12.838885
1234 13.242636
1232 13.51024
1230 13.622375
1228 13.581511
1226 13.423965
1224 13.180777
1222 12.859514
1220 12.460848
1218 11.978499
1216 11.413743
1214 10.786178
1212 10.118904
1210 9.4380999
1208 8.7641907
1206 8.1081295
1204 7.4713564
1202 6.8409419
1200 6.2039433
1198 5.5548067
1196 4.8962069
1194 4.2441802
1192 3.6166699
1190 3.028626
1188 2.491816
1186 2.012625
1184 1.5973868
1182 1.254943
1180 0.99330103
1178 0.81642556
1176 0.72000802
1174 0.68266815
1172 0.67634898
1170 0.66798967
1168 0.63103229
1166 0.55728114
1164 0.45284849
1162 0.3454212
1160 0.26144949
1158 0.21163011
1156 0.19135271
1154 0.17071766
1152 0.12279203
1150 0.04238281
1148 -0.060128056
1146 -0.15085857
1144 -0.19521326
1142 -0.17098317
1140 -0.067684643
1138 0.10478039
1136 0.33373401
1134 0.6113286
1132 0.93016171
1130 1.2815448
1128 1.6601982
1126 2.0690627
1124 2.5062554
1122 2.9535544
1120 3.389924
1118 3.7961447
1116 4.1561117
1114 4.4606495
1112 4.7136254
1110 4.9478168
1108 5.2036314
1106 5.5217848
1104 5.9250469
1102 6.3901649
1100 6.8864646
1098 7.3926177
1096 7.8925571
1094 8.3778601
1092 8.840148
1090 9.266715
1088 9.6521044
1086 10.011538
1084 10.357583
1082 10.684725
1080 10.974886
1078 11.19811
1076 11.335643
1074 11.405323
1072 11.438269
1070 11.466718
1068 11.514249
1066 11.5728
1064 11.62716
1062 11.667134
1060 11.680891
1058 11.657131
1056 11.580657
1054 11.426914
1052 11.176337
1050 10.82969
1048 10.403831
1046 9.931778
1044 9.4481773
1042 8.9685106
1040 8.5019341
1038 8.0506878
1036 7.61834
1034 7.2159977
1032 6.8493915
1030 6.5031071
1028 6.1575327
1026 5.7966266
1024 5.4135251
1022 5.026475
1020 4.6571908
1018 4.3187475
1016 4.0167284
1014 3.7393091
1012 3.4677708
1010 3.1761832
1008 2.846112
1006 2.4871678
1004 2.1197925
1002 1.7752084
1000 1.4796361
998 1.2332987
996 1.0305085
994 0.8665036
992 0.73297191
990 0.6097849
988 0.48003691
986 0.34675622
984 0.22285914
982 0.13680339
980 0.1103082
978 0.13068877
976 0.18477972
974 0.2857202
972 0.45207876
970 0.6979863
968 1.0207251
966 1.3649199
964 1.6692365
962 1.8975182
960 2.0240457
958 2.037205
956 1.9305571
954 1.7011225
952 1.3593196
950 0.95803273
948 0.56345642
946 0.25156891
944 0.075518854
942 -0.00080158375
940 -0.023564734
938 0.0043463185
936 0.081029311
934 0.16916409
932 0.226273
930 0.22343367
928 0.14784554
926 0.033801332
924 -0.070995376
922 -0.11283727
920 -0.058058642
918 0.045838408
916 0.13133529
914 0.13212344
912 0.0031561702
910 -0.21980819
908 -0.47586036
906 -0.6848048
904 -0.78281784
902 -0.78919536
900 -0.74143654
898 -0.66684031
896 -0.59017998
