##TITLE=Methyl Ethyl Ketone
##JCAMP-DX=4.24
##DATA TYPE=INFRARED SPECTRUM
##XUNITS=cm-1
##YUNITS=Absorbance
##FIRSTX=900
##LASTX=2300
##XYDATA=(X++(Y..Y))
2296 0.066692002
2294 0.068080008
2292 0.06946703
2290 0.070855036
2288 0.072242066
2286 0.073629074
2284 0.075017087
2282 0.076405101
2280 0.077792123
2278 0.079179138
2276 0.080567144
2274 0.081956141
2272 0.083341226
2270 0.084721334
2268 0.086116061
2266 0.087533571
2264 0.088891938
2262 0.090168014
2260 0.091663353
2258 0.093467735
2256 0.094453454
2254 0.094288938
2252 0.097166434
2250 0.10432982
2248 0.10019532
2246 0.070551179
2244 0.02562204
2242 -0.013066694
2240 -0.006042616
2238 0.07360886
2236 0.18201926
2234 0.26252726
2232 0.28833213
2230 0.24914178
2228 0.16590752
2226 0.068965897
2224 -0.0098041259
2222 -0.043941457
2220 -0.030409293
2218 0.022886965
2216 0.091768801
2214 0.15040028
2212 0.185525
2210 0.19410123
2208 0.19897205
2206 0.22724785
2204 0.29173911
2202 0.39355826
2200 0.50448018
2198 0.59419322
2196 0.66044855
2194 0.70990664
2192 0.74920887
2190 0.77949435
2188 0.78032804
2186 0.73124528
2184 0.6396516
2182 0.52453119
2180 0.41506812
2178 0.33808485
2176 0.29793742
2174 0.28962973
2172 0.30012271
2170 0.3175427
2168 0.34479079
2166 0.39162043
2164 0.47540906
2162 0.61006111
2160 0.78506953
2158 0.97575969
2156 1.133211
2154 1.2088941
2152 1.188068
2150 1.0789369
2148 0.93492538
2146 0.81700283
2144 0.75403339
2142 0.75545168
2140 0.79854387
2138 0.85446811
2136 0.91437173
2134 0.97576857
2132 1.0317221
2130 1.0734571
2128 1.092456
2126 1.08456
2124 1.0616223
2122 1.0374076
2120 1.0072972
2118 0.96302164
2116 0.90943801
2114 0.85822141
2112 0.82885474
2110 0.83915424
2108 0.88887429
2106 0.9695946
2104 1.0675597
2102 1.1665814
2100 1.24652
2098 1.2890671
2096 1.2885572
2094 1.2460978
2092 1.1716969
2090 1.0797756
2088 0.98929697
2086 0.91903949
2084 0.87886721
2082 0.87019461
2080 0.87404001
2078 0.86658442
2076 0.837035
2074 0.78602791
2072 0.73861724
2070 0.72624886
2068 0.76672018
2066 0.86375016
2064 0.98732775
2062 1.0972658
2060 1.1683946
2058 1.187915
2056 1.1662514
2054 1.1211181
2052 1.0599369
2050 0.98647577
2048 0.9074437
2046 0.83309573
2044 0.78149462
2042 0.76934004
2040 0.79378605
2038 0.84089464
2036 0.8861537
2034 0.90667915
2032 0.90393734
2030 0.89262027
2028 0.89716715
2026 0.94002885
2024 1.0195098
2022 1.118498
2020 1.2008017
2018 1.2297243
2016 1.20046
2014 1.1292129
2012 1.0573406
2010 1.0272653
2008 1.0392447
2006 1.0726564
2004 1.1039637
2002 1.116599
2000 1.1249241
1998 1.1549585
1996 1.2212929
1994 1.3233361
1992 1.4216845
1990 1.4668587
1988 1.4421101
1986 1.3558879
1984 1.2515229
1982 1.1799608
1980 1.1575054
1978 1.1803497
1976 1.2354743
1974 1.309198
1972 1.4003986
1970 1.5083432
1968 1.6066068
1966 1.6575135
1964 1.6313848
1962 1.5164888
1960 1.355764
1958 1.2129687
1956 1.1242957
1954 1.1003299
1952 1.1107702
1950 1.1120896
1948 1.0898595
1946 1.04995
1944 1.0151206
1942 1.0100886
1940 1.0363051
1938 1.0797325
1936 1.1163628
1934 1.1203773
1932 1.076694
1930 0.98184621
1928 0.85641354
1926 0.73766106
1924 0.68218058
1922 0.74051416
1920 0.89599186
1918 1.0925685
1916 1.2642901
1914 1.3582637
1912 1.3872149
1910 1.3923762
1908 1.3811897
1906 1.3400514
1904 1.25858
1902 1.1415725
1900 1.042748
1898 1.03283
1896 1.1374428
1894 1.3406433
1892 1.5675251
1890 1.717716
1888 1.7152001
1886 1.5209222
1884 1.1827217
1882 0.7956326
1880 0.44641316
1878 0.20208494
1876 0.083932802
1874 0.085590474
1872 0.19309305
1870 0.38177574
1868 0.58831555
1866 0.73459017
1864 0.77781063
1862 0.71000749
1860 0.57381237
1858 0.43136698
1856 0.30629969
1854 0.19536823
1852 0.092688531
1850 -0.0070376992
1848 -0.11125752
1846 -0.22511536
1844 -0.33704066
1842 -0.42325425
1840 -0.45233956
1838 -0.3952069
1836 -0.24952157
1834 -0.032043073
1832 0.23221424
1830 0.50845492
1828 0.73309356
1826 0.83436245
1824 0.78458011
1822 0.59738141
1820 0.33554059
1818 0.082720153
1816 -0.11130159
1814 -0.22840643
1812 -0.27888784
1810 -0.28353485
1808 -0.23937486
1806 -0.13245815
1804 0.021230195
1802 0.18224356
1800 0.30457753
1798 0.35622871
1796 0.37661573
1794 0.44018754
1792 0.56035203
1790 0.69952023
1788 0.80392849
1786 0.8283518
1784 0.79025048
1782 0.7485407
1780 0.75102901
1778 0.82760388
1776 0.98688769
1774 1.2110872
1772 1.4221617
1770 1.5103436
1768 1.4083103
1766 1.107688
1764 0.70833063
1762 0.35820091
1760 0.091744058
1758 -0.13400406
1756 -0.29764459
1754 -0.33042583
1752 -0.2170224
1750 -0.0022214726
1748 0.20848858
1746 0.28808036
1744 0.18635994
1742 -0.062307149
1740 -0.3196528
1738 -0.40475199
1736 -0.25770801
1734 0.059661388
1732 0.38686979
1730 0.53172833
1728 0.43467242
1726 0.16508645
1724 -0.1171845
1722 -0.2048188
1720 0.082369879
1718 0.84167135
1716 1.9166757
1714 2.9840262
1712 3.8405674
1710 4.4505029
1708 4.986464
1706 5.7545581
1704 7.0050392
1702 8.9014931
1700 11.513297
1698 14.788206
1696 18.400858
1694 21.863411
1692 24.90786
1690 27.549187
1688 30.143114
1686 33.254349
1684 37.285793
1682 42.339104
1680 47.905239
1678 53.132965
1676 57.816372
1674 62.358391
1672 67.125412
1670 72.257782
1668 77.456314
1666 82.136147
1664 86.025749
1662 89.188469
1660 91.738503
1658 93.770966
1656 95.33783
1654 96.450531
1652 97.088478
1650 97.20475
1648 96.734848
1646 95.636147
1644 94.035904
1642 92.185043
1640 90.197914
1638 88.026604
1636 85.550583
1634 82.636444
1632 79.284447
1630 75.607994
1628 71.644966
1626 67.349648
1624 62.719761
1622 57.830181
1620 52.853798
1618 48.029625
1616 43.526142
1614 39.427986
1612 35.797211
1610 32.672749
1608 30.021559
1606 27.748392
1604 25.774979
1602 24.063185
1600 22.622292
1598 21.49663
1596 20.7085
1594 20.241947
1592 20.051193
1590 20.074503
1588 20.281286
1586 20.678936
1584 21.278948
1582 22.094191
1580 23.164568
1578 24.555737
1576 26.3262
1574 28.502443
1572 31.015055
1570 33.704151
1568 36.414719
1566 39.026176
1564 41.467854
1562 43.752987
1560 46.105186
1558 48.866943
1556 51.944256
1554 54.76852
1552 56.860619
1550 58.014366
1548 58.385323
1546 58.415394
1544 58.308502
1542 57.924988
1540 57.018879
1538 55.362122
1536 53.029343
1534 50.41637
1532 47.878357
1530 45.61985
1528 43.673817
1526 41.909798
1524 40.163506
1522 38.286739
1520 36.217018
1518 34.001251
1516 31.775999
1514 29.722105
1512 27.851761
1510 25.972401
1508 23.88056
1506 21.455021
1504 18.800508
1502 16.243874
1500 13.994963
1498 12.05617
1496 10.3504
1494 8.7688103
1492 7.2556505
1490 5.8257012
1488 4.4726295
1486 3.1598163
1484 1.9173601
1482 0.86424613
1480 0.12252906
1478 -0.20500007
1476 -0.0160954
1474 0.76163268
1472 2.0155606
1470 3.427943
1468 4.7630558
1466 5.9609308
1464 7.0682988
1462 8.2130327
1460 9.4941072
1458 10.927164
1456 12.3924
1454 13.633753
1452 14.45706
1450 14.802181
1448 14.714714
1446 14.337358
1444 13.796619
1442 13.16899
1440 12.50316
1438 11.820871
1436 11.108714
1434 10.320627
1432 9.4444456
1430 8.5257702
1428 7.6387739
1426 6.8736272
1424 6.2916141
1422 5.9045587
1420 5.6910138
1418 5.6002874
1416 5.5869427
1414 5.627337
1412 5.7318354
1410 5.9473987
1408 6.3035064
1406 6.7874413
1404 7.3470907
1402 7.889061
1400 8.3228397
1398 8.5805244
1396 8.6298494
1394 8.4853191
1392 8.1827126
1390 7.7718329
1388 7.2927599
1386 6.76789
1384 6.2233257
1382 5.6946745
1380 5.2107854
1378 4.7828121
1376 4.3958488
1374 4.0038242
1372 3.568414
1370 3.0762815
1368 2.5354292
1366 1.9767087
1364 1.4294605
1362 0.91431761
1360 0.45845097
1358 0.10042774
1356 -0.12731278
1354 -0.20683342
1352 -0.1274872
1350 0.11264713
1348 0.49995872
1346 1.0013753
1344 1.591884
1342 2.2617662
1340 2.9772863
1338 3.6576748
1336 4.1986485
1334 4.4855866
1332 4.4681816
1330 4.2070513
1328 3.7967782
1326 3.3439307
1324 2.9366667
1322 2.6246359
1320 2.4278607
1318 2.3293674
1316 2.2938101
1314 2.2706063
1312 2.2158301
1310 2.1052842
1308 1.9335535
1306 1.7203943
1304 1.4977497
1302 1.30746
1300 1.1886789
1298 1.1699494
1296 1.2694285
1294 1.4907022
1292 1.8306395
1290 2.2780859
1288 2.808032
1286 3.3734815
1284 3.921062
1282 4.3980131
1280 4.7729535
1278 5.0531926
1276 5.2620897
1274 5.4340019
1272 5.5954299
1270 5.7543559
1268 5.9146242
1266 6.0818372
1264 6.2703547
1262 6.5092506
1260 6.825666
1258 7.2352552
1256 7.7428398
1254 8.3390598
1252 9.0195141
1250 9.7952967
1248 10.67964
1246 11.679501
1244 12.776129
1242 13.901846
1240 14.97208
1238 15.889459
1236 16.576
1234 16.995527
1232 17.12112
1230 16.929834
1228 16.404131
1226 15.539472
1224 14.367543
1222 12.987467
1220 11.528057
1218 10.142949
1216 8.9627399
1214 8.0625486
1212 7.4733529
1210 7.1651649
1208 7.085113
1206 7.1617913
1204 7.3111219
1202 7.4321685
1200 7.4242544
1198 7.2007446
1196 6.7173715
1194 6.0151668
1192 5.1773396
1190 4.3314924
1188 3.5890427
1186 3.000792
1184 2.5751903
1182 2.2617364
1180 2.0065241
1178 1.7806159
1176 1.5760599
1174 1.4169904
1172 1.3259366
1170 1.3050237
1168 1.3453075
1166 1.4247371
1164 1.5207174
1162 1.616255
1160 1.6941475
1158 1.734014
1156 1.7173772
1154 1.6330656
1152 1.4809343
1150 1.2819043
1148 1.060257
1146 0.83633035
1144 0.62480325
1142 0.42836297
1140 0.24249284
1138 0.053467169
1136 -0.14490314
1134 -0.33562839
1132 -0.49470365
1130 -0.59524161
1128 -0.6155268
1126 -0.5494166
1124 -0.40802327
1122 -0.23487392
1120 -0.078038082
1118 0.023497464
1116 0.045728885
1114 -0.0032774657
1112 -0.10200196
1110 -0.21493879
1108 -0.3063021
1106 -0.34933299
1104 -0.33223987
1102 -0.27480343
1100 -0.19776431
1098 -0.10367429
1096 0.02348423
1094 0.23450172
1092 0.573843
1090 1.0461392
1088 1.6271617
1086 2.2430201
1084 2.8133914
1082 3.2727394
1080 3.572793
1078 3.7009089
1076 3.6618142
1074 3.4846985
1072 3.2097468
1070 2.8913624
1068 2.5825024
1066 2.3223758
1064 2.134016
1062 2.0059268
1060 1.9160565
1058 1.8382379
1056 1.7555885
1054 1.6816232
1052 1.6366322
1050 1.63986
1048 1.7001011
1046 1.7970715
1044 1.903342
1042 1.9927633
1040 2.049804
1038 2.0899715
1036 2.1352701
1034 2.2037446
1032 2.2970784
1030 2.3719654
1028 2.3806381
1026 2.2962248
1024 2.1119366
1022 1.865679
1020 1.5990717
1018 1.3325479
1016 1.0773151
1014 0.83241576
1012 0.59685874
1010 0.37784749
1008 0.18224224
1006 0.0094757229
1004 -0.14596426
1002 -0.29890251
1000 -0.4621495
998 -0.63473237
996 -0.80980718
994 -0.97274429
992 -1.1115257
990 -1.2285269
988 -1.3249174
986 -1.3872256
984 -1.39696
982 -1.3322068
980 -1.1827292
978 -0.98117411
976 -0.7709626
974 -0.59730041
972 -0.49557233
970 -0.46680379
968 -0.49633276
966 -0.5455175
964 -0.57426965
962 -0.5583818
960 -0.49104759
958 -0.41145051
956 -0.36104384
954 -0.34901232
952 -0.36239922
950 -0.33964396
948 -0.23434788
946 -0.095660076
944 0.017566092
942 0.096697077
940 0.15302968
938 0.22446769
936 0.34758198
934 0.52953386
932 0.75317645
930 0.93967873
928 1.0256
926 1.0609679
924 1.116624
922 1.2339282
920 1.417608
918 1.5614896
916 1.5655658
914 1.4578923
912 1.3189411
910 1.307723
908 1.5617352
906 2.0562401
904 2.7048216
902 3.3370104
900 3.8050423
898 4.1342711
896 4.3936
