##TITLE=Methyl Ethyl Ketone
##JCAMP-DX=4.24
##DATA TYPE=INFRARED SPECTRUM
##XUNITS=cm-1
##YUNITS=Absorbance
##FIRSTX=900
##LASTX=2300
##XYDATA=(X++(Y..Y))
2296 0.0073652002
2294 0.0075216759
2292 0.0076782522
2290 0.0078347288
2288 0.007991205
2286 0.0081476802
2284 0.0083041573
2282 0.0084606325
2280 0.0086171087
2278 0.0087735858
2276 0.008930061
2274 0.0090865372
2272 0.0092430143
2270 0.0093994895
2268 0.0095559657
2266 0.0097124428
2264 0.009868918
2262 0.0100252
2260 0.010181963
2258 0.010338739
2256 0.010494542
2254 0.01065129
2252 0.010808066
2250 0.010963874
2248 0.011120617
2246 0.011277393
2244 0.00041908285
2242 0.049886607
2240 0.11213952
2238 0.16562684
2236 0.217812
2234 0.19193289
2232 0.16007377
2230 0.12046713
2228 0.086669087
2226 0.1023965
2224 0.1313308
2222 0.20927496
2220 0.29505113
2218 0.39676479
2216 0.47103572
2214 0.4833616
2212 0.4489114
2210 0.34405661
2208 0.25107598
2206 0.17827414
2204 0.17499669
2202 0.23745151
2200 0.31323156
2198 0.39574441
2196 0.42350215
2194 0.41946954
2192 0.40119076
2190 0.37760487
2188 0.35267243
2186 0.32740942
2184 0.27480158
2182 0.21589197
2180 0.18263774
2178 0.15356007
2176 0.14982171
2174 0.14646849
2172 0.12109572
2170 0.097209476
2168 0.093896866
2166 0.10268787
2164 0.14844191
2162 0.19823384
2160 0.24888417
2158 0.29942328
2156 0.349491
2154 0.39326435
2152 0.42798138
2150 0.42904156
2148 0.39327472
2146 0.33058894
2144 0.24754006
2142 0.2061065
2140 0.19514583
2138 0.24699289
2136 0.33133283
2134 0.38316786
2132 0.41982251
2130 0.37902477
2128 0.31391442
2126 0.24507165
2124 0.17586645
2122 0.14825943
2120 0.13004017
2118 0.16356222
2116 0.208542
2114 0.28356633
2112 0.35602891
2110 0.39745358
2108 0.42524949
2106 0.42564535
2104 0.42403692
2102 0.42707315
2100 0.42207742
2098 0.402549
2096 0.3552857
2094 0.27469653
2092 0.18355069
2090 0.08651977
2088 0.025504421
2086 -0.0053812652
2084 -0.012555368
2082 -0.0069433283
2080 -0.017346783
2078 -0.03688588
2076 -0.040648174
2074 -0.03733464
2072 -0.0046163555
2070 0.037464373
2068 0.054923605
2066 0.065240726
2064 0.010430218
2062 -0.05890587
2060 -0.15168434
2058 -0.24336119
2056 -0.30366197
2054 -0.35960913
2052 -0.42088458
2050 -0.49355671
2048 -0.59134442
2046 -0.67573428
2044 -0.72373176
2042 -0.72645235
2040 -0.67262441
2038 -0.60395473
2036 -0.53191143
2034 -0.47883201
2032 -0.44446835
2030 -0.408306
2028 -0.36719957
2026 -0.31956771
2024 -0.26761663
2022 -0.22735406
2020 -0.19309007
2018 -0.16449483
2016 -0.138602
2014 -0.13864078
2012 -0.14837377
2010 -0.2126255
2008 -0.29205725
2006 -0.37686014
2004 -0.45740905
2002 -0.49498352
2000 -0.51671422
1998 -0.51250738
1996 -0.50909215
1994 -0.52491492
1992 -0.55451888
1990 -0.60877639
1988 -0.649885
1986 -0.66330898
1984 -0.6405732
1982 -0.57646865
1980 -0.51716298
1978 -0.47154215
1976 -0.46347401
1974 -0.48603821
1972 -0.4829537
1970 -0.45446345
1968 -0.39846766
1966 -0.32817701
1964 -0.35524994
1962 -0.43640688
1960 -0.56655198
1958 -0.71563804
1956 -0.78371799
1954 -0.82131267
1952 -0.81373906
1950 -0.79654509
1948 -0.8027367
1946 -0.82459503
1944 -0.893897
1942 -0.96987301
1940 -1.0341148
1938 -1.0764198
1936 -1.0750514
1934 -1.0751814
1932 -1.098552
1930 -1.1418253
1928 -1.1998817
1926 -1.1892464
1924 -1.0797371
1922 -0.84912169
1920 -0.51904094
1918 -0.2443192
1916 -0.047496516
1914 -0.0089056063
1912 -0.077189416
1910 -0.20411712
1908 -0.35380498
1906 -0.54552966
1904 -0.75938398
1902 -0.95498431
1900 -1.1426228
1898 -1.1765473
1896 -1.1429714
1894 -1.0002438
1892 -0.82546067
1890 -0.72967792
1888 -0.70032066
1886 -0.83581972
1884 -1.0426763
1882 -1.2818574
1880 -1.5019726
1878 -1.6455269
1876 -1.70665
1874 -1.6541903
1872 -1.4840646
1870 -1.1872268
1868 -0.89098173
1866 -0.65695816
1864 -0.62572736
1862 -0.80067515
1860 -1.0846585
1858 -1.4141911
1856 -1.6826028
1854 -1.8906778
1852 -1.9607991
1850 -1.9413952
1848 -1.787156
1846 -1.5562322
1844 -1.3779057
1842 -1.2320917
1840 -1.2705646
1838 -1.4004153
1836 -1.5387757
1834 -1.6607081
1832 -1.6443143
1830 -1.5219315
1828 -1.2510192
1826 -0.9481374
1824 -0.75597006
1822 -0.72396463
1820 -0.93346995
1818 -1.2468867
1816 -1.5642772
1814 -1.7958497
1812 -1.8957622
1810 -1.8787234
1808 -1.7759914
1806 -1.586705
1804 -1.335018
1802 -1.0805416
1800 -0.8334555
1798 -0.66627359
1796 -0.56028211
1794 -0.45291448
1792 -0.34372839
1790 -0.25038308
1788 -0.1757658
1786 -0.16619444
1784 -0.19288664
1782 -0.15657312
1780 -0.069531336
1778 0.14436591
1776 0.42875513
1774 0.7278173
1772 0.95967865
1770 0.92771667
1768 0.72786641
1766 0.41460103
1764 0.14065588
1762 0.064788379
1760 0.026309559
1758 -0.077401444
1756 -0.15483329
1754 -0.15890172
1752 0.052493438
1750 0.50343573
1748 1.0391631
1746 1.5816679
1744 1.7871412
1742 1.6571567
1740 1.3808169
1738 1.0433472
1736 1.003056
1734 1.2070496
1732 1.3752594
1730 1.4803696
1728 1.1584357
1726 0.55932528
1724 0.089447469
1722 -0.20159362
1720 0.10481188
1718 0.95184058
1716 2.2644386
1714 3.6947699
1712 4.716188
1710 5.4587374
1708 6.0911899
1706 6.9350944
1704 8.3085566
1702 10.416844
1700 13.324537
1698 16.863245
1696 20.799715
1694 24.373699
1692 27.323257
1690 29.958513
1688 32.476418
1686 35.719135
1684 39.723797
1682 44.32737
1680 49.339283
1678 53.657734
1676 57.344128
1674 61.100498
1672 64.986572
1670 69.338852
1668 74.004829
1666 78.399101
1664 82.540237
1662 86.454727
1660 90.140213
1658 93.596748
1656 96.758484
1654 99.53376
1652 101.709
1650 103.0501
1648 103.17457
1646 101.78964
1644 99.465736
1642 96.782288
1640 93.871216
1638 90.863388
1636 87.228683
1634 82.809837
1632 78.113281
1630 73.345573
1628 68.935402
1626 64.943825
1624 60.857121
1622 56.612961
1620 52.31443
1618 47.988178
1616 43.873257
1614 39.997269
1612 36.56089
1610 33.579983
1608 31.067623
1606 28.999207
1604 27.214478
1602 25.724974
1600 24.498491
1598 23.544775
1596 22.84
1594 22.372545
1592 22.089525
1590 21.961308
1588 21.934391
1586 22.028278
1584 22.251125
1582 22.66444
1580 23.295862
1578 24.203651
1576 25.394314
1574 26.78124
1572 28.312809
1570 29.815109
1568 31.24472
1566 32.597836
1564 33.881741
1562 35.372559
1560 37.154007
1558 39.609299
1556 42.717415
1554 45.554901
1552 47.963322
1550 49.644707
1548 50.69381
1546 51.759785
1544 52.815022
1542 53.792587
1540 54.357578
1538 53.958092
1536 52.698971
1534 50.872654
1532 48.843395
1530 47.07803
1528 45.532135
1526 44.15905
1524 42.810684
1522 41.378536
1520 39.732925
1518 37.765881
1516 35.690441
1514 33.571045
1512 31.49604
1510 29.525839
1508 27.179707
1506 24.335394
1504 21.406296
1502 18.424116
1500 15.953265
1498 14.05888
1496 12.247857
1494 10.526043
1492 8.7969389
1490 7.0939732
1488 5.4728093
1486 3.958312
1484 2.561228
1482 1.3591731
1480 0.4750618
1478 -0.0050596371
1476 0.011714563
1474 0.55983758
1472 1.5425115
1470 2.6063728
1468 3.4806855
1466 4.1614537
1464 4.6512709
1462 5.1924081
1460 5.917295
1458 6.7035508
1456 7.5215802
1454 8.0323753
1452 8.0336866
1450 7.8481975
1448 7.4118285
1446 6.9767179
1444 6.5472503
1442 6.1226993
1440 5.724956
1438 5.3920689
1436 5.1410899
1434 4.886354
1432 4.619875
1430 4.3035135
1428 3.9714522
1426 3.7485366
1424 3.6667304
1422 3.7629774
1420 3.997669
1418 4.2828112
1416 4.5526114
1414 4.7220249
1412 4.8402247
1410 4.9694324
1408 5.1485829
1406 5.4307327
1404 5.7688332
1402 6.1533823
1400 6.5435519
1398 6.9231615
1396 7.2355642
1394 7.4135795
1392 7.4915104
1390 7.3778696
1388 7.1908665
1386 6.8793249
1384 6.4860497
1382 5.9901915
1380 5.4904566
1378 5.0137634
1376 4.6202798
1374 4.3257051
1372 4.0547619
1370 3.7855458
1368 3.4675241
1366 3.0886106
1364 2.6622047
1362 2.1950066
1360 1.6809891
1358 1.1716993
1356 0.72381884
1354 0.35666651
1352 0.14596048
1350 0.025218256
1348 0.014784358
1346 0.068677716
1344 0.2022644
1342 0.38735399
1340 0.66847372
1338 0.91125214
1336 1.0535514
1334 1.0902653
1332 0.91553777
1330 0.7464236
1328 0.59936839
1326 0.54325742
1324 0.6357168
1322 0.80480826
1320 1.0783013
1318 1.3832527
1316 1.71071
1314 1.9974188
1312 2.2197309
1310 2.360518
1308 2.41819
1306 2.4145594
1304 2.3681996
1302 2.2980571
1300 2.2255065
1298 2.1659973
1296 2.1222
1294 2.1012201
1292 2.0966027
1290 2.1175609
1288 2.149092
1286 2.1963449
1284 2.2364125
1282 2.2512324
1280 2.2592156
1278 2.2535636
1276 2.2703543
1274 2.3381081
1272 2.4382944
1270 2.5942299
1268 2.7569587
1266 2.9305158
1264 3.1230788
1262 3.3441892
1260 3.6117079
1258 3.9283731
1256 4.2695227
1254 4.6371355
1252 5.0338793
1250 5.4597135
1248 5.9258728
1246 6.4058752
1244 6.8602872
1242 7.2795811
1240 7.6099639
1238 7.8817887
1236 8.0430698
1234 8.1417532
1232 8.104908
1230 8.0048923
1228 7.7443261
1226 7.425107
1224 6.949573
1222 6.4381404
1220 5.8440404
1218 5.2569041
1216 4.6873031
1214 4.1480818
1212 3.6619434
1210 3.2008142
1208 2.7752028
1206 2.3647473
1204 1.971166
1202 1.5835527
1200 1.1985874
1198 0.80119663
1196 0.39315435
1194 -0.024746567
1192 -0.43797159
1190 -0.80803871
1188 -1.136508
1186 -1.371785
1184 -1.5528525
1182 -1.6369087
1180 -1.6800449
1178 -1.6441134
1176 -1.57766
1174 -1.4301598
1172 -1.259428
1170 -1.0187273
1168 -0.77614307
1166 -0.52997506
1164 -0.28436279
1162 -0.038376674
1160 0.22070509
1158 0.5005877
1156 0.74665302
1154 0.92442918
1152 1.0040884
1150 0.94702291
1148 0.81564379
1146 0.60840821
1144 0.40416503
1142 0.213658
1140 0.08689595
1138 0.018914081
1136 0.039856315
1134 0.12607542
1132 0.35466123
1130 0.65463531
1128 1.0445466
1126 1.4554435
1124 1.8490098
1122 2.2240407
1120 2.516712
1118 2.7772667
1116 2.9057758
1114 3.0179842
1112 3.0737309
1110 3.1624026
1108 3.3564334
1106 3.5757749
1104 3.85164
1102 4.0913758
1100 4.2616196
1098 4.4270406
1096 4.5939856
1094 4.8272376
1092 5.1479478
1090 5.5241857
1088 5.9593449
1086 6.4357381
1084 6.9398975
1082 7.4171467
1080 7.8517537
1078 8.0938053
1076 8.2275143
1074 8.202961
1072 8.1312351
1070 8.0936089
1068 8.0694675
1066 8.0911512
1064 8.1199121
1062 8.1576958
1060 8.2044907
1058 8.3060417
1056 8.4110823
1054 8.5300322
1052 8.6298571
1050 8.6684132
1048 8.6911497
1046 8.6764641
1044 8.6669149
1042 8.6652718
1040 8.6549034
1038 8.6305208
1036 8.5948896
1034 8.5463371
1032 8.4925852
1030 8.4288664
1028 8.3042383
1026 8.1322203
1024 7.8968058
1022 7.627317
1020 7.3486342
1018 7.061202
1016 6.7218742
1014 6.3560295
1012 5.8519268
1010 5.3125987
1008 4.6395998
1006 3.9588864
1004 3.3180232
1002 2.7069285
1000 2.2970498
998 1.9106377
996 1.6267715
994 1.331516
992 0.99970639
990 0.65031487
988 0.26004291
986 -0.14127544
984 -0.5583505
982 -0.93356395
980 -1.246492
978 -1.4578847
976 -1.5614715
974 -1.6035267
972 -1.5952457
970 -1.5583035
968 -1.5040137
966 -1.45786
964 -1.4172679
962 -1.4193684
960 -1.4307584
958 -1.3392869
956 -1.2191033
954 -0.93875515
952 -0.64153355
950 -0.39871049
948 -0.16636959
946 -0.053429145
944 0.0025422871
942 0.079339132
940 0.23856245
938 0.4440484
936 0.63261002
934 0.77130705
932 0.88142949
930 0.93047643
928 0.9690001
926 0.99189973
924 1.063946
922 1.1981037
920 1.4420297
918 1.7885528
916 2.2056742
914 2.6716874
912 3.0976458
910 3.5025871
908 3.8105407
906 4.0822525
904 4.215261
902 4.3125834
900 4.2620888
898 4.1884613
896 4.2314
