##TITLE=Methyl Ethyl Ketone
##JCAMP-DX=4.24
##DATA TYPE=INFRARED SPECTRUM
##XUNITS=cm-1
##YUNITS=Absorbance
##FIRSTX=900
##LASTX=2300
##XYDATA=(X++(Y..Y))
2296 0.45067
2294 0.46004659
2292 0.46942317
2290 0.47879976
2288 0.48817635
2286 0.4975529
2284 0.50691962
2282 0.51629615
2280 0.52567273
2278 0.53504932
2276 0.54442585
2274 0.55381233
2272 0.56317919
2270 0.57252622
2268 0.58193159
2266 0.59141648
2264 0.60067809
2262 0.60963237
2260 0.61941749
2258 0.63036168
2256 0.63822746
2254 0.64175773
2252 0.65674698
2250 0.6878981
2248 0.67645335
2246 0.55895537
2244 0.32394832
2242 -0.00049374159
2240 -0.28600129
2238 -0.40795082
2236 -0.3704817
2234 -0.22032048
2232 -0.027263131
2230 0.14047252
2228 0.24620345
2226 0.27019048
2224 0.22373296
2222 0.12594374
2220 -0.0088732764
2218 -0.16477042
2216 -0.31293142
2214 -0.42402396
2212 -0.48236382
2210 -0.48065862
2208 -0.42891833
2206 -0.33853278
2204 -0.20531029
2202 -0.027154641
2200 0.16995542
2198 0.3498354
2196 0.47033358
2194 0.49992722
2192 0.45713794
2190 0.37546784
2188 0.28509921
2186 0.20864114
2184 0.1434996
2182 0.082399815
2180 0.031913944
2178 0.0016010497
2176 -0.0057331049
2174 0.0072861095
2172 0.025252143
2170 0.033666153
2168 0.038703687
2166 0.051670644
2164 0.076391079
2162 0.11051627
2160 0.13738039
2158 0.13957648
2156 0.116221
2154 0.072810598
2152 0.01740139
2150 -0.043790683
2148 -0.11502174
2146 -0.20055501
2144 -0.2896561
2142 -0.36539021
2140 -0.40708467
2138 -0.40141612
2136 -0.369966
2134 -0.34281328
2132 -0.33381954
2130 -0.34574902
2128 -0.36098561
2126 -0.36124858
2124 -0.35498649
2122 -0.35621545
2120 -0.3606104
2118 -0.35864252
2116 -0.3485187
2114 -0.33558729
2112 -0.34195641
2110 -0.38329402
2108 -0.42309895
2106 -0.40925387
2104 -0.30709183
2102 -0.10752439
2100 0.12319441
2098 0.2991583
2096 0.37148714
2094 0.32341522
2092 0.20760705
2090 0.096668914
2088 0.036231309
2086 0.048436999
2084 0.10605627
2082 0.16492054
2080 0.18968251
2078 0.1568245
2076 0.074260756
2074 -0.034769021
2072 -0.13502832
2070 -0.19348714
2068 -0.20434862
2066 -0.17978022
2064 -0.1597828
2062 -0.18569846
2060 -0.25872102
2058 -0.35731712
2056 -0.43682143
2054 -0.45404556
2052 -0.40931451
2050 -0.32612896
2048 -0.24648932
2046 -0.21060714
2044 -0.222036
2042 -0.26573455
2040 -0.31581399
2038 -0.35015401
2036 -0.3785893
2034 -0.42145592
2032 -0.48386279
2030 -0.5586471
2028 -0.6184268
2026 -0.6331315
2024 -0.59744608
2022 -0.5194816
2020 -0.41547775
2018 -0.30350056
2016 -0.196668
2014 -0.10670759
2012 -0.049846746
2010 -0.039867818
2008 -0.070967197
2006 -0.1268366
2004 -0.18532783
2002 -0.2279835
2000 -0.26136583
1998 -0.30311275
1996 -0.36790785
1994 -0.46472257
1992 -0.58728832
1990 -0.72170717
1988 -0.85163742
1986 -0.96105164
1984 -1.038198
1982 -1.0764284
1980 -1.0822257
1978 -1.0674703
1976 -1.0402886
1974 -1.0046327
1972 -0.95585215
1970 -0.8898375
1968 -0.82252705
1966 -0.77800411
1964 -0.77146775
1962 -0.80541587
1960 -0.84983003
1958 -0.86439323
1956 -0.833121
1954 -0.76015711
1952 -0.6782847
1950 -0.62733287
1948 -0.61898839
1946 -0.64568746
1944 -0.68365914
1942 -0.70788741
1940 -0.71921039
1938 -0.72975343
1936 -0.73955083
1934 -0.74220949
1932 -0.73569924
1930 -0.72364563
1928 -0.72149736
1926 -0.73986727
1924 -0.7418282
1922 -0.6744507
1920 -0.52838266
1918 -0.3287681
1916 -0.1387364
1914 -0.027551457
1912 -0.010290771
1910 -0.069264166
1908 -0.18058242
1906 -0.31569141
1904 -0.42878318
1902 -0.46972638
1900 -0.411208
1898 -0.25133353
1896 -0.039628573
1894 0.15260322
1892 0.28088206
1890 0.32224861
1888 0.27014023
1886 0.13084078
1884 -0.066924646
1882 -0.28008533
1880 -0.45635724
1878 -0.54857653
1876 -0.550861
1874 -0.48181564
1872 -0.35949382
1870 -0.20174789
1868 -0.037272371
1866 0.099176213
1864 0.17584737
1862 0.17260119
1860 0.10983783
1858 0.026992245
1856 -0.059455354
1854 -0.14868174
1852 -0.23653664
1850 -0.31555828
1848 -0.38014799
1846 -0.42865643
1844 -0.47003782
1842 -0.51511508
1840 -0.55424529
1838 -0.56785619
1836 -0.55213112
1834 -0.5141753
1832 -0.4589912
1830 -0.38966486
1828 -0.31221566
1826 -0.23819679
1824 -0.19447674
1822 -0.21024233
1820 -0.2818996
1818 -0.38403136
1816 -0.49339285
1814 -0.59196454
1812 -0.66739535
1810 -0.70505196
1808 -0.66522801
1806 -0.50248897
1804 -0.22205892
1802 0.12893692
1800 0.47554326
1798 0.73734385
1796 0.87439144
1794 0.88439453
1792 0.80389321
1790 0.69353724
1788 0.61968869
1786 0.63218164
1784 0.70062548
1782 0.74612468
1780 0.72155178
1778 0.62025768
1776 0.48773742
1774 0.39098296
1772 0.34531832
1770 0.32328546
1768 0.28750092
1766 0.21076892
1764 0.12081093
1762 0.067501701
1760 0.021057142
1758 -0.087770075
1756 -0.22179286
1754 -0.26950306
1752 -0.17110902
1750 0.068634599
1748 0.3747929
1746 0.63465786
1744 0.76799476
1742 0.74364644
1740 0.61780453
1738 0.49847236
1736 0.45179802
1734 0.48797828
1732 0.54313546
1730 0.51631933
1728 0.36784869
1726 0.12755312
1724 -0.10154161
1722 -0.16810161
1720 0.079669937
1718 0.74186409
1716 1.7075642
1714 2.7211666
1712 3.6117916
1710 4.337389
1708 5.0359998
1706 5.9711018
1704 7.3945756
1702 9.5085125
1700 12.416597
1698 16.07366
1696 20.082571
1694 23.837801
1692 27.032169
1690 29.719425
1688 32.312458
1686 35.430073
1684 39.492306
1682 44.581627
1680 50.150478
1678 55.304729
1676 59.833187
1674 64.172356
1672 68.749184
1670 73.778137
1668 78.997879
1666 83.813248
1664 87.865387
1662 91.085716
1660 93.526459
1658 95.297073
1656 96.506287
1654 97.240044
1652 97.52774
1650 97.349037
1648 96.668755
1646 95.475388
1644 93.90538
1642 92.185097
1640 90.348129
1638 88.231651
1636 85.65239
1634 82.488503
1632 78.830681
1630 74.921867
1628 70.838226
1626 66.473282
1624 61.737362
1622 56.628311
1620 51.331799
1618 46.182365
1616 41.446259
1614 37.275703
1612 33.730438
1610 30.787361
1608 28.352972
1606 26.293356
1604 24.525156
1602 23.031172
1600 21.82548
1598 20.934959
1596 20.358
1594 20.058744
1592 19.993879
1590 20.12604
1588 20.442152
1586 20.952122
1584 21.663513
1582 22.58074
1580 23.740608
1578 25.210785
1576 27.046885
1574 29.27133
1572 31.825783
1570 34.575222
1568 37.38044
1566 40.119137
1564 42.707378
1562 45.145248
1560 47.668301
1558 50.64674
1556 53.963158
1554 56.969212
1552 59.112686
1550 60.144196
1548 60.222614
1546 59.831928
1544 59.210766
1542 58.250591
1540 56.798779
1538 54.774193
1536 52.302628
1534 49.705269
1532 47.228523
1530 44.968414
1528 42.916397
1526 40.973652
1524 38.9897
1522 36.797085
1520 34.336479
1518 31.697872
1516 29.073143
1514 26.694363
1512 24.5774
1510 22.484615
1508 20.220606
1506 17.738272
1504 15.198183
1502 12.93239
1500 11.101851
1498 9.6144562
1496 8.3238287
1494 7.0947776
1492 5.8595161
1490 4.6279287
1488 3.4134228
1486 2.2243657
1484 1.1259302
1482 0.24964494
1480 -0.29140881
1478 -0.42054659
1476 -0.04417786
1474 0.926543
1472 2.392144
1470 4.0303917
1468 5.5631084
1466 6.8531189
1464 7.9115167
1462 8.8939285
1460 9.9387827
1458 11.099363
1456 12.2972
1454 13.319205
1452 13.995154
1450 14.265123
1448 14.15732
1446 13.777786
1444 13.22366
1442 12.55286
1440 11.80536
1438 11.004672
1436 10.146003
1434 9.2035847
1432 8.19944
1430 7.226193
1428 6.3833323
1426 5.7496963
1424 5.3514209
1422 5.1474628
1420 5.0806026
1418 5.0952144
1416 5.1537514
1414 5.246798
1412 5.3873539
1410 5.6091537
1408 5.9372029
1406 6.3708849
1404 6.866457
1402 7.3274341
1400 7.6532922
1398 7.7644849
1396 7.6436501
1394 7.356956
1392 6.9859533
1390 6.6019135
1388 6.2414732
1386 5.8954301
1384 5.5540919
1382 5.2205758
1380 4.8904362
1378 4.5432553
1376 4.1537056
1374 3.6985738
1372 3.1807082
1370 2.6387682
1368 2.1012669
1366 1.5679935
1364 1.0279768
1362 0.47133246
1360 -0.06543535
1358 -0.478609
1356 -0.67743325
1354 -0.62058932
1352 -0.31027931
1350 0.20008752
1348 0.84646136
1346 1.5680323
1344 2.3158159
1342 3.0557847
1340 3.7418261
1338 4.3032246
1336 4.6660142
1334 4.7686028
1332 4.603497
1330 4.2471151
1328 3.7956085
1326 3.3428421
1324 2.9614255
1322 2.6863599
1320 2.5260336
1318 2.4568083
1316 2.4379101
1314 2.4137876
1312 2.3400726
1310 2.2000282
1308 2.0043111
1306 1.7981207
1304 1.6243868
1302 1.5072639
1300 1.4582959
1298 1.4759356
1296 1.5661143
1294 1.7520033
1292 2.0552156
1290 2.484937
1288 3.0299242
1286 3.6472721
1284 4.284266
1282 4.8852739
1280 5.4051156
1278 5.8213162
1276 6.1327586
1274 6.367506
1272 6.5613708
1270 6.7496624
1268 6.9530377
1266 7.1663766
1264 7.3886862
1262 7.639936
1260 7.9595637
1258 8.4106588
1256 9.0354023
1254 9.8236408
1252 10.73742
1250 11.712317
1248 12.692886
1246 13.6535
1244 14.580714
1242 15.46806
1240 16.304623
1238 17.066336
1236 17.7047
1234 18.131458
1232 18.24584
1230 17.95236
1228 17.216084
1226 16.114328
1224 14.767755
1222 13.327644
1220 11.939309
1218 10.713328
1216 9.7294292
1214 9.0135975
1212 8.5660362
1210 8.3560305
1208 8.340332
1206 8.4622602
1204 8.6482782
1202 8.7974215
1200 8.8149319
1198 8.6360979
1196 8.2294359
1194 7.6199622
1192 6.8568616
1190 6.0118232
1188 5.1592641
1186 4.3665805
1184 3.688072
1182 3.1523728
1180 2.7689607
1178 2.5190299
1176 2.3722401
1174 2.2883041
1172 2.2313809
1170 2.181936
1168 2.1344252
1166 2.1054807
1164 2.1160436
1162 2.182869
1160 2.2982194
1158 2.4026823
1156 2.4290528
1154 2.3250167
1152 2.0737052
1150 1.7316808
1148 1.363906
1146 1.013984
1144 0.70754492
1142 0.44162288
1140 0.21503326
1138 0.04708302
1136 -0.034775488
1134 0.00075463206
1132 0.15256797
1130 0.34221816
1128 0.4901371
1126 0.56164348
1124 0.56201595
1122 0.56402725
1120 0.62718844
1118 0.73818582
1116 0.85523486
1114 0.91238618
1112 0.86519283
1110 0.73769301
1108 0.57879484
1106 0.456312
1104 0.42258638
1102 0.47927704
1100 0.61401522
1098 0.81023294
1096 1.0566857
1094 1.357203
1092 1.707574
1090 2.0746086
1088 2.4313977
1086 2.7847843
1084 3.1456649
1082 3.5142908
1080 3.8783474
1078 4.2010942
1076 4.4589629
1074 4.6773276
1072 4.8789639
1070 5.0484657
1068 5.1522055
1066 5.1363273
1064 4.9667201
1062 4.6767764
1060 4.3199081
1058 3.9593458
1056 3.6549487
1054 3.4504962
1052 3.3725643
1050 3.4098811
1048 3.529072
1046 3.6617072
1044 3.7444077
1042 3.7535784
1040 3.6925039
1038 3.6139677
1036 3.57954
1034 3.6394629
1032 3.8093736
1030 4.012569
1028 4.1536088
1026 4.1522212
1024 3.9716737
1022 3.6925581
1020 3.3985932
1018 3.095947
1016 2.7563457
1014 2.3087444
1012 1.7251017
1010 1.1389475
1008 0.70155036
1006 0.49241272
1004 0.51180077
1002 0.57137424
1000 0.4951275
998 0.29201919
996 0.036763579
994 -0.13475829
992 -0.12417897
990 -0.00039061904
988 0.13291073
986 0.19458985
984 0.14516872
982 0.061530396
980 0.030031737
978 0.072814107
976 0.17132457
974 0.22579652
972 0.13909957
970 -0.10913637
968 -0.49581835
966 -0.91561353
964 -1.2503134
962 -1.4079283
960 -1.3290411
958 -1.0437851
956 -0.61529589
954 -0.14497817
952 0.2606208
950 0.51107478
948 0.55175436
946 0.43975711
944 0.24573566
942 -0.0091129243
940 -0.28155389
938 -0.4064765
936 -0.2460126
934 0.12849385
932 0.5863201
930 0.97069669
928 1.1614799
926 1.1985236
924 1.1730419
922 1.2182205
920 1.4304949
918 1.7266794
916 1.9838943
914 2.0996146
912 2.0056572
910 1.7477
908 1.4084823
906 1.1047345
904 0.97172409
902 1.1823719
900 1.8524024
898 2.8320351
896 3.9052
