##TITLE=Methyl Ethyl Ketone
##JCAMP-DX=4.24
##DATA TYPE=INFRARED SPECTRUM
##XUNITS=cm-1
##YUNITS=Absorbance
##FIRSTX=900
##LASTX=2300
##XYDATA=(X++(Y..Y))
2296 0.011072
2294 0.01130267
2292 0.011532342
2290 0.01176301
2288 0.01199368
2286 0.012223357
2284 0.01245402
2282 0.012684691
2280 0.012914372
2278 0.01314503
2276 0.0133757
2274 0.013605385
2272 0.01383604
2270 0.01406671
2268 0.0142964
2266 0.01452705
2264 0.014757721
2262 0.014987414
2260 0.01521806
2258 0.01544873
2256 0.015678428
2254 0.015909068
2252 0.01613974
2250 0.016369443
2248 0.01660008
2246 0.01683075
2244 0.00062544853
2242 0.016477926
2240 0.043817401
2238 0.079165339
2236 0.11566207
2234 0.10493951
2232 0.090708442
2230 0.074475743
2228 0.062453408
2226 0.084904149
2224 0.10860094
2222 0.13006991
2220 0.1484782
2218 0.15796858
2216 0.16813429
2214 0.18085502
2212 0.1848342
2210 0.17424643
2208 0.14969909
2206 0.10885614
2204 0.076115236
2202 0.052175939
2200 0.047877777
2198 0.057812139
2196 0.067753933
2194 0.077163085
2192 0.078736611
2190 0.076900274
2188 0.063339502
2186 0.046039633
2184 0.0014370198
2182 -0.049401503
2180 -0.10525142
2178 -0.16140147
2176 -0.18377657
2174 -0.20085728
2172 -0.1931428
2170 -0.18355949
2168 -0.1767216
2166 -0.17082228
2164 -0.16732736
2162 -0.15712711
2160 -0.12912971
2158 -0.09488643
2156 -0.052270301
2154 -0.028110588
2152 -0.031941481
2150 -0.066779837
2148 -0.13325216
2146 -0.19937214
2144 -0.26224124
2142 -0.2954196
2140 -0.30816108
2138 -0.30997986
2136 -0.30701315
2134 -0.33169836
2132 -0.36830786
2130 -0.43416557
2128 -0.50902838
2126 -0.57542801
2124 -0.63966256
2122 -0.66702592
2120 -0.68661124
2118 -0.66994935
2116 -0.64623827
2114 -0.60863709
2112 -0.5732016
2110 -0.55646265
2108 -0.55409789
2106 -0.58682829
2104 -0.63197339
2102 -0.69300485
2100 -0.74879897
2098 -0.79178882
2096 -0.82324713
2094 -0.8419559
2092 -0.85442787
2090 -0.86235738
2088 -0.87026697
2086 -0.87886351
2084 -0.90276742
2082 -0.93677187
2080 -0.97581404
2078 -1.0166924
2076 -1.0323715
2074 -1.0373815
2072 -1.0294319
2070 -1.0175694
2068 -1.0170231
2066 -1.0193057
2064 -1.0299617
2062 -1.0425773
2060 -1.0616611
2058 -1.081949
2056 -1.1017228
2054 -1.1183343
2052 -1.1229991
2050 -1.1262025
2048 -1.1308321
2046 -1.1445143
2044 -1.174852
2042 -1.2058665
2040 -1.2337898
2038 -1.2431233
2036 -1.23156
2034 -1.2115487
2032 -1.1869897
2030 -1.171427
2028 -1.1630783
2026 -1.1504807
2024 -1.1340222
2022 -1.1039172
2020 -1.0667309
2018 -1.0495027
2016 -1.04134
2014 -1.0671313
2012 -1.1046103
2010 -1.1364306
2008 -1.1660314
2006 -1.1836756
2004 -1.1987298
2002 -1.215646
2000 -1.2301823
1998 -1.2298727
1996 -1.2231072
1994 -1.2063633
1992 -1.1919446
1990 -1.1908191
1988 -1.190832
1986 -1.1903107
1984 -1.1800971
1982 -1.1562557
1980 -1.1310751
1978 -1.1064878
1976 -1.0848544
1974 -1.065008
1972 -1.038442
1970 -1.0059166
1968 -0.98577797
1966 -0.97430837
1964 -0.98872811
1962 -1.016907
1960 -1.033676
1958 -1.0449685
1956 -1.0430571
1954 -1.0372925
1952 -1.0417835
1950 -1.0505511
1948 -1.0565572
1946 -1.060125
1944 -1.0573069
1942 -1.0500481
1940 -1.0441222
1938 -1.0403439
1936 -1.0436599
1934 -1.0499934
1932 -1.054734
1930 -1.0566863
1928 -1.0513977
1926 -1.0463099
1924 -1.0418956
1922 -1.0341042
1920 -1.0243857
1918 -1.01002
1916 -0.99540526
1914 -0.98080826
1912 -0.96600038
1910 -0.95051521
1908 -0.93359226
1906 -0.93406528
1904 -0.94479322
1902 -0.95487428
1900 -0.96510172
1898 -0.92871428
1896 -0.87337714
1894 -0.80377197
1892 -0.73439318
1890 -0.70893109
1888 -0.7078926
1886 -0.74509877
1884 -0.79793102
1882 -0.85617888
1880 -0.91594434
1878 -0.97199303
1876 -1.017283
1874 -1.0392007
1872 -1.0268475
1870 -0.97115308
1868 -0.89654332
1866 -0.82205266
1864 -0.78452897
1862 -0.79222888
1860 -0.83249575
1858 -0.88897735
1856 -0.95186257
1854 -1.0139751
1852 -1.0711304
1850 -1.1222944
1848 -1.151124
1846 -1.1642214
1844 -1.1534154
1842 -1.1284556
1840 -1.1019663
1838 -1.0762421
1836 -1.0433257
1834 -1.0042521
1832 -0.93203557
1830 -0.83743328
1828 -0.72124618
1826 -0.60946691
1824 -0.54839486
1822 -0.53863347
1820 -0.59249002
1818 -0.67289841
1816 -0.749098
1814 -0.8057853
1812 -0.8332262
1810 -0.83506024
1808 -0.81939071
1806 -0.77711451
1804 -0.71315187
1802 -0.65377718
1800 -0.60095268
1798 -0.57861871
1796 -0.57866073
1794 -0.55316657
1792 -0.51056999
1790 -0.43535104
1788 -0.34554693
1786 -0.27087188
1784 -0.20883296
1782 -0.15760393
1780 -0.11496186
1778 -0.076435387
1776 -0.0380174
1774 0.010593453
1772 0.065040752
1770 0.1046191
1768 0.12419977
1766 0.1034442
1764 0.062951982
1762 0.029593611
1760 0.017575195
1758 -0.062223982
1756 -0.16161071
1754 -0.2167166
1752 -0.21998446
1750 -0.1746085
1748 -0.13460192
1746 -0.11934178
1744 -0.16336051
1742 -0.26497415
1740 -0.35034487
1738 -0.40932906
1736 -0.36245599
1734 -0.23235282
1732 -0.095288992
1730 0.033836186
1728 0.040217284
1726 -0.03859866
1724 -0.099056996
1722 -0.1208344
1720 0.014958173
1718 0.30337918
1716 0.81314003
1714 1.4523182
1712 2.063843
1710 2.6404958
1708 3.1869562
1706 3.8563421
1704 4.8013439
1702 6.2848587
1700 8.4377527
1698 11.464226
1696 15.322571
1694 19.26857
1692 22.957817
1690 26.267204
1688 29.251492
1686 32.801796
1684 37.00486
1682 42.088474
1680 47.86496
1678 52.936111
1676 57.333698
1674 61.520645
1672 65.641464
1670 70.548477
1668 76.060501
1666 81.639046
1664 87.1287
1662 92.048859
1660 96.36071
1658 99.936348
1656 102.74429
1654 104.7438
1652 105.8118
1650 105.86149
1648 104.74834
1646 102.42107
1644 99.402496
1642 96.195366
1640 92.744858
1638 89.065735
1636 84.76239
1634 79.742516
1632 74.660927
1630 69.744766
1628 65.17437
1626 60.949036
1624 56.667679
1622 52.276733
1620 48.035683
1618 43.961716
1616 40.195484
1614 36.752823
1612 33.737087
1610 31.15741
1608 28.987652
1606 27.212294
1604 25.709032
1602 24.486601
1600 23.513189
1598 22.784569
1596 22.255501
1594 21.920874
1592 21.743767
1590 21.716333
1588 21.810143
1586 22.001329
1584 22.263498
1582 22.57811
1580 22.933725
1578 23.399261
1576 23.997885
1574 24.775902
1572 25.732546
1570 26.78705
1568 27.9168
1566 29.075542
1564 30.263754
1562 31.661938
1560 33.367344
1558 35.968838
1556 39.528759
1554 43.401321
1552 47.350834
1550 50.387276
1548 52.529881
1546 54.304356
1544 55.718582
1542 56.908192
1540 57.741478
1538 58.037445
1536 57.753258
1534 56.9356
1532 55.75769
1530 54.47406
1528 53.098392
1526 51.646149
1524 49.989994
1522 48.039619
1520 45.776985
1518 43.155876
1516 40.571186
1514 38.158691
1512 35.871441
1510 33.737789
1508 31.190109
1506 28.093594
1504 25.003622
1502 21.976772
1500 19.437849
1498 17.437281
1496 15.452857
1494 13.473151
1492 11.426168
1490 9.3241701
1488 7.2290068
1486 5.2186122
1484 3.4330101
1482 1.9605718
1480 0.89250404
1478 0.2503919
1476 0.047361147
1474 0.37690321
1472 1.1932743
1470 2.2048368
1468 3.2231066
1466 4.0833001
1464 4.6774912
1462 5.166162
1460 5.6036072
1458 6.0515065
1456 6.5257998
1454 6.922646
1452 7.1776381
1450 7.2900462
1448 7.1917949
1446 7.0274644
1444 6.775063
1442 6.5059366
1440 6.2141089
1438 5.8882127
1436 5.5084286
1434 5.0295806
1432 4.4564085
1430 3.8656554
1428 3.2930601
1426 2.8347728
1424 2.5094006
1422 2.3255458
1420 2.2799509
1418 2.3470733
1416 2.4904771
1414 2.6717119
1412 2.8646832
1410 3.0686884
1408 3.2939639
1406 3.5607834
1404 3.86496
1402 4.213542
1400 4.5871916
1398 4.9903011
1396 5.3915501
1394 5.776628
1392 6.0984788
1390 6.2930207
1388 6.37953
1386 6.2899699
1384 6.0930667
1382 5.7473049
1380 5.3360682
1378 4.8522477
1376 4.3547945
1374 3.8637187
1372 3.4134018
1370 3.0106547
1368 2.6533046
1366 2.3041143
1364 1.9056954
1362 1.4676222
1360 0.99332052
1358 0.5553807
1356 0.24676958
1354 0.046669848
1352 0.0015681188
1350 0.034280241
1348 0.1450792
1346 0.2927168
1344 0.49757439
1342 0.72868359
1340 1.0057567
1338 1.2806804
1336 1.5412686
1334 1.7724773
1332 1.9346795
1330 2.0863051
1328 2.2242343
1326 2.3850443
1324 2.5913744
1322 2.8351123
1320 3.1355867
1318 3.4710093
1316 3.8392799
1314 4.1980448
1312 4.5259261
1310 4.7905064
1308 4.9855709
1306 5.1112418
1304 5.1820264
1302 5.2038698
1300 5.1984105
1298 5.1698799
1296 5.1313572
1294 5.0812454
1292 5.0257144
1290 4.9604979
1288 4.9016042
1286 4.8618817
1284 4.8405538
1282 4.8615861
1280 4.8912382
1278 4.9381695
1276 4.9806156
1274 5.0166802
1272 5.0494499
1270 5.081038
1268 5.1221704
1266 5.1789207
1264 5.2555919
1262 5.3563676
1260 5.4750519
1258 5.6103435
1256 5.7466288
1254 5.8785486
1252 5.9923897
1250 6.09057
1248 6.173985
1246 6.2472749
1244 6.3081441
1242 6.3552995
1240 6.3700762
1238 6.3605957
1236 6.3015885
1234 6.20784
1232 6.0316482
1230 5.807724
1228 5.4558811
1226 5.0659299
1224 4.5774422
1222 4.0821071
1220 3.5736172
1218 3.08867
1216 2.6530771
1214 2.2477965
1212 1.8934255
1210 1.5533576
1208 1.2360189
1206 0.94015259
1204 0.67646861
1202 0.45686793
1200 0.28338289
1198 0.14168942
1196 0.02663178
1194 -0.07249365
1192 -0.155404
1190 -0.20812449
1188 -0.23825131
1186 -0.22999936
1184 -0.19849314
1182 -0.12316673
1180 -0.015859887
1178 0.18215884
1176 0.419126
1174 0.76416546
1172 1.113306
1170 1.4507049
1168 1.7423228
1166 1.8901843
1164 1.9855806
1162 1.9519939
1160 1.8935926
1158 1.7861844
1156 1.6690115
1154 1.5344234
1152 1.3852166
1150 1.2138101
1148 1.0199825
1146 0.80152106
1144 0.57488215
1142 0.34988856
1140 0.17193441
1138 0.043118365
1136 0.011812104
1134 0.047016144
1132 0.17540269
1130 0.34400481
1128 0.53717452
1126 0.73015487
1124 0.88767284
1122 1.031111
1120 1.133144
1118 1.224236
1116 1.27703
1114 1.3246001
1112 1.3541377
1110 1.3921899
1108 1.4573123
1106 1.527475
1104 1.6071976
1102 1.6642747
1100 1.674872
1098 1.6581314
1096 1.6010286
1094 1.5499914
1092 1.511348
1090 1.5103776
1088 1.5478725
1086 1.6021472
1084 1.6651537
1082 1.6977928
1080 1.7076852
1078 1.68164
1076 1.6369615
1074 1.5727983
1072 1.5010434
1070 1.4216832
1068 1.3412471
1066 1.2669507
1064 1.196872
1062 1.1528318
1060 1.1159704
1058 1.1165694
1056 1.1171914
1054 1.1170648
1052 1.1050066
1050 1.054787
1048 0.99329251
1046 0.90474999
1044 0.8142367
1042 0.71997952
1040 0.62904668
1038 0.54289234
1036 0.45960999
1034 0.37998748
1032 0.30306035
1030 0.22921789
1028 0.15916382
1026 0.090961665
1024 0.013640236
1022 -0.070301272
1020 -0.17245945
1018 -0.28133199
1016 -0.38504231
1014 -0.48548055
1012 -0.56525278
1010 -0.6409604
1008 -0.7110644
1006 -0.77910173
1004 -0.82879096
1002 -0.87117648
1000 -0.86496401
998 -0.85437328
996 -0.82500285
994 -0.80119616
992 -0.79483581
990 -0.78800827
988 -0.77959818
986 -0.76066351
984 -0.72314036
982 -0.68580824
980 -0.64972323
978 -0.63590235
976 -0.64615089
974 -0.67371827
972 -0.7141434
970 -0.73752713
968 -0.74902022
966 -0.73601198
964 -0.71222264
962 -0.6951251
960 -0.68093598
958 -0.67791009
956 -0.67518884
954 -0.62154257
952 -0.55835563
950 -0.41178879
948 -0.26005536
946 -0.084920779
944 0.0020773709
942 0.06488049
940 0.19674292
938 0.37393379
936 0.5555197
934 0.74907595
932 0.90071899
930 0.96174991
928 0.96237165
926 0.86651963
924 0.75903881
922 0.63797408
920 0.53415972
918 0.44632825
916 0.36751115
914 0.29498452
912 0.22936691
910 0.1679455
908 0.10759413
906 0.048876472
904 0.020053316
902 0.00015592575
900 0.054160282
898 0.12036639
896 0.22269
