##TITLE=Methyl Ethyl Ketone
##JCAMP-DX=4.24
##DATA TYPE=INFRARED SPECTRUM
##XUNITS=cm-1
##YUNITS=Absorbance
##FIRSTX=900
##LASTX=2300
##XYDATA=(X++(Y..Y))
2296 0.24282999
2294 0.24788277
2292 0.25293556
2290 0.2579883
2288 0.26304108
2286 0.26809385
2284 0.27314663
2282 0.27818948
2280 0.2832422
2278 0.28829494
2276 0.29334772
2274 0.29840049
2272 0.30345324
2270 0.30850604
2268 0.31355879
2266 0.31861159
2264 0.32366434
2262 0.32870737
2260 0.33375987
2258 0.33881268
2256 0.34386542
2254 0.3489182
2252 0.35397097
2250 0.35902372
2248 0.36407652
2246 0.36912927
2244 0.14845945
2242 0.0053976853
2240 -0.1040928
2238 -0.0091297645
2236 0.11583665
2234 0.30143991
2232 0.48575073
2230 0.54414785
2228 0.59044278
2226 0.58841449
2224 0.58243215
2222 0.56968403
2220 0.54174399
2218 0.46865037
2216 0.40659514
2214 0.3742258
2212 0.38210261
2210 0.45282191
2208 0.49698552
2206 0.50321442
2204 0.47369364
2202 0.4120464
2200 0.39339736
2198 0.40844762
2196 0.40851787
2194 0.39865792
2192 0.31578839
2190 0.20118797
2188 0.10564403
2186 0.016975887
2184 0.021201801
2182 0.046689674
2180 0.14902142
2178 0.26271784
2176 0.3819637
2174 0.50172806
2172 0.62205273
2170 0.7496832
2168 0.91893262
2166 1.0838436
2164 1.2179297
2162 1.3086112
2160 1.296315
2158 1.2536259
2156 1.1732401
2154 1.1096277
2152 1.0760372
2150 1.0606288
2148 1.0624195
2146 1.0576215
2144 1.0455006
2142 1.022651
2140 0.99280971
2138 0.98068827
2136 0.97859687
2134 1.0096234
2132 1.0542232
2130 1.091684
2128 1.126536
2126 1.1190151
2124 1.1016991
2122 1.0517735
2120 0.99881148
2118 0.9857021
2116 0.98990142
2114 1.0807399
2112 1.1823601
2110 1.2759975
2108 1.3508911
2106 1.3731321
2104 1.3932201
2102 1.4257332
2100 1.460772
2098 1.4971237
2096 1.5179857
2094 1.5182896
2092 1.5058546
2090 1.4833314
2088 1.4223286
2086 1.3307
2084 1.1834986
2082 1.0024263
2080 0.8566618
2078 0.73182499
2076 0.76059902
2074 0.85217351
2072 1.0242
2070 1.2202048
2068 1.3642098
2066 1.493055
2064 1.5211915
2062 1.5178527
2060 1.3909385
2058 1.245548
2056 1.13226
2054 1.0650986
2052 1.1411872
2050 1.2386138
2048 1.3182017
2046 1.3399965
2044 1.256438
2042 1.1549424
2040 1.0569286
2038 1.000843
2036 0.99434972
2034 0.99477494
2032 0.99308038
2030 0.96873832
2028 0.92699301
2026 0.91381508
2024 0.92085576
2022 0.98939872
2020 1.0884548
2018 1.1491119
2016 1.19182
2014 1.1611096
2012 1.1060222
2010 1.0937043
2008 1.0934206
2006 1.0995049
2004 1.0984883
2002 1.0357059
2000 0.95725769
1998 0.87952048
1996 0.81539929
1994 0.7922008
1992 0.8007884
1990 0.85748565
1988 0.94836962
1986 1.0777835
1984 1.1846601
1982 1.2473801
1980 1.2279189
1978 1.1272937
1976 1.0261114
1974 0.94093692
1972 0.96997505
1970 1.0840518
1968 1.1960783
1966 1.2968407
1964 1.2328529
1962 1.0827292
1960 0.91090357
1958 0.73442149
1956 0.66100085
1954 0.62623143
1952 0.63853568
1950 0.66580582
1948 0.69867712
1946 0.72346503
1944 0.69524664
1942 0.64925522
1940 0.59689844
1938 0.56584954
1936 0.59518856
1934 0.63075238
1932 0.64321417
1930 0.60077757
1928 0.48174724
1926 0.39855149
1924 0.39031288
1922 0.58022124
1920 0.96253252
1918 1.3301879
1916 1.6418529
1914 1.7076391
1912 1.5958457
1910 1.4180409
1908 1.2197998
1906 1.0180922
1904 0.81609803
1902 0.63935953
1900 0.4742094
1898 0.49559852
1896 0.59852141
1894 0.81291407
1892 1.057541
1890 1.212255
1888 1.2865257
1886 1.1621907
1884 0.93335122
1882 0.61117554
1880 0.29386857
1878 0.066947863
1876 -0.055848863
1874 -0.043036491
1872 0.084022686
1870 0.31636909
1868 0.55813706
1866 0.76929587
1864 0.81946301
1862 0.70771581
1860 0.5116086
1858 0.27789098
1856 0.088977948
1854 -0.058069833
1852 -0.15518408
1850 -0.22355276
1848 -0.2182592
1846 -0.17175643
1844 -0.12263889
1842 -0.076974772
1840 -0.12494143
1838 -0.21580209
1836 -0.29041642
1834 -0.33710921
1832 -0.27323681
1830 -0.12376353
1828 0.15444013
1826 0.45286071
1824 0.65325403
1822 0.68813086
1820 0.45753741
1818 0.097037531
1816 -0.3075496
1814 -0.63791305
1812 -0.83738035
1810 -0.89124835
1808 -0.82110512
1806 -0.62962353
1804 -0.3500607
1802 -0.10244198
1800 0.095249087
1798 0.1294539
1796 0.041485846
1794 0.0066118529
1792 0.023729786
1790 0.19584356
1788 0.46036834
1786 0.63264942
1784 0.74106908
1782 0.75173283
1780 0.7189346
1778 0.7576434
1776 0.85315543
1774 1.0288601
1772 1.1928948
1770 1.188412
1768 1.0422344
1766 0.7477982
1764 0.42950317
1762 0.20043388
1760 0.048821941
1758 -0.20636895
1756 -0.46996886
1754 -0.63251638
1752 -0.57772601
1750 -0.29953301
1748 0.085097417
1746 0.50965035
1744 0.72742665
1742 0.73693985
1740 0.71199262
1738 0.69507945
1736 0.96143603
1734 1.4455982
1732 1.7493768
1730 1.8898197
1728 1.5063789
1726 0.79318309
1724 0.20738962
1722 -0.17892325
1720 0.073687434
1718 0.89676088
1716 2.3303628
1714 3.921519
1712 4.9912148
1710 5.6192822
1708 5.8791561
1706 6.2098484
1704 7.023912
1702 8.6447811
1700 11.220863
1698 14.593833
1696 18.541857
1694 22.16638
1692 25.132511
1690 27.698784
1688 30.043316
1686 33.058449
1684 36.806515
1682 41.224876
1680 46.13456
1678 50.384014
1676 54.023289
1674 57.673698
1672 61.414188
1670 65.792648
1668 70.651253
1666 75.505348
1664 80.305496
1662 84.891785
1660 89.213737
1658 93.14241
1656 96.634972
1654 99.632683
1652 102.068
1650 103.89863
1648 104.63223
1646 103.89928
1644 102.03252
1642 99.427254
1640 96.436111
1638 93.328438
1636 89.795616
1634 85.760437
1632 81.550865
1630 77.303497
1628 73.213852
1626 69.307289
1624 65.164642
1622 60.753544
1620 56.331779
1618 51.933468
1616 47.757599
1614 43.823883
1612 40.241886
1610 37.041271
1608 34.286869
1606 31.968508
1604 29.976965
1602 28.317776
1600 26.942102
1598 25.835531
1596 24.931999
1594 24.213938
1592 23.630463
1590 23.202473
1588 22.929647
1586 22.853628
1584 22.986149
1582 23.31209
1580 23.806202
1578 24.467484
1576 25.284714
1574 26.229204
1572 27.283554
1570 28.30891
1568 29.274321
1566 30.176435
1564 31.022526
1562 32.202503
1560 33.825874
1558 36.358883
1556 39.769485
1554 42.950428
1552 45.727291
1550 47.658176
1548 48.843765
1546 49.949574
1544 50.944233
1542 51.795837
1540 52.256359
1538 51.988827
1536 51.104828
1534 49.859035
1532 48.501419
1530 47.312424
1528 46.194336
1526 45.065601
1524 43.760723
1522 42.173485
1520 40.320469
1518 38.190014
1516 36.10487
1514 34.174549
1512 32.265598
1510 30.358767
1508 27.990871
1506 25.029236
1504 22.090361
1502 19.249613
1500 16.951277
1498 15.26017
1496 13.621858
1494 12.01833
1492 10.33917
1490 8.5916452
1488 6.8409243
1486 5.1262484
1484 3.5214739
1482 2.1190152
1480 1.0304863
1478 0.31676802
1476 0.054287042
1474 0.29422262
1472 0.95925248
1470 1.7311411
1468 2.4045827
1466 2.9591365
1464 3.3679955
1462 3.8517156
1460 4.5291486
1458 5.3295851
1456 6.2674599
1454 6.9343076
1452 7.1479893
1450 7.1054339
1448 6.712553
1446 6.2943034
1444 5.8448224
1442 5.4073029
1440 4.997963
1438 4.6509161
1436 4.3717699
1434 4.0934839
1432 3.8038907
1430 3.4720292
1428 3.1362081
1426 2.8934171
1424 2.7812634
1422 2.8380144
1420 3.0410533
1418 3.3469455
1416 3.6721315
1414 3.9243331
1412 4.1235771
1410 4.2780099
1408 4.4687977
1406 4.7615428
1404 5.1093869
1402 5.5157709
1400 5.8935437
1398 6.2012415
1396 6.4559784
1394 6.6204209
1392 6.7348247
1390 6.753653
1388 6.6696091
1386 6.4207702
1384 6.0728302
1382 5.6007361
1380 5.129756
1378 4.6650863
1376 4.2169914
1374 3.78771
1372 3.3630199
1370 2.9568925
1368 2.5959046
1366 2.2607808
1364 1.9140635
1362 1.556941
1360 1.1888252
1358 0.8525427
1356 0.60697013
1354 0.41040659
1352 0.25330892
1350 0.10445191
1348 -0.044347659
1346 -0.13511965
1344 -0.122998
1342 -0.029797494
1340 0.21568018
1338 0.46324033
1336 0.69687831
1334 0.85455853
1332 0.87148207
1330 0.8532722
1328 0.79059714
1326 0.77553004
1324 0.8525691
1322 1.0561471
1320 1.4213897
1318 1.8608903
1316 2.33974
1314 2.7062058
1312 2.9429452
1310 3.051831
1308 3.0685709
1306 3.0657465
1304 3.0525863
1302 3.0406101
1300 3.0258453
1298 3.0005739
1296 2.9603143
1294 2.8872149
1292 2.8103657
1290 2.7430539
1288 2.7063401
1286 2.7463472
1284 2.7986386
1282 2.8679626
1280 2.921576
1278 2.9410663
1276 2.9607999
1274 2.986603
1272 3.0433612
1270 3.1579733
1268 3.3203654
1266 3.5484622
1264 3.7905593
1262 4.0415006
1260 4.2669458
1258 4.4749112
1256 4.7067885
1254 4.9823256
1252 5.3517594
1250 5.7901716
1248 6.2672853
1246 6.7459249
1244 7.1638594
1242 7.5460939
1240 7.8851962
1238 8.2119865
1236 8.5376225
1234 8.8251257
1232 8.9900961
1230 9.0577984
1228 8.8497849
1226 8.5650091
1224 8.0828609
1222 7.5905061
1220 7.076241
1218 6.574192
1216 6.0933571
1214 5.6003985
1212 5.0895176
1210 4.5856891
1208 4.1013813
1206 3.66921
1204 3.298604
1202 2.9536669
1200 2.6265206
1198 2.2773564
1196 1.9065714
1194 1.5106795
1192 1.1005726
1190 0.6904977
1188 0.28891432
1186 -0.077639073
1184 -0.4096415
1182 -0.64697111
1180 -0.82523644
1178 -0.85015774
1176 -0.82430798
1174 -0.67747039
1172 -0.51952744
1170 -0.34732798
1168 -0.20000623
1166 -0.13003667
1164 -0.083427072
1162 -0.089057878
1160 -0.066221572
1158 0.018484958
1156 0.14961243
1154 0.34969753
1152 0.52686685
1150 0.65996629
1148 0.70555979
1146 0.6502707
1144 0.53372455
1142 0.36687875
1140 0.20180379
1138 0.046343841
1136 -0.065845311
1134 -0.13647245
1132 -0.06283778
1130 0.092694193
1128 0.3886995
1126 0.73975194
1124 1.1788489
1122 1.6350642
1120 2.099544
1118 2.5343485
1116 2.8059928
1114 3.0410061
1112 3.1356902
1110 3.2430851
1108 3.3898389
1106 3.53514
1104 3.6701639
1102 3.7508597
1100 3.7268224
1098 3.6920125
1096 3.6525428
1094 3.7002528
1092 3.8736861
1090 4.1962295
1088 4.6744571
1086 5.241787
1084 5.8629413
1082 6.3868976
1080 6.8245444
1078 7.0565519
1076 7.1724901
1074 7.1160712
1072 6.9867997
1070 6.7375975
1068 6.4641905
1066 6.2067509
1064 5.980588
1062 5.9701047
1060 6.0045066
1058 6.2608533
1056 6.541594
1054 6.9277081
1052 7.3133669
1050 7.6935792
1048 8.0289631
1046 8.253211
1044 8.4304199
1042 8.5196314
1040 8.5918159
1038 8.6354303
1036 8.6374102
1034 8.5848465
1032 8.4543295
1030 8.2498541
1028 7.990963
1026 7.6872029
1024 7.302278
1022 6.8581228
1020 6.2370768
1018 5.5465508
1016 4.8408833
1014 4.160243
1012 3.7995794
1010 3.5178416
1008 3.5154719
1006 3.5302448
1004 3.4726539
1002 3.3894458
1000 3.1349669
998 2.8701997
996 2.5594788
994 2.232482
992 1.852988
990 1.4307945
988 0.91399205
986 0.43465656
984 0.029536217
982 -0.22289519
980 -0.26816121
978 -0.24534461
976 -0.15562057
974 -0.11970997
972 -0.12527925
970 -0.10850293
968 -0.07164374
966 0.087812006
964 0.30444783
962 0.55890572
960 0.81802601
958 0.91991913
956 0.98176968
954 0.89899224
952 0.79577756
950 0.62055063
948 0.43960917
946 0.21922243
944 0.021948755
942 -0.0013169795
940 -0.03697871
938 0.062686533
936 0.19999057
934 0.44959623
932 0.78034306
930 1.2829871
928 1.7541366
926 2.1728842
924 2.4864261
922 2.6725936
920 2.8659353
918 3.0655746
916 3.2352242
914 3.3830342
912 3.4785793
910 3.5484641
908 3.7950983
906 4.1118608
904 4.7639346
902 5.504107
900 6.2746181
898 7.0490961
896 7.256
