##TITLE=Methyl Ethyl Ketone
##JCAMP-DX=4.24
##DATA TYPE=INFRARED SPECTRUM
##XUNITS=cm-1
##YUNITS=Absorbance
##FIRSTX=900
##LASTX=2300
##XYDATA=(X++(Y..Y))
2296 0.02234
2294 0.022804335
2292 0.023269668
2290 0.023734007
2288 0.024198342
2286 0.024663672
2284 0.025128014
2282 0.02559334
2280 0.026057687
2278 0.026522022
2276 0.026987342
2274 0.027454646
2272 0.027917063
2270 0.028373513
2268 0.028846519
2266 0.029341372
2264 0.02977608
2262 0.030127501
2260 0.03070206
2258 0.031591598
2256 0.031647086
2254 0.030531529
2252 0.032513566
2250 0.038863495
2248 0.033700868
2246 0.0080968281
2244 0.00026577944
2242 0.04521887
2240 0.11185892
2238 0.15561561
2236 0.15328385
2234 0.093794107
2232 -0.0099727772
2230 -0.13747139
2228 -0.26458076
2226 -0.36680499
2224 -0.42195407
2222 -0.41521749
2220 -0.35886449
2218 -0.27599061
2216 -0.201198
2214 -0.1601119
2212 -0.12847319
2210 -0.069321804
2208 0.044659369
2206 0.22174197
2204 0.40569162
2202 0.52924913
2200 0.56051844
2198 0.49398661
2196 0.38578787
2194 0.30239058
2192 0.27503896
2190 0.3132399
2188 0.38449687
2186 0.44762188
2184 0.47952199
2182 0.46698913
2180 0.4125399
2178 0.32624143
2176 0.22873771
2174 0.14271627
2172 0.085406557
2170 0.068030849
2168 0.084896192
2166 0.12795854
2164 0.20238192
2162 0.31370997
2160 0.450488
2158 0.5929243
2156 0.71117699
2154 0.7784614
2152 0.79402649
2150 0.76570159
2148 0.69934916
2146 0.60341895
2144 0.50072432
2142 0.4179807
2140 0.37708923
2138 0.38966843
2136 0.432576
2134 0.47366244
2132 0.4942944
2130 0.48395541
2128 0.44400001
2126 0.38190129
2124 0.31341186
2122 0.25690457
2120 0.22963171
2118 0.24307354
2116 0.28682673
2114 0.3466177
2112 0.42562833
2110 0.53113139
2108 0.65907592
2106 0.7957859
2104 0.90628076
2102 0.95574063
2100 0.94282556
2098 0.88205391
2096 0.79918569
2094 0.7200774
2092 0.65487748
2090 0.60668743
2088 0.57517493
2086 0.557199
2084 0.54242635
2082 0.5207696
2080 0.49487394
2078 0.47486678
2076 0.48047656
2074 0.52973694
2072 0.61834359
2070 0.72882199
2068 0.82692462
2066 0.87601066
2064 0.85624659
2062 0.76420963
2060 0.63490462
2058 0.51633012
2056 0.44565827
2054 0.44407451
2052 0.48802012
2050 0.53624314
2048 0.55141854
2046 0.50747967
2044 0.41483921
2042 0.3012
2040 0.20195383
2038 0.14937165
2036 0.15201758
2034 0.20349406
2032 0.27816257
2030 0.34550759
2028 0.3875165
2026 0.39851922
2024 0.39971977
2022 0.41798902
2020 0.45486346
2018 0.49695483
2016 0.518682
2014 0.50015908
2012 0.46614417
2010 0.45697233
2008 0.49143651
2006 0.57071334
2004 0.66850358
2002 0.75036484
2000 0.79841036
1998 0.80484045
1996 0.76881862
1994 0.69425821
1992 0.59369332
1990 0.48544925
1988 0.3960076
1986 0.35008094
1984 0.34930536
1982 0.38177454
1980 0.42614293
1978 0.46232343
1976 0.49206543
1974 0.5273279
1972 0.57718766
1970 0.64286739
1968 0.7010448
1966 0.72249055
1964 0.70412326
1962 0.66016579
1960 0.61932439
1958 0.60786188
1956 0.61431772
1954 0.61021912
1952 0.57814449
1950 0.51417935
1948 0.44217443
1946 0.396265
1944 0.39562342
1942 0.4440186
1940 0.51666594
1938 0.57700664
1936 0.5990454
1934 0.56836671
1932 0.4919278
1930 0.38753569
1928 0.27339679
1926 0.16845007
1924 0.097668663
1922 0.083379537
1920 0.12211535
1918 0.1947974
1916 0.27632299
1914 0.34426004
1912 0.39684114
1910 0.44029784
1908 0.46530804
1906 0.45555478
1904 0.40609759
1902 0.32617751
1900 0.25584799
1898 0.24738479
1896 0.33375856
1894 0.52058184
1892 0.74793714
1890 0.92307782
1888 0.96796107
1886 0.83780217
1884 0.58221096
1882 0.29892462
1880 0.062013052
1878 -0.085828692
1876 -0.157363
1874 -0.19039716
1872 -0.19754171
1870 -0.17382398
1868 -0.11541601
1866 -0.027413838
1864 0.056188501
1862 0.09099225
1860 0.062161397
1858 -0.021964438
1856 -0.13694197
1854 -0.25415128
1852 -0.36113694
1850 -0.45933715
1848 -0.56437999
1846 -0.69141394
1844 -0.8194297
1842 -0.9049899
1840 -0.90845686
1838 -0.80402374
1836 -0.60607243
1834 -0.3529461
1832 -0.079188593
1830 0.18440714
1828 0.40102589
1826 0.53479296
1824 0.57392919
1822 0.52813524
1820 0.43185979
1818 0.32953116
1816 0.24652457
1814 0.19078992
1812 0.15515824
1810 0.12716079
1808 0.10796434
1806 0.1030375
1804 0.092083648
1802 0.039887831
1800 -0.073148444
1798 -0.23862645
1796 -0.3786357
1794 -0.38794881
1792 -0.243604
1790 0.004809849
1788 0.25747889
1786 0.40599051
1784 0.42503273
1782 0.35288018
1780 0.2410064
1778 0.14102751
1776 0.098218344
1774 0.14298284
1772 0.25882912
1770 0.39235342
1768 0.46959829
1766 0.42697278
1764 0.2960712
1762 0.16289213
1760 0.044625826
1758 -0.090491533
1756 -0.2291123
1754 -0.32593724
1752 -0.3755776
1750 -0.40583259
1748 -0.43786523
1746 -0.48149252
1744 -0.53864628
1742 -0.60138458
1740 -0.63678735
1738 -0.60105079
1736 -0.48338401
1734 -0.30877441
1732 -0.14169624
1730 -0.060239974
1728 -0.085188225
1726 -0.18040986
1724 -0.26503205
1722 -0.22835511
1720 0.051932275
1718 0.66815847
1716 1.5491345
1714 2.502821
1712 3.3697891
1710 4.0728788
1708 4.7115397
1706 5.519978
1704 6.7439365
1702 8.6056423
1700 11.269107
1698 14.770657
1696 18.758429
1694 22.627701
1692 26.012863
1690 28.875063
1688 31.575888
1686 34.733971
1684 38.821442
1682 44.000862
1680 49.749439
1678 55.147308
1676 59.966457
1674 64.642303
1672 69.602112
1670 75.042229
1668 80.611549
1666 85.585098
1664 89.572815
1662 92.573891
1660 94.73484
1658 96.252609
1656 97.263741
1654 97.825539
1652 97.923416
1650 97.500923
1648 96.541206
1646 95.097466
1644 93.346916
1642 91.527122
1640 89.679665
1638 87.650726
1636 85.261185
1634 82.373978
1632 79.005623
1630 75.289352
1628 71.264229
1626 66.868515
1624 62.091881
1622 57.018501
1620 51.858883
1618 46.912399
1616 42.400459
1614 38.435635
1612 35.056595
1610 32.235359
1608 29.876417
1606 27.84185
1604 26.048882
1602 24.487803
1600 23.192715
1598 22.221361
1596 21.592999
1594 21.278738
1592 21.226818
1590 21.37698
1588 21.698174
1586 22.188871
1584 22.844675
1582 23.660019
1580 24.671551
1578 25.962229
1576 27.629
1574 29.75021
1572 32.284958
1570 35.071663
1568 37.93092
1566 40.705708
1564 43.308197
1562 45.752151
1560 48.236988
1558 51.058197
1556 54.110085
1554 56.856339
1552 58.852695
1550 59.907185
1548 60.131649
1546 59.866428
1544 59.229073
1542 58.047863
1540 56.174801
1538 53.607677
1536 50.618286
1534 47.708546
1532 45.179417
1530 43.031136
1528 41.142979
1526 39.331951
1524 37.430202
1522 35.326508
1520 33.039574
1518 30.72625
1516 28.555471
1514 26.63941
1512 24.8902
1510 23.021383
1508 20.83654
1506 18.330078
1504 15.703977
1502 13.322148
1500 11.370943
1498 9.7704458
1496 8.367486
1494 7.0054364
1492 5.6221857
1490 4.27141
1488 3.0184903
1486 1.9129586
1484 1.0011042
1482 0.32593271
1480 -0.087811828
1478 -0.2259486
1476 -0.016415
1474 0.66396236
1472 1.8168937
1470 3.275492
1468 4.8430991
1466 6.3471584
1464 7.7046914
1462 8.9426451
1460 10.112122
1458 11.252819
1456 12.3358
1454 13.247907
1452 13.874403
1450 14.134123
1448 14.025927
1446 13.643429
1444 13.091532
1442 12.454041
1440 11.775446
1438 11.049223
1436 10.247319
1434 9.3376093
1432 8.343091
1430 7.3596015
1428 6.4803319
1426 5.7677021
1424 5.2514529
1422 4.9240708
1420 4.7667179
1418 4.7556982
1416 4.8632798
1414 5.0598879
1412 5.3277788
1410 5.6656055
1408 6.0681658
1406 6.5162759
1404 6.9686022
1402 7.357079
1400 7.6115203
1398 7.6740732
1396 7.5276861
1394 7.2135057
1392 6.7995515
1390 6.3694992
1388 5.9808888
1386 5.6460652
1384 5.3605108
1382 5.1076694
1380 4.8592772
1378 4.5751352
1376 4.2205114
1374 3.7777858
1372 3.2590041
1370 2.7122171
1368 2.1742201
1366 1.6519806
1364 1.146616
1362 0.66351718
1360 0.23061703
1358 -0.094637617
1356 -0.27158529
1354 -0.2952759
1352 -0.16324458
1350 0.13129357
1348 0.57064748
1346 1.0981343
1344 1.657572
1342 2.2095029
1340 2.7298028
1338 3.2092772
1336 3.6196542
1334 3.8992007
1332 3.9948792
1330 3.8863211
1328 3.5933201
1326 3.1890659
1324 2.7549446
1322 2.3611732
1320 2.049768
1318 1.8184085
1316 1.64619
1314 1.4994475
1312 1.3521966
1310 1.196155
1308 1.0277641
1306 0.84553683
1304 0.65326285
1302 0.46535921
1300 0.31004766
1298 0.2344591
1296 0.28400284
1294 0.49073082
1292 0.86621755
1290 1.389372
1288 2.0194201
1286 2.693923
1284 3.3473873
1282 3.9201832
1280 4.3692551
1278 4.6816278
1276 4.8682313
1274 4.9706631
1272 5.0370646
1270 5.1127362
1268 5.2306309
1266 5.40275
1264 5.6394696
1262 5.9572954
1260 6.378448
1258 6.9316602
1256 7.6354284
1254 8.4847336
1252 9.4580269
1250 10.513626
1248 11.6126
1246 12.7325
1244 13.853909
1242 14.955442
1240 15.992708
1238 16.880131
1236 17.526756
1234 17.856314
1232 17.818439
1230 17.414965
1228 16.668125
1226 15.630014
1224 14.368749
1222 12.972987
1220 11.545703
1218 10.203447
1216 9.0511284
1214 8.1602125
1212 7.5746832
1210 7.2954907
1208 7.2903361
1206 7.476738
1204 7.74365
1202 7.9485369
1200 7.9675384
1198 7.7360854
1196 7.2376499
1194 6.5277519
1192 5.6834106
1190 4.7896223
1188 3.9265809
1186 3.1581993
1184 2.5297179
1182 2.0540237
1180 1.7277092
1178 1.5283746
1176 1.42706
1174 1.3904887
1172 1.3862112
1170 1.3869973
1168 1.3772217
1166 1.3640801
1164 1.3577403
1162 1.3619369
1160 1.3733708
1158 1.3770238
1156 1.3555385
1154 1.2927288
1152 1.1759102
1150 1.0009823
1148 0.77659822
1146 0.53642356
1144 0.31971395
1142 0.16166517
1140 0.07239195
1138 0.0074344985
1136 -0.073493034
1134 -0.16910172
1132 -0.25955561
1130 -0.30562165
1128 -0.27371258
1126 -0.15729342
1124 0.023007393
1122 0.19808364
1120 0.3015328
1118 0.30495721
1116 0.21729714
1114 0.11555068
1112 0.07940568
1110 0.15255114
1108 0.34833425
1106 0.62573701
1104 0.92977458
1102 1.2052714
1100 1.4177005
1098 1.5858971
1096 1.7512571
1094 1.9779379
1092 2.317256
1090 2.7706208
1088 3.3135629
1086 3.8852766
1084 4.4205818
1082 4.8666072
1080 5.1811781
1078 5.343277
1076 5.3490314
1074 5.2269735
1072 5.0168962
1070 4.7675281
1068 4.5214114
1066 4.299192
1064 4.115128
1062 3.981606
1060 3.9050748
1058 3.8774977
1056 3.8825572
1054 3.8910472
1052 3.8760967
1050 3.8258741
1048 3.7352829
1046 3.6081321
1044 3.4586425
1042 3.3252172
1040 3.254205
1038 3.295053
1036 3.4756701
1034 3.7567387
1032 4.0631728
1030 4.265471
1028 4.2522221
1026 4.0052471
1024 3.5604656
1022 3.044719
1020 2.5842612
1018 2.2363501
1016 2.0257428
1014 1.9276967
1012 1.8989424
1010 1.8757395
1008 1.794412
1006 1.6087736
1004 1.3040605
1002 0.9477883
1000 0.61347234
998 0.32810137
996 0.097758926
994 -0.10123526
992 -0.29029927
990 -0.46025243
988 -0.5949325
986 -0.68003577
984 -0.70598376
982 -0.67686969
980 -0.60011238
978 -0.48282886
976 -0.33211285
974 -0.15559314
972 0.032869115
970 0.19921976
968 0.31142262
966 0.36140952
964 0.3557618
962 0.33031186
960 0.31795689
958 0.31651953
956 0.31283313
954 0.28591189
952 0.22110319
950 0.13288313
948 0.048268899
946 0.01294414
944 0.073465213
942 0.2623567
940 0.58828187
938 0.986848
936 1.3871114
934 1.7606208
932 2.1040087
930 2.4669633
928 2.8893688
926 3.3281465
924 3.714324
922 3.9614806
920 4.0119834
918 3.9348187
916 3.8288801
914 3.7873085
912 3.8827138
910 4.1121979
908 4.4521818
906 4.8697333
904 5.3215499
902 5.731698
900 6.0337677
898 6.2321672
896 6.349
