##TITLE=Methyl Ethyl Ketone
##JCAMP-DX=4.24
##DATA TYPE=INFRARED SPECTRUM
##XUNITS=cm-1
##YUNITS=Absorbance
##FIRSTX=900
##LASTX=2300
##XYDATA=(X++(Y..Y))
2296 -0.027082
2294 -0.027645193
2292 -0.028208388
2290 -0.028771583
2288 -0.029335773
2286 -0.029898971
2284 -0.030462166
2282 -0.031025359
2280 -0.031588554
2278 -0.032152735
2276 -0.032715943
2274 -0.033279136
2272 -0.033842333
2270 -0.034405526
2268 -0.034968719
2266 -0.035532892
2264 -0.036096107
2262 -0.0366593
2260 -0.037222497
2258 -0.037785694
2256 -0.038349859
2254 -0.038913079
2252 -0.039476275
2250 -0.040039469
2248 -0.04060363
2246 -0.041166857
2244 0.033651073
2242 0.001409323
2240 -0.042981118
2238 -0.17561509
2236 -0.321367
2234 -0.41110253
2232 -0.49331686
2230 -0.49806097
2228 -0.49634984
2226 -0.47334602
2224 -0.45250458
2222 -0.44708315
2220 -0.44366241
2218 -0.44416931
2216 -0.45131916
2214 -0.47245201
2212 -0.50475997
2210 -0.55389386
2208 -0.59650868
2206 -0.62967366
2204 -0.6521374
2202 -0.66476429
2200 -0.66353017
2198 -0.65236878
2196 -0.62645
2194 -0.59248722
2192 -0.53431606
2190 -0.46580625
2188 -0.34538743
2186 -0.20828958
2184 -0.1035754
2182 -0.0065268641
2180 -0.027963487
2178 -0.067069329
2176 -0.11029243
2174 -0.14757751
2172 -0.11379423
2170 -0.07684122
2168 -0.060680263
2166 -0.060880974
2164 -0.11366143
2162 -0.15918177
2160 -0.17261109
2158 -0.1555534
2156 -0.086679399
2154 -0.021588266
2152 0.030259805
2150 0.056689117
2148 0.0559997
2146 0.041584034
2144 0.01749116
2142 -0.01198161
2140 -0.04463296
2138 -0.061997183
2136 -0.070794486
2134 -0.053391442
2132 -0.024965722
2130 0.031475957
2128 0.096618876
2126 0.1456735
2124 0.19067355
2122 0.15175501
2120 0.099620812
2118 0.050259255
2116 0.0091479812
2114 0.027680738
2112 0.046682179
2110 0.03042959
2108 -0.00048606284
2106 -0.060243268
2104 -0.098605439
2102 -0.080761768
2100 -0.04174228
2098 0.018653333
2096 0.057549287
2094 0.063740268
2092 0.046492651
2090 0.0098881833
2088 -0.033163942
2086 -0.078446098
2084 -0.10803171
2082 -0.12675405
2080 -0.12216068
2078 -0.10649558
2076 -0.078212813
2074 -0.045415111
2072 0.024875961
2070 0.10685288
2068 0.20603202
2066 0.3065505
2064 0.32609183
2062 0.32101157
2060 0.23787451
2058 0.1395033
2056 0.042360399
2054 -0.040572807
2052 -0.076768525
2050 -0.079761237
2048 -0.02497681
2046 0.041260321
2044 0.10569714
2042 0.11313896
2040 0.03832515
2038 -0.070241064
2036 -0.19648038
2034 -0.24542782
2032 -0.21698263
2030 -0.12913349
2028 -0.0077273026
2026 0.11336412
2024 0.22896184
2022 0.36487341
2020 0.51070863
2018 0.60649705
2016 0.68237603
2014 0.61669803
2012 0.50674331
2010 0.3173154
2008 0.11149935
2006 -0.052839685
2004 -0.19368076
2002 -0.252489
2000 -0.28194702
1998 -0.28670821
1996 -0.28984213
1994 -0.31447896
1992 -0.35571188
1990 -0.41078788
1988 -0.4588418
1986 -0.47341916
1984 -0.45788932
1982 -0.41192386
1980 -0.37227961
1978 -0.35394192
1976 -0.31066141
1974 -0.2436519
1972 -0.056768902
1970 0.21541822
1968 0.48095611
1966 0.73285311
1964 0.7479915
1962 0.64328796
1960 0.40825802
1958 0.12436448
1956 -0.079556167
1954 -0.24834552
1952 -0.31886479
1950 -0.35035005
1948 -0.35812122
1946 -0.36993998
1944 -0.4342272
1942 -0.52895033
1940 -0.62765998
1938 -0.71164024
1936 -0.74323827
1934 -0.75681597
1932 -0.7819286
1930 -0.82358122
1928 -0.90299487
1926 -0.94312477
1924 -0.92836469
1922 -0.79712117
1920 -0.54672921
1918 -0.2875168
1916 -0.030292515
1914 0.12772727
1912 0.20934525
1910 0.21940726
1908 0.18792738
1906 0.068126976
1904 -0.093770713
1902 -0.28026867
1900 -0.47130278
1898 -0.52816767
1896 -0.51809573
1894 -0.35419652
1892 -0.14292352
1890 0.0068067312
1888 0.071317732
1886 -0.10223351
1884 -0.38592893
1882 -0.7292909
1880 -1.0299234
1878 -1.193397
1876 -1.22746
1874 -1.1375431
1872 -0.95404065
1870 -0.7072466
1868 -0.520639
1866 -0.40133095
1864 -0.4438028
1862 -0.60731298
1860 -0.79679006
1858 -0.99323177
1856 -1.1431972
1854 -1.2694516
1852 -1.3023032
1850 -1.288129
1848 -1.179096
1846 -1.0337411
1844 -1.0567461
1842 -1.1849109
1840 -1.4656211
1838 -1.7870802
1836 -1.9280828
1834 -1.923614
1832 -1.679204
1830 -1.3129209
1828 -0.86800402
1826 -0.50047195
1824 -0.36849064
1822 -0.44461027
1820 -0.76098979
1818 -1.1106896
1816 -1.3898028
1814 -1.5118759
1812 -1.4601111
1810 -1.3413053
1808 -1.203208
1806 -1.0968
1804 -1.026294
1802 -0.93895447
1800 -0.84106189
1798 -0.71176898
1796 -0.56351501
1794 -0.45617133
1792 -0.36252362
1790 -0.36719301
1788 -0.41109306
1786 -0.41926664
1784 -0.38629445
1782 -0.26332486
1780 -0.069569625
1778 0.20147818
1776 0.52037972
1774 0.86176717
1772 1.1207613
1770 1.1642504
1768 1.0149139
1766 0.69251013
1764 0.385575
1762 0.22101963
1760 0.06866926
1758 -0.058375873
1756 -0.047806084
1754 0.096993782
1752 0.52355587
1750 1.2174134
1748 1.9154274
1746 2.5434358
1744 2.6790085
1742 2.3972871
1740 2.0484085
1738 1.7052723
1736 1.72496
1734 1.9996921
1732 2.0624082
1730 1.9497188
1728 1.3677886
1726 0.53755593
1724 -0.048273057
1722 -0.3265107
1720 0.092523903
1718 1.0676153
1716 2.5216944
1714 3.9658594
1712 4.7721
1710 5.1799417
1708 5.3831239
1706 5.8325558
1704 6.8778043
1702 8.7110405
1700 11.402233
1698 14.621519
1696 18.193428
1694 21.49873
1692 24.304359
1690 27.019911
1688 29.742256
1686 33.279099
1684 37.633041
1682 42.360229
1680 47.32864
1678 51.318283
1676 54.469299
1674 57.677185
1672 61.010811
1670 65.117325
1668 69.788757
1666 74.463898
1664 79.085526
1662 83.377518
1660 87.361198
1658 90.9991
1656 94.371483
1654 97.572845
1652 100.43088
1650 102.791
1648 103.72777
1646 102.62857
1644 100.15218
1642 96.915619
1640 93.497719
1638 90.208313
1636 86.617027
1634 82.600464
1632 78.366814
1630 74.037453
1628 69.894783
1626 65.950218
1624 61.878799
1622 57.637478
1620 53.389519
1618 49.155182
1616 45.013657
1614 41.008907
1612 37.356136
1610 34.108479
1608 31.359194
1606 29.071171
1604 27.061129
1602 25.335962
1600 23.871805
1598 22.706512
1596 21.845501
1594 21.248232
1592 20.831417
1590 20.508398
1588 20.188795
1586 19.9265
1584 19.741371
1582 19.77956
1580 20.091124
1578 20.817499
1576 21.999172
1574 23.470179
1572 25.19783
1570 26.764744
1568 28.09152
1566 29.230337
1564 30.183828
1562 31.410755
1560 33.030205
1558 35.737656
1556 39.467972
1554 43.135429
1552 46.556938
1550 48.944859
1548 50.479855
1546 51.931534
1544 53.324921
1542 54.767303
1540 55.813999
1538 56.017853
1536 55.364914
1534 53.969612
1532 52.390182
1530 51.05204
1528 50.010693
1526 49.300598
1524 48.630924
1522 47.865662
1520 46.464977
1518 44.239376
1516 41.768585
1514 39.198627
1512 36.98872
1510 35.193779
1508 32.940399
1506 30.021343
1504 26.759148
1502 23.217375
1500 20.247849
1498 17.957121
1496 15.905
1494 14.087132
1492 12.328623
1490 10.571582
1488 8.7084789
1486 6.739007
1484 4.7045937
1482 2.83447
1480 1.3803787
1478 0.43838599
1476 0.069565289
1474 0.21307969
1472 0.89099962
1470 1.6471009
1468 2.1580026
1466 2.5392056
1464 2.7514486
1462 3.1087215
1460 3.7597144
1458 4.557415
1456 5.5303001
1454 6.1787786
1452 6.3497815
1450 6.2479277
1448 5.7998137
1446 5.3580251
1444 4.9290566
1442 4.583581
1440 4.3352232
1438 4.171298
1436 4.0472984
1434 3.8743048
1432 3.6089385
1430 3.2523348
1428 2.893764
1426 2.6486635
1424 2.5719943
1422 2.6888242
1420 2.9258966
1418 3.2328103
1416 3.5214314
1414 3.7189062
1412 3.9116526
1410 4.0852323
1408 4.304626
1406 4.6000586
1404 4.9358153
1402 5.3555675
1400 5.767312
1398 6.1623735
1396 6.4366713
1394 6.5096035
1392 6.440701
1390 6.1993566
1388 5.9366784
1386 5.6621103
1384 5.4083934
1382 5.1805015
1380 4.9622822
1378 4.7331376
1376 4.4756317
1374 4.1477365
1372 3.784852
1370 3.4037058
1368 3.0424297
1366 2.7188649
1364 2.3889709
1362 2.0269554
1360 1.6211457
1358 1.2013501
1356 0.80893183
1354 0.48110706
1352 0.23280464
1350 0.053297643
1348 -0.033335
1346 -0.068690255
1344 0.047123857
1342 0.22365634
1340 0.4830156
1338 0.68587357
1336 0.77891201
1334 0.75258422
1332 0.59695888
1330 0.45800841
1328 0.37347233
1326 0.39392993
1324 0.54278469
1322 0.80516636
1320 1.1783268
1318 1.5993778
1316 2.0200601
1314 2.3173635
1312 2.4823978
1310 2.4778647
1308 2.3715057
1306 2.2223022
1304 2.0642102
1302 1.934857
1300 1.8204581
1298 1.7361948
1296 1.6605999
1294 1.6046516
1292 1.5559294
1290 1.5254757
1288 1.502892
1286 1.500735
1284 1.5059023
1282 1.5378364
1280 1.5832474
1278 1.6641119
1276 1.7629628
1274 1.885497
1272 2.0197401
1270 2.1631954
1268 2.3126163
1266 2.4788136
1264 2.6578388
1262 2.8645084
1260 3.086776
1258 3.3265188
1256 3.5763228
1254 3.8457258
1252 4.1561942
1250 4.5057096
1248 4.8994379
1246 5.3027997
1244 5.6782317
1242 6.015624
1240 6.270946
1238 6.4729323
1236 6.5708499
1234 6.612124
1232 6.5270443
1230 6.399292
1228 6.1719389
1226 5.9365115
1224 5.6836042
1222 5.4282136
1220 5.1668596
1218 4.8846931
1216 4.5599542
1214 4.2073612
1212 3.8052676
1210 3.3810539
1208 2.9305737
1206 2.4913378
1204 2.0740559
1202 1.6933312
1200 1.3460371
1198 1.0055051
1196 0.66243505
1194 0.29298532
1192 -0.084928989
1190 -0.43511271
1188 -0.74266964
1186 -0.92259419
1184 -1.0353389
1182 -1.0426842
1180 -1.0181143
1178 -0.96536613
1176 -0.90594399
1174 -0.83807331
1172 -0.78098452
1170 -0.76343691
1168 -0.75378937
1166 -0.75874341
1164 -0.72270155
1162 -0.5833109
1160 -0.40412819
1158 -0.15578003
1156 0.050887436
1154 0.18031275
1152 0.24309222
1150 0.21826075
1148 0.1839734
1146 0.14214107
1144 0.11165423
1142 0.089432128
1140 0.054715138
1138 0.014225221
1136 -0.01217661
1134 -0.015825916
1132 0.057066828
1130 0.18094251
1128 0.41607445
1126 0.69474113
1124 1.038985
1122 1.3893222
1120 1.7118319
1118 2.0117531
1116 2.2048674
1114 2.362098
1112 2.3748839
1110 2.3553112
1108 2.2357888
1106 2.1224599
1104 2.0298131
1102 1.9782435
1100 2.0126553
1098 2.1071649
1096 2.3006427
1094 2.5558562
1092 2.885802
1090 3.2145207
1088 3.5388896
1086 3.8370557
1084 4.1187658
1082 4.4279122
1080 4.7420654
1078 4.9862771
1076 5.1617932
1074 5.0740299
1072 4.8814001
1070 4.5450125
1068 4.2122765
1066 4.1287832
1064 4.1239638
1062 4.4603438
1060 4.81076
1058 5.1436648
1056 5.4311318
1054 5.519856
1052 5.588346
1050 5.592978
1048 5.605022
1046 5.6365533
1044 5.6787443
1042 5.7408891
1040 5.7871299
1038 5.806035
1036 5.7676101
1034 5.662991
1032 5.5494318
1030 5.4264846
1028 5.3042502
1026 5.1767063
1024 4.9955096
1022 4.7866569
1020 4.5742168
1018 4.3515177
1016 4.0236344
1014 3.6419713
1012 2.9785643
1010 2.261667
1008 1.4833088
1006 0.72086203
1004 0.20923585
1002 -0.27339223
1000 -0.57118791
998 -0.86330783
996 -1.1304857
994 -1.398891
992 -1.6687818
990 -1.9220223
988 -2.1366272
986 -2.3531845
984 -2.5770342
982 -2.8330901
980 -3.1281581
978 -3.3312197
976 -3.428983
974 -3.3541663
972 -3.1426723
970 -2.9421039
968 -2.7536759
966 -2.6444349
964 -2.5679758
962 -2.4265873
960 -2.2581468
958 -1.9828453
956 -1.6825671
954 -1.3507675
952 -1.0165588
950 -0.72101152
948 -0.42704687
946 -0.14074714
944 0.008707881
942 0.26189101
940 0.50019157
938 0.67171741
936 0.7949217
934 0.77605337
932 0.76834345
930 0.78686064
928 0.90789539
926 1.1916828
924 1.456004
922 1.6941115
920 1.8383976
918 1.8986658
916 2.0948884
914 2.3902245
912 2.8825932
910 3.4754629
908 4.0007453
906 4.4939871
904 4.7994456
902 5.051784
900 5.2343869
898 5.4046535
896 5.6515002
