##TITLE=Methyl Ethyl Ketone
##JCAMP-DX=4.24
##DATA TYPE=INFRARED SPECTRUM
##XUNITS=cm-1
##YUNITS=Absorbance
##FIRSTX=900
##LASTX=2300
##XYDATA=(X++(Y..Y))
2296 0.037537999
2294 0.038318884
2292 0.039100762
2290 0.039881647
2288 0.040662531
2286 0.041443415
2284 0.042224299
2282 0.04300518
2280 0.043786064
2278 0.044566944
2276 0.045347828
2274 0.046128709
2272 0.046909593
2270 0.047690477
2268 0.048471361
2266 0.049252242
2264 0.050033126
2262 0.05081401
2260 0.051594891
2258 0.052375775
2256 0.053156655
2254 0.053938508
2252 0.054719426
2250 0.055500306
2248 0.05628119
2246 0.057062071
2244 0.024571426
2242 0.00089937
2240 -0.0046399683
2238 0.0071439543
2236 0.021425698
2234 0.019485464
2232 0.015629062
2230 -0.0048944531
2228 -0.021443537
2226 0.00026869006
2224 0.033366747
2222 0.10975365
2220 0.18077254
2218 0.22841541
2216 0.25312886
2214 0.23063302
2212 0.2103406
2210 0.19815871
2208 0.2058368
2206 0.23765287
2204 0.25557074
2202 0.25858304
2200 0.2546683
2198 0.2462976
2196 0.2655336
2194 0.30088216
2192 0.32034171
2190 0.33236551
2188 0.31928641
2186 0.2981987
2184 0.3171908
2182 0.34551832
2180 0.40379739
2178 0.46631107
2176 0.517232
2174 0.56694293
2172 0.61526555
2170 0.66042632
2168 0.68831092
2166 0.70240307
2164 0.67246151
2162 0.63397098
2160 0.58482629
2158 0.54870552
2156 0.53931397
2154 0.53873986
2152 0.54693192
2150 0.55012721
2148 0.5466966
2146 0.55129576
2144 0.56363124
2142 0.58844918
2140 0.62143588
2138 0.64165765
2136 0.65444946
2134 0.66120648
2132 0.66562682
2130 0.70523781
2128 0.75611919
2126 0.81549352
2124 0.87669653
2122 0.88043064
2120 0.87368256
2118 0.84191704
2116 0.81057125
2114 0.80864578
2112 0.81275433
2110 0.82448143
2108 0.83417189
2106 0.83440739
2104 0.83534586
2102 0.84104174
2100 0.84733075
2098 0.85347307
2096 0.85493141
2094 0.85040915
2092 0.84265906
2090 0.83248091
2088 0.83082783
2086 0.83627546
2084 0.86988455
2082 0.92134559
2080 0.99040377
2078 1.0676076
2076 1.1249771
2074 1.1737045
2072 1.195496
2070 1.2089337
2068 1.2101629
2066 1.2083285
2064 1.1828046
2062 1.1517316
2060 1.1070902
2058 1.0643229
2056 1.0465114
2054 1.0380964
2052 1.0465434
2050 1.0546997
2048 1.0546834
2046 1.0530858
2044 1.0521441
2042 1.0555199
2040 1.064308
2038 1.0684656
2036 1.0645214
2034 1.055534
2032 1.0431514
2030 1.0327621
2028 1.0251591
2026 1.0090293
2024 0.98763734
2022 0.96781534
2020 0.94954842
2018 0.95118326
2016 0.96060598
2014 0.96928412
2012 0.97661972
2010 0.98201472
2008 0.98704118
2006 1.0010195
2004 1.0126308
2002 0.99398351
2000 0.95984852
1998 0.8955608
1996 0.83069497
1994 0.78931433
1992 0.76744896
1990 0.77294964
1988 0.79085457
1986 0.81421942
1984 0.84193623
1982 0.87402165
1980 0.89501548
1978 0.9042486
1976 0.89001656
1974 0.85750449
1972 0.82019949
1970 0.78287089
1968 0.75073618
1966 0.72174728
1964 0.69520861
1962 0.66852188
1960 0.65963525
1958 0.65812421
1956 0.66839159
1954 0.68151623
1952 0.67349905
1950 0.6549685
1948 0.61664891
1946 0.57427001
1944 0.54102856
1942 0.5181731
1940 0.5084886
1938 0.50190121
1936 0.48966601
1934 0.4651069
1932 0.42394021
1930 0.36364141
1928 0.28527555
1926 0.21687664
1924 0.17102088
1922 0.18353568
1920 0.25007394
1918 0.3347913
1916 0.41928428
1914 0.44400057
1912 0.42365801
1910 0.3514531
1908 0.25281316
1906 0.15343192
1904 0.055107038
1902 0.00095770787
1900 -0.034015372
1898 -0.005890592
1896 0.047422826
1894 0.12098043
1892 0.19590475
1890 0.22006731
1888 0.21324018
1886 0.14910814
1884 0.065302201
1882 -0.015102683
1880 -0.082478181
1878 -0.11862884
1876 -0.142822
1874 -0.15682599
1872 -0.17074606
1870 -0.18485345
1868 -0.19614668
1866 -0.21354435
1864 -0.23846325
1862 -0.27817881
1860 -0.31355998
1858 -0.33807039
1856 -0.34578258
1854 -0.33838862
1852 -0.34366399
1850 -0.35557193
1848 -0.38401639
1846 -0.41708535
1844 -0.43403885
1842 -0.43846574
1840 -0.42996761
1838 -0.41767046
1836 -0.39856514
1834 -0.3765409
1832 -0.33039898
1830 -0.26903
1828 -0.19943954
1826 -0.13345236
1824 -0.10585783
1822 -0.1165852
1820 -0.1737784
1818 -0.25793868
1816 -0.34736943
1814 -0.42089078
1812 -0.46410283
1810 -0.46957684
1808 -0.44385302
1806 -0.397275
1804 -0.33971602
1802 -0.31503308
1800 -0.31906995
1798 -0.36722094
1796 -0.44437358
1794 -0.47343153
1792 -0.470018
1790 -0.40277776
1788 -0.30423924
1786 -0.222188
1784 -0.15545222
1782 -0.10329807
1780 -0.06245932
1778 -0.02496627
1776 0.0098823141
1774 0.042845435
1772 0.077330925
1770 0.096199527
1768 0.10565533
1766 0.09797667
1764 0.080642737
1762 0.073180929
1760 0.027760969
1758 -0.07963033
1756 -0.19343071
1754 -0.2812745
1752 -0.31626201
1750 -0.2918607
1748 -0.2478054
1746 -0.20634036
1744 -0.22410685
1742 -0.30774009
1740 -0.39867327
1738 -0.48088628
1736 -0.44289601
1734 -0.30668703
1732 -0.1297906
1730 0.059674598
1728 0.097960383
1726 0.026662724
1724 -0.04984691
1722 -0.10230336
1720 0.018401608
1718 0.30842978
1716 0.82705027
1714 1.4723204
1712 2.0646179
1710 2.6001663
1708 3.0927141
1706 3.6962686
1704 4.5701475
1702 5.9918828
1700 8.1008062
1698 11.144135
1696 15.087143
1694 19.14526
1692 22.95134
1690 26.369619
1688 29.457325
1686 33.165085
1684 37.582066
1682 42.931221
1680 49.007641
1678 54.297573
1676 58.840698
1674 63.161888
1672 67.406982
1670 72.375771
1668 77.866928
1666 83.185448
1664 88.226166
1662 92.623344
1660 96.378838
1658 99.461876
1656 101.87428
1654 103.63258
1652 104.6426
1650 104.81458
1648 103.87891
1646 101.65857
1644 98.763321
1642 95.764854
1640 92.521919
1638 89.004166
1636 84.715416
1634 79.536865
1632 74.328011
1630 69.378952
1628 64.854134
1626 60.739651
1624 56.503677
1622 52.083618
1620 47.785828
1618 43.636585
1616 39.843716
1614 36.421135
1612 33.457489
1610 30.954659
1608 28.856743
1606 27.143694
1604 25.679157
1602 24.477182
1600 23.521738
1598 22.81912
1596 22.34
1594 22.069782
1592 21.955589
1590 21.974701
1588 22.085627
1586 22.278822
1584 22.541988
1582 22.86348
1580 23.236473
1578 23.709364
1576 24.2966
1574 25.050436
1572 25.970232
1570 26.994904
1568 28.1052
1566 29.2679
1564 30.487499
1562 31.976673
1560 33.837803
1558 36.625866
1556 40.388969
1554 44.344749
1552 48.250656
1550 51.185268
1548 53.173763
1546 54.796108
1544 56.042252
1542 57.011913
1540 57.631279
1538 57.799217
1536 57.497856
1534 56.787159
1532 55.724766
1530 54.45919
1528 52.984173
1526 51.304302
1524 49.363426
1522 47.111687
1520 44.666275
1518 42.040649
1516 39.568844
1514 37.380867
1512 35.292759
1510 33.309261
1508 30.893505
1506 27.909393
1504 24.89044
1502 21.871176
1500 19.264135
1498 17.112492
1496 14.975286
1494 12.861593
1492 10.759704
1490 8.6981211
1488 6.7155118
1486 4.8738914
1484 3.253
1482 1.9144685
1480 0.92013085
1478 0.29205588
1476 0.053367313
1474 0.34408611
1472 1.1580226
1470 2.222496
1468 3.3648901
1466 4.3510847
1464 5.0376682
1462 5.5903144
1460 6.0614758
1458 6.534831
1456 7.0280199
1454 7.4262681
1452 7.6518431
1450 7.7415185
1448 7.6321096
1446 7.4766965
1444 7.2599802
1442 7.0227151
1440 6.7545547
1438 6.427505
1436 6.0177083
1434 5.4872656
1432 4.8475347
1430 4.2027426
1428 3.5927482
1426 3.1232607
1424 2.8078446
1422 2.6434028
1420 2.6206896
1418 2.7000713
1416 2.8504999
1414 3.0367711
1412 3.2352326
1410 3.4544969
1408 3.6966496
1406 3.9796135
1404 4.295723
1402 4.6453037
1400 5.0068121
1398 5.3745794
1396 5.7309284
1394 6.0561571
1392 6.3346906
1390 6.5079517
1388 6.5742068
1386 6.4607401
1384 6.2170939
1382 5.7961526
1380 5.3099313
1378 4.7582068
1376 4.2142687
1374 3.7069018
1372 3.2641101
1370 2.8909109
1368 2.571732
1366 2.2598135
1364 1.8857123
1362 1.4615524
1360 0.99130183
1358 0.55166668
1356 0.23775679
1354 0.033698704
1352 -0.0048664548
1350 0.042714916
1348 0.18033583
1346 0.34063286
1344 0.52271116
1342 0.70701265
1340 0.89481008
1338 1.0906217
1336 1.2963743
1334 1.5030289
1332 1.6884077
1330 1.872203
1328 2.0545092
1326 2.2559228
1324 2.4988124
1322 2.7707543
1320 3.0889127
1318 3.4277458
1316 3.78755
1314 4.1402826
1312 4.470593
1310 4.7635107
1308 5.0047565
1306 5.1854672
1304 5.3031058
1302 5.3352942
1300 5.3117051
1298 5.2265677
1296 5.129643
1294 5.0481668
1292 4.9836392
1290 4.9521112
1288 4.9280958
1286 4.9095197
1284 4.9034414
1282 4.9262857
1280 4.963469
1278 5.0298719
1276 5.0903673
1274 5.1423488
1272 5.1887503
1270 5.2331529
1268 5.297389
1266 5.3913713
1264 5.5099673
1262 5.6507359
1260 5.7816939
1258 5.8958955
1256 5.9807458
1254 6.0424175
1252 6.1016722
1250 6.1617932
1248 6.2312074
1246 6.3045998
1244 6.3724794
1242 6.4367366
1240 6.4930444
1238 6.5331383
1236 6.5280485
1234 6.4778128
1232 6.3094559
1230 6.0866485
1228 5.7261181
1226 5.3298364
1224 4.8424125
1222 4.3452349
1220 3.8272557
1218 3.327996
1216 2.86818
1214 2.435864
1212 2.051131
1210 1.6861877
1208 1.3521326
1206 1.0442605
1204 0.77129805
1202 0.53254759
1200 0.32940537
1198 0.15008092
1196 -0.0056243539
1194 -0.13423161
1192 -0.23479623
1190 -0.28203171
1188 -0.29268196
1186 -0.24913798
1184 -0.17949373
1182 -0.075523995
1180 0.048996612
1178 0.22687665
1176 0.43158001
1174 0.71625137
1172 1.0099938
1170 1.3178513
1168 1.5966337
1166 1.7820842
1164 1.9251442
1162 1.9621199
1160 1.9647257
1158 1.8951782
1156 1.7843071
1154 1.6036215
1152 1.3894972
1150 1.1345756
1148 0.88667661
1146 0.65123749
1144 0.44557846
1142 0.27122468
1140 0.13524021
1138 0.034650873
1136 -0.011063977
1134 -0.016527893
1132 0.036066066
1130 0.12147792
1128 0.26345006
1126 0.4212566
1124 0.58218706
1122 0.73132372
1120 0.81495965
1118 0.88534987
1116 0.91704971
1114 0.95139587
1112 0.99980938
1110 1.0541127
1108 1.1270421
1106 1.20311
1104 1.2839988
1102 1.3445371
1100 1.3616825
1098 1.3409746
1096 1.2644857
1094 1.1969386
1092 1.147706
1090 1.1542143
1088 1.2165285
1086 1.2959808
1084 1.3825322
1082 1.4265509
1080 1.436208
1078 1.3785989
1076 1.2844157
1074 1.1432513
1072 0.99010295
1070 0.86220515
1068 0.74686575
1066 0.68395358
1064 0.62694079
1062 0.56398314
1060 0.49534005
1058 0.39189929
1056 0.29368314
1054 0.21981055
1052 0.16782996
1050 0.18671221
1048 0.22259966
1046 0.29687786
1044 0.35116771
1042 0.36377254
1040 0.33044645
1038 0.23097032
1036 0.13123891
1034 0.03441871
1032 -0.032605849
1030 -0.073534846
1028 -0.12068309
1026 -0.16983442
1024 -0.19805366
1022 -0.2116131
1020 -0.18371652
1018 -0.14589369
1016 -0.16960257
1014 -0.21951452
1012 -0.37615758
1010 -0.55045325
1008 -0.721286
1006 -0.88474929
1004 -0.96598315
1002 -1.038684
1000 -1.0578029
998 -1.068311
996 -1.0406429
994 -1.006129
992 -0.95144629
990 -0.90550631
988 -0.87996572
986 -0.86069953
984 -0.85047424
982 -0.82051516
980 -0.76404083
978 -0.71049917
976 -0.66359919
974 -0.67561436
972 -0.73604739
970 -0.82467437
968 -0.9267838
966 -0.96852201
964 -0.97897166
962 -0.9105351
960 -0.81503534
958 -0.67778897
956 -0.53172559
954 -0.38225532
952 -0.23449039
950 -0.13555302
948 -0.043056846
946 -0.014193322
944 0.00028883666
942 0.0069993734
940 -0.033971794
938 -0.0023646429
936 0.052358858
934 0.17449671
932 0.2777977
930 0.34043536
928 0.37924057
926 0.38076717
924 0.41165763
922 0.47824705
920 0.53437352
918 0.57989436
916 0.58098483
914 0.55039144
912 0.50616056
910 0.45480511
908 0.33126485
906 0.18136449
904 0.0058113039
902 -0.17466259
900 -0.18683635
898 -0.1713838
896 -0.020254999
