##TITLE=Methyl Ethyl Ketone
##JCAMP-DX=4.24
##DATA TYPE=INFRARED SPECTRUM
##XUNITS=cm-1
##YUNITS=Absorbance
##FIRSTX=900
##LASTX=2300
##XYDATA=(X++(Y..Y))
2296 -0.021236001
2294 -0.021677369
2292 -0.022119733
2290 -0.022561105
2288 -0.023003468
2286 -0.023444843
2284 -0.023887202
2282 -0.02432858
2280 -0.024769949
2278 -0.025212305
2276 -0.025653686
2274 -0.026096039
2272 -0.026537422
2270 -0.026978791
2268 -0.027421139
2266 -0.027863508
2264 -0.028304897
2262 -0.028744314
2260 -0.029188558
2258 -0.029635841
2256 -0.030071544
2254 -0.03049043
2252 -0.030954354
2250 -0.03148352
2248 -0.031841896
2246 -0.02801132
2244 -0.0010351343
2242 0.057678983
2240 0.098153003
2238 0.0726787
2236 0.0094543658
2234 -0.04435055
2232 -0.052821476
2230 0.0035615617
2228 0.09208969
2226 0.17056981
2224 0.21950817
2222 0.2310994
2220 0.2171122
2218 0.19078429
2216 0.14812429
2214 0.081787966
2212 -0.0080877794
2210 -0.11620285
2208 -0.22580892
2206 -0.31669971
2204 -0.36870781
2202 -0.36411467
2200 -0.29501548
2198 -0.1619276
2196 0.012802572
2194 0.20146258
2192 0.38217777
2190 0.53619081
2188 0.6495288
2186 0.70980585
2184 0.7051028
2182 0.63148564
2180 0.51697224
2178 0.39970514
2176 0.31679514
2174 0.29577333
2172 0.32705826
2170 0.38906151
2168 0.46081501
2166 0.52647775
2164 0.58926302
2162 0.65602839
2160 0.7225281
2158 0.78026325
2156 0.819332
2154 0.83337462
2152 0.83236891
2150 0.8296299
2148 0.82933998
2146 0.83088464
2144 0.82753104
2142 0.81336731
2140 0.79426289
2138 0.78031647
2136 0.78177828
2134 0.80338281
2132 0.8275516
2130 0.83074254
2128 0.79791319
2126 0.7279501
2124 0.66336811
2122 0.65133405
2120 0.69287932
2118 0.76377583
2116 0.80763268
2114 0.77348173
2112 0.67957288
2110 0.57169676
2108 0.5007568
2106 0.5059064
2104 0.57335651
2102 0.67055339
2100 0.77060598
2098 0.85390675
2096 0.91900289
2094 0.96782631
2092 0.9878512
2090 0.96379226
2088 0.89340901
2086 0.78636301
2084 0.67943263
2082 0.61217564
2080 0.59198803
2078 0.60757649
2076 0.62522447
2074 0.61138433
2072 0.56870598
2070 0.51481378
2068 0.46731445
2066 0.43825695
2064 0.41940331
2062 0.39821878
2060 0.37895241
2058 0.37336639
2056 0.393924
2054 0.448165
2052 0.52311957
2050 0.5968799
2048 0.64625955
2046 0.65242964
2044 0.61546338
2042 0.54609448
2040 0.46596822
2038 0.39780569
2036 0.35074756
2034 0.32552743
2032 0.31308869
2030 0.30284989
2028 0.29444143
2026 0.29476643
2024 0.32160521
2022 0.39188659
2020 0.49964011
2018 0.62194568
2016 0.70882398
2014 0.71002764
2012 0.62358683
2010 0.47558561
2008 0.31500086
2006 0.19170214
2004 0.12061679
2002 0.10061897
2000 0.13346972
1998 0.21799001
1996 0.33028784
1994 0.43393973
1992 0.48524377
1990 0.45025137
1988 0.34837419
1986 0.22263764
1984 0.1074208
1982 0.026031133
1980 -0.020729214
1978 -0.038208492
1976 -0.013092926
1974 0.073000625
1972 0.21811162
1970 0.40053412
1968 0.5596348
1966 0.62823278
1964 0.5904671
1962 0.46747327
1960 0.32345039
1958 0.2281791
1956 0.19038758
1954 0.18498412
1952 0.18048343
1950 0.15232392
1948 0.10941254
1946 0.072575502
1944 0.039421029
1942 -0.005639337
1940 -0.077563934
1938 -0.18214652
1936 -0.29140544
1934 -0.36334467
1932 -0.37179139
1930 -0.30702934
1928 -0.18822737
1926 -0.048060089
1924 0.085679963
1922 0.19010067
1920 0.24691559
1918 0.24730021
1916 0.21408814
1914 0.18308634
1912 0.17229056
1910 0.18260787
1908 0.18945771
1906 0.16583537
1904 0.13166121
1902 0.13176072
1900 0.20048295
1898 0.35052407
1896 0.53609288
1894 0.68203098
1892 0.72621483
1890 0.63016629
1888 0.41388798
1886 0.13262837
1884 -0.14670908
1882 -0.36205113
1880 -0.48883405
1878 -0.52893126
1876 -0.50292999
1874 -0.43818572
1872 -0.35303256
1870 -0.26274002
1868 -0.1965044
1866 -0.187521
1864 -0.24737228
1862 -0.3665646
1860 -0.50350857
1858 -0.60598773
1856 -0.65447575
1854 -0.65424573
1852 -0.62443942
1850 -0.58969408
1848 -0.57134479
1846 -0.58464926
1844 -0.62969327
1842 -0.69434243
1840 -0.75266087
1838 -0.77303517
1836 -0.73268312
1834 -0.6185407
1832 -0.43240446
1830 -0.19630769
1828 0.016051173
1826 0.11175749
1824 0.055317923
1822 -0.13457757
1820 -0.37779239
1818 -0.57034642
1816 -0.65957254
1814 -0.64031935
1812 -0.55260861
1810 -0.45381793
1808 -0.36523324
1806 -0.28062099
1804 -0.19073771
1802 -0.090930164
1800 0.0078783855
1798 0.087235302
1796 0.14133143
1794 0.17031291
1792 0.1568812
1790 0.081601217
1788 -0.025336057
1786 -0.10403539
1784 -0.12154097
1782 -0.072018959
1780 0.031738039
1778 0.17093261
1776 0.34521857
1774 0.55897182
1772 0.77330852
1770 0.91815752
1768 0.92859173
1766 0.76970392
1764 0.50823319
1762 0.26365292
1760 0.068646282
1758 -0.10255952
1756 -0.21340314
1754 -0.1857101
1752 -0.0024312288
1750 0.28947449
1748 0.58770633
1746 0.77032536
1744 0.77952909
1742 0.62900412
1740 0.4222573
1738 0.30028465
1736 0.301328
1734 0.36889672
1732 0.40359363
1730 0.30771622
1728 0.085518986
1726 -0.17170557
1724 -0.34198013
1722 -0.29549152
1720 0.079240739
1718 0.83781862
1716 1.8481672
1714 2.8603325
1712 3.7432749
1710 4.5105362
1708 5.3176165
1706 6.4032888
1704 7.9537129
1702 10.082344
1700 12.824303
1698 16.116447
1696 19.688429
1694 23.145229
1692 26.260559
1690 29.039063
1688 31.813993
1686 35.123772
1684 39.326656
1682 44.470367
1680 50.01144
1678 55.092808
1676 59.551872
1674 63.867027
1672 68.459038
1670 73.485863
1668 78.604446
1666 83.146049
1664 86.785889
1662 89.581223
1660 91.695938
1658 93.312782
1656 94.565483
1654 95.522469
1652 96.163742
1650 96.387695
1648 96.033333
1646 94.957787
1644 93.296623
1642 91.399521
1640 89.428825
1638 87.311989
1636 84.864525
1634 81.883553
1632 78.383598
1630 74.567757
1628 70.545219
1626 66.297836
1624 61.78904
1622 57.015961
1620 52.111141
1618 47.321972
1616 42.845085
1614 38.796345
1612 35.24424
1610 32.21067
1608 29.648296
1606 27.456442
1604 25.558908
1602 23.923016
1600 22.557503
1598 21.49972
1596 20.765499
1594 20.335409
1592 20.163662
1590 20.192007
1588 20.396309
1586 20.791935
1584 21.401777
1582 22.25708
1580 23.422571
1578 24.984499
1576 26.972029
1574 29.332664
1572 31.926331
1570 34.555233
1568 37.111641
1566 39.593021
1564 41.985561
1562 44.282639
1560 46.67548
1558 49.476128
1556 52.562183
1554 55.339512
1552 57.307491
1550 58.24844
1548 58.338749
1546 58.067108
1544 57.665737
1542 56.998249
1540 55.83102
1538 53.967079
1536 51.509056
1534 48.86813
1532 46.386696
1530 44.231739
1528 42.432526
1526 40.894249
1524 39.460403
1522 37.938263
1520 36.172207
1518 34.091248
1516 31.800144
1514 29.556902
1512 27.46472
1510 25.401245
1508 23.181786
1506 20.648529
1504 17.886475
1502 15.232648
1500 12.909509
1498 10.926377
1496 9.2139282
1494 7.6733494
1492 6.2534451
1490 4.961175
1488 3.7717309
1486 2.6224906
1484 1.5293515
1482 0.6122123
1480 -0.010548398
1478 -0.24964327
1476 -0.017302722
1474 0.74990898
1472 1.9534045
1470 3.3136659
1468 4.6186552
1466 5.8034921
1464 6.8872952
1462 7.9551077
1460 9.0921831
1458 10.342568
1456 11.619599
1454 12.688778
1452 13.354709
1450 13.535536
1448 13.277052
1446 12.75675
1444 12.134528
1442 11.50293
1440 10.896634
1438 10.288223
1436 9.6234856
1434 8.8411112
1432 7.941453
1430 7.0114002
1428 6.1537724
1426 5.459424
1424 4.974247
1422 4.6833949
1420 4.5482664
1418 4.5189233
1416 4.5605597
1414 4.6654348
1412 4.8437142
1410 5.1190209
1408 5.4984951
1406 5.9599986
1404 6.4652181
1402 6.9609146
1400 7.385612
1398 7.67345
1396 7.7757359
1394 7.6759501
1392 7.3995547
1390 7.0193524
1388 6.597599
1386 6.16433
1384 5.7379413
1382 5.3297424
1380 4.9486008
1378 4.5982628
1376 4.261014
1374 3.8922875
1372 3.462626
1370 2.9765232
1368 2.4575024
1366 1.9428486
1364 1.4515755
1362 0.97379231
1360 0.51506305
1358 0.116582
1356 -0.16619056
1354 -0.27249807
1352 -0.16702732
1350 0.14087296
1348 0.61696637
1346 1.2053554
1344 1.857536
1342 2.5416009
1340 3.2108679
1338 3.7891431
1336 4.1956573
1334 4.3621364
1332 4.2770238
1330 4.0165129
1328 3.6687422
1326 3.3067722
1324 2.985281
1322 2.731708
1320 2.5520296
1318 2.4253609
1316 2.31638
1314 2.1783571
1312 1.9790028
1310 1.71709
1308 1.4122823
1306 1.1063588
1304 0.84043163
1302 0.64408702
1300 0.53731114
1298 0.52759832
1296 0.61860853
1294 0.81254381
1292 1.1129272
1290 1.5244317
1288 2.040828
1286 2.6338606
1284 3.2571957
1282 3.843112
1280 4.334415
1278 4.7043719
1276 4.9530954
1274 5.116642
1272 5.2367401
1270 5.3498135
1268 5.4871259
1266 5.672658
1264 5.9276519
1262 6.2701283
1260 6.7109919
1258 7.2488146
1256 7.8797455
1254 8.6009302
1252 9.4113684
1250 10.312272
1248 11.298988
1246 12.35025
1244 13.429723
1242 14.476683
1240 15.422452
1238 16.19235
1236 16.715343
1234 16.935551
1232 16.81756
1230 16.357183
1228 15.577466
1226 14.543443
1224 13.331023
1222 12.018273
1220 10.692096
1218 9.4536171
1216 8.4000425
1214 7.6088719
1212 7.126687
1210 6.9426336
1208 7.0098987
1206 7.2334123
1204 7.497436
1202 7.6692705
1200 7.637609
1198 7.3489914
1196 6.7982287
1194 6.0533934
1192 5.2027197
1190 4.3386593
1188 3.5388198
1186 2.8457372
1184 2.281775
1182 1.8438053
1180 1.5219026
1178 1.3040152
1176 1.17636
1174 1.1225888
1172 1.1237326
1170 1.1575965
1168 1.2075542
1166 1.2702628
1164 1.3433442
1162 1.41812
1160 1.4796491
1158 1.5031332
1156 1.4694271
1154 1.3780214
1152 1.2360463
1150 1.0576121
1148 0.85610801
1146 0.64075607
1144 0.42655674
1142 0.24303469
1140 0.10974415
1138 0.015396979
1136 -0.052878715
1134 -0.095516756
1132 -0.11916289
1130 -0.15081313
1128 -0.20923868
1126 -0.28189456
1124 -0.34932658
1122 -0.39385074
1120 -0.40242201
1118 -0.37220305
1116 -0.30303559
1114 -0.19576496
1112 -0.055500031
1110 0.10279073
1108 0.26257938
1106 0.41001749
1104 0.5378983
1102 0.65448308
1100 0.77462405
1098 0.9199338
1096 1.1078571
1094 1.341012
1092 1.618104
1090 1.9366879
1088 2.2936058
1086 2.6821728
1084 3.0834184
1082 3.447602
1080 3.7187064
1078 3.8463891
1076 3.8027084
1074 3.6179714
1072 3.3461194
1070 3.0661879
1068 2.8510725
1066 2.7383585
1064 2.738308
1062 2.8087802
1060 2.8880701
1058 2.8975847
1056 2.7790916
1054 2.5430772
1052 2.2307992
1050 1.921385
1048 1.6855406
1046 1.5449357
1044 1.5032058
1042 1.5463291
1040 1.6562972
1038 1.8153832
1036 1.99692
1034 2.1493998
1032 2.2235029
1030 2.1948261
1028 2.0656903
1026 1.8982501
1024 1.7558211
1022 1.660857
1020 1.6069038
1018 1.5323203
1016 1.3763658
1014 1.1234785
1012 0.78189814
1010 0.40067896
1008 0.034765184
1006 -0.27324766
1004 -0.49472278
1002 -0.63508147
1000 -0.71087754
998 -0.74746156
996 -0.77712286
994 -0.84659261
992 -0.99539459
990 -1.2279422
988 -1.5267254
986 -1.8322344
984 -2.0838308
982 -2.2509463
980 -2.3105681
978 -2.2397883
976 -2.0214429
974 -1.6570457
972 -1.1742935
970 -0.67071438
968 -0.25051028
966 0.020377301
964 0.1129735
962 0.091806389
960 0.037023049
958 0.0022127675
956 0.015106242
954 0.037158489
952 0.0277177
950 -0.0036961604
948 -0.0318361
946 -0.020212103
944 0.058859706
942 0.19178416
940 0.35618982
938 0.53522921
936 0.72022146
934 0.92701638
932 1.1656355
930 1.4032291
928 1.6144978
926 1.842925
924 2.1341019
922 2.4789448
920 2.8343961
918 3.0814745
916 3.1290557
914 3.0632558
912 3.0149267
910 3.115797
908 3.456481
906 3.96732
904 4.5431747
902 5.0975838
900 5.5593691
898 5.8977785
896 6.0925002
