##TITLE=Methyl Ethyl Ketone
##JCAMP-DX=4.24
##DATA TYPE=INFRARED SPECTRUM
##XUNITS=cm-1
##YUNITS=Absorbance
##FIRSTX=900
##LASTX=2300
##XYDATA=(X++(Y..Y))
2296 -0.013906
2294 -0.014195586
2292 -0.014485171
2290 -0.014773761
2288 -0.015063344
2286 -0.015352929
2284 -0.015641524
2282 -0.0159311
2280 -0.016220687
2278 -0.016509283
2276 -0.016798858
2274 -0.017088441
2272 -0.017378028
2270 -0.017666634
2268 -0.017956199
2266 -0.018245786
2264 -0.01853537
2262 -0.018823981
2260 -0.019113543
2258 -0.019403128
2256 -0.019691743
2254 -0.0199813
2252 -0.020270886
2250 -0.020559505
2248 -0.020849057
2246 -0.021138644
2244 -0.00078553427
2242 0.03733708
2240 0.07275372
2238 0.098015301
2236 0.12181069
2234 0.11769781
2232 0.11113308
2230 0.094526611
2228 0.078045212
2226 0.066474847
2224 0.050234754
2222 0.011589075
2220 -0.033205774
2218 -0.093034573
2216 -0.14429829
2214 -0.17499097
2212 -0.19608399
2210 -0.20350517
2208 -0.20378816
2206 -0.19622879
2204 -0.16947526
2202 -0.12471857
2200 -0.083096802
2198 -0.044712611
2196 -0.037552927
2194 -0.048266031
2192 -0.063195676
2190 -0.079442546
2188 -0.079575419
2186 -0.074446477
2184 -0.080128558
2182 -0.088376001
2180 -0.12702054
2178 -0.17015538
2176 -0.21148771
2174 -0.24982724
2172 -0.25616685
2170 -0.25530431
2168 -0.23052227
2166 -0.19994579
2164 -0.15673853
2162 -0.12251772
2160 -0.11451875
2158 -0.12738621
2156 -0.174795
2154 -0.20417042
2152 -0.20227177
2150 -0.16545461
2148 -0.092971854
2146 -0.030043179
2144 0.021139953
2142 0.058777541
2140 0.087865472
2138 0.11964743
2136 0.15336886
2134 0.16928513
2132 0.17757854
2130 0.15325232
2128 0.1187344
2126 0.077095367
2124 0.034005482
2122 0.024745405
2120 0.022138298
2118 0.04318361
2116 0.067375347
2114 0.089815661
2112 0.10840429
2110 0.1109621
2108 0.10327649
2106 0.071765177
2104 0.039413415
2102 0.012994983
2100 0.0057770382
2098 0.029348645
2096 0.066647999
2094 0.11602128
2092 0.1531904
2090 0.17589003
2088 0.18018159
2086 0.17089701
2084 0.16133678
2082 0.15279706
2080 0.15540874
2078 0.16386209
2076 0.18941258
2074 0.22178653
2072 0.2597076
2070 0.2992129
2068 0.31237575
2066 0.31888813
2064 0.31119174
2062 0.30316359
2060 0.31877801
2058 0.34046
2056 0.36982772
2054 0.39651993
2052 0.40852052
2050 0.41611904
2048 0.42030469
2046 0.42277822
2044 0.42346701
2042 0.42521626
2040 0.42870331
2038 0.43428612
2036 0.44152972
2034 0.43445191
2032 0.41327724
2030 0.38459909
2028 0.35226139
2026 0.34705579
2024 0.35981664
2022 0.39645717
2020 0.4442369
2018 0.47025305
2016 0.48630601
2014 0.4725959
2012 0.44887391
2010 0.44097382
2008 0.43839315
2006 0.45369786
2004 0.47092605
2002 0.4705959
2000 0.46176738
1998 0.43680352
1996 0.40946856
1994 0.3881084
1992 0.37175617
1990 0.36204135
1988 0.35579839
1986 0.35103643
1984 0.34586674
1982 0.33968216
1980 0.32993966
1978 0.31717145
1976 0.31445402
1974 0.3220652
1972 0.35701272
1970 0.4115921
1968 0.45952758
1966 0.50089425
1964 0.48866096
1962 0.44823724
1960 0.38769719
1958 0.31978098
1956 0.27163228
1954 0.23116052
1952 0.20864029
1950 0.1922209
1948 0.18594323
1946 0.181915
1944 0.1717024
1942 0.16063063
1940 0.14812876
1938 0.13777883
1936 0.13300028
1934 0.12663412
1932 0.1155388
1930 0.095515281
1928 0.065230966
1926 0.033731144
1924 0.0054996298
1922 0.0014638519
1920 0.021620041
1918 0.065972835
1916 0.12502944
1914 0.17643383
1912 0.21969858
1910 0.22148803
1908 0.19809046
1906 0.13451107
1904 0.050759837
1902 0.0027889023
1900 -0.027915172
1898 0.013659241
1896 0.083199143
1894 0.15233555
1892 0.21210538
1890 0.2072556
1888 0.16895668
1886 0.090239577
1884 0.0067492649
1882 -0.045952827
1880 -0.071566895
1878 -0.058575206
1876 -0.035317298
1874 -0.014743231
1872 -0.00062587857
1870 0.0069260215
1868 0.012574515
1866 0.014686936
1864 0.0012957463
1862 -0.030702055
1860 -0.076485358
1858 -0.12898479
1856 -0.18674228
1854 -0.24585286
1852 -0.31661615
1850 -0.39357257
1848 -0.47907639
1846 -0.56732929
1844 -0.61552542
1842 -0.63935167
1840 -0.59552717
1838 -0.52077758
1836 -0.44249141
1834 -0.36963528
1832 -0.32392505
1830 -0.29464051
1828 -0.28373945
1826 -0.28063765
1824 -0.2845248
1822 -0.29445139
1820 -0.3105754
1818 -0.32729593
1816 -0.33704001
1814 -0.33806759
1812 -0.32844627
1810 -0.31303579
1808 -0.29587531
1806 -0.2685985
1804 -0.23162088
1802 -0.21025608
1800 -0.2040004
1798 -0.22700937
1796 -0.27032071
1794 -0.26797372
1792 -0.23271361
1790 -0.15192133
1788 -0.047493041
1786 0.029271629
1784 0.086515613
1782 0.12390004
1780 0.15029451
1778 0.1834068
1776 0.22234771
1774 0.27156997
1772 0.31588727
1770 0.319451
1768 0.28674656
1766 0.20893086
1764 0.11928377
1762 0.052219223
1760 0.014749032
1758 -0.064169414
1756 -0.15552686
1754 -0.21586902
1752 -0.22969732
1750 -0.1976912
1748 -0.1656189
1746 -0.15015179
1744 -0.21118839
1742 -0.34480399
1740 -0.48850638
1738 -0.62669671
1736 -0.642766
1734 -0.56300062
1732 -0.40910941
1730 -0.21554306
1728 -0.13098234
1726 -0.12440478
1724 -0.13419101
1722 -0.1288372
1720 -0.0053087026
1718 0.2207644
1716 0.64257395
1714 1.1701461
1712 1.6359949
1710 2.0397828
1708 2.3857141
1706 2.8376143
1704 3.5524685
1702 4.8077383
1700 6.7463398
1698 9.5968952
1696 13.334571
1694 17.222609
1692 20.906639
1690 24.218935
1688 27.191875
1686 30.673286
1684 34.752876
1682 39.62196
1680 45.111759
1678 49.920174
1676 54.08567
1674 58.103291
1672 62.098518
1670 66.854492
1668 72.19014
1666 77.56385
1664 82.855057
1662 87.683372
1660 92.029915
1658 95.820328
1656 98.987373
1654 101.43452
1652 102.9964
1650 103.54077
1648 103.01823
1646 101.46714
1644 99.317856
1642 96.987411
1640 94.306976
1638 91.229988
1636 87.364799
1634 82.648735
1632 77.752869
1630 72.929039
1628 68.405396
1626 64.196251
1624 59.916561
1622 55.517544
1620 51.218414
1618 47.037987
1616 43.130028
1614 39.518692
1612 36.363274
1610 33.667229
1608 31.37252
1606 29.447601
1604 27.728018
1602 26.235418
1600 24.97584
1598 23.972208
1596 23.2215
1594 22.70911
1592 22.380161
1590 22.204514
1588 22.131147
1586 22.158907
1584 22.278154
1582 22.480989
1580 22.756548
1578 23.129726
1576 23.604801
1574 24.222372
1572 24.986423
1570 25.879835
1568 26.89444
1566 27.9583
1564 29.066538
1562 30.345922
1560 31.89183
1558 34.374008
1556 37.870544
1554 41.816608
1552 45.970955
1550 49.211975
1548 51.558025
1546 53.512714
1544 55.125908
1542 56.622612
1540 57.869698
1538 58.677959
1536 58.899258
1534 58.439934
1532 57.490829
1530 56.322231
1528 54.960884
1526 53.436649
1524 51.650017
1522 49.533131
1520 47.19817
1518 44.672188
1516 42.297043
1514 40.201332
1512 38.121922
1510 36.017056
1508 33.343216
1506 29.943571
1504 26.630074
1502 23.490189
1500 20.898026
1498 18.90127
1496 16.867428
1494 14.778884
1492 12.609271
1490 10.37817
1488 8.1780748
1486 6.0758839
1484 4.181776
1482 2.5836856
1480 1.3663371
1478 0.55561507
1476 0.12866971
1474 0.23637721
1472 0.94157493
1470 1.862772
1468 2.8270979
1466 3.6595263
1464 4.2404776
1462 4.7075524
1460 5.099854
1458 5.4825282
1456 5.8693199
1454 6.2111397
1452 6.4727702
1450 6.6325774
1448 6.6396255
1446 6.5782857
1444 6.4222531
1442 6.231112
1440 5.9881344
1438 5.6865058
1436 5.3012228
1434 4.8169899
1432 4.2395811
1430 3.6537964
1428 3.088918
1426 2.614707
1424 2.249589
1422 2.0044909
1420 1.8901781
1418 1.9077709
1416 2.0292485
1414 2.2312
1412 2.4667318
1410 2.7140794
1408 2.9702263
1406 3.2397792
1404 3.5240846
1402 3.8262031
1400 4.134316
1398 4.4460859
1396 4.7670212
1394 5.0998864
1392 5.4092503
1390 5.6615276
1388 5.8110623
1386 5.7923946
1384 5.6602564
1382 5.3734956
1380 5.0314031
1378 4.625154
1376 4.1999712
1374 3.7691486
1372 3.3674359
1370 3.0054421
1368 2.6927605
1366 2.3893721
1364 2.0251873
1362 1.6018261
1360 1.1121733
1358 0.64244324
1356 0.29729822
1354 0.067577563
1352 0.0083429376
1350 0.028959688
1348 0.12027049
1346 0.23077285
1344 0.3738392
1342 0.54085559
1340 0.75405133
1338 0.98260421
1336 1.2359514
1334 1.4826872
1332 1.7080486
1330 1.9248711
1328 2.128124
1326 2.3330529
1324 2.5482187
1322 2.7824099
1320 3.0492475
1318 3.3485935
1316 3.6781101
1314 4.0009995
1312 4.2992306
1310 4.5407867
1308 4.7264605
1306 4.8640242
1304 4.961597
1302 5.0195088
1300 5.0442343
1298 5.0204735
1296 4.9776144
1294 4.9226103
1292 4.8744435
1290 4.8506994
1288 4.8324242
1286 4.8184948
1284 4.8023038
1282 4.7788963
1280 4.7603235
1278 4.7528539
1276 4.7541299
1274 4.77492
1272 4.8086982
1270 4.8670321
1268 4.9421682
1266 5.0409031
1264 5.1494222
1262 5.2671041
1260 5.3825102
1258 5.4946842
1256 5.6022687
1254 5.7089047
1252 5.8254008
1250 5.9514151
1248 6.0899577
1246 6.2275753
1244 6.3393536
1242 6.423492
1240 6.4470954
1238 6.435493
1236 6.3631973
1234 6.2593884
1232 6.0896921
1230 5.8878603
1228 5.6035047
1226 5.2920389
1224 4.9086099
1222 4.5087223
1220 4.0702019
1218 3.6290131
1216 3.1855628
1214 2.7599654
1212 2.3687472
1210 2.0101361
1208 1.6993806
1206 1.4146487
1204 1.1619916
1202 0.92897511
1200 0.71912223
1198 0.53533459
1196 0.37712285
1194 0.24850425
1192 0.1445927
1190 0.074032143
1188 0.02481314
1186 0.0032047783
1184 -0.0018256176
1182 0.024076978
1180 0.078789383
1178 0.2226932
1176 0.40827999
1174 0.71365106
1172 1.0279866
1170 1.3473953
1168 1.6273383
1166 1.7838372
1164 1.89624
1162 1.8998671
1160 1.8776793
1158 1.8033495
1156 1.7106543
1154 1.5868661
1152 1.4473343
1150 1.2832906
1148 1.091465
1146 0.86853391
1144 0.63161492
1142 0.39157429
1140 0.19819167
1138 0.048298314
1136 -0.033170398
1134 -0.06685169
1132 -0.017855473
1130 0.076707438
1128 0.2448156
1126 0.43103051
1124 0.60732901
1122 0.76547527
1120 0.83699042
1118 0.89042658
1116 0.88995641
1114 0.89074111
1112 0.90150595
1110 0.9265725
1108 0.99774039
1106 1.08304
1104 1.1994085
1102 1.2896152
1100 1.3237396
1098 1.3104925
1096 1.2248714
1094 1.1359471
1092 1.0466038
1090 0.98283106
1088 0.94830823
1086 0.94710749
1084 0.97378385
1082 1.0186001
1080 1.0649418
1078 1.0456821
1076 0.98638868
1074 0.85062891
1072 0.69297236
1070 0.55711633
1068 0.43470645
1066 0.37574172
1064 0.3279644
1062 0.30239472
1060 0.27164412
1058 0.20035782
1056 0.12511754
1054 0.033812951
1052 -0.043534007
1050 -0.07648135
1048 -0.10633263
1046 -0.13055857
1044 -0.17254905
1042 -0.24737185
1040 -0.32241803
1038 -0.39628792
1036 -0.45354301
1034 -0.49216187
1032 -0.53220934
1030 -0.57526833
1028 -0.63810062
1026 -0.71588343
1024 -0.80934107
1022 -0.91170973
1020 -1.0211554
1018 -1.1319221
1016 -1.2269
1014 -1.315941
1012 -1.3848271
1010 -1.4514794
1008 -1.5322599
1006 -1.612595
1004 -1.6743817
1002 -1.7250509
1000 -1.7015977
998 -1.6708173
996 -1.6084213
994 -1.5530831
992 -1.5204897
990 -1.4953763
988 -1.4874758
986 -1.4777515
984 -1.4636526
982 -1.4345593
980 -1.383558
978 -1.3062735
976 -1.2017143
974 -1.0952767
972 -0.98916632
970 -0.91626644
968 -0.8637743
966 -0.82018703
964 -0.77915078
962 -0.70964128
960 -0.63053417
958 -0.53986305
956 -0.44702387
954 -0.35906667
952 -0.271918
950 -0.18925442
948 -0.10735734
946 -0.034964036
944 0.0010659769
942 0.033930808
940 0.12399021
938 0.32966
936 0.53865141
934 0.75668818
932 0.94438028
930 1.0669116
928 1.1651577
926 1.2240314
924 1.2622659
922 1.2749583
920 1.2560685
918 1.2070754
916 1.12253
914 1.0128975
912 0.91179669
910 0.81610239
908 0.79061627
906 0.79280901
904 0.83607149
902 0.89032465
900 0.90304762
898 0.9092555
896 0.94104999
