##TITLE=Methyl Ethyl Ketone
##JCAMP-DX=4.24
##DATA TYPE=INFRARED SPECTRUM
##XUNITS=cm-1
##YUNITS=Absorbance
##FIRSTX=900
##LASTX=2300
##XYDATA=(X++(Y..Y))
2296 -0.0088913003
2294 -0.0090762358
2292 -0.0092611713
2290 -0.0094461069
2288 -0.0096311411
2286 -0.0098160775
2284 -0.010001409
2282 -0.010186151
2280 -0.010370886
2278 -0.010555621
2276 -0.010741343
2274 -0.010926092
2272 -0.011110829
2270 -0.011295564
2268 -0.01148128
2266 -0.011666035
2264 -0.011850771
2262 -0.012035508
2260 -0.012220243
2258 -0.012405952
2256 -0.012590715
2254 -0.01277545
2252 -0.012960185
2250 -0.013145888
2248 -0.013330657
2246 -0.013515393
2244 -0.00050224573
2242 0.034690265
2240 0.076329038
2238 0.061054625
2236 0.037363973
2234 -0.01037358
2232 -0.056703296
2230 -0.032810763
2228 -0.001561169
2226 0.061672423
2224 0.11534605
2222 0.11799476
2220 0.10894897
2218 0.072654791
2216 0.048140772
2214 0.052735653
2212 0.069276817
2210 0.10249355
2208 0.13139293
2206 0.15361664
2204 0.1575706
2202 0.1443262
2200 0.11761531
2198 0.081690371
2196 0.061682072
2194 0.051218767
2192 0.047988687
2190 0.047656678
2188 0.049979907
2186 0.053104222
2184 0.081894241
2182 0.11656642
2180 0.11703543
2178 0.11155465
2176 0.041268855
2174 -0.032286931
2172 -0.075255074
2170 -0.10628281
2168 -0.085437112
2166 -0.058067866
2164 -0.025281692
2162 0.0045587909
2160 0.025463734
2158 0.035435323
2156 0.0263617
2154 0.0076843463
2152 -0.022052126
2150 -0.033924218
2148 -0.024362858
2146 0.0056573572
2144 0.051787119
2142 0.0896658
2140 0.12065981
2138 0.13076454
2136 0.12987514
2134 0.1031285
2132 0.065886952
2130 0.035700899
2128 0.0080585759
2126 0.030553184
2124 0.064696081
2122 0.11530516
2120 0.16646856
2118 0.1805786
2116 0.18377401
2114 0.144843
2112 0.096967198
2110 0.036405765
2108 -0.016240887
2106 -0.039334729
2104 -0.03897576
2102 0.0035779839
2100 0.061134581
2098 0.13343254
2096 0.20055999
2094 0.25814104
2092 0.29197398
2090 0.30263701
2088 0.27793875
2086 0.226639
2084 0.16357926
2082 0.095134512
2080 0.042111058
2078 -0.0023628324
2076 -0.026349891
2074 -0.042219136
2072 -0.043297123
2070 -0.039829563
2068 -0.026006581
2066 -0.0090302862
2064 0.035490423
2062 0.087115385
2060 0.15479222
2058 0.2222189
2056 0.27080771
2054 0.3086428
2052 0.32173562
2050 0.32013661
2048 0.2938827
2046 0.24362679
2044 0.15641001
2042 0.071560077
2040 0.00058975443
2038 -0.0011499459
2036 0.076667465
2034 0.19988096
2032 0.3530069
2030 0.46804288
2028 0.54933202
2026 0.58201879
2024 0.58743161
2022 0.58366054
2020 0.57741326
2018 0.6101166
2016 0.65909201
2014 0.72366863
2012 0.79252243
2010 0.78228068
2008 0.74614513
2006 0.6348449
2004 0.50760305
2002 0.40425399
2000 0.33195144
1998 0.36967084
1996 0.45853215
1994 0.61924517
1992 0.77857006
1990 0.89278156
1988 0.95989799
1986 0.96161449
1984 0.93251902
1982 0.88220179
1980 0.8189162
1978 0.74742186
1976 0.68911284
1974 0.64522308
1972 0.64882731
1970 0.68695688
1968 0.76291579
1966 0.8587895
1964 0.94522774
1962 1.0244271
1960 1.0676481
1958 1.0952746
1956 1.0889558
1954 1.0694078
1952 1.0061616
1950 0.9287231
1948 0.85589302
1946 0.80094254
1944 0.83213681
1942 0.89562076
1940 0.97115839
1938 1.0203965
1936 0.98966175
1934 0.9336248
1932 0.87732321
1930 0.84027916
1928 0.83675808
1926 0.8245427
1924 0.79037279
1922 0.74587607
1920 0.69511002
1918 0.68991601
1916 0.72479355
1914 0.77301168
1912 0.82487708
1910 0.85072476
1908 0.86008662
1906 0.90760428
1904 0.97705001
1902 1.0736588
1900 1.1810514
1898 1.2319978
1896 1.2577429
1894 1.2543923
1892 1.2405958
1890 1.228748
1888 1.2146589
1886 1.1838236
1884 1.1501759
1882 1.1260508
1880 1.1102005
1878 1.1075029
1876 1.0889901
1874 1.0368599
1872 0.96389234
1870 0.87860185
1868 0.81983811
1866 0.79413992
1864 0.80868721
1862 0.85128927
1860 0.91879451
1858 1.0039181
1856 1.0420486
1854 1.0427312
1852 0.90021092
1850 0.6684106
1848 0.34993801
1846 -0.0092717856
1844 -0.17844817
1842 -0.23813629
1840 -0.049604189
1838 0.2511023
1836 0.53278583
1834 0.7891416
1832 0.97193384
1830 1.0979543
1828 1.1343023
1826 1.1072607
1824 1.0039641
1822 0.89601552
1820 0.84554178
1818 0.83769494
1816 0.86988342
1814 0.88640326
1812 0.86162752
1810 0.83592552
1808 0.82475513
1806 0.84163553
1804 0.88288552
1802 0.79135597
1800 0.57443994
1798 0.23405871
1796 -0.18244894
1794 -0.38759369
1792 -0.4358924
1790 -0.26870412
1788 0.018923916
1786 0.22459586
1784 0.3674801
1782 0.37997457
1780 0.30509165
1778 0.13905574
1776 -0.058954462
1774 -0.18512878
1772 -0.21355446
1770 -0.062505126
1768 0.13940072
1766 0.2462545
1764 0.26326862
1762 0.19505754
1760 0.059515145
1758 -0.12289041
1756 -0.315045
1754 -0.4949432
1752 -0.75382471
1750 -1.1115867
1748 -1.5243249
1746 -1.9655107
1744 -2.3180602
1742 -2.5843363
1740 -2.7246943
1738 -2.7713666
1736 -2.6833599
1734 -2.4992785
1732 -2.1511512
1730 -1.6967394
1728 -1.2558817
1726 -0.84169245
1724 -0.52506995
1722 -0.2665377
1720 0.0751784
1718 0.5700897
1716 1.2794554
1714 2.064363
1712 2.75
1710 3.3339229
1708 3.8177481
1706 4.374804
1704 5.1746354
1702 6.5149584
1700 8.5527554
1698 11.700611
1696 16.004856
1694 20.649139
1692 25.205904
1690 29.220161
1688 32.666908
1686 36.373734
1684 40.484623
1682 45.346909
1680 50.82716
1678 55.769695
1676 60.1912
1674 64.528687
1672 68.87664
1670 73.82972
1668 79.213272
1666 84.425804
1664 89.420166
1662 94.007751
1660 98.183327
1658 101.92412
1656 105.13857
1654 107.6849
1652 109.3334
1650 109.8523
1648 109.06263
1646 106.91536
1644 103.9744
1642 100.77357
1640 97.340553
1638 93.734428
1636 89.564301
1634 84.734108
1632 79.754135
1630 74.816078
1628 70.069702
1626 65.527229
1624 60.74728
1622 55.696693
1620 50.796608
1618 46.088909
1616 41.917114
1614 38.288612
1612 35.209034
1610 32.655041
1608 30.439268
1606 28.538742
1604 26.824972
1602 25.347582
1600 24.171206
1598 23.314444
1596 22.757
1594 22.464796
1592 22.355532
1590 22.395605
1588 22.530972
1586 22.750143
1584 23.037783
1582 23.380301
1580 23.766872
1578 24.260927
1576 24.883085
1574 25.690788
1572 26.690241
1570 27.8326
1568 29.10088
1566 30.381006
1564 31.660265
1562 32.975494
1560 34.389469
1558 36.456482
1556 39.238514
1554 42.35387
1552 45.601295
1550 48.081936
1548 49.753174
1546 50.90493
1544 51.520676
1542 51.746468
1540 51.564079
1538 51.012188
1536 50.137455
1534 49.060055
1532 47.79335
1530 46.396545
1528 44.821384
1526 43.037449
1524 41.082867
1522 38.972958
1520 36.982727
1518 35.231606
1516 33.665657
1514 32.289101
1512 30.68784
1510 28.757715
1508 26.306917
1506 23.226614
1504 20.283382
1502 17.567122
1500 15.358711
1498 13.71437
1496 12.104857
1494 10.531585
1492 8.9508104
1490 7.3806024
1488 5.8590689
1486 4.4247074
1484 3.1268182
1482 2.0171697
1480 1.1505685
1478 0.5363391
1476 0.150962
1474 0.11087692
1472 0.47622445
1470 1.06071
1468 1.7908611
1466 2.46684
1464 2.9689462
1462 3.3457208
1460 3.5942376
1458 3.8878555
1456 4.2888999
1454 4.7759585
1452 5.3629656
1450 5.7879243
1448 5.9538798
1446 5.9783359
1444 5.8076634
1442 5.5742688
1440 5.2537332
1438 4.8582206
1436 4.3836145
1434 3.889123
1432 3.4073846
1430 3.0190728
1428 2.7233539
1426 2.487695
1424 2.3183599
1422 2.2154577
1420 2.2231896
1418 2.3896601
1416 2.6898599
1414 3.105864
1412 3.5432081
1410 3.9397993
1408 4.2911172
1406 4.5820465
1404 4.8407922
1402 5.0585346
1400 5.2496281
1398 5.3994651
1396 5.5532856
1394 5.7171559
1392 5.8949394
1390 6.077045
1388 6.1834755
1386 6.1572499
1384 6.0025306
1382 5.6679587
1380 5.2485857
1378 4.7359743
1376 4.2154398
1374 3.716984
1372 3.3008621
1370 2.9661696
1368 2.6753592
1366 2.3752813
1364 1.9762335
1362 1.5102668
1360 1.0137378
1358 0.56448948
1356 0.2656697
1354 0.074642718
1352 0.015441143
1350 0.022206113
1348 0.10191951
1346 0.19745606
1344 0.27534199
1342 0.32738832
1340 0.32985204
1338 0.34725136
1336 0.39931658
1334 0.49968809
1332 0.67462367
1330 0.86325538
1328 1.0713582
1326 1.2807422
1324 1.5010334
1322 1.739701
1320 2.0116131
1318 2.3168733
1316 2.65343
1314 2.9833205
1312 3.2821753
1310 3.5059488
1308 3.6581771
1306 3.7542822
1304 3.8135395
1302 3.8554401
1300 3.8806827
1298 3.8762531
1296 3.8574855
1294 3.8223119
1292 3.7980962
1290 3.8116879
1288 3.8558559
1286 3.9653242
1284 4.0803146
1282 4.1947632
1280 4.278718
1278 4.2949929
1276 4.3057513
1274 4.3162479
1272 4.3793797
1270 4.5380044
1268 4.7581267
1266 5.0638094
1264 5.3930826
1262 5.7474947
1260 6.103632
1258 6.464992
1256 6.8405886
1254 7.2345047
1252 7.6562839
1250 8.097127
1248 8.5448465
1246 8.9923248
1244 9.4253378
1242 9.848877
1240 10.257514
1238 10.637018
1236 10.934729
1234 11.157692
1232 11.1874
1230 11.132972
1228 10.870023
1226 10.559879
1224 10.129711
1222 9.6806946
1220 9.1868544
1218 8.6778984
1216 8.1376829
1214 7.5831795
1212 7.0087199
1210 6.4474864
1208 5.910006
1206 5.4058499
1204 4.940248
1202 4.4875569
1200 4.0424709
1198 3.5794768
1196 3.1024358
1194 2.6188684
1192 2.1449161
1190 1.726455
1188 1.3522704
1186 1.0598689
1184 0.80909985
1182 0.61965752
1180 0.46615085
1178 0.40314743
1176 0.38132602
1174 0.4767569
1172 0.58855963
1170 0.73519021
1168 0.85607904
1166 0.89536428
1164 0.90058339
1162 0.8250078
1160 0.75551075
1158 0.70276642
1156 0.68256414
1154 0.7121821
1152 0.73403454
1150 0.7342664
1148 0.66483861
1146 0.51721752
1144 0.33271989
1142 0.13514532
1140 0.032903064
1138 0.021536268
1136 0.16078201
1134 0.39132038
1132 0.7260561
1130 1.1020828
1128 1.4859486
1126 1.8634522
1124 2.196559
1122 2.509964
1120 2.7604001
1118 2.9953456
1116 3.1782544
1114 3.3495755
1112 3.4739256
1110 3.5673721
1108 3.5623803
1106 3.53597
1104 3.4643002
1102 3.4473014
1100 3.5453243
1098 3.7309837
1096 4.0519714
1094 4.3934336
1092 4.756134
1090 5.0950441
1088 5.4110332
1086 5.727335
1084 6.0376034
1082 6.3027792
1080 6.5239344
1078 6.6199126
1076 6.6556997
1074 6.6612277
1072 6.6651196
1070 6.7290826
1068 6.7957029
1066 6.7870779
1064 6.7520161
1062 6.5932121
1060 6.4266429
1058 6.2481031
1056 6.0712256
1054 5.9008884
1052 5.7281647
1050 5.5482507
1048 5.3743067
1046 5.217443
1044 5.0935445
1042 5.033803
1040 5.0157685
1038 5.0563879
1036 5.0887198
1034 5.1013694
1032 5.0079441
1030 4.8058915
1028 4.4472346
1026 3.9832535
1024 3.536272
1022 3.1180871
1020 2.9105601
1018 2.7886083
1016 2.7178144
1014 2.6451089
1012 2.3985066
1010 2.1172433
1008 1.7752
1006 1.4343328
1004 1.165401
1002 0.89790195
1000 0.6361233
998 0.38166887
996 0.1606845
994 -0.035348512
992 -0.15311857
990 -0.24409235
988 -0.27342477
986 -0.29074022
984 -0.28948396
982 -0.328466
980 -0.42187339
978 -0.53433365
976 -0.65953368
974 -0.66389269
972 -0.56279659
970 -0.28962663
968 0.087753385
966 0.46242252
964 0.82613695
962 0.99503517
960 1.0915692
958 0.98843336
956 0.83713031
954 0.56271857
952 0.27656722
950 0.065765381
948 -0.12288512
946 -0.039882854
944 0.0037782863
942 0.11770621
940 0.34708479
938 0.61606866
936 0.91993654
934 1.3263543
932 1.7486411
930 2.2032266
928 2.6010401
926 2.9068384
924 3.13028
922 3.2524779
920 3.2875149
918 3.2412648
916 3.1624398
914 3.0618081
912 3.0708692
910 3.1397798
908 3.3780074
906 3.6820593
904 4.0259309
902 4.3798223
900 4.5013413
898 4.585197
896 4.3734999
