##TITLE=Methyl Ethyl Ketone
##JCAMP-DX=4.24
##DATA TYPE=INFRARED SPECTRUM
##XUNITS=cm-1
##YUNITS=Absorbance
##FIRSTX=900
##LASTX=2300
##XYDATA=(X++(Y..Y))
2296 0.18549
2294 0.18935446
2292 0.19320898
2290 0.19707341
2288 0.20092794
2286 0.20478243
2284 0.20864683
2282 0.21250141
2280 0.21636577
2278 0.22022036
2276 0.22408472
2274 0.22794919
2272 0.23180382
2270 0.23563868
2268 0.2395124
2266 0.24343579
2264 0.24723314
2262 0.25086185
2260 0.25494456
2258 0.25967106
2256 0.26269487
2254 0.26332319
2252 0.27028465
2250 0.28616804
2248 0.27853006
2246 0.21630393
2244 0.11305442
2242 0.0014958638
2240 -0.059084781
2238 -0.016302332
2236 0.12455048
2234 0.33685067
2232 0.5744552
2230 0.79010141
2228 0.95398086
2226 1.0417916
2224 1.0306332
2222 0.91005278
2220 0.71888953
2218 0.51672333
2216 0.38859999
2214 0.40407664
2212 0.54010677
2210 0.74134177
2208 0.93505287
2206 1.0584564
2204 1.1091706
2202 1.1055768
2200 1.0752012
2198 1.0428679
2196 1.0110714
2194 0.97315139
2192 0.91317791
2190 0.81839818
2188 0.69984263
2186 0.578062
2184 0.48119882
2182 0.4345156
2180 0.44200069
2178 0.49542379
2176 0.56479859
2174 0.61653847
2172 0.63060671
2170 0.60019141
2168 0.55367851
2166 0.52641374
2164 0.53485703
2162 0.58287627
2160 0.64983016
2158 0.70850343
2156 0.73795897
2154 0.72453356
2152 0.67474979
2150 0.60732931
2148 0.56283724
2146 0.58034962
2144 0.66244191
2142 0.79123759
2140 0.91806221
2138 0.992428
2136 0.99988741
2134 0.94358402
2132 0.84634519
2130 0.73672247
2128 0.6397776
2126 0.57802546
2124 0.5694648
2122 0.62336791
2120 0.71946651
2118 0.8270334
2116 0.91674274
2114 0.96632445
2112 0.97906071
2110 0.96881247
2108 0.95379132
2106 0.94934458
2104 0.95373297
2102 0.95722073
2100 0.94413221
2098 0.90137106
2096 0.83488715
2094 0.75897866
2092 0.69164801
2090 0.64847445
2088 0.62999374
2086 0.63065302
2084 0.64437228
2082 0.66586697
2080 0.69310993
2078 0.72570825
2076 0.76474386
2074 0.81225479
2072 0.8721
2070 0.9462294
2068 1.0256535
2066 1.0975343
2064 1.1508143
2062 1.1789219
2060 1.1880549
2058 1.188851
2056 1.1868943
2054 1.1848457
2052 1.1834266
2050 1.1804799
2048 1.1656647
2046 1.1257179
2044 1.049558
2042 0.93497986
2040 0.8125875
2038 0.72502148
2036 0.70558709
2034 0.77178204
2032 0.89481676
2030 1.0277749
2028 1.1320974
2026 1.1834086
2024 1.1989348
2022 1.2102906
2020 1.2342771
2018 1.2756643
2016 1.32076
2014 1.3539169
2012 1.3837548
2010 1.4268007
2008 1.4851485
2006 1.5483843
2004 1.5851054
2002 1.562939
2000 1.4831668
1998 1.3683195
1996 1.2603143
1994 1.1999406
1992 1.1885606
1990 1.2051789
1988 1.214658
1986 1.1837671
1984 1.11204
1982 1.0178241
1980 0.93262696
1978 0.888538
1976 0.898
1974 0.95793331
1972 1.0413263
1970 1.113589
1968 1.1550515
1966 1.159155
1964 1.1406069
1962 1.1214181
1960 1.1114
1958 1.1117998
1956 1.1143929
1954 1.1085764
1952 1.0912634
1950 1.0641661
1948 1.0322531
1946 1.00112
1944 0.97327101
1942 0.94879764
1940 0.92442071
1938 0.89623082
1936 0.86468339
1934 0.83267397
1932 0.8030166
1930 0.77667379
1928 0.74745339
1926 0.70803177
1924 0.66270381
1922 0.62219429
1920 0.59658194
1918 0.59038788
1916 0.58768827
1914 0.56467664
1912 0.51135218
1910 0.43052766
1908 0.34361887
1906 0.27768058
1904 0.24261159
1902 0.23590952
1900 0.24625021
1898 0.26190329
1896 0.28704
1894 0.33237273
1892 0.39631897
1890 0.4674449
1888 0.52570045
1886 0.55113387
1884 0.54283297
1882 0.51155031
1880 0.46928069
1878 0.42601183
1876 0.384509
1874 0.34292287
1872 0.29757309
1870 0.24371125
1868 0.17494425
1866 0.087853201
1864 -0.0037410967
1862 -0.075376645
1860 -0.10164859
1858 -0.064630948
1856 0.022496227
1854 0.1267343
1852 0.21077777
1850 0.24275786
1848 0.21816641
1846 0.15257178
1844 0.07571239
1842 0.019699788
1840 -0.0040721213
1838 -0.00023211609
1836 0.016187713
1834 0.029150439
1832 0.040850714
1830 0.065503657
1828 0.11690278
1826 0.20109564
1824 0.29654926
1822 0.36647806
1820 0.38449302
1818 0.33787489
1816 0.23609971
1814 0.10326017
1812 -0.031639729
1810 -0.13886803
1808 -0.19295989
1806 -0.17818549
1804 -0.10921837
1802 -0.022678114
1800 0.035440292
1798 0.025533376
1796 -0.045214429
1794 -0.13555689
1792 -0.19527119
1790 -0.18262936
1788 -0.10451734
1786 0.00095382705
1784 0.10645169
1782 0.19791856
1780 0.26876003
1778 0.31373319
1776 0.31672543
1774 0.26002109
1772 0.15545018
1770 0.037449591
1768 -0.056142285
1766 -0.093585216
1764 -0.069099061
1762 -0.0057837721
1760 0.025454331
1758 -0.056883607
1756 -0.23594844
1754 -0.4293437
1752 -0.60086387
1750 -0.7570762
1748 -0.89899361
1746 -1.0178907
1744 -1.1065949
1742 -1.1610131
1740 -1.1785072
1738 -1.1553226
1736 -1.07936
1734 -0.93761295
1732 -0.7420451
1730 -0.5258773
1728 -0.32941887
1726 -0.18924814
1724 -0.11266215
1722 -0.077047721
1720 -0.026575051
1718 0.11362805
1716 0.40340412
1714 0.86893618
1712 1.4486852
1710 2.0349445
1708 2.6141381
1706 3.2729371
1704 4.1733246
1702 5.5423484
1700 7.6924028
1698 10.885139
1696 14.856571
1694 18.93928
1692 22.614042
1690 25.646002
1688 28.261953
1686 31.020435
1684 34.414528
1682 38.69696
1680 43.501759
1678 48.069588
1676 52.117542
1674 55.864586
1672 59.636219
1670 63.699219
1668 67.993614
1666 72.2089
1664 76.164124
1662 79.836906
1660 83.202744
1658 86.213951
1656 88.860085
1654 91.174606
1652 93.22554
1650 95.074654
1648 96.639854
1646 97.731178
1644 98.271942
1642 98.292969
1640 97.747665
1638 96.495872
1636 94.375572
1634 91.275772
1632 87.350342
1630 82.966705
1628 78.367989
1626 73.62854
1624 68.772682
1622 63.825848
1620 58.901894
1618 54.190701
1616 49.837029
1614 45.923069
1612 42.496586
1610 39.569118
1608 37.077709
1606 34.901329
1604 32.960003
1602 31.233038
1600 29.738583
1598 28.514454
1596 27.566
1594 26.858854
1592 26.347715
1590 25.990244
1588 25.765903
1586 25.673679
1584 25.704737
1582 25.8431
1580 26.095856
1578 26.4977
1576 27.101629
1574 27.960255
1572 29.054497
1570 30.289711
1568 31.5588
1566 32.766273
1564 33.869953
1562 34.919975
1560 36.16156
1558 37.972015
1556 40.449459
1554 43.328182
1552 46.157185
1550 48.434418
1548 50.010403
1546 51.114712
1544 51.901432
1542 52.3582
1540 52.46014
1538 52.216564
1536 51.679798
1534 50.938122
1532 50.065514
1530 49.100163
1528 48.02515
1526 46.770901
1524 45.265678
1522 43.465683
1520 41.432869
1518 39.339882
1516 37.352444
1514 35.563698
1512 33.869038
1510 31.971298
1508 29.656734
1506 26.896858
1504 23.894194
1502 21.043959
1500 18.568678
1498 16.426729
1496 14.485572
1494 12.588459
1492 10.659901
1490 8.7308025
1488 6.8637557
1486 5.1330457
1484 3.6161718
1482 2.3801537
1480 1.430288
1478 0.71385598
1476 0.25524801
1474 0.17198548
1472 0.4941237
1470 1.1129768
1468 1.8848331
1466 2.6727664
1464 3.4132898
1462 4.1343327
1460 4.8711972
1458 5.6332874
1456 6.3723001
1454 6.9797015
1452 7.3799958
1450 7.5656552
1448 7.5802894
1446 7.5090213
1444 7.4051237
1442 7.2623601
1440 7.0384674
1438 6.6648579
1436 6.0950499
1434 5.3326406
1432 4.4565463
1430 3.6228244
1428 2.940706
1426 2.427315
1424 2.0587492
1422 1.7890024
1420 1.6077414
1418 1.5582496
1416 1.6746857
1414 1.9570659
1412 2.3722658
1410 2.8552549
1408 3.3593554
1406 3.8729634
1404 4.3835559
1402 4.8660889
1400 5.2933402
1398 5.64292
1396 5.9161429
1394 6.1442671
1392 6.3477159
1390 6.5182939
1388 6.625298
1386 6.6182003
1384 6.4645128
1382 6.1676192
1380 5.7506299
1378 5.254704
1376 4.7239628
1374 4.1997542
1372 3.7156479
1370 3.2892082
1368 2.9049137
1366 2.5052252
1364 2.0426102
1362 1.5073757
1360 0.94327855
1358 0.4574573
1356 0.13019566
1354 -0.026385944
1352 -0.038878638
1350 0.03244479
1348 0.13973561
1346 0.26706034
1344 0.40621358
1342 0.54964703
1340 0.68849009
1338 0.81183189
1336 0.91066259
1334 0.97997755
1332 1.0167978
1330 1.020844
1328 0.99775189
1326 0.96197551
1324 0.93059355
1322 0.9209466
1320 0.94595426
1318 1.0097256
1316 1.10658
1314 1.2175727
1312 1.3204435
1310 1.394762
1308 1.4319497
1306 1.4433342
1304 1.4439292
1302 1.447103
1300 1.4617989
1298 1.4913026
1296 1.5420429
1294 1.6282016
1292 1.7609897
1290 1.9427449
1288 2.167316
1286 2.4171436
1284 2.6721809
1282 2.9132259
1280 3.123528
1278 3.2920175
1276 3.419687
1274 3.527487
1272 3.6465247
1270 3.8163078
1268 4.0640602
1266 4.3904285
1264 4.7811623
1262 5.2072487
1260 5.646728
1258 6.0982838
1256 6.573863
1254 7.1011024
1252 7.7039309
1250 8.3901138
1248 9.1495113
1246 9.9449997
1244 10.736897
1242 11.493708
1240 12.190485
1238 12.814044
1236 13.343157
1234 13.734254
1232 13.94932
1230 13.969031
1228 13.794909
1226 13.460464
1224 12.998206
1222 12.419848
1220 11.738428
1218 10.97777
1216 10.180612
1214 9.4101429
1212 8.7232714
1210 8.1432819
1208 7.6668329
1206 7.2512608
1204 6.8503819
1202 6.4303713
1200 5.9699798
1198 5.4675083
1196 4.92765
1194 4.3594699
1192 3.7765851
1190 3.2001989
1188 2.6522403
1186 2.1526823
1184 1.7180281
1182 1.3590238
1180 1.0854477
1178 0.90683585
1176 0.82399601
1174 0.81822842
1172 0.85922986
1170 0.90292597
1168 0.9142983
1166 0.88659823
1164 0.8267101
1162 0.75642049
1160 0.6953547
1158 0.64986581
1156 0.61978328
1154 0.59703422
1152 0.56975663
1150 0.52241015
1148 0.44493422
1146 0.34240431
1144 0.22796977
1142 0.12429276
1140 0.049622882
1138 0.0074469149
1136 0.0053422078
1134 0.067593887
1132 0.21167554
1130 0.4285844
1128 0.69615459
1126 0.97687322
1124 1.238674
1122 1.4723839
1120 1.67984
1118 1.876757
1116 2.0800571
1114 2.3011558
1112 2.5407748
1110 2.7767267
1108 2.9832373
1106 3.1400299
1104 3.2407148
1102 3.3099055
1100 3.3766572
1098 3.4613764
1096 3.5816143
1094 3.7528286
1092 3.9980259
1090 4.3588505
1088 4.8649497
1086 5.50105
1084 6.2213421
1082 6.9308219
1080 7.5358372
1078 7.9808998
1076 8.239028
1074 8.3359356
1072 8.3150425
1070 8.2326298
1068 8.1402035
1066 8.0669479
1064 8.0227604
1062 7.9800792
1060 7.9085364
1058 7.7955923
1056 7.6426229
1054 7.4762588
1052 7.320498
1050 7.1749787
1048 7.034276
1046 6.8954644
1044 6.7610364
1042 6.6466417
1040 6.562973
1038 6.4974637
1036 6.4258204
1034 6.3067698
1032 6.1000023
1030 5.7796502
1028 5.3372703
1026 4.8050957
1024 4.2314196
1022 3.681843
1020 3.2144716
1018 2.8514462
1016 2.591423
1014 2.3885136
1012 2.1907406
1010 1.961742
1008 1.684888
1006 1.3931521
1004 1.1248026
1002 0.89497572
1000 0.70444643
998 0.52568674
996 0.33338785
994 0.13095155
992 -0.070136562
990 -0.25572222
988 -0.41969633
986 -0.58357418
984 -0.76800102
982 -0.96823078
980 -1.16347
978 -1.3015374
976 -1.3327514
974 -1.243207
972 -1.038426
970 -0.75977892
968 -0.4580279
966 -0.18361485
964 0.020567395
962 0.13797571
960 0.16839051
958 0.14510599
956 0.10472196
954 0.066400476
952 0.041067917
950 0.026030999
948 0.015099459
946 0.0022759754
944 5.1736832e-05
942 0.085396424
940 0.31059295
938 0.58180851
936 0.78020459
934 0.82869154
932 0.68992233
930 0.4343366
928 0.15874073
926 -0.042011756
924 -0.092054337
922 0.015062585
920 0.24832995
918 0.50080764
916 0.65776759
914 0.64740103
912 0.44379836
910 0.15666386
908 -0.08246728
906 -0.18874452
904 -0.1159915
902 0.076174304
900 0.31562236
898 0.58560586
896 0.88327998
