##TITLE=octarelline 6 front
##JCAMP-DX=4.24
##DATA TYPE=INFRARED SPECTRUM
##DATE=31/1/2005
##TIME=16:59:6
##SAMPLING PROCEDURE=film
##ORIGIN=Vincent
##DATA PROCESSING=no operation
##XUNITS=1/CM
##YUNITS=ABSORBANCE
##RESOLUTION=2
##FIRSTX=4000.283
##LASTX=800.31372
##DELTAX=-0.64282227
##MAXY=0.23598494
##MINY=-0.004485318
##XFACTOR=1
##YFACTOR=2.197781e-010
##NPOINTS=4979
##FIRSTY=0.0048107393
##XYDATA=(X++(Y..Y))
4000.28+21889075+22048194+21980900+21752838+21237024+20447252+19913932+20132978
3995.14+20740746+20827638+20147734+19460216+19496492+20040406+20333246+20047664
3990.00+19488048+19068438+18943928+19050482+19221262+19295954+19253612+19196522
3984.86+19206514+19297736+19447366+19571076+19560966+19426196+19222212+18856170
3979.71+18295224+17885732+18029194+18537870+18826320+18740354+18689818+18921216
3974.57+19193432+19286318+19351496+19583448+19868604+19961046+19823392+19653990
3969.43+19678614+19981394+20455106+20855012+20962264+20724082+20259824+19802338
3964.28+19615924+19770098+19957004+19828630+19558586+19672188+20216154+20597684
3959.14+20411670+19886688+19371360+18920742+18581620+18504460+18640356+18803968
3954.00+19077834+19660294+20341814+20609348+20262442+19578452+18928588+18461778
3948.86+18091716+17669670+17258644+17163594+17563192+18175398+18506006+18327440
3943.71+17823694+17365938+17223356+17422972+17820246+18271804+18676384+18925974
3938.57+19034188+19224948+19670048+20188190+20470338+20477004+20292432+19752372
3933.43+18667822+17410256+16782490+17108228+17833082+18253856+18344796+18606114
3928.29+19309988+20138334+20484266+19986512+18845468+17683810+17047280+17080310
3923.14+17657192+18527288+19203064+19143838+18363700+17565568+17338132+17430814
3918.00+17156704+16372597+15737557+15907936+16774649+17769734+18682210+19652562
3912.86+20516158+20860488+20684686+20353358+20006974+19673140+19631982+19933922
3907.72+20008522+19416562+18294748+16562271+13817774+10610943+8437656+7794994
3902.57+7730904+7764248+8480121+9871805+10921574+11268263+11810510+13304028
3897.43+15501075+17734796+19452244+20311826+20453678+20387986+20099542+18728106
3892.29+15756318+12307750+10604785+11827334+14942268+18030500+20059684+20647432
3887.15+19037874+14919245+10222457+8281761+10345944+14359653+17714472+19459262
3882.00+19590942+18055104+15429850+13456998+13669637+15820192+18444898+20531630
3876.86+21928734+22470222+21609940+19257656+16588044+15427000+16502170+18362868
3871.72+18331956+14818611+9006696+4364765+4004177+8101515+14006253+18434436
3866.58+19373264+16860890+12977728+10741796+11736336+14562423+16545998+16889758
3861.43+17119396+18539414+20620296+22190050+22702064+22103338+20892510+19992102
3856.29+18671982+13522697+2355400-11082800-19358730-19504050-14845908-8436847
3851.15-437159+8331438+15329547+19240054+21062378+22199580+23165106+23931408
3846.01+24180468+23332310+21249880+18853198+17523264+17738718+18461778+18280602
3840.86+17129732+15885376+14005185+9624069+3285322-606249+1263855+6442819
3835.72+10339669+12109478+13987747+16709911+18447038+17868262+16134375+15554258
3830.58+17131040+19772716+21705800+22156698+21473244+20247566+19061542+18669012
3825.44+19458310+20815020+21589100+20802282+17733012+12443102+6857274+4057051
3820.29+5426135+9501573+14014319+17175358+17004038+12209855+4932396+619396
3815.15+2915731+9750241+16390887+20374182+22155034+22923920+23287380+23466158
3810.01+23599056+23416812+21860852+17842352+12145624+8060832+8574992+12925681
3804.86+17669670+20380252+20336222+16850316+9808834+2076415-1328608+1794639
3799.72+8563872+14782180+18493878+19622108+18748436+17214562+16851978+18378204
3794.58+20688018+22292726+22839914+22934286+23104926+23348044+23375694+23039624
3789.44+22548136+22250918+22242938+22365988+22474988+22390050+21822266+20862988
3784.29+20281482+20714918+21808450+22666200+22768068+21975422+20295286+18255402
3779.15+16938580+17027560+18255520+20009354+21815594+23141988+23531830+23116724
3774.01+22510846+22147290+21978636+21508844+19997336+17179870+14094390+12638088
3768.87+13746729+16318087+18232456+18232100+16828460+15642700+15861629+17285852
3763.72+18916340+20110608+20826088+20943458+19964376+17747988+15349726+14374601
3758.58+15155304+16314523+16624508+16417609+16669881+17577214+18269548+16914226
3753.44+11519641+2625698-5081655-7174506-5637021-5947761-8785374-9294217
3748.30-4384172+3410029+9546546+10411776+3726374-8959381-19877216-20408394
3743.15-10853693+739458+8493843+12257735+14093915+15228060+15858541+15553072
3738.01+13579384+9846830+5412199+1753143+74558+1029332+3825737+5939374+5447631
3732.23+3627371+3795880+7279854+12039443+15547609+17170010+17466938+16766572
3727.08+15260108+13660386+12909676+13360591+14506537+15388066+15273285+14322044
3721.94+13582231+13962719+15235064+16408464+16905674+16984080+17211236+17911170
3716.80+18925022+19630676+19464616+18441212+16601108+13198021+7786834+2289011
3711.66+99293+2092568+5495702+7730431+9139692+11149573+13790375+16180331
3706.51+17917704+18955462+19186298+18805634+18215102+17316982+15722243+13760368
3701.37+12526428+12785199+14290012+16162160+17603714+18328984+18569374+18682092
3696.23+18766514+18645230+18162084+17490942+16940482+16248495+14577966+11876272
3691.09+9445003+7869135+5377358+458108-4563031-5120187-42400+7097454+12567914
3685.30+15499412+16691500+16896886+16669289+16557045+16807432+17196622+17222286
3680.16+16498965+15270316+14312317+13658963+11634799+6259196-1983164-9293747
3675.01-11310240-6933912+1022968+8264847+11342536+9094254+3474805-1466787
3669.87-2835340-890704+2787281+7360598+12073572+15618956+17396356+18092430
3664.73+18434910+18503390+18432892+18519204+18659262+18718474+19020750+19659818
3659.59+20106564+19990318+19124094+16742458+12501417+8325524+7193557+9706685
3654.44+13696084+16934302+18318524+17232266+13666078+8595220+3243204-1443483
3649.30-4265942-4175913-1656031+1713415+5199149+9124664+13411936+17191516
3644.16+19719774+20862154+20956790+20713132+20833352+21357154+21722588+21573622
3639.02+21137618+20847752+20990120+21587672+22273550+22377424+21460622+19813758
3633.87+18421000+18341230+19785444+21506702+21252620+17279318+9950407+2192909
3628.73-2005755-533952+5189346+11827691+16970420+20178314+22099884+23335288
3623.59+24095934+24424314+24293502+23426586+21384420+18264080+15219515+13711029
3618.45+14200799+16049591+18476758+20831326+22319648+22456164+21595176+20331104
3613.30+18881496+17763080+18087558+19900370+21192140+20072416+17283358+15351270
3608.16+15624893+17361660+19461878+21703654+24166518+26416744+27725206+27848238
3603.02+27271240+26661226+26324356+26291534+26554976+26919344+27070270+27073970
3597.88+27316622+27700238+27580440+26800786+26058912+25999838+26599506+27560496
3592.73+28643124+29567096+30103860+30144762+29420998+27677188+25368022+23531594
3587.59+22739354+22847302+23834844+25868566+28472006+30609438+31768900+32324228
3582.45+32809050+33330054+33701424+33767316+33543160+33177810+32866774+32812646
3577.31+33168468+33839328+34430592+34636388+34603784+34714660+35132932+35708872
3572.16+36196088+36486528+36687620+36842896+36518680+35082692+32587998+29973990
3567.02+28241760+27851226+28881906+31068592+33647392+35815852+37367720+38483000
3561.88+39143172+39257792+39124908+39264396+39874108+40667844+41197288+41236256
3556.74+40960264+40738660+40792284+41087488+41406680+41399220+40889196+40330860
3551.59+40530180+41648208+42939476+43662304+43749128+43461464+42965832+42450596
3546.45+42243380+42593196+43483140+44652356+45765008+46676392+47501212+48292580
3541.31+48843388+48986824+48860416+48706004+48662064+48818040+49163588+49485176
3536.17+49623940+49735056+50057216+50622180+51360644+52168312+52752868+52826660
3531.02+52515300+52185968+51937704+51642924+51351936+51250760+51402952+51827916
3525.88+52559568+53391804+53940532+54128160+54270764+54541964+54741384+54751804
3520.74+54872048+55486720+56553856+57539228+57888624+57575736+57160568+57233676
3515.59+57909604+58917496+59961112+60801576+61231600+61261000+61163936+61113516
3510.45+60989240+60758456+60762708+61312024+62226836+63100012+63769188+64259608
3505.31+64545920+64657768+64802960+65098856+65379704+65476128+65508636+65778212
3500.17+66469488+67441416+68254968+68571504+68605152+68866856+69405496+69752360
3495.02+69767976+69972000+70713456+71540792+71805208+71567904+71498424+71993328
3489.88+72727592+73155328+73188944+73188576+73447352+74022464+74932664+76033248
3484.74+76797312+76793264+76349192+76155776+76331192+76463176+76410768+76436848
3479.60+76703752+77183920+77873328+78647536+79134424+79078632+78659056+78295312
3474.45+78330120+78806144+79351664+79533872+79550800+80121920+81436248+82721984
3469.31+83201392+83002512+82812368+83094400+83849520+84754432+85330264+85274184
3464.17+84777784+84353672+84340520+84687048+85147272+85535896+85793696+85913880
3459.03+85940344+86028536+86348664+86824296+87174824+87341752+87616416+88170680
3453.88+88720024+88855536+88527368+88038160+87745456+87877584+88431656+89106144
3448.74+89457464+89262008+88748608+88462336+88786792+89543736+90200592+90536568
3443.60+90897392+91612704+92426496+92819752+92699280+92427488+92284944+92270504
3438.46+92358000+92605704+92950248+93181984+93214328+93230760+93471416+93955304
3433.31+94444376+94618704+94320704+93738288+93315584+93397456+93958880+94686664
3428.17+95263296+95561312+95587648+95314584+94675296+93847224+93387696+93761520
3423.03+94748448+95589256+95763064+95403080+94997576+94904392+95085192+95189136
3417.89+94985096+94699384+94677144+94811344+94729048+94459808+94441032+94905136
3412.74+95680864+96463320+96920592+96754592+96041384+95296168+94928480+94860264
3407.60+94845448+94855824+95019440+95379720+95798552+95977200+95742176+95345496
3402.46+95269848+95669608+96288568+96827688+97044912+96685568+95755904+94749680
3397.32+94188896+94112544+94282024+94574712+94879552+94968032+94807640+94706432
3392.17+94877944+95142424+95275648+95343384+95455256+95424344+94989168+94256208
3387.03+93655800+93453640+93517848+93602192+93648256+93699016+93729280+93726064
3381.89+93795112+93948880+93947640+93649112+93381152+93574904+94046464+94133056
3376.75+93642824+93164944+93215208+93542176+93607872+93345704+93122224+93253472
3371.60+93842280+94729912+95405560+95341408+94624880+93928872+93716312+93799680
3366.46+93697904+93139024+92239032+91440224+91152936+91331432+91601584+91798752
3361.32+92018504+92192016+92134128+91946568+91872776+91891776+91896968+92018632
3356.18+92279264+92267904+91681912+90866448+90401680+90455560+90865568+91498952
3351.03+92250496+92926416+93339040+93365712+92948024+92212744+91499936+91052048
3345.89+90759392+90358160+89776056+89203120+88874392+88833120+88925760+89044528
3340.75+89306240+89834480+90475544+90903928+90920328+90542120+89953312+89479888
3335.60+89342728+89379456+89272856+89080880+89145328+89473480+89661296+89491104
3330.46+89192888+89041336+89071272+89229608+89490376+89722800+89708008+89348144
3325.32+88768320+88217480+87967728+88201584+88842480+89516736+89817096+89623216
3320.18+89170344+88841128+88895584+89303664+89713072+89643200+88881400+87787200
3315.03+87093224+87255088+88071280+89026920+89848160+90493656+90793424+90518696
3309.89+89816848+89169848+88905440+89018048+89472256+90275056+91230288+91903256
3304.75+91922992+91240264+90201832+89425544+89293928+89488520+89418272+89082976
3299.61+89005240+89330280+89651936+89733896+89759664+89837064+89816848+89567888
3294.46+89053896+88360472+87925728+88286816+89283336+90054264+90079536+89674856
3289.32+89327200+89161720+89109592+89026056+88655848+87958112+87267272+86809512
3284.18+86410440+85952888+85631832+85550896+85527888+85426312+85294960+85209000
3279.04+85277752+85539088+85681264+85273808+84394856+83509880+82764112+82041696
3273.89+81479944+81214232+80955296+80541328+80387616+80631992+80554584+79645096
3268.75+78551328+78146064+78309408+78352792+78040696+77556520+76966544+76219800
3263.61+75357936+74463928+73618248+72946704+72502152+72195744+71944832+71656080
3258.47+71084472+70108304+69158856+68842232+69094568+69209472+68696984+67654352
3253.32+66368632+65110664+64287468+64205464+64628552+64981388+65037868+65018036
3248.18+65014384+64755984+64083424+63316120+62916888+62953968+63073132+62949596
3243.04+62588012+62168860+61741188+61172680+60361076+59456352+58849420+58850756
3237.90+59299896+59592300+59268216+58540624+58024704+57994260+58127320+58019848
3232.75+57678320+57383412+57225304+56971320+56403812+55624576+54963120+54671032
3227.61+54830512+55377460+56025128+56292560+55901656+55102876+54397276+53991004
3222.47+53724124+53402820+52976552+52503692+52110264+51903964+51876156+51981352
3217.33+52251032+52615812+52749480+52382008+51678592+51093628+50921276+51136172
3212.18+51445016+51412260+50851420+50191556+50085608+50542672+50838856+50428604
3207.04+49593144+48992256+48882388+48985980+48962796+48768176+48559576+48397468
3201.90+48171884+47796820+47377556+47133268+47174404+47368140+47431600+47167044
3196.76+46633696+46051188+45643864+45613004+46069156+46785060+47208056+46972964
3191.61+46295824+45673396+45411488+45584924+46114728+46604400+46498636+45727032
3186.47+44911992+44630064+44781152+44902236+44785004+44518876+44257364+44158956
3181.33+44311924+44566336+44654284+44553328+44473700+44473340+44408168+44331800
3176.18+44620548+45464276+46431228+46836912+46521072+45999112+45760184+45696416
3171.04+45456680+45084544+44942232+45172028+45617220+46120996+46557848+46727164
3165.90+46567856+46321744+46255072+46407476+46743928+47250160+47744332+47933660
3160.76+47758936+47440888+47171632+46975976+46766480+46383124+45791408+45284824
3155.61+45191912+45403052+45616260+45903272+46468136+47064148+47254864+47079952
3150.47+46879732+46708956+46429420+46121120+45973312+45973072+45957160+45756448
3145.33+45263012+44625004+44257116+44306984+44374684+44076332+43557912+43125692
3140.19+42807916+42602708+42662764+42896864+42845108+42300056+41664208+41410168
3135.04+41511084+41612604+41499052+41214248+40891604+40622756+40410564+40240828
3129.90+40176396+40236740+40200552+39805248+39247820+39111096+39590740+40102472
3124.76+39963048+39182700+38297456+37689544+37396764+37394968+37673700+38089232
3119.62+38415628+38562264+38625320+38719732+38837080+38881412+38811976+38673724
3114.47+38500896+38279924+38023676+37734092+37332192+36837496+36515564+36567392
3109.33+36802580+36949456+37046184+37146756+36995300+36462300+35917324+35710552
3104.19+35693520+35625400+35540256+35422856+35123340+34856112+35099844+35766556
3099.05+36144264+35882780+35447680+35432932+35860948+36273940+36215280+35622880
3093.90+34918688+34586524+34627880+34631472+34371380+34049736+33960704+34185868
3088.76+34599588+34969996+35119020+35102360+35137608+35298032+35437248+35439644
3083.62+35318416+35069744+34695360+34377260+34343940+34530548+34653168+34643096
3078.48+34730604+35061476+35507400+35864308+35941308+35551052+34763808+34060640
3073.33+33877788+34099588+34321404+34371980+34268796+34004204+33679856+33499078
3068.19+33400126+33158282+32942822+33125948+33522074+33565444+33255666+33126786
3063.05+33321182+33461822+33378926+33232668+33076122+32919110+32967854+33262132
3057.91+33393898+33051210+32500470+32156260+32048518+31978856+31876986+31758248
3052.76+31608160+31441810+31321784+31311732+31462280+31713966+31808880+31538512
3047.62+31089890+30866278+30971080+31153664+31242570+31327290+31506794+31683324
3042.48+31700200+31543296+31361396+31274276+31186090+30894632+30400226+29943496
3037.34+29679958+29530270+29430682+29479938+29684860+29842096+29848550+29889206
3032.19+30133998+30476300+30745808+30945360+31108080+31118366+30868550+30487428
3027.05+30242350+30284092+30573306+30972158+31314244+31442528+31317116+31095634
3021.91+31008170+31095156+31153664+31030544+30869026+30940452+31298692+31726888
3016.76+31994652+32055822+31983878+31829344+31567710+31192432+30843306+30771648
3011.62+31092282+31599542+31967716+32082874+32066234+32005904+31840716+31549518
3006.48+31323102+31410698+31824560+32292380+32534956+32528610+32448384+32418092
3001.34+32423244+32473650+32714568+33253392+33960340+34587724+35047568+35418664
2996.19+35726740+35930992+36057180+36153620+36207724+36312092+36704660+37377324
2991.05+37901208+37955596+37738652+37585108+37586784+37823052+38436160+39224632
2985.91+39748400+40035044+40521764+41192836+41548132+41542840+41763328+42509560
2980.77+43401508+43985280+44201352+44230980+44329148+44750304+45528032+46390596
2975.62+47094308+47675068+48297884+49024972+49792556+50496392+51094108+51633252
2970.48+52121508+52451920+52605168+52756736+53023372+53360948+53861376+54768144
2965.34+55982108+56955196+57326180+57327032+57361584+57564696+57907176+58338632
2960.20+58724924+58929260+59027796+59132052+59057168+58556400+57827248+57371288
2955.05+57311632+57267016+56952164+56522588+56197436+55906020+55495564+54992788
2949.91+54524888+54171856+54005536+54066904+54264104+54446068+54590032+54785100
2944.77+55071508+55387996+55637540+55761116+55829932+56047056+56506708+56950592
2939.63+56995808+56636036+56337160+56558220+57251132+57899292+58044356+57759212
2934.48+57551116+57773648+58219264+58442476+58377448+58364716+58570108+58699688
2929.34+58504712+58243892+58328440+58716436+59031080+59093696+58941280+58522184
2924.20+57825432+57164564+56876884+56836760+56628396+56091648+55417308+54840928
2919.06+54451396+54155392+53738528+53160088+52770528+52913400+53314728+53239096
2913.91+52376808+51253180+50587984+50466064+50362516+49897160+49270820+48896996
2908.77+48858360+48872004+48666408+48249128+47846656+47585304+47224948+46431108
2903.63+45374012+44709096+44773916+45200344+45493564+45542260+45409076+45121780
2898.49+44859940+44839464+44928864+44813920+44499724+44246760+44136308+44038516
2893.34+43820296+43367432+42667336+41985772+41661440+41728564+42035224+42527248
2888.20+43088860+43388508+43244992+42868940+42506428+42216184+42107656+42340244
2883.06+42766872+43002184+42928280+42818628+42968360+43444124+44085488+44549232
2877.92+44523936+44033696+43417400+42972940+42781676+42811048+42971488+43102944
2872.77+43101740+43011816+42865208+42553608+42025480+41508556+41295548+41310340
2867.63+41118636+40457808+39576316+38890656+38550256+38508940+38761772+39205164
2862.49+39488480+39357872+39033248+38923208+39055592+39064124+38698588+38108444
2857.34+37605756+37323908+37207728+37231008+37435656+37717524+37813804+37626764
2852.20+37403012+37449464+37788352+38194904+38404216+38247980+37774788+37246616
2847.06+36876860+36610228+36310772+36007636+35771712+35486172+34971560+34274908
2841.92+33702620+33543640+33755580+33932068+33687404+33099120+32613262+32510048
2836.77+32676008+32853962+32844978+32540584+32052588+31745680+31855916+32156978
2831.63+32247244+32045888+31762078+31527380+31310774+31089052+30870344+30611946
2826.49+30311240+30119528+30186618+30395800+30465296+30377382+30452498+30846536
2821.35+31248792+31342848+31300364+31473524+31832098+32053190+31992496+31747238
2816.20+31450310+31249032+31278826+31436786+31403160+31053756+30636588+30448310
2811.06+30547114+30785880+30948590+30881350+30683004+30680252+31041550+31501648
2805.92+31651848+31397054+31011880+30817586+30927774+31248674+31574294+31722582
2800.78+31695650+31693140+31873396+32118670+32167394+31931808+31526184+31083070
2795.63+30748200+30694488+30876806+30945360+30714226+30508356+30704534+31171972
2790.49+31522352+31676622+31828866+32051990+32231082+32262930+32160330+32031404
2785.35+31994052+32029968+32028046+32017512+32169428+32514120+32868332+33098278
2780.21+33235304+33338316+33397374+33375810+33277584+33236502+33465174+33953156
2775.06+34370304+34497948+34544332+34777832+35124060+35377532+35527424+35619648
2769.92+35612092+35554288+35611128+35794140+35940948+36045784+36329124+36906012
2764.78+37594468+38115172+38384164+38549420+38758888+38983756+39138968+39277968
2759.64+39484392+39707544+39911492+40240580+40788436+41366864+41788592+42160712
2754.49+42656144+43197800+43626784+43968780+44350228+44825844+45424140+46171632
2749.35+46995280+47723216+48241760+48573940+48848460+49220828+49768880+50422200
2744.21+51079732+51744728+52454340+53139524+53716020+54258048+54915640+55718468
2739.07+56592884+57521284+58551428+59669136+60773640+61787128+62769160+63901180
2733.92+65309452+66840444+68143040+69092984+70009704+71261280+72805552+74339800
2728.78+75746968+77138480+78575832+80046616+81650568+83544784+85713864+87916736
2723.64+89887600+91574080+93215448+95133760+97388984+99776616+102184616
2719.14+104708568+107353760+109920680+112288216+114553760+116853640+119288304
2714.64+121984784+124961976+128029760+131065800+134225888+137636112+141117632
2710.14+144467824+147761008+151147520+154619600+158140016+161755824+165430480
2705.64+169002704+172397040+175709312+179079136+182651968+186577504+190832272
2701.14+195100272+199086960+202907472+206954848+211418416+216083664+220621360
2696.64+224921520+229109920+233318064+237530400+241705680+245983856+250572224
2692.14+255356144+259867520+263861600+267712848+271958656+276638784+281384128
2687.64+285994016+290583904+295265792+300011040+304766752+309485632+314115232
2683.14+318715008+323429216+328205952+332757280+336997760+341291488+346019072
2678.64+350997792+355634880+359666016+363504768+367741536+372484672+377376448
2674.14+382126688+386766112+391396096+395974624+400420448+404755520+409054528
2669.64+413390944+417867072+422609376+427659104+432879200+437960096+442539776
2665.14+446421440+449786560+453193152+457225120+461992000+467027104+471803168
2660.64+476290432+480807360+485448288+489977376+494278048+498559552+503055296
2656.14+507763040+512512480+517106976+521403200+525412544+529356864+533508704
2651.64+537963008+542589376+547196160+551709312+556149120+560482816+564652864
2647.14+568787200+573131648+577659584+582016960+586047168+590084992+594513600
2642.64+599258880+603913280+608231488+612378304+616728512+621441984+626256192
2638.14+630804288+635035456+639154944+643295744+647500800+651833984+656262720
2633.64+660642304+664969856+669360832+673714304+677842112+681916864+686300608
2629.14+690951104+695514048+699890112+704227008+708497408+712555456+716455680
2624.64+720386816+724466432+728731648+733079360+737204160+740919424+744494080
2620.14+748334144+752474624+756693952+760921024+765202688+769454592+773553088
2615.64+777519744+781419392+785224384+788920896+792649856+796601856+800798272
2611.14+805040960+809106112+812975936+816823168+820784384+824808256+828721984
2606.64+832403456+835872512+839226688+842494656+845638976+848740096+852020096
2602.14+855558144+859151360+862594368+865938112+869328448+872765056+876128256
2597.64+879324480+882351424+885292736+888245376+891221120+894185984+897154176
2593.15+900134592+903087040+906053248+909144576+912267456+915138240+917671552
2588.65+920076224+922511744+925015616+927684864+930523328+933208640+935444736
2584.15+937397760+939464064+941817536+944400320+947056320+949567360+951860608
2579.65+954171008+956646848+958982400+960861760+962497600+964314176+966358016
2575.15+968367232+970169408+971781824+973333056+974986752+976767360+978560576
2570.65+980372288+982305088+984210944+985761856+986938432+988052800+989312832
2566.15+990738368+992336896+993993088+995418304+996553536+997702848+999053952
2561.65+1000473216+1001868416+1003331904+1004850688+1006305920+1007687680
2557.79+1008963008+1009932544+1010565248+1011203712+1012108800+1013155968
2553.93+1014205696+1015361984+1016664320+1017915456+1019001536+1020052992
2550.08+1021175104+1022286464+1023285504+1024158080+1024908224+1025569920
2546.22+1026265280+1027126336+1028178560+1029323136+1030389888+1031218496
2542.36+1031824640+1032473152+1033451840+1034745152+1036042112+1037053952
2538.51+1037741952+1038279552+1038906688+1039758912+1040718976+1041495616
2534.65+1041966720+1042358720+1042995904+1043976000+1045182080+1046428352
2530.79+1047496768+1048236288+1048762560+1049378176+1050231296+1051220864
2526.93+1052230272+1053203264+1053968512+1054316800+1054364032+1054583552
2523.08+1055340928+1056518144+1057675392+1058507840+1059076160+1059630528
2519.22+1060327360+1061153344+1062020608+1062793600+1063314304+1063604608
2515.36+1063987776+1064756160+1065733504+1066449088+1066769792+1067062464
2511.51+1067681152+1068577920+1069502208+1070295232+1070855552+1071109056
2507.65+1071193088+1071412032+1071823936+1072139648+1072204672+1072245760
2503.79+1072448192+1072664064+1072783680+1072993024+1073378688+1073686912
2499.94+1073741824+1073699392+1073645056+1073378176+1072873472+1072487808
2496.08+1072448448+1072481856+1072195072+1071554816+1070790848+1070037952
2492.22+1069245120+1068352512+1067451520+1066727936+1066257792+1065913216
2488.36+1065494656+1064902336+1064132864+1063206976+1062144640+1060980352
2484.51+1059768448+1058567936+1057374720+1056093440+1054680768+1053259072
2480.65+1051941824+1050659392+1049307520+1047919424+1046537024+1045077120
2476.79+1043520832+1041999808+1040556992+1039038912+1037327040+1035469952
2472.94+1033535552+1031534720+1029495104+1027433600+1025345856+1023350080
2469.08+1021636672+1020141440+1018498816+1016476544+1014247872+1012090304
2465.22+1010040896+1007990464+1005939136+1003983680+1002117568+1000169792
2461.37+997985728+995634304+993373312+991380992+989542656+987530624+985125248
2456.87+982456512+979929344+977828032+976042432+974263616+972392192+970571264
2452.37+968845312+967005312+964864896+962534592+960342336+958523904+957027200
2447.87+955600832+954049280+952380352+950704704+949062720+947397120+945646016
2443.37+943810624+941948288+940146240+938496960+937069504+935833408+934595904
2438.87+933144640+931526144+930029248+928807680+927687808+926467648+925185472
2434.37+923961024+922803200+921704128+920711808+919791040+918842048+917897792
2429.87+917099264+916418432+915623232+914587008+913455104+912435840+911558912
2425.37+910731456+909933568+909230848+908601408+907877888+906973376+906043328
2420.87+905291328+904675968+903963456+903063296+902181568+901573504+901210688
2416.37+900805952+900179008+899463040+898852288+898301248+897641664+896845632
2411.87+896000192+895159808+894377920+893714624+893097856+892381824+891589440
2407.37+890849536+890111040+889230976+888278656+887391872+886432320+885171520
2402.87+883719232+882405824+881340928+880390144+879464768+878568640+877640896
2398.37+876553088+875236480+873762368+872327616+871116800+870080960+868950720
2393.87+867551936+865992128+864484864+863128832+861893248+860662144+859258688
2389.37+857573632+855700480+853849792+852136320+850504128+848814720+846970816
2384.87+844996032+843046400+841268544+839618624+837895360+835963776+833897088
2380.37+831877312+830007104+828219904+826341440+824222144+821851776+819344064
2375.87+816817024+814317184+811853568+809430656+807010624+804502400+801863680
2371.37+799195904+796675136+794347456+792009216+789385856+786459072+783507520
2366.87+780764224+778182400+775623488+773097088+770641728+768156352+765529920
2362.37+762798272+760056896+757373312+754872000+752681152+750680320+748547648
2357.87+746156864+743730816+741539520+739623616+737849792+736091200+734305280
2353.37+732531328+730825216+729175744+727524992+725828224+724011712+721926400
2348.87+719447296+716611712+713581312+710514560+707516416+704609600+701711936
2344.37+698718592+695638144+692586368+689654144+686888576+684357248+682101888
2339.87+679991360+677749952+675215040+672495808+669832064+667325888+664890240
2335.37+662422592+659949824+657587072+655397952+653321152+651194944+648872064
2330.87+646354816+643836544+641541568+639488000+637435200+635139712+632631488
2326.37+630147648+627814656+625556160+623329984+621240320+619305472+617324864
2321.87+615149056+612920576+610836544+608809856+606595072+604168576+601738688
2317.37+599409280+597076096+594680192+592355136+590218752+588188800+586113152
2312.87+583956864+581780736+579628992+577503424+575351360+573054400+570561984
2308.37+568020608+565630016+563409152+561248896+559106432+556984064+554810944
2303.88+552508288+550115456+547732864+545443136+543288832+541203520+539009024
2299.38+536634144+534260704+532091744+530083136+528048096+525887392+523596768
2294.88+521216064+518857472+516627168+514479776+512277856+509984064+507667168
2290.38+505379264+503111104+500824032+498491776+496182656+494047584+492124608
2285.88+490246208+488233952+486062016+483775616+481422816+479116288+476960384
2281.38+474897728+472799520+470666336+468592224+466585856+464568288+462477728
2276.88+460288000+458000320+455683552+453467072+451460768+449696352+448056128
2272.38+446292288+444246304+442045344+439937472+437973440+436017184+433996384
2267.88+431975296+430024512+428150080+426319680+424475456+422563872+420562080
2263.38+418459008+416272128+414124384+412186208+410470688+408800000+407004672
2258.88+405068544+403098176+401239264+399545984+397864320+395959104+393815200
2254.38+391661440+389698432+387959392+386394016+384870784+383165600+381168416
2249.88+379042496+377002432+375087776+373268032+371573856+369965952+368289824
2245.38+366484192+364651552+362892704+361240928+359729024+358305248+356785152
2240.88+355069952+353289056+351532352+349692864+347760128+345967136+344405344
2236.38+342828768+341084352+339391296+337920672+336446752+334728352+332931808
2231.88+331343232+329911872+328393824+326774816+325262400+323927136+322569536
2227.38+320967104+319168064+317463360+316017600+314609792+312906368+310966144
2222.88+309208352+307836992+306590240+305165344+303591200+302048064+300579808
2218.38+299173888+297901504+296768032+295580096+294163648+292602304+291096096
2213.88+289675392+288229760+286739584+285295456+283923040+282559776+281200768
2209.38+279899232+278610304+277200800+275664096+274194144+272965600+271906240
2204.88+270760576+269360576+267772336+266176064+264672096+263280176+262056240
2200.38+261060624+260192608+259234736+258083504+256789536+255404688+253968640
2195.88+252603888+251430816+250391616+249348944+248283984+247238816+246150336
2191.38+244926832+243604448+242292240+241036368+239831344+238682480+237583136
2186.88+236502176+235397936+234232544+233010960+231806704+230678096+229579232
2182.38+228459952+227384512+226441856+225603584+224778208+223885872+222827680
2177.88+221553216+220202496+219001520+217994368+217055664+216131888+215260128
2173.38+214406096+213489168+212495824+211433376+210280816+209101328+208059792
2168.88+207222848+206480144+205710560+204908320+204117632+203332800+202470032
2164.38+201422736+200210592+199043728+198094048+197261984+196325296+195255904
2159.88+194205376+193266240+192425680+191637248+190785040+189710736+188445616
2155.38+187273264+186421776+185812624+185229904+184601728+183990800+183404624
2150.88+182751584+181972032+181126976+180320592+179566656+178778960+177899808
2146.38+176987440+176136880+175375408+174677776+174030432+173409408+172733792
2141.88+171926480+171019920+170133712+169326928+168560096+167806784+167118224
2137.38+166538032+166025680+165514752+164981920+164415936+163791120+163102816
2132.88+162350544+161490576+160521488+159593344+158880848+158341248+157759312
2128.38+157053328+156378320+155883232+155496720+155016640+154348192+153575696
2123.88+152801088+152003904+151153520+150403360+149958432+149738640+149395728
2119.39+148755616+148020704+147440672+146993504+146517888+145971872+145428944
2114.89+144935856+144457312+143911888+143261872+142593552+142041456+141620416
2110.39+141225680+140788384+140287968+139657200+138851280+137996160+137302384
2105.89+136855360+136580704+136335984+135963632+135389248+134718816+134087592
2101.39+133449112+132716368+132027584+131605560+131408280+131189248+130835608
2096.89+130407144+129952256+129491664+129074208+128690616+128261120+127779696
2092.39+127305904+126784176+126106872+125375568+124855096+124628144+124489016
2087.89+124216944+123809616+123418168+123143736+122917608+122584728+122095528
2083.39+121558632+121054664+120511016+119861272+119226624+118800440+118581800
2078.89+118332304+117835168+117140184+116504408+116089168+115797408+115433248
2074.39+114944208+114419336+113951632+113579088+113290688+113033000+112764384
2069.89+112502048+112245952+111918728+111483272+111027720+110614000+110162632
2065.39+109632688+109162864+108854952+108575064+108144336+107613800+107173208
2060.89+106866960+106577040+106240312+105954352+105812432+105747208+105585920
2056.39+105244776+104793384+104353768+103989872+103716640+103507744+103300736
2051.89+103029960+102681184+102261384+101751904+101167936+100627864+100264392
2047.39+100080392+99961328+99805848+99565032+99211912+98745936+98216312
2042.89+97670008+97120632+96610360+96233784+96029392+95915512+95769752+95499992
2037.75+95047624+94472784+94023112+93893544+93907864+93680368+93097288+92440568
2032.60+92031832+91932880+91963096+91866488+91551248+91232136+91177240+91278872
2027.46+91160224+90723504+90230432+89822648+89367504+88833728+88410968+88191488
2022.32+88056016+87923512+87824016+87717136+87450328+86934192+86247536+85594688
2017.18+85190064+85089240+85138168+85131776+84966144+84617832+84147176+83767440
2012.03+83677112+83747408+83616168+83171664+82691032+82431912+82346560+82285776
2006.89+82222176+82153416+81973424+81581696+81029288+80494224+80157864+80105976
2001.75+80261024+80399512+80292176+79867800+79255056+78687000+78343600+78239304
1996.61+78236120+78184664+78021328+77730224+77260232+76575928+75791032+75187624
1991.46+75002024+75150072+75246232+74986000+74469312+74068928+74044960+74359728
1986.32+74783296+75040080+74948576+74581472+74243552+74176416+74333688+74500384
1981.18+74502832+74256032+73765448+73164616+72646456+72319488+72196840+72270864
1976.04+72479920+72651840+72622264+72399272+72113400+71841376+71538480+71147472
1970.89+70721632+70392304+70181400+69900368+69345976+68606736+68082208+68137792
1965.75+68755264+69489688+69813248+69571416+69091400+68778320+68696616+68663800
1960.61+68600152+68552840+68483328+68307144+68104032+68032104+68039048+67891056
1955.47+67485544+66968376+66538192+66300184+66271196+66368028+66401892+66253536
1950.32+66063908+66086800+66342080+66545132+66382764+65784296+65007432+64483740
1945.18+64415240+64434092+63902028+62738036+61703520+61609588+62386572+63237188
1940.04+63598656+63625052+63745472+64054228+64295736+64275912+64061524+63815780
1934.90+63627116+63530544+63542216+63626880+63692188+63663488+63514968+63254704
1929.75+62920532+62591292+62365056+62289448+62301116+62296616+62283364+62302204
1924.61+62142500+61467304+60404916+59649716+59699368+60357560+61114608+61432064
1919.47+60644656+58548028+56346492+55931824+57659400+59847472+60902268+60866556
1914.32+60628744+60633480+60818336+61030908+61057028+60694448+60068684+59597152
1909.18+59546900+59816152+60155256+60446200+60715824+60913808+60838620+60447904
1904.04+60091144+60138988+60495028+60774004+60807040+60679632+60482036+60283360
1898.90+60180268+60191316+60246932+60275108+60149068+59758484+59313728+59228776
1893.75+59527964+59789684+59768444+59524928+58928896+57779104+56502828+55997736
1888.61+56589248+57700272+58644116+59213236+59495920+59587808+59557704+59472004
1883.47+59387164+59356332+59406828+59517280+59651420+59768320+59796128+59694144
1878.33+59510848+59329388+59227192+59297708+59567900+59887048+60043188+59966696
1873.18+59738700+59486328+59209956+58506048+56709124+53834868+51211236+50446848
1868.04+51762016+53992584+56042328+57572212+58536620+58878780+58777220+58663164
1862.90+58823820+59190300+59535000+59747196+59842252+59793572+59530028+59142968
1857.76+58884368+58882184+59064812+59375876+59771476+60090052+60242808+60400544
1852.61+60665544+60823680+60700400+60432968+60136920+59697424+59063720+58497436
1847.47+58373936+58582004+57904872+54661708+49099836+44746448+45404496+50505332
1842.33+55827268+58515268+59009960+58875020+58878908+59091028+59260576+58996496
1837.19+58402928+58203736+58744700+59500164+59851236+59725224+59394932+59085816
1832.04+58537476+56900528+53882312+51014820+50579160+52990344+56411088+58781104
1826.90+59056436+57254892+54662436+53390836+54449944+56741968+58674932+59797580
1821.76+60416824+60699552+60703312+60552348+60246688+59732384+59170636+58805132
1816.62+58711816+58879148+59275012+59707496+59880744+59646440+59019184+58065220
1811.47+57027444+56433504+56750340+57825676+58882304+59285212+59209352+59268460
1806.33+59616332+59898704+59971184+59940712+59572272+58502168+57033996+55859124
1801.19+55028760+54141832+53450256+53782580+55303572+57123832+58194520+58214172
1796.05+57787832+57685236+57483208+55405560+50626892+45443904+43604868+46109788
1790.90+50457244+54133120+56627792+58223392+59018700+59331696+59421272+58730868
1785.76+56831184+54846860+54436260+55609556+56949500+57474720+57084064+56022824
1780.62+55003080+54943376+55840708+56842212+57548568+57983464+57725864+56704996
1775.48+55974716+55649052+53305648+47092256+39579080+35997444+38517348+44517068
1770.33+50112068+52817588+52083420+49747504+49104180+51643168+55468544+57998384
1765.19+58762540+58701140+57954964+55584480+51501716+47917128+47833504+51587068
1760.05+56167376+58667296+58754652+57331516+54952216+52749964+52664804+54957424
1754.90+57513280+58778436+58848084+57121164+52301216+45998268+42915276+45159132
1749.76+49480460+52217652+53299844+54308176+55660560+56908404+57826888+58265848
1744.62+58083408+57651764+57803360+59019796+60486524+60068568+56390968+51464964
1739.48+49642296+52605412+57462108+60873720+61745080+59134840+51270464+38849696
1734.33+27589280+24702536+31918642+43926628+53849028+58351008+58607720+58047872
1729.19+58917496+60807896+62294188+62863748+62931720+62919076+62834448+62493540
1724.05+61913756+61475804+61611172+62292972+62962856+62908496+61329644+57010112
1718.91+48969316+38833720+32020388+33360238+40713528+47326640+50283136+52343548
1713.76+56138904+60453976+63246304+64520132+64951084+64713636+64504800+65256132
1708.62+66348292+66114808+64096324+61465356+59660156+59388860+60464304+62408088
1703.48+65133552+67564152+65682256+55338940+38974984+27695822+31569384+47580112
1698.34+63618840+70261216+65208416+53579136+46521432+52629000+68117928+82405504
1693.19+90401184+94154792+96784896+98914464+100577056+102855504+106188352
1688.69+109666680+113081896+116899624+119055984+115145576+104268968+93353240
1684.19+92328872+103290552+119207608+133010136+142312672+147963584+152040288
1679.69+156387232+161425392+166412976+170478544+172396016+170706960+166417872
1675.19+164757328+170676640+182173760+192315184+197318224+199080592+200588624
1670.70+201751296+201380096+201298048+205418848+214637936+225348800+233745408
1666.20+239345616+243799232+247701952+249844608+249752304+249869728+253749264
1661.70+261809344+270790816+277903456+283328448+288349568+293192864+297495360
1657.20+301198112+304033888+304990528+302323520+293806912+279099264+264382864
1652.70+262110032+278592672+304453728+325808160+337087808+340316608+339412096
1648.20+336922464+333700608+330190272+328397440+331770848+341007488+351534144
1643.70+358203872+360492736+361137440+361709888+361926336+361844544+361657984
1639.20+360366272+357173888+352658784+346432928+336416896+323711936+315483904
1634.70+317540544+325779232+331493920+331205568+327068864+321745920+316080352
1630.20+309967232+302847904+294104896+284388032+275614912+268933120+263529264
1625.70+257464096+248926880+237667344+226202032+218246784+214726704+212877776
1621.20+209831920+205208048+200166144+195045808+187881312+175824160+159794976
1616.70+147275696+146015760+153804352+161352032+163655616+162391328+160397584
1612.20+158395984+156411600+154758176+153254160+151551392+149952736+148759152
1607.70+147731680+146866240+146511424+146478576+146197104+145594144+144886288
1603.20+144036272+143129776+142524176+142206608+141872496+141657232+141811504
1598.70+141988800+141790368+141441504+141129280+140538224+139694240+139250224
1594.20+139438432+139791728+140137760+140794192+141763408+142667504+143312896
1589.70+143675248+143801424+144096592+145008480+146310880+147500944+148637120
1585.20+149898864+150945744+151594112+152274096+153179344+154075936+155139456
1580.70+156608160+157915056+158621232+158913504+157396256+150905840+139768080
1576.20+131611472+134735984+147159344+159454048+166210304+168783168+170089280
1571.70+170265408+167578288+162186112+157742592+158345440+163933936+170573808
1567.20+174907600+176239792+175374240+173651776+172679056+173325952+174980944
1562.70+175925616+173461984+164574544+149003888+131760656+119755896+115618320
1558.20+118528408+128439976+143210560+155490736+158676992+153883040+148812096
1553.70+149745232+155681616+161312928+162984736+160807920+157394864+155453024
1549.20+155834416+157457888+158686176+158200864+155057776+149396256+143482224
1544.70+140209936+139057632+135747488+127921552+118804800+112452792+107206896
1540.20+99153944+90955856+91007168+101846152+115950272+125372192+128362672
1535.70+126714712+121735376+114511456+108114712+106354040+109550264+114040720
1531.20+116653824+117233544+116547768+114503344+111557048+109334400+108153784
1526.70+106217952+102883040+100470224+101048544+102996328+102440888+97027464
1522.20+87930400+79733880+78002472+84588216+95081488+102439264+103032312
1517.70+99269504+96846376+98810944+103234712+107100080+109400760+109827408
1513.20+107944536+104930256+103285224+103493720+103467400+101758976+98453376
1508.70+92960368+83995392+72508632+62954704+60701736+67836448+81152256+94444376
1503.56+103054032+106360136+106738768+106787504+107140112+106414448+103614360
1499.06+100410120+99301336+99309880+97086728+93213104+93141616+99508544
1494.56+107955856+113507120+115751688+116177984+114742104+111261840+107814680
1490.06+107351632+110447232+114761088+117776904+119444816+121851128+126270840
1485.56+131458384+135523840+138238160+140487392+142601936+144380016+146059760
1481.06+148195136+150933680+154076976+157440784+160484432+162128608+162011088
1476.56+161771136+163608032+167044144+168883632+167237296+164115296+163461920
1472.06+167545616+175740992+185533664+193965248+199367472+202370624+204695248
1467.56+206974880+208203376+207095200+203949312+201597776+203445840+209305056
1463.06+215138240+218182848+219546368+220808912+221177616+219581520+216289024
1458.56+210744384+201671072+191888656+189233552+197937840+212408864+224261744
1454.06+230398816+232415744+232610912+232348064+232485200+233360464+234301520
1449.56+234047856+232087376+229545232+228439184+229691136+232167632+234061504
1445.06+234713424+234673648+234488512+234171424+233731264+233361520+232869040
1440.56+231776640+230224784+228492464+225117536+217597600+206692256+198391984
1436.06+198217248+204018256+208905472+209442560+207152752+204356016+201542080
1431.57+198265280+194353792+190183120+186766128+184953104+184082736+182651568
1427.07+180347680+177896704+175255824+171798608+167948096+164831088+162753248
1422.57+161332608+159921024+156633552+149151856+138535040+130468056+129682328
1418.07+134230288+138758416+140870608+141529200+141810240+141749360+141369648
1413.57+140954352+140488144+139802224+139061168+138584176+138440288+138498016
1409.07+138656960+138888048+139105280+138987744+138011824+136046896+134011464
1404.57+133350080+134434272+136004880+136700976+136420544+135508080+133473424
1400.07+129812240+125654832+123079816+122685744+123080440+122600400+120359424
1395.57+116338120+111852416+109262952+109704528+111666464+112878616+112608888
1391.07+111470808+110069736+108383952+105799264+101783904+97244472+94568160
1386.57+95072712+97241880+98748904+99008808+98737152+98353968+97880648+97424256
1381.43+96904872+96034208+94955168+94243488+94176536+94510472+94805896+94608576
1376.28+93660360+92208304+90853000+90131808+90444472+91972600+94301056+96573024
1371.14+98248744+99248944+99532952+99256376+99110488+99604296+100277776
1366.64+100412480+99999616+99226408+97764920+95537704+93531064+92832360
1362.14+93291752+94011872+94689632+95614832+96697944+97338632+97204512+96587616
1357.00+95931592+95384056+94938632+94685920+94679992+94729664+94568536+94138480
1351.86+93561192+92964944+92485120+92266552+92315912+92475008+92616080+92685088
1346.71+92596824+92316272+92036776+92013192+92247416+92548184+92744208+92597192
1341.57+91746800+90159048+88510616+87714304+88008608+88791848+89329424+89389928
1336.43+89222720+89170960+89377720+89709248+89890928+89774952+89503064+89351856
1331.28+89447976+89710976+90025296+90290336+90324136+89977096+89422960+89088160
1326.14+89172312+89439472+89595616+89609544+89556304+89439848+89305272+89233552
1321.00+89102200+88663232+87965624+87382256+87095688+86874504+86500024+86125984
1315.86+86024352+86158952+86235608+86109616+85983016+86127704+86494976+86762384
1310.71+86763864+86654952+86572992+86403432+86065696+85778448+85784104+85977240
1305.57+86089312+86134584+86379800+86877824+87301872+87354560+87149600+87058504
1300.43+87277248+87685984+88061552+88259712+88219328+87997512+87852088+88088032
1295.29+88714976+89367504+89672160+89631104+89590816+89895992+90605872+91465272
1290.14+92126848+92468960+92672736+92940744+93257680+93544392+93881568+94369752
1285.00+94916008+95398632+95916992+96640048+97531656+98442352+99350624
1280.50+100287688+101143384+101748072+102114784+102470536+103056264+103934008
1276.00+104987280+106102736+107284856+108512984+109623976+110521824+111389184
1271.50+112484216+113826112+115258944+116677576+118050088+119416664+120948344
1267.00+122800416+124819832+126662976+128238624+129808976+131613104+133607376
1262.50+135618576+137587872+139655328+142045104+144857008+147957728+151113968
1258.00+154205312+157277664+160409184+163554928+166563152+169427008+172470960
1253.50+176048832+180031824+183886608+187337872+190672336+194269200+198118160
1249.00+201978544+205814864+209831136+214158224+218687728+223267712+227942512
1244.50+232856320+238016592+243270832+248473952+253559088+258553728+263647568
1240.00+269100480+274947712+280962752+287006624+293182336+299516192+305747232
1235.50+311600256+317136864+322712224+328650304+334998208+341560736+348117856
1231.00+354549984+360809696+366960096+373239104+379825824+386480928+392704576
1226.50+398317376+403668352+409220032+415141664+421290432+427393984+433212640
1222.01+438655264+443770912+448658816+453401440+458013376+462405248+466482496
1217.51+470280224+473899264+477379168+480733184+483928192+486751712+488974880
1213.01+490780192+492653344+494729568+496609984+497898944+498559296+498687232
1208.51+498350304+497666176+496745952+495535968+493934880+491981408+489791936
1204.01+487431872+484896800+482080256+478761120+474810368+470426624+465993376
1199.51+461656288+457174048+452235808+446832480+441192864+435412896+429374400
1195.01+423094720+416875360+410932640+405117696+399178496+393076704+386928576
1190.51+380857216+375000160+369437920+364040256+358587776+353016576+347380128
1186.01+341694848+336059872+330791136+326144128+321933440+317712608+313359456
1181.51+309207808+305543232+302183168+298730592+295043680+291301824+287767680
1177.01+284621152+281872928+279357184+276948768+274740224+272801856+270920928
1172.51+268894816+266853344+264962848+263094880+261155376+259399664+258076528
1168.01+257076528+256161696+255214480+254159856+253012944+251989632+251241840
1163.51+250657392+250169152+249907968+249825520+249624608+249240864+248892000
1159.01+248585840+248165536+247763216+247602592+247488576+247124448+246747952
1154.51+246857088+247471488+248184912+248764720+249331056+250109680+251288384
1150.01+252973040+255064480+257245776+259222144+260988880+262826704+265010400
1145.51+267555584+270312704+273182944+276098656+278965760+281838304+284978400
1141.01+288536832+292371552+296349216+300536864+304974688+309559168+314223360
1136.51+318952288+323684352+328502048+333716896+339464992+345513856+351700768
1132.01+358145664+364845024+371600416+378492672+385868448+393767648+401905216
1127.51+410193984+418744928+427460800+436164768+444944608+453969824+463239808
1123.01+472793568+482769024+493009600+503098240+513026112+523302560+534151776
1118.51+545086464+555591232+565845184+576434816+587563456+598831104+609748864
1114.01+620215360+630432512+640541760+650513856+660341568+670204224+680331008
1109.51+690637888+700572224+709573440+717757696+725840256+734244480+742671872
1105.01+750717568+758443072+766089152+773635136+780919872+787867456+794412800
1100.51+800494272+806195456+811645632+816806656+821607680+826232640+831029696
1096.01+836162816+841479744+846648832+851387520+855646016+859626816+863573696
1091.51+867563840+871537216+875500416+879588224+883820928+887878592+891327040
1087.01+894099456+896519232+898866496+901220928+903616256+905855488+907342400
1082.51+907720000+907505920+907428672+907345984+906523520+904703168+902163904
1078.01+899062016+895460160+891692992+887998784+884032064+879301248+873849920
1073.51+868095616+862166464+855730624+848414016+840214784+831457152+822308800
1069.01+812486656+801591488+789631872+776976128+763946176+750705344+737383616
1064.51+724073152+710766912+697430080+684044032+670545280+656882048+643138048
1060.01+629483584+616011776+602740992+589753600+577212864+565152320+553278016
1055.51+541196416+528949376+517062496+505833280+494909792+483948192+473270912
1051.01+463353888+453991360+444551328+434815744+425081952+415636960+406581408
1046.51+397945408+389677024+381691136+374057600+366870592+359897312+352755648
1042.01+345493216+338606304+332421408+326815936+321536768+316422848+311290752
1037.52+305985984+300661440+295697440+291183680+286735616+282018720+277264384
1033.02+273010912+269450048+266360432+263530752+260814416+257846496+254312592
1028.52+250578944+247488304+245357648+243677440+241898960+240037360+238371232
1024.02+237000624+235855248+234834672+233811168+232672944+231434592+230251776
1019.52+229355920+228907824+228843008+228956608+229160400+229482512+229851360
1015.02+230205472+230758304+231771856+233146944+234617392+236194752+238017920
1010.52+240006224+242076960+244500384+247649056+251521808+255784672+260195840
1006.02+264894704+270296928+276641440+283673920+291004576+298707040+307198368
1001.52+316569920+326472032+336607200+346963488+357658656+368862368+380687616
997.02+392948416+405294784+417746592+430699616+444231392+457804896+470858112
992.52+483332448+495368288+506661952+516374496+523721792+528555456+531237536
988.02+531980576+530554944+526646976+520221728+511529568+501043488+489391008
983.52+477054656+464127424+450547616+436513024+422512960+409038592+396276896
979.02+383964960+371607680+359044000+346679520+334973088+323896064+313168672
974.52+302796576+293045728+284031136+275641344+267813584+260639552+254178384
970.02+248309264+242750976+237220944+231671232+226421552+221904896+218204928
965.52+214999456+212020560+209292624+206794912+204238720+201469552+198832336
961.02+196809280+195424784+194230992+192816496+191154144+189539872+188296624
956.52+187534192+187120720+186796032+186291712+185484496+184551312+183856224
952.02+183572768+183544464+183555600+183547952+183570704+183722688+184080416
947.52+184466992+184474240+183976208+183402160+183182880+183219056+183193088
943.02+183104048+183130928+183220208+183203536+183189072+183473776+184069024
938.52+184587632+184706992+184546784+184429488+184450688+184537712+184731696
934.02+185119840+185640016+186253520+187082528+188051392+188704656+188735744
929.52+188430208+188284048+188472448+188910688+189532880+190297760+191153248
925.02+192044912+192795600+193128960+193037776+192915696+193115440+193627856
920.52+194320016+195146032+195977360+196609408+197085376+197692816+198555296
916.02+199495408+200297792+200848576+201047040+200931664+200917040+201545072
911.52+202881392+204369056+205428256+205978528+206241808+206297760+206122720
907.02+205905056+205957856+206358944+206960352+207655488+208347568+208803616
902.52+208886352+208839232+209013728+209437200+209928848+210458096+211048544
898.02+211514000+211666048+211689520+211986224+212650592+213306528+213501632
893.52+213169696+212664768+212316144+212054288+211631584+211133344+210935696
889.02+211130848+211361664+211314080+211064928+210831504+210662752+210479184
884.52+210210608+209805856+209218896+208464320+207675904+207102400+206945440
880.02+207104624+207221040+207050976+206605040+205844672+204627040+203149632
875.52+202111232+202050944+202677536+203126112+202862048+202168656+201704352
871.02+201645264+201452608+200578304+199208384+198029472+197395792+197081104
866.52+196794688+196550224+196430016+196247376+195670416+194704704+193842736
862.02+193541984+193588896+193315088+192489792+191593104+191142720+191213056
857.52+191721216+192597952+193421440+193389888+192089200+190097920+188610320
853.03+188571696+190034640+192099456+193604880+194186032+194566544+195608912
848.53+197387440+199335152+200758096+200861984+199012208+195660032+192596944
844.03+191522912+192467744+194189408+195988384+198424176+201834384+204878784
839.53+205715520+204449392+202923024+201947104+200567232+198570272+197435616
835.03+197848128+198514400+198348096+197652592+196441072+193923152+190469360
830.53+187801392+186697232+186529216+187118016+188826992+190714352+190805936
826.03+188701424+186290784+185455648+186179632+187113344+187051472+185540128
821.53+182842144+179910544+178020320+177687680+178018512+177700576+176512928
817.03+175135104+173798032+172222912+170668432+169789296+169485664+169060816
812.53+168402976+167954480+167666896+167054272+166151488+165513088+165335456
808.03+165193952+164626112+163514112+162042160+160716048+160361280+161499008
803.53+163492352+164789600+164483376+163318880+162699920+163034256
##END=
