##TITLE=octarelline 6 front
##JCAMP-DX=4.24
##DATA TYPE=INFRARED SPECTRUM
##DATE=1/2/2005
##TIME=3:42:10
##SAMPLING PROCEDURE=film
##ORIGIN=Vincent
##DATA PROCESSING=no operation
##XUNITS=1/CM
##YUNITS=ABSORBANCE
##RESOLUTION=2
##FIRSTX=4000.283
##LASTX=800.31372
##DELTAX=-0.64282227
##MAXY=0.19424377
##MINY=0.0087934891
##XFACTOR=1
##YFACTOR=1.8090361e-010
##NPOINTS=4979
##FIRSTY=0.031103542
##XYDATA=(X++(Y..Y))
4000.28+171934334+172199824+171863472+171161104+170436832+169855312+169444800
3995.78+169216016+168990000+168420496+167626928+167350896+167962048+168777232
3991.28+168985872+168739936+168760800+169326256+170042976+170296592+169814144
3986.78+169080144+168950544+169598368+170334384+170655920+170696000+170553904
3982.28+170150048+169811216+169963888+170270912+170045600+169299856+168561408
3977.78+168025600+167637040+167550960+167917232+168555248+169147520+169463232
3973.28+169406896+169173952+169156592+169453088+169774976+169941472+170056496
3968.78+170205184+170379552+170598320+170768240+170634080+170152032+169641520
3964.28+169382320+169312448+169222624+169089648+169146480+169631088+170431632
3959.79+171083824+171217664+170835040+170152032+169451248+169075520+169162128
3955.29+169418864+169460176+169283904+169173040+169244896+169201744+168493264
3950.79+166909840+165132800+164218800+164332192+164597600+164447280+164380304
3946.29+165053088+166224272+166942960+166408288+164632992+162593200+161645888
3941.79+162477584+164598368+166843440+168210992+168372144+167792944+167359632
3937.29+167626320+168405152+169129728+169420560+169072928+167690768+164958064
3932.79+161599968+159443296+159674208+161397168+162798064+163376672+164085200
3928.29+165619664+167452320+168348960+167410272+164931088+162380368+161107648
3923.79+161305792+162546320+164332336+165534448+164820592+162584304+160967152
3919.29+160981712+161048864+159305680+156194128+154087920+154946336+158546448
3914.79+162791040+165834640+167583952+168798128+169649968+169982160+169997680
3910.29+169849616+169467984+169080288+168823312+168082384+166252016+163203312
3905.79+158266416+150818736+142763648+137550928+135721440+134819008+134162816
3901.29+135410320+138116064+139516496+139421552+141081312+146359952+153423392
3896.79+159630480+163860896+165989952+166428544+166188208+165608032+163044336
3892.29+156580976+147660352+141545712+142539504+149513568+157771104+163680432
3887.79+165190432+160146224+148497728+135909200+130661632+135346416+144959792
3883.29+153534752+158645344+159694544+156352496+150373856+146197824+147361040
3878.79+153061456+159697920+164782432+167848960+168410960+165310000+158806320
3874.29+151998832+148888528+150826192+154653936+154280800+145382528+130277120
3869.79+117795560+116203464+125920528+140306896+151738160+155512992+151010448
3865.29+142335728+136579824+138055888+144104480+148769456+149925712+150530000
3860.79+153534288+158379216+162781536+165086816+164654160+162550000+160734432
3856.29+156913824+142667968+112916576+76817992+52559004+48608700+58575920
3851.79+75209584+96921720+120868376+140842480+153538112+160735488+165072096
3847.29+167560320+168717968+168798272+167070464+163017216+158034848+154660480
3842.79+153929088+154031168+152432576+149211616+146101568+141486224+130697592
3838.29+114545656+103221896+105617936+117717568+128970856+135705392+141537536
3833.79+148179296+152345504+151509968+148168192+147233392+150901184+157016176
3829.29+161979408+164029584+163463536+161244896+158817184+158091568+159736896
3824.79+162162960+163202384+161266640+154389008+141379520+125832160+115881336
3820.29+117001256+127139448+140197664+150101792+150979344+139647360+121328592
3815.79+108978096+111874720+126697880+143439968+155798496+163124720+166832080
3811.29+168315360+168962832+169738112+169879728+166254480+155661680+139924480
3806.79+127724312+127402584+137737632+150156784+158227760+159683072+152108592
3802.29+134429456+113580952+102808432+108917904+125678056+142402992+153210768
3797.79+157207280+155924144+152930448+152454080+155911616+161087104+165298976
3793.29+167831472+169254080+170115040+170707696+171076736+171032800+170601056
3788.79+170175408+169924560+169595616+169075680+168415584+167407504+166070160
3784.29+165275520+165800448+167121840+168066880+167943312+166223952+162434576
3779.79+157549376+154238864+154444832+157615696+161938224+165996704+168915856
3775.30+170318096+170578640+170410720+170245280+170133760+169304768+165853952
3770.80+158635712+150044368+145183840+147033488+153321040+158802512+159900400
3766.30+157247472+154561440+155013968+158484992+162563648+165519728+167199328
3761.80+167391872+164907776+159318656+153058256+150106832+151697152+154841792
3757.30+156293408+156283776+157112560+159670688+161953696+159029856+145495648
3752.80+122462344+101519864+94093968+96234248+94812536+87737384+86704024
3748.30+99521032+119849832+135860448+138346000+121974512+90638640+62877400
3743.80+59631128+81561016+110678216+132570440+145337824+152518272+156717984
3739.30+158839344+158005520+152270064+141703584+129669440+120170392+115869328
3734.80+118089992+124990584+130523536+129843136+125737920+125993376+134056304
3730.30+145887312+156016704+162359104+164962512+163944384+160176208+156044464
3725.80+154040176+154924992+157410784+159154752+158396336+155690080+153872800
3721.30+155267808+159021424+162248096+163431520+163566320+164340928+166328384
3716.80+168739328+170131920+169671648+167746912+164188288+156558848+143291712
3712.30+128854904+121588992+124225552+131014632+136306432+140766896+147274928
3707.80+155336208+162327856+167062944+169855920+171186000+171544704+170975024
3703.30+168404080+163064080+156731888+153045312+154184672+159018224+164561296
3698.80+168567408+170635920+171488928+171845632+172065616+172155088+171839952
3694.30+171119152+170259712+168295232+163021664+154645520+147290448+143094720
3689.80+137300624+125026928+111343912+108126536+119700176+138081504+153537344
3685.30+162944944+167841264+170079072+170904208+171397632+172031024+172339728
3680.80+171383312+168674848+165177696+162855200+161641584+157193696+144194576
3676.30+123253328+103498256+96210712+105210048+124512792+143612688+153084032
3671.80+148650720+134260128+120408104+115838840+121028032+131546624+144086848
3667.30+156519424+166267824+172016880+174937072+176614336+177529040+178001216
3662.80+178483904+178815472+178765056+178670416+178642848+178503328+178535088
3658.30+177922144+173401696+163291680+152334992+148270480+153323168+162836368
3653.80+171260848+175459952+173865952+166277632+154203744+140005168+126642368
3649.30+118066536+117047544+122339480+130587288+140362416+151817264+163755808
3644.80+173790880+180617952+184418384+185928848+186243648+186597184+187461696
3640.30+188355504+188737024+188557184+188104928+187939824+188692128+190314800
3635.80+191619376+191087680+188432128+185374896+184451952+186469120+188953936
3631.30+187230400+177416144+159738592+140331312+128773672+131123584+144939568
3626.80+162383744+177073200+187031328+193179296+197030928+199488016+200767552
3622.30+200868384+199465152+195434960+188074432+179482784+173920240+173732752
3617.80+177607488+183202352+189034432+193673776+195901152+195985168+194772384
3613.30+192306192+189539488+189415456+192816288+195525616+193136976+187317536
3608.80+183806272+185309376+189735216+194609440+199707712+205390704+210810272
3604.30+214473312+215766208+215454224+214767632+214348768+214303248+214694240
3599.80+215336384+215827424+216374928+217597920+218996256+219015872+217286640
3595.30+215375792+214862608+215963472+218192080+220980400+223660160+225688720
3590.81+226522192+225054672+220544768+214365360+209241696+206632864+206543808
3586.31+209387488+215477264+223062144+229290432+233006560+235014784+236232560
3581.81+236973360+237465856+237913904+238355568+238885632+239618848+240409248
3577.31+241056848+241645616+242317456+243034944+243800768+244753664+245897936
3572.81+247027408+247944256+248578528+248852304+248344768+246173472+241767936
3568.31+235995120+230906096+228161136+228310000+231353248+236729840+242788576
3563.81+247640928+250795232+253105520+255208640+256872544+257832880+258461472
3559.31+259403136+260790800+262090400+262826112+263274608+264036064+265104400
3554.81+265900496+266063392+265661856+264952096+264496784+265077856+266884112
3550.31+269205472+271195392+272365952+272335840+271047328+269386048+268731392
3545.81+269674880+271690944+273973152+276115968+278143616+280235136+282358592
3541.31+284121856+285198368+285795936+286455584+287497504+288750144+289639840
3536.81+289694592+289266656+289425472+290731104+292583616+294165888+295365056
3532.31+296326688+296942592+297258528+297603840+297928000+297785600+297208992
3527.81+296792480+296853856+297272768+298087584+299469888+301202272+302783360
3523.31+303943296+304672416+305099872+305652224+306890464+308879424+311077184
3518.81+312950272+314329184+315182688+315562080+315773888+316241376+317133024
3514.31+318261184+319261280+319895872+320321120+320923744+321715296+322263808
3509.81+322518336+323183232+324793888+326923872+328772704+330028320+330721920
3505.31+330830464+330505792+330266368+330527008+331289728+332447424+334019904
3500.81+335980320+338156160+340291776+342053568+343124192+343515936+343594368
3496.31+343673952+343862336+344349376+345462816+347219296+349110912+350571328
3491.81+351562944+352506688+353604704+354486784+354759776+354696736+354947872
3487.31+355691392+356638784+357773760+359304224+360859968+361555040+361116960
3482.81+360333536+360159104+360814912+361929824+363197984+364658496+366372576
3478.31+368009600+369029856+369380576+369653856+370365504+371455296+372675168
3473.81+373935104+375038112+375671904+375991776+376672576+378085024+379826464
3469.31+381271616+382246816+383035584+383966912+385101568+386202016+387001120
3464.81+387495808+387857376+388143104+388281760+388296320+388378176+388741984
3460.31+389487296+390578944+391913888+393382816+394762624+395625056+395686080
3455.81+395325568+395407872+396353344+397678816+398689536+399392448+400328352
3451.31+401656480+402956448+403975552+404909024+405659456+405552032+404423744
3446.81+403412832+403856320+405735072+407906496+409549952+410736160+411827552
3442.31+412895040+413685248+413885312+413530240+413191264+413566048+414784448
3437.81+416217728+417017216+416922048+416595904+416998720+418313088+419755712
3433.31+420540192+420630496+420498592+420676576+421557536+423060000+424471296
3428.81+425197312+425545632+426205024+427140128+427673408+427532000+427258912
3424.31+427562624+428591168+429853056+430641184+430575584+429918784+429462496
3419.81+429952480+431379008+432915520+433790912+434101696+434492512+435223136
3415.31+436007136+436560928+436916704+437400864+438442208+440037792+441334560
3410.81+441435008+440645120+440190208+440711584+441793920+442846176+443610496
3406.32+443961472+443973856+444091488+444646976+445415520+445998336+446371936
3401.82+446786752+447378720+448056864+448571392+448656384+448222592+447444736
3397.32+446706272+446527168+447263168+448608096+449704736+450100000+450325056
3392.82+451141632+452496160+453629824+454038080+453923008+453753792+453763584
3388.32+453952544+454258016+454522912+454536736+454364704+454407392+454835264
3383.82+455272512+455350656+455265696+455406336+455792352+456232480+456738528
3379.32+457441856+458350080+459358624+460341440+461140832+461678112+462010592
3374.82+462185920+462221120+462301632+462743040+463653280+464852640+466065312
3370.32+466957152+467213920+466874944+466375616+466016640+465686016+465274688
3365.82+464940640+464753120+464546496+464362592+464615776+465563200+466922016
3361.32+468187744+469046432+469404832+469280288+468841216+468391776+468202016
3356.82+468386848+468878464+469438784+469861664+470275872+471026720+472101920
3352.32+472977888+473268576+473226016+473306400+473545120+473702368+473744704
3347.82+473842528+474080608+474455104+474977600+475517024+475694144+475254016
3343.32+474549152+474315136+474848672+475614720+475933824+475863488+476061376
3338.82+476882400+477987328+478818656+479101056+478926272+478597344+478363936
3334.32+478215328+478074112+478127584+478643968+479532640+480460160+481225344
3329.82+481674688+481586784+481095776+480912352+481611616+482976192+484261472
3325.32+484813888+484368416+483233760+482288480+482338848+483371200+484632992
3320.82+485352768+485280448+484777664+484484864+484692896+485077600+485236128
3316.32+485232288+485382048+485834464+486554496+487401184+488147008+488724224
3311.82+489331872+489949536+490101312+489564864+488925440+488932096+489702976
3307.32+490905792+492240448+493426240+494168320+494361472+494060736+493343424
3302.82+492492128+492043872+492242016+492708384+492902688+492665376+492226688
3298.32+491976576+492221088+492911360+493720800+494450304+494988000+494927520
3293.82+493972320+492787104+492582272+493632160+494912064+495338368+494788608
3289.32+493939072+493607040+494076576+494780544+494937056+494561920+494244960
3284.82+494051072+493557504+492848576+492414272+492179488+491664512+490980576
3280.32+490729344+491117344+491835584+492457696+492517280+491771136+490736896
3275.82+490232768+490185024+489740704+488605280+487397696+486754432+486833952
3271.32+487437152+487915424+487452608+486084000+484868544+484495200+484414304
3266.82+483840256+482828224+481821824+480874560+479916224+479226400+479084736
3262.32+479214656+478988416+478130656+476987136+476071488+475458240+474776480
3257.82+473799264+472840736+472357952+472259040+471856000+470629024+468901056
3253.32+467520704+466885568+466620128+466255904+465840992+465650976+465703392
3248.82+465820640+465863776+465721312+465311136+464698784+463965408+463039232
3244.32+461904096+460800864+459987360+459503680+459283072+459144448+458649248
3239.82+457482176+456015136+454954912+454436640+453982976+453305568+452575808
3235.32+451962016+451433312+451022816+450860896+450868512+450694784+450050240
3230.82+449000928+447840800+446692640+445466624+444331328+443867520+444308576
3226.32+444960096+444947008+444269280+443563488+443083648+442512320+441577760
3221.83+440366624+439179520+438350144+437942464+437575808+436954688+436460512
3217.33+436610880+437070016+436935936+435920320+434574848+433491264+432880768
3212.83+432737152+432736288+432244192+431072128+429988160+429879424+430575232
3208.33+431052576+430678496+429737152+428798176+428058368+427416736+426815008
3203.83+426263968+425756960+425331904+425041376+424723680+424048320+422984896
3199.33+421949024+421233440+420575488+419536704+418087104+416647008+415771072
3194.83+415787712+416427040+416840352+416366464+415254048+414323360+414070176
3190.33+414374720+414813312+414881696+414167616+412696512+410978656+409504608
3185.83+408380448+407551584+407047680+406786496+406396768+405538016+404301824
3181.33+403121856+402374880+402147104+402215616+402122880+401441056+400215232
3176.83+399031040+398450816+398474848+398673504+398663392+398325184+397756960
3172.33+397164640+396659712+396121312+395352704+394338976+393274976+392465984
3167.83+392160704+392233280+392154080+391613984+390985280+390753536+390807776
3163.33+390752576+390527264+390223712+389707104+388901696+388073888+387464864
3158.83+386985696+386412480+385566464+384368096+383050848+382127328+381852864
3154.33+381950208+382058048+382087936+382043776+381846304+381403456+380667040
3149.83+379748352+379014656+378737376+378656448+378326048+377791872+377400384
3145.33+377120256+376582688+375654496+374530112+373453792+372614496+372104704
3140.83+371846720+371726976+371711392+371637760+371138080+370024064+368590336
3136.33+367394432+366852032+366936192+367086560+366634752+365504928+364273408
3131.83+363466976+363126560+363041024+362976096+362616640+361711264+360394368
3127.33+359200800+358668928+358869024+359264352+359152032+358333696+357227520
3122.83+356376512+356048864+356216480+356604096+356880992+356970176+356961888
3118.33+356740448+356093504+355187776+354415776+353881440+353469088+353169184
3113.83+352906624+352408928+351602528+350779648+350143168+349640032+349291168
3109.33+349203104+349267808+349240512+348969952+348329600+347269888+346099424
3104.83+345340064+345222880+345574368+346024864+346119424+345604608+344808736
3100.33+344292896+344090880+343818592+343384192+342991296+342711968+342579648
3095.83+342684928+342745184+342212640+341175360+340379968+340096736+339814944
3091.33+339285856+338900384+338842560+338734656+338371648+338061152+338016832
3086.83+337980256+337659008+337189696+336934304+336941376+336809344+336171264
3082.33+335183680+334294368+333583360+332720416+331665248+330943104+330994880
3077.83+331604128+332241376+332682752+332961888+332944448+332393504+331400800
3073.33+330478560+330111232+330280704+330418272+329922432+328856512+327942336
3068.83+327665664+327698912+327576896+327465024+327609024+327502560+326484800
3064.33+324896576+323756800+323489248+323673792+323812320+323677504+323184064
3059.83+322496192+321988608+321711904+321268224+320496256+319791552+319450688
3055.33+319214688+318776352+318319040+318186720+318298464+318199424+317599776
3050.83+316680864+315849344+315312256+314975296+314643648+314144544+313372704
3046.33+312490272+311969792+312111392+312620544+313003584+313145760+313193536
3041.83+313126016+312849248+312433568+311940960+311311360+310586400+309901344
3037.34+309167200+308250720+307463072+307356864+307918368+308444000+308292544
3032.84+307467488+306453216+305688960+305219776+304851296+304609056+304730400
3028.34+305097280+305208576+304955904+304849312+305169920+305461440+305167776
3023.84+304311008+303347968+302716576+302594240+302821952+303079072+303208832
3019.34+303181376+302887232+302341504+301875104+301690624+301587456+301463328
3014.84+301519616+301659136+301416128+300819168+300514272+300761728+301038272
3010.34+300862784+300368480+299957568+299783616+299579008+298945376+298027936
3005.84+297663456+298338528+299379776+299839552+299716320+299575776+299538656
3001.34+299427584+299395040+299703168+300253984+300784448+301210592+301549952
2996.84+301805344+302004608+302175648+302289568+302350464+302431264+302598112
2992.34+302872960+303199872+303427040+303486464+303511840+303604832+303728128
2987.84+303986016+304612320+305489056+306195744+306696000+307355712+308195744
2983.34+308840096+309276576+309938816+310966240+312001376+312767040+313372864
2978.84+314011584+314633344+315005344+315038944+315034048+315465152+316479424
2974.34+317824480+319243776+320651648+321938528+322970592+323789888+324568800
2969.84+325428288+326415296+327554240+328806432+330102496+331380544+332534528
2965.34+333431872+334054112+334458048+334646368+334686528+334844288+335345280
2960.84+336117600+336968032+337770080+338359008+338514176+338198176+337609632
2956.34+336931328+336192000+335349216+334421024+333577408+333048992+332779776
2951.84+332300800+331231232+329820608+328745728+328417088+328678464+329062016
2947.34+329246464+329238400+329186720+329160960+329236768+329583456+330224672
2942.84+330836032+331090496+331111136+331354944+332071232+333034368+333789984
2938.34+334179264+334588768+335471136+336658848+337552160+337969344+338296832
2933.84+338767456+339157664+339331520+339548256+340037344+340621088+340946144
2929.34+340990816+341171936+341854560+342798304+343415712+343534432+343455488
2924.84+343340800+343126336+342926560+342880032+342732288+342167584+341301088
2920.34+340322112+339113152+337711424+336539488+335696128+334695872+333303456
2915.84+331921088+330822912+329667808+328125536+326467136+325240992+324607744
2911.34+324130848+323196800+321672160+320043648+318784384+317799360+316764288
2906.84+315698464+314819040+313994784+312783840+311039168+309173888+307730304
2902.34+306861536+306412960+306337184+306644128+306976000+306750304+305922816
2897.84+305138240+304864640+304774304+304270528+303319872+302432544+301927840
2893.34+301517504+300747136+299674976+298816256+298453408+298379360+298344512
2888.84+298252512+297928640+297256928+296521600+296065248+295787328+295529984
2884.34+295567680+296043552+296439040+296329568+296109952+296281504+296614528
2879.84+296677024+296591872+296660384+296770784+296676576+296481632+296486624
2875.34+296755552+297021920+296971552+296606752+296265632+296128192+295887360
2870.84+295172032+294112064+293157664+292513600+292013056+291427328+290721920
2866.34+290071744+289593024+289124736+288488736+287932928+287886272+288277024
2861.84+288570048+288496320+288242176+287942752+287505376+286965792+286570400
2857.34+286467680+286572000+286737280+286918528+287173504+287509920+287780608
2852.85+287848672+287817568+287894976+288014208+287841920+287157696+286057088
2848.35+284859360+283865248+283087040+282261408+281278880+280357504+279559840
2843.85+278490688+276854368+274967840+273355904+272181312+271369536+270895008
2839.35+270639360+270298560+269658816+268787392+267883632+267092160+266415584
2834.85+265767184+265180144+264891392+264988224+265100224+264755424+263967696
2830.35+263196992+262798944+262700144+262549280+262045376+261158512+260116176
2825.85+259234320+258794864+258923168+259401360+259738736+259650576+259353712
2821.35+259198112+259186816+259058992+258695424+258259568+258021344+258066752
2816.85+258141648+257891184+257312752+256773520+256510304+256365888+256087872
2812.35+255633888+255138128+254776416+254617504+254468240+253988624+253172800
2807.85+252534608+252605520+253322400+254073232+254279264+253870288+253213968
2803.35+252683392+252375024+252176512+251958928+251653472+251262432+250864480
2798.85+250569312+250442112+250427504+250275536+249689712+248776144+248092624
2794.35+247932064+247860512+247413952+246875936+246805360+247136672+247356672
2789.85+247262128+246999472+246621728+246096736+245568400+245280544+245328880
2785.35+245566496+245682352+245446320+244966480+244566384+244378640+244282160
2780.85+244204208+244166368+244104272+243921456+243674832+243491632+243404512
2776.35+243360160+243262800+243017216+242676960+242426512+242316480+242251776
2771.85+242285936+242559008+242866464+242769712+242191472+241474384+240851184
2767.35+240294240+239836416+239595136+239538672+239554064+239628976+239733168
2762.85+239693024+239420592+239117376+239028560+239120848+239181728+239170480
2758.35+239260144+239469936+239511184+239214448+238893872+238918528+239070752
2753.85+238777376+237922912+237015056+236584368+236760336+237356080+238021984
2749.35+238397616+238368992+238129744+237885136+237651472+237366800+237026896
2744.85+236657824+236332368+236180640+236283728+236579184+236946672+237294464
2740.35+237512784+237484816+237182960+236733296+236381344+236360960+236681504
2735.85+237047296+237161616+237089136+237171584+237546416+237929232+237940768
2731.35+237576768+237264112+237374384+237748160+237858768+237461760+236850320
2726.85+236440544+236360016+236552176+236985856+237570288+238092928+238442160
2722.35+238729488+239043568+239266768+239303904+239319568+239537584+239890672
2717.85+240124080+240169616+240194608+240333616+240621504+241105744+241755104
2713.35+242344688+242684080+242878336+243142272+243516480+243930496+244358528
2708.85+244803248+245329376+246097376+247099232+247989664+248516960+248906576
2704.35+249449648+250026368+250432448+250843168+251544480+252482944+253421328
2699.85+254274016+255082592+255895744+256747856+257597728+258363312+259126720
2695.35+260092400+261231744+262269472+263120032+264004896+265054688+266098400
2690.85+266942464+267679216+268620320+269938240+271392608+272583328+273544640
2686.35+274735936+276292416+277755936+278798080+279733312+280978816+282429408
2681.85+283704864+284717696+285740320+287034304+288532128+289869248+290795072
2677.35+291484864+292307040+293454816+295004064+297039584+299372992+301426016
2672.85+302785792+303660096+304499232+305432672+306346592+307310976+308616512
2668.36+310416224+312498464+314477920+316155712+317548000+318622816+319348544
2663.86+320021056+321145248+322836384+324718016+326474176+328126368+329737856
2659.36+331282496+332797792+334356256+335948384+337601728+339408000+341271904
2654.86+342915360+344243648+345415584+346546176+347644928+348826080+350268992
2650.36+351995680+353874304+355762944+357565984+359280992+361019808+362845312
2645.86+364629216+366199104+367531008+368735456+369970144+371391872+373022816
2641.36+374682848+376262816+377936320+379904576+382036896+383962560+385452672
2636.86+386621568+387810080+389285184+390998752+392715552+394368832+396069472
2632.36+397759360+399230208+400577568+402227648+404348352+406583936+408555488
2627.86+410308864+412057696+413751584+415172192+416343904+417607872+419281600
2623.36+421366848+423591328+425649152+427385152+428868608+430351520+432069824
2618.86+434001792+435916032+437666176+439320800+440971744+442592064+444155488
2614.36+445736224+447380096+449025760+450648864+452355392+454208224+456060512
2609.86+457741760+459332480+461098528+463110368+465127904+466936640+468642208
2605.36+470490816+472504864+474475328+476267712+477960064+479692192+481505856
2600.86+483355488+485166720+486860096+488408128+489860224+491313280+492877792
2596.36+494642816+496580224+498471648+500069024+501388256+502739808+504379232
2591.86+506193920+507877088+509368192+510916672+512621728+514186688+515381056
2587.36+516560064+518280832+520487712+522532896+524045376+525344768+526878304
2582.86+528665568+530423264+531914624+533118752+534253760+535630976+537319360
2578.36+539094144+540811008+542552192+544276544+545728832+546875392+548028672
2573.86+549359744+550682944+551874176+553128640+554633344+556282624+557842560
2569.36+559200896+560413312+561629888+562939456+564277120+565558720+566843008
2564.86+568193728+569501952+570671040+571840128+573198272+574724928+576290880
2560.36+577844096+579299328+580467328+581278528+581963584+582870144+584170752
2555.86+585765952+587364352+588694592+589737984+590718784+591822976+592997824
2551.36+594095872+595111616+596185344+597386432+598584512+599619968+600571328
2546.86+601692480+603037952+604342400+605420800+606475136+607774912+609200576
2542.36+610374016+611153792+611770496+612489280+613373568+614362368+615398144
2537.86+616458048+617605632+618979008+620577536+622086080+623153600+623836032
2533.36+624523968+625406208+626307584+627104384+627958528+629020416+630180928
2528.86+631265024+632252736+633241280+634334656+635572032+636810304+637758912
2524.36+638334848+638839552+639608640+640654272+641792320+642907968+643910848
2519.86+644664448+645184320+645723328+646476992+647379776+648315520+649326144
2515.36+650462144+651616192+652690560+653750016+654821696+655717440+656316992
2510.86+656900480+657875136+659225856+660498880+661318976+661723904+662059584
2506.36+662727808+663909184+665359616+666575616+667325248+667886464+668672576
2501.86+669804160+671068352+672127936+672765056+673092352+673501184+674253632
2497.36+675272832+676420416+677728832+679139008+680282560+680817728+680867712
2492.86+680903104+681257408+681894400+682600576+683273856+683992128+684865728
2488.36+685881984+686903936+687771584+688406528+688866752+689311104+689873600
2483.87+690549504+691185472+691568704+691633600+691611456+691812032+692195008
2479.37+692415232+692400576+692566336+693265280+694310976+695223616+695697600
2474.87+695711552+695447360+695178752+695064832+695040384+695037632+695156160
2470.37+695476672+695857216+696045440+695914048+695548096+695165632+694897600
2465.87+694646336+694315840+694076928+694120960+694295232+694335296+694260096
2461.37+694181312+694014528+693743040+693594240+693585472+693321280+692591744
2456.87+691727232+691128768+690857472+690815232+690866624+690772352+690402432
2452.37+689939456+689524608+688993728+688299264+687823808+687861888+688152704
2447.87+688282496+688192704+687998528+687648256+687106688+686615680+686477056
2443.37+686644928+686750976+686537792+686189632+686123840+686459136+686846208
2438.87+686894016+686586176+686165888+685784256+685444160+685164928+685042880
2434.37+685163968+685510656+685914112+686150080+686150208+686059264+686015040
2429.87+686001152+685976000+685970944+685962496+685831296+685576000+685420608
2425.37+685566016+685926720+686224704+686303872+686240000+686168448+686095616
2420.87+685964352+685857216+685949184+686215360+686381824+686303552+686204608
2416.37+686365504+686718208+686921280+686741824+686262208+685768448+685519232
2411.87+685541504+685630976+685578048+685349440+685042048+684765440+684598528
2407.37+684494208+684242048+683723200+683179968+682985600+683117184+683125184
2402.87+682643712+681749632+680810880+680139456+679766080+679438272+678853184
2398.37+678003584+677206272+676724416+676435200+676005248+675299136+674485568
2393.87+673765312+673138752+672481472+671736064+670952512+670205120+669543872
2389.37+668958272+668329920+667500160+666480320+665486400+664636288+663751168
2384.87+662621824+661376448+660310592+659404096+658327680+656974912+655645440
2380.37+654556992+653514880+652247616+650797312+649333824+647819264+646084416
2375.87+644086080+641947328+639850368+637921920+636103680+634173184+632020480
2371.37+629821888+627763904+625756544+623596096+621290624+619028352+616915456
2366.87+614892480+612878080+610910848+609121536+607532608+605968576+604258432
2362.37+602493504+600943040+599770240+598957504+598404096+597948224+597396288
2357.87+596685504+595974592+595509376+595429952+595654336+595952448+596227328
2353.37+596697408+597575936+598651008+599497408+600004416+600299200+600255424
2348.87+599525888+598034304+596016768+593657024+591020736+588295872+585774912
2344.37+583618304+581786112+580145344+578550784+576923136+575296256+573685056
2339.87+571952320+569943488+567748096+565684288+563988608+562580928+561175360
2335.37+559604224+557990080+556580672+555439232+554370560+553176256+551925632
2330.87+550884672+550175040+549601216+548897600+548031552+547133696+546282304
2326.37+545540096+544995968+544531328+543808320+542748928+541722496+540968000
2321.87+540227136+539270848+538317760+537562368+536755232+535660352+534529280
2317.37+533708672+533104704+532368288+531389152+530351648+529433792+528627168
2312.87+527787552+526815808+525780448+524818048+523935040+522988480+521832992
2308.37+520444288+518966016+517664256+516686944+515826304+514712896+513275168
2303.88+511815264+510630592+509726464+508880832+507829152+506406688+504684544
2299.38+502959008+501501120+500324000+499235040+498074560+496876960+495802592
2294.88+494916960+494069152+493030816+491737568+490318400+488927904+487636320
2290.38+486447008+485300224+484101632+482826464+481576096+480454720+479403712
2285.88+478253312+476940000+475597632+474373312+473225536+471996192+470649792
2281.38+469322752+468145472+467112224+466128544+465087264+463942304+462761568
2276.88+461625536+460449120+459102208+457743136+456721056+456044800+455260544
2272.38+454044512+452629184+451445216+450587264+449827264+448961920+447960640
2267.88+446858816+445631168+444214592+442673568+441256512+440149632+439224864
2263.38+438258080+437301280+436558368+435928064+435022944+433710272+432327136
2258.88+431237920+430419968+429593952+428598720+427487744+426377088+425329600
2254.38+424354976+423449120+422617952+421872064+421170880+420393888+419430880
2249.88+418309504+417177408+416190880+415426208+414833568+414212672+413360064
2245.38+412288064+411185024+410152992+409167424+408248672+407414624+406527936
2240.88+405506112+404563840+403896960+403310208+402524416+401609504+400733280
2236.38+399807872+398768608+397841280+397149120+396426592+395467456+394476288
2231.88+393700768+393058560+392360864+391629664+391037984+390660288+390309728
2227.38+389652736+388629632+387650208+387055936+386548256+385636864+384454432
2222.88+383564128+383070432+382540960+381752864+380943424+380316608+379745024
2218.38+379028864+378131936+377119232+376083392+375163232+374451296+373851296
2213.88+373191968+372517440+372067552+371874400+371575936+370842176+369835968
2209.38+368981120+368393792+367824032+367104288+366383936+365860448+365470656
2204.88+364972480+364269120+363495360+362763872+362022080+361275104+360698016
2200.38+360326368+359879168+359146208+358304896+357590720+356983968+356475456
2195.88+356244192+356292992+356247744+355814560+355137536+354496064+353910944
2191.38+353231840+352401152+351511360+350718720+350130848+349718496+349352032
2186.88+348930368+348397440+347723680+346998528+346440608+346157408+345966016
2182.38+345618496+345096000+344551840+344071072+343657440+343354432+343177440
2177.88+342962048+342451584+341608896+340713568+340088320+339800448+339687232
2173.38+339554528+339259808+338691616+337843040+336925088+336260096+335994144
2168.88+335926528+335728192+335315968+334924096+334762208+334712672+334472512
2164.38+333906912+333144512+332376768+331681184+331061088+330531744+330087872
2159.88+329635808+329097248+328590208+328314080+328202304+327913760+327297760
2155.38+326633152+326252352+326168384+326213504+326256800+326145152+325715264
2150.88+325027200+324400416+324096096+324069088+324040096+323721760+323060288
2146.38+322316704+321787008+321453248+321072928+320556288+320046592+319668640
2141.88+319395616+319122336+318709856+318065824+317310528+316747648+316551392
2137.38+316591072+316612640+316496096+316282688+316040928+315773248+315428256
2132.88+314992800+314551488+314231104+314071104+313958912+313694688+313145568
2128.38+312396768+311743616+311446080+311458176+311456352+311196704+310782816
2123.88+310482016+310357472+310245568+310048064+309816896+309556384+309190976
2119.39+308760992+308423360+308241792+308139456+308017728+307770848+307319136
2114.89+306785568+306434400+306310016+306160640+305851136+305545120+305387840
2110.39+305309952+305211648+305041568+304692608+304130080+303602080+303424096
2105.89+303590528+303801984+303798432+303504992+303000512+302480768+302106848
2101.39+301802400+301386208+300924928+300707904+300812672+300945344+300801792
2096.89+300398592+299961792+299652128+299459680+299304736+299169408+299096928
2092.39+299023712+298710720+298026816+297240256+296779680+296715424+296745056
2087.89+296658912+296544416+296525312+296595264+296698400+296745504+296593664
2083.39+296203808+295730816+295311968+294925760+294593120+294479072+294624192
2078.89+294803136+294786272+294544768+294140672+293631392+293160224+292904608
2074.39+292858720+292826688+292689952+292524288+292381376+292138976+291712672
2069.89+291291136+291132352+291165312+291044160+290624352+290114688+289726240
2065.39+289455488+289279072+289236256+289232256+289029696+288539712+287931936
2060.89+287453632+287303968+287579296+288126976+288534240+288489696+288066304
2056.39+287542688+287077056+286703104+286469312+286420128+286478016+286465760
2051.89+286223456+285734368+285150496+284663264+284357504+284196736+284118144
2047.39+284064480+283988320+283888480+283772992+283568448+283196672+282737376
2042.89+282353280+282080672+281869824+281757696+281796640+281908800+281973472
2038.39+281932128+281711520+281278560+280854976+280736576+280824064+280694464
2033.89+280188512+279580416+279173056+279053632+279164384+279315808+279274976
2029.39+279063744+278952544+279000896+278950144+278701664+278451616+278263136
2024.89+277940672+277451360+277086944+277088064+277360768+277604768+277586912
2020.39+277312928+276932480+276456032+275711648+274756992+274080960+274109184
2015.89+274681568+275222304+275281024+274815040+274176896+273890720+274175776
2011.39+274680128+274883904+274698240+274402080+274120448+273724416+273252960
2006.89+273062464+273360416+273810240+273862048+273400160+272795072+272375072
2002.39+272171392+272150688+272286944+272362752+272111744+271633568+271300608
1997.89+271243904+271268448+271216512+271066240+270782560+270342272+269711360
1993.39+268661760+267063056+265549008+265234160+266353376+267801568+268443168
1988.89+268299632+268090176+268227776+268673600+269248864+269673408+269699840
1984.39+269449440+269241344+269086208+268820672+268618560+268727200+268828832
1979.89+268359328+267446128+266866848+267033936+267547376+267811504+267708304
1975.39+267535536+267532016+267615376+267577440+267386160+267153904+266900256
1970.89+266586352+266269792+265923184+265247584+264048192+262710192+261962080
1966.39+262204496+263226544+264418464+265194208+265394928+265318832+265245808
1961.89+265146736+264985840+264920496+265001952+265075136+265134128+265353536
1957.39+265664080+265723520+265348240+264644528+263818688+263153248+262955408
1952.89+263209440+263484112+263420544+263127840+262962608+263080288+263328096
1948.39+263467968+263363232+262925392+262118016+261204928+260674528+260387296
1943.89+259237344+256605184+253910064+253446944+255599488+258459088+260322224
1939.39+261247392+261945008+262448736+262457312+262091680+261702592+261424480
1934.90+261258064+261242272+261327168+261354272+261279456+261231264+261308000
1930.40+261409952+261303712+260853328+260254112+259924816+260031968+260301472
1925.90+260451248+260371984+259658848+257751136+255111376+253434864+253908304
1921.40+255958128+258113456+258904384+256795792+251435792+245773024+244460688
1916.90+248597744+254270320+257534672+258379248+258786896+259419232+259753728
1912.40+259656944+259306048+258578112+257450560+256377328+255875360+256156992
1907.90+257135648+258387360+259282464+259458928+259105680+258754224+258837888
1903.40+259289152+259605600+259533072+259410624+259531792+259631280+259424016
1898.90+259130368+259080640+259246432+259296656+258780688+257541040+256295968
1894.40+256131168+257073552+258114576+258715024+258882512+257868880+254839760
1889.90+251086384+249535840+251456608+255152928+258199328+259584880+259662848
1885.40+259235264+258901168+258806352+258894160+259267968+259921296+260436080
1880.90+260468288+260228608+260101344+260133696+260174544+260175504+260201952
1876.40+260352992+260653632+260958464+261094544+261021776+260774832+260464928
1871.90+260101344+258781488+254765936+247852112+241242272+239045760+241893280
1867.40+246869584+251347728+254816048+257486704+259240544+260096416+260466400
1862.90+260739120+261096784+261546384+261931264+262109392+262099792+261997840
1858.40+261984880+262307632+262885504+263229728+263132496+262994368+263173360
1853.90+263531520+263804800+263901088+263859392+263838160+263916112+263797120
1849.40+263141744+262058176+260996432+260532560+260681408+259018656+251145824
1844.90+236735040+224282704+224242944+236408800+250488640+258821472+261909568
1840.40+262993712+263401376+263458864+263456944+263079472+262278272+262022896
1835.90+262755872+263616976+263985280+264116384+264206816+264089728+262936256
1831.40+258730288+250582032+242245136+239902672+245221136+253798080+260379296
1826.90+262138112+258511968+252061408+248280048+250660032+256840384+262171312
1822.40+264930048+266152928+266812944+267110064+267021312+266350832+265091312
1817.90+263888320+263443856+263792016+264592928+265481872+265974160+265799776
1813.40+265217072+264318464+262568112+259899632+257704160+257712128+259948736
1808.90+262547984+263841360+264119104+264754784+265999280+266811824+266722128
1804.40+266128768+264719776+261685520+257782672+254927440+253412896+251933168
1799.90+250610960+251467392+255274352+259935504+262596688+262369216+260948576
1795.40+260489200+259928480+254574832+242068176+228103392+222373968+227918016
1790.90+238839968+248839776+256409184+261802960+264614368+265328784+265103296
1786.40+263319456+258931600+254185088+253160224+256467296+260682336+262611088
1781.90+261433744+258103408+255115536+255143680+258056576+261156432+262819888
1777.40+263141600+261746640+258812224+256729072+255718400+249831984+233846480
1772.90+213351728+201993968+207211360+223544880+240079808+248656624+247073680
1768.40+240423312+237992576+244237808+254285440+261069984+263319280+263802368
1763.90+262817008+257272800+246350736+235681136+233495072+241691168+253376016
1759.40+260763536+261924880+258604400+252488512+246900208+247117952+254080240
1754.90+262164784+266630480+267345488+263047712+250371440+232946016+223166400
1750.41+227837152+239237696+246852928+249522352+251919008+256205056+261242912
1745.91+265561152+267918544+267536032+265432816+264323744+266297440+269866336
1741.41+269447520+260707840+248007104+242594160+249742272+262663568+272386496
1736.91+275515520+269415328+249078032+215633456+183953344+173939952+191535840
1732.41+223354848+250680368+263796480+265206336+263807472+265888352+270910496
1727.91+275209792+277102848+277454272+277377312+276952640+275777440+274011168
1723.41+272668096+272827456+274472992+276211040+276022720+271590944+259695200
1718.91+237738384+209733984+189788480+191354688+210205952+228796016+238046768
1714.41+244068160+254096960+265887712+274206080+278374176+279666880+278691712
1709.91+277656480+279077248+281181056+279689888+273789696+266705344+261869184
1705.41+260849216+263291200+268082992+274930112+281161728+276405760+249188336
1700.91+204924048+172358944+178999104+219337248+262483984+281942080+269296544
1696.41+236696960+213903840+225989312+265837056+305197536+327608000+336704768
1691.91+341430240+344584896+346195296+348592640+353230656+358417920+363656800
1687.41+369795424+371244512+356084064+321245184+284899776+274674656+298464768
1682.91+338531808+374560384+398141536+410254880+416031264+421172736+428475360
1678.41+436946784+443690560+444455488+435093728+418366624+408022400+417374432
1673.91+442113760+464416096+473578976+473800160+472890080+470909824+464707296
1669.41+458759904+463373856+481587488+504660672+522488032+532903168+539420288
1664.91+543719424+543456192+537616960+531744992+534584704+548270656+565633344
1660.41+579169088+588139008+595348864+601877888+607590848+612691776+615866496
1655.91+613339200+600282624+571636544+526592544+480074528+464220224+498623808
1651.41+562744064+619499712+650481408+658758208+654612416+645520768+634269568
1646.91+621889088+613101632+617218752+637693440+663828992+681371008+687319232
1642.41+688254080+688678080+688042944+686345024+684450496+680686656+673372480
1637.91+663329536+648723136+624115520+592724160+573200896+581133632+607516096
1633.41+630361216+639071424+637351424+631639552+624771776+617026048+607006528
1628.91+593013376+576596928+562596672+554062848+549118272+542625664+529285728
1624.41+507806144+484657664+470244352+468111584+471471776+471864320+466891616
1619.91+459277728+450942560+437728960+411707936+373790976+342930208+340975840
1615.41+364716800+390010912+401472352+401983872+399215360+395584704+391289376
1610.91+387381440+383771136+379823264+376661216+375186496+374032608+372211136
1606.41+370736192+369993728+368847616+367066560+365565792+364436128+363257920
1601.91+362381472+362037856+361724448+361472224+361805120+362316384+362298560
1597.41+362116064+362044320+361194080+359350272+357984672+358047456+358828448
1592.91+359733376+360907904+361977984+362364288+362460512+362856128+363466976
1588.41+364480800+366366560+368447872+369618976+370237920+371136320+371918752
1583.91+372329760+373252800+374723488+375714912+376571808+378218016+379646944
1579.41+379959232+379648480+374896928+356843968+325498112+300622592+305262848
1574.91+336421120+369597760+388483776+395137472+397654496+397353408+389623808
1570.41+374119040+360195232+359332480+372425824+389466272+401019936+404591936
1565.92+402197856+397609728+395203744+397228288+401997216+405009472+399326848
1561.42+377101472+337377088+292619968+260392528+248093568+254845792+281522752
1556.92+323134816+360163424+373555232+364288096+351998976+354225888+370084160
1552.42+386493120+393394464+390035488+382493472+377952384+379438976+384703488
1547.92+389414208+389962944+383833120+371092224+357375456+350720864+350728480
1543.42+346270176+330049632+309539968+295404736+283849952+264734640+244870928
1538.92+246776672+278639456+321533568+352992000+366195904+365280544+354611136
1534.42+337880096+323063584+319878880+329674048+343639424+353398336+357749152
1529.92+358110592+354151904+347078720+341132864+337483616+332065984+323529376
1525.42+317804928+320153408+326328128+325806048+311614752+286402080+262564448
1520.92+255617312+271582912+299769824+321308640+324993600+315508672+307497376
1516.42+310250304+320385216+330575104+337668608+340033248+335854560+328068480
1511.92+323796064+324997856+326088256+322556448+314395072+300345440+276863104
1507.42+245766352+218671632+210617680+228261056+263729392+300409824+325118464
1502.92+335193728+336389184+335848160+335890336+333189696+325076672+316029504
1498.42+312784672+312494560+305616640+293330976+290681184+305847264+327773376
1493.92+342417888+347815456+347989312+343112288+332325472+320495616+315572192
1489.42+320108064+328796480+334820416+337159552+340680960+348948096+359343136
1484.92+367232288+371780064+374885216+377149536+378089312+378697984+380898336
1480.42+385124640+390315776+395518560+399545408+399952736+395521760+390163968
1475.92+390238560+395535488+397473792+389720544+376892768+370150272+376663200
1471.42+395379008+419516608+440508736+453042464+458502464+461899552+465400064
1466.92+466501984+461694368+451193472+441796352+443098976+456608000+472475040
1462.42+481632192+485000544+486702848+485609344+479268640+468529856+452353760
1457.92+427197792+399345280+388710912+407727072+443889184+475453792+492954400
1453.42+499507072+500674080+499786720+499189120+500379936+502167392+501104384
1448.92+495357664+487915616+484603584+488097984+495186720+500783360+502888608
1444.42+502738240+501881728+500795008+499750048+499165504+498610624+497100512
1439.92+494987712+492826080+486818016+470129280+443818656+423147840+423916672
1435.42+442474848+460646496+467510304+466099520+463047872+460104320+455717248
1430.92+449009536+441157440+435454176+434748192+437387296+438727712+437134048
1426.42+434447200+430953440+425064256+417812192+412569632+410629696+410850304
1421.92+411109920+406260192+389883456+364331392+344873152+345166048+360777312
1417.42+376599392+384937824+388330880+390528448+391936096+392105408+391396896
1412.92+390147776+388659552+387528768+386868672+386184544+385477440+385345696
1408.42+385920512+386575136+386368224+384196000+379663552+374755392+373098528
1403.92+375936928+380276384+382647520+382761632+381466880+377428544+369378272
1399.42+360409856+355981152+357447904+360811104+361454048+357164096+348342816
1394.92+338890848+335158816+339931040+348687456+354751520+355956096+354475648
1390.42+352644928+350523776+346023392+337254752+326472352+320268800+322739104
1385.92+330233184+336164320+338223520+338059648+337046752+335510496+334037664
1381.43+332968928+331871104+330561632+329349856+328164416+326811872+325626592
1376.93+324626496+322807680+319304416+314661088+310653824+309317760+311547296
1372.43+315918208+319749376+321692768+322115232+321293120+319297536+317443328
1367.93+317373888+318731776+319832576+320027616+319282688+316611008+311565856
1363.43+306416000+304211072+305136288+307048032+308917408+311401984+314478720
1358.93+316808224+317617376+317585888+317532320+317378272+316802848+316071296
1354.43+315742912+316011520+316618528+317115680+317109984+316524768+315714176
1349.93+315149856+314987552+315059648+315198976+315365440+315541536+315658048
1345.43+315666688+315643680+315757408+316045024+316147872+315371168+313224480
1340.93+310059136+307116000+305707456+306132352+307481792+308609824+309188384
1336.43+309687776+310576000+311796896+312918336+313501344+313373152+312820032
1331.93+312446784+312596384+312967712+313089376+313015008+313117888+313322016
1327.43+313141536+312497472+311880480+311606944+311502304+311384704+311290752
1322.93+311182688+310936064+310538400+309921728+308896064+307643104+306839744
1318.43+306843968+307236704+307505504+307658112+307825760+307849536+307574304
1313.93+307163808+306934528+307112480+307711776+308429824+308841888+308859296
1309.43+308759872+308684000+308471648+308085600+307798624+307778624+307838976
1304.93+307778144+307702336+307784800+307922272+307887776+307703936+307584064
1300.43+307575296+307557888+307528096+307551392+307520960+307344352+307244160
1295.93+307476736+307908448+308236256+308452480+308723552+309012128+309156608
1291.43+309168064+309181184+309248288+309348352+309486048+309684640+309937184
1286.93+310177056+310306336+310343296+310469344+310813120+311268192+311662176
1282.43+311959008+312140704+312130752+312035936+312200352+312750112+313294112
1277.93+313386592+313163168+313220096+313899552+314949824+315855840+316252448
1273.43+316024640+315362176+314797024+314834336+315401184+315925088+316077952
1268.93+316145408+316555648+317338624+318219712+318994240+319651968+320250656
1264.43+320816448+321304896+321622752+321740864+321826112+322186112+322997728
1259.93+324129056+325338496+326590880+327972000+329351360+330444032+331231360
1255.43+332023296+333051968+334261120+335496000+336636960+337584736+338342016
1250.93+339080160+339932192+340766368+341326624+341606784+341962144+342788416
1246.43+344076224+345406304+346484896+347505728+348800800+350315360+351710176
1241.93+352864192+353980096+355265120+356702208+358097280+359267808+360288416
1237.43+361536768+363278240+365208544+366652928+367322528+367696736+368504864
1232.93+369933920+371524832+372821600+373857024+374914336+376109664+377414240
1228.43+378816224+380177664+381176352+381696832+382080512+382701696+383535744
1223.93+384377184+385279776+386422720+387692928+388737120+389416768+389938336
1219.43+390500992+391016096+391263808+391213984+391119776+391331840+391942464
1214.93+392579552+392705760+392274208+391904416+392182304+392962304+393621856
1210.43+393821952+393723904+393578720+393426304+393188992+392866048+392521440
1205.93+392193152+391913184+391786656+391876320+391987488+391821216+391413024
1201.43+391108928+390998752+390771616+390273728+389786400+389533376+389315616
1196.94+388885408+388364160+388062432+388069312+388180352+388164672+388017824
1192.44+387931552+388015648+388172928+388346656+388669664+389205536+389736384
1187.94+390029088+390163456+390426880+390995200+391834528+392816544+393865152
1183.44+394999488+396228288+397460640+398586656+399630400+400704896+401879136
1178.94+403198496+404733312+406461696+408189440+409750368+411275648+413087936
1174.44+415232960+417304448+418914432+420214400+421654752+423341760+425002912
1169.94+426535872+428168320+430054688+432084736+434087968+435984640+437828448
1165.44+439836832+442114592+444293440+445866720+446977056+448334048+450308640
1160.94+452675136+455210400+457872480+460385984+462385088+464020608+465835424
1156.44+468027776+470393152+472888480+475695200+478755552+481730496+484430784
1151.94+487019776+489809856+493005120+496560000+500214592+503778880+507349024
1147.44+511136224+515175744+519344928+523559712+527864576+532408864+537307456
1142.94+542427456+547477504+552462272+557745280+563437376+569162944+574678784
1138.44+580238464+586057600+591954496+597807360+603873792+610410176+617345600
1133.94+624408192+631295040+637804096+644050944+650426560+657211072+664409728
1129.44+671888448+679395712+686585984+693326592+699805568+706176000+712463808
1124.94+718898880+725863680+733421760+741236736+748880000+756012736+762646080
1120.44+769394944+776941504+785070720+792819712+799620544+805758912+811824640
1115.94+818289216+825382784+832910208+840332864+847234432+853471168+859078528
1111.44+864482048+870498752+877489536+884792832+891447232+897165632+902279168
1106.94+907158464+911945216+916571968+921045184+925774336+931293824+937494912
1102.44+943572352+948859712+953352512+957457408+961671104+966346944+971379072
1097.94+976291328+980828480+985171392+989534976+993977856+998525248+1003063040
1093.44+1007245824+1010914624+1014369344+1017938624+1021600192+1025287488
1089.58+1029181568+1033339008+1037305472+1040478464+1042815680+1044935296
1085.73+1047476416+1050515776+1053693952+1056711360+1059519040+1062197056
1081.87+1064828928+1067338624+1069382336+1070704256+1071622336+1072636800
1078.01+1073571968+1073741824+1073045888+1072193408+1071745920+1071553344
1074.16+1071154496+1070122048+1068064896+1064917184+1061166144+1057351296
1070.30+1053553472+1049741888+1046128256+1042633216+1038552960+1033430528
1066.44+1027772544+1022288384+1016867200+1010906624+1004210688+997014592
1062.59+989492480+981676992+973589248+965234368+956690112+948124928+939539712
1058.09+930778304+921933760+913202688+904235584+894442944+884135296+874366272
1053.59+865387200+856208128+845995328+835030016+824039424+813281920+802524928
1049.09+791524544+780396608+769564544+759225280+749022784+738623616+728371200
1044.59+718837696+709866880+700606336+690502912+679964032+670017536+661309184
1040.09+653379328+645112064+636021632+626790016+618351744+610872832+603845824
1035.59+596765568+589456896+582061632+574903680+568227392+562003776+556085312
1031.09+550409088+544922176+539547840+534442240+530032960+526436928+522958080
1026.59+518640672+513444224+508497568+504918816+502641600+500710784+498492416
1022.09+496156352+494092160+492378176+490933504+489872640+489438720+489670496
1017.59+490315584+491048000+491660128+492068064+492329696+492703648+493528288
1013.09+495019136+497256768+500217408+503610368+506991968+510345984+514263968
1008.59+519154112+524600800+529930688+535064768+540423552+546315392+552771264
1004.09+559716032+567041088+574643264+582456832+590257472+597620416+604404288
999.59+611120512+618410816+626235136+633924032+641035904+647837952+654887872
995.09+662303552+669553664+676012096+681714560+687384192+693546112+699817472
990.59+705345792+709752960+713279616+716243584+718829184+721262016+723627456
986.09+725588864+726746816+727172032+727165504+726681344+725370688+723039424
981.59+719798144+715957120+711871168+707655040+703003200+697555584+691369920
977.09+684820800+678205568+671598848+664879040+657814720+650367744+642822464
972.59+635347264+627661888+619472192+610934208+602415744+594147008+586324416
968.09+579138304+572464064+565859200+558981248+551866048+544900288+538619968
963.59+533259616+528392160+523351456+518046848+513007040+508616608+504688384
959.09+500855296+497062784+493613920+490832064+488699488+486839072+484876544
954.59+482753888+480622816+478604512+476783808+475331456+474458624+474151584
950.09+474014240+473547232+472658496+471746592+471186528+470903072+470529504
945.59+469837440+468950784+468251744+467994848+467952800+467682432+467190112
941.09+466954688+467225024+467726048+468163936+468559744+468968352+469228608
936.59+469135904+468673856+468081984+467721888+467759776+468038016+468421344
932.09+469081632+470110688+471009632+470984192+469832064+468281792+467325856
927.59+467282432+467705408+468129984+468536256+468921728+468914240+468218880
923.09+467083712+465914496+464794464+463733792+462976416+462672064+462550624
918.59+462239200+461665088+460974720+460284416+459633504+458979168+458149856
914.09+456923232+455312928+453775008+452917216+452849856+452934528+452395072
909.59+451080704+449464320+448007200+446763968+445531104+444210112+442978336
905.09+442080384+441434848+440626624+439432640+438137856+437113088+436234848
900.59+435043520+433421152+431851040+430871104+430450272+430099360+429519200
896.09+428892416+428505792+428312512+427964288+427158784+425923712+424589120
891.59+423466208+422592896+421901184+421462144+421314496+421228192+420925792
887.09+420383840+419687360+418866176+418044192+417488512+417335584+417445600
882.59+417539712+417353632+416826944+416297440+416213120+416506944+416598816
878.10+416103904+415130944+413926176+412739872+412079808+412499456+413869216
873.60+415203712+415511072+414762464+413777056+413120064+412437920+411173632
869.10+409590016+408568928+408526976+408998592+409234624+408866592+408025920
864.60+407070208+406229984+405478848+404690176+403817760+402864576+401805056
860.10+400519936+398836512+396978624+395927392+396577664+398343072+399416320
855.60+398604288+396106464+392652512+388998240+386137152+384619168+383710368
851.10+382368096+380868672+380364288+380959904+381317952+380277088+378014144
846.60+375226816+371881600+367626880+363057664+359225312+356000864+352622240
842.10+349743040+348898944+349818048+350703104+351099648+351933184+352770880
837.60+351780384+348547680+344776672+341988544+340174880+338780768+337613408
833.10+336525344+335236320+333718976+332209248+330663616+328860928+327223328
828.60+326675648+327203136+327419264+326407936+325205824+325430400+326913376
824.10+327848992+327154080+325664608+324752608+324473632+323749088+322195072
819.60+320892224+320938144+322016096+322985312+323319456+323229728+322874816
815.10+322264960+321649248+321283264+320924608+320061120+318716384+317796096
810.60+318527488+321291936+324811264+326849568+326323968+324554048+323675072
806.10+323965088+323960192+323335488+323860768+326691232+330351104+332568352
801.60+332650688+331265696+329472608
##END=
