##TITLE=octarelline 6 front
##JCAMP-DX=4.24
##DATA TYPE=INFRARED SPECTRUM
##DATE=31/1/2005
##TIME=17:1:6
##SAMPLING PROCEDURE=film
##ORIGIN=Vincent
##DATA PROCESSING=no operation
##XUNITS=1/CM
##YUNITS=ABSORBANCE
##RESOLUTION=2
##FIRSTX=4000.283
##LASTX=800.31372
##DELTAX=-0.64282227
##MAXY=0.23558494
##MINY=-0.0040845377
##XFACTOR=1
##YFACTOR=2.1940558e-010
##NPOINTS=4979
##FIRSTY=0.0059129763
##XYDATA=(X++(Y..Y))
4000.28+26949982+27151756+26876786+26294684+25851164+25707132+25727930+25845308
3995.14+26009912+25958030+25534068+25101116+25129436+25493792+25663390+25473120
3990.00+25258130+25294458+25420772+25262314+24700156+24058144+23762588+23873044
3984.86+24205996+24724526+25350624+25632192+25264582+24742688+24745912+25093708
3979.71+25117488+24769088+24543906+24550596+24489312+24367716+24521326+25006362
3974.57+25496422+25737494+25776580+25797974+25896348+25977994+25864434+25551754
3969.43+25281192+25268528+25454834+25613788+25609126+25456864+25222998+25000870
3964.28+24938022+25090364+25256816+25206868+25070528+25186314+25566218+25899576
3959.14+26067532+26154084+26016846+25474312+24885334+24810900+25120834+25157038
3954.00+24800150+24631106+24947582+25281790+25081042+24436636+23903612+23803666
3948.86+23888804+23721034+23288002+23017510+23169580+23491076+23589216+23365360
3943.71+22978714+22639644+22571860+22952936+23710888+24478324+24873628+24832048
3938.57+24679130+24834918+25369026+25902206+26071836+25967954+25833474+25467384
3933.43+24448700+23042694+22274976+22710532+23641274+23967502+23545040+23170896
3928.29+23467554+24186530+24555252+24102450+23125294+22350384+22177614+22477824
3923.14+23037442+23690348+24029482+23698946+23045556+22794912+22969046+22783692
3918.00+21739196+20316870+19533884+20016510+21480124+23055226+24184616+24982350
3912.86+25655858+26122166+26365582+26534894+26528674+26168194+25749326+25648806
3907.72+25586536+24970404+23521400+21044124+17512426+13953632+11996854+11871986
3902.57+12290658+12635323+13496953+14812270+15499212+15409080+15894388+17874314
3897.43+20667110+23104524+24692750+25476824+25656814+25498214+25011026+23646170
3892.29+20974006+17899670+16506752+17985630+21232890+24245290+26059762+26357216
3887.15+24304176+19612528+14455103+12374117+14617336+19035176+22824270+24699800
3882.00+24503168+22491666+19729306+18110170+18942264+21654860+24550236+26544818
3876.86+27584920+27658854+26350756+23733212+21096828+20133072+21287514+22985878
3871.72+22549782+18354032+11716030+6576746+6409252+11222016+17981224+23204078
3866.58+24708996+22313156+18132792+15526442+16317838+19115108+21250424+21901428
3861.43+22375324+23806292+25817696+27465402+28186310+27796690+26721320+25720040
3856.29+23819188+17598844+5173198-9340294-18271562-18595578-13752502-6915117
3851.15+1764976+11461473+19430822+24104960+26447842+27937044+29060246+29767358
3846.01+29873000+28937288+26799410+24272522+22675088+22529736+22991248+22828208
3840.86+21844406+20575668+18419886+13758782+7227086+3148500+5020491+10682693
3835.72+15361757+17695146+19710596+22322942+23849638+22999724+21045196+20398406
3830.58+22064274+24995136+27441954+28372772+27777664+26297672+24917712+24558116
3825.44+25351340+26473794+26955482+26108062+23116822+17555634+11099096+7333069
3820.29+8443807+13061162+18229000+21624564+21368728+16432634+8931676+4244831
3815.15+6271835+13310580+20620494+25308200+27417550+28136524+28361520+28503352
3810.01+28690560+28584144+26963376+22456824+15805905+10809739+11092569+15971936
3804.86+21586158+25096100+25462840+21699948+13666829+4750353+792882+4467009
3799.72+12605281+20215910+24671006+25811362+24637200+22891106+22459452+23921288
3794.58+26109852+27586472+28044380+28047134+28043422+28075134+28043182+27912034
3789.44+27799322+27921248+28259910+28424358+28062330+27229862+26237534+25441448
3784.29+25229568+25779448+26766762+27611600+27855796+27097094+25129436+22629022
3779.15+21091938+21465928+23246578+25269604+26800608+27666156+27961572+27907370
3774.01+27731958+27591498+27500576+27029398+25336164+22191574+18923202+17606104
3768.87+19017306+21806592+23765096+23692376+22260776+21238976+21696372+23092350
3763.72+24314804+25027156+25512916+25661476+24766700+22475320+19754924+18415480
3758.58+19177056+20753308+21551684+21595816+21991736+23166956+24130156+22651218
3753.44+16512700+6515428-2030612-4341230-2789964-3382020-6554848-6732404
3748.30-742204+8151521+14776490+15406582+7866979-6024671-17909614-18616380
3743.15-8505446+3910844+12451170+16857032+19103314+20372300+20872896+20185040
3738.01+17705620+13633327+9162796+5554251+3797597+4684362+7617653+9926275
3732.87+9418007+7432545+7632221+11528402+16935924+21062724+23093066+23538354
3727.73+22825224+21300748+19678898+18727506+18750494+19466446+20090762+19799256
3722.58+18697610+18054448+18912722+20759744+22221762+22655514+22433794+22200402
3717.44+22434150+23210884+23944094+23900270+23057972+21542500+18464782+13095366
3712.30+7364687+4930244+6695006+9675741+11370694+12569068+14938156+18187564
3707.16+20958624+22792762+23967620+24586668+24668498+24281362+23158838+21013120
3702.01+18539928+17340432+18395832+21006440+23501702+24728588+24727634+24255086
3696.87+23937884+23865042+23683780+23028848+22054370+21276062+20510342+18689154
3691.73+15638103+12980761+11580856+9300297+4000926-1931606-3053384+2518754
3686.59+10984251+17836214+21647942+23133768+23282152+22941594+22742636+22727240
3681.44+22485104+21689454+20379690+19074010+18527780+18551002+17086818+11725761
3676.30+2816943-5479528-8244867-4076334+4207942+12121848+15800434+13581176
3671.16+7340530+1758008+518010+3390764+8013866+12894068+17422916+20844160
3666.02+22696212+23356286+23426126+23284780+23357960+23904210+24592522+25017478
3660.87+25241880+25379068+25354448+25219532+24607932+22207202+17461836+12601245
3655.73+11033486+13567040+17983368+21829850+23740496+22937776+19346706+13894343
3650.59+7866150+2484141-779001-871224+1553256+4902094+8582441+12889794+17472670
3644.80+21298244+23857758+25365442+26071476+26184570+26181104+26505120+27026766
3639.66+27193262+26734712+26024136+25711076+26058446+26713308+27061810+26681258
3634.52+25568130+24278254+23722586+24305966+25114618+24226780+20054768+12779357
3629.37+5017179+744018+2341681+8473309+15584115+21093606+24604708+26829788
3624.23+28311612+29133998+29293488+28917176+27958224+25942612+22646208+19088782
3619.09+17030172+17224272+18977404+21403076+23966906+25950144+26703862+26392844
3613.95+25523552+24227258+23010228+23158240+24860006+26027722+24705532+21756132
3608.80+19776494+19990888+21612278+23675662+25997602+28519990+30795852+32301634
3603.66+32921620+32949448+32665518+32112166+31407572+30926352+30867034+31090058
3598.52+31575516+32388704+33012432+32635050+31374964+30314424+30166234+30746480
3593.38+31725964+32974040+34222540+35066604+35142860+34030484+31615552+28742634
3588.23+26713070+25996168+26262046+27499978+29872760+32677148+34717164+35696460
3583.09+36319064+37090572+37785288+38095812+38179164+38390024+38763816+39041400
3577.95+39134660+39277624+39626664+40028852+40336240+40599352+40834204+40972592
3572.81+41079076+41232060+41299760+41146896+40800360+40070752+38519832+36197100
3567.66+33924144+32542818+32395300+33553676+35795452+38339624+40341172+41669640
3562.52+42680708+43431060+43698080+43614740+43724136+44350720+45181852+45625980
3557.38+45567788+45576840+46145928+46938424+47156508+46481804+45317408+44344088
3552.24+44117144+44791764+45951264+46985180+47680236+48121904+48203504+47766416
3547.09+47075556+46649824+46729908+47245672+48088900+49140140+50245072+51290920
3541.95+52160708+52677280+52822680+52852248+52969064+53096552+53138728+53216900
3536.81+53472520+53850864+54177980+54374424+54583872+55065052+55860640+56625468
3531.67+57000776+57042792+57056148+57140420+57156820+57013288+56741540+56429172
3526.52+56212252+56202908+56373452+56668816+57174064+57931384+58630172+58799716
3521.38+58410096+58068304+58440232+59526536+60638248+61094132+60872688+60543484
3516.24+60682532+61437672+62549480+63585288+64189068+64303260+64227448+64330800
3511.10+64645760+64898600+64990528+65198900+65748168+66448252+66986272+67309592
3505.95+67479392+67501120+67517968+67814744+68360224+68756072+68830592+68866384
3500.81+69118784+69586528+70265352+71135696+71921872+72338384+72505304+72721088
3495.67+73011184+73257624+73521232+73923024+74394112+74763352+74985504+75227176
3490.52+75738400+76488504+77002528+76871888+76369440+76149456+76471216+77139904
3485.38+77939264+78657680+78978624+78813600+78441272+78093536+77798768+77724272
3480.24+78118704+78850928+79513920+79952912+80277136+80535040+80760416+81062032
3475.10+81406344+81639800+81842568+82216776+82673472+83047472+83567616+84500584
3469.95+85504456+85964016+85872208+85849416+86364272+87278696+88048736+88193920
3464.81+87717456+87148376+87030888+87388072+87857688+88239080+88650400+89193008
3459.67+89706128+89908728+89745512+89502448+89514784+89831440+90314840+90965256
3454.53+91820144+92564752+92619400+91795312+90618648+89872176+89938984+90605440
3449.38+91322288+91644552+91541112+91324760+91279160+91442504+91732280+92134936
3444.24+92698160+93422936+94186088+94763768+95029752+95103648+95148840+95070976
3439.10+94724400+94356104+94440504+95030008+95640480+95893720+95971608+96302664
3433.96+96946856+97428048+97264216+96650136+96362000+96783944+97451720+97853560
3428.81+98120968+98437504+98423616+97751792+96805744+96116264+95731984+95622776
3423.67+95995504+96714432+97092216+96752472+96167912+96012480+96459000+97226168
3418.53+97909840+98156304+97858392+97224560+96549792+96065848+96035264+96656832
3413.39+97786496+98955512+99706664+99809904+99340416+98698544+98369928+98499384
3408.24+98801232+98927984+98798368+98578872+98428824+98322688+98144768+97967728
3403.10+98012736+98269992+98437000+98383568+98329872+98388280+98305696+97825920
3397.96+97026544+96189704+95652992+95720344+96319144+96836600+96747888+96318032
3392.82+96224760+96580400+96871408+96813544+96682600+96726328+96783312+96679504
3387.67+96499856+96285824+95890368+95370928+95074192+95141408+95327360+95477784
3382.53+95703256+95919976+95757496+95184496+94782568+95091640+95939032+96642088
3377.39+96779736+96567024+96455400+96494792+96350232+95944616+95639360+95634032
3372.25+95689016+95705488+95975936+96508912+96707248+96187856+95409432+95018368
3367.10+94953760+94630344+93815184+92949168+92624848+92926168+93421704+93749120
3361.96+93953992+94158000+94234104+94061008+93749008+93401288+93014448+92767400
3356.82+92981432+93609584+94191792+94442608+94440504+94235464+93769536+93225792
3351.68+93022360+93352072+93975024+94473544+94602864+94411552+94076344+93631600
3346.53+92984768+92223696+91628600+91294368+91053088+90870016+90944256+91356264
3341.39+91901952+92305768+92385256+92139632+91857464+91861672+92058928+92132224
3336.25+92177824+92517536+92925304+92800416+92162624+91672096+91630200+91710272
3331.10+91679512+91657512+91633792+91385552+90898672+90482560+90465880+90972416
3325.96+91806312+92468824+92535960+92072152+91520600+91280528+91499344+91975504
3320.82+92189576+91831264+91342928+91392216+91839928+91867232+91145368+90215928
3315.68+89713416+89809096+90377952+91181688+91905912+92348040+92501576+92338640
3310.53+91848440+91334888+91223696+91522824+91918896+92371904+93059344+93792904
3305.39+94050984+93606736+92737728+91883920+91416680+91568552+92219736+92867672
3300.25+93041416+92678496+92051256+91506896+91301656+91486616+91870192+92146936
3295.11+92049904+91492056+90774152+90530848+91100272+91999720+92412328+92106504
3289.96+91499344+90996264+90715856+90690288+90872976+91022328+90940664+90691280
3284.82+90359168+89840080+89122912+88525304+88371936+88571440+88743560+88736280
3279.68+88818344+89228680+89632192+89363216+88287800+87047640+86231176+85734832
3274.54+85249720+84846600+84652408+84460560+84146744+84001368+84138384+84037680
3269.39+83217392+81997128+81091896+80699464+80458112+80078712+79528040+78742024
3264.25+77664888+76590552+76031152+76090360+76281392+76130456+75724912+75406840
3259.11+75110632+74375856+73066400+71763072+71183880+71355720+71638040+71507512
3253.97+71014624+70462672+70029800+69802344+69794400+69796728+69517120+69000648
3248.82+68586784+68373168+68075072+67507344+66881320+66502912+66441180+66566368
3243.68+66728408+66822124+66765624+66441424+65717556+64632600+63522172+62812156
3238.54+62648360+62808144+62925788+62783176+62473496+62272840+62272108+62191024
3233.40+61739388+61035852+60437896+60060364+59766316+59555472+59553772+59639860
3228.25+59517296+59253960+59268796+59613104+59749776+59315116+58645608+58234032
3223.11+58035620+57678588+57041336+56312516+55730428+55452556+55488832+55697056
3217.97+56014412+56541464+57161312+57386956+56972000+56345292+56023512+55902756
3212.83+55595368+55115760+54775624+54642088+54551000+54477392+54519956+54613100
3207.68+54577808+54408504+54253044+54102080+53764780+53192056+52605672+52213516
3202.54+52008324+51916032+51916272+51944248+51934076+51997180+52253736+52485852
3197.40+52310188+51714136+51090904+50776280+50822276+51122868+51403156+51239584
3192.26+50453472+49455364+48910476+49109908+49795428+50510112+50920936+50910648
3187.11+50568576+50133380+49813332+49609600+49392460+49122852+48870328+48642268
3181.97+48375176+48135204+48146808+48547472+49233280+49937840+50332812+50177788
3176.83+49586852+49058504+48997312+49283592+49506528+49521288+49564232+49839344
3171.69+50168464+50193272+49874920+49600648+49670572+49924404+50067552+50149716
3166.54+50437376+50998536+51642084+52136840+52335264+52259064+52112980+52046240
3161.40+51968720+51793220+51707960+51888896+52141684+52082092+51575112+50866944
3156.26+50408568+50545336+51203136+51917852+52301584+52313092+52047204+51574872
3151.11+51067544+50715512+50466784+50141604+49811160+49753324+50025072+50323488
3145.97+50291540+49879512+49433948+49367176+49638392+49747396+49356172+48659440
3140.83+48008392+47524820+47267428+47360472+47701508+47860324+47518900+46790920
3135.69+45995096+45346016+44940576+44816264+44890728+44965680+44898816+44725396
3130.54+44600612+44625836+44699328+44555364+44041868+43397652+43088464+43297316
3125.40+43724856+43995424+44039336+43938608+43712800+43460608+43419360+43616308
3120.26+43754292+43637896+43405492+43200844+42978136+42769316+42716272+42767992
3115.12+42716752+42564140+42466012+42350420+41980896+41407108+41012700+41051128
3109.97+41350724+41545300+41506020+41430836+41466376+41387228+40868044+40021628
3104.83+39398100+39406160+39896064+40322508+40264600+39827928+39517492+39620644
3099.69+39859952+39849596+39648092+39587668+39804336+40189460+40549380+40606580
3094.55+40163340+39450928+38966432+38861032+38843104+38752988+38787636+39071844
3089.40+39402192+39576472+39660248+39754980+39743904+39500404+39203016+39175576
3084.26+39420844+39602708+39536504+39436736+39558776+39816132+39881980+39559380
3079.12+38987372+38541000+38526684+38906516+39363196+39577680+39380284+38808328
3073.98+38166540+37858164+37944396+38107116+38146212+38209232+38417816+38618960
3068.83+38643384+38516100+38370544+38344196+38435140+38365612+37874036+37206700
3063.69+36881648+36975772+37134568+37204296+37278592+37271380+37046332+36804364
3058.55+36811812+36977096+37101272+37253588+37513172+37665156+37465792+36984908
3053.41+36460272+36017952+35652492+35380784+35311964+35514228+35815392+35886996
3048.26+35589912+35041984+34383040+33789244+33633112+34144760+34967048+35515552
3043.12+35681324+35764336+35890360+35952832+35916188+35812508+35628948+35404568
3037.98+35197024+34875308+34276920+33611152+33396002+33884296+34730376+35253352
3032.84+35053272+34413172+34036244+34288328+34886716+35395800+35692132+35793288
3027.69+35660780+35363848+35143940+35186456+35503420+35958956+36233508+36007740
3022.55+35400720+34974016+35087496+35522040+35857680+35943464+35922792+36016384
3017.41+36277968+36474088+36373024+36165624+36273404+36695352+36971324+36842704
3012.27+36556532+36453896+36598720+36855688+37067492+37133964+37051136+36847392
3007.12+36527928+36213084+36191812+36574316+37048372+37270540+37295304+37309128
3001.98+37238320+37013268+36965072+37493688+38436104+39193868+39479464+39595128
2996.84+39913400+40368268+40633800+40603088+40475924+40471348+40668484+41083892
2991.69+41661928+42173240+42331496+42084056+41682412+41468064+41673012+42334268
2986.55+43261860+44134156+44754840+45167612+45483152+45708084+45832924+45959232
2981.41+46222012+46666732+47259084+47938048+48584708+49060440+49381696+49763364
2976.27+50369964+51108100+51769484+52304976+52823288+53421852+54127420+54927004
2971.12+55741228+56447984+57035264+57626964+58270116+58813812+59114896+59252264
2965.98+59450184+59840976+60378540+60930480+61405172+61781628+62070012+62290244
2960.84+62472036+62649576+62804480+62871832+62808864+62628996+62401056+62225356
2955.70+62145604+62063188+61837740+61464924+61020644+60513800+59954556+59473644
2950.55+59134592+58804948+58450688+58337316+58607208+58935604+58943020+58732992
2945.41+58705408+59047304+59614564+60135040+60385956+60396664+60483880+60882176
2940.27+61375968+61615484+61649804+61831900+62310464+62902892+63356972+63500124
2935.13+63306428+63024076+63021396+63330672+63597224+63610380+63573824+63673988
2929.98+63762688+63722596+63772552+64101684+64488036+64614560+64479012+64215756
2924.84+63838468+63417288+63153912+63021156+62719724+62199668+61759352+61445212
2919.70+60918188+60130536+59526416+59314508+59156704+58813448+58514728+58445948
2914.56+58378264+58061988+57565256+57022636+56382920+55574376+54727588+54104868
2909.41+53840312+53782120+53617980+53219200+52756280+52374516+51936864+51284016
2904.27+50589028+50147052+49946668+49737112+49475324+49404076+49628468+49844428
2899.13+49666340+49169776+48915920+49299076+49987684+50253660+49871044+49347464
2893.99+49116560+48915796+48320532+47530980+47102976+47116752+47167256+47070964
2888.84+47031816+47143572+47207496+47066728+46767964+46437356+46245196+46358124
2883.70+46701884+46970560+47065280+47240600+47654492+48082856+48275796+48307108
2878.56+48373000+48490640+48535980+48438048+48257540+48131332+48147896+48216924
2873.42+48138224+47849452+47508988+47273108+47098752+46838152+46473708+46128540
2868.27+45824356+45365940+44625600+43863696+43496304+43607984+43914844+44157924
2863.13+44233808+44038372+43540924+43005268+42763768+42771852+42665640+42290636
2857.99+41890032+41730972+41766160+41769892+41682532+41678796+41902568+42263156
2852.85+42520492+42508564+42259536+41973788+41875328+41983064+42047660+41815080
2847.70+41297836+40737008+40399452+40448948+40759292+40825284+40177904+38982560
2842.56+37931404+37504152+37616700+37959548+38329760+38588160+38574324+38163292
2837.42+37399424+36618784+36279288+36420972+36513988+36168744+35737424+35756288
2832.27+36080308+36105908+35651892+35117640+34886116+34971976+35169400+35271964
2827.13+35191860+35019168+34904964+34894636+34947712+35074164+35327936+35679036
2821.99+35988276+36100252+35973620+35726132+35534176+35484924+35546424+35637716
2816.85+35685528+35685888+35741264+35940336+36183640+36267996+36109268+35770820
2811.70+35352680+35006196+34857176+34780928+34489892+34051616+33978636+34555800
2806.56+35397240+35941660+36093284+36125608+36192292+36205516+36074784+35849392
2801.42+35681084+35714844+35970976+36311736+36563380+36666860+36652200+36502096
2796.28+36144712+35631352+35177328+34932828+34812504+34720768+34818628+35298028
2791.13+35973860+36425660+36541992+36560616+36595836+36524804+36383116+36444044
2785.99+36769508+37053184+37082996+37027700+37080472+37136372+37036116+36904124
2780.85+37007620+37408196+37904824+38208276+38125400+37746204+37480708+37701592
2775.71+38295840+38762252+38792448+38547256+38366092+38442356+38801952+39372584
2770.56+39952408+40285668+40270256+40035960+39790492+39658560+39715136+40063528
2765.42+40746640+41591924+42275088+42612356+42700600+42755576+42950524+43404644
2760.28+44086384+44661432+44755080+44482604+44413100+44871416+45575516+46116100
2755.14+46454500+46756732+47028796+47186104+47309356+47604580+48175580+48963812
2749.99+49834752+50629936+51187036+51447720+51574504+51884784+52555152+53418704
2744.85+54148036+54647300+55133228+55817320+56681080+57625144+58649620+59718280
2739.71+60619516+61168728+61520548+62106408+63212140+64697572+66144232+67256000
2734.57+68118064+69066976+70290176+71625080+72823416+73911752+75121536+76517456
2729.42+77905776+79141184+80325296+81630952+83087456+84654128+86395328+88448552
2724.28+90814552+93293064+95655704+97823440+99833352+101728304+103599072
2719.78+105632280+107950504+110443984+112926488+115380600+117871448+120330184
2715.28+122686672+125124392+127903888+130991328+134123088+137204304+140349600
2710.78+143570160+146739968+149881776+153230064+156930656+160825248+164595600
2706.28+168040448+171254592+174566880+178223808+182119184+185952496+189659360
2701.78+193479360+197545152+201675888+205694320+209710672+213939456+218389136
2697.28+222881040+227264992+231508816+235676560+239876656+244186080+248622864
2692.78+253198752+257888432+262513328+266855616+270986208+275264704+279885696
2688.28+284638720+289244512+293725440+298284256+302992640+307759040+312484384
2683.78+317134848+321729376+326288000+330776256+335152576+339502976+344010720
2679.28+348707968+353381088+357818592+362053472+366281600+370642880+375174336
2674.78+379877312+384702272+389515680+394184192+398691168+403083168+407349824
2670.28+411480768+415655264+420159168+425031392+429963840+434672096+439187744
2665.78+443635072+447923712+451906368+455713312+459728288+464214848+469063136
2661.28+473881664+478354240+482560576+486901472+491613888+496457728+501025472
2656.78+505256192+509464160+513913280+518553760+523150816+527543776+531768256
2652.28+535994688+540348160+544782592+549184896+553540800+557902528+562262784
2647.78+566625280+571138176+575912192+580709824+585100928+589002176+592835264
2643.29+597032320+601588928+606193152+610649344+615045376+619571584+624258816
2638.79+628896768+633244288+637317120+641384256+645653120+650083520+654521664
2634.29+658915968+663350400+667914752+672530432+676934848+680977664+684900992
2629.79+689125312+693740352+698425344+702881920+707096000+711170688+715146368
2625.29+719016192+722802432+726611200+730638656+734977280+739410688+743628416
2620.79+747654080+751811136+756252544+760751808+764990528+768822528+772294528
2616.29+775627776+779142784+783025408+787178368+791386432+795538496+799610048
2611.79+803569856+807413952+811187328+814898304+818506624+822080960+825824000
2607.29+829837440+833939072+837835584+841434240+844893568+848426624+852143744
2602.79+856013952+859853568+863400960+866516032+869331008+872112640+875015872
2598.29+878016512+881086080+884318592+887776064+891272320+894469248+897207040
2593.79+899614912+901930816+904410048+907297280+910596224+913916544+916879488
2589.29+919538112+922122880+924606528+926941120+929380160+932092672+934761728
2584.79+937039872+939094528+941297088+943684736+946068544+948364352+950590656
2580.29+952777408+954993920+957233280+959355584+961358016+963476160+965778752
2575.79+967972608+969862720+971654528+973565952+975470848+977171520+978728704
2571.29+980317120+981930240+983417664+984750592+986126656+987742848+989497536
2566.79+991085888+992399296+993622912+994894016+996158080+997442560+998921088
2562.29+1000597504+1002219264+1003590848+1004761792+1005836992+1006839040
2558.43+1007774976+1008706240+1009736448+1010971392+1012440128+1014000448
2554.58+1015415040+1016510272+1017251776+1017760512+1018316224+1019184640
2550.72+1020336640+1021470208+1022381312+1023176832+1024075968+1025174400
2546.86+1026419200+1027631744+1028566848+1029147200+1029609472+1030236544
2543.00+1031033280+1031856576+1032707840+1033654848+1034611328+1035477312
2539.15+1036350016+1037354112+1038421120+1039431680+1040357760+1041141312
2535.29+1041699584+1042187328+1042927104+1043975424+1045056512+1045989568
2531.43+1046815104+1047520064+1048015296+1048427904+1049041792+1049916480
2527.58+1050837824+1051658048+1052453056+1053332288+1054249088+1055069760
2523.72+1055741504+1056378944+1057185856+1058247424+1059379008+1060231296
2519.86+1060609088+1060700160+1060890368+1061353536+1061964544+1062618496
2516.01+1063346688+1064066240+1064583232+1064970176+1065546560+1066360384
2512.15+1067108288+1067691904+1068360512+1069184512+1069875520+1070259776
2508.29+1070493888+1070735168+1070975744+1071244672+1071622016+1072039680
2504.44+1072315520+1072397632+1072417664+1072535744+1072824960+1073222784
2500.58+1073569664+1073741824+1073723648+1073531328+1073169984+1072736128
2496.72+1072393984+1072174080+1071918592+1071492864+1070958976+1070472896
2492.86+1070071616+1069644672+1069087424+1068412544+1067675136+1066876800
2489.01+1066026048+1065219904+1064542080+1063924352+1063225344+1062400384
2485.15+1061513984+1060632640+1059744384+1058706368+1057292480+1055481408
2481.29+1053650368+1052214720+1051066816+1049694656+1047900352+1046064448
2477.44+1044568000+1043315200+1041982016+1040427520+1038668480+1036717632
2473.58+1034678592+1032768448+1031054720+1029359552+1027574976+1025833536
2469.72+1024201408+1022446336+1020325760+1017919296+1015497600+1013225792
2465.87+1011105152+1009070400+1007015680+1004852224+1002629056+1000511872
2462.01+998592896+996782528+994930752+992992832+991041536+989129024+987160192
2457.51+984992832+982655616+980369600+978293248+976342272+974331584+972220544
2453.01+970120384+968085632+966012544+963821440+961675904+959888384+958537792
2448.51+957297344+955744896+953757120+951540288+949368192+947398592+945677248
2444.01+944209344+942967808+941824320+940555648+939045632+937454016+936015552
2439.51+934722624+933416128+932110656+930945792+929863872+928629568+927183872
2435.01+925743552+924529216+923540480+922579456+921438784+920118080+918852160
2430.51+917838592+917032640+916304064+915603072+914843072+913859264+912698112
2426.01+911691648+911042048+910529600+909831040+908939904+908094144+907422848
2421.51+906793792+905991808+905006336+904105472+903561856+903333440+903115136
2417.01+902644352+901854592+900832000+899804352+899046016+898641856+898387456
2412.51+898007040+897373696+896516032+895571584+894721728+893988928+893140160
2408.01+892001152+890778560+889840064+889233600+888671744+887945088+887122880
2403.51+886340672+885568768+884652928+883510208+882250496+881103936+880198016
2399.01+879393088+878401920+877091520+875627648+874274880+873121536+872016000
2394.51+870746048+869233600+867580032+865938816+864373952+862877056+861481792
2390.01+860229056+858972224+857399296+855401152+853299136+851512192+850074368
2385.51+848658752+847000960+845141504+843253312+841411904+839574080+837694144
2381.01+835775296+833804992+831729344+829532416+827303168+825113024+822868096
2376.51+820403840+817733952+815105856+812772032+810743296+808781952+806607296
2372.01+804110336+801382656+798566912+795738496+792924608+790148096+787402176
2367.51+784669632+781991744+779427328+776921792+774356864+771753088+769271936
2363.01+766943296+764556480+761938624+759233280+756753280+754610048+752600000
2358.51+750449152+748099776+745748800+743635968+741779392+739955392+738002048
2354.02+736061376+734381312+732923776+731384960+729571968+727544448+725415040
2349.52+723231680+721005376+718645696+715945856+712860032+709672832+706682496
2345.02+703855872+701012352+698149312+695361792+692642304+689996480+687536512
2340.52+685227072+682759552+679914752+676894656+674082176+671617024+669344320
2336.02+667061952+664683712+662249216+659894976+657737088+655689216+653484224
2331.52+650973696+648337728+645914368+643843968+641952896+639940608+637654784
2327.02+635210688+632853568+630658752+628457664+626152448+623937856+621988224
2322.52+620117440+618049856+615873472+613828992+611823488+609574464+607130048
2318.02+604831104+602809152+600868160+598797184+596532224+594110848+591669888
2313.52+589381376+587248128+585120960+582955264+580831488+578684992+576313856
2309.02+573723776+571224512+569076416+567211008+565342592+563254080+560941568
2304.52+558551680+556202624+553908800+551663936+549509120+547421440+545260096
2300.02+542949888+540607808+538363840+536152160+533831488+531410048+529007296
2295.52+526656480+524312224+522023360+519917024+517983296+516004736+513781664
2291.02+511361664+508988704+506863520+504965312+503063264+500947520+498698624
2286.52+496604896+494725664+492725536+490323168+487688448+485171584+482848448
2282.02+480604320+478432224+476370176+474327648+472239520+470204992+468291712
2277.52+466383264+464356576+462223168+460026240+457800384+455646176+453652480
2273.02+451754560+449818112+447812160+445790496+443800256+441875744+439994912
2268.52+438032928+435914144+433769248+431788320+429987840+428260384+426536064
2264.02+424744608+422791456+420701920+418633568+416636512+414590560+412469984
2259.52+410446048+408620352+406868288+405057760+403240096+401485536+399699136
2255.02+397743584+395648608+393584064+391674784+389909728+388193792+386434144
2250.52+384605408+382758464+380937280+379159008+377457920+375858688+374258496
2246.02+372488512+370545728+368616064+366836608+365195744+363647520+362105280
2241.52+360398112+358489152+356649632+355111584+353690688+352058400+350222848
2237.02+348418400+346697504+344956384+343205088+341517216+339858112+338189984
2232.52+336593088+335123968+333681536+332136832+330490880+328855136+327332000
2228.02+325925600+324549536+323146240+321739936+320305344+318688704+316820384
2223.52+314911904+313263200+311901568+310572640+309083072+307500128+305985728
2219.02+304546400+303079360+301605760+300276000+299120064+297981824+296723168
2214.52+295319360+293770432+292160672+290724256+289566112+288410528+286938464
2210.02+285240128+283623136+282156704+280739616+279406144+278252448+277208192
2205.52+276111360+274872768+273492864+272061152+270719744+269462880+268093360
2201.02+266555648+265108944+263957168+262932320+261747600+260369424+258993952
2196.52+257803104+256797856+255793440+254599056+253271952+252056160+251033440
2192.02+250029712+248903152+247713168+246581360+245548896+244555584+243435824
2187.52+242050320+240507248+239108496+237993424+237008000+235968272+234856064
2183.02+233715008+232568208+231463984+230455952+229497568+228468416+227338304
2178.52+226221136+225230304+224321504+223356720+222316496+221343328+220506736
2174.02+219651120+218594144+217372560+216167056+215065232+214018336+212939888
2169.53+211803376+210702016+209800384+209126544+208489216+207714240+206848944
2165.03+206012032+205192624+204322784+203400016+202407200+201300080+200148304
2160.53+199107824+198201504+197322896+196462912+195696944+194963424+194095856
2156.03+193083248+192076496+191147184+190238704+189359056+188615424+188033328
2151.53+187472032+186766960+185920096+185114656+184510416+184025184+183393328
2147.03+182474544+181429312+180508736+179775408+179090768+178302544+177364832
2142.53+176331360+175325088+174488240+173886464+173434272+172953552+172335760
2138.03+171631936+170959776+170339888+169673152+168881488+168002528+167141344
2133.53+166370192+165681584+165022560+164388416+163831728+163326560+162689616
2129.03+161790880+160817696+160120272+159770448+159464016+158913568+158178464
2124.53+157509040+156978560+156415520+155688624+154920896+154318288+153860816
2120.03+153321360+152595968+151830368+151191216+150681888+150225408+149780448
2115.53+149321120+148825760+148312096+147793968+147216752+146531344+145803744
2111.03+145187264+144778608+144522848+144231600+143727600+143032624+142355120
2106.53+141843376+141429216+140970544+140442064+139900160+139356400+138773680
2102.03+138121264+137384640+136594416+135870208+135357984+135094592+134949216
2097.53+134719344+134270672+133645784+133033816+132585664+132271432+131979704
2093.03+131666816+131319080+130866664+130291704+129737352+129326088+128959608
2088.53+128472480+127904264+127439792+127145864+126948848+126761552+126487232
2084.03+126006104+125332784+124684280+124232112+123895992+123514560+123096048
2079.53+122731488+122372000+121864640+121173656+120450552+119882392+119528440
2075.03+119280304+118966688+118521696+118049512+117668712+117347080+116986568
2070.53+116632512+116421288+116325816+116132624+115733320+115247160+114789512
2066.03+114304600+113744560+113229288+112863296+112534312+112059072+111455240
2061.53+110939192+110679032+110650960+110714960+110752024+110706112+110537432
2057.03+110194000+109661824+108993520+108289312+107663464+107233848+107033832
2052.53+106920248+106644688+106074368+105296160+104528592+104009128+103850720
2048.03+103895488+103806192+103442304+103016336+102737088+102490312+102065168
2043.53+101503496+100986568+100561368+100187888+99894144+99690400+99504672
2039.03+99310024+99118864+98811896+98263792+97668872+97361624+97292464+97085280
2033.89+96612976+96117136+95755264+95447568+95167656+94999304+94910920+94787528
2028.75+94642848+94545824+94443848+94246592+93952368+93582984+93145152+92705088
2023.60+92333960+92013192+91750568+91654304+91711760+91676672+91342800+90755640
2018.46+90047000+89327168+88796992+88639792+88719256+88661136+88287680+87754336
2013.32+87296944+87050616+87015600+87011656+86792584+86354768+85979784+85873440
2008.18+85945408+86007392+85984224+85860256+85607936+85244784+84853128+84509696
2003.03+84259392+84104032+83966520+83730944+83365552+82963072+82651328+82501752
1997.89+82452424+82312448+81936872+81442848+81089320+80889832+80531344+79778960
1992.75+78837552+78203376+78178592+78551256+78787200+78574696+78132936+77907608
1987.61+78063592+78429104+78783640+78964624+78836928+78428248+77991424+77753976
1982.46+77720840+77806728+77919760+77847728+77383296+76650768+76025512+75681400
1977.32+75488720+75340528+75285872+75334656+75398376+75425216+75420320+75354504
1972.18+75171160+74868368+74513424+74188440+73889712+73458056+72729520+71830600
1967.04+71196360+71172760+71670712+72279040+72664544+72783384+72731256+72526240
1961.89+72149816+71734320+71502752+71499936+71554864+71542992+71501768+71443184
1956.75+71264728+70924128+70536520+70226728+70010376+69860032+69796112+69833392
1951.61+69888752+69815424+69581152+69346656+69276768+69289960+69104616+68551488
1946.47+67812920+67302752+67249904+67344992+66971260+65963328+64990900+64878848
1941.32+65644864+66572960+67139320+67430432+67674104+67812432+67689360+67374776
1936.18+67111368+67059992+67194120+67362328+67391136+67192168+66819804+66431652
1931.04+66159964+65999920+65831344+65568876+65275108+65085016+65047588+65120616
1925.90+65268280+65360704+65033804+64017352+62702552+61974804+62292200+63282428
1920.75+64281076+64692212+63883072+61705188+59385744+58849068+60526576+62766120
1915.61+63897444+63912552+63782664+64034408+64504980+64823748+64693924+64080724
1910.47+63340416+62902280+62820316+62853804+62879752+62969508+63165488+63349792
1905.33+63328836+63074020+62887296+63133216+63758912+64309964+64461460+64276936
1900.18+63957276+63616228+63336996+63210308+63259036+63346868+63213352+62736160
1895.04+62200280+62023628+62182984+62289156+62216588+62078772+61630088+60495680
1889.90+59079396+58441572+59056304+60318940+61420752+62097768+62468988+62639836
1884.75+62608668+62373408+62068552+61970784+62228644+62674788+63021884+63118836
1879.61+62943324+62585888+62306808+62341020+62591124+62746388+62674184+62514656
1874.47+62428692+62422844+62412980+62374380+62270400+61680724+59854232+56716044
1869.33+53675928+52598164+53851104+56162608+58303172+59969156+61162156+61746692
1864.18+61820576+61820944+62001100+62209524+62272592+62302420+62487380+62791208
1859.04+63046608+63234672+63435552+63526920+63297524+62892528+62751876+63034060
1853.90+63442012+63653756+63613552+63464912+63400592+63460284+63375496+62859528
1848.76+62029712+61352476+61231396+61484280+60804312+57373964+51378828+46548116
1843.61+47009824+52239560+57800060+60754924+61634592+61951076+62253364+62527080
1838.47+62654692+62395576+61903956+61837988+62375480+62902768+62966588+62716068
1833.33+62411640+62141592+61624124+59980828+56769468+53526700+52818320+55249452
1828.19+58865108+61444116+61847728+59922332+56907400+55288032+56516092+59382588
1823.04+61765192+62921888+63301676+63353568+63316412+63349432+63318000+62976812
1817.90+62427836+62009752+61904812+62128692+62588692+62994240+63051240+62735432
1812.76+62084736+60988884+59609584+58721448+59095204+60558444+62054060+62737992
1807.62+62782204+62904480+63336636+63690792+63696152+63356128+62469964+60871228
1802.47+59147720+58128936+57667896+57021656+56352816+56676468+58273880+60194024
1797.33+61365012+61534184+61244292+61107640+60611608+57977184+52459680+46636900
1792.19+44610512+47411712+52233752+56357916+59278640+61208884+62098740+62320444
1787.05+62345900+61660512+59689708+57533920+57044860+58417636+60187944+61078436
1781.90+60657468+59165828+57738596+57707864+58996984+60334748+61066392+61283720
1776.76+60749928+59536144+58754872+58398796+55748144+48774552+40316492+36223776
1771.62+39067148+45968768+52388200+55377932+54413960+51719228+51015484+53955248
1766.48+58410584+61389476+62212812+61943400+60910280+58198064+53696292+49724048
1761.33+49435524+53196052+57942808+60700776+60988268+59505744+56807224+54364608
1756.19+54495456+57437848+60659292+62247036+62256524+60162284+54684288+47614732
1751.05+44128488+46574444+51281360+54032476+54815532+55737708+57486068+59375164
1745.91+60796772+61364036+60891056+59917956+59615052+60711364+62307664+61932200
1740.76+57962972+52569084+50583944+53954396+59479848+63358812+64376384+61618524
1735.62+53100312+39380404+26730524+23373118+31389948+44767992+55724484+60570980
1730.48+60688004+59959544+60976232+63291192+65185732+66000160+66245360+66353700
1725.33+66144232+65390712+64433920+64017600+64569456+65730964+66614684+66393960
1720.19+64363712+59432556+50622068+39566960+31995138+33188550+41005840+48217048
1715.05+51620404+54121356+58497352+63418628+66692776+68273640+68793824+68453288
1709.91+68124408+68827168+69779488+69175608+66689484+63712360+61747544+61447040
1704.76+62539488+64516312+67378800+69998512+67838192+56197928+37882940+25331028
1699.62+29529990+46909668+64216608+71367344+65871840+53126608+45263332+51844332
1694.48+68773792+84300632+92800656+96697216+99551696+101944912+103676896
1689.98+105811256+108957136+112376352+115912560+119824856+121537064+116203448
1685.48+103155168+90398080+89041824+101304672+119239336+134868240+145367552
1680.98+151465536+155402864+159495984+164622368+170059456+174521120+176322720
1676.48+173863424+168478720+166099712+172222352+184610000+195496768+200551968
1671.98+201855136+202884384+203707824+202994336+202594864+206652736+216094672
1667.48+227128160+235867008+241827824+246492496+250268288+252041696+251587344
1662.98+251458080+255249136+263516096+273037344+280744672+286433696+291300544
1658.48+295923584+300409728+304731040+308062880+308808192+305137216+295018176
1653.98+278246304+261474672+258300448+275815296+303926592+327452032+340187616
1649.48+344112800+343251808+340348704+336485952+332269792+330001984+333611200
1644.98+343837312+355420864+362621440+365049312+365840864+366641248+367056736
1640.48+367121536+366935168+365321184+361535328+356357216+349331072+338182880
1635.98+324339264+315824160+318844768+328625728+335503232+335686752+331632480
1631.48+326366080+320801568+314710656+307468960+298519520+288617440+279804128
1626.98+273356192+268420320+262650720+253707792+241285696+228552512+220011312
1622.48+216730240+215426592+212673872+207933344+202633568+197508784+190560176
1617.98+178319200+161254640+147439824+145805920+154414448+163136160+166253168
1613.48+165378736+163489824+161368032+159158016+157308480+155660144+153934016
1608.98+152607184+151904608+151158880+150076736+149210944+148796496+148486176
1604.48+148133072+147720992+147066304+146367216+146150624+146256928+146020432
1599.98+145484240+145178752+145006992+144572848+144062176+143736608+143300880
1595.48+142595632+142034160+141896112+142122240+142853424+144142640+145374144
1590.99+145955152+146123200+146344608+146673392+147222464+148288304+149684128
1586.49+150919088+151971504+153011712+153867712+154560256+155500736+156605248
1581.99+157390384+158069968+159121968+160180656+160854560+161195360+159452112
1577.49+152082208+139504000+130207544+133483080+147236336+160886176+168235040
1572.99+170920656+172470400+172931264+169958784+163612832+158239824+158593200
1568.49+164572016+171797152+176568176+178021648+177003040+175182400+174489296
1563.99+175656816+177580480+178239568+174977952+164856256+147643456+128627072
1559.49+115293808+110700368+114060248+125135448+141396272+154888880+158553600
1554.99+153563840+148110160+148930576+155169088+161398896+163636032+161582080
1550.49+157797024+155466944+155868976+157778256+159200464+158717840+155371600
1545.99+149222000+142747424+139329056+138454032+135200944+126829600+116930888
1541.49+109948904+103985136+94874288+85865808+86341704+98895232+114898032
1536.99+125375760+128480264+126507496+121143040+113552896+106961216+105453952
1532.49+109302704+114419592+117341944+117961720+117145912+114836024+111614640
1527.99+109271040+108102272+106163872+102774992+100329248+100908832+102763192
1523.49+101795984+95521240+85318320+76287648+74436608+81641024+93157776
1518.99+101485856+102617920+98899568+96321752+98243088+102802592+106992352
1514.49+109804488+110660568+108733992+105265064+103288416+103588128+103799496
1509.99+102074984+98384552+92176712+82162408+69352032+58543164+55680920
1505.49+63243936+77835824+92631392+102452664+106540096+107371848+107647640
1500.99+107995864+107007432+103814280+100402856+99431728+99621424+97216760
1496.49+92885232+92585656+99201984+108129568+114134736+116804968+117583072
1491.99+116144760+112115248+107837752+106826976+109929936+114538472+117745720
1487.49+119432568+121831392+126260616+131391712+135355072+138082944+140566672
1482.99+143009920+144946048+146518512+148506768+151323152+154744336+158383072
1478.49+161574016+163120032+162540272+161705616+163367200+167131968+169109200
1473.99+166833392+162668224+161425008+165823872+175004400+185909712+195123552
1469.49+200840912+203857840+206106704+208320624+209527424+208330848+204749024
1464.99+201614880+202930400+209065280+215748640+219549728+221204528+222246800
1460.49+221935568+219446272+215419600+209337520+199616560+189098288+186212608
1455.99+195591168+211264176+224252656+231308432+234166864+235048432+234989696
1451.49+234774640+235182896+236010272+235918160+233995552+231262416+230000160
1446.99+231339856+234107232+236348880+237283824+237403664+237239248+236743232
1442.49+235919920+235251200+234911056+234306048+233073552+231292128+227644304
1437.99+219548816+207640096+198478272+198439152+205201808+210822752+211368256
1433.49+208797920+205903904+203139440+199835552+195741744+191297664+187708736
1428.99+186029088+185550384+184532800+182547632+180286960+177531568+173553504
1424.49+169075776+165631296+163538240+162187952+160870176+157647280+149907472
1419.99+138582576+129867464+129174328+134523712+139930160+142586880+143503328
1415.49+143916016+143914128+143527680+143039456+142437152+141605632+140748336
1410.99+140101248+139672896+139519568+139792160+140409264+140984464+141015392
1406.50+139989936+137817056+135488096+134619968+135691008+137363136+138163168
1402.00+137946832+136998208+134786672+130965472+126892616+124585416+124294432
1397.50+124435528+123541432+121053616+117076576+112816704+110488648+111194144
1393.00+113445184+114952176+114969432+114177728+113203688+111823608+109122688
1388.50+104514168+99232248+96129640+96748008+99407040+101441032+102020440
1384.00+101769896+101118176+100238400+99525024+99082904+98501488+97655488
1379.50+96995064+96819488+96945872+97058008+96822344+95879976+94195376+92288720
1374.35+90983040+91058392+92821432+95663504+98405016+100332608+101419920
1369.85+101666440+101126864+100550688+100824776+101717864+102216976+101928896
1365.35+101080304+99589776+97398552+95370808+94573776+94896320+95494496
1360.85+96212992+97446504+98958112+99915856+99954960+99443144+98800112+98139688
1355.71+97516912+97055776+96787664+96615696+96460720+96271824+95945352+95426896
1350.57+94887776+94590616+94543960+94507208+94376032+94275920+94232992+94090200
1345.43+93861072+93836216+94186584+94715496+95040640+94805720+93823968+92348904
1340.28+91100528+90700048+91101640+91755760+92175976+92239512+92146936+92224680
1335.14+92583784+92946808+92948792+92537072+91965976+91517760+91344288+91430648
1330.00+91638856+91849424+92046200+92219120+92297976+92215528+91964248+91653312
1324.86+91594872+92033344+92669232+92855688+92444096+91894920+91432368+90763904
1319.71+89833048+89099832+88814024+88668792+88399696+88156056+88094504+88075512
1314.57+87925024+87717696+87693032+87970048+88356520+88526408+88431160+88309152
1309.43+88204792+87865704+87295104+86952232+87131616+87519648+87682432+87685264
1304.29+87901712+88388352+88789960+88869920+88851656+89067864+89465056+89729224
1299.14+89791936+89855512+89971576+89977496+89858968+89853664+90176416+90823328
1294.00+91601784+92226776+92521736+92617424+92797688+93135264+93482432+93796008
1288.86+94205272+94739248+95233760+95566688+95832776+96237752+96869680+97618176
1283.72+98317352+98919176+99475016+99989088+100432520+100885376+101502120
1279.22+102322456+103256216+104253240+105350928+106554288+107782696+108942784
1274.72+109970112+110831384+111594536+112452392+113556880+114850024+116188680
1270.22+117557032+119014664+120525528+122040064+123638384+125383320+127112912
1265.72+128636632+130042232+131603536+133430192+135380864+137286512+139153744
1261.22+141195552+143659600+146570080+149710208+152879920+156005296+159012000
1256.72+161858592+164733552+167897360+171316224+174741616+178145440+181723904
1252.22+185494272+189240016+192891296+196635040+200569584+204496928+208210656
1247.72+211847904+215758352+220070768+224585936+229148768+233887472+238945136
1243.22+244150960+249182256+253987312+258895904+264299232+270262400+276455104
1238.72+282482560+288293824+294170112+300296736+306499136+312496128+318282688
1234.22+324118464+330180832+336397152+342658016+349006976+355453664+361779776
1229.72+367828896+373858560+380228032+386778048+392938464+398488864+403844608
1225.22+409506272+415518752+421563808+427404576+433074464+438667456+444081088
1220.72+449108544+453745664+458213184+462630752+466889088+470852640+474507264
1216.22+477888352+481016960+483902368+486523520+488863648+490975328+492877504
1211.72+494459328+495659456+496635392+497544288+498267296+498540768+498244512
1207.22+497454016+496325056+494992448+493415008+491333408+488533696+485128160
1202.72+481465632+477817664+474237568+470612928+466767872+462578912+458047360
1198.22+453214528+448019392+442349696+436275936+430131648+424241248+418592768
1193.72+412943776+407182464+401359936+395422688+389275360+383099776+377209824
1189.22+371571328+365866528+360048416+354419840+349149248+344054368+338892736
1184.72+333622912+328404960+323491072+319057760+315074048+311358560+307740576
1180.22+304116704+300459584+296846688+293430912+290358752+287694656+285294752
1175.72+282817632+280089280+277377024+275043840+273047104+271089728+269039104
1171.22+266940528+264871120+263010224+261563136+260485424+259565120+258689936
1166.72+257740352+256530528+255211520+254308464+253976192+253727776+253204768
1162.22+252618288+252199824+251845264+251475200+251177568+250910112+250569136
1157.72+250251024+250044048+249779280+249391968+249238176+249673568+250539536
1153.22+251397376+252098656+252898688+254080672+255665376+257486112+259378016
1148.72+261185472+262770768+264249888+266038704+268394400+271087712+273810688
1144.22+276628640+279723712+283007232+286316672+289685472+293183808+296768416
1139.72+300469888+304452960+308832608+313621184+318772672+324117568+329449408
1135.22+334788160+340275264+345798208+351172064+356663616+362825248+369777888
1130.72+377130464+384560928+392044640+399596320+407231392+415118592+423418272
1126.22+432054240+440878624+449886272+459089760+468412512+477881024+487659488
1121.72+497755488+508015616+518496064+529420384+540605376+551399808+561470144
1117.23+571274816+581479808+592230592+603251264+614334976+625379136+636151808
1112.73+646371392+656070016+665669696+675586240+685767616+695747264+705159488
1108.23+713995840+722338240+730242304+738021376+746123648+754473664+762437376
1103.73+769700224+776606528+783412288+789908096+796075072+802403520+809166656
1099.23+815909184+821978752+827183744+831843904+836510080+841602176+846994432
1094.73+852030720+856197568+859677824+863121088+866966464+871086208+875022208
1090.23+878600128+882178048+886064448+889933952+893271488+896143552+898953728
1085.73+901743680+904334272+906751616+908834752+909930496+909743296+909101056
1081.23+909119424+909850304+910257088+909330624+906897792+903559360+900018112
1076.73+896414528+892339136+887543104+882342592+877114112+871675648+865415168
1072.23+857938496+849453696+840567424+831718400+822849792+813617792+803676672
1067.73+792659712+780358272+767265920+754444992+742330240+730149248+717046592
1063.23+703232320+689422144+675718656+661782208+647675008+633798592+620254912
1058.73+606883904+593748992+581053312+568681088+556284480+543841792+531811296
1054.23+520633888+510227360+500056960+489669600+479045696+468409664+457867776
1049.73+447414528+437201920+427540416+418548128+409978944+401469632+392931712
1045.23+384672992+377100416+370213568+363487616+356441408+349201920+342263392
1040.73+335826816+329728384+323887776+318431360+313388960+308556704+303666752
1036.23+298600704+293547648+288949600+285033280+281410400+277459968+273031648
1031.73+268516128+264346800+260752704+257798256+255325344+252969744+250479472
1027.23+247931520+245543712+243407808+241517376+239925648+238744272+237943536
1022.73+237214416+236158384+234701168+233207760+232116448+231585344+231464256
1018.23+231456160+231351520+231222512+231278064+231534416+231918928+232620736
1013.73+233876848+235483728+237036576+238531056+240211792+242071648+244060080
1009.23+246514416+249799728+253777152+258076336+262633920+267657568+273314912
1004.73+279630080+286494240+293769600+301544064+310072224+319351552+329086688
1000.23+339201376+349957568+361418464+373208992+384956192+396658304+408547264
995.73+420865536+433739040+447042496+460424160+473596320+486407520+498504000
991.23+509196192+517957248+524848512+530118272+533520864+534431392+532624576
986.73+528476032+522335776+514215776+504269184+493054752+481073216+468452096
982.23+455290752+441872480+428393696+414881952+401497824+388509888+375952992
977.73+363675712+351708608+340212832+329140640+318327968+307885728+298128416
973.23+289122592+280642112+272588704+265165600+258525744+252468800+246590848
968.73+240665536+234863088+229629280+225298128+221750288+218550112+215449456
964.23+212545664+209918192+207405952+204882240+202491248+200453392+198766288
959.73+197191520+195493888+193726048+192282048+191491168+191173824+190828720
955.23+190189328+189339584+188390688+187422608+186677888+186442576+186715360
950.73+187171904+187464096+187500416+187460464+187501744+187490960+187213792
946.23+186834640+186795856+187166320+187480592+187353744+186942896+186653648
941.73+186663104+186880528+187208368+187643104+188123248+188435696+188398576
937.23+188078240+187708464+187490304+187562800+187983248+188601424+189201728
932.74+189852208+190797936+191943664+192819120+193107456+192904528+192514656
928.24+192287632+192479936+193034080+193673072+194337808+195196352+196158976
923.74+196827632+197015296+196991456+197155920+197690256+198468240+199181792
919.24+199639136+199950672+200329488+200864416+201586288+202461712+203215264
914.74+203538224+203556656+203738032+204347664+205328608+206528208+207675856
910.24+208409264+208661856+208745376+208868080+208975472+209098992+209374384
905.74+209725488+210078368+210688896+211667488+212459088+212474064+211957152
901.24+211592496+211567296+211632688+211732864+211986288+212359936+212821552
896.74+213489552+214295600+214882176+215098768+215177696+215241232+215114272
892.24+214775776+214498192+214384192+214271536+214168704+214288624+214552352
887.74+214552640+214099968+213422784+212782528+212193536+211596576+211057424
883.24+210704240+210563952+210506880+210353616+210034560+209591440+209065280
878.74+208503120+207985248+207455088+206683392+205692608+205012160+205061504
874.24+205431488+205313312+204533024+203629760+202969104+202370880+201654208
869.74+201001904+200648304+200579136+200606928+200460960+199869488+198848176
865.24+197780224+196941664+196174080+195296624+194468768+193830912+193212160
860.74+192570976+192266192+192496208+192917152+193147904+193259520+193518512
856.24+193999040+194498944+194540592+193665024+192123568+191002432+191152128
851.74+192254864+193381024+194195024+195116640+196350464+197303744+197227728
847.24+196135232+194641840+193196560+192095216+191936368+193071808+194858224
842.74+196416272+197680224+198838288+199588752+199998320+200851872+201990624
838.24+201675888+198995344+195747728+194500752+195512256+196840288+197164784
833.74+197131056+197638368+198055104+197076560+194647968+191745552+188911600
829.24+186426768+185215824+185798144+186814672+186340320+184414832+182879520
824.74+182938016+183971584+184550544+183826208+182016208+179937552+178191152
820.24+176918800+176121248+175601248+174743408+173167184+171428896+170263648
815.74+169474064+168437376+167224800+166337216+165829376+165470432+165228560
811.24+165035024+164731216+164593024+165135056+166040032+166068400+164499040
806.74+162040304+159934272+158686528+158085936+158000832+158564832+159510288
802.24+159883376+158868064+156856720+155343776
##END=
