##TITLE=octarelline 6 front
##JCAMP-DX=4.24
##DATA TYPE=INFRARED SPECTRUM
##DATE=31/1/2005
##TIME=16:59:36
##SAMPLING PROCEDURE=film
##ORIGIN=Vincent
##DATA PROCESSING=no operation
##XUNITS=1/CM
##YUNITS=ABSORBANCE
##RESOLUTION=2
##FIRSTX=4000.283
##LASTX=800.31372
##DELTAX=-0.64282227
##MAXY=0.23689474
##MINY=-0.0022191165
##XFACTOR=1
##YFACTOR=2.2062542e-010
##NPOINTS=4979
##FIRSTY=0.0068764524
##XYDATA=(X++(Y..Y))
4000.28+31167997+31350148+31453270+31287442+30705426+29867690+29264300+29178202
3995.14+29268232+29044358+28642048+28618952+29050312+29395778+29302648+29001016
3990.00+28863970+29034116+29493794+30066160+30375816+30164568+29629932+29237864
3984.86+29313006+29853510+30463398+30537994+29906880+29187134+29013878+29159626
3979.71+29028996+28686218+28635738+28852064+28871588+28664548+28639432+28872184
3974.57+29019712+28965296+28979818+29224526+29507728+29553346+29308838+29030546
3969.43+29117948+29688652+30333638+30532394+30232598+29752618+29287286+28888020
3964.28+28711456+28810272+28860042+28635620+28534192+29057816+29958342+30479128
3959.14+30329702+29890560+29565612+29429362+29436148+29517496+29474500+29094490
3954.00+28458958+27962512+27934428+28262914+28456696+28171262+27603852+27244782
3948.86+27264056+27349476+27209094+27030896+27289274+28069146+28786820+28756814
3943.71+27974768+27117494+26824878+27226462+28037012+28777412+29013042+28763482
3938.57+28601688+29008396+29775966+30337094+30456842+30266794+29818372+29002562
3933.43+27919074+27074312+26996400+27626816+28321474+28611690+28715624+29064722
3928.29+29588600+29807176+29428172+28586810+27623010+26840222+26442288+26576314
3923.14+27285826+28262672+28840040+28616452+27930260+27372676+27029944+26588560
3918.00+25908900+25180866+24807388+25258118+26591296+28133296+29121280+29526190
3912.86+29796214+30144432+30483654+30689814+30637262+30357702+30142286+30039234
3907.72+29575498+28436580+26839868+24857648+22326134+19782934+18268776+17823670
3902.57+17601926+17565228+18374650+19628636+20106270+19880002+20473762+22689766
3897.43+25647016+28096398+29527024+30023508+29975380+29859228+29595032+28272672
3892.29+25299118+21833838+20262268+21799436+25263820+28611098+30679210+30874898
3887.15+28517170+23853272+19196610+17544038+19675326+23647234+27122250+29002680
3882.00+29080556+27489986+25052998+23406664+23866218+26143354+28797890+30793854
3876.86+31972180+32197460+31013756+28548716+26132414+25400972+26706538+28461100
3871.72+28118300+24244866+18155922+13446072+13187493+17347654+23165772+27470234
3866.58+28418246+26131940+22624606+20727252+21916768+24889850+27003654+27239310
3861.43+27013052+27960366+29921532+31648440+32318516+31822764+30683500+29701876
3856.29+28136984+22866740+11911164-1184909-9370159-9797736-5596653+476065
3851.15+8445903+17438326+24721010+28910404+31065010+32474294+33385218+33778472
3846.01+33703280+32847444+30970608+28765744+27500454+27627172+28179830+27902652
3840.86+26744120+25394556+23280812+18772024+12469228+8501287+10141682+15369527
3835.72+19803318+22143746+24080000+26386638+27695356+26994258+25458142+25241004
3830.58+27154372+30024102+32184224+32970450+32583202+31329640+29773346+28992802
3825.44+29587414+30742846+31113644+30015766+27150568+22387722+16994120+13850606
3820.29+14848351+18906356+23522316+26626496+26418742+21919736+15193461+11234309
3815.15+13335856+19569264+25710612+29678412+31835284+32958280+33368870+33377460
3810.01+33403120+33271852+31666444+27178044+20704724+16121739+16826666+21772146
3804.86+26918372+29618496+29375292+25763038+18700718+10962334+7594734+10997730
3799.72+18351794+25140700+29014948+29925344+28821224+27172570+26534096+27455006
3794.58+29119020+30461014+31238328+31864024+32630320+33357892+33617220+33239394
3789.44+32628170+32355134+32434928+32400578+32028114+31465550+30770736+30033158
3784.29+29760956+30330538+31268964+31813110+31775430+31180512+29767152+27700234
3779.15+26121356+26100196+27486772+29322892+30796714+31530406+31585368+31409638
3774.01+31416910+31621138+31747288+31290780+29537146+26308394+22876118+21341432
3768.87+22605972+25362938+27360064+27405154+26207798+25454458+26023390+27310214
3763.72+28371348+29049716+29560014+29615760+28592640+26463692+24271118+23390042
3758.58+24093184+25193110+25526010+25289016+25412738+26208274+26866510+25505926
3753.44+20113262+11270300+3660106+1598213+2985259+2425766-451198-603921+4792657
3747.65+12722752+18505640+18865132+12031334-132577-10058299-9863346-419292
3742.51+10469453+17570200+21046710+22902944+24237856+25042304+24584376+22150390
3737.37+18123242+13855213+10520647+8940752+9862194+12779790+15208950+15089532
3732.23+13546607+13719100+16909384+21367762+24828656+26544676+26852236+26139790
3727.08+24763068+23348488+22637070+22961468+23906596+24554206+24258406+23326284
3721.94+22757184+23186426+24267792+25225790+25693020+25855168+26131464+26867342
3716.80+27970842+28763246+28610860+27568514+25725234+22325538+16950804+11558368
3711.66+9414977+11167639+14048767+15809701+17121702+19402894+22333610+24694514
3706.51+26133602+27004250+27481418+27567086+27258346+26297098+24436236+22239624
3701.37+21007932+21576766+23510442+25632156+27048740+27583626+27554118+27375056
3696.23+27292726+27230030+26929072+26428494+26041582+25486550+23732734+20614258
3691.09+17693912+15986888+13813622+9277755+4305552+3583818+8807925+16624319
3685.94+22896416+26201260+27211710+27008772+26521726+26345850+26470354+26533618
3680.80+26318502+25798102+25093642+24539708+24010756+21967784+16414658+7766352
3675.66+96096-1909204+2649450+10568303+17661830+20833020+18839424+13246791
3670.52+8071815+6582762+8678051+12526967+17151172+22030908+25988080+28021898
3665.37+28373490+27993572+27621700+27598858+27833986+27930736+27856122+28096876
3660.23+28823846+29595032+29948336+29319914+26743290+22147544+17777972+16623610
3655.09+19228718+23442048+26884590+28247556+27043504+23538226+18633084+13287543
3649.94+8493980+5657207+5754285+8062861+11007169+14078782+17806028+22191806
3644.80+26281400+29126878+30495572+30800768+30740464+30839384+31127586+31309974
3639.66+31188738+30817812+30410966+30274656+30653346+31435984+32036100+31760404
3634.52+30493068+29085322+28753600+29752262+30774190+29865422+25863846+19263790
3629.37+12390591+8567749+9878820+15295741+21680210+26547174+29444724+31198392
3624.23+32565310+33641328+34133004+33806048+32577596+30391784+27463454+24689644
3619.09+23238904+23523978+25022102+27062776+29117470+30549314+30938782+30526792
3613.95+29739756+28722886+27991430+28604312+30532750+31815610+30734266+28150196
3608.80+26502818+26897670+28425388+30041498+31686002+33527350+35194124+36152560
3603.66+36363376+36231664+36103800+36050384+36009752+35889424+35601240+35311780
3598.52+35492048+36276008+36973120+36784600+35875804+35174772+35267224+35998160
3593.38+36982572+37988284+38953468+39817952+40205664+39422048+37308748+34836412
3588.23+33191902+32549916+32509840+33297150+35407704+38353628+40827872+42065320
3583.09+42340424+42232416+41992920+41705036+41624028+42072392+42990528+43852108
3577.95+44214460+44214816+44313940+44695940+45163008+45518280+45793988+46138804
3572.81+46599484+47038412+47274916+47232728+46806380+45717492+43864460+41749624
3567.66+40143752+39384820+39434620+40364104+42182308+44369020+46182644+47364208
3562.52+48126708+48624416+48844388+48936888+49246760+49937180+50747500+51290072
3557.38+51507576+51661264+51876280+51972536+51807620+51466748+51025992+50504208
3552.24+50156580+50398512+51221916+52092040+52558100+52660892+52630040+52532068
3547.09+52388916+52395304+52783572+53544076+54447676+55355560+56313960+57304960
3541.95+58112644+58556924+58679372+58585932+58344324+58120016+58143464+58449472
3536.81+58880164+59384952+60041556+60826648+61620764+62362284+62969128+63217488
3531.67+62979052+62464264+62030964+61841360+61822104+61872356+61972728+62134252
3526.52+62304636+62376816+62348964+62457840+62985840+63912828+64850420+65420788
3521.38+65649684+65913912+66474148+67115152+67354928+67031384+66528760+66362140
3516.24+66678404+67306368+68139912+69180512+70253888+71019576+71349504+71415928
3511.10+71311784+70954504+70530528+70593528+71393904+72458024+73168072+73439264
3505.95+73574104+73793112+74170032+74741152+75425456+76020360+76352824+76375016
3500.81+76228664+76287816+76845400+77692880+78351224+78717416+79057544+79440728
3495.67+79703880+79925768+80414976+81210912+81967432+82331360+82257224+82056728
3490.52+82158624+82652536+83185496+83488320+83746384+84204456+84764896+85249776
3485.38+85646792+85886760+85808688+85479272+85170512+84990784+84891920+84956112
3480.24+85349144+86109456+87154208+88242232+88907176+88800744+88157680+87616512
3475.10+87656744+88391568+89587816+90652600+91073808+91128496+91608432+92637296
3469.95+93425656+93426392+93048224+92962736+93315664+93884488+94480448+94973152
3464.81+95287784+95512168+95781416+96012632+96003760+95800384+95718096+95968288
3459.67+96439920+96877416+97143648+97221304+97153880+97145256+97538504+98428240
3454.53+99386992+99846120+99705904+99340104+99059016+98845064+98639304+98594024
3449.38+98889240+99414032+99804888+99861064+99844152+100193752+100955136
3444.88+101697528+102070192+102255312+102701888+103479072+104082632+103976136
3440.38+103247712+102579264+102551696+103094144+103680784+103908352+103804328
3435.89+103694624+103906376+104532840+105357048+105982736+106112008+105774112
3431.39+105346152+105220384+105388120+105486520+105361872+105322624+105666024
3426.89+106165624+106281656+105747000+104836496+104123584+103986648+104287376
3422.39+104609176+104779440+104927936+105130912+105392816+105836504+106451696
3417.89+106794920+106471016+105740424+105160496+104935496+105050968+105627400
3413.39+106625224+107566904+107990136+107852184+107322424+106614184+106078816
3408.89+105977912+106160792+106346304+106554496+106879024+107129640+107138816
3404.39+107097672+107212160+107321440+107169920+106812376+106508544+106400432
3399.89+106400048+106281904+105889128+105348872+104980040+104943904+105128056
3395.39+105373264+105598672+105728176+105780536+105974184+106451200+106947152
3390.89+107047992+106705472+106221344+105797760+105434528+105163576+105029552
3386.39+104867928+104452544+103896968+103614728+103805816+104199176+104370008
3381.89+104182464+103846384+103612136+103535464+103559464+103695984+103933960
3377.39+104074720+103938776+103697216+103683128+103887696+103997040+103932840
3372.89+104018568+104537784+105380560+106150392+106457264+106172440+105534800
3368.39+104935736+104516624+104088576+103435920+102588280+101814896+101443896
3363.89+101580528+101955016+102203904+102249992+102203904+102021496+101652312
3359.39+101333712+101316152+101419184+101308744+101077280+101081848+101330360
3354.89+101514184+101570264+101743368+102060808+102205024+102061048+102010496
3350.39+102370984+102805104+102672824+101895968+101061584+100692696+100773832
3345.89+100984768+101006872+100583160+99706648+98827552+98516056+98865544
3341.39+99454504+99827984+99818720+99576064+99478816+99780952+100229296
3336.89+100353872+100186704+100194120+100453264+100534392+100302272+100124496
3332.39+100157944+100160536+100106832+100253616+100501176+100433264+100054744
3327.89+99793664+99750952+99632224+99370592+99159456+98973880+98692224+98564544
3322.75+98960176+99747496+100409184+100642192+100508088+100198800+99939072
3318.25+99919192+100061648+100046464+99730216+99361208+99237552+99323816
3313.75+99404776+99515712+99942776+100692816+101233408+101047264+100299304
3309.25+99635920+99448584+99650240+100048320+100563904+101143984+101698144
3304.75+102034480+101829112+100979336+100020424+99710848+100121648+100644776
3300.25+100877072+100912512+100801984+100398808+99813656+99471792+99597792
3295.75+99979928+100223384+100030672+99417976+98824232+98753536+99184016
3291.25+99587672+99594080+99352688+99204248+99256312+99296416+99016208+98397416
3286.11+97841952+97687200+97709640+97489440+97122936+97062536+97352096+97537648
3280.96+97296496+96747760+96226016+95990832+96019176+95932816+95354272+94393176
3275.82+93498120+92893360+92523776+92338952+92225960+91936048+91496712+91295504
3270.68+91338032+90979688+89909568+88837816+88589280+88940320+88946696+88134240
3265.54+86862968+85717256+84958192+84508280+84204328+83972888+83827920+83744912
3260.39+83583928+83144968+82313256+81232320+80319992+79950200+80055904+80184232
3255.25+79959496+79320400+78406048+77452200+76749272+76438336+76370144+76339160
3250.11+76348072+76489680+76692176+76722432+76367592+75590536+74612472+73808952
3244.97+73401528+73294360+73278168+73252584+73168568+72935992+72474088+71766112
3239.82+70883592+70057152+69547184+69304224+69009528+68591560+68374104+68496064
3234.68+68582808+68253240+67639424+67113576+66773808+66444296+66043736+65770748
3229.54+65877752+66338836+66836192+67130928+67228912+67104588+66600124+65815880
3224.40+65199924+64983208+64890916+64609248+64131480+63528768+62840960+62264552
3219.25+62018132+62073228+62341932+62885896+63560756+63813556+63270796+62248084
3214.11+61389924+61077032+61312696+61781544+62010620+61834452+61630452+61756968
3208.97+61990404+61894260+61494632+61201220+61226756+61377088+61328912+60963280
3203.83+60416100+59864716+59349044+58889476+58626672+58646372+58808476+58935536
3198.68+58997432+58931300+58530576+57718128+56755292+56037864+55765176+55825768
3193.54+55879484+55641216+55166224+54802940+54850712+55396828+56360324+57454152
3188.40+58152044+58010656+57099376+56002124+55322736+55192528+55244540+55101548
3183.26+54791480+54585072+54541528+54472044+54283640+54109848+54112144+54351068
3178.11+54784000+55239236+55502432+55509064+55378368+55241164+55137508+55076096
3172.97+55068728+55125440+55221372+55259984+55154040+55004420+55056664+55378368
3167.83+55743448+55926924+55953112+55998628+56192144+56532744+56898160+57180788
3162.69+57426244+57723080+57998212+58098988+58011984+57772136+57309068+56622460
3157.54+55966884+55635304+55681408+55990292+56456432+56944904+57247944+57235984
3152.40+57032348+56919788+56993332+56949488+56429264+55546476+54821032+54591948
3147.26+54758184+55051604+55222696+55054500+54561064+54085612+53906652+53911712
3142.12+53855040+53667424+53371796+53031016+52870836+53072968+53394460+53345992
3136.97+52771768+51981808+51360888+51059472+51002996+51041288+51084152+51080064
3131.83+50903780+50498300+50151404+50223620+50508416+50355176+49612876+48944344
3126.69+48939896+49392576+49713592+49651380+49297168+48720268+48001428+47427548
3121.54+47330916+47746920+48435368+49120932+49542964+49451644+48846920+48135720
3116.40+47761828+47748364+47821212+47811116+47704732+47469136+47058236+46519356
3111.26+45981700+45643644+45719896+46199456+46726596+46933860+46778500+46368108
3106.12+45710884+44906592+44377900+44546512+45291352+45905552+45731660+44860492
3100.97+44068792+43914256+44085228+43938612+43430680+43090424+43272604+43870224
3095.83+44594400+45137316+45281620+45152924+45102020+45181980+45112344+44883904
3090.69+44812124+44881384+44683332+44214460+44078388+44592240+45244644+45372272
3085.55+44942724+44386176+43992116+43784444+43747488+43872020+44046592+44078388
3080.40+43849348+43428884+43049288+42937404+43131320+43504456+43934888+44308296
3075.26+44426264+44165500+43706704+43353916+43138760+42872048+42513664+42224388
3070.12+42123332+42213476+42442444+42661852+42731036+42753216+42920016+43097736
3064.98+42920980+42312132+41538464+40876504+40538844+40683176+41100888+41274252
3059.83+41093100+41039904+41343988+41569624+41376100+41068776+41036072+41207156
3054.69+41321944+41301212+41188112+41053804+40952572+40802236+40488656+40163512
3049.55+40084720+40138720+39942592+39390208+38713648+38137212+37826332+37928836
3044.41+38349684+38788560+39137540+39487408+39751620+39782748+39734620+39793288
3039.26+39763956+39426836+38970696+38585384+38063044+37332896+36937144+37393168
3034.12+38388924+39103192+39144244+38841096+38685176+38770372+38865508+38871968
3028.98+38943656+39136220+39280448+39277452+39224312+39173680+39103068+39088344
3023.84+39179544+39213660+39090736+39026712+39206716+39453536+39519132+39441684
3018.69+39404456+39536968+39892900+40352008+40625912+40601120+40477876+40377876
3013.55+40159804+39781432+39466224+39371420+39447188+39665780+40036584+40415360
3008.41+40535488+40223508+39576716+39081644+39358488+40434524+41494848+41766156
3003.27+41368432+40923824+40724252+40728444+40982168+41557160+42272696+42796148
2998.12+42945560+42815808+42686192+42761852+42981536+43182412+43380788+43666392
2992.98+43947248+44100944+44226940+44477384+44804924+45117752+45496664+46047400
2987.84+46686952+47223956+47570580+47836840+48249832+48904412+49595792+50033460
2982.70+50189316+50304988+50607484+51155436+51808948+52277828+52381932+52303248
2977.55+52415064+52887832+53645716+54565408+55466344+56109208+56448344+56731988
2972.41+57167140+57721752+58365832+59220024+60321968+61473928+62411816+62990328
2967.27+63227424+63315740+63540524+63984208+64387140+64436360+64170024+63953548
2962.13+64092328+64582940+65225392+65877512+66505824+67048988+67339024+67229280
2956.98+66779996+66243576+65854696+65658536+65545964+65363900+64938336+64141784
2951.84+63089540+62198320+61828160+61913032+62096716+62183180+62237788+62358168
2946.70+62547232+62776272+63011772+63188044+63238936+63146004+62969732+62884812
2941.55+63103844+63624860+64120080+64261304+64108568+64020448+64222636+64619916
2936.41+65003812+65284820+65492960+65679520+65854576+65945216+65867316+65706816
2931.27+65729148+66006724+66168340+65830320+65194952+64876612+65160016+65809452
2926.13+66496960+67011724+67160672+66886452+66411656+65956496+65500352+65042868
2920.98+64766752+64661992+64361804+63651528+62809464+62211032+61907224+61748852
2915.84+61613632+61368856+60851816+60042764+59155092+58482832+58158932+58020928
2910.70+57741804+57179816+56547112+56141916+55976776+55808872+55509668+55230664
2905.56+55092984+54854572+54144344+53023184+52054816+51724868+52007108+52536528
2900.41+52925548+52902772+52471096+52005540+51936996+52293124+52702352+52789240
2895.27+52476276+51992648+51611276+51304648+50806980+50105308+49542848+49322672
2890.13+49328208+49527808+50001924+50511668+50656484+50459660+50209412+49904204
2884.99+49445872+49076780+49023256+49089056+49114192+49313048+49725504+49960524
2879.84+49873876+49852944+50108436+50314496+50218084+50072332+50192328+50451956
2874.70+50464360+50127812+49804920+49864856+50137924+50120832+49683748+49173500
2869.56+48822384+48515940+48144620+47720356+47192468+46575216+46096400+45927052
2864.42+45961040+46079348+46270684+46375916+46152136+45698040+45365308+45214752
2859.27+44974772+44558756+44209896+44121108+44200296+44265700+44298576+44421940
2854.13+44654888+44827364+44816568+44741668+44775876+44888224+44936480+44859300
2848.99+44654288+44327860+43927808+43493180+43045932+42728520+42680320+42673124
2843.85+42258908+41422596+40665680+40335956+40315244+40350808+40285780+40019820
2838.70+39619572+39317068+39180148+39058064+38918520+38818240+38600696+38148940
2833.56+37797388+37916520+38282444+38400644+38193680+37922620+37734116+37628868
2828.42+37559148+37370088+36970732+36576128+36448592+36517556+36560948+36556404
2823.28+36581384+36614736+36659320+36790216+36983892+37141588+37271440+37406080
2818.13+37452836+37361116+37305520+37481776+37830164+38096780+38062924+37693816
2812.99+37192640+36877724+36923152+37257800+37674800+37915800+37715580+37069612
2807.85+36422888+36300628+36727456+37247528+37474364+37372240+37051196+36641752
2802.71+36396004+36557960+37045700+37521124+37824536+38062208+38262112+38288304
2797.56+38108624+37833036+37478908+37022624+36607684+36386560+36281860+36201432
2792.42+36286048+36638880+37069012+37376664+37621580+37856352+37927520+37768200
2787.28+37609856+37697880+37987088+38226220+38230764+38061732+37961732+38078720
2782.13+38297992+38458676+38616376+38871492+39096600+39054236+38741536+38437140
2776.99+38448980+38851392+39397156+39725164+39743360+39719776+39955040+40498600
2771.85+41180564+41756692+42018808+41963436+41806312+41703360+41594668+41434452
2766.71+41397428+41686708+42276168+42931644+43383664+43501336+43401784+43380668
2761.56+43665076+44265816+45024956+45688548+46029380+46081028+46148772+46462172
2756.42+46936988+47416612+47907048+48418896+48787500+48872900+48811796+48929796
2751.28+49449964+50322076+51274780+51994936+52332892+52417356+52562800+53014744
2746.14+53709136+54376756+54938668+55637236+56627288+57658560+58445972+59160532
2740.99+60174380+61430468+62487148+63144668+63651760+64291488+65103748+66066300
2735.85+67213248+68503848+69819848+71150840+72545800+73872296+74909104+75743312
2730.71+76783544+78266864+79953144+81423680+82543640+83560920+84855048+86602520
2725.57+88621800+90587736+92393800+94207312+96178472+98260008+100339680
2721.07+102397320+104512176+106784504+109239176+111777616+114299696+116821520
2716.57+119358424+121826080+124265096+126944392+129961584+133002752+135833632
2712.07+138724256+141984160+145421264+148673424+151759232+154933552+158322512
2707.57+161988960+165989728+170109312+173945664+177449360+180968928+184675360
2703.07+188394080+192062272+195868320+199852800+203827376+207748464+211814832
2698.57+216158688+220679616+225145424+229330448+233200464+237035904+241178400
2694.07+245657792+250290496+254992512+259675392+264038912+267912112+271652576
2689.57+275793376+280441312+285331776+290266560+295192576+300034080+304727008
2685.07+309306688+313867904+318524192+323347168+328149792+332520704+336343808
2680.57+340110592+344413856+349267520+354177344+358744416+362990752+367214816
2676.07+371699680+376498432+381405824+386176512+390763168+395300608+399896832
2671.57+404504384+408963328+413162656+417222688+421459968+426079264+430959936
2667.07+435822848+440511680+444992576+449211808+453172032+457112416+461424992
2662.57+466273248+471341024+476063072+480173568+483951616+487879872+492129376
2658.07+496509984+500868128+505305056+509947488+514692448+519315200+523748736
2653.57+528135840+532645408+537281792+541865984+546214720+550388992+554715968
2649.07+559428352+564309376+568877056+572960640+576893440+581032256+585317184
2644.57+589509632+593680000+598133376+602879616+607500416+611664960+615585280
2640.07+619760064+624382336+629179712+633817856+638257408+642654016+647049728
2635.57+651311808+655353088+659326080+663524416+668070848+672751168+677215360
2631.07+681362240+685424640+689680000+694171840+698752128+703270720+707633664
2626.57+711774336+715701568+719549888+723483840+727544512+731637504+735657088
2622.07+739575104+743435520+747346048+751480704+755961856+760645248+765147520
2617.57+769203840+772916096+776550912+780211776+783886400+787657024+791635840
2613.07+795756480+799850176+803854656+807768128+811501504+815009344+818463296
2608.57+822100544+825933696+829770944+833476992+837067072+840582720+844006400
2604.07+847350720+850745920+854316672+857981632+861533568+864930048+868292416
2599.57+871582848+874611072+877423808+880357120+883577216+886887296+890066496
2595.07+893073344+895905792+898609472+901400512+904448512+907583936+910514752
2590.57+913211200+915828160+918427136+921010560+923651456+926401856+929163776
2586.07+931767232+934121024+936291584+938465024+940792064+943280704+945871744
2581.57+948478400+950921216+953051392+954996608+957009856+959065536+960953664
2577.07+962716992+964592448+966609792+968651520+970733056+972838720+974740160
2572.57+976357120+978017920+980002624+982086144+983831552+985130048+986232448
2568.07+987429952+988828160+990358656+991911360+993429248+994884544+996289472
2563.58+997756416+999367680+1000934272+1002151808+1003021120+1003896064
2559.72+1005081664+1006580672+1008145024+1009432640+1010288320+1010985600
2555.86+1011974464+1013346880+1014822144+1016167872+1017312128+1018214848
2552.00+1018958464+1019776192+1020725632+1021609088+1022390720+1023311680
2548.15+1024465920+1025647360+1026701568+1027671552+1028582848+1029421056
2544.29+1030272384+1031219904+1032172992+1033004288+1033746176+1034499200
2540.43+1035260928+1035981184+1036718272+1037632320+1038791488+1040022592
2536.58+1041047104+1041794560+1042432576+1043083392+1043697600+1044262208
2532.72+1044904256+1045698816+1046552384+1047364416+1048160384+1048995776
2528.86+1049837056+1050611200+1051338624+1052122048+1052998144+1053892416
2525.01+1054731904+1055508160+1056191872+1056779392+1057445504+1058378176
2521.15+1059442752+1060321792+1060982208+1061661952+1062409088+1063035712
2517.29+1063503744+1063991424+1064567808+1065117824+1065564096+1065985280
2513.44+1066526080+1067256512+1068052288+1068695232+1069174784+1069713408
2509.58+1070368576+1070901248+1071202560+1071540608+1072143040+1072781056
2505.72+1073006464+1072722560+1072323520+1072275264+1072634368+1073080000
2501.86+1073371584+1073554688+1073697216+1073741824+1073700544+1073682368
2498.01+1073636928+1073405952+1073031168+1072672128+1072257600+1071577088
2494.15+1070667776+1069832640+1069327808+1069174528+1069155520+1068946304
2490.29+1068411968+1067718656+1067014592+1066182976+1065102848+1063899136
2486.44+1062766656+1061780160+1060962624+1060269440+1059484480+1058383360
2482.58+1056970368+1055399552+1053792576+1052255232+1050875520+1049629696
2478.72+1048445376+1047304704+1046146304+1044837248+1043355392+1041740928
2474.87+1039866624+1037647616+1035406784+1033527872+1031881216+1030085696
2471.01+1028135168+1026224256+1024248768+1022018688+1019711744+1017647296
2467.15+1015846080+1014109120+1012268288+1010209408+1007917632+1005577472
2463.29+1003400192+1001403456+999506880+997662528+995769024+993702784+991521152
2458.80+989381504+987240512+984910848+982400832+979979456+977906624+976185344
2454.30+974517696+972566976+970384960+968392064+966751104+965103104+963169792
2449.80+961195456+959449856+957743744+955845696+953918528+952143168+950303488
2445.30+948171840+945979968+944137984+942709632+941423936+940039872+938516032
2440.80+936947584+935472640+934159040+932950016+931752704+930544704+929313472
2436.30+927958080+926396800+924763392+923364800+922369536+921615808+920786944
2431.80+919736192+918558528+917408576+916386560+915577664+915009088+914520960
2427.30+913819968+912753536+911473472+910298624+909473280+909013888+908679872
2422.80+908120832+907209280+906197504+905435328+904947712+904437952+903682240
2418.30+902765056+901915328+901239040+900640064+899930496+899003904+897963776
2413.80+897080256+896548480+896279232+895965376+895384448+894578624+893712512
2409.30+892856896+892013696+891250624+890612352+889920320+888916928+887657216
2404.80+886533632+885797440+885254336+884535040+883533440+882431232+881396160
2400.30+880401344+879327488+878122496+876821632+875459136+874048384+872627968
2395.80+871251968+869902592+868500736+867012480+865508544+864101824+862867008
2391.30+861778560+860670464+859328064+857706432+855997888+854417856+852985216
2386.80+851532672+849854400+847852416+845627648+843446976+841520000+839820672
2382.30+838172544+836428992+834513408+832395904+830165184+828003840+825964416
2377.80+823862016+821510400+818968576+816441600+814027392+811672320+809296256
2373.30+806850752+804315584+801714496+799122560+796612928+794206912+791817536
2368.80+789257856+786406976+783424576+780636672+778142336+775715136+773167488
2364.30+770584384+768088256+765615552+763072320+760545344+758205632+756095936
2359.80+754096640+752021056+749737024+747251264+744719424+742342912+740233088
2355.30+738313600+736371392+734302592+732289088+730573568+729091712+727517376
2350.80+725661504+723591040+721380096+718974656+716340992+713555200+710707072
2346.30+707781568+704672640+701344448+698010816+695005504+692404928+689943552
2341.80+687418752+684923392+682568640+680222016+677695168+674993472+672281536
2337.30+669726784+667378240+665106624+662728640+660247104+657827968+655495552
2332.80+653076864+650496576+647922880+645568192+643475904+641504192+639430784
2328.30+637109248+634591936+632076928+629749312+627676352+625762432+623805440
2323.80+621708864+619568640+617440128+615214912+612902208+610739776+608775040
2319.30+606695168+604329984+601961280+599855040+597862848+595705856+593348928
2314.80+590947648+588690048+586705472+584868224+582803264+580337472+577760704
2310.30+575400448+573193152+570908096+568553664+566309632+564235136+562228864
2305.80+560170880+558007040+555738048+553382848+550968960+548556352+546228800
2301.30+544015232+541843904+539615232+537291904+534927136+532630368+530481248
2296.80+528404096+526200128+523750720+521175232+518769536+516739104+514939488
2292.30+512936896+510495136+507910848+505641376+503702496+501749312+499618304
2287.80+497428672+495259616+493055968+490794592+488506112+486221408+483992704
2283.30+481832832+479625120+477285472+474931168+472692096+470527424+468425088
2278.80+466502688+464727072+462859040+460828064+458792672+456763648+454601696
2274.31+452423968+450517248+448803552+446864576+444559008+442212480+440151616
2269.81+438383136+436747776+435109248+433336512+431304064+429036576+426781920
2265.31+424805984+423085984+421318848+419306560+417185280+415162176+413192800
2260.81+411115232+408967808+406947072+405107648+403317696+401498688+399727520
2256.31+398028448+396231936+394173184+391973120+389954144+388274336+386788864
2251.81+385256064+383521920+381551456+379459360+377450784+375610624+373842112
2247.31+372102752+370497984+369031232+367505664+365797760+364017536+362321504
2242.81+360750528+359234272+357623392+355815456+353956384+352289728+350752128
2238.31+349018720+346996992+344948480+343110400+341530528+340189536+338944256
2233.81+337489824+335703328+333852832+332212448+330699712+329100672+327424576
2229.31+325840448+324422528+323067552+321592032+319933600+318275488+316829504
2224.81+315493408+313968096+312193472+310435008+308932480+307683232+306547104
2220.31+305364704+304017600+302475296+300785120+299037920+297387456+295988000
2215.81+294816416+293664160+292356352+290877600+289313600+287799552+286448352
2211.31+285194944+283846272+282373888+280934112+279553152+278083744+276544352
2206.81+275201408+274191392+273284128+272120032+270580192+268888896+267371104
2202.31+266106224+264892416+263594048+262350000+261311184+260369520+259286208
2197.81+257915824+256270544+254560368+253126512+252104832+251234336+250221504
2193.31+249127040+248159856+247288816+246300192+245101424+243774208+242446016
2188.81+241200416+240035920+238886560+237713904+236541280+235373040+234191664
2184.31+233016208+231882432+230787824+229747200+228792032+227869808+226869968
2179.81+225786832+224691888+223589328+222470928+221417632+220459632+219463552
2175.31+218364160+217353952+216605648+215946160+215011008+213661760+212115760
2170.81+210722304+209662336+208830608+207985536+207017376+206020896+205138480
2166.31+204430352+203876704+203354928+202646560+201627072+200439616+199331296
2161.81+198364416+197411888+196386016+195320432+194260704+193236128+192296800
2157.31+191468480+190676192+189820656+188916800+188058000+187265424+186471472
2152.81+185665200+184943568+184351808+183749648+182947968+181966432+181023216
2148.31+180245264+179525744+178714992+177841376+177054960+176462720+176056208
2143.81+175687360+175092080+174083600+172792336+171585184+170694496+170044688
2139.31+169454208+168856736+168266208+167668576+167034976+166378992+165734160
2134.81+165100816+164446880+163749664+163020704+162275232+161523360+160814320
2130.31+160227760+159753936+159230640+158521920+157731728+157090912+156625456
2125.81+156094608+155305888+154367488+153521344+152841200+152222000+151607664
2121.31+151052704+150558048+150016544+149394928+148845776+148516016+148305104
2116.81+147917136+147182528+146275920+145567168+145225584+145011744+144519872
2112.31+143658400+142790880+142354560+142349616+142295424+141713664+140630624
2107.81+139542864+138898496+138680944+138549376+138266400+137832352+137275072
2103.31+136545536+135708432+135022336+134647280+134394640+133958768+133322864
2098.81+132744792+132342928+131930744+131313448+130589624+130047328+129834752
2094.31+129808672+129695760+129330496+128732408+128012928+127292568+126691496
2089.82+126287112+126016400+125710728+125262520+124703048+124128752+123641680
2085.32+123301648+123042080+122708640+122265128+121818464+121375904+120809936
2080.82+120169288+119736192+119591432+119414648+118906952+118189048+117609416
2076.32+117333312+117247616+117107032+116715192+116071776+115381784+114820384
2071.82+114350184+113876096+113480064+113309664+113299856+113178176+112766008
2067.32+112126728+111418376+110736968+110162504+109803696+109657800+109519984
2062.82+109183984+108664888+108123264+107658608+107328624+107235072+107369136
2058.32+107451048+107182040+106599200+106013680+105621712+105371528+105143160
2053.82+104895768+104613520+104255336+103766480+103119736+102370984+101690736
2049.32+101273056+101156072+101182144+101158176+101017616+100796048+100481912
2044.82+99981040+99272232+98523592+97950584+97594976+97343224+97108888+96881232
2039.68+96669136+96487616+96318680+96048496+95595296+95113656+94804352+94547176
2034.53+94060360+93408552+92965072+92862248+92867160+92770856+92557480+92255216
2029.39+91925112+91709240+91640024+91539480+91257416+90830512+90331840+89807272
2024.25+89364464+89091304+88923016+88766504+88651008+88592960+88480912+88193624
2019.10+87693048+86988408+86210840+85677184+85627672+85938728+86219040+86137528
2013.96+85632824+84961984+84524456+84457344+84462976+84232000+83871632+83679416
2008.82+83657384+83535328+83187456+82797784+82599440+82569584+82450400+82086824
2003.68+81632424+81335760+81234272+81212016+81204312+81155648+80930080+80495752
1998.53+80045400+79742368+79505960+79202040+78891328+78720832+78675648+78525944
1993.39+78022704+77193752+76435520+76164264+76328184+76456872+76223784+75756720
1988.25+75388392+75331216+75603944+76051824+76358920+76241944+75720880+75096320
1983.11+74650488+74456112+74441264+74482328+74430056+74178072+73771552+73379360
1977.96+73121064+72980912+72885448+72802056+72720480+72633440+72576592+72597656
1972.82+72623208+72462040+72045032+71564000+71225536+70945504+70463768+69738768
1967.68+69058016+68753760+68919248+69405464+69950664+70314920+70384472+70193088
1962.54+69845008+69452864+69124240+68900408+68718648+68525472+68416248+68528992
1957.39+68803080+68966640+68800296+68341424+67794744+67329560+67012208+66859864
1952.25+66830492+66784852+66599032+66355712+66249892+66289692+66263840+66015952
1947.11+65574592+65075972+64720672+64662228+64672664+64184204+63037944+61959400
1941.97+61833000+62642064+63587664+64114268+64325308+64474792+64545836+64439272
1936.82+64236328+64083484+64006508+63980328+64056572+64264216+64467152+64476004
1931.68+64274404+64031116+63881544+63782776+63607052+63340096+63117412+63011644
1926.54+62893164+62635892+62307424+61940640+61373700+60636060+60185388+60364072
1921.40+60935324+61448512+61537724+60698748+58698956+56581044+56163292+57868552
1916.25+60107244+61336780+61594016+61656724+61810964+61930232+61926224+61692564
1911.11+61149536+60513256+60133492+60085828+60205112+60383188+60596376+60776192
1905.97+60797364+60562012+60164464+59969348+60270316+60884620+61359416+61488940
1900.83+61345500+61003452+60553908+60203900+60096840+60198212+60406904+60569636
1895.68+60491720+60206076+60003572+59997892+60002608+59948176+59876328+59464280
1890.54+58325952+56923528+56382176+57142732+58444520+59352668+59679548+59760696
1885.40+59848996+59934868+59931600+59843308+59770016+59786100+59867864+59956284
1880.26+60006724+59992204+59934024+59911768+59981200+60127208+60297900+60420332
1875.11+60432552+60373152+60347744+60364072+60351128+60214056+59578924+57817448
1869.97+54951452+52324932+51542508+52756700+54748888+56488432+57767664+58595004
1864.83+58889956+58819836+58830840+59167432+59663100+60023412+60135548+60073368
1859.68+59945392+59836780+59836652+59966564+60096476+60111724+60137848+60358032
1854.54+60689788+60891752+60881712+60732384+60537692+60426500+60451428+60379804
1849.40+59908020+59112292+58476184+58461676+58879076+58355800+55117840+49474264
1844.26+45072252+45693236+50634456+55710856+58335016+59091984+59309624+59413736
1839.11+59465976+59503708+59300796+58851152+58715636+59177584+59719336+59823108
1833.97+59619804+59491732+59488592+59044588+57174508+53707932+50460268+49968708
1828.83+52639560+56356336+58853932+59162224+57379372+54672772+53106472+53931128
1823.69+56236688+58267456+59355932+59878388+60194948+60387300+60485792+60408960
1818.54+60002852+59342752+58756132+58525136+58709476+59149536+59545912+59686564
1813.40+59577596+59230304+58492864+57369228+56377588+56239344+57087540+58230108
1808.26+58903500+59101656+59335980+59763120+60078332+60162284+60091640+59603600
1803.12+58383960+56859756+55794992+55160312+54410408+53760864+54120948+55699392
1797.97+57552484+58589080+58524292+57968480+57674148+57254348+55016004+50170300
1792.83+44982576+43134200+45556820+49771468+53442920+56221844+58247996+59253516
1787.69+59408176+59221956+58411160+56503404+54483748+54120224+55622028+57460436
1782.55+58294768+57863116+56600244+55450896+55353868+56223048+57185864+57861668
1777.40+58256944+57938880+56864712+56108480+55758536+53330808+46920648+39142204
1772.26+35448200+38237104+44788960+50803852+53510080+52500264+49986520+49455976
1767.12+52251200+56186464+58520784+58880772+58498184+57741564+55605132+51702948
1761.98+48005392+47536808+50885480+55298240+57907464+58176336+56796960+54367584
1756.83+52230236+52383616+54944576+57724652+59258588+59636492+58042072+53022340
1751.69+46332672+42983696+45195184+49531780+52119628+52916392+53741088+55213528
1746.55+56866764+58257428+58938680+58556808+57533636+57042732+57930056+59424984
1741.41+59145300+55513164+50565836+48774996+51850260+56831380+60328020+61259068
1736.26+58712376+50878736+38387724+27003178+24121216+31523136+43700584+53607736
1731.12+57967396+58073376+57373696+58145640+60096960+61838932+62727212+63022308
1725.98+63055620+62788260+62103132+61265124+60877232+61318868+62318456+63124200
1720.84+62960892+61082248+56445684+48259568+38180636+31508582+32964840+40387576
1715.69+47059436+50130224+52403380+56461748+61011080+63968088+65289064+65603708
1710.55+65163168+64796944+65391676+66183996+65561856+63293944+60657724+59025244
1705.41+59032732+60405576+62520216+65246612+67596080+65535656+54779652+37800144
1700.26+26003890+29760956+46097236+62718248+69903848+65100836+53444008+46353812
1695.12+52564128+68122424+82315696+90158280+93826656+96415040+98452904+99966848
1689.98+102160768+105640640+109523464+113367200+117287352+119052656+114416456
1685.48+102834768+91555336+90611568+101995672+118536072+132988432+142684032
1680.98+148279536+152004240+156043424+160988128+166066720+170338560+172454464
1676.48+170769232+166238288+164269712+169981632+181330400+191279568+196100736
1671.98+197852416+199580608+201037424+200808848+200664880+204627696+213650000
1667.48+224135392+232399808+238065424+242653872+246589024+248744464+248781376
1662.98+249008112+252778160+260632704+269592736+276905184+282547392+287631584
1658.48+292402336+296651968+300398784+303210592+303861216+300656608+291588224
1653.98+276386272+261265632+258941856+275904000+302443008+324233664+335640448
1649.48+338866464+337956576+335454720+332116352+328335808+326315648+329825952
1644.98+339537888+350482912+357332576+359770624+360685408+361518336+361873504
1640.48+361885312+361796512+360526432+357198240+352336896+345505536+334692672
1635.98+321265472+312698560+314889120+323568512+329821792+330041952+326303904
1631.48+321228384+315676032+309569344+302294592+293172000+282993696+274024224
1626.98+267606704+262716720+256974144+248302672+236558608+224639696+216579856
1622.48+213272480+211690032+208800848+204201280+199040656+193725296+186466576
1617.98+174435216+158320368+145541520+144190592+152276768+160232976+162742240
1613.48+161523248+159567792+157577920+155527840+153784608+152207664+150434432
1608.98+148808560+147683392+146772016+145978432+145596336+145365280+144676816
1604.48+143651696+142872000+142440432+142156912+141956032+141673568+141173952
1599.98+140799120+140815616+140789280+140367760+139993200+140002016+139935488
1595.48+139473856+139048320+139010304+139200704+139579632+140291792+141133376
1590.99+141761824+142196400+142555360+142857248+143383920+144485264+145932192
1586.49+147254208+148442144+149543408+150234976+150560080+151183056+152338752
1581.99+153600272+154822624+156089280+157111984+157859344+158429472+156880208
1577.49+149852816+138166240+130020752+133709384+146796160+159481632+166235584
1572.99+168524752+169585776+169784656+167250704+161830976+157062688+157193600
1568.49+162417792+168978832+173466992+174934736+174056016+172334976+171530896
1563.99+172376080+174054224+174850752+172146592+162914416+146921968+129355280
1559.49+117278880+113291896+116440824+126555600+141432752+153780528+157085312
1554.99+152392496+147210080+147807856+153486608+159177600+161092176+159053568
1550.49+155658016+153844096+154506464+156314480+157522128+157033344+154043792
1545.99+148471344+142375744+138838560+137640832+134495648+126817480+117692488
1541.49+111147224+105503856+96896640+88228112+88249096+99613960+114445056
1536.99+124281104+127183800+125145752+119735936+112191696+105774480+104453152
1532.49+108353456+113406360+116287224+116925736+116109368+113768440+110560848
1527.99+108255024+107038952+105008632+101646128+99316288+99868336+101544704
1523.49+100635896+95006520+85895456+77821160+76221216+82888832+93542048
1518.99+101250816+102196856+98461928+95698528+97245344+101437840+105297512
1514.49+107708544+108183872+106175040+102977064+101323944+101737440+101946992
1509.99+100376224+97144760+91704072+82702344+70985520+61029108+58414544
1505.49+65455716+78953120+92555760+101521600+105177072+105735360+105664424
1500.99+105748224+104941928+102407832+99665672+98911696+98952040+96469256
1496.49+92314368+92210464+98754272+107272496+112624112+114636824+115157608
1491.99+114142896+111044072+107680792+107105976+110058656+114167768+116906936
1487.49+118386776+120746672+125056840+129927368+133658392+136317568+138813248
1482.99+141158464+142832128+144159792+146135392+149117856+152586592+156003296
1478.49+158910848+160411552+160063696+159545136+161446448+165403248+167683264
1473.99+165928576+162402368+161623472+166048848+174801520+185038048+193588848
1469.49+198764144+201347488+203244480+205199968+206250720+205034832+201676592
1464.99+199014544+200754544+206909184+213240032+216641264+218039856+218999664
1460.49+218877984+216891600+213478032+207978208+198978720+189298704+186729440
1455.99+195411776+209889200+221998704+228564928+230880960+231060256+230475712
1451.49+230121168+230630688+231578736+231532528+229571840+226760192+225458928
1446.99+226837312+229676000+231963616+232899600+233003680+232896032+232598656
1442.49+232017872+231424432+230928304+230081200+228628736+226655392+223016976
1437.99+215471968+204630192+196339488+196239808+202226000+207265024+207892256
1433.49+205735744+203110608+200425712+197199184+193162352+188574592+184602928
1428.99+182465824+181655552+180523920+178612464+176534464+174021152+170297472
1424.49+165973120+162511568+160346752+159004736+157718624+154515456+147042048
1419.99+136443056+128515848+127944688+132632856+137193936+139322096+140047232
1415.49+140477024+140654928+140493888+140071312+139363920+138500176+137852720
1410.99+137521296+137260224+137022864+137001728+137165632+137254832+137083232
1406.50+136423808+135025232+133327784+132593568+133473800+134963264+135663536
1402.00+135380992+134469264+132463160+128876824+124874440+122485128+122164504
1397.50+122490368+121929688+119651160+115518520+110801896+108061400+108650760
1393.00+111016136+112661024+112701152+111745464+110437992+108766320+106067800
1388.50+101697648+96538136+93247264+93568744+96083728+98111024+98699376
1384.00+98523096+98119288+97551952+96971328+96416880+95648632+94673352+93857416
1378.85+93404488+93280480+93428984+93527528+92967160+91583976+90012728+89071416
1373.71+89232488+90621768+92926088+95369544+97248792+98324256+98594280+98242864
1368.57+97919512+98282464+99119472+99634816+99475736+98709984+97176312+94859760
1363.43+92606304+91441400+91388544+91835720+92662760+94077096+95691752+96670864
1358.28+96670608+96060448+95325960+94658088+94085712+93663864+93429840+93274696
1353.14+92997792+92541376+92084808+91836712+91823440+91928064+91988168+91831192
1348.00+91433280+91041496+90933720+91078112+91260360+91474088+91874088+92363184
1342.86+92481600+91790864+90307392+88580064+87324936+86917160+87233200+87925296
1337.71+88666224+89172704+89306768+89245256+89309464+89577496+89804688+89709024
1332.57+89244520+88642904+88242592+88185296+88327760+88495264+88653944+88762824
1327.43+88710536+88510728+88335608+88317328+88510600+88921296+89357232+89514264
1322.29+89404128+89302960+89125920+88422120+87186960+86062640+85513336+85364952
1317.14+85282864+85179696+85050080+84853704+84635424+84491752+84442888+84468000
1312.00+84558384+84693232+84863376+85060112+85161680+85021408+84756072+84698992
1306.86+84973512+85323776+85456240+85381608+85374632+85631968+85991544+86095240
1301.72+85885656+85704880+85786264+85983944+86161688+86441800+86839664+87082840
1296.57+87020048+86892272+87027784+87511136+88195096+88808856+89109360+89129856
1291.43+89211624+89625400+90260720+90828416+91250536+91703576+92320520+92993616
1286.29+93505384+93792568+93997224+94288304+94714480+95240864+95863336+96621072
1281.14+97503000+98382976+99121448+99764896+100533784+101572000+102807448
1276.65+104052944+105118408+105882688+106434608+107043416+107843136+108730240
1272.15+109704200+110992552+112643256+114331656+115775344+117053120+118394392
1267.65+119904040+121571832+123325008+125092352+126897712+128797424+130686424
1263.15+132412600+134106352+136110352+138589424+141431744+144489312+147673920
1258.65+150866992+153900800+156653664+159158752+161634960+164333888+167338208
1254.15+170631552+174287904+178330752+182488080+186380672+189946896+193446336
1249.65+197086720+200846784+204638384+208493024+212552800+216882448+221341200
1245.15+225780912+230316496+235193744+240414512+245770256+251193824+256779760
1240.65+262501888+268193232+273763840+279257952+284791264+290523968+296523328
1236.15+302609152+308538400+314356512+320327712+326557440+332913760+339269824
1231.65+345594624+351846112+357993504+364150112+370516128+377147904+383828896
1227.15+390198752+396026496+401404896+406669888+412131776+417861632+423711296
1222.65+429470848+435031264+440430368+445722272+450804864+455487456+459740768
1218.15+463718944+467493632+470988192+474249344+477499168+480746528+483626816
1213.65+485843360+487586016+489277088+491034080+492572032+493576576+494045536
1209.15+494251872+494413120+494442976+494067136+493085888+491480032+489396256
1204.65+487128064+484881728+482467488+479493056+475922912+472080416+468059360
1200.15+463602528+458651488+453566304+448634080+443698016+438408928+432658720
1195.65+426694016+420849344+415157952+409328736+403177440+396875904+390656000
1191.15+384536704+378500672+372645408+367027200+361615712+356401216+351286816
1186.65+345996448+340395936+334772768+329517664+324697312+320141344+315743072
1182.15+311512320+307481408+303666816+300015104+296410080+292822304+289406176
1177.65+286336192+283566400+280842752+278022528+275321920+273044704+271090336
1173.15+269044288+266795264+264645200+262772464+261051808+259431088+257993824
1168.65+256692784+255457584+254380896+253440496+252400544+251307376+250571008
1164.15+250259872+249907888+249228224+248414080+247672256+247055872+246693552
1159.65+246598736+246424800+245941088+245451648+245290560+245276752+245128848
1155.15+245034464+245358880+246042112+246663632+246990032+247257664+247928672
1150.65+249263664+251128496+253165376+255126464+257051024+259146768+261478560
1146.15+263830448+266007248+268179280+270674432+273500768+276416224+279401024
1141.65+282711936+286491072+290614944+294860128+299009888+302963296+306900896
1137.15+311162400+315881120+320962080+326382400+332172448+338136448+343978944
1132.65+349704128+355596480+361880128+368658464+376020448+383907040+391996704
1128.15+399981664+407873056+415877856+424131552+432683616+441544832+450633184
1123.65+459860608+469316608+479126528+489156288+499214464+509500864+520358976
1119.15+531557536+542356288+552464192+562434752+572902720+583808576+594602688
1114.65+604979200+615157696+625521152+636140032+646724608+657016256+667091904
1110.15+677168064+687215040+696930944+706075904+714691584+723022848+731289152
1105.65+739475776+747294080+754468928+761143104+767860864+774966848+782179776
1101.15+788995264+795322944+801351168+807002944+812068544+816762496+821583552
1096.65+826701312+831958912+837232192+842271808+846589376+850104256+853532672
1092.16+857563840+862085824+866646080+871127936+875501568+879432832+882644608
1087.66+885357568+888037760+890842944+893509248+895719872+897496320+899081856
1083.16+900453056+901235520+901239936+900763520+900202432+899641984+898866048
1078.66+897471872+895079040+891732096+887918784+883952576+879670528+874911488
1074.16+869802048+864345024+858175872+850961344+842743232+833814592+824492480
1069.66+814960896+805177152+794971200+784257088+773006720+761070336+748261888
1065.16+734622848+720527424+706514944+692965568+679857792+666884416+653841408
1060.66+640725888+627529536+614212096+600883968+587718400+574707648+561745664
1056.16+548914368+536488192+524710752+513603168+502885024+492127552+481185184
1051.66+470426528+460329568+450856832+441402016+431427200+421136448+411360320
1047.16+402647744+394628928+386617696+378630112+371229504+364414528+357377600
1042.66+349618400+341749504+334854752+329307264+324503040+319608064+314302016
1038.16+308772416+303263680+297883712+292711104+287765440+282910112+278088032
1033.66+273567648+269661664+266287136+263140976+260137152+257318448+254524976
1029.16+251551856+248487136+245570736+242872320+240382288+238194528+236355520
1024.66+234732624+233198784+231771040+230495088+229368144+228391136+227539728
1020.16+226752416+226099776+225768288+225773424+225925664+226143616+226507552
1015.66+227010736+227584000+228280192+229151696+230129744+231290368+232866448
1011.16+234767104+236589312+238339408+240604768+243794944+247730528+252087632
1006.66+256767840+261841600+267499424+273891520+280801760+287843968+295153984
1002.16+303357024+312722912+322879968+333413056+344178464+355084576+366112544
997.66+377495392+389505600+402154528+415307168+428811488+442355424+455508288
993.16+468064736+480110816+491666912+502418272+511840992+519487680+525103488
988.66+528478592+529373632+527743520+523836416+517846752+509750656+499704128
984.16+488232736+475780960+462502976+448676800+434792704+421099264+407537056
979.66+394168160+381203872+368678080+356499904+344691136+333262400+322083392
975.16+311145952+300710368+291020128+282071104+273742624+265954608+258662848
970.66+251843216+245512256+239702320+234422784+229614032+225130160+220863088
966.16+216860544+213256672+210133824+207472064+205079888+202571632+199718240
961.66+196838400+194521136+192935200+191710464+190477520+189196032+188032080
957.16+187167600+186667296+186346880+185847904+184956976+183785712+182682112
952.66+182054208+182104800+182579632+182926976+182868256+182652480+182643344
948.16+182872656+183090752+183078272+182808928+182440736+182174032+182079440
943.66+182093328+182187296+182369552+182508960+182424656+182238640+182320256
939.16+182753920+183176800+183286112+183182576+183068752+182982080+182980416
934.66+183195440+183561840+183922768+184448304+185440608+186616960+187164912
930.16+186710496+185829216+185438672+185966928+187139872+188335456+189146032
925.66+189714448+190441072+191376544+192113744+192306496+192069120+191875216
921.16+192168080+192981536+193873280+194403680+194690560+195218464+196172000
916.66+197285152+198256960+198918096+199099040+198789456+198415024+198593472
912.16+199575536+201094576+202604528+203539552+203646128+203306528+203261392
907.67+203801872+204501824+204897728+205073776+205394256+205968672+206589920
903.17+207022448+207204032+207239488+207209904+207076544+206929920+207153440
898.67+207960096+208940208+209535632+209764560+210006944+210347408+210635072
894.17+210885008+211113168+211101808+210725280+210204720+209799632+209582080
889.67+209546320+209602944+209514720+209157040+208688144+208235920+207706208
885.17+207057888+206458800+206042000+205763744+205507696+205170656+204754016
880.67+204405248+204185920+203906752+203459024+203028544+202674896+202156288
876.17+201496560+201196864+201493184+201929824+201922128+201305760+200260624
871.67+199120992+198187296+197398000+196438032+195377568+194729440+194645232
867.17+194620368+194240624+193706528+193388336+193267312+193046768+192610032
862.67+192162528+191882864+191541312+190759552+189689376+189034208+189257648
858.17+190109968+191021232+191531072+191306192+190206896+188486000+186724432
853.67+185512528+185256800+186012320+187342592+188519808+189009008+188824848
849.17+188447008+188376512+188686128+189099936+189389552+189352352+188563616
844.67+186888272+185114208+184276432+184547648+185505088+187026848+188996368
840.17+190805456+192024624+192727904+192544560+190796288+188371872+187563680
835.67+188737568+189208304+187156656+184683472+184815056+187192384+188911248
831.17+188466768+186695792+184828080+183571136+183373680+183978800+184098240
826.67+182659840+180138032+178080384+177467056+177788736+177750848+176792576
822.17+175578192+174832528+174412384+174016656+173869648+174003600+173777008
817.67+172712288+170970528+168814912+166511392+164674576+163601120+162663856
813.17+161384560+160439552+160490336+160771808+160094624+158715344+158131552
808.67+159058016+160271024+159792512+157149472+154063600+152630592+153307376
804.17+154986112+156416240+156998640+156682128+155646704+154270784+153401888
##END=
