##TITLE=octarelline 6 front
##JCAMP-DX=4.24
##DATA TYPE=INFRARED SPECTRUM
##DATE=31/1/2005
##TIME=20:37:56
##SAMPLING PROCEDURE=film
##ORIGIN=Vincent
##DATA PROCESSING=no operation
##XUNITS=1/CM
##YUNITS=ABSORBANCE
##RESOLUTION=2
##FIRSTX=4000.283
##LASTX=800.31372
##DELTAX=-0.64282227
##MAXY=0.19243477
##MINY=-0.0059318701
##XFACTOR=1
##YFACTOR=1.7921885e-010
##NPOINTS=4979
##FIRSTY=0.014857075
##XYDATA=(X++(Y..Y))
4000.28+82899066+82698344+82251232+81931776+81641352+81180240+80768944+80643800
3995.14+80477464+79822656+78938360+78548632+78857040+79329952+79468600+79334280
3990.00+79235928+79260256+79275920+79215920+79178920+79258464+79383088+79401736
3984.86+79315168+79264280+79262792+79188624+79097288+79223400+79509344+79485024
3979.71+78949992+78380344+78283976+78460448+78393320+78100640+78042464+78287848
3974.57+78404816+78268912+78361688+79001488+79728624+79839528+79260104+78553552
3969.43+78236832+78365424+78717672+79116832+79456360+79545920+79197128+78595784
3964.28+78279352+78420920+78475528+78032472+77615888+77971160+78887928+79468456
3959.14+79331600+78863304+78531184+78518344+78823024+79227272+79322480+78855096
3954.00+78025320+77341488+77148528+77223680+76936064+76037912+75066056+74625704
3948.86+74605600+74556152+74482712+74742800+75430048+76173992+76370144+75569072
3943.71+73972032+72446880+71820728+72348512+73857072+75864872+77536992+78207152
3938.57+78103472+78023520+78355736+78839424+79118176+79049832+78483288+77059216
3933.43+74549144+71603512+69782808+70104672+71779664+73190208+73846944+74537528
3928.29+75855640+77378168+78070656+77130184+74762000+72214136+70685920+70517584
3923.14+71594440+73494952+74918864+74517864+72842184+71895408+72216968+72024864
3918.00+69806144+66476692+64528864+65680956+69413424+73576248+76505808+78147032
3912.86+79007600+79176072+78906432+78854504+79117736+79258768+79280696+79243840
3907.72+78470456+76401008+73143160+68269648+61228712+53842324+49449936+48478220
3902.57+48252328+47756724+48553668+50638540+51800284+51834816+53515080+58432076
3897.43+64852844+70291872+73783072+75452840+75854000+75847008+75518264+73113696
3892.29+66847264+58501760+53506072+55625216+62800476+70066016+74527400+75111648
3887.15+70190464+59670396+48569876+44156428+48547920+57303084+65207588+69884944
3882.00+70450080+66645788+60503696+56472212+57873872+63755860+70487552+75635680
3876.86+78831080+79561448+76466152+69728552+62715536+59754480+62091888+66126956
3871.72+65643704+56826616+42493368+31163806+30205688+39591404+53080984+63696832
3866.58+67095240+62664548+54249816+48601852+49964464+55884608+60515400+61666624
3861.43+62328108+65482252+70388816+74667272+76901328+76528464+74160864+71458608
3856.29+66716016+52562696+24445048-8895749-30474598-33098472-23493518-8153356
3851.15+12208394+34966244+53808944+65540264+72089744+76042688+78387800+79708768
3846.01+80066736+78326336+73900856+68544960+65078052+64507192+64935624+63813980
3840.86+61163976+58648256+54644376+44432392+28639130+17324258+19438046+31066080
3835.72+41677404+47678056+52892020+59210188+63380564+62801364+59778912+58956656
3830.58+62462380+68445112+73586672+75938360+75363744+72733976+69819824+68841992
3825.44+70542576+73249152+74591008+72752432+65877600+53278684+38816048+30094684
3820.29+31680770+41192828+53066820+62065660+62776016+51870528+34123364+22235490
3815.15+25546712+40703216+57344640+68953592+75245744+78219672+79407104+79852064
3810.01+80234088+79884904+75977544+65582860+50600192+39476744+40062588+50689268
3804.86+62671220+69837216+70441904+62612972+45487256+25732974+16126140+23171072
3799.72+40474232+57147208+67225320+70138872+67945504+64453356+63771124+67157896
3794.58+72308784+76425904+78763480+80107200+81202656+82174128+82722416+82579240
3789.44+81943288+81349768+81057768+80888712+80538680+79663832+78071848+76338400
3784.29+75631512+76329752+77571440+78513424+78800640+77598136+74032648+69248896
3779.15+66257284+66893736+70275664+74471688+78120176+80485224+81493624+81728304
3774.01+81699920+81517216+81212504+80128088+76382528+69062520+61013920+57292140
3768.87+60100636+66601696+71864016+72865248+70218408+67232144+66969460+69683808
3763.72+73396248+76413224+78244288+78408696+75775472+70059328+63674292+60593888
3758.58+62194140+65488628+66975992+66760548+67345752+69813880+72103120+69233880
3753.44+56002996+33760108+14001584+7654568+10320068+8988546+2071256+1389312
3748.30+14258586+33949196+48888492+50473212+33874204+3279222-22971924-24911818
3743.15-2853275+25346596+46171416+58151704+64557932+67840040+69239528+68205624
3738.01+62701308+52547936+41005376+32050742+28221162+30684118+37596692+43059652
3732.87+42350640+38250460+38482608+46407128+57869584+67383920+73072752+75271664
3727.73+74191392+70534240+66387624+64050816+64427400+66657068+68643624+68458040
3722.58+66375448+65032212+66431712+69467384+71641448+72240920+72479912+73512824
3717.44+75542848+77974288+79544576+79346672+77778760+74734000+67615312+54740556
3712.30+40816908+34298132+37429464+43957712+48490296+52385720+58710108+66483376
3707.16+72684856+76423816+78654120+80075088+80834208+80612592+78310232+73221168
3702.01+67062564+63458704+64677640+69569048+75060248+78966272+81010736+81830328
3696.87+81958216+81763848+81436552+80834944+80001944+79233096+77553248+72673392
3691.73+64664876+57528196+53408176+47696032+35571956+21941346+18543784+29853396
3686.59+48083476+63437648+72659704+77377720+79618312+80590648+81142152+81567408
3681.44+81483008+80282464+77777120+74807144+72857960+71611096+66984760+54057072
3676.30+33565612+14543373+8045091+17487194+36506988+54671560+63097396+58097256
3671.16+43901084+30844732+27053578+32307618+42089464+53702624+65593840+75200896
3666.02+80956520+83851952+85228840+85331336+84718432+84476888+84743872+85008944
3660.87+85329696+85785304+86052880+86107200+85146112+80346064+70401896+59985884
3655.73+56404056+61500840+70653216+78631736+82375408+80116152+71890504+60008244
3650.59+47129544+35395636+27815394+27132160+32521774+40644312+49894284+60566788
3645.45+71710328+80928440+86805928+89555344+90059272+89628032+89691128+90683256
3640.30+91902624+92675800+92861592+92519144+92097656+92532328+94123048+95629912
3635.16+95325960+92877656+89892728+88694760+90215024+92422056+90790776+81297944
3630.02+64252376+45869496+35182836+37522760+50542232+67070292+80987720+90190592
3624.87+95662200+99062888+101180240+102150568+102129944+100806792+96900160
3620.38+89869352+82092544+77452728+77552056+81040160+86186824+91714056+95846720
3615.23+97268800+96572320+94831304+92103512+89393768+89666696+93611512+96735712
3610.09+94436152+88326376+84328520+85493072+89868304+94818688+99966144
3605.59+105622832+110882680+114333408+115651840+115616392+114990352+114138408
3601.09+113527712+113620504+114154288+114517080+114853584+115693968+116533576
3596.59+116202608+114687608+113275248+112958040+113786096+115482016+117667152
3592.09+119888248+121860016+122945792+121567488+116796992+110460568+105810832
3587.59+104169784+104773584+107361816+112264888+118301336+123189992+126146256
3583.09+128224528+130217544+131771424+132535160+132891264+133343240+133915288
3578.59+134389136+134727184+135099184+135643696+136371808+137206096+138008864
3574.09+138685680+139391632+140339120+141247200+141467824+140786688+139435840
3569.59+137161472+133299600+128176240+123534232+121162488+121799264+125252496
3565.09+130488248+135751376+139749808+142692032+145374496+147657840+148813760
3560.59+149010352+149362720+150544512+152107648+153336016+154161376+154972384
3556.09+155853264+156455472+156499520+156007632+155099248+154062080+153606688
3551.59+154465072+156575200+159066528+161022128+161932880+161637776+160405216
3547.09+159048016+158500080+159132224+160622352+162478016+164555392+166970624
3542.59+169562992+171767088+173181968+173964176+174417664+174601632+174612336
3538.09+174731712+174985360+175090928+175144064+175727904+177076752+178705600
3533.59+180111040+181278656+182338752+183232304+183837312+184093792+183985328
3529.09+183621008+183263616+183111584+183217504+183653600+184483264+185517664
3524.59+186429856+187191488+188106816+189327504+190620032+191760064+192889648
3520.09+194272816+195813360+197095120+197897152+198460016+199137936+199963840
3515.59+200785632+201729648+203089424+204684656+205820928+206196928+206337216
3511.10+206680256+206881136+206685616+206776688+207869248+209508080+210749808
3506.60+211468544+212065984+212487872+212530608+212643184+213449888+214813904
3502.10+216068304+216928112+217680624+218744288+220326272+222251824+223981680
3497.60+225057472+225512208+225719104+225957888+226385056+227196000+228474016
3493.10+229889392+230864992+231229952+231542544+232433152+233667264+234389984
3488.60+234311232+234082768+234358304+235122000+236159392+237472256+238941536
3484.10+240127472+240712384+240849072+241021552+241665696+242798384+243971520
3479.60+244867664+245790656+247114128+248481744+249142128+248921568+248429712
3475.10+248482672+249538352+251282048+252720608+253254192+253551968+254658128
3470.60+256454320+257866064+258353824+258374112+258604048+259383600+260642160
3466.10+261850352+262402528+262373744+262486560+263201520+264310624+265419312
3461.60+266317904+266912240+267208816+267404112+267743808+268384128+269344032
3457.10+270386112+271143904+271606112+272183936+273039456+273785184+274100064
3452.60+274152992+274178688+274203264+274397824+275061632+275978080+276356032
3448.10+275771200+274816320+274554912+275476000+277123008+278703360+279898912
3443.60+280983264+282206848+283344832+284024544+284220416+284219776+284310208
3439.10+284711424+285508032+286430048+286948544+286837632+286475584+286460128
3434.60+287110112+288333248+289727520+290776608+291247744+291428416+291719840
3430.10+292113472+292355456+292467584+292658592+292878304+292896032+292735648
3425.60+292634144+292746432+293181632+294041696+295086240+295683904+295511584
3421.10+295029120+294984096+295694848+296931072+298177952+298902336+298976992
3416.60+298850048+298939776+299054304+298872128+298750528+299367424+300659040
3412.10+301730816+301847776+301113664+300221504+299820000+300049376+300525088
3407.60+300833536+301008160+301300416+301646368+301815552+301938720+302385088
3403.10+303123168+303692512+303839744+303801760+303902592+304168576+304366176
3398.60+304243872+303766208+303206688+302994016+303339904+303972064+304274624
3394.10+303835200+303008448+302723200+303495424+304857056+305984288+306585760
3389.60+306826112+306836256+306756064+306825952+306985088+306785440+306061632
3385.10+305276256+304920640+304988544+305217408+305421760+305467808+305325568
3380.60+305218304+305469248+306176832+307109888+307783488+307716384+306915808
3376.10+306049024+305807136+306206624+306788704+307229408+307510624+307736768
3371.60+308090336+308685664+309314560+309562368+309253824+308574720+307788928
3367.10+307047232+306423648+306016896+305991136+306411904+306932992+306964288
3362.60+306441856+306063584+306437440+307357632+308226656+308630368+308268160
3358.10+307083808+305856768+305826944+307146112+308439584+308471552+307561760
3353.60+306822624+306718880+307008576+307468640+308045728+308609696+309029344
3349.10+309236640+309038048+308258304+307208576+306578528+306680512+307140032
3344.60+307412544+307329888+307080192+306887392+306853472+306986592+307269600
3340.10+307637408+307965536+308203072+308416448+308539296+308285376+307648192
3335.60+307164480+307281024+307724608+307970816+307990944+308035872+308035712
3331.10+307767392+307359296+307162048+307316800+307704736+308181344+308652832
3326.61+309028544+309171616+308918816+308275712+307614752+307451392+307941088
3322.11+308724384+309312928+309511680+309481632+309457024+309449312+309310304
3317.61+309054816+308853184+308668576+308287680+307781536+307554368+307808224
3313.11+308355264+308941568+309396480+309554176+309417632+309287488+309432256
3308.61+309807904+310323520+311069824+312052544+312988000+313563968+313623488
3304.11+313041568+311779520+310198432+309004416+308666816+309054464+309712864
3299.61+310308096+310706240+310836928+310732192+310656032+310919552+311451648
3295.11+311727744+311315328+310502464+310135872+310670624+311557920+311840288
3290.61+311249792+310386560+309895392+309870624+310012288+310022944+309859296
3286.11+309811360+310147200+310601344+310567168+309883424+308921248+307950816
3281.61+306999520+306219648+305776992+305558400+305493504+305712736+305986080
3277.11+305668640+304647392+303558144+302785824+302135552+301550176+301199360
3272.61+300907104+300445024+300113280+300160832+300145952+299681728+299159872
3268.11+298961984+298636192+297569728+295913664+294366048+293445440+293214112
3263.61+293317280+293260672+292840000+292196096+291414080+290440480+289348128
3259.11+288236256+286967520+285454432+284101536+283454752+283508640+283649280
3254.61+283248256+282219360+281098752+280535008+280574080+280590944+280091168
3250.11+279337696+278973664+279183104+279450368+279103328+277991136+276623808
3245.61+275665536+275340256+275341376+275210496+274679136+273764480+272688192
3241.11+271696256+270890144+270229760+269666272+269196704+268798208+268369632
3236.61+267816400+267242016+266938016+266972224+266883840+266173312+265011584
3232.11+264073536+263678784+263528240+263205856+262480128+261295264+259970752
3227.61+259257424+259596112+260444992+260824704+260365376+259403872+258297120
3223.11+257189632+256276256+255734752+255386512+254877632+254219840+253789472
3218.61+253805040+254132240+254552560+254843440+254663104+253849312+252815520
3214.11+252178304+252002176+251887408+251633280+251317920+250911328+250379216
3209.61+249980128+249899568+249809264+249289104+248434032+247584736+246794752
3205.11+245962016+245177184+244569008+244100432+243719152+243463440+243298176
3200.61+243122208+243014752+243176800+243551312+243678096+243047952+241616064
3196.11+239988224+238994768+238924640+239252864+239234032+238666240+237948944
3191.61+237553984+237607200+237860832+237942256+237620880+236846576+235625744
3187.11+234095200+232733440+232110896+232277184+232683232+232802480+232550784
3182.61+232083392+231565904+231145920+230834352+230401296+229704864+228996880
3178.11+228547808+228177840+227584704+226962688+226800736+227113216+227341184
3173.61+227089600+226598032+226301808+226195712+225881440+225164624+224309648
3169.11+223655520+223266800+223052688+222967648+222948640+222885760+222782832
3164.61+222710960+222564496+222175040+221664080+221312096+221133440+220956560
3160.11+220846720+220918560+220820320+219989040+218473008+217060640+216444000
3155.61+216558816+216790688+216624816+216016512+215286160+214780912+214669472
3151.11+214893600+215108256+214833488+213988608+213168640+213025280+213414688
3146.61+213550224+212899136+211607104+210231488+209387888+209410592+210030480
3142.12+210599968+210770768+210647568+210277632+209568240+208731968+208199136
3137.62+208003632+207758288+207253504+206638096+206084016+205633504+205266256
3133.12+204875776+204376304+203902704+203632656+203528640+203526608+203670512
3128.62+203726592+203214464+202249312+201635808+201686176+201721344+201199920
3124.12+200466496+199943136+199500512+199079616+199095936+199747872+200556080
3119.62+200860304+200390688+199318304+198120480+197319328+197079136+197181616
3115.12+197398000+197592464+197527440+196991712+196098400+195218560+194700400
3110.62+194756272+195325952+195968864+196204432+195935072+195267392+194145936
3106.12+192625184+191230304+190542064+190561280+190810384+190838656+190475968
3101.62+189884960+189538192+189825280+190548784+191030736+190774416+189926176
3097.12+189164944+189143072+189833568+190437376+190221776+189399040+188799056
3092.62+188759392+188772064+188278240+187357360+186522800+186152672+186268256
3088.12+186669616+187090096+187308688+187234560+186925952+186557424+186327184
3083.62+186259344+186085760+185516672+184691984+184095984+183912736+183834176
3079.12+183668544+183705328+184160640+184692304+184852848+184623696+184155200
3074.62+183388416+182348560+181478368+181218128+181425920+181510128+181118784
3070.12+180512784+180188064+180252000+180311136+180087840+179813744+179753088
3065.62+179667536+179169328+178355312+177654560+177275344+177128368+177046608
3061.12+176844768+176472832+176249456+176522240+177022688+177071920+176533264
3056.62+175998288+175885536+175892064+175526496+174760864+173908608+173224192
3052.12+172864288+173001104+173641088+174380880+174632032+174180352+173389264
3047.62+172711344+172212096+171756064+171429264+171477936+171890800+172404720
3043.12+172852496+173192528+173248384+172811712+172025552+171329280+170949488
3038.62+170721040+170426448+170010720+169453488+168786592+168337696+168535408
3034.12+169304144+169976624+169981136+169378800+168633104+168111984+167919696
3029.62+167939344+167901888+167591056+167104032+166724896+166561056+166474272
3025.12+166360400+166286304+166332096+166461904+166562912+166540320+166385008
3020.62+166206032+166145216+166214224+166323280+166492544+166823296+167233232
3016.12+167467088+167449136+167352560+167212208+166823008+166234640+165977376
3011.62+166409600+167096272+167290032+166879488+166424448+166271920+166139824
3007.12+165729616+165304176+165355216+165896192+166413472+166474432+166187296
3002.62+166015136+166255216+166778896+167262480+167602064+167945680+168372832
2998.12+168759936+169032800+169346112+169871920+170565904+171210688+171579776
2993.62+171587072+171429872+171480560+171888960+172356480+172505520+172310272
2989.12+172052384+172061840+172587104+173647616+174932896+176107488+177206192
2984.62+178412848+179530656+180111840+180087248+179929168+180119424+180730160
2980.12+181519456+182247040+182877952+183523360+184243088+184966656+185647216
2975.62+186378368+187266384+188258240+189166816+189842448+190366912+191076368
2971.12+192266000+193845312+195423968+196728832+197753248+198562384+199208032
2966.62+199772624+200302704+200766480+201253104+202031072+203216208+204480512
2962.13+205292832+205473136+205393904+205563536+205998784+206228384+206015616
2957.63+205745472+205839968+206095168+206024240+205568560+205105264+204894336
2953.13+204795600+204430368+203499584+202108464+200746880+199829104+199410512
2948.63+199443888+199934032+200656336+201110784+201047536+200747184+200607376
2944.13+200695392+200835056+200906432+200997472+201324528+201961840+202609824
2939.63+202883232+202884816+203218720+204312992+205907104+207318048+208090992
2935.13+208319376+208386752+208520384+208679856+208867360+209242576+209821952
2930.63+210306768+210408256+210201552+210030960+210188464+210689920+211287472
2926.13+211674576+211748480+211614160+211367200+211038464+210700960+210426016
2921.63+210171936+209871552+209496080+208876640+207765056+206259360+204833648
2917.13+203770592+202926736+202173456+201609264+201132928+200298768+198874064
2912.63+197187104+195712992+194593040+193688064+192841488+191942192+190916016
2908.13+189805600+188809200+188155200+187895952+187767360+187305104+186239696
2903.63+184776768+183444656+182675616+182537920+182706624+182632320+181956160
2899.13+180912736+180238000+180483216+181428080+182234576+182205136+181399296
2894.63+180480736+179932144+179546192+178830464+177721856+176622736+175910384
2890.13+175730688+176063504+176610160+176833424+176530624+176142768+176127984
2885.63+176305856+176229904+175850416+175422288+175061600+174800608+174762736
2881.13+174977008+175278320+175589072+176014928+176518656+176852528+176882352
2876.63+176729328+176544624+176394880+176340016+176419552+176540560+176516496
2872.13+176237808+175773104+175327728+175037216+174823440+174489216+173891232
2867.63+172934096+171636848+170371600+169680096+169580176+169431488+168821584
2863.13+168109488+167764112+167714112+167736112+167894000+168177280+168253456
2858.63+168008560+167819216+167946144+168120784+168040752+167883296+167994768
2854.13+168346816+168577536+168438160+168038576+167686560+167508544+167322688
2849.63+166928080+166436368+166109664+165877792+165314688+164215952+162982992
2845.13+162119104+161498976+160497040+158896416+157249984+156196496+155785968
2840.63+155673072+155634864+155629632+155574032+155309920+154719872+153875696
2836.13+153094448+152645808+152350496+151817136+151149680+150921104+151289744
2831.63+151671680+151505296+150852992+150078864+149375328+148738656+148090464
2827.13+147375072+146733104+146459344+146634112+146981248+147231120+147367408
2822.63+147443088+147399792+147156672+146757200+146406256+146371280+146660832
2818.13+146858464+146556624+145933888+145571888+145708848+145991424+145919008
2813.63+145311760+144405392+143663200+143402672+143534784+143701072+143627184
2809.13+143240848+142649600+142143488+142020816+142261728+142563664+142724368
2804.63+142749040+142642096+142420592+142270016+142305088+142311376+142083600
2800.13+141863216+142041632+142524736+142771088+142401744+141543168+140606976
2795.63+139914768+139508832+139252560+139083088+139063648+139158640+139178688
2791.13+139078624+139085680+139359664+139673008+139670240+139349872+139092880
2786.63+139195680+139507776+139627248+139401744+139063344+138833136+138649136
2782.13+138453088+138446816+138778224+139164752+139204544+138859904+138373552
2777.64+137885936+137458304+137260048+137385392+137621728+137673408+137505392
2773.14+137303312+137237280+137365216+137618224+137770336+137614688+137230848
2768.64+136918896+136830576+136787168+136562224+136214896+136076016+136395648
2764.14+137031696+137552784+137659328+137456480+137293072+137414448+137801216
2759.64+138193856+138284864+138005024+137659952+137636560+137972608+138329360
2755.14+138336848+137904896+137282512+136908960+137037504+137472224+137876448
2750.64+138298464+139016688+139848496+140149360+139697168+139080320+138935456
2746.14+139153136+139159568+138703888+138122464+137946000+138411776+139298016
2741.64+140167584+140755616+141044784+141065920+140853584+140619696+140691024
2737.14+141162832+141817120+142392848+142779520+142955104+142983280+143053312
2732.64+143346896+143855856+144410288+144890816+145327248+145803344+146291344
2728.14+146652688+146841904+147039104+147443088+148017392+148630832+149318192
2723.64+150152016+150971968+151553424+151976912+152505712+153180896+153834896
2719.14+154445504+155182560+156137952+157199296+158165040+158902864+159486848
2714.64+160219712+161328544+162609472+163614144+164271760+165009152+166178016
2710.14+167645248+169095680+170462400+171903216+173530592+175299008+177041168
2705.64+178589136+179933216+181201776+182452448+183680240+185069072+186883984
2701.14+188967392+190798496+192223312+193684960+195537968+197589168+199523424
2696.64+201345872+203228928+205250064+207389152+209540992+211581712+213597680
2692.14+215801136+218081040+220035824+221640336+223394464+225640800+228200544
2687.64+230793024+233355392+235849600+238212192+240527168+242892416+245257728
2683.14+247645248+250225760+252912336+255306544+257346400+259532784+262203472
2678.64+265031584+267544128+269713568+271808896+274035680+276525696+279353248
2674.14+282389088+285381440+288221152+290964992+293602912+295980256+297994176
2669.64+299836512+301987008+304856384+308330976+311823872+314860512+317403520
2665.14+319560448+321414176+323281184+325675264+328686848+331787488+334536512
2660.64+337113600+339889120+342843040+345658304+348153184+350464672+352952608
2656.14+355887072+359069280+361966848+364385568+366697472+369243040+371889088
2651.64+374412320+376891872+379529088+382418624+385566624+388799968+391735200
2647.14+394224224+396678496+399533696+402634784+405560896+408273440+411017120
2642.64+413859104+416686272+419447712+422149248+424806400+427557120+430582688
2638.14+433832448+437023584+439960352+442686976+445354048+448044480+450772992
2633.64+453593280+456593952+459708064+462652736+465280640+467889248+470908288
2629.14+474345920+477823296+481043712+483951136+486565920+488957984+491308288
2624.64+493768256+496363552+499108384+502048384+505104224+508080896+510898240
2620.14+513667136+516524928+519489952+522502624+525504736+528453472+531307520
2615.64+534052640+536781248+539662144+542732288+545782656+548603008+551266432
2611.14+553996480+556836672+559670208+562489920+565436736+568529280+571523264
2606.64+574175872+576590784+579127808+581898432+584590464+586976256+589289408
2602.14+591838848+594553408+597264640+600099968+603165184+606164160+608735104
2597.64+610948544+613133888+615444224+617832896+620235456+622582720+624821184
2593.15+627027328+629368256+631902400+634498176+636944000+639122880+641114176
2588.65+643143232+645398912+647951040+650739648+653481408+655762624+657523648
2584.15+659289216+661584320+664288704+666891456+669110272+670954560+672498816
2579.65+673951104+675620992+677562688+679535872+681466880+683536960+685750272
2575.15+687837696+689644288+691259584+692774528+694244160+695800960+697526976
2570.65+699325056+701089664+702834752+704508544+705966848+707259136+708674304
2566.15+710355200+712100096+713668800+715055232+716380992+717716608+719106432
2561.65+720624192+722239680+723808832+725270400+726736000+728241664+729572416
2557.15+730532160+731316992+732396352+733984000+735780608+737294528+738318720
2552.65+739066624+739877248+740876992+741965376+743071104+744261312+745570048
2548.15+746860544+747972160+748888192+749724352+750639488+751800000+753257856
2543.65+754802048+756074176+756925888+757577088+758354752+759380160+760559680
2539.15+761751488+762806720+763586432+764156672+764919296+766248384+767924800
2534.65+769240000+769808448+770029120+770548160+771498496+772503872+773257728
2530.15+773818816+774408512+775140224+775985344+776857280+777677760+778425984
2525.65+779177664+780052544+781067712+782041792+782760128+783283392+783942464
2521.15+784956160+786144384+787107776+787614272+787790848+788007168+788576896
2516.65+789472064+790348416+790949888+791415360+792068544+793013952+794073216
2512.15+795050816+795915200+796744576+797571712+798289664+798733824+798908672
2507.65+799098432+799618944+800488704+801417152+802102464+802469440+802708288
2503.15+803158144+804011520+805064640+805863488+806193920+806264320+806377856
2498.65+806627264+806983232+807424896+807826368+807968704+807842624+807775488
2494.15+808098944+808828224+809685248+810286016+810319424+809822720+809312512
2489.65+809383040+810092032+810933760+811434240+811536896+811413632+811166464
2485.15+810842496+810557568+810444736+810496704+810533952+810388864+810069696
2480.65+809668160+809179392+808591232+808102848+807966656+808068096+807988800
2476.15+807546176+806969344+806461120+805919360+805236480+804552640+804014208
2471.65+803531392+802988928+802504704+802254912+802096448+801617472+800601024
2467.15+799274496+798027328+797022080+796194496+795464576+794781248+794062720
2462.65+793265920+792404736+791431424+790288192+789111936+788157376+787448960
2458.15+786742912+785849984+784774656+783626624+782612480+781935872+781453056
2453.65+780745152+779740800+778868480+778332032+777765184+776907392+776068416
2449.15+775567680+775179840+774518400+773577856+772608384+771718080+770837952
2444.65+769940672+769153472+768600320+768124032+767354560+766248768+765291648
2440.15+764869824+764715072+764348992+763764992+763290048+763037376+762852544
2435.65+762576128+762138688+761557056+760944896+760419264+760044480+759920896
2431.15+760062656+760172544+759930368+759491328+759227776+759101952+758815040
2426.65+758401408+758096064+757870208+757606336+757409984+757310592+757084352
2422.15+756728832+756580928+756703552+756736512+756535424+756366080+756356992
2417.65+756342976+756268032+756217536+756122240+755886144+755638400+755506752
2413.15+755364416+755108672+754896832+754850240+754794176+754509440+754040832
2408.66+753585024+753235456+752916800+752503104+751969344+751460544+751153088
2404.16+751025600+750855616+750453056+749821568+749068672+748274048+747489600
2399.66+746779264+746151552+745488192+744655168+743676672+742667136+741649024
2395.16+740604352+739649920+738920192+738345088+737771328+737206400+736683840
2390.66+736018688+735015488+733783168+732534720+731252672+729862656+728570304
2386.16+727629056+726893760+725935680+724604928+723177216+721922752+720773696
2381.66+719528256+718169408+716790976+715328128+713619712+711727680+709925760
2377.16+708324544+706727680+704919936+702914048+700823872+698639040+696243712
2372.66+693615040+690931456+688459584+686291584+684251328+682130944+679946368
2368.16+677820672+675662400+673202944+670418944+667716416+665544512+663909888
2363.66+662446272+660854592+659072128+657119744+655129600+653515712+652652352
2359.16+652270656+651616192+650399552+649147392+648423616+648129408+647838144
2354.66+647454016+647228992+647352192+647730816+648095168+648226240+648109056
2350.16+647816256+647244032+646109376+644267328+641871488+639172672+636313472
2345.66+633385600+630549248+627984448+625724032+623615232+621493760+619410816
2341.16+617533184+615807936+613895680+611566400+609034816+606764160+605018304
2336.66+603653760+602295360+600660672+598760448+596841472+595161920+593804544
2332.16+592648832+591481728+590161664+588689920+587101184+585384832+583607680
2327.66+581982528+580664704+579608640+578689408+577811840+576854848+575745472
2323.16+574597120+573537024+572461184+571219776+569889536+568595008+567272320
2318.66+565873472+564520768+563253056+561920896+560493184+559122240+557808384
2314.16+556386560+554874368+553446848+552094592+550658880+549129472+547614272
2309.66+546126208+544621184+543123072+541680704+540327744+539086144+537835200
2305.16+536295808+534364352+532303168+530427872+528775712+527218048+525639136
2300.66+523914176+521987872+520035840+518304704+516807232+515395296+514002976
2296.16+512585600+510986208+509138336+507251200+505554944+504009440+502434720
2291.66+500752832+498970976+497109600+495268288+493592096+492078976+490591392
2287.16+489122208+487813792+486657696+485402176+483862944+482114432+480306944
2282.66+478510528+476816160+475314016+473878528+472254272+470444992+468747680
2278.16+467329344+466069952+464840928+463592000+462177920+460479424+458694688
2273.66+457144416+455814432+454444384+452982880+451591968+450293088+448960064
2269.16+447565600+446146560+444637312+442989504+441346688+439907008+438683904
2264.66+437499392+436143616+434523552+432761088+431113184+429687744+428323296
2260.16+426864832+425422624+424204416+423221568+422287968+421193312+419795360
2255.66+418086272+416276288+414671360+413402528+412376608+411432800+410406560
2251.16+409124384+407566176+405951072+404470240+403079584+401735840+400581280
2246.66+399646272+398657312+397426464+396138048+394999744+393922944+392764160
2242.16+391545632+390263840+388850624+387438336+386251552+385208288+383998304
2237.66+382548416+381057312+379663936+378412608+377367648+376476832+375511424
2233.16+374398976+373361344+372538976+371732992+370687712+369414400+368127008
2228.66+366984832+365953024+364874304+363730432+362753728+362118144+361595552
2224.17+360756352+359459904+357969472+356623232+355560352+354718688+353954144
2219.67+353154304+352237760+351150304+349975968+348990944+348356288+347837184
2215.17+347059200+345951552+344703680+343419168+342105440+340849536+339769952
2210.67+338881760+338142816+337490592+336789760+335917024+334933536+334029824
2206.17+333297152+332614432+331755840+330644896+329507136+328627936+327944192
2201.67+327131904+326118720+325159808+324374688+323617408+322813440+322012768
2197.17+321157216+320200608+319338496+318760192+318312128+317718592+316952960
2192.67+316133280+315290880+314426528+313597824+312814464+312005888+311127232
2188.17+310190560+309232832+308339200+307587552+306942144+306316640+305708480
2183.67+305156192+304615168+304010016+303322080+302583104+301853984+301226176
2179.17+300714624+300200064+299572864+298848576+298073920+297259424+296469440
2174.67+295815616+295298304+294793088+294211264+293552352+292837856+292108256
2170.17+291426304+290780992+290061920+289250496+288538560+288136416+287976320
2165.67+287746816+287249824+286628544+286134528+285756832+285237984+284444224
2161.17+283517600+282639328+281830080+281052672+280358240+279802432+279287456
2156.67+278605024+277698432+276798176+276205632+275965600+275884672+275812960
2152.17+275694176+275370016+274667808+273745568+273006176+272574432+272146304
2147.67+271464096+270661088+270039072+269716000+269567968+269387808+269019168
2143.17+268432064+267711392+266991056+266391904+265941808+265534832+265070736
2138.67+264639904+264392784+264235552+263898768+263281360+262484944+261599184
2134.17+260751712+260208256+260046640+259891776+259387936+258746128+258412672
2129.67+258367024+258205376+257778816+257308656+256939232+256555936+256038336
2125.17+255451344+254955776+254631344+254417776+254191136+253876576+253466816
2120.67+252970992+252432192+251971856+251681328+251477808+251158832+250622336
2116.17+249964576+249396960+249096000+249057440+249061280+248857856+248420128
2111.67+247944736+247607472+247399344+247186448+246826576+246272656+245631760
2107.17+245091040+244705792+244354112+243947712+243562960+243256640+242910128
2102.67+242412336+241857536+241377824+240930432+240419184+239921280+239601408
2098.17+239455664+239309616+239037312+238700688+238440256+238271328+238049488
2093.67+237706768+237383664+237153328+236782368+236082192+235347216+235027776
2089.17+235072000+235005664+234613552+234143856+233881216+233880592+234050000
2084.67+234222768+234185200+233827600+233218480+232486208+231776960+231276688
2080.17+231094880+231102032+231056784+230829408+230420192+229895408+229385536
2075.67+229014640+228711776+228270368+227679584+227228064+227149376+227284848
2071.17+227271520+227021344+226788352+226738880+226694000+226430432+225996896
2066.67+225540752+225074720+224614672+224290128+224048848+223564272+222723808
2062.17+221916400+221556784+221571824+221662496+221800352+222109824+222460800
2057.67+222548032+222276016+221822192+221354064+220928224+220573344+220289392
2053.17+219997072+219658640+219334304+219029632+218628864+218121824+217738608
2048.67+217659440+217752656+217743344+217536208+217236304+216925136+216530560
2044.17+215915920+215100048+214362880+214020960+214080608+214241856+214278128
2039.68+214238864+214223216+214109616+213670720+212946736+212356064+212254816
2035.18+212453328+212432832+212028272+211588336+211428208+211459584+211410080
2030.68+211127520+210655280+210246928+210205024+210471728+210580896+210230048
2026.18+209628848+209112208+208748816+208480576+208300960+208168112+208000640
2021.68+207800448+207582672+207274736+206826224+206261248+205554096+204720960
2017.18+204078528+204041296+204591136+205203376+205362448+204975568+204374576
2012.68+204026848+204104464+204256720+204015536+203418368+202931456+202791376
2008.18+202805488+202807088+202886864+203067936+203114288+202845072+202393440
2003.68+202011136+201795104+201718208+201770928+201911904+201973440+201745488
1999.18+201166640+200385216+199673664+199278448+199255712+199399520+199382912
1994.68+198985840+198140528+196869520+195425520+194430752+194498176+195496784
1990.18+196512816+196775520+196410560+196087904+196191440+196605696+197049376
1985.68+197274224+197122400+196694848+196320464+196197840+196244352+196381872
1981.18+196634528+196861856+196770816+196296816+195695312+195210576+194932384
1976.68+194908128+195107104+195312640+195308880+195133376+194966496+194855536
1972.18+194690720+194398336+194036048+193668224+193178576+192302752+190967280
1967.68+189573184+188801408+189055312+190100224+191230304+191828848+191815392
1963.18+191547600+191334384+191221712+191191696+191251568+191290480+191162928
1958.68+190958528+190901312+190959632+190865856+190530352+190145216+189857792
1954.18+189598960+189299072+189065616+189027168+189110736+189132448+189087328
1949.68+189119168+189207088+189117440+188708368+188045184+187315536+186830928
1945.18+186795536+186651824+185235104+182338288+179699408+179438400+181663616
1940.68+184504464+186304288+186937312+187122832+187337728+187588016+187738176
1936.18+187741888+187652320+187540416+187445520+187364096+187270144+187137648
1931.68+186987872+186871328+186736704+186394592+185755616+185066736+184735296
1927.18+184877168+185222944+185494736+185484752+184710976+182711712+180092816
1922.68+178515136+179002016+180905888+182847264+183532368+181569280+176594784
1918.18+171315456+170084752+174000464+179500768+182887136+183880640+184028048
1913.68+184094112+184177648+184437120+184601104+184050640+182875744+181838016
1909.18+181298272+181104944+181273040+181885968+182610336+182954432+182845232
1904.68+182646032+182738240+183120624+183387792+183281072+183108784+183284208
1900.18+183699872+183974256+184001856+183916304+183833248+183730416+183292592
1895.68+182206720+180985728+180739520+181642448+182634016+182995840+182806448
1891.18+181589536+178552160+174765552+173076192+174854656+178397136+181231488
1886.68+182516624+182763136+182619872+182512736+182688544+183102736+183488608
1882.18+183629456+183509456+183288864+183161760+183212528+183422544+183729936
1877.68+184005760+184144768+184260080+184547008+184930960+185081056+184774752
1873.18+184168288+183753312+183665456+182617200+178480160+171229888+164540880
1868.68+162625216+165805248+170949040+175493728+179002768+181621264+183189952
1864.18+183868784+184233904+184614352+184944032+185157776+185373872+185715376
1859.68+186069056+186186208+186135504+186305056+186727024+186959936+186897392
1855.19+186971808+187324752+187555584+187432432+187184336+187121920+187380784
1850.69+187734864+187517792+186280112+184463008+183040560+182792912+183470208
1846.19+182350912+175088000+161516256+149892480+150094688+161668832+174768160
1841.69+182411024+185393840+186749008+187402320+187410592+187062624+186280256
1837.19+185305744+185216560+186284624+187356432+187655456+187546832+187458992
1832.69+187319776+186232848+182194272+174505056+166965216+165354416+170775440
1828.19+178711056+184380400+185539776+181848272+175673552+172112400+174326400
1823.69+179949392+184655504+187031568+188115248+188718016+189032192+189135872
1819.19+188798432+187859600+186869776+186491904+186732784+187354416+188213760
1814.69+188879936+188862160+188223136+187135808+185265360+182639024+180600688
1810.19+180774704+183124048+185845744+187328064+187710544+188141632+188941152
1805.69+189424960+189342976+189000784+187918432+185197232+181500480+178652272
1801.19+177007296+175421520+174062256+174812560+178331216+182655216+185263344
1796.69+185448256+184674048+184704752+184414688+179391904+167408752+153910016
1792.19+148272576+153490176+163827872+173136688+180006192+184768048+187034208
1787.69+187296192+186827936+185175696+181247216+176933040+175985248+179102304
1783.19+183249168+185416288+184562752+181331280+178138448+177785104+180327936
1778.69+183283120+185179920+186032720+185177280+182521104+180328704+178838864
1774.19+172386720+156339296+136708000+126728616+132760352+148741552+164306080
1769.69+172280336+170782256+164403600+161874640+167667824+177292144+183871424
1765.19+185983120+186246720+185112720+179835376+169734176+160116192+158592000
1760.69+166634256+177465888+183767328+184009184+180188384+174169952+169159344
1756.19+169780640+176319024+183334064+186903328+187355968+183291984+171226016
1751.69+154782352+145921312+150758624+161528160+168373296+170622320+172857456
1747.19+176959280+181688368+185652192+187751264+187238160+184969744+183531120
1742.69+185135952+188509280+188166592+179833968+167806080+162896624+169889408
1738.19+182102688+191124480+193941392+188112288+168923008+137480768+107743976
1733.69+98358816+114907496+144768464+170242976+182232416+183371744+182276768
1729.19+184770528+190030544+194382368+196200816+196359184+196014464+195387808
1724.69+194246384+192776880+191807120+192195184+193923392+195742752+195645824
1720.19+191263744+179605744+158505168+131966504+113313088+115099840+133068424
1715.69+150467360+158865856+164322288+173716800+184720352+192301792+195958864
1711.19+197012704+196055168+195217936+196874544+199143280+197721424+191809616
1706.69+184646752+179654288+178355312+180384720+184711760+191152320+197181472
1702.19+192771280+166828128+124511736+93320888+99450952+137463664+177940080
1697.69+195935696+183674336+152759984+131392936+143024656+180331824+216483968
1693.19+236601296+244793824+249458944+252751536+254396432+256553024+260667248
1688.69+265428480+270715712+277208160+279062656+264792960+231904112+197995408
1684.19+189090608+212240640+250408048+284322432+306056256+316829632+322081056
1679.69+327548672+335562624+344541984+351402048+352181952+343136416+327039328
1675.19+317105088+326053312+349702336+371098592+380241600+381109568+380750784
1670.70+378973056+373130304+368005952+373311904+391256160+413122080+429640512
1666.20+439356352+445829184+450400416+450539360+445281312+440092672+443371232
1661.70+457030368+474133728+487541600+496551808+503776096+510189984+515652960
1657.20+520422912+523438208+521306656+509388032+482621344+440224000+396792992
1652.70+383189664+417515968+479260288+532989536+561895744+569546048+565874496
1648.20+557798208+547611328+535953792+527395296+531375648+551529600+577235712
1643.70+594352128+600082624+601106560+601867392+601801920+600929408+599920512
1639.20+596747264+589647296+579809536+565934208+542838400+513329856+495030336
1634.70+502718752+527690496+548944128+556524672+554271360+548587776+542048896
1630.20+534412736+524061600+509687520+493298656+479727296+471681440+466893248
1625.70+460024288+446162720+424839264+402705056+389192192+386874528+389202880
1621.20+388681280+383463552+376169312+368400960+355925184+331145088+295179872
1616.70+266165744+264507808+286750976+310114912+320357568+320277440+317215200
1612.20+313797888+310276448+307093824+303656672+299523680+296197664+294641216
1607.70+293456000+291733856+290524992+290167744+289491872+288151360+286843648
1603.20+285642752+284495552+284110944+284556128+284719872+284244768+283935232
1598.70+283951936+283712448+283267072+282843840+281939072+280478368+279539680
1594.20+279799840+280782944+282070528+283528960+284552704+284768928+284797184
1589.70+285076960+285301184+285719136+287017760+288684352+289763712+290713440
1585.20+292198880+293409728+293834944+294579744+296103648+297423200+298466944
1580.70+299923328+301143904+301641664+301788064+297503392+280143904+249960576
1576.20+226086288+230448624+259931360+291180352+308910592+315120576+317262272
1571.70+316492064+308721600+293948576+281019104+280498496+292953920+308839712
1567.20+319383808+322516320+320326080+316235136+314051264+315782272+319974112
1562.70+322399968+316283712+294143296+255451152+212502032+182001632+170587936
1558.20+177101008+202276960+241265792+275448672+286958752+277115872+264790704
1553.70+266601696+281508672+296839328+302892544+299102848+291590496+287277280
1549.20+288729088+293514208+297515808+297397248+290846944+278158176+264933776
1544.70+258716720+258781312+254392608+238651280+218607872+204434304+192986944
1540.20+175174480+157375760+160104912+190205040+229634672+257942368+269625440
1535.70+268825792+259152432+243589776+229763776+227157952+236892752+250189424
1531.20+259062768+262776624+262999440+259412528+253045744+247870624+244928848
1526.70+240241680+232381312+226809616+228457200+233558000+232660816+219546848
1522.20+196685616+175387968+169719936+184950912+211147520+231112080+234612096
1517.70+225828016+218310384+220959856+230736640+240561312+247369600+249928544
1513.20+246821296+240576624+237333968+238698272+239721936+236524864+228993056
1508.70+215611216+193147424+163791392+138538256+131069688+147480544+180779344
1504.20+215606816+239417728+249689488+251947520+252589440+253240528+250844688
1499.70+243486144+235479648+232642336+232131872+225536160+214480112+212939168
1495.20+228001696+248908432+262579280+267446880+267432816+262778224+252862608
1490.70+242401680+238708160+243876784+252822720+259191488+261958000+265582704
1486.21+273448704+283178624+290484928+294792288+298160800+301130176+302934432
1481.71+304359328+307290912+312080960+317517856+322704064+326787072+327665248
1477.21+324179552+319871136+320513184+325757696+327689536+320723904+309348064
1472.71+303807808+310569120+328652608+351870592+372258080+384712064+390312192
1468.21+393631520+396815616+397797664+393523680+384261984+376253280+378193280
1463.71+391231200+406215328+414988672+418536448+420487072+419624128+413804640
1459.21+403916256+388813024+365206304+339489152+330636640+349735712+384298240
1454.71+414102592+430956256+437893152+439723616+439429472+439310176+440578784
1450.21+441927104+440562112+435381696+429068352+426457696+429839872+436402112
1445.71+441406240+442986048+442705472+442362208+442010464+441198528+440261600
1441.21+439415424+438194112+436767616+435201920+429668960+413852608+389034336
1436.71+369697760+370468960+387526080+403729056+409173440+407037824+403568736
1432.21+400307616+395812160+389283616+381677088+375864448+374360352+375518208
1427.71+375108768+372139136+368914208+365616096+360064608+352825472+347350208
1423.21+345223072+345228896+344970272+339491808+323019232+298028640+278873216
1418.71+278216192+291875264+305993792+313692192+317225408+319555712+320633536
1414.21+320130240+318792448+317144448+315276544+313560704+312311968+311374624
1409.71+310640416+310327808+310574592+311097408+311014944+308932576+304319840
1405.21+299322176+297668000+300482464+304596832+306484640+306003584+304320000
1400.71+300309792+292524320+283632864+278897664+279938944+283174848+284103648
1396.21+280227392+271567808+261828832+257357632+261135680+269112768+275058720
1391.71+276703808+275602400+273642880+271009024+265986640+256972336+246363328
1387.21+240605792+243303120+250468560+255809424+257595376+257681616+257181920
1382.71+256068672+254689728+253320720+251705216+249989552+248725008+247859136
1378.21+247040096+246352768+245631920+243932544+240643616+236494592+233180752
1373.71+232430096+234823104+238884288+242212496+243837040+244314640+243875216
1369.21+242409648+240996960+241089200+242289280+243032464+242894816+242124080
1364.71+239881072+235436976+230465456+227765744+228023584+229810944+232181632
1360.21+235233728+238518176+240798352+241464016+241037664+240280416+239583040
1355.71+239132192+239007984+239074000+239107936+239010384+238782432+238490768
1351.21+238286768+238243264+238197680+237985136+237742320+237740864+237960576
1346.71+238074832+237864656+237521952+237476224+237891264+238392256+238337776
1342.21+237317088+235306000+232617696+229981152+228418608+228506880+229770112
1337.71+231093792+231765840+231927952+232122512+232633920+233291904+233764128
1333.21+233928944+233957264+234063856+234270480+234438208+234493872+234509968
1328.71+234537648+234493232+234321744+234132240+234011040+233836224+233485952
1324.21+232999328+232379088+231607232+230970192+230786688+230667840+229809360
1319.71+228235920+226923360+226459584+226473552+226564560+226866896+227445872
1315.21+227917744+227925840+227516160+227015024+226821984+227141152+227717200
1310.71+228060880+227979648+227600720+227067680+226603120+226552832+226913360
1306.21+227115440+226734768+226103120+225832784+226041264+226379984+226544256
1301.72+226487824+226337952+226300384+226524128+226929216+227232032+227201104
1297.22+226894176+226607232+226605664+226942208+227486976+228032160+228339728
1292.72+228271008+227973456+227826352+228064544+228533184+228910336+229101168
1288.22+229295168+229660080+230130480+230522208+230751104+230853872+230887232
1283.72+230926000+231102688+231509632+232033808+232387504+232378128+232158752
1279.22+232161280+232675584+233541456+234395696+235134704+235868704+236541120
1274.72+236966512+237183600+237356432+237426240+237321392+237412368+238207264
1270.22+239583040+240817184+241435136+241649584+241935232+242548672+243522064
1265.72+244806944+246234128+247505248+248401216+249004144+249679408+250802080
1261.22+252452064+254351696+256136576+257725808+259328144+261049744+262698544
1256.72+264097200+265367088+266705024+268117120+269625120+271438208+273583712
1252.22+275638848+277240736+278634176+280312512+282323520+284311392+286097152
1247.72+287836928+289689472+291619328+293542880+295512704+297690560+300182112
1243.22+302857856+305431584+307783840+310100096+312593248+315207808+317730880
1238.72+320096288+322473376+325141184+328279296+331709600+334871680+337332192
1234.22+339366336+341714016+344683168+347826528+350583488+352903488+355123328
1229.72+357559168+360308096+363187744+365810400+367981728+370006752+372360992
1225.22+375094624+377811552+380166880+382201984+384215808+386424832+388695040
1220.72+390644768+392104352+393372288+394807104+396304256+397473600+398283104
1216.22+399195456+400555392+402053984+402995680+403117120+402976288+403320448
1211.72+404201408+405006176+405301728+405252576+405194528+405210880+405195712
1207.22+404969472+404276320+403069344+401766528+400853376+400240640+399416160
1202.72+398196960+396906432+395788064+394674208+393340192+391851456+390411104
1198.22+389070944+387699328+386139776+384362208+382537856+380920928+379595008
1193.72+378402976+377142144+375713472+374074464+372277472+370622240+369488992
1189.22+368898240+368456928+367833536+367028000+366138816+365180416+364247584
1184.72+363556736+363200352+363021632+362810048+362526592+362332352+362466688
1180.22+362985920+363617280+364063104+364432064+365086048+366067776+367041440
1175.72+367833536+368620416+369472864+370133536+370443680+370682368+371269152
1171.22+372349664+373816320+375500192+377202400+378715872+379993856+381162656
1166.72+382302592+383402464+384553280+385926336+387491168+389033152+390507008
1162.22+392074464+393785344+395555424+397417280+399429984+401390272+403054688
1157.72+404552992+406189888+407975488+409781952+411740224+414028576+416436224
1153.22+418632832+420709568+423081568+425972416+429319264+432999008+436846944
1148.72+440615808+444204384+447828992+451749664+455977248+460445184+465283840
1144.22+470607968+476164768+481566048+486784384+492105536+497670720+503408096
1139.72+509313856+515411040+521527328+527489536+533456032+539708288+546261120
1135.22+552991552+559936064+567137152+574442688+581761408+589241536+596964352
1130.72+604747264+612468032+620308416+628454912+636800512+645135680+653455936
1126.22+661875712+670342912+678620608+686628672+694686400+703186112+712048128
1121.72+720771712+729132032+737506816+746281600+755232384+763835520+772032640
1117.23+780269696+788795392+797311808+805416448+813099200+820563904+827829952
1112.73+834797120+841603648+848633088+856190976+864263360+872474176+880272448
1108.23+887372608+894054656+900739136+907319424+913320000+918718336+924070080
1103.73+929764608+935665920+941532608+947294912+952897024+958375040+963999744
1099.23+969807680+975197248+979668288+983761024+988450048+993775168+998885888
1094.73+1003301568+1007341696+1011378304+1015445568+1019534400+1023739392
1090.87+1028096256+1032550656+1036886016+1040627584+1043476800+1045845504
1087.01+1048417920+1051248768+1053915712+1056368640+1058887296+1061340928
1083.16+1063279168+1064681664+1066003200+1067578560+1069416640+1071359488
1079.30+1073024832+1073741824+1073004928+1071027328+1068664256+1066656640
1075.44+1065002624+1063179584+1060888128+1058277824+1055328768+1051524864
1071.58+1046458112+1040487104+1034471808+1028990976+1023941440+1018666048
1067.73+1012415872+1004922496+996600320+988068736+979556608+970931136+962107456
1063.23+953131008+943921984+934260032+924128512+913850240+903692480+893449600
1058.73+882736704+871701824+861054272+851143808+841340160+830684864+819005824
1054.23+806999168+795349824+784143744+773119552+762070976+750924736+739698176
1049.73+728444672+717194624+706032384+695148864+684563264+673864768+662815552
1045.23+652100800+642648704+634133056+625054272+614579008+603491840+593115584
1040.73+583970816+575726464+567788608+559744320+551609728+543710656+536190080
1036.23+528788480+521238176+513566048+505920992+498415840+491245280+484699328
1031.73+478978144+473982272+469212864+464069760+458549280+453435840+449400096
1027.23+446128896+442776224+439006592+435207968+431938080+429505312+427826432
1022.73+426432384+424830624+422994016+421266016+419762336+418257888+416735872
1018.23+415700832+415686784+416589184+417727424+418561600+419173312+420015904
1013.73+421429600+423495936+426114464+429039584+431964800+434782944+437744704
1009.23+441330176+445914432+451482368+457699648+464286272+471207008+478400384
1004.73+485635488+492853792+500362752+508426752+516932160+525625120+534389920
1000.23+543163904+551897600+560681792+569616896+578574464+587329536+595843520
995.73+604246656+612676736+621222592+629816128+638168256+646035776+653453760
991.23+660467392+666816704+672208512+676685568+680409728+683170112+684527104
986.73+684452992+683546560+682378816+680795776+678146944+674157504+669266432
982.23+664061120+658753408+653237056+647290880+640660864+633230784+625221824
977.73+617025728+608853440+600568320+591799232+582293248+572335552+562647936
973.23+553614208+544880192+535985536+526989696+518123328+509324416+500548064
968.73+492103616+484259264+476849248+469608544+462579648+456018368+450175136
964.23+445172352+440804160+436501056+431861248+427156480+422989504+419537024
959.73+416423008+413285888+410180352+407471168+405460032+404107040+403025216
955.23+401748800+400072032+398152416+396364736+395079104+394458816+394338496
950.73+394298880+394023712+393589408+393293088+393209888+393114912+392835104
946.23+392445152+392070560+391700736+391354272+391228512+391533856+392223872
941.73+392945184+393301216+393246016+393196256+393597216+394403392+395172160
937.23+395603872+395701792+395557568+395351680+395433152+396003328+396860320
932.74+397761920+398748256+399727872+400186688+399794656+399002848+398554720
928.24+398641504+398858816+398784384+398370656+397985568+398113760+398790336
923.74+399444768+399538656+399161376+398703488+398259456+397691104+397014848
919.24+396392864+395946208+395725440+395628512+395338432+394674560+393940320
914.74+393533664+393278656+392629632+391557312+390705728+390541472+390712448
910.24+390480704+389509184+388033440+386418112+384803008+383147520+381519680
905.74+380239360+379631296+379541216+379272864+378293696+376870432+375658848
901.24+374783488+373856928+372824064+372136000+371929984+371702848+371063904
896.74+370253536+369624064+369086112+368378752+367480768+366475360+365362464
892.24+364205600+363194784+362363328+361558176+360761824+360133664+359654784
887.74+359059936+358176128+357053472+355770848+354397120+353189888+352504704
883.24+352374784+352342816+351878144+350988832+350255712+350077120+350056224
878.74+349538112+348607776+347929408+347678176+347361536+346755328+346200448
874.24+345839424+345323680+344475552+343668832+343378528+343647008+343976256
869.74+343650176+342428288+340932000+340017888+339839456+339913728+339834784
865.24+339464192+338701312+337546528+336206208+334907296+333885440+333483296
860.74+333867200+334717920+335528000+336019072+336168224+336289344+336931968
856.24+338046976+338452064+337093824+334601344+332712544+332417952+333271968
851.74+334107392+333977920+332906272+331851712+331461184+331220064+330506816
847.24+329762304+329648928+329774560+329254976+328100672+327151712+326848384
842.74+326848544+327034048+328361792+331628128+335691072+338170560+338006112
838.24+335963168+332960096+329504160+326489696+324626688+323368992+321881920
833.74+320457440+319764320+319439680+318430688+316218848+313091040+309922656
829.24+307949152+307917152+309039872+309372160+307819264+305357536+303678944
824.74+302950336+302020864+300666400+299956512+300007520+299252512+296765536
820.24+293589024+291037824+289432128+289061696+290419968+292643936+293421600
815.74+291431872+287967904+285471456+285139040+286302944+287698528+288685504
811.24+289061056+288416224+286734400+285257504+285224640+285910880+285423680
806.74+283498592+281958880+282409216+284647936+287277152+289149408+290230272
802.24+291200192+292012928+291717248+290416256
##END=
