##TITLE=octarelline 6 front
##JCAMP-DX=4.24
##DATA TYPE=INFRARED SPECTRUM
##DATE=31/1/2005
##TIME=17:4:39
##SAMPLING PROCEDURE=film
##ORIGIN=Vincent
##DATA PROCESSING=no operation
##XUNITS=1/CM
##YUNITS=ABSORBANCE
##RESOLUTION=2
##FIRSTX=4000.283
##LASTX=800.31372
##DELTAX=-0.64282227
##MAXY=0.23642641
##MINY=-0.0047021112
##XFACTOR=1
##YFACTOR=2.2018926e-010
##NPOINTS=4979
##FIRSTY=0.0066542551
##XYDATA=(X++(Y..Y))
4000.28+30220617+30425480+30309676+30027356+29685640+29193882+28551830+28057728
3995.14+27983560+28195462+28341554+28311266+28277274+28332968+28302914+28008004
3990.00+27620262+27583662+28041752+28539902+28573778+28238874+27971038+27894726
3984.86+27890194+28020766+28334996+28541452+28417292+28230166+28259386+28254256
3979.71+27855260+27214954+26783154+26703670+26757414+26756462+26776600+27007564
3974.57+27424394+27753792+27852398+27923582+28161714+28448896+28629006+28750676
3969.43+28833462+28765466+28622920+28676002+28907068+28908022+28419558+27689414
3964.28+27187420+27103510+27220080+27282420+27414260+27932524+28744828+29314752
3959.14+29335870+29024818+28684112+28418604+28326648+28465952+28603598+28389740
3954.00+27818536+27269190+27132712+27450022+27785626+27566850+26752766+25937588
3948.86+25543822+25325416+25012850+24929390+25495710+26468334+27116502+26950950
3943.71+26105672+25190500+24862720+25326724+26187160+26878492+27187420+27307452
3938.57+27517854+27864676+28121050+28066554+27803034+27644700+27591290+27153450
3933.43+25975230+24550108+23931106+24586296+25843608+26719398+27017934+27301254
3928.29+27943732+28592266+28585346+27706580+26408286+25331250+24783670+24806050
3923.14+25466294+26610964+27490912+27320686+26273890+25355424+25140492+25125726
3918.00+24487140+23197504+22234692+22620426+24291580+26189542+27500568+28292540
3912.86+28839786+29084352+29007280+28856366+28783000+28788848+28924960+29062160
3907.72+28810556+28017304+26682462+24324432+20626576+16766327+14524215+13972404
3902.57+13827016+13859453+14794376+16142176+16523163+16119538+16704791+19132900
3897.43+22441582+25405320+27517140+28571868+28578548+28063334+27438102+26086972
3892.29+23136838+19390514+17379882+18681386+22122104+25492138+27676772+28045684
3887.15+25478084+19996928+14529781+12879654+15761380+20521444+24478570+26675190
3882.00+26914006+25129536+22225300+20307990+21027206+23925036+27166800+29547922
3876.86+30933670+31073994+29331814+25983926+22813916+21709960+22924998+24726168
3871.72+24399178+20143368+13103552+7431463+7064615+12179367+19488938+25181806
3866.58+26895300+24415008+20005718+17330190+18392064+21609524+23971092+24596294
3861.43+25041784+26590110+28744472+30446014+31149952+30652692+29362006+28176742
3856.29+26100312+19240334+5361658-10913162-20945918-21354862-15889042-8009695
3851.15+1851183+12436548+20918846+26107102+29037224+30739382+31542330+31883890
3846.01+31989034+31282408+29333724+26898038+25298980+25027138+25269092+24903792
3840.86+23861016+22690828+20499826+15239197+7596205+2613025+4375231+10511230
3835.72+15711609+18461006+20949024+24159474+26238268+25590030+23345606+22213766
3830.58+23688722+26817716+29530736+30597290+30068180+28570320+26993622+26404708
3825.44+27207564+28564594+29244114+28441026+25414846+19716318+12850899+8460272
3820.29+9253374+14429946+20888546+25343280+25004992+18865942+9904415+4391490
3815.15+6501675+14220581+22379990+27845720+30574126+31696918+32092990+32247978
3810.01+32372140+32092634+30092532+24995468+17714728+12373137+12819068+18151664
3804.86+23989058+27320686+27445730+23549280+15180553+5610288+1188443+4961135
3799.72+13409499+21153162+25722474+27176930+26384692+24951058+24807358+26453440
3794.58+28591192+30039172+30926980+31752232+32402494+32517702+32082236+31385964
3789.44+30819270+30691740+30962212+31291130+31430642+31275960+30701888+29856908
3784.29+29361882+29622864+30263714+30698186+30651858+29754504+27599992+24841170
3779.15+23237114+23851972+25943192+28062860+29446012+30128820+30489116+30875754
3774.01+31301996+31548660+31519994+30963884+29088884+25499400+21541894+19660630
3768.87+20958646+24027496+26348472+26401016+24685694+23166220+23465168+25434734
3763.72+27708844+29268336+29903936+29513552+27799218+24925104+22121984+21004632
3758.58+21903242+23385696+23975492+23786528+23916112+24841530+25656848+24086762
3753.44+17702630+7161365-2051571-4750142-3199801-3801122-7309866-7833590
3748.30-1652703+7922548+15118357+15708170+7421196-7647868-20469412-21141328
3743.15-9993538+3797273+13509638+18795086+21683454+23398664+24218388+23642438
3738.01+20779834+15789230+10367989+6326763+4650838+5731727+8688865+10818194
3732.87+9990787+7657457+7669141+11737483+17694798+22492240+24993562+25626834
3727.73+24922248+23258884+21410684+20434134+20820822+22002744+22834966+22559898
3722.58+21456558+20635132+21009502+22361202+23652432+24232192+24381086+24720456
3717.44+25510716+26516232+27202320+27159290+26389102+24678908+20921696+14520661
3712.30+7751403+4676174+6478439+10111315+12684888+14565193+17255354+20631210
3707.16+23572478+25599086+26785778+27239868+27217578+26859782+25716400+23402708
3702.01+20678494+19131952+19715130+21959824+24554988+26409358+27246542+27439892
3696.87+27475056+27606670+27714804+27426062+26687586+25893158+24807358+22273456
3691.73+18262248+14904653+13281316+10767011+4854830-1592561-2583973+3418500
3686.59+12022166+18907962+23159320+25395078+26107462+26011206+25974754+26188946
3681.44+26234336+25750344+24631648+23166458+22105222+21514914+19439430+13259182
3676.30+3270238-5918136-8854173-4131982+5004390+13686848+17768938+15366205
3671.16+8442798+2134206+463015+3190282+8022526+13689924+19387902+23714902
3666.02+25932824+26795072+27219128+27361452+27318778+27396734+27580920+27738172
3660.87+27982128+28227306+28159568+27829860+27029256+24443454+19407730+14250658
3655.73+12643713+15471775+20317490+24458574+26326194+25078218+20766646+14530492
3650.59+7796135+1912256-1460523-1220389+1749516+5623493+9868496+14969923
3645.45+20496380+24985348+27526678+28431842+28553500+28568768+28746858+29002984
3640.30+29144366+29071706+28782522+28422776+28360758+28866628+29660460+30048722
3635.16+29544344+28264514+26917226+26408760+27019600+27696566+26384574+21445030
3630.02+13229358+4708227+126501+1864362+8444924+16187097+22348002+26308680
3624.87+28691746+30204382+31152456+31565862+31434106+30580934+28485396+24971896
3619.73+21214478+19139074+19470298+21251558+23378560+25414846+26975742+27644584
3614.59+27507008+26795906+25488802+24232192+24554872+26616800+27977118+26437950
3609.45+23113762+21103968+21781756+23994296+26376354+28682920+31008668+33026552
3604.30+34280168+34684772+34508784+34068568+33625340+33456610+33654156+33829476
3599.16+33543782+33070790+33089076+33559564+33704384+33210426+32669374+32746830
3594.02+33519986+34640864+35697020+36538032+37289796+37702692+36806916+34096192
3588.88+30706426+28374114+27562320+27713016+28780972+31079726+34044404+36476960
3583.73+37849728+38543608+39003408+39235928+39109772+38855568+39074872+40032984
3578.59+41133928+41539584+41163220+40575700+40232152+40316744+40949196+41975104
3573.45+42868904+43234180+43130480+42837792+42571208+42249652+41286024+39116128
3568.31+36197228+33846220+32868874+33125302+34394528+36567020+39022112+40901784
3563.16+42034188+42825532+43481500+43971312+44400032+44872632+45316468+45705420
3558.02+46125132+46569012+47006732+47472844+47809464+47659152+46963988+46094928
3552.88+45418116+45178976+45713240+47114968+48771344+49790972+49833292+49162548
3547.74+48141440+47096548+46494504+46762092+47854516+49193644+50211916+50931024
3542.59+51806568+52959020+53903600+54238184+54191176+54219812+54406760+54532932
3537.45+54438544+54149124+53912060+54117704+54900736+55912164+56712240+57200380
3532.31+57456600+57518452+57496184+57541816+57546776+57238140+56630448+56032628
3527.17+55696652+55762200+56309620+57140112+57820596+58203544+58530256+58848056
3522.02+58879424+58667464+58754788+59467332+60518320+61469440+62127512+62424416
3516.88+62366296+62202008+62316176+62884608+63739240+64507388+64849852+64736624
3511.74+64479696+64352160+64327868+64357628+64619636+65229184+65975424+66597072
3506.60+67025028+67223776+67152128+66993648+67083164+67504416+68037216+68450152
3501.45+68663160+68779288+69139160+70011264+71095416+71754288+71873400+72016056
3496.31+72522392+72951032+72725712+72007152+71604808+72119208+73318864+74426096
3491.17+74947704+75040152+75020368+74923280+74758184+74794824+75231400+75896392
3486.03+76571168+77235280+77781480+77906704+77541552+77058984+76886136+77165336
3480.88+77834056+78757600+79776200+80757720+81547104+81882976+81594400+80932368
3475.74+80462200+80603280+81356224+82323336+82916800+82889088+82734736+83142040
3470.60+84014952+84563776+84419096+84066968+84094808+84567936+85213520+85722392
3465.45+85849480+85626384+85430800+85555032+85848136+86049032+86226728+86587712
3460.31+87080000+87515984+87917896+88458328+89120792+89621960+89712256+89460920
3455.17+89188456+89113792+89147736+89097056+88985016+89013920+89267904+89663408
3450.03+90126304+90542160+90595952+90055912+89291160+89080704+89691576+90532312
3444.88+90986064+91182560+91615752+92334224+92942176+93214800+93287640+93319800
3439.74+93303032+93237960+93245848+93415832+93636848+93703048+93592712+93595432
3434.60+94029784+94795632+95360656+95341664+94998320+94940824+95333144+95677424
3429.46+95508856+95028040+94764432+94859040+94988568+94873720+94531440+94154936
3424.31+93999448+94249768+94739632+94970928+94636520+94015712+93712792+94095496
3419.17+94995848+95868576+96277512+96284432+96233696+96177400+95856248+95287616
3414.03+94956368+95260480+96059024+96833328+97065600+96591824+95843656+95560816
3408.89+95960896+96406896+96216032+95540816+95103416+95264912+95747888+96149256
3403.74+96384176+96552808+96630464+96487376+96163208+95927944+95978680+96131112
3398.60+95916848+95060608+93876888+93126920+93342240+94279360+95152888+95397312
3393.46+95110584+94802416+94844112+95165488+95394840+95276640+94877912+94380976
3388.32+93866536+93405224+93103992+92919008+92728376+92672440+92997392+93530464
3383.17+93824856+93816232+93764944+93616872+93128768+92590008+92682664+93551792
3378.03+94585080+95168680+95224328+95013856+94751224+94473848+94151848+93873672
3372.89+93821040+94001544+94187128+94182800+93989088+93702928+93488808+93549936
3367.75+93819064+93827328+93188792+92094624+91095504+90572080+90512000+90627224
3362.60+90641992+90600136+90745992+91029400+91111264+90937672+90816176+90846448
3357.46+90843376+90881536+91225040+91667728+91672032+91247688+91021520+91348544
3352.32+91914176+92313784+92545288+92771752+92918144+92733920+92176544+91528072
3347.18+91068792+90791560+90567888+90386840+90225376+89950224+89585048+89382424
3342.03+89428936+89491792+89437536+89442344+89669312+90036344+90328128+90327392
3336.89+89966336+89557856+89546416+89889800+90092824+89983440+89892864+90022448
3331.75+90212200+90349784+90432504+90308800+89913920+89577904+89611000+89831112
3326.61+89915640+89854488+89721360+89415528+88939520+88553256+88427344+88474808
3321.46+88588792+88710904+88709424+88531744+88428080+88720488+89338880+89817208
3316.32+89785712+89412320+89247008+89581592+90135032+90560632+90956512+91470576
3311.18+91754056+91387576+90594112+89945416+89647904+89666240+90161616+91189824
3306.03+92291608+92883032+92788392+92144016+91200904+90364064+89975192+89976544
3300.89+90153256+90497488+90923888+91014992+90583280+90068968+89949352+90146120
3295.75+90326160+90303512+89995496+89520080+89369392+89899032+90701080+91051552
3290.61+90796720+90306472+89848584+89515776+89386120+89333224+89030528+88454152
3285.46+87992760+87856192+87818080+87672192+87488576+87311120+86992144+86463048
3280.32+85961096+85853160+86267752+86842624+86911176+86125408+84855360+83774032
3275.18+83165352+82878544+82732648+82606496+82342696+81974032+81835064+82039472
3270.04+82100760+81549928+80685208+80166256+80050056+79785624+79053096+78063016
3264.89+77081856+76179992+75462608+75155304+75294784+75534792+75396768+74773328
3259.75+74104304+73858488+73875088+73534968+72601904+71524480+70864848+70769304
3254.61+70978544+71059720+70746032+70220784+69821488+69422144+68651960+67759664
3249.47+67505144+68011168+68465848+68188720+67374856+66654952+66396436+66529216
3244.32+66718316+66719404+66632092+66628440+66505016+65884632+64784976+63625956
3239.18+62789572+62388984+62288272+62183208+61917992+61704260+61736648+61782012
3234.04+61537240+61166620+61035900+61121748+61045476+60566444+59827452+59203220
3228.90+58975116+59119752+59469148+59940640+60377824+60422064+59943548+59356592
3223.75+59060876+58868280+58399952+57695544+57072104+56708368+56580968+56535112
3218.61+56431804+56436036+56874860+57577880+57872288+57503084+56953156+56631056
3213.47+56410268+56163132+56005168+55896076+55656992+55444172+55595320+56016180
3208.33+56204620+55845888+55076624+54264160+53720692+53510736+53421228+53210948
3203.18+52878232+52595924+52462872+52406248+52292288+52085988+51887068+51751652
3198.04+51569908+51252548+50932472+50795316+50880840+51190172+51716292+52165896
3192.90+52029980+51221296+50348308+50072752+50434424+50993028+51349804+51314088
3187.76+50793388+49851492+48867756+48392752+48666632+49323340+49730920+49617236
3182.61+49241616+48977180+48950304+49113732+49431948+49869700+50304532+50577104
3177.47+50605816+50421880+50114236+49835944+49812672+50191052+50806292+51256404
3172.33+51294056+51027416+50734396+50665036+50955396+51482416+51886340+51983988
3167.19+51985436+52088400+52168192+52116044+52069692+52077048+52011148+52012832
3162.04+52463116+53292708+53875936+53789068+53199592+52467824+51828172+51438736
3156.90+51349560+51440908+51608040+51884776+52253540+52556444+52649532+52501384
3151.76+52194268+51952488+51954180+52044948+51923036+51636160+51520668+51664520
3146.61+51828772+51814652+51565196+51060836+50473380+50161748+50230608+50337336
3141.47+50137872+49643756+49073116+48688076+48722544+49091436+49275008+48900172
3136.33+48253356+47866680+47839936+47891848+47796940+47487056+47014676+46635212
3131.19+46625708+46917276+47169272+47150732+46791708+46074232+45242848+44799268
3126.04+44889340+45021524+44765956+44319596+44014224+43808064+43636184+43742196
3120.90+44223168+44713996+44874432+44774012+44596876+44382720+44197916+44140332
3115.76+44098976+43869248+43508304+43273236+43235624+43190920+42930420+42493124
3110.62+42189236+42323396+42809436+43197288+43175416+42823612+42302860+41657368
3105.47+41042700+40775516+40964916+41344008+41562876+41494084+41289144+41245448
3100.33+41481112+41716808+41616668+41298272+41172820+41374380+41697720+41959136
3095.19+42046080+41822600+41367900+41080868+41203788+41457216+41453616+41210872
3090.05+41025172+41052660+41212192+41349172+41372700+41320472+41294308+41311472
3084.90+41306792+41304628+41376780+41425284+41258888+40926988+40698828+40669664
3079.76+40677100+40619024+40576424+40621780+40790164+41178584+41725812+41987716
3074.62+41549068+40610860+39792096+39426496+39390276+39462956+39517052+39534080
3069.48+39666148+40053144+40442500+40415620+40061184+39845836+39800496+39525088
3064.33+39018276+38724996+38761924+38799092+38676200+38497816+38277964+38029264
3059.19+37949800+38070612+38124304+38058384+38160264+38425164+38433916+38065580
3054.05+37723664+37665548+37675372+37523792+37309928+37257208+37432372+37681120
3048.91+37753384+37588496+37413800+37401696+37406372+37266912+37114884+37123872
3043.76+37225820+37309084+37414040+37575436+37741876+37908456+38043160+37967776
3038.62+37606348+37208088+36982876+36729904+36242732+35875156+36157952+36950416
3033.48+37489760+37358332+36937960+36756972+36796736+36751460+36634444+36714932
3028.34+36989344+37169396+37157536+37182696+37429016+37797960+38065096+38119628
3023.19+38039084+37990188+38017632+37975924+37778544+37602516+37657272+37908208
3018.05+38228104+38575980+38837100+38830624+38706292+38926548+39526168+39854472
3012.91+39459360+38825472+38758928+39312564+39803976+39735600+39269872+38804368
3007.77+38501648+38371460+38532340+39073080+39741836+40081936+39934376+39598016
3002.62+39427936+39489824+39690736+40028548+40562020+41234164+41848052+42221668
2997.48+42363036+42472944+42703828+42956856+43010320+42829496+42609528+42541296
2992.34+42663948+42936184+43329956+43811788+44283520+44612024+44816224+45157324
2987.20+45836932+46621132+47074752+47203108+47473444+48107348+48770980+49129760
2982.05+49337204+49734900+50368932+51007028+51471920+51786772+52030220+52182792
2976.91+52202592+52231204+52573344+53350204+54334372+55217232+55881444+56359096
2971.77+56767172+57322984+58148692+59043192+59737536+60305464+60967268+61617044
2966.62+61967012+62075104+62289484+62718332+63122872+63342104+63514380+63872204
2961.48+64486748+65180088+65656476+65754200+65580512+65313636+64977784+64568616
2956.34+64246124+64175560+64227664+64098448+63704876+63252636+62897224+62527080
2951.20+61991752+61373144+60908820+60730356+60810976+61093128+61504372+61874452
2946.05+62017232+61943352+61885004+62037252+62381948+62810688+63319520+63945908
2940.91+64582100+64975728+64985556+64756428+64593032+64711844+65130760+65691476
2935.77+66123132+66201664+65962552+65658416+65438808+65257376+65156396+65361032
2930.63+65893616+66370904+66479364+66411524+66542712+66847460+66977960+66754056
2925.48+66302336+65843416+65557428+65498600+65486696+65284356+64944132+64694464
2920.34+64439972+63803716+62790668+61953904+61677452+61727676+61723780+61626632
2915.20+61474776+61022684+60066076+58918668+58179208+58056072+58163464+58028584
2910.06+57592048+57108532+56682840+56136284+55366184+54606172+54149368+53931152
2904.91+53603632+53005392+52353976+51967092+51967816+52282628+52724148+53002856
2899.77+52859640+52365204+51991108+52176636+52795632+53219644+52979916+52270924
2894.63+51675984+51455868+51310708+50882768+50243144+49731528+49519104+49562988
2889.49+49794344+50074564+50150892+49958324+49796396+49909488+50101696+50082280
2884.34+49944092+49951208+50106760+50278844+50507272+50875652+51284400+51594764
2879.20+51763000+51675624+51199704+50548640+50245920+50523552+51023308+51279576
2874.06+51238792+51116932+50976504+50693264+50275108+49954220+49868616+49846068
2868.92+49638328+49217744+48668316+47995560+47304732+46919080+47024064+47362652
2863.77+47542936+47442016+47125204+46668204+46258960+46136084+46245604+46267380
2858.63+46078200+45839936+45617948+45323084+45050752+45081784+45469248+45916464
2853.49+46118268+46000216+45679192+45366144+45233584+45263416+45282184+45189800
2848.35+45004804+44660244+44016992+43204256+42694224+42770144+43081092+42998064
2843.20+42376976+41692436+41408716+41494084+41616184+41580524+41411836+41171500
2838.06+40855336+40454976+40036708+39717720+39545960+39453240+39373968+39364012
2832.92+39520052+39799540+40000236+39937128+39639876+39364136+39305488+39287740
2827.78+38921992+38163016+37484852+37374500+37830916+38481988+39020552+39386084
2822.63+39623328+39733440+39699132+39613724+39632196+39735476+39709808+39464392
2817.49+39153904+38895972+38671520+38581012+38793936+39136152+39165172+38782304
2812.35+38355640+38183636+38233496+38342820+38341016+38072644+37654400+37488920
2807.20+37752900+38148756+38382972+38510876+38615536+38557872+38304220+38110280
2802.06+38127420+38162180+38062940+38048076+38394356+38990580+39464640+39595852
2796.92+39389920+38921868+38389084+38127060+38231220+38343776+38175840+38019552
2791.78+38306136+38898012+39325160+39475432+39531564+39487188+39278024+39164336
2786.63+39456844+39991960+40322380+40321184+40250508+40301508+40376140+40331384
2781.49+40234672+40286628+40532140+40764476+40741428+40458340+40171320+40194960
2776.35+40653584+41333440+41825360+41936316+41866068+41877476+41963456+42007768
2771.21+42085952+42314392+42562560+42595116+42458048+42477032+42829620+43320580
2766.06+43666112+43858188+44080948+44387168+44682012+44952132+45254636+45558156
2760.92+45860992+46342964+47078008+47760920+48070732+48130960+48274084+48563004
2755.78+48886792+49265240+49731648+50128704+50313704+50398360+50632832+51207180
2750.64+52167588+53304308+54183560+54544896+54613184+54805968+55274052+55880716
2745.49+56476200+57000708+57466524+57981728+58678492+59571656+60599176+61753260
2740.35+62989472+64101120+64905132+65536404+66352188+67510376+68780016+69803824
2735.21+70501600+71167936+72162016+73504344+74868208+76018944+77095784+78349232
2730.07+79777672+81213368+82627088+84110024+85638912+87107520+88568136+90237064
2724.92+92248496+94479768+96649224+98570080+100332472+102214800+104357352
2720.42+106618760+108825968+111025088+113338992+115733392+118104360+120475560
2715.92+122944320+125551008+128325344+131314936+134442848+137508560+140453024
2711.42+143460848+146682688+150031312+153348400+156646624+160077136+163720176
2706.92+167478192+171158912+174685952+178200368+181857312+185590688+189261648
2702.42+192983008+196988480+201170832+205137008+208821312+212666880+217036816
2697.93+221740176+226320160+230585088+234713408+238995856+243549488+248209632
2693.43+252732384+257112176+261524384+265934736+270096832+274037248+278166176
2688.93+282734432+287515968+292208896+296813440+301434880+306024928+310520640
2684.43+315018368+319653696+324432992+329218880+333794976+338019936+342035616
2679.93+346204096+350729504+355465600+360186048+364826624+369380416+373814080
2675.43+378217376+382790272+387542624+392239200+396746400+401190304+405672576
2670.93+410097024+414407968+418763968+423321088+428014016+432681568+437282144
2666.43+441872864+446452448+450913152+455177472+459339488+463619904+468106080
2661.93+472640224+477073152+481508544+486098528+490713952+495061088+499090272
2657.43+503090624+507386144+512072512+517007712+521939392+526658528+531112928
2652.93+535392736+539589504+543708480+547731648+551745088+555945216+560444800
2648.43+565083200+569567488+573846336+578175936+582714816+587254592+591545984
2643.93+595730752+600191936+605006144+609763904+614028672+617861056+621767104
2639.43+626170880+631038848+636009792+640752384+645174976+649398336+653577856
2634.93+657715520+661707264+665598784+669624512+673880448+678167744+682345280
2630.43+686586880+691088192+695748672+700354112+704862592+709287616+713530752
2625.93+717555456+721540864+725656768+729838400+733923072+737851584+741628736
2621.43+745263616+748885120+752744384+756962688+761382656+765778624+770075200
2616.93+774300288+778479168+782648448+786812160+790843776+794605888+798206464
2612.43+801949120+806008448+810254400+814369920+818093696+821467456+824892480
2607.93+828705792+832709056+836433792+839811328+843168384+846608192+849939968
2603.43+853185792+856622976+860296704+863974400+867546432+871050432+874386432
2598.93+877444928+880419648+883627392+887060672+890370304+893249792+895719616
2594.43+898105280+900769536+903795200+906920960+909839488+912467072+914914176
2589.93+917352000+919932800+922691200+925499840+928240640+930922496+933547584
2585.43+936036928+938428160+940895936+943423680+945762880+947847744+949907200
2580.93+952047808+954109184+956079360+958231616+960662592+963105024+965378176
2576.43+967623040+969929152+972083712+973858880+975280128+976519616+977776000
2571.93+979277824+981126336+983092352+984793920+986137024+987432640+989015232
2567.43+990828544+992479232+993711232+994725824+995933312+997483840+999208512
2562.93+1000914432+1002502976+1003866624+1004931456+1005829312+1006822720
2559.08+1008030848+1009299328+1010351168+1011078848+1011733632+1012741056
2555.22+1014215872+1015790336+1017026688+1017871744+1018599680+1019444608
2551.36+1020399424+1021318464+1022154624+1023054528+1024163200+1025410112
2547.50+1026604416+1027622912+1028376704+1028836800+1029258112+1030027648
2543.65+1031097984+1031966656+1032435264+1032937600+1033912576+1035259904
2539.79+1036579392+1037582848+1038210368+1038665344+1039306432+1040267584
2535.93+1041299584+1042136384+1042792704+1043405760+1044058368+1044804800
2532.08+1045634432+1046439168+1047194112+1048030400+1048966656+1049790400
2528.22+1050350016+1050777344+1051337152+1052209792+1053382528+1054603648
2524.36+1055557632+1056175168+1056662848+1057241152+1057989568+1058886080
2520.51+1059801152+1060565248+1061172992+1061757184+1062297024+1062647360
2516.65+1062869824+1063223680+1063830016+1064628736+1065599936+1066723072
2512.79+1067790976+1068525504+1068862528+1068997568+1069197504+1069600192
2508.94+1070113728+1070523584+1070756352+1070930560+1071133440+1071306432
2505.08+1071394368+1071443136+1071553280+1071855040+1072442688+1073182144
2501.22+1073700352+1073741824+1073431808+1073076288+1072806976+1072539648
2497.36+1072208960+1071915840+1071790592+1071762240+1071570688+1071078336
2493.51+1070450688+1069907776+1069414848+1068781504+1067958080+1067052544
2489.65+1066154496+1065339648+1064742720+1064405248+1064103872+1063521472
2485.79+1062543360+1061259584+1059780800+1058225920+1056745792+1055384320
2481.94+1054048256+1052756288+1051671552+1050743872+1049629952+1048185408
2478.08+1046711680+1045473024+1044305856+1042930368+1041323328+1039587264
2474.22+1037742400+1035799872+1033807680+1031757632+1029646784+1027585216
2470.37+1025667392+1023819008+1021896128+1019855744+1017748608+1015637760
2466.51+1013556480+1011485504+1009431744+1007510400+1005789632+1004083392
2462.65+1002129344+999908928+997601792+995350208+993235136+991259072+989221440
2458.15+986895552+984407552+982082944+979950784+977821760+975734336+973852352
2453.65+972095936+970345216+968743360+967290880+965539264+963233344+960879040
2449.15+959078848+957638016+955938880+953911936+952044736+950561664+949166528
2444.65+947585600+945901120+944243008+942539008+940765504+939154048+937901696
2440.15+936857408+935708544+934356096+932913024+931475392+930082624+928795072
2435.65+927633536+926535936+925473024+924505984+923660288+922829760+921872896
2431.15+920749056+919556672+918483456+917692928+917164800+916664448+915917440
2426.65+914848128+913625792+912486080+911544000+910796672+910246336+909848576
2422.15+909376832+908571520+907502464+906554624+905944064+905477504+904907328
2417.65+904289984+903809472+903440768+902968704+902215744+901142336+899888256
2413.15+898803264+898250752+898230592+898300032+897976512+897140480+896012928
2408.66+894873024+893880384+893046336+892285504+891527168+890779968+890049152
2404.16+889252480+888324864+887337472+886396800+885469248+884434432+883255232
2399.66+881998720+880734208+879482240+878241152+877020672+875866048+874840128
2395.16+873893056+872807040+871393600+869723328+868057152+866547392+865120832
2390.66+863647488+862106240+860543616+858946240+857250432+855487488+853827968
2386.16+852375360+850948416+849190272+846982976+844643584+842586496+840872448
2381.66+839230528+837448704+835516992+833433664+831147776+828753920+826490048
2377.16+824429120+822352192+820025280+817480384+814940544+812562048+810292992
2372.66+807914688+805260480+802424960+799695872+797198784+794716864+791976448
2368.16+789020160+786152192+783577792+781235840+778963776+776698304+774424000
2363.66+772040128+769404992+766510912+763556736+760814016+758424192+756298688
2359.16+754181376+751884416+749490880+747271296+745378176+743669056+741856832
2354.66+739820608+737738304+735885184+734301760+732769408+731138944+729483264
2350.16+727794624+725786432+723234240+720338688+717472128+714715584+711885120
2345.66+708900864+705903360+703036672+700275072+697486720+694611840+691769856
2341.16+689119488+686644160+684193984+681721344+679297728+676923136+674521280
2336.66+672102912+669729088+667349504+664878464+662395968+660055936+657816448
2332.16+655459072+652917184+650422976+648223104+646247168+644191360+641891072
2327.66+639465664+637096256+634856704+632756608+630741120+628648192+626388096
2323.16+624133376+622093376+620168256+618094592+615837120+613552832+611278656
2318.66+608942784+606609920+604452288+602494144+600546688+598396480+596009408
2314.16+593581056+591361856+589393856+587491968+585496704+583405120+581239104
2309.66+578953024+576534144+574065152+571647744+569337152+567117504+564900416
2305.16+562609472+560280320+557996416+555766912+553556544+551395904+549325824
2300.66+547281664+545147456+542882688+540540544+538200640+535932608+533766208
2296.16+531662912+529522400+527231360+524767360+522282976+520009152+517989536
2291.66+516005600+513859904+511623104+509507808+507581888+505703360+503681952
2287.16+501462080+499155104+496896480+494696064+492506848+490359488+488292512
2282.66+486206496+483982496+481670912+479391776+477138432+474860576+472638720
2278.16+470598016+468729920+466896256+464934624+462761696+460493120+458384832
2273.66+456515680+454638080+452532480+450343296+448352064+446568608+444774880
2269.16+442868992+440951136+439112832+437277984+435274976+433050528+430766880
2264.66+428647392+426735616+424913824+423123360+421400000+419689760+417822176
2260.16+415751456+413652800+411690144+409816256+407914496+406032320+404295808
2255.66+402652704+400872928+398848512+396751712+394821120+393091872+391393856
2251.16+389558752+387566080+385522400+383534144+381659808+379963424+378498112
2246.66+377145888+375636544+373852576+371961184+370136864+368360480+366616032
2242.16+364997184+363466240+361791744+359889696+357950720+356155936+354501344
2237.66+352924320+351371168+349766240+348103520+346468096+344853504+343153280
2233.16+341411840+339810176+338351488+336833920+335179552+333555296+332156928
2228.66+330994208+329826176+328314464+326406400+324505184+322957088+321524352
2224.17+319744832+317680384+315874784+314607424+313581472+312379520+310939968
2219.67+309500864+308182976+306813952+305247872+303671456+302333536+301130016
2215.17+299779168+298252512+296700704+295161120+293673728+292389280+291279616
2210.67+290066080+288667904+287309920+286041472+284632448+283065248+281644672
2206.17+280523776+279500800+278325728+276936128+275429120+273973760+272649600
2201.67+271343456+269963392+268645120+267515312+266426256+265176800+263784224
2197.17+262381344+261072592+259946304+258975216+257934416+256706256+255506560
2192.67+254518432+253554960+252384016+251098448+249884976+248715136+247487968
2188.17+246231120+245006384+243815536+242654496+241524336+240422976+239383376
2183.67+238396624+237301376+235986368+234656736+233621120+232840320+231969360
2179.17+230828352+229582896+228467312+227504352+226546208+225487552+224385216
2174.67+223372096+222490848+221668912+220809808+219845040+218779232+217753648
2170.17+216904000+216098176+215036720+213716928+212516560+211695088+211090240
2165.67+210449088+209757008+209073952+208296896+207281312+206049968+204780288
2161.17+203641616+202668000+201746976+200763008+199751136+198819520+197951744
2156.67+197027984+196035712+195096592+194297552+193634976+193095280+192637664
2152.17+192126240+191430048+190587696+189775040+189099760+188494944+187812096
2147.67+186966608+185981056+184934784+183908944+182990320+182262288+181721072
2143.17+181213104+180531840+179602032+178531360+177485296+176567328+175823040
2138.67+175268800+174860240+174491216+174078080+173588128+172970720+172170448
2134.17+171270864+170479728+169863792+169252560+168533184+167840800+167282544
2129.67+166675696+165810160+164803184+163953952+163373264+162961296+162610944
2125.17+162249824+161788080+161170016+160419904+159587488+158733232+157954000
2120.67+157315104+156764640+156216240+155671408+155181184+154724400+154207552
2116.17+153583984+152947024+152447568+152085392+151663824+151056560+150421424
2111.67+149988176+149745408+149513936+149205280+148795232+148190368+147354992
2107.17+146458416+145705520+145149424+144755024+144476720+144171392+143654016
2102.67+142922176+142151168+141458288+140852608+140380944+140097072+139905488
2098.17+139615232+139151680+138587472+138026944+137535792+137108384+136667456
2093.67+136175264+135727744+135412944+135127888+134701760+134141216+133559424
2089.17+132936816+132196360+131481952+131094304+131088016+131152600+130967912
2084.67+130526344+130037680+129631504+129248488+128747952+128083976+127391720
2080.17+126898184+126672664+126491016+126042328+125287648+124534912+124102928
2075.67+123972232+123813872+123353784+122657320+122026752+121650096+121411152
2071.17+121078864+120607776+120162032+119873560+119674928+119403256+118988504
2066.67+118473104+117898920+117281120+116710280+116332632+116154928+115970016
2062.17+115604352+115173584+114914744+114844592+114745152+114477272+114110760
2057.67+113742464+113344480+112869752+112368632+111935576+111566808+111158680
2053.17+110643696+110097768+109631776+109219336+108738392+108191496+107760616
2048.67+107579584+107556736+107500512+107350160+107190272+107064168+106856408
2044.17+106411280+105735664+105038704+104550600+104332808+104240712+104060896
2039.68+103725432+103380496+103140416+102857008+102347288+101771096+101430216
2035.18+101245808+100853920+100205680+99650528+99428328+99452808+99540104
2030.68+99519704+99255976+98848416+98595528+98552288+98430544+98082576+97681184
2025.53+97317672+96881488+96428856+96205544+96233560+96256896+96098536+95760968
2020.39+95273560+94697448+94175520+93765936+93374160+92974824+92708416+92673792
2015.25+92742432+92648776+92236528+91655912+91273912+91256432+91320712+91115584
2010.11+90703408+90375264+90152632+89831232+89426952+89181072+89132976+89028312
2004.96+88689136+88232104+87853120+87618360+87518560+87542768+87602136+87516104
1999.82+87183704+86704296+86263704+85962088+85809696+85790544+85854144+85861632
1994.68+85619984+84982016+83979000+82906864+82195752+82055648+82246240+82351040
1989.53+82259960+82235696+82481216+82845800+83060992+83077304+83006800+82875720
1984.39+82635432+82314264+81996336+81730408+81567456+81535968+81501656+81244248
1979.25+80765432+80321136+80070144+79926392+79801288+79743264+79763224+79765056
1974.11+79703360+79625024+79526232+79336776+79051504+78744744+78431432+78021664
1968.96+77419648+76639848+75838616+75270968+75170088+75584400+76277384+76845936
1963.82+77018888+76846048+76547448+76253176+75968608+75704112+75497168+75350848
1958.68+75275120+75322032+75464560+75521976+75336688+74957960+74531944+74117976
1953.54+73748768+73570104+73705080+74009352+74157656+74014720+73766344+73640272
1948.39+73610992+73417088+72843680+72034224+71470840+71446832+71522152+70876424
1943.25+69394016+68052792+67927336+69027152+70440688+71389296+71776720+71860352
1938.11+71803056+71629440+71408424+71280448+71310904+71413792+71481336+71503144
1932.97+71497776+71422080+71254488+71076776+70941624+70736776+70342976+69877152
1927.82+69598240+69583384+69686656+69803456+69865816+69571936+68588176+67213800
1922.68+66343424+66499176+67354784+68281456+68625904+67531536+64740748+61819984
1917.54+61175836+63218280+65853748+67238496+67552592+67742504+68011168+68159392
1912.40+68248112+68305192+68112296+67644072+67213072+67057980+67133152+67283864
1907.25+67396984+67449664+67491152+67516584+67466208+67422784+67543464+67753704
1902.11+67830352+67772912+67748584+67753576+67660016+67484944+67340912+67255032
1896.97+67146160+66865820+66353644+65884992+65862140+66223312+66508064+66537860
1891.83+66385496+65742892+64270300+62606560+62046100+63010704+64620120+65846576
1886.68+66371516+66374796+66131156+65867972+65722108+65782160+66136744+66717708
1881.54+67221464+67392736+67259288+66986952+66696544+66489092+66461008+66665780
1876.40+67101776+67629840+67952648+67903240+67653816+67423632+67185944+66759772
1871.26+65756752+63535380+60047288+56767296+55693272+57168192+59693064+61883424
1866.11+63489848+64656080+65365896+65761008+66176992+66685840+67033420+67027452
1860.97+66743604+66416988+66263788+66364944+66661760+67018332+67258440+67274744
1855.83+67182176+67196640+67332520+67437384+67471680+67493336+67502472+67532392
1850.69+67654544+67729864+67451984+66740204+65920360+65509176+65575896+64855924
1845.54+61228464+54598076+48927288+48982720+54577652+60956472+64662148+65999736
1840.40+66517184+66819244+66928944+66833960+66395348+65748980+65486572+65836972
1835.26+66302460+66424888+66236676+65980412+65830292+65417664+63597668+59912164
1830.11+56319904+55765712+58701012+62727312+65417784+65724788+63628864+60469580
1824.97+58826736+60139764+63051008+65368808+66499544+67062364+67424480+67555632
1819.83+67470104+67170976+66648504+66105380+65833572+65919024+66265128+66703832
1814.69+67019664+67085596+66902064+66355108+65246072+63807836+62864692+63157948
1809.54+64544324+66043992+66782152+66841256+66948768+67365112+67612080+67369864
1804.40+66831404+66018584+64684624+63092036+61877120+61014312+60022080+59242584
1799.26+59726028+61659740+63895148+65169036+65211564+64768332+64667500+64366004
1794.12+61796084+55950864+49480288+46911016+49681016+54989344+59800916+63326316
1788.97+65649180+66639996+66687912+66491040+65770608+63912764+61822652+61313476
1783.83+62662504+64402332+65223232+64736744+63185500+61618264+61390484+62612508
1778.69+64126500+65173280+65600936+64949116+63283592+61985812+61258052+58205244
1773.55+50573368+41453976+37216956+40541016+48216500+55415032+59008916+58256096
1768.40+55351680+54352012+57236688+61834904+64946804+65836124+65622812+64626440
1763.26+61803848+56940204+52526984+52150924+56374224+61786016+64959920+65319228
1758.12+63659952+60614568+57870472+58016112+61163832+64402564+65846452+65902852
1752.98+63976024+58296420+50544300+46367036+48509144+53261072+56283368+57533704
1747.83+58984440+61106712+63186344+64805628+65714820+65590364+64690576+64153460
1742.69+65066484+66786040+66526904+62209048+56138340+53776264+57369700+63440800
1737.55+67841184+69161080+66194496+56629484+41142092+26809374+22885276+31785326
1732.41+46786532+59081108+64526344+64741480+64031524+65170740+67694928+69823800
1727.26+70788560+70995968+70956488+70728968+70205064+69541488+69156216+69334600
1722.12+69936464+70480776+70314216+68400240+63043844+52974840+40288428+31750800
1716.98+33344096+42436072+50649716+54293524+56779148+61497336+67049476+70783928
1711.84+72442144+72755112+72111288+71604208+72401896+73588536+73039840+70291440
1706.69+66892088+64589388+64188684+65437472+67728760+70957944+73879848+71585056
1701.55+58788464+38257108+23653860+27645774+46853108+66493596+74883840+68934504
1696.41+54513592+45086356+51607556+70082760+87532696+97202072+101344336
1691.91+103965840+106032256+107499512+109523912+112728592+116287864+120012864
1687.41+124133232+125765744+119580128+104854464+90355208+88280056+101171312
1682.91+120396952+137164224+148339536+154738736+158754384+162811008+167939760
1678.41+173589168+178418608+180325600+177255168+170631248+167181312+173218176
1673.91+186420464+198172064+203551776+204769440+205645680+206216752+204964832
1669.41+203980160+207989776+218145296+230215888+239700256+245857008+250323616
1664.91+253752560+255081472+254017280+253229856+256627904+264907360+274674400
1660.41+282716512+288848000+294145728+298869088+303029376+306866048+309733376
1655.91+309863808+305166880+293469440+274581728+255712000+251810256+270960928
1651.41+302239776+328646912+342939776+347171168+345940416+342532352+338289376
1646.91+333748608+331129088+334674944+345533888+358203808+366237536+368986176
1642.41+369945088+370999744+371564992+371585568+371409152+369976000+366317760
1637.91+361007072+353501024+341335488+325910432+315962976+318781280+329771584
1633.41+338359424+339847616+336489728+331594144+326347424+320562720+313485856
1628.91+304474112+294404832+285527392+279125472+274157504+268169760+258874960
1624.41+246050256+232963072+224260992+221081104+220052992+217646896+213261184
1619.91+208173312+202862672+195129280+181482208+162739792+147861152+146613264
1615.41+156733200+166877680+170689152+170126096+168558160+166619776+164307072
1610.91+162333040+160744496+159058416+157506992+156341200+155092144+153749216
1606.41+153089840+153153872+153053376+152469040+151796368+151136128+150450608
1601.91+150059728+150025840+149918288+149653456+149500368+149299616+148809216
1597.41+148418624+148396208+148173024+147375504+146611616+146467904+146787264
1592.91+147359424+148172368+148900224+149217952+149423024+149886576+150495520
1588.41+151233728+152403632+153898800+155292992+156593456+157858352+158626336
1583.91+158806624+159196816+160228752+161431552+162569344+163778160+164741584
1579.41+165310752+165613904+163579040+155182336+140907424+130211616+133453752
1574.91+148477312+163670336+172004960+174989216+176464992+176744656+173395824
1570.41+166324416+160205040+160453808+167074352+175025072+180032688+181293008
1565.92+179956720+177825424+176903952+178123408+180515744+181815680+178705616
1561.42+167623584+148420544+127246640+112411568+107109232+110537632+122750024
1556.92+141016624+156253888+160418240+154853456+148759872+149624288+156411952
1552.42+163033328+165185728+162853552+159026960+156909376+157448048+159272656
1547.92+160591824+160135680+156733200+150109440+142798048+138730112+137794464
1543.42+134717360+126098216+115460512+107744840+101210056+91368856+81571488
1538.92+82035672+95921776+114140408+126754752+131152968+129307224+123113752
1534.42+114342848+106833080+105011672+109196840+115112264+118981648+120406080
1529.92+120056344+117758144+114133688+111233928+109630048+107400328+103757280
1525.42+101143840+101775688+103813536+102832240+96077672+85010376+75219184
1520.92+73311176+81348384+94108448+103311864+104474368+100126408+96955456
1516.42+98858048+103848480+108453568+111418896+112176976+109996216+106317720
1511.92+104402224+104979440+105410848+103770416+100107472+93687040+82850592
1507.42+68631624+56454184+53061912+61318688+77529328+94090072+105124384
1502.92+109692184+110541736+110696920+110877976+109547016+105746952+101696328
1498.42+100443680+100670808+98122744+93358640+93002568+100437616+110544352
1493.92+117218616+119793600+120047840+118028088+113528136+108955176+107861936
1489.42+111096872+115940216+119249632+120805632+123105120+127792944+133490616
1484.92+138031504+141168944+143779216+145930704+147293520+148479344+150505536
1480.42+153474448+156819008+160276592+163459744+165089856+164358064+163057472
1475.92+164240256+167787312+169692496+167184768+162596912+161106880+165817456
1471.42+175874704+187858912+197942272+204168272+207489488+210000608+212296832
1466.92+213123392+211091552+206625456+203055904+204595088+211327856+218421984
1462.42+222223056+223840720+225203680+225353120+222937008+218407152+211338704
1457.92+200228352+188299248+184872544+195100880+212368592+226619776+234104912
1453.42+236688896+237049856+236764320+236867056+237831152+238924448+238615680
1448.92+236176640+232929616+231498384+233263680+236891312+239876432+240983200
1444.42+240728416+240057904+239349552+238691168+238293424+238076944+237498944
1439.92+236339248+234572928+230638480+221887680+209155632+199385344+199331616
1435.42+206711232+213198832+214466512+212389152+209855600+207355616+204175072
1430.92+199971392+195101792+190915072+188840096+188310400+187280192+185124592
1426.42+182813328+180386416+176908864+172782224+169498384+167442496+166019760
1421.92+164572096+161091152+152637968+140111952+130491824+130037056+136458448
1417.42+142697584+145520832+146440176+147191184+147712512+147618112+147106320
1412.92+146440032+145740960+145162080+144717200+144275600+143915920+143892624
1408.42+144243712+144676848+144659872+143507856+141017424+138370816+137552048
1403.92+139128736+141390832+142473392+142271328+141295984+138914400+134498752
1399.42+129608904+126972424+127238232+128403760+128213688+125637328+120912488
1394.92+115887600+113444960+114715120+117559864+119129128+118750760+117524416
1390.42+116352456+115030272+112494824+107942760+102550368+99394200+100200360
1385.92+103102016+105137032+105532496+105253224+104908144+104510568+104177384
1381.43+103855544+103150704+102060776+101171312+100886584+101092000+101459920
1376.93+101519328+100735640+99057808+97167736+96012008+96273816+98062072
1372.43+100698528+103103880+104718704+105676496+106104584+106000256+105817776
1367.93+106220712+107115936+107758128+107684000+106752664+104687096+101637288
1363.43+98834576+97587312+97845120+98711088+99885104+101528360+103195416
1358.93+104054816+103960136+103467720+102974928+102489072+102065616+101883384
1354.43+101944904+102046912+101982912+101627256+100998688+100336920+99933704
1349.93+99823392+99765512+99538248+99154976+98806880+98686376+98832592+99110840
1344.78+99351424+99465048+99419792+99155960+98582672+97629432+96368864+95143144
1339.64+94465952+94616296+95334136+96024104+96296528+96285536+96437744+96991016
1334.50+97712936+98168208+98138928+97731968+97191336+96731960+96464784+96378112
1329.36+96385528+96424168+96487744+96601576+96755544+96819992+96637744+96337392
1324.21+96322808+96717768+97097344+97049552+96635408+96017680+95116624+93996976
1319.07+93094880+92673424+92504616+92343720+92268200+92358376+92474440+92497720
1313.93+92465320+92451512+92548240+92837672+93188912+93281960+93000344+92594200
1308.79+92358136+92355552+92490328+92634984+92645456+92461504+92258592+92361576
1303.64+92899176+93575704+93912768+93753480+93402888+93229584+93303904+93497672
1298.50+93702688+93836200+93868880+93948160+94290080+94899872+95561920+96090872
1293.36+96408984+96493672+96450456+96544416+96913720+97355576+97617200+97807448
1288.22+98246928+98939016+99514128+99779984+100031416+100614776+101447664
1283.72+102223224+102863832+103503040+104202920+104948808+105746952+106539952
1279.22+107233112+107930840+108882624+110079248+111202096+112085640+112938712
1274.72+113966160+115018800+115798088+116298336+116899488+117996896+119608976
1270.22+121402784+123054432+124494584+125853096+127321120+129050656+131032608
1265.72+133077688+135000608+136788416+138519616+140229344+141975808+143928176
1261.22+146253280+148908848+151642624+154263232+156865568+159676448+162718592
1256.72+165787408+168762928+171744592+174870272+178190976+181717568+185400960
1252.22+189107920+192765344+196452944+200230064+204022928+207788464+211654640
1247.72+215794656+220255024+224910864+229524256+233934688+238258528+242812848
1243.22+247786016+253106720+258624032+264254896+269977248+275776160+281564256
1238.72+287153120+292506816+297975488+303956832+310303936+316449984+322196864
1234.22+327976352+334191744+340672256+347002272+353100352+359189760+365399584
1229.72+371675552+377988832+384358208+390685184+396768096+402474528+407834272
1225.22+413048736+418467744+424366624+430670752+437021664+443110944+448776224
1220.72+453895232+458462720+462676960+466713312+470565600+474288608+478111840
1216.22+482071552+485799040+488899776+491353280+493439328+495470144+497560544
1211.72+499483680+500881600+501722816+502319104+502792768+502900320+502481696
1207.22+501700256+500701856+499412672+497736928+495682816+493254080+490445120
1202.72+487293376+483832672+480064096+476043712+471833504+467368512+462580192
1198.22+457602752+452592256+447414912+441809184+435828160+429831872+424022912
1193.72+418266432+412393824+406421152+400401632+394316672+388210080+382240352
1189.22+376500032+370924672+365422400+359965376+354542592+349166048+343911104
1184.72+338852416+334020448+329486176+325338400+321496832+317702912+313802720
1180.22+309878432+306031072+302242016+298545184+295145888+292209184+289658048
1175.72+287318208+285156320+283183712+281242464+279130464+276916416+274849536
1171.22+272993344+271222208+269554944+268163296+267066912+266099552+265113200
1166.72+264004240+262715344+261394144+260304720+259463664+258685552+258014912
1162.22+257670176+257577360+257444624+257226272+257063280+256903392+256626064
1157.72+256322800+256090400+255835424+255588608+255646064+256133088+256748832
1153.22+257166976+257445408+257962960+259084880+260827408+262763680+264404128
1148.72+265719248+267116256+268950016+271258208+273849504+276442688+278881536
1144.22+281342816+284132992+287273600+290558880+293970336+297660608+301573088
1139.72+305477600+309348448+313385888+317694208+322218496+326974528+332106048
1135.22+337668576+343479552+349266592+354989824+360912896+367284832+374067840
1130.72+381089056+388308288+395770400+403452128+411280288+419223680+427308992
1126.22+435646048+444373184+453465120+462744480+472170272+481843520+491678016
1121.72+501467840+511380992+521854080+532831360+543616320+553704704+563384320
1117.23+573319168+583853440+594860160+606019200+617089856+627937536+638401024
1112.73+648306304+657728448+667068224+676689728+686558528+696302080+705526848
1108.23+714121472+722433408+731031104+740053568+748928832+756997760+764261696
1103.73+771257152+778376640+785528256+792350592+798576512+804217536+809497408
1099.23+814671104+819933952+825376960+830869632+836121216+841046464+845868160
1094.73+850654464+855112512+859138240+863178944+867632960+872220800+876368064
1090.23+879977152+883382912+886728512+889841856+892714880+895637440+898686976
1085.73+901478080+903696512+905527616+907198208+908470016+909074240+909318336
1081.23+909678656+910026432+909789248+908671744+906706688+903880128+900223808
1076.73+896059520+891656832+886828992+881288576+875208512+869001536+862654912
1072.23+855760000+848207872+840385600+832487424+824016512+814298112+803227200
1067.73+791259008+778924544+766614784+754518272+742415296+729824960+716621568
1063.23+703183232+689713600+675865792+661450240+647066624+633505344+620750784
1058.73+608153216+595491456+583211456+571490880+559747008+547527424+535340032
1054.23+523946400+513179872+502212960+490861088+479871808+469870112+460577920
1049.73+451210464+441313696+431144672+421382656+412503488+404397024+396636736
1045.23+389009120+381600000+374461280+367420800+360243488+352901824+345710240
1040.73+339152992+333488416+328519808+323776736+318840288+313547840+308071680
1036.23+302760832+297754240+292895232+288164160+283858560+280089024+276466656
1031.73+272679712+268983840+265721568+262730784+259680368+256700208+254208800
1027.23+252246832+250358496+248089952+245462224+242994784+241294048+240504640
1022.73+240161744+239650720+238764944+237741504+236917296+236493392+236486256
1018.23+236726256+236978272+237135920+237248208+237416736+237800112+238590336
1013.73+239761840+240980016+242025744+243133056+244639552+246531648+248666096
1009.23+251179088+254287568+257902672+261844912+266261712+271460832+277436928
1004.73+283848736+290453856+297371328+304956512+313489984+322928992+332911168
1000.23+343061760+353311968+363873056+374947008+386561696+398646656+411112992
995.73+423862848+436791168+449782624+462646816+475150784+487153088+498593440
991.23+509253920+518679968+526398944+532060544+535339680+535993248+534135488
986.73+530164448+524273056+516342880+506441632+495108480+482974048+470343552
982.23+457261728+443756096+429928288+415992672+402282624+389087584+376488384
977.73+364431200+352878880+341786880+331052480+320647104+310739200+301520672
973.23+292950464+284806272+276987552+269616288+262816064+256548816+250688976
968.73+245137776+239860208+234924624+230487552+226591808+223059296+219720608
964.23+216655488+214029968+211772976+209614368+207436064+205442688+203866464
959.73+202571200+201168352+199565632+198131248+197143472+196418128+195703184
955.23+195029104+194422080+193719248+192950976+192467856+192426640+192553552
950.73+192534736+192302224+191939504+191609488+191476304+191479424+191402976
946.23+191264368+191306112+191570368+191858112+192053920+192149424+192120896
941.73+192061184+192179376+192485616+192779216+192990000+193180720+193287824
937.23+193244912+193198464+193297296+193508128+193807968+194213488+194596096
932.74+194873760+195312320+196139440+197021088+197389696+197189712+196934944
928.24+197137744+197856208+198725632+199377024+199861712+200454928+201093760
923.74+201461024+201619600+201996624+202704752+203420560+203926304+204276112
919.24+204527904+204751984+205156704+205859840+206730944+207640336+208566336
914.74+209347008+209699616+209639488+209595280+209981920+210848720+211923360
910.24+212834224+213334416+213448912+213422160+213494240+213745776+214130224
905.74+214566000+215009712+215482800+215990224+216428096+216665184+216746288
901.24+216876720+217179888+217567760+217942704+218337808+218761792+219070736
896.74+219184384+219287904+219606416+220058640+220315760+220164464+219684864
892.24+219155600+218849120+218814704+218857792+218821792+218795136+218863968
887.74+218809184+218329808+217472048+216594192+215980112+215688016+215631120
883.24+215587296+215292416+214755920+214326800+214225760+214154176+213642000
878.74+212688352+211736032+211038432+210417296+209737264+209280864+209363488
874.24+209776240+209902944+209364272+208361840+207387856+206689952+206048800
869.74+205105856+203897488+202888848+202410448+202280448+202150208+201993248
865.24+202018784+202217536+202219888+201641504+200549536+199594656+199420064
860.74+199810704+199818784+199008448+198114208+198061328+198821600+199656288
856.24+199985984+199570576+198359376+196713488+195417712+195141360+195983088
851.74+197408544+198428288+198261104+197309904+196950800+197954608+199618192
847.24+200737856+200886784+200640128+200875184+201654368+201636544+199495648
842.74+196224752+194816800+197255328+202509088+207571376+209949488+209345824
838.24+207367904+205604432+204362176+203555696+203522064+204018976+203878720
833.74+202666192+201293856+200372800+199428800+198112928+196628272+195087376
829.24+193887760+194063904+195625680+196428144+194440256+190497824+187364592
824.74+186582496+187302832+187735680+186923424+185204656+183435248+182130512
820.24+181387344+181119792+180991568+180598192+179978864+179319664+178214000
815.74+176297232+174454096+173872368+174071792+173537296+172147760+171159808
811.24+170891856+170281952+168837952+167434944+166952272+167238752+167590320
806.74+167411904+166355104+164533536+162836928+162581600+164466432+167657504
802.24+169984000+169472656+166248560+162790592
##END=
