##TITLE=octarelline 6 front
##JCAMP-DX=4.24
##DATA TYPE=INFRARED SPECTRUM
##DATE=31/1/2005
##TIME=16:47:30
##SAMPLING PROCEDURE=film
##ORIGIN=Vincent
##DATA PROCESSING=no operation
##XUNITS=1/CM
##YUNITS=ABSORBANCE
##RESOLUTION=2
##FIRSTX=4000.283
##LASTX=800.31372
##DELTAX=-0.64282227
##MAXY=0.14959091
##MINY=0.0059519191
##XFACTOR=1
##YFACTOR=1.3931739e-010
##NPOINTS=4979
##FIRSTY=0.0064987252
##XYDATA=(X++(Y..Y))
4000.28+46646905+47094504+47283136+47384252+47263900+46943412+46814768+47081104
3995.14+47349732+46968308+45805452+44648312+44527684+45435528+46237088+46171084
3990.00+45746436+45736064+46008912+45930280+45365208+44729924+44350708+44158284
3984.86+44009596+44071600+44628520+45464752+45870316+45508112+44798160+44153572
3979.71+43528340+42984988+42949196+43499508+44167140+44713340+45415168+46306860
3974.57+46838540+46587492+45813372+45080352+44663012+44511660+44527868+44633988
3969.43+44669424+44556332+44579892+45119940+45941592+46235016+45614264+44663764
3964.28+44204836+44437212+45028888+45633120+46107912+46453024+46686892+46730644
3959.14+46525252+46183908+45891432+45745868+45842788+46155620+46246892+45622176
3954.00+44550112+43915372+44149992+44865456+45514520+45898976+46190700+46799488
3948.86+47838372+48567136+48088004+46627852+45246816+44391228+43869016+44020148
3943.71+45503212+47891768+49724416+50139784+49526940+48499580+47160524+45594464
3938.57+44387832+44141512+44723516+45444388+45901808+46219928+46531292+46847208
3933.43+47375956+48289160+49177536+49400080+48878164+47997628+47139956+46719704
3928.29+46946428+47265972+47000184+46674252+47349168+48657160+49048228+48064984
3923.14+46747248+45907464+45617656+46090752+47455376+48904220+49505420+49622276
3918.00+50285368+51449704+51978284+51159004+49360064+47252772+45310720+44075552
3912.86+44016004+44798724+45376896+45138980+44408004+43639884+42975568+42722012
3907.72+43264376+44411204+45931972+48504108+52648308+57092272+59946564+61196184
3902.57+62081980+62606116+61979256+60829164+60529072+60683848+59452044+56232300
3897.43+52340108+49081828+46696132+45117676+44480940+44697504+45550344+47488960
3892.29+51240232+56014556+59145828+58698960+55595752+51951268+48886096+47295964
3887.15+48825696+53908232+59808868+62732564+61703872+58623796+55307688+52630920
3882.00+51639744+53186728+56317432+58431056+57781380+55138612+52373932+50241180
3876.86+48528828+47636304+48572044+51302744+54184636+55381828+54462196+52836144
3871.72+53129080+57352304+64555368+70582256+71534224+67407768+61366732+56619592
3866.58+54992608+56759604+60296624+62675124+62121216+59716436+57719672+56865956
3861.43+56157756+54682288+52526988+50223432+48510520+48236132+49237740+50308404
3856.29+52154756+58847220+73315952+91755312+105377616+109337016+105850640
3851.79+98002440+87023792+74989464+64634284+56820360+51040768+47340108+45856368
3846.65+45668940+45797536+46424924+48023096+50080688+51555488+52222012+53063124
3841.51+55027784+57505228+59116472+60660172+65190720+73278104+80052152+80228872
3836.36+75010016+69710568+66657688+64254908+61163784+58307060+56920072+56806728
3831.22+56716088+55568312+53247208+50625468+48877032+48636584+49604340+50793736
3826.08+51279704+50904788+50182460+49771048+50670220+54454624+61783468+70358944
3820.94+75724024+75153528+69752552+62590380+56884304+55790952+60982636+70053936
3815.79+76794304+76351176+69728240+61436840+54619892+49886208+46872108+45313172
3810.65+44889016+45097508+45976476+48653008+54236252+61627116+67075708+67298976
3805.51+62884796+57198816+53076168+52186308+55925260+64351832+74149456+79639064
3800.37+77645880+70375288+62518532+57365364+55686728+56284892+57119148+56683544
3795.22+54753956+51915564+48866464+46396064+45276220+45601252+46568256+47171840
3790.08+46933220+46003632+44944812+44332796+44275132+44484708+44914276+45813560
3784.94+47026968+47915164+48154236+47955172+47541220+47246732+47877052+49885268
3779.79+52330668+53589896+53014928+51223980+49255484+48030452+47846864+47912524
3774.65+47222584+46035876+45468900+45856928+46845700+48792484+52428732+57049128
3769.51+60312716+60283932+57299504+53764004+52266420+53427524+55354400+55647756
3764.37+53829400+51204712+48982740+47559708+47296912+48864764+52242236+55728348
3759.22+57010344+55804200+54384296+54599088+55668572+55746692+54406228+52929696
3754.08+53712768+59460192+70272856+81139744+86283304+87004304+89234624+93619864
3748.94+94183976+87242384+76384128+67669040+65634536+73056496+88442968
3744.44+102940960+105710896+95696088+81348952+69608544+61842788+57128036
3739.94+54758868+54347232+55864536+59630448+65366792+71639176+76590160+78710336
3734.80+77339200+73782432+71231384+71726440+73516088+72905664+68643480+62757396
3729.65+57470396+53704828+52193108+53520524+56725180+59522112+60430932+59655832
3724.51+58027456+56462360+56060520+57111952+58208612+57803900+56300976+55169436
3719.37+54692500+54058720+53065960+52317056+52140960+52287584+52321968+52039120
3714.23+52374500+55631120+62990788+71604760+76321672+75464176+72321992+70052792
3709.08+68242344+65155804+60855884+56859332+54199948+52805716+52008892+51321072
3703.94+51133312+52459524+55539004+58957608+60674000+59906408+57655504+55375396
3698.80+53637532+52312140+51616504+52049132+53204864+53719192+52902860+51586096
3693.66+51103288+52363732+55679920+60203800+64012700+66592588+70388592+77340720
3688.51+84572424+86362768+80992912+72434192+64969684+59773632+56263512+53942644
3683.37+52615988+52162880+52566484+53812580+55708292+57853496+59616252+60475640
3678.23+61064120+63685172+70716064+81802696+92687536+97805536+94882856+86431344
3673.09+77316728+72167576+73600368+80457480+87881800+91218400+89930488+86074528
3667.94+80829288+74726432+69182392+65486528+63377212+61987412+61189740+61199788
3662.80+61831604+62723272+63539536+63941772+63982172+64133328+64702008+66082016
3657.66+69382632+75161136+81442600+84831896+84064056+80851408+77519016+75712984
3652.52+76634352+80728032+87250208+94862560+102193624+107729616+110378672
3648.02+110323808+108248016+104225048+98531112+92714720+88562248+86604624
3643.52+86268984+86702816+87059328+86865208+86570424+87040224+88394608+89993800
3638.37+91407624+92664568+93741248+94600528+95633440+97396600+99846760
3633.87+102232992+103738440+104171264+104393160+106368544+112284648+122620248
3629.37+134557744+142933952+144105216+138928192+131269424+124436456+119708408
3624.87+117094616+116208304+116388624+116879520+117568672+119419760+123558096
3620.38+129664416+135621840+139213584+140068000+139411360+138303072+137023904
3615.88+135839200+135350352+136069776+138213904+141569088+144976160+146750512
3611.38+146743888+147131296+149763376+153539696+155707984+155248432+153514128
3606.88+151956352+150935840+150470528+150661440+151253152+151685008+151853152
3602.38+152443136+154246560+157098800+159748912+161108048+161419376+161707440
3597.88+162472128+163650752+165363840+167739808+170276704+172279952+173709792
3593.38+174957920+176076784+176782480+177052480+177471024+178947712+181974752
3588.88+186116144+190456608+194330048+197115728+197991888+196806928+194669808
3584.38+192753536+191265920+190185632+189937792+190648976+191817760+193169232
3579.88+194848800+196546896+197594928+198043392+198656000+199881280+201595216
3575.38+203628400+205865392+207988160+209584320+210481904+210904368+211302224
3570.88+212015536+213298784+215766528+220043392+225480656+230074944+232428880
3566.38+232988064+232742992+231976496+230893824+230147760+230101984+230517056
3561.88+231215168+232241312+233439184+234569648+235636784+236592800+237237136
3557.38+237708944+238522384+239895856+241572896+243265312+244854352+246353264
3552.88+247927952+249653408+251196944+252146880+252549408+252766624+253193440
3548.38+254369568+256673536+259619280+262251744+264346912+266351888+268246912
3543.88+269547264+270206752+270515968+270521664+270450112+271050656+272618176
3539.38+274401824+275809408+277351552+279631136+282231680+284305152+285528512
3534.88+286021312+286097312+286388576+287529184+289411072+291334496+292949792
3530.38+294514528+296273344+298080320+299648064+300832224+301742976+302686304
3525.88+303829280+305004160+306163776+307743680+309959008+311978112+312636736
3521.38+312009088+311533312+312453344+314631936+316954336+318446976+318948512
3516.88+319088288+319755840+321410080+323749536+326033184+327774592+329129088
3512.38+330574720+332253280+333819456+335026432+336126848+337495360+339136256
3507.88+340804544+342318016+343540928+344413376+345276096+346770144+349089824
3503.38+351551424+353176640+353601600+353397824+353625312+355024864+357337568
3498.88+359507520+360770944+361482752+362584864+364363520+366091744+367008384
3494.38+367330112+367957664+369306944+370837696+371854720+372380256+372922176
3489.88+373763904+374936352+376535040+378531648+380547168+382285440+383930560
3485.38+385664448+387218944+388372896+389402016+390595552+391914400+393398304
3480.88+395221376+397084832+398369280+399036576+399588832+400201632+400750272
3476.38+401418496+402409632+403461344+404461568+405915680+407957024+409757344
3471.88+410749856+411540416+412806912+414209056+415172256+415955584+417258944
3467.38+419285216+421636096+423719744+425161312+426123008+427189824+428726144
3462.88+430457024+431873920+432880384+433875136+435244768+436881056+438318848
3458.38+439371904+440294304+441181632+441737184+441963424+442494720+443780064
3453.88+445457280+446955328+448196608+449333184+450347584+451347360+452756928
3449.38+454772192+456911616+458452352+459199136+459635360+460369888+461570304
3444.88+463008352+464522304+466177952+467922752+469359104+470142208+470507360
3440.38+471179808+472654592+474703552+476623136+477907232+478536512+478740576
3435.89+478784800+479089152+480154528+482047328+484149152+485720864+486598752
3431.39+487180896+487837664+488624768+489470336+490465312+491901984+493964576
3426.89+496263296+497853888+498157600+497848480+498282752+499946848+502034624
3422.39+503675744+504912512+506258880+508013824+510187040+512472704+514173504
3417.89+514789312+514692352+514704864+515170400+515974720+517058464+518306688
3413.39+519464608+520657568+522357792+524311968+525398400+525170560+524768640
3408.89+525624064+527787648+530069152+531422624+531883616+532309184+533414080
3404.39+534995136+536227840+536675616+536740704+537095424+538037248+539425344
3399.89+540938240+542271296+543257984+543915392+544429312+545185472+546628160
3395.39+548786688+550988736+552419008+553006848+553424000+554144768+554917568
3390.89+555338816+555546368+556018304+556981568+558381440+560135360+562067392
3386.39+563765120+564867840+565375680+565538560+565688448+566207744+567315392
3381.89+568802240+570251200+571455040+572465792+573454976+574688000+576249024
3377.39+577688640+578486656+578893760+579704960+581193920+582902208+584430016
3372.89+585808896+587208128+588778112+590546944+592110656+592881408+592947200
3368.39+593170880+594142144+595588544+596967872+598087808+598959936+599583744
3363.89+600024704+600451584+601063296+602047872+603437056+604921088+606121728
3359.39+607032000+607888384+608763136+609669056+610854976+612485696+614218688
3354.89+615616704+616720256+617723648+618488000+618990336+619802688+621361216
3350.39+623149376+624349248+624955648+625518656+626256960+627107072+628148800
3345.89+629312000+630131776+630350848+630333504+630589440+631355584+632762240
3341.39+634735616+636728320+638219008+639394688+640785984+642474688+644193984
3336.89+645882112+647579200+648978688+649557888+649198784+648663872+649228288
3332.39+651426560+654223680+656043136+656534656+656631936+657138624+658164992
3327.89+659693376+661641920+663579968+665090176+666180544+666896384+667190976
3323.39+667508864+668687040+670928960+673609536+676077312+677883456+678550208
3318.89+678181120+677979264+678993536+680613184+681369024+681022976+680909056
3314.39+682319232+685327488+689106816+692669760+695234112+696465216+696638528
3309.89+696377408+696170176+696292608+697094848+698901568+701495744+704123072
3305.39+706158464+707442368+707979840+707936256+707912384+708546496+709728192
3300.89+710871424+711866112+713062912+714497280+715918080+717376000+718971520
3296.39+720245632+720631040+720348224+720225024+720802176+722020224+723547136
3291.89+725049600+726385344+727622208+728706496+729304256+729283328+729000448
3287.39+728797376+728666432+728704896+729192512+729887744+730086208+729754368
3282.89+729744704+730465728+731161920+730983104+730096256+729353792+729242432
3278.39+729380544+728959360+727744000+726512064+726059136+726043136+725610048
3273.89+724789632+724238912+724012800+723758464+723586240+723551744+722971328
3269.39+721565632+720409344+720389440+720611392+719711488+717866752+716168448
3264.89+714884288+713648512+712656576+712403392+712566272+712116352+710554752
3260.39+708550976+707171520+706627648+706093504+704875840+703329664+702246976
3255.89+701862080+701878336+701929536+701590208+700522752+698948992+697477824
3251.40+696332928+695366464+694628224+694255680+694062976+693804416+693416512
3246.90+692643776+691227776+689770624+689410176+690255168+691161344+691251392
3242.40+690682304+689839488+688790848+687575808+686267648+684870912+683632640
3237.90+683017472+682992256+682938176+682631232+682571840+682993472+683247232
3233.40+682621760+681267136+679931584+679100672+678753280+678745856+678963008
3228.90+679077376+678674304+677920576+677551360+677784128+677841152+677071488
3224.40+675900736+675099328+674761536+674549248+674277952+673860672+673326848
3219.90+673022528+673143936+673225344+672819520+672339328+672381312+672675904
3215.40+672555584+671940224+671118656+670085120+668805440+667602048+666822976
3210.90+666587968+667020416+668072768+669043712+668963200+667685632+666074752
3206.40+664973376+664397568+663878336+663203904+662584896+662249728+662136576
3201.90+662000320+661625856+660950528+660206208+659814272+659796800+659421184
3197.40+657962752+655799168+654141248+653665920+653985408+654408000+654543040
3192.90+654105472+652850688+651037952+649555136+649212992+649912320+650618496
3188.40+650235776+648564800+646373632+644572864+643514688+643057472+642899520
3183.90+642667456+642051840+641086848+640028864+638918400+637727616+636926592
3179.40+637132160+638038208+638360768+637191936+634890048+632493120+630781440
3174.90+629986880+629822080+629645376+628990976+628004480+627154816+626684544
3170.40+626461440+626095936+625144448+623556224+621871872+620632448+619857344
3165.90+619410368+619364352+619579200+619520704+618917184+618039424+617155584
3161.40+616338496+615770688+615502144+615020096+613769408+611895168+609973184
3156.90+608494144+607834240+607969728+608110144+607463296+606294592+605319040
3152.40+604453248+603247168+601948864+601078592+600589248+600292160+600353344
3147.90+600625536+600352704+599139136+597464256+595943296+594818048+594160320
3143.40+593840768+593407744+592561600+591473792+590304576+588950272+587595520
3138.90+586825728+586812864+586919488+586482112+585573312+584713600+584171456
3134.40+583827904+583477952+582884864+581718272+579921536+578168128+577394112
3129.90+577673216+577986752+577357632+575878848+574491840+574018112+574422848
3125.40+574850624+574459264+573235264+571746304+570367808+569189760+568408192
3120.90+568120064+568007296+567756032+567354112+566691136+565605120+564568768
3116.40+564302016+564527808+564229120+563224320+562323264+561869760+561264128
3111.90+560030848+558417728+556915840+555763968+554831232+553750720+552405696
3107.40+551177408+550265984+549203712+547657216+546246912+545747264+545900032
3102.90+545762112+544959616+543974912+543369088+543130368+542816384+542226240
3098.40+541738624+541794112+542180800+542201856+541451712+540080384+538495232
3093.90+537145536+536288896+535680992+534719136+533164896+531411584+530003968
3089.40+529244032+529232096+529864128+530712288+531195968+530974304+530106176
3084.90+528923040+527788064+526932032+526449792+526319520+526261856+525773184
3080.40+524584192+522994976+521500192+520372096+519810528+520026784+520740992
3075.90+520956832+519835744+517693024+515784864+515128800+515606400+516115968
3071.40+515536736+513712704+511593920+510340896+510233472+510534400+510501120
3066.91+510243744+510200352+510068000+509013824+506976896+504894432+503577504
3062.41+503131168+503397600+504009920+504144704+503239456+501846016+500892800
3057.91+500514048+500372864+500420672+500382272+499427776+497340640+495212064
3053.41+494073440+493637376+493020288+491937056+490718688+489789984+489327744
3048.91+488964512+488010656+486346400+484695872+483691488+483245568+482999776
3044.41+482714240+482121920+481094272+479966592+479091776+478284992+477160128
3039.91+475719552+474310624+473322816+472933344+472684608+471658176+469748384
3035.41+468222240+468034048+468278400+467435584+465556416+463990336+463433440
3030.91+463353920+463032416+462200544+460886464+459341216+458068384+457396768
3026.41+457092160+456637120+455794592+454727424+453711840+452898336+452281504
3021.91+451708576+450916320+449690528+448100896+446509696+445257952+444379936
3017.41+443630528+442772064+441831584+441047904+440478976+439730528+438334528
3012.91+436405856+434633312+433563808+433180320+433190752+433344128+433398784
3008.41+433013376+431856416+429891104+427725536+426431296+426475968+426972224
3003.91+426613376+425241984+423752288+422699008+421897760+421230720+420839808
2999.41+420565088+420066656+419462048+419185088+419300768+419449312+419243552
2994.91+418388800+416848608+415221472+414418528+414641376+415149728+415261760
2990.41+415077760+414961696+414846240+414456064+413864448+413449248+413413376
2985.91+413664992+414146880+414927040+415819104+416198976+415619712+414572384
2981.41+414147936+414798848+415784000+416096416+415682336+415376224+415784480
2976.91+416661248+417415072+417836576+418073472+418261088+418501408+419003808
2972.41+419884224+420927872+421825632+422532672+423192736+423848736+424426912
2967.91+424895552+425315520+425816448+426534368+427450624+428340480+428969408
2963.41+429250432+429147680+428707552+428239872+428104512+428296768+428544032
2958.91+428783488+429057248+429005920+428162240+426756128+425532736+424678144
2954.41+423670944+422330112+421203712+420624992+420121088+419208928+418122720
2949.91+417349024+416968128+416843040+416931424+417064832+416875104+416274784
2945.41+415641152+415324832+415258400+415152864+414808800+414257696+413822464
2940.91+413862496+414300992+414730272+415062048+415557536+416197920+416668512
2936.41+416990624+417456704+417925152+417940256+417451808+416780352+416056448
2931.91+415299808+414685504+414195712+413431232+412270016+411175936+410496992
2927.41+410034976+409626976+409432704+409363840+408897280+407774304+406368640
2922.91+405181568+404327712+403593952+402707072+401492448+400001824+398555488
2918.41+397513248+396886432+396236928+395103904+393533408+391935648+390397760
2913.91+388640000+386756384+385402432+384900640+384710336+384141568+383110016
2909.41+381927776+380801440+379758368+378686688+377371072+375762752+374067680
2904.91+372379168+370602464+368913760+367766592+367288896+367202336+367323424
2900.41+367438784+366917888+365360256+363519456+362613024+362785664+363057664
2895.91+362625152+361542880+360282464+359185152+358238496+357184192+355949280
2891.41+354869536+354243936+354003904+354101952+354637600+355311776+355480864
2886.91+355050688+354576576+354305120+353970016+353553920+353353088+353336832
2882.42+353353312+353740224+354816416+356041120+356589568+356469184+356306304
2877.92+356359616+356390848+356273376+356187776+356287168+356470240+356491680
2873.42+356255008+356003648+356071136+356384640+356452736+355925920+355002976
2868.92+354136928+353430336+352491840+351058112+349642240+349109344+349544160
2864.42+350025184+349735584+348754176+347557696+346370208+345319072+344627744
2859.92+344273088+343852928+343083104+342097376+341132480+340260928+339560736
2855.42+339243968+339370560+339596800+339456736+338834432+338017376+337354784
2850.92+337000768+336869728+336636416+335910784+334677632+333429632+332686592
2846.42+332571232+332867072+333076512+332492672+330800288+328671712+327162624
2841.92+326533280+326187488+325577920+324645376+323628544+322923872+322776288
2837.42+322827008+322443936+321576960+320665760+319818624+318852800+317955776
2832.92+317443712+317060672+316342656+315402752+314690048+314290528+314001376
2828.42+313683072+313142112+312115712+310737728+309597632+309057376+308840704
2823.92+308510624+308021632+307618624+307398784+307212608+306897856+306414656
2819.42+305812000+305204768+304709120+304252864+303600064+302735264+301997408
2814.92+301569600+301133280+300321312+299247360+298314464+297766336+297628320
2810.42+297751424+297789824+297398176+296583904+295677760+294994688+294655840
2805.92+294573984+294466336+294028928+293194944+292207936+291443008+291114976
2801.42+291039680+290785728+290210784+289601728+289164608+288766464+288273600
2796.92+287637984+286668224+285365024+284302080+283893408+283621696+282865408
2792.42+282017696+281820416+282101088+282130784+281722976+281144832+280451328
2787.92+279603264+278817824+278338752+278144544+278042176+277797376+277259776
2783.42+276561408+276038016+275813504+275656576+275282496+274582784+273668160
2778.92+272757248+271908288+270963456+269998464+269473088+269510784+269523104
2774.42+269061280+268453088+268105168+267835280+267376464+266877280+266435440
2769.92+265785888+264794944+263767344+263024480+262558368+262200192+261836800
2765.42+261476096+261203328+261019280+260733008+260158128+259361648+258610960
2760.92+258158784+258086720+258172720+258034048+257578544+257097248+256724768
2756.42+256175440+255237616+254096400+252943744+251742016+250585360+249841232
2751.92+249656448+249711776+249693248+249665088+249744208+249700528+249203728
2747.42+248357920+247645104+247223840+246661136+245584576+244326592+243542128
2742.92+243367776+243355936+243115072+242644832+242042352+241271152+240320480
2738.42+239403056+238836304+238727584+238844944+238798576+238368368+237673648
2733.92+237060896+236757376+236594000+236181888+235406304+234608512+234130352
2729.42+233871408+233471440+232776448+231906048+231043072+230398224+230246960
2724.92+230674720+231245792+231202576+230246592+228947728+228118816+227870912
2720.42+227686624+227299264+226918368+226582832+226008848+225184272+224446336
2715.92+223835392+223053344+222143536+221538416+221394400+221440880+221469808
2711.42+221445456+221280080+220962352+220700480+220613104+220565856+220483088
2706.92+220436640+220323568+219916384+219268640+218645360+218121040+217635648
2702.42+217269440+217075808+216805328+216145680+215116464+214074240+213459936
2697.93+213462352+213743680+213701312+213191936+212655392+212362576+212088320
2693.43+211736704+211603488+211674256+211317920+210146576+208680448+207737120
2688.93+207522416+207614576+207609408+207482320+207365152+207174704+206682848
2684.43+205941584+205372576+205240608+205235424+204828032+203911648+202928912
2679.93+202424656+202495424+202613040+202115776+200947888+199717440+198968928
2675.43+198701152+198667312+198740960+198886336+199075280+199279888+199311968
2670.93+198817408+197714720+196508128+195885600+196090800+196787552+197351264
2666.43+197223568+196238784+194740608+193360192+192604480+192607264+193067232
2661.93+193451120+193402304+192950192+192300528+191574512+190805040+190031184
2657.43+189328224+188832688+188645952+188651280+188650880+188657968+188731216
2652.93+188640608+188152496+187525344+187204496+187190880+187168784+186993376
2648.43+186664112+186173552+185690528+185430624+185188672+184559344+183682800
2643.93+183148944+183136512+183252800+183164880+182885296+182548592+182297616
2639.43+182292896+182537760+182807488+182852992+182591152+182100640+181507168
2634.93+180828976+180033776+179369456+179293296+179807200+180273344+180264496
2630.43+180102672+180240880+180605872+180847280+180746272+180227856+179438736
2625.93+178813120+178586656+178430816+178012560+177574672+177508976+177742064
2621.43+177947840+177982656+177816816+177439360+177009024+176758688+176641488
2616.93+176384688+175939568+175609904+175705616+176176288+176619664+176676496
2612.43+176455872+176413024+176708352+176911088+176575616+175893968+175550928
2607.93+175927360+176689456+177209424+177253280+177049136+176781104+176404352
2603.43+175994816+175829872+175962768+176138544+176265536+176497952+176732912
2598.93+176594688+176046720+175558576+175472096+175604592+175622672+175485664
2594.43+175377552+175386000+175378352+175184944+174850032+174605584+174585328
2589.93+174700864+174799136+174814080+174770640+174816832+175086464+175411360
2585.43+175409008+175060720+174845920+175097856+175581392+175870768+175751424
2580.93+175230336+174573152+174313168+174743136+175447936+175791920+175731184
2576.43+175703664+175923056+176224832+176445056+176576592+176621632+176532144
2571.93+176297200+176060272+176081312+176414768+176667440+176408080+175808640
2567.43+175446352+175503344+175664960+175761648+175962176+176317056+176670208
2562.93+177014128+177479872+177969072+178178208+178034208+177792048+177702336
2558.43+177762160+177839840+177927376+178186064+178708848+179308464+179672576
2553.93+179688512+179494448+179298608+179279136+179556448+180091856+180671840
2549.43+181064272+181169824+181073936+181058736+181427984+182126816+182701088
2544.93+182833488+182713504+182707568+182914080+183246480+183667616+184120352
2540.43+184461376+184669344+184914016+185254528+185516800+185622112+185822272
2535.93+186355216+187000288+187278096+187087296+186859216+187012528+187509744
2531.43+188080048+188603904+189073536+189376992+189400096+189288736+189438400
2526.93+190151856+191311760+192387664+192859488+192718736+192431952+192417536
2522.43+192742240+193288224+193916768+194415072+194580416+194504064+194556080
2517.93+194963312+195527904+195874720+195896496+195852752+196017584+196404816
2513.44+196941744+197693168+198659792+199566096+200157056+200532336+200871200
2508.94+201068176+201033296+201073344+201514928+202138560+202422672+202223424
2504.44+201893344+201822368+202110432+202617200+203170464+203676800+204105856
2499.94+204464752+204869504+205512672+206383264+207158032+207567696+207735120
2495.44+207955792+208325072+208745440+209096096+209246720+209131264+208915696
2490.94+208862032+208993584+209157696+209412432+210005872+210905152+211683616
2486.44+212043744+212194320+212529488+213068400+213446800+213422544+213170848
2481.94+213032768+213151968+213437248+213744288+214006784+214264704+214639088
2477.44+215217200+215970016+216766672+217398352+217630256+217386800+216928400
2472.94+216697552+216894752+217323840+217687632+217941872+218289248+218817168
2468.44+219315088+219518240+219458032+219400192+219529392+219853184+220301440
2463.94+220725184+220950992+221015392+221156240+221453264+221741504+221961744
2459.44+222207392+222402768+222345872+222095456+221885760+221763056+221688864
2454.94+221799568+222149536+222521072+222862544+223470672+224341552+224884496
2450.44+224732112+224338144+224343120+224760880+225213024+225536224+225780480
2445.94+225874768+225701008+225393568+225273552+225425920+225535392+225301680
2441.44+224903456+224788656+225058224+225403968+225646864+225931728+226317312
2436.94+226583664+226574256+226397200+226221584+226136864+226204016+226393440
2432.44+226506704+226395008+226169440+226034400+226049760+226181632+226379632
2427.94+226527296+226525504+226431200+226324096+226150080+225913760+225831824
2423.44+226027616+226274928+226363440+226435584+226684144+226963280+227013280
2418.94+226858384+226737488+226803248+227016688+227205952+227170144+226870784
2414.44+226502912+226307088+226365040+226617408+226946144+227197520+227261456
2409.94+227140560+226906944+226691744+226703968+227006688+227302448+227290656
2405.44+227196352+227479152+228052416+228309536+227940480+227228704+226557456
2400.94+226093360+225907152+225963680+226014832+225871552+225696416+225757520
2396.44+226024432+226260944+226333296+226253344+226065952+225843616+225679216
2391.94+225627072+225737536+226062560+226490528+226721536+226579456+226237200
2387.44+225998272+225988432+226134896+226269152+226221584+226040608+226045392
2382.94+226440176+227026256+227553072+228143968+229050528+230268800+231714880
2378.44+233464640+235489664+237497376+239377968+241483984+244196368+247488416
2373.94+251109104+254879472+258671120+262360464+265951584+269596672+273426176
2369.44+277435040+281499264+285471680+289257760+292793664+295995840+298858592
2364.94+301513952+303946016+305786592+306724608+306995008+307101440+307195968
2360.44+307051616+306434720+305196160+303214016+300531872+297354016+293760256
2355.94+289633504+284952544+279944960+274881312+269820544+264576688+258915408
2351.44+252811568+246497040+240372688+235149056+231968480+231809776+234572256
2346.94+239102128+244167424+249061232+253474976+257395664+261072208+264584576
2342.44+267583392+269821760+271571744+273106880+274191776+274574240+274588256
2337.94+274785088+275227904+275506784+275269696+274513152+273476480+272449216
2333.44+271594464+270820960+269843456+268463008+266815952+265268736+263971792
2328.95+262653120+260932832+258742560+256309824+253908528+251727488+249793120
2324.45+247897792+245796272+243537920+241419296+239618576+238063904+236561136
2319.95+234849920+232690336+230164944+227746592+225821856+224283024+222758560
2315.45+221069056+219278416+217547776+216089712+215052144+214271888+213330416
2310.95+211996432+210468208+209121344+208128016+207390176+206694000+205879696
2306.45+204951264+204039008+203253952+202576352+201894528+201131424+200310992
2301.95+199581936+199106560+198858416+198618400+198232064+197775488+197370464
2297.45+196999120+196586672+196130736+195619488+194992016+194297616+193713312
2292.95+193298112+192867392+192239648+191500816+190931664+190728976+190817680
2288.45+190870224+190561104+189908352+189295056+189067424+189163168+189232848
2283.95+188995152+188382048+187505376+186653264+186159328+186080048+186095232
2279.45+185868224+185369104+184781728+184315888+184170208+184392576+184702272
2274.95+184753728+184577104+184441664+184326928+183959904+183323936+182708960
2270.45+182308240+182123664+182137840+182270416+182290512+182057072+181698992
2265.95+181407520+181212352+181026656+180701184+180123136+179437168+178993984
2261.45+178872560+178710608+178272832+177816432+177635280+177622880+177579968
2256.95+177556784+177572512+177347888+176671184+175805488+175242528+175153312
2252.45+175263152+175185120+174770464+174185248+173705296+173415136+173187296
2247.95+172966912+172918208+173113840+173263312+173002064+172358496+171730784
2243.45+171459856+171575888+171851344+171974240+171787904+171418032+171023296
2238.95+170534768+169868176+169200736+168712880+168272192+167740400+167296112
2234.45+167132800+167154368+167255728+167474128+167678832+167587856+167254160
2229.95+167048912+167107904+167205536+167126352+166807600+166317760+165936608
2225.45+165967568+166272912+166402064+166208624+165912112+165580368+165104064
2220.95+164592192+164288400+164185568+164065504+163789392+163372096+162944304
2216.45+162726608+162812544+162986976+162954864+162637136+162153056+161701952
2211.95+161484352+161490016+161437376+161168528+160888736+160778208+160680576
2207.45+160451696+160267424+160296768+160373648+160216752+159764160+159183344
2202.95+158720352+158509200+158457008+158375888+158225744+158083248+157952480
2198.45+157785936+157562752+157223488+156714864+156176224+155868368+155882448
2193.95+156101216+156369824+156532752+156474144+156268432+156093200+155932448
2189.45+155651552+155306048+155030704+154728816+154233472+153645296+153206336
2184.95+153012160+153032656+153184880+153274256+153129840+152828912+152552608
2180.45+152315728+152042800+151732416+151370192+150937392+150605104+150603344
2175.95+150820768+150890384+150701424+150501552+150468192+150471504+150267744
2171.45+149756768+149089696+148578496+148432928+148565264+148719200+148745520
2166.95+148685488+148684720+148860096+149137456+149236272+148935536+148346800
2162.45+147789344+147468496+147322208+147096240+146579504+145877712+145375008
2157.95+145260160+145255104+145012336+144609840+144390112+144484320+144718240
2153.45+144900032+145014496+145171584+145409664+145565616+145425040+145032576
2148.95+144658304+144419888+144195872+143955760+143855552+143910224+143910032
2144.46+143753984+143568944+143424384+143208048+142875984+142578384+142443024
2139.96+142391680+142286272+142125232+142013408+141996880+142005440+141924352
2135.46+141687888+141313008+140905152+140611232+140479648+140371184+140122224
2130.96+139803888+139673696+139817488+139991216+139938176+139745216+139755504
2126.46+140142816+140660032+140852096+140499088+139801376+139158016+138820160
2121.96+138763840+138798208+138738384+138522368+138238768+138042208+138025520
2117.46+138140688+138202656+138066112+137851696+137871504+138156224+138275280
2112.96+137881808+137262528+136973616+137109328+137292448+137244864+136998272
2108.46+136649984+136283888+136047072+136018160+136072112+136030752+135852400
2103.96+135578944+135273904+135075968+135123712+135320272+135361600+135105280
2099.46+134776384+134686768+134805312+134774256+134405856+133978720+133860592
2094.96+133992088+134042328+133957968+133957376+134052224+134008384+133792112
2090.46+133644912+133668768+133695920+133622224+133527784+133458536+133369712
2085.96+133315800+133412368+133603800+133697472+133647816+133556080+133387184
2081.46+132976264+132369984+131924904+131890408+132101320+132193392+131995264
2076.96+131620776+131290528+131144616+131143448+131144800+131125616+131216904
2072.46+131426392+131516896+131351000+131137632+131140736+131306816+131405848
2067.96+131390368+131395592+131455264+131426968+131194600+130818872+130426696
2063.46+130076048+129817048+129738792+129786832+129666928+129249336+128907528
2058.96+129072152+129577632+129917200+129968928+129985000+130000696+129831968
2054.46+129519328+129301056+129220688+129153480+129062456+128972800+128841696
2049.96+128653672+128479008+128359160+128327208+128500712+128921672+129382592
2045.46+129572592+129336696+128719320+127962672+127503112+127703640+128423248
2040.96+129041344+129071560+128670520+128387240+128436616+128437376+128012808
2036.46+127411168+127129368+127126064+126955392+126565056+126347360+126436952
2031.96+126560992+126591368+126664904+126774040+126787008+126829776+127140384
2027.46+127569320+127715664+127511440+127305088+127380200+127681008+127971944
2022.96+128029840+127734824+127196128+126760496+126721016+126987128+127209296
2018.46+127217240+127183928+127319048+127542016+127568352+127196328+126454760
2013.96+125593048+124992264+124958808+125473096+126160072+126610144+126720632
2009.46+126669352+126621168+126582080+126551888+126617896+126767648+126778880
2004.96+126521512+126240168+126265520+126537584+126717928+126707272+126740376
2000.46+126970472+127253224+127382528+127310720+127068608+126706912+126394968
1995.96+126384512+126699544+127025624+127147752+127396848+128285016+129634000
1991.46+130465456+130040216+128755912+127696104+127454520+127693776+127796176
1986.96+127638408+127585952+127880776+128320248+128547560+128443584+128145424
1982.46+127907288+128002936+128464864+128866296+128695880+128046296+127546080
1977.96+127535048+127757856+127943112+128190144+128586680+128924184+129019472
1973.46+128982280+128972408+128936776+128767344+128521416+128349688+128363056
1968.96+128645144+129247216+130010760+130532488+130529776+130210496+130034384
1964.46+130145008+130287424+130263760+130140744+130009984+129868000+129774440
1959.97+129849976+130095232+130440080+130900440+131441112+131822168+131829920
1955.47+131525824+131102176+130674704+130344368+130233152+130322856+130472232
1950.97+130609224+130759192+130915560+131071360+131253136+131381624+131326200
1946.47+131201384+131292096+131659368+132213544+133160872+134706736+136277072
1941.97+136756176+135766624+134114688+132822112+132302528+132444816+132874856
1937.47+133093008+132880856+132610976+132779648+133333264+133819656+134010520
1932.97+134026992+134010136+133995592+133983168+133931976+133820248+133765344
1928.47+133905784+134189168+134473952+134722464+134935696+135106640+135442128
1923.97+136290672+137522144+138345232+138115456+137062928+136000112+135711888
1919.47+136776368+139254192+142081088+143405504+142264688+139601408+137197104
1914.97+136085888+136188576+136840624+137360000+137483888+137554384+138035216
1910.47+138800528+139248736+139120704+138807360+138763648+138952464+138980256
1905.97+138614432+138088064+137878704+138184016+138708064+139052512+139167728
1901.47+139242912+139335024+139334432+139214736+139124784+139245056+139675056
1896.97+140442912+141486640+142520816+143045824+142772320+142044912+141455168
1892.47+141109088+140844512+141098384+142639264+145106192+146765904+146401136
1887.97+144703264+143195024+142547264+142538320+142899120+143438592+143802048
1883.47+143775376+143636464+143739792+143986896+144095488+144104432+144226256
1878.97+144457648+144718064+145147648+145880240+146717600+147337584+147626672
1874.47+147626288+147427200+147244288+147293360+147669328+148705360+151108416
1869.97+154957072+158741856+160363264+159264304+156775056+154379312+152500496
1865.47+150922560+149618912+148924032+149139024+150122304+151321408+152169600
1860.97+152411936+152141712+151719136+151531104+151606384+151636048+151560160
1856.47+151786256+152568800+153528576+154076496+154049568+153783888+153739984
1851.97+154050944+154389072+154431824+154387120+154779184+155823232+157206288
1847.47+158206384+158333664+158728944+162148960+169609392+177134112+178639952
1842.97+173119520+165511776+160278784+157911248+157120304+157206496+157837744
1838.47+158549280+159108272+159515584+159741488+159884448+160084944+160166096
1833.97+159982640+159796032+159823632+160329440+162408896+166957552+172299392
1829.47+174876368+173231872+169407104+166196464+165218080+166953616+170186432
1824.97+171977760+170471568+167145360+164633728+163710464+163678544+164039472
1820.47+164492480+164550080+164167536+163896112+163964272+164011072+163802512
1815.97+163562032+163629184+164173440+165055488+165871360+166462224+167251040
1811.47+168629728+170178384+170967728+170591696+169597984+168863936+168725056
1806.97+168830976+168836272+168821152+168901392+169048112+169604480+171101216
1802.47+173133472+174456416+174711504+174870464+175420800+175440448+174144016
1797.97+172260304+171219392+171592768+172533072+172727696+172446464+174263664
1793.47+180256208+188349664+193244752+192095792+187130688+181804176+177475952
1788.97+174351488+172791312+172642864+173131504+174166384+176279328+178832432
1784.47+179883776+178512464+176041392+174545840+175129504+177414768+179745792
1779.97+180302688+178901888+177141760+176425584+176850112+178046000+179539120
1775.48+180349744+180470416+182672128+190026640+200951072+208866032+208600608
1770.98+201411056+192517936+186752112+186414784+189945680+192569904+190857776
1766.48+186315360+182524752+180635008+179676896+179726496+182418560+188269728
1761.98+194678112+197430816+194828224+189560416+185616592+184686112+186290096
1757.48+189471968+192583728+193129296+190432912+186971888+185182960+185378576
1752.98+188099600+194949456+204597296+211188880+210728224+206325120+203255920
1748.48+202657840+202442112+201230496+199316128+197454576+196406592+196812912
1743.98+198568304+200473904+200991088+200127744+200560864+205144368+212382672
1739.48+216374672+213608976+207298832+202454400+200999408+203873184+213510480
1734.98+230277792+247575104+254693760+247349600+232032128+218426928+211624944
1730.48+210783888+211885472+211775280+210314544+208943488+208397760+208431936
1725.98+208762928+209427168+210527664+212064048+213841200+215458480+216572672
1721.48+217285392+218358560+221296848+228135168+240129648+255247856+266962320
1716.98+268784992+261973440+254298608+250678576+249256480+246383824+242233360
1712.48+239458048+239146064+240567184+242880640+245260752+247029776+249029840
1707.98+253209552+260077968+267961424+274954720+280316320+283998016+286042688
1703.48+286781472+288122176+294938304+312848352+341190496+367306880+374866400
1698.98+363178112+347445984+342037632+352513504+375275456+397398656+404263776
1694.48+395397056+383776928+379490336+382858944+389794432+398248096+408139200
1689.98+418391936+427387744+434821760+440955584+446051104+452691360+466342240
1685.48+490212416+518499840+537438720+538868288+528588576+517320992+511458336
1680.98+512267008+517758464+524556032+530345824+535209056+540552384+548226816
1676.48+560451968+577300992+593121664+599911872+597325248+593726912+596078464
1671.98+604152320+614338816+625387328+637948160+650223872+657780800+658704064
1667.48+656443840+656047488+659524672+665692800+673423232+683613696+697211776
1662.98+712025344+723209216+728158912+729570240+732024704+737261504+744024320
1658.48+750881216+757276352+762777984+767617856+773785280+784264768+801486272
1653.98+825829568+851812480+865145856+853717120+824114880+793980928+774429824
1649.48+766526976+766309504+769676928+774525760+780277696+785277696+784941888
1644.98+775714048+760986688+748255808+741004160+736962368+733382464+730198656
1640.48+727431040+723896960+719647168+716020224+713274752+711665792+713344576
1635.98+718221376+718782208+706021248+681338368+654323904+631804736+614742848
1631.48+601248320+589081984+576957248+565320704+555157120+545807488+535298880
1626.98+522743424+509181408+496737664+487893984+483821632+481956448+476907584
1622.48+465816320+451301376+437957952+427996256+420591648+414367584+410622432
1617.98+413240672+423171264+432637024+429800000+413258272+393612032+379804512
1613.48+372386720+367760320+363769600+360361920+357779136+355990528+354562208
1608.98+352573216+349601952+346352960+343404384+340474816+337699680+336077184
1604.48+335766112+335485088+334310464+332667136+331142880+329713760+328350464
1599.98+327209920+326261952+325557920+325419712+325778016+326038944+326015232
1595.48+326128896+326497792+326766208+326906336+327306240+328128800+329146016
1590.99+329994432+330359232+330330112+330556512+331561120+333174912+335014816
1586.49+336910272+338587968+339742048+340562016+341439680+342461696+343808320
1581.99+345854496+348352736+350704160+353061760+355681248+358312512+362726816
1577.49+373701280+392878304+411577472+416238240+405381952+391059712+383247616
1572.99+382553696+384975232+388771136+395737376+406721088+417671648+422181344
1568.49+418819360+412855424+409987456+411805248+416878560+422909504+427527136
1563.99+429435520+429520832+430266720+435034752+447651232+469632288+496357440
1559.49+518991104+532227008+535398368+527417248+509996032+492800064+486553856
1554.99+492969088+503523104+508177184+505209696+500390144+499382816+503585376
1550.49+510483360+516068000+517771136+515957024+513056320+511872608+514394560
1545.99+520598272+527343488+530105056+528316704+527211936+531472256+539056256
1541.49+544588480+548047168+553729856+559928576+556824128+539263424+514812288
1536.99+493994560+481058496+475234976+475105120+479229536+483757856+483148192
1532.49+475530656+464737536+455244512+448155616+442980640+440002656+438935552
1527.99+437820096+435681888+434239456+434606208+434304000+430207808+423565664
1523.49+419549440+422203456+430759040+439545184+441079936+431519456+414541440
1518.99+398964096+391926432+393299616+395996160+393424672+385744128+376703200
1514.49+368501952+362223808+358880512+357326912+354306400+348821952+343601024
1509.99+341094528+341438048+344859552+352742144+364652128+375546016+377529184
1505.49+366018432+344412960+321379232+304003168+294242528+289936704+287648384
1500.99+285585952+284846432+286999456+290360864+291296128+290251968+291735968
1496.49+296112128+296469312+287834624+274748128+264458368+258899472+256506096
1491.99+257078288+261301952+267232336+270513344+268730752+263890080+259780224
1487.49+257803360+256077840+252523040+247851936+244339232+242717152+241880528
1482.99+241102544+240831104+241189232+241274176+240540720+239630768+239316416
1478.49+239898688+242049200+246399328+251434608+254094800+254254240+256112704
1473.99+263086976+273335296+281407328+283026720+277554848+267769856+258422416
1469.49+253068688+251455152+250929712+250188112+250501792+253776672+260250448
1464.99+267047504+269330912+265288528+258799312+254616736+253498768+254042576
1460.49+256434272+261598544+269205088+279437824+293703520+309600064+317986240
1455.99+311821600+295981760+281027328+272439712+269288192+268513632+268079664
1451.49+267203184+265777200+264518048+264844304+267462112+270883776+272242816
1446.99+270222176+266432400+263357872+261869760+261221536+260652016+260225200
1442.49+260217120+260461904+260669392+260801296+260652224+260129872+261024960
1437.99+266780336+277793728+287289344+286319488+274847808+261725472+253839216
1433.49+251030816+250053216+249520128+250114416+252247600+254991584+256443744
1428.99+255164592+251968784+249325920+248464752+248558336+249116000+250977824
1424.49+254087552+256504304+256691488+255082320+253400016+254433088+261275072
1419.99+273419072+283849248+284739552+276920192+267945808+262555520+260157328
1415.49+259066832+259030688+259962608+261207984+262424336+263595888+264410448
1410.99+264648896+264752880+265288720+266315456+267560112+268777536+270005120
1406.50+271767584+274555968+277736672+279685792+279608384+278469792+277536160
1402.00+277007520+276838784+277891040+280903456+284624128+286335808+284680736
1397.50+281066944+278179680+277966368+280505760+283517312+283559456+279278688
1393.00+273006112+268000272+265231280+263597696+262055680+260767344+260843120
1388.50+263143984+266517392+267625088+264200112+258038080+252867184+250275456
1384.00+249227072+248410464+247426848+246237856+244828400+243328176+241888368
1379.50+240688416+240002416+239775472+239391824+238485664+237677648+237943344
1375.00+239438752+241157536+241608240+240094544+237582800+235824912+235470864
1370.50+235696272+235687264+235455184+235103136+234466864+233676896+233017536
1366.00+232288560+231441904+231535568+233622432+236800880+238715152+238226960
1361.50+236413616+234807232+233859776+233326240+233078544+233007872+232785648
1357.00+232308160+232070576+232609456+233710192+234587488+234787616+234520192
1352.50+234144176+233800896+233649280+233990928+234871952+235823120+236287920
1348.00+236237008+236126384+236350272+236934368+237752256+238780736+239946672
1343.50+240916640+241403440+241703808+242578752+244401936+246643040+248367584
1339.00+249090640+249072704+248941888+249107360+249409648+249447664+249349056
1334.50+249909488+251625344+253935968+255858976+257099440+258122240+259397552
1330.00+261006960+262772992+264423584+265730608+266647568+267231744+267513536
1325.50+267590672+267694528+267949040+268271616+268623200+269074848+269537568
1321.00+269810848+269929952+270098944+270288608+270285984+270112736+270004320
1316.50+270043840+270116160+270168864+270334400+270808416+271623264+272459392
1312.00+272778592+272364672+271630336+271213152+271382208+271964224+272661792
1307.50+273240576+273560864+273551520+273233472+272832128+272834336+273599808
1303.00+274783872+275510848+275354944+274832768+274688288+275083200+275750336
1298.50+276536864+277362752+277967392+278144736+278099424+278274368+278844896
1294.00+279523200+279846144+279662208+279378912+279588640+280379744+281266816
1289.50+281908288+282506304+283272512+283960960+284227200+284070688+283698240
1285.00+283278816+283009632+283085312+283489440+284041376+284581984+284933184
1280.50+284880032+284450912+283981536+283761120+283852864+284266432+284919936
1276.00+285478432+285642560+285519168+285403456+285388224+285449696+285641536
1271.50+285938848+286176288+286275296+286255136+286067136+285766560+285733376
1267.00+286332736+287433824+288613792+289657984+290630912+291557248+292255296
1262.50+292533856+292550976+292881472+293954624+295508800+296929504+297977312
1258.00+298744064+299152256+299038336+298551872+298000448+297498144+297067104
1253.50+296756800+296419648+295724160+294609504+293399712+292348768+291349760
1249.00+290161024+288801312+287667360+287218464+287405920+287593376+287277952
1244.50+286647040+286195680+286030496+285852096+285405888+284729184+284096736
1240.00+283774720+283693952+283467264+282891808+282247744+281909088+281850304
1235.50+281704896+281161696+280218144+279155936+278315200+277822976+277508160
1231.00+277035328+276135264+274842112+273523552+272513920+271710400+270754944
1226.50+269507968+268099312+266654016+265275792+264132544+263352448+262913696
1222.01+262668688+262333968+261563376+260286560+258823536+257496768+256328752
1217.51+255249712+254288336+253501184+252951408+252680000+252514160+252171472
1213.01+251716208+251497040+251543792+251557696+251499488+251602400+251839472
1208.51+251983312+252055216+252225248+252478096+252825680+253467536+254427040
1204.01+255434208+256414272+257612640+259089248+260542896+261763680+262906640
1199.51+264261376+265988224+267999712+269966656+271633376+273186400+275025952
1195.01+277145024+279100480+280709504+282377920+284548160+287136352+289731808
1190.51+292122464+294381376+296650528+299101920+301951168+305209056+308508768
1186.01+311419552+313894304+316235712+318740032+321494784+324424352+327475744
1181.51+330774240+334521248+338596032+342423136+345495104+348011616+350716448
1177.01+354073664+357848736+361688096+365758016+370365824+375186592+379477952
1172.51+383053504+386406176+389950496+393772896+397997248+402650016+407345920
1168.01+411795872+416245664+420807232+425006080+428668160+432483072+437002848
1163.51+441890240+446680832+451433216+456252480+461055328+465995008+471257824
1159.01+476494144+481277952+485867968+490729056+495760064+500741984+505962656
1154.51+511688256+517545568+523072096+528392864+533978752+540098752+546798272
1150.01+554011264+561472768+568724608+575408896+581582336+587726848+594352640
1145.51+601528128+608963904+616501824+624181120+631838848+639153536+646217280
1141.01+653585728+661534976+669660544+677406784+684710080+691922496+699315456
1136.51+706872896+714501952+722242304+730062016+737559936+744257600+750297344
1132.01+756495872+763521664+771314752+779419584+787474752+795279744+802734976
1127.51+809868352+816698560+823116672+829081216+834754048+840323072+846013824
1123.01+852160256+858731776+864979072+870358528+875545792+881488512+887762816
1118.51+893072064+897192320+901162560+905681344+910434048+914905024+918940864
1114.01+922615424+926154240+929821824+933582400+937216768+940905600+945094656
1109.51+949688512+953916480+957127360+959411136+961496960+964240960+967955520
1105.01+972091712+975820032+978957248+982006720+985393664+989053056+992715712
1100.51+996196800+999401024+1002349888+1005217472+1008222208+1011458816
1096.65+1014817600+1018067776+1021006720+1023540160+1025598336+1027142528
1092.80+1028445056+1030097472+1032451840+1035220736+1037883072+1040209088
1088.94+1042106304+1043401920+1044278080+1045469504+1047436672+1049655744
1085.08+1051329792+1052456256+1053616960+1055035776+1056476480+1057785792
1081.23+1059014848+1060153728+1061083968+1061704384+1062030848+1062362304
1077.37+1063181632+1064560192+1065923840+1066789120+1067417792+1068277440
1073.51+1069195136+1069529664+1069119296+1068712768+1069329280+1071113408
1069.66+1072999744+1073741824+1073082560+1071575616+1069585984+1067016896
1065.80+1063668672+1059259776+1053454912+1046293824+1038192832+1029281472
1061.94+1019264064+1008117504+996339392+984366528+972223040+959833408+947394816
1057.44+935300480+923652800+912010048+900009984+888132032+877108288+866718016
1052.94+856134336+845259520+834570112+823952320+812965632+801848640+791051200
1048.44+780311104+769178496+757823296+746609088+735754944+725767616+717013952
1043.94+708567040+698745536+687160000+675277376+664818176+656202752+648489088
1039.44+640392576+631470528+622401984+614024768+606451264+599247296+591875008
1034.94+583769216+574805120+565828608+558044736+551775104+546320448+540739136
1030.44+534368256+527202848+520197120+514497344+510128864+506132736+501928480
1025.94+497645792+493372224+489081632+485151296+482069024+479756576+477687648
1021.44+475468992+473075392+470774848+468938336+467724640+467094112+467231808
1016.94+468415104+470297504+472012704+473280640+474784512+477238464+480601760
1012.45+484422816+488409472+492410240+496228000+499836480+503702144+508531712
1007.95+514509888+520998784+527260960+533275392+539491584+546014912+552578432
1003.45+559196160+566306304+574161280+582366848+590162944+597186624+603922048
998.95+611153344+618897728+626318784+632868288+638955200+645236672+651798848
994.45+658327680+664572928+670432960+675911808+681120320+686090048+690735360
989.95+695055360+699049408+702462272+705109952+707393664+709830464+712245248
985.45+714082560+715324736+716439616+717630016+718677440+719294016+719292160
980.95+718675968+717698048+716516864+714889664+712600000+709935680+707263808
976.45+704409088+700960320+696994624+693038720+689413120+685860608+681808192
971.95+676940608+671462912+665750144+659898432+653828800+647651200+641606912
967.45+635771712+630068608+624400128+618645504+612726336+606719616+600678144
962.95+594419840+587785152+580955008+574302464+568091776+562420032+557204032
958.45+552165632+547125696+542219712+537530752+532764768+527635008+522316224
953.95+517199872+512473120+508159648+504277056+500736352+497303168+493799360
949.45+490188704+486475872+482688480+478932160+475320064+471870016+468558272
944.95+465449184+462708704+460487776+458788832+457415776+456049696+454452256
940.45+452702912+451099328+449701440+448152832+446229920+444296384+442806304
935.95+441641504+440477760+439463264+438900192+438616640+438302240+438102304
931.45+438127968+437739872+436068896+433149152+429964448+427483392+425953888
926.95+425021216+424202720+423294080+422387520+421500384+420332288+418584480
922.45+416430400+414434656+412972320+411855424+410635392+409256832+408221120
917.95+407923424+408007424+407769632+407084000+406378368+405707648+404536256
913.45+402685920+400884480+399954048+399887744+400033056+399830464+399105152
908.95+397984800+396822080+395981216+395540544+395273056+394914304+394446976
904.45+394162336+394358816+394928608+395463712+395849984+396320672+396898688
899.95+397415136+398105152+399352896+400892768+402148768+403246912+404784640
895.45+406877376+409193504+411423328+413109984+413842336+414095744+414873344
890.95+416236992+417428256+418442528+420048992+422304320+424419040+425963232
886.45+427102176+428022848+428958112+430290784+432079232+434023712+436056448
881.95+438279776+440494368+442483968+444412768+446375072+448059488+449258528
877.45+450088672+450569408+450684704+450885888+451790624+453365344+454896896
872.95+455732672+455866688+455915232+456402016+457031680+457103328+456663584
868.45+456481536+456836384+457223840+457252448+457003904+456622144+456274240
863.95+456177600+456125376+455495072+454146432+452651616+451428768+450344640
859.45+449158080+447682432+445760608+443694112+442257248+441799232+441763936
854.95+441364224+440181536+438085568+435368416+432811392+430777984+428516352
850.45+425311424+422058592+420416864+420252512+419420608+416596672+412838304
845.95+409399648+405786144+401597920+398275136+396911744+396365792+395699808
841.45+396273824+398967040+401612288+401674432+399164704+395042720+389475456
836.95+383626912+380233568+379923296+379366944+375555840+369980832+366347296
832.45+365760160+366374016+366600608+366189952+364986944+363122592+361971072
827.96+362539776+363199648+361386176+357487424+354598880+354273280+354929280
823.46+354809120+354189600+353851808+353280480+351503584+348709120+346172928
818.96+345139104+346052512+348170144+349668640+348994400+346724448+345359968
814.46+346487680+348785152+349717696+348554080+346506816+344599296+343093056
809.96+342591744+343709184+345598272+346639712+346759936+347208736+348139584
805.46+348625184+349171488+351542048+355521312+358364000+358321888+356617728
800.96+355379456+355732032
##END=
