##TITLE=octarelline 6 front
##JCAMP-DX=4.24
##DATA TYPE=INFRARED SPECTRUM
##DATE=31/1/2005
##TIME=17:2:37
##SAMPLING PROCEDURE=film
##ORIGIN=Vincent
##DATA PROCESSING=no operation
##XUNITS=1/CM
##YUNITS=ABSORBANCE
##RESOLUTION=2
##FIRSTX=4000.283
##LASTX=800.31372
##DELTAX=-0.64282227
##MAXY=0.23623395
##MINY=-0.0033344296
##XFACTOR=1
##YFACTOR=2.2001001e-010
##NPOINTS=4979
##FIRSTY=0.0073308749
##XYDATA=(X++(Y..Y))
4000.28+33320643+33802460+33712572+33145230+32429728+31946336+31886192+32051810
3995.14+32022510+31629122+31168758+31018514+31156568+31235336+31077320+30865292
3990.00+30882740+31281716+32017370+32758318+33017328+32693002+32305580+32360240
3984.86+32710350+32878550+32676854+32200334+31587634+31104208+31027118+31189556
3979.71+31097518+30644324+30242494+30141898+30152410+30151216+30353606+30907120
3974.57+31601746+32140062+32442292+32568002+32540844+32367534+32115786+31905322
3969.43+31866222+32087686+32508434+32848638+32798990+32324956+31700856+31274662
3964.28+31256136+31578792+31858092+31735176+31350214+31171268+31293312+31391214
3959.14+31395758+31581060+31922302+32053244+31962122+32017370+32238490+32205002
3954.00+31786828+31412136+31488768+31855578+31914768+31270122+30241298+29547150
3948.86+29373266+29157602+28564348+28113046+28422182+29270208+29881710+29806576
3943.71+29224472+28650418+28584880+29205248+30210234+31074450+31486618+31500364
3938.57+31373882+31364436+31580462+31901500+32075726+31946458+31510764+30753190
3933.43+29642700+28449276+27815780+28153390+29100886+29927938+30379890+30798844
3928.29+31485662+32232628+32484870+31878298+30638710+29414708+28686710+28545846
3923.14+28980886+29821150+30394828+30039516+29097660+28614008+28881668+29084166
3918.00+28524118+27504720+26893234+27243688+28378970+29655718+30682208+31589190
3912.86+32434394+32872808+32737024+32326870+31873036+31408192+31191828+31391336
3907.72+31500006+30901268+29527328+27290930+23939172+20251546+17953908+17522124
3902.57+17723344+17932656+18861832+20470044+21396846+21206908+21314188+22979628
3897.43+25785032+28496784+30273316+30878794+30671930+30407614+30335924+29556704
3892.29+27061536+23590852+21652942+22964508+26472010+29794990+31679338+31811456
3887.15+29457818+24450028+19217634+17461466+20122810+24607874+28216884+30161488
3882.00+30342376+28519822+25498722+23544176+24371288+27352724+30591388+33034318
3876.86+34627656+35026072+33456464+30084914+26678320+25311488+26450544+28311172
3871.72+28027958+23919400+17345140+12288028+12188817+16942442+23421178+28220224
3866.58+29412080+27002492+23010220+20573712+21481890+24403214+26567410+27067856
3861.43+27428122+29021960+31323558+33089952+33751596+33292164+32174506+31129068
3856.29+29128704+22534958+9326759-5997328-15155808-15088554-9697995-2376909
3851.15+6760198+16793040+24899180+29631476+31945980+33159706+33951360+34770752
3846.01+35465656+34995052+32775544+29873948+28056600+27898718+28285390+27887502
3840.86+26780166+25737230+23858424+18967912+11696033+7017354+8873927+14866057
3835.72+19861328+22456892+24720938+27556500+29337204+28772188+26940348+26149358
3830.58+27581912+30355518+32695992+33568956+32996752+31500482+29987908+29617500
3825.44+30763828+32447314+33379160+32771956+29808008+23978828+16949088+12439458
3820.29+12795525+16924878+22298264+26625966+27313594+22553880+14495868+9194007
3815.15+10997494+18145910+25775138+30988988+33713296+34863560+35175064+35173992
3810.01+35220696+35043436+33270388+28459182+21619160+16855102+17563790+22425116
3804.86+27366086+30095304+30221466+26798654+19224884+10514589+6493043+9955528
3799.72+17757890+24935758+29060644+30251094+29552526+28386730+28206022+29465224
3794.58+31324870+32798274+33673792+34174732+34424828+34522048+34595924+34569824
3789.44+34260804+33742136+33299464+33154922+33395314+33819452+33830824+33058126
3784.29+32067594+31788742+32331296+32996752+33119744+32308212+30489702+28396516
3779.15+27342466+27926878+29572116+31488170+33191896+34207652+34291100+33885168
3774.01+33657044+33807368+34123616+34011808+32437626+28967992+25078390+23279620
3768.87+24500540+27174022+29008586+28935394+27591338+26564312+26985436+28596698
3763.72+30353128+31635458+32401982+32458436+31265938+28725868+25938216+24597034
3758.58+25164904+26273714+26647908+26791978+27854564+29648910+30537376+28344356
3753.44+21442044+11023760+2344789+824+1521435+848498-2415454-2513929+3798952
3747.65+13017580+19654542+19939888+11919742-2310864-14193718-14532453-3872563
3742.51+9050744+17968986+22629810+25013924+26296964+26668420+25627688+22504968
3737.37+17676450+12767814+9316002+8081161+9389294+12476872+14832626+14330176
3732.23+12165496+11981532+15570711+21027568+25565230+28203874+29286092+29027810
3727.08+27560080+25642468+24444192+24600250+25657486+26402490+25896732+24514596
3721.94+23734696+24537588+26286472+27614488+27971632+27849312+27930816+28495828
3716.80+29325380+29848742+29680802+28939454+27454372+24089830+18266320+12145962
3711.66+9385630+10874922+13814227+15817630+17505622+20334638+24010268+27205990
3706.51+29312722+30451822+30835532+30739330+30301154+29098496+26711472+23855686
3701.37+22202594+22807864+25125102+27680830+29391778+30166864+30498900+30746740
3696.23+30874376+30655796+29989342+29142198+28485326+27610670+25359516+21655202
3691.09+18342798+16484538+13977151+8622084+2826642+2102729+8208403+17019582
3685.94+23810076+27253350+28370852+28393414+28227268+28451664+28999154+29230684
3680.80+28545250+26961342+25317328+24634800+24588576+22827742+16934372+7540977
3675.66-909993-3397864+1369545+10262182+18435550+21863386+18999514+12000590
3670.52+5819116+4252743+7033530+11814749+17194162+22443442+26437432+28559334
3665.37+29462836+29968436+30194940+30201750+30329352+30675394+31060824+31353200
3660.23+31305266+30719252+29918146+28928470+26545828+22028758+17475830+16324257
3655.09+19324566+24010866+27734284+29184110+27832608+23828176+18115630+11860085
3649.94+6287182+3053236+3267953+6051719+9600092+13377188+17890744+22938442
3644.80+27448408+30576452+32108614+32299242+31849364+31531088+31576042+31762314
3639.66+31938324+32054562+32033750+32032198+32408204+33127878+33602108+33323158
3634.52+32345172+31218724+30709932+31238920+32058028+31159314+26614396+18521654
3629.37+9886350+5129730+6709078+13073602+20449832+26126702+29623232+31679338
3624.23+33075712+34180956+34941644+35039724+34107332+31879254+28497022+24933732
3619.09+22674204+22559236+24227992+26783628+29368730+31215134+31963438+31873036
3613.95+31189196+29859134+28542860+28745446+30634286+31905082+30425776+27138116
3608.80+24991998+25535430+27834996+30361730+32545392+34562516+36475276+37873612
3603.66+38295956+37862216+37223660+36856804+36735972+36660220+36509312+36299940
3598.52+36277652+36680472+37211908+37253876+36779480+36434048+36632052+37204836
3593.38+37970764+38977700+40186036+41280608+41658140+40558556+37822160+34567428
3588.23+32359640+31655662+31886312+32875200+34944272+37735208+40135368+41511664
3583.09+42202576+42741024+43209992+43501896+43744272+44197352+44818196+45207356
3577.95+45129588+44901968+45009692+45480160+45935812+46171984+46357956+46693932
3572.81+47101900+47334840+47306640+47165524+46929840+46190168+44475320+41931420
3567.66+39393564+37796848+37688556+39099032+41523200+44114568+46191736+47586012
3562.52+48481860+49060508+49345548+49337100+49261828+49536284+50263444+51001740
3557.38+51336448+51460840+51798644+52323412+52626212+52412576+51670976+50700160
3552.24+50145652+50584272+51818336+52983552+53467648+53357040+52971228+52433844
3547.09+51861088+51599964+51956520+52812428+53760348+54607720+55489464+56484800
3541.95+57448784+58240060+58778176+58901936+58621812+58413960+58728236+59324076
3536.81+59641652+59662024+59791056+60171296+60682276+61312812+62006684+62458516
3531.67+62496892+62321416+62156392+62053916+62080024+62212248+62102240+61523764
3526.52+60902024+60825576+61248364+61748828+62277940+62994752+63639876+63787776
3521.38+63601600+63740740+64527364+65642092+66576728+67023752+66925776+66533400
3516.24+66374484+66863576+67912656+69042448+69820472+70129496+70161928+70212152
3511.10+70353104+70365784+70147296+70014168+70336520+71063456+71866184+72515072
3505.95+72873472+72853576+72644096+72663136+73017904+73343912+73386896+73445152
3500.81+73980952+75028448+76140800+76850920+77086048+77159456+77350944+77574744
3495.67+77578176+77440256+77651712+78560472+79846088+80739536+80824976+80467704
3490.52+80290384+80437920+80640640+80766512+80931736+81227552+81708336+82501552
3485.38+83499192+84171552+84111272+83608184+83322936+83551472+84093096+84674672
3480.24+85227536+85808200+86419288+86939080+87223984+87257568+87133840+86969696
3475.10+86911656+87095360+87438224+87646448+87632664+87737720+88331680+89360824
3469.95+90452960+91292088+91733168+91756456+91526600+91404592+91678320+92260272
3464.81+92752008+92845480+92592936+92287152+92188400+92414512+92922080+93484904
3459.67+93858240+94082200+94450712+95045328+95496032+95450584+95118920+95080272
3454.53+95567032+96163224+96309504+95950520+95544808+95548632+96058968+96815712
3449.38+97312408+97064600+96121360+95233248+95193496+96052192+97183992+98000640
3444.24+98380760+98576176+98890104+99353672+99701016+99738760+99596576+99489904
3439.10+99519856+99789136+100346000+100924080+101160984+101079624+100969528
3434.60+100956520+101090640+101517808+102094496+102261896+101815368+101317272
3430.10+101323096+101684784+101976536+102076032+102058696+101953744+101836912
3425.60+101848560+102016808+102228064+102308488+102136504+101833944+101758872
3421.10+102041344+102342192+102363880+102288904+102422248+102713120+102907840
3416.60+102866944+102531680+101906296+101201224+100755424+100794432+101352696
3412.10+102274296+103185024+103717192+103831904+103674896+103243168+102577896
3407.60+102124848+102372552+103167040+103807216+103829904+103369248+102837440
3403.10+102550392+102616696+102908344+103126880+103087336+102913048+102810040
3398.60+102700968+102322864+101687888+101220176+101261544+101573304+101542576
3394.10+100922832+100243376+100271856+101076272+101906176+102157440+102045808
3389.60+102032040+102044432+101793064+101414384+101194784+101019920+100666032
3385.10+100304768+100207232+100293640+100366800+100407536+100407032+100297344
3380.60+100180120+100275816+100625056+101096336+101529456+101716992+101545056
3376.10+101239872+101101784+101035528+100799632+100515112+100429320+100460880
3371.60+100487752+100667032+101011872+101156272+100939560+100706520+100714320
3367.10+100754936+100553360+100112536+99584072+99146312+98886752+98608456
3362.60+98088296+97628856+97819248+98593360+99134056+98861648+98032040+97282992
3357.46+97030120+97299920+97796000+98145680+98274408+98403024+98623912+98742040
3352.32+98598560+98320032+98207512+98472024+98997976+99327688+99068232+98341312
3347.18+97640232+97281888+97204624+97217608+97202408+97117992+96975992+96817440
3342.03+96723280+96835728+97199072+97557784+97575216+97292880+97029992+96879480
3336.89+96721424+96658912+96857728+97077088+96920376+96477272+96177928+96193000
3331.75+96428840+96831656+97222552+97183504+96581304+95917544+95793040+96229936
3326.61+96809896+97201664+97324768+97175208+96746144+96148656+95696200+95664856
3321.46+95910992+95928536+95495160+95015952+94991880+95405144+95853936+96015616
3316.32+95768336+95190896+94698808+94855216+95824040+97214264+98492800+99261992
3311.18+99192336+98182280+96722784+95702760+95650520+96364480+97334904+98272048
3306.03+99126632+99792840+99964504+99342040+98038344+96744784+96270456+96781480
3300.89+97671144+98253136+98356032+98137264+97669416+96996136+96370648+96066384
3295.75+96022280+95952992+95767224+95675336+95908776+96501608+97275696+97883296
3290.61+97927560+97307216+96449480+95983624+96081200+96307032+96193496+95754136
3285.46+95303880+95002248+94791504+94626360+94511200+94391464+94192896+93950416
3280.32+93789144+93756320+93711288+93396832+92706872+91883920+91307240+91034928
3275.18+90717192+90083608+89304072+88719904+88432320+88349512+88392088+88385568
3270.04+87973784+87023304+86016992+85617984+85832784+85990704+85617008+84893048
3264.89+84192184+83616904+83171248+82951840+82879432+82569032+81753712+80678752
3259.75+79870968+79582336+79551832+79294360+78631368+77879720+77461304+77393888
3254.61+77316432+76928832+76235688+75418336+74668424+74087960+73673528+73424512
3249.47+73418040+73646912+73856000+73776000+73439536+73047088+72630176+72122816
3244.32+71655960+71460264+71503320+71484904+71178112+70596232+69862888+69136520
3239.18+68629192+68448784+68399328+68161216+67696512+67284512+67126136+67129424
3234.04+67093996+66894732+66478276+65950588+65625304+65708388+65955572+65899368
3228.90+65437148+64969552+64931128+65258856+65403948+64917760+63986100+63227628
3223.75+62984792+63049420+63060344+62845464+62404724+61894992+61558368+61423872
3218.61+61293032+61223248+61583732+62341936+62806960+62455236+61589800+60927500
3213.47+60879208+61341824+61766544+61522556+60601228+59775900+59688468+60087360
3208.33+60325960+60190700+59883232+59573380+59325892+59151068+58932240+58556972
3203.18+58172436+58052964+58225032+58456380+58550424+58497700+58374088+58195948
3198.04+57875696+57348120+56760504+56408040+56403560+56510952+56389880+55947792
3192.90+55433192+55192640+55317508+55566912+55726656+55915472+56329104+56775636
3187.76+56762320+56048016+54937116+54033132+53781748+54150544+54669412+54865744
3182.61+54699048+54438144+54207392+53941840+53723348+53801332+54195660+54560668
3177.47+54584012+54356508+54234844+54457976+54959740+55499992+55905300+56189768
3172.33+56405496+56441696+56140376+55613864+55266692+55380800+55811628+56158896
3167.19+56178144+55983980+55895620+56087232+56411552+56637724+56789564+57051508
3162.04+57425036+57724256+57901016+58081436+58248420+58163108+57662352+56869368
3156.90+56095344+55613748+55522740+55783668+56337216+57057804+57616552+57696148
3151.76+57432792+57295436+57362536+57185456+56542792+55847692+55535808+55491160
3146.61+55384668+55193728+55088348+55085084+55068504+54956352+54718888+54380936
3141.47+54062032+53845468+53604628+53197728+52774240+52626212+52688440+52560592
3136.33+52110420+51684748+51539208+51450688+51157736+50809052+50653436+50598756
3131.19+50422644+50218184+50266220+50555788+50711988+50422160+49816452+49312740
3126.04+49150128+49199224+49270276+49341208+49342656+49055684+48460156+47946184
3120.90+47904712+48318356+48871984+49240236+49227332+48884528+48493672+48238056
3115.76+48016460+47733296+47529356+47550932+47722204+47844676+47756560+47433784
3110.62+47090456+47014420+47183964+47323632+47352320+47359064+47180224+46565028
3105.47+45730612+45226616+45288976+45699184+46074192+46043720+45506528+44925312
3100.33+44902084+45375416+45751924+45793712+45764568+45820200+45869576+45900524
3095.19+45917268+45762760+45399376+45033528+44729484+44302876+43774468+43423948
3090.05+43298872+43233084+43363932+44008460+44976952+45586600+45470892+44932180
3084.90+44463884+44291804+44377960+44540424+44583504+44518760+44569788+44782324
3079.76+44872960+44665100+44411056+44400712+44522488+44550764+44572428+44756448
3074.62+44934104+44789668+44318160+43753412+43181012+42530272+41916036+41712460
3069.48+42156180+42982956+43606416+43767972+43808272+44081124+44317920+43975372
3064.33+43092980+42304148+42066156+42285272+42635344+42813048+42591460+42035024
3059.19+41592168+41632188+41979256+42196204+42169160+42092476+41988392+41618728
3054.05+40943032+40354632+40275136+40643824+41026044+41154700+41096916+40961412
3048.91+40753852+40546904+40443744+40345504+40087460+39787420+39715388+39872660
3043.76+40079292+40338064+40712892+40981592+40838412+40307320+39629916+38980224
3038.62+38571892+38699312+39291900+39765568+39706384+39432936+39510596+39942296
3033.48+40203088+39961504+39482268+39285304+39564852+40070764+40496704+40757808
3028.34+40800812+40512560+40040508+39845284+40141728+40613684+40946036+41213808
3023.19+41492316+41557804+41289024+40925376+40701480+40620048+40709644+41097640
3018.05+41726404+42282272+42456816+42173728+41659588+41343084+41433804+41637352
3012.91+41548556+41217900+41002616+41027724+41192312+41492436+41954976+42369300
3007.77+42404880+42002452+41527288+41486672+41992480+42528704+42479660+41881184
3002.62+41340088+41288664+41684100+42327588+43038392+43589580+43865412+44006652
2997.48+44180148+44385304+44625988+44977076+45336172+45443320+45284884+45206872
2992.34+45523024+46168852+46801516+47162516+47303868+47480304+47858788+48409152
2987.20+49020824+49567168+49928428+50155428+50466340+50884624+51135644+51146868
2982.05+51321960+51980796+52881552+53566296+53892140+54006528+54079440+54226860
2976.91+54479508+54777920+55152960+55792496+56766680+57847832+58731264+59304312
2971.77+59670876+60062736+60647820+61300076+61735112+61983008+62428396+63257396
2966.62+64184696+64889188+65379504+65792324+66108264+66218972+66106316+65920544
2961.48+65946212+66386164+67142320+67888176+68373256+68542456+68444272+68179360
2956.34+67844088+67412824+66810388+66152432+65687708+65451980+65237932+64935632
2951.20+64646140+64393644+64040068+63569400+63224100+63194460+63325060+63297728
2946.05+63078808+63037620+63516784+64348672+65007740+65210448+65155484+65161688
2940.91+65335228+65613144+65908624+66159596+66424852+66930892+67796472+68740288
2935.77+69287128+69267632+68943520+68642096+68447320+68312488+68317968+68610680
2930.63+69092160+69392784+69295784+68981640+68721784+68552208+68461448+68579976
2925.48+68898192+69103992+68972632+68612872+68156464+67593496+67027784+66632588
2920.34+66244284+65527996+64620004+64044680+63915000+63795180+63436964+63075780
2915.20+62906324+62741736+62358212+61822388+61311240+60825576+60199924+59381672
2910.06+58646420+58392628+58632476+58835748+58500972+57746788+57069912+56636632
2904.91+56168584+55493696+54787228+54212712+53737616+53446744+53621428+54252132
2899.77+54839004+54960832+54797032+54792920+55032088+55200020+55019388+54506360
2894.63+53865292+53230968+52547904+51753836+51058848+50840436+51207000+51867376
2889.49+52450156+52743180+52709952+52535460+52546700+52791520+52853996+52376940
2884.34+51589096+51037596+50992560+51342848+51857108+52341052+52687832+52928560
2879.20+53115660+53156632+52956964+52664272+52551772+52639376+52663664+52455952
2874.06+52189792+52150168+52344432+52473592+52261072+51694648+50946324+50218788
2868.92+49677204+49333364+48991148+48548424+48290384+48529252+49039036+49275824
2863.77+49118768+48893580+48694584+48274108+47667488+47320860+47406188+47502240
2858.63+47229640+46806696+46708388+47034300+47478980+47786336+47954256+48025260
2853.49+47927376+47642292+47390516+47459816+47813336+48046116+47815024+47182880
2848.35+46435288+45729768+45147768+44917248+45215180+45727360+45770112+45009092
2843.20+43835576+42899864+42458016+42303544+42151732+41928660+41766532+41824580
2838.06+42066276+42224688+42081292+41717624+41332276+40924296+40420680+40023700
2832.92+40063324+40473528+40759016+40582700+40132844+39817556+39806268+39928848
2827.78+39881304+39496548+38936300+38596364+38729428+39186280+39611664+39816832
2822.63+39895952+40046636+40338064+40656916+40838888+40828920+40673136+40433052
2817.49+40223140+40221576+40458032+40666888+40551832+40105228+39507236+38892260
2812.35+38413284+38324148+38737228+39374596+39774336+39680336+39221928+38801784
2807.20+38782584+39157476+39570496+39719468+39622712+39454540+39314344+39243652
2802.06+39252416+39285776+39305340+39400408+39675292+40088656+40496820+40733784
2796.92+40601068+40007252+39218808+38722352+38729548+39002664+39240288+39417328
2791.78+39669532+40029580+40379732+40580532+40561196+40350068+40096460+40028380
2786.63+40308160+40854504+41352456+41508776+41287580+40896308+40611524+40640704
2781.49+41016428+41557080+41988992+42152576+42055216+41790444+41509500+41419744
2776.35+41633148+42009544+42262560+42274456+42225896+42391060+42850564+43440792
2771.21+43945292+44225508+44237664+44068488+43958408+44123116+44490116+44785212
2766.06+44890164+44931336+45022088+45152696+45357600+45746508+46294000+46828504
2760.92+47269036+47699664+48160892+48561208+48856912+49133840+49445444+49732224
2755.78+50005300+50418296+50995096+51462528+51591028+51574964+51826428+52467068
2750.64+53262272+53969160+54506480+54843240+55005592+55192160+55683088+56536256
2745.49+57485728+58194128+58607148+59003648+59673784+60628288+61706696+62815948
2740.35+63867372+64664992+65121196+65494916+66148172+67143416+68275584+69382920
2735.21+70458080+71563472+72788016+74182400+75674704+77119568+78425304+79584664
2730.07+80665392+81831584+83245976+84888256+86576144+88185632+89741760+91336696
2724.92+93079696+95029288+97085984+99057224+100895344+102756496+104803152
2720.42+107074512+109512888+111992776+114395608+116780144+119342544+122099392
2715.92+124776368+127183144+129555424+132293624+135435680+138589552+141429920
2711.42+144087712+146954144+150196560+153618704+157003312+160430368+164128816
2706.92+168073648+171902352+175346240+178595920+182046112+185793472+189663360
2702.42+193636192+197825808+202038960+205882080+209377968+213004464+217054608
2697.93+221379392+225787872+230273104+234818240+239329888+243773056+248155968
2693.43+252486560+256851712+261336208+265823856+270131264+274314912+278572416
2688.93+282969952+287524000+292346656+297421280+302442400+307114240+311444704
2684.43+315646080+319969184+324596320+329416448+334020256+338215264+342361568
2679.93+346888832+351701440+356372832+360724672+364914784+369136000+373505184
2675.43+378126208+383016896+388003424+392866112+397582304+402288064+406983232
2670.93+411452160+415560736+419487200+423520960+427795392+432346112+437237920
2666.43+442382848+447384608+451821216+455690432+459446592+463596992+468277088
2661.93+473188416+477927872+482336896+486494240+490509472+494476096+498557760
2657.43+502940544+507681184+512639168+517523616+522062560+526253088+530378432
2652.93+534679328+539108160+543518208+547895296+552309696+556806464+561376256
2648.43+565897408+570206656+574380544+578715456+583251328+587657664+591787776
2643.93+595939776+600363840+604912000+609350400+613664896+617957632+622308864
2639.43+626757696+631228160+635586816+639863104+644222592+648701760+653195392
2634.93+657666240+662131904+666559872+670945472+675326272+679647040+683870144
2630.43+688161408+692644992+697115712+701370816+705563072+709846400+714025344
2625.93+717943168+721822528+725867648+729952640+733964992+738032640+742215296
2621.43+746361472+750403136+754482304+758724800+763127744+767596288+771922944
2616.93+775873152+779489600+783136384+787084480+791182592+795092736+798742272
2612.43+802408512+806360960+810522048+814531520+818125696+821409920+824785792
2607.93+828569408+832642496+836548864+840033984+843368768+846947008+850740352
2603.43+854440256+857956480+861418752+864838400+868136128+871412416+874830976
2598.93+878318400+881624640+884628032+887407232+890072384+892684224+895317952
2594.43+898071296+900990080+904049344+907245312+910591872+913948288+916995712
2589.93+919588992+921963712+924402688+926882688+929341312+931972800+934907968
2585.43+937833472+940337280+942438144+944485568+946717440+949080448+951330624
2580.93+953267776+955031360+957042240+959436224+961801344+963768256+965555520
2576.43+967585024+969848128+972032896+974021824+975931648+977818560+979607488
2571.93+981226304+982705024+984182464+985773312+987382208+988809600+990121920
2567.43+991637888+993396416+994973440+996066624+996957184+998113664+999599680
2562.93+1001128512+1002502336+1003760448+1005010560+1006300352+1007549824
2559.08+1008631232+1009594944+1010705344+1012032000+1013229824+1014012032
2555.22+1014598144+1015380992+1016415232+1017547392+1018759488+1020025728
2551.36+1021124544+1021925696+1022626304+1023460288+1024425216+1025436800
2547.50+1026496000+1027550016+1028429696+1029050112+1029555136+1030194560
2543.65+1031088064+1032115840+1033069696+1033915072+1034772544+1035627072
2539.79+1036329856+1036954368+1037796352+1038924544+1040102336+1041206400
2535.93+1042306752+1043305088+1043964352+1044358464+1044872384+1045704128
2532.08+1046720640+1047739392+1048625216+1049222336+1049534272+1049876032
2528.22+1050586368+1051673664+1052894848+1054024960+1054937728+1055606016
2524.36+1056129728+1056629504+1057146048+1057778688+1058724544+1059925824
2520.51+1060907840+1061328320+1061506688+1062012288+1062905152+1063791360
2516.65+1064462976+1065026432+1065516672+1065835712+1066045440+1066355264
2512.79+1066842688+1067458560+1068263680+1069357568+1070575040+1071516544
2508.94+1071937152+1071980736+1072000768+1072247872+1072711744+1073162112
2505.08+1073336512+1073151232+1072785600+1072543360+1072635136+1073044800
2501.22+1073521728+1073741824+1073588864+1073276032+1073106240+1073133824
2497.36+1073189888+1073151232+1072997696+1072682944+1072162368+1071518336
2493.51+1070905216+1070400704+1069988352+1069589184+1069101184+1068486272
2489.65+1067790848+1066993920+1066000896+1064911872+1064033152+1063465920
2485.79+1062958208+1062283840+1061430912+1060350848+1058945536+1057339840
2481.94+1055794368+1054342592+1052822592+1051185472+1049517440+1047946112
2478.08+1046668800+1045749120+1044810624+1043350656+1041369984+1039277760
2474.22+1037272896+1035309632+1033475456+1031869568+1030283392+1028478976
2470.37+1026578496+1024772736+1022915840+1020804544+1018597696+1016580800
2466.51+1014706176+1012679872+1010418048+1008145088+1006082688+1004213824
2462.65+1002377600+1000464064+998464640+996434944+994464320+992621632+990851584
2458.15+988972096+986809792+984311296+981591168+978927360+976579840+974542080
2453.65+972607232+970696768+968887488+967114624+965209408+963239744+961440320
2449.15+959763008+957903360+955827200+953886848+952346112+951059200+949674560
2444.65+948005952+946176192+944444032+942891200+941379136+939872768+938568448
2440.15+937537600+936499456+935180800+933664384+932187456+930829120+929563776
2435.65+928410048+927387200+926467072+925579840+924561856+923206080+921541376
2431.15+919915776+918637184+917675136+916844800+916068800+915328832+914549568
2426.65+913667584+912703168+911718272+910778752+909953728+909252096+908601792
2422.15+907948288+907320000+906775296+906354880+906062016+905819008+905493952
2417.65+905028928+904438272+903671744+902648320+901475264+900439424+899714816
2413.15+899209280+898687296+897932992+896907264+895858624+895101504+894604352
2408.66+894034880+893276160+892552704+892000000+891477440+890880192+890240960
2404.16+889480768+888446272+887210432+886014848+884923968+883824576+882697024
2399.66+881623552+880588736+879475968+878207296+876781760+875261568+873795648
2395.16+872522048+871390528+870188928+868799424+867345920+866023040+864830400
2390.66+863535744+861932992+860094720+858287232+856673280+855193344+853728960
2386.16+852224064+850604416+848740416+846623744+844462464+842461888+840589568
2381.66+838711488+836836544+835028608+833184128+831159616+829050816+827061824
2377.16+825136128+822998656+820523456+817838720+815103616+812389376+809736320
2372.66+807166400+804659840+802192576+799743872+797244992+794608256+791820032
2368.16+788954176+786131968+783467904+780970176+778511936+775982080+773400384
2363.66+770817856+768239872+765707328+763271040+760863168+758403200+756001664
2359.16+753791488+751631680+749301120+746904896+744775360+743004992+741347008
2354.66+739574592+737734656+736042944+734599040+733232000+731665600+729812800
2350.16+727790400+725641728+723249280+720551744+717647872+714639424+711534144
2345.66+708362304+705262272+702377280+699677504+696956032+694087680+691251712
2341.16+688692160+686299328+683714688+680859584+678029440+675436736+673016768
2336.66+670680448+668420224+666136512+663693248+661180288+658835648+656684032
2332.16+654485696+652087424+649646592+647413632+645389440+643339264+641100736
2327.66+638746752+636429184+634248896+632271168+630448768+628538880+626351040
2323.16+624036544+621848384+619709568+617364928+614819968+612301824+609904640
2318.66+607587648+605400064+603442752+601685632+599931968+597935040+595604096
2314.16+593171648+590971328+588963776+586795200+584373824+581971904+579704576
2309.66+577409536+575090112+572966592+571045696+569095104+567016768+564862592
2305.16+562600960+560200448+557769024+555384512+553008832+550699264+548572288
2300.66+546490048+544173120+541681600+539392192+537455232+535615520+533570304
2296.16+531244768+528725504+526171200+523768448+521589024+519503296+517314656
2291.66+514980192+512647008+510481216+508486464+506501760+504385920+502166528
2287.16+499978976+497884544+495805664+493625760+491313216+488933152+486563008
2282.66+484247328+482040512+480007392+478108128+476167040+474050368+471805312
2278.16+469577152+467465696+465499776+463634816+461768576+459851712+457945856
2273.66+456060448+454027904+451713792+449258400+446935296+444860384+442988576
2269.16+441251520+439526304+437599040+435367744+433050336+431013600+429362528
2264.66+427811552+425995136+423844704+421602304+419519392+417635808+415844032
2260.16+414060384+412257408+410388832+408404128+406359648+404431872+402712960
2255.66+401055616+399231968+397233504+395290592+393562944+391946048+390216768
2251.16+388296032+386308064+384413856+382605760+380760608+378889824+377181920
2246.66+375672704+374086048+372187200+370111936+368158496+366466432+365025152
2242.16+363731808+362346336+360684768+358902432+357268992+355726720+354010144
2237.66+352084224+350097280+348092480+346123712+344396960+342954880+341484640
2233.16+339758144+337965888+336364032+334884160+333322240+331691264+330196576
2228.66+328964256+327851936+326542112+324887776+323108832+321480288+319940032
2224.17+318279424+316567840+315046880+313709376+312321120+310795136+309237408
2219.67+307721632+306236992+304814144+303488384+302193792+300833344+299442176
2215.17+298150752+296963296+295694592+294211232+292635424+291184704+289870080
2210.67+288524480+287063040+285555776+284074784+282634816+281265792+280037504
2206.17+278983936+278000608+276840928+275351584+273712896+272254976+270997280
2201.67+269673280+268226368+266928016+265917024+264990464+263920752+262660976
2197.17+261242160+259764816+258421872+257287600+256205664+255074944+254018944
2192.67+253104240+252156336+251026016+249784240+248557744+247375488+246207952
2188.17+244992448+243655120+242239536+240905424+239745136+238720720+237775648
2183.67+236831984+235747424+234492800+233264752+232241712+231355856+230467584
2179.17+229574704+228691776+227719664+226563424+225265696+223958240+222782752
2174.67+221817776+220989712+220138336+219187936+218129840+216901200+215527392
2170.17+214260080+213294672+212452640+211483008+210495680+209747984+209182016
2165.67+208549920+207815904+207090800+206340880+205451424+204418416+203304544
2161.17+202159760+201067504+200083152+199112688+198047712+196966448+195994896
2156.67+195095792+194201504+193393776+192731424+192087056+191359808+190658208
2152.17+190095472+189560624+188868880+188008208+187112464+186266912+185437872
2147.67+184551312+183600080+182665280+181840080+181148944+180530912+179864608
2143.17+179041872+178092000+177220928+176596016+176107936+175480384+174619488
2138.67+173704096+172938512+172349232+171828672+171254608+170558960+169772528
2134.17+169009632+168340272+167682672+166905840+166027664+165212480+164564880
2129.67+163999312+163384816+162741136+162198720+161780176+161333744+160715376
2125.17+159980192+159317840+158811680+158332672+157715344+156966640+156221632
2120.67+155557232+154934064+154316656+153752752+153315648+152996992+152657568
2116.17+152134176+151440544+150786128+150301824+149863952+149297248+148639904
2111.67+148046032+147557952+147108432+146627776+146054544+145350384+144590240
2107.17+143928112+143436992+143075056+142763760+142398496+141855952+141114848
2102.67+140326672+139663824+139151680+138693792+138224432+137793792+137492672
2098.17+137292608+137021568+136565216+136008128+135469312+134910656+134257168
2093.67+133627440+133226624+133059088+132893096+132529160+132014720+131540008
2089.17+131169544+130742560+130113096+129394232+128834248+128520928+128333568
2084.67+128107080+127723328+127137472+126414424+125661192+124931544+124310792
2080.17+123981784+123962984+123925896+123566744+123012808+122586968+122323448
2075.67+122020904+121581776+121064536+120539320+120069992+119683792+119300416
2071.17+118859512+118487800+118306888+118160488+117798888+117240816+116703624
2066.67+116258048+115768664+115155904+114530888+114056632+113752744+113464472
2062.17+113042056+112537528+112151800+111994888+111984560+111975720+111875104
2057.67+111649728+111303768+110869992+110383176+109883664+109414512+108989376
2053.17+108593144+108256784+107988584+107637904+107025320+106262664+105719152
2048.67+105550840+105504168+105294912+104955392+104687272+104527352+104310896
2044.17+103880880+103256440+102602440+102080864+101738560+101535760+101436680
2039.68+101438040+101496256+101453392+101087664+100360112+99581600+99138512
2035.18+99011336+98795968+98242000+97558776+97108720+97020104+97130104+97131960
2030.03+96817568+96328528+96061072+96149888+96249568+95995240+95447120+94893976
2024.89+94471312+94176608+94006432+93896984+93704496+93383376+93047992+92788752
2019.75+92539792+92168432+91617800+90990208+90535248+90442368+90596472+90622952
2014.60+90268088+89650152+89110440+88879040+88889256+88858000+88569032+88120672
2009.46+87818896+87775104+87749768+87508688+87172704+87014088+87035360+86999696
2004.32+86797560+86525128+86246832+85933680+85633352+85453592+85350640+85125944
1999.18+84693328+84187768+83771816+83465440+83201680+82932696+82617856+82199544
1994.03+81638928+80982248+80376288+80025584+80062704+80365000+80578368+80445648
1988.89+80082432+79829056+79881376+80144432+80393192+80433760+80212560+79863120
1983.75+79564448+79319216+79033496+78800216+78808904+78945080+78825928+78317944
1978.61+77716952+77320960+77140976+77086048+77150024+77277520+77310440+77194936
1973.46+77077112+77073808+77062920+76829384+76352848+75804912+75275336+74649608
1968.32+73847208+73066504+72678512+72867496+73451016+74029688+74313112+74296000
1963.18+74130232+73898992+73623936+73392888+73282496+73208496+73087992+73077984
1958.04+73375544+73808488+73916464+73462000+72658384+71906576+71481488+71443056
1952.89+71659616+71874000+71855072+71551880+71118952+70777328+70640496+70640616
1947.75+70565504+70190456+69533928+68983240+68924512+69098992+68698520+67430480
1942.61+66154496+65980388+66927720+68050992+68684984+68957768+69147848+69196712
1937.47+69006144+68729936+68553048+68466312+68423080+68468152+68581800+68592392
1932.32+68384584+68061592+67803904+67649632+67479288+67196248+66878920+66710224
1927.18+66738704+66832424+66913844+66971540+66763900+65953264+64788632+64133156
1922.04+64479596+65413068+66220564+66302324+65016132+62309268+59724360+59390160
1916.90+61453492+63837216+64924812+65060148+65194280+65482388+65702792+65899244
1911.75+66068480+65938308+65404188+64720912+64190652+63970296+64090868+64392552
1906.61+64584144+64526276+64352076+64269668+64378940+64635568+64900496+65094324
1901.47+65264932+65425348+65434356+65175920+64756176+64438748+64442752+64725288
1896.33+64881040+64521408+63878904+63641828+64028148+64516060+64594596+64178256
1891.18+63212684+61667248+60106648+59531304+60337728+61904588+63327128+64130244
1886.04+64328376+64197460+64017460+63881584+63791288+63864200+64186644+64552772
1880.90+64649060+64451628+64185188+63994240+63868100+63805628+63847308+63982456
1875.76+64158324+64367756+64613928+64811012+64845292+64747776+64527732+63715824
1870.61+61584220+58277988+55356600+54508900+55839708+58034784+59931256+61269976
1865.47+62233988+62939240+63408652+63690548+63887660+64087708+64250576+64280232
1860.33+64233200+64254584+64340404+64407380+64515092+64738908+64974548+65107212
1855.19+65188812+65285120+65328544+65215932+64904872+64488588+64226388+64268320
1850.04+64335784+64018916+63332840+62722792+62627324+62904016+62212124+58612724
1844.90+52256720+47103832+47575884+53103936+58932364+62007172+63052084+63671476
1839.76+64198792+64420628+64328008+63878424+63240016+63029616+63525776+64196976
1834.61+64471080+64326916+64018916+63691764+63013100+61066572+57590148+54402348
1829.47+54110520+57012384+60807864+63260060+63536596+61720660+58900844+57206164
1824.33+57988256+60320624+62423784+63683136+64484216+65105992+65555736+65781856
1819.19+65571668+64742192+63581188+62711856+62514500+62898424+63483620+63890572
1814.04+64019524+64004204+63801496+63107596+61935300+60968272+60979688+61946468
1808.90+63028760+63529912+63661988+64071180+64786452+65212152+65084468+64641040
1803.76+63863348+62495924+60884672+59751040+59064744+58245024+57506440+57849528
1798.62+59535904+61525100+62625504+62621736+62270532+62278424+61945496+59252784
1793.47+53435620+47258072+45075180+48075172+53346404+57857160+60897044+62737000
1788.33+63433312+63378884+63149632+62432536+60663352+58678904+58125300+59283464
1783.19+60943032+62012392+62035588+60992428+59731268+59566228+60656440+61934572
1778.05+62794568+63270764+62944820+61668824+60543964+59773716+56753724+49397180
1772.90+40598788+36447588+39612152+47031888+53921276+57178188+56227772+53378924
1767.76+52493288+55230152+59391128+62083908+62870732+62886152+62241512+59711384
1762.62+55026764+50637868+50055864+53908344+59043412+62210308+62756072+61360640
1757.48+58642424+56184312+56340364+59216172+62206060+63597468+63663452+61754168
1752.33+56280072+48934708+45056880+47200596+51815196+54674372+55611568+56568828
1747.19+58229632+60021376+61434432+62152876+61986052+61296916+61064144+62096532
1742.05+63706112+63392620+59351848+53774852+51704680+55171832+60916220+65074380
1736.91+66295868+63424812+54394240+39999564+26858884+23376654+31600672+45349772
1731.76+56646564+61690436+61870348+61120332+62065332+64294580+66109480+66828044
1726.62+66967648+67065508+67053100+66682604+66120432+65882348+66274456+67073180
1721.48+67702840+67492816+65546008+60448124+51096400+39324188+31277654+32584030
1716.34+40988076+48742944+52268560+54593328+58876480+63950496+67461280+69140416
1711.19+69541600+68971416+68537096+69438128+70808184+70536112+68058792+64809060
1706.05+62544496+62139764+63332600+65445172+68341960+70921240+68701552+56863920
1700.91+38020304+24757754+28681336+46621888+64912412+72676680+67042748+53672088
1695.77+45304032+51980436+69600464+85932448+94767576+98321144+100519192
1691.27+102486192+104207320+106555848+109907680+113444792+117071024+121131344
1686.77+122974992+117510528+103944000+90490648+88610760+100662440+118637216
1682.27+134470768+145205600+151419456+155363488+159497440+164753760+170361952
1677.77+175000272+176883504+174209120+168318736+165540000+171705216+184367488
1673.27+195349056+200333408+201717952+202990912+203828384+202718768+201890992
1668.77+205974912+215914672+227526912+236551840+242353536+246545984+249918944
1664.27+251634592+251290720+251084672+254631392+262807904+272482016+280424224
1659.77+286366720+291501056+296240704+300550368+304522112+307493024+307828512
1655.27+303615072+292822528+275233632+257608496+254058576+272215264+301766816
1650.77+326732576+340311840+344366560+343181504+339923456+335894592+331518848
1646.27+328883488+332180992+342650144+355044928+363116640+366067744+367003296
1641.77+367683008+367820768+367652672+367525664+366269984+362830240+357626144
1637.27+350063680+337993248+323168480+314057664+317176128+327645216+335420672
1632.77+336376320+332794624+327704128+322186624+316188608+309047104+300045312
1628.27+289954720+281000000+274487520+269428352+263537616+254768496+242879072
1623.77+230651792+222165376+218530672+216873760+214057072+209476496+204280864
1619.27+198950112+191384432+178179424+160121328+145912128+144992736+155061968
1614.77+164957776+168358592+167192784+165046544+162835056+160511168+158548768
1610.27+156920768+155209856+153707216+152814192+152175744+151478256+150989968
1605.77+150740560+150328992+149682976+149013536+148313376+147628192+147201824
1601.27+146916880+146430464+145954720+145886800+145932544+145616592+145177392
1596.77+144955776+144607456+143863568+143271136+143398400+144065552+144842320
1592.27+145562384+146142096+146526400+146820144+147095728+147402752+148072032
1587.77+149374192+150926208+152200768+153283232+154375808+155238096+155868016
1583.27+156756560+157919520+158868544+159682304+160709520+161620688+162181088
1578.77+162482816+160584288+152735376+139457968+129684584+133101008+147569232
1574.27+162113008+170083376+172789424+173792896+173613280+170341424+163952384
1569.77+158422032+158457360+164257968+171607392+176709520+178615376+178089792
1565.27+176541216+175635744+176259584+177805504+178495328+175373008+165073936
1560.77+147312496+127607224+113552472+108208320+111076216+122384408+139600800
1556.27+154152400+158365936+153306880+147547680+148303232+154764672+161108688
1551.77+163133808+160855152+157209200+155260144+155915376+157876304+159297440
1547.27+158789760+155372912+149169504+142661056+139129328+138041984+134509440
1542.77+125730152+115305216+107891400+101680320+92327224+83095536+83810728
1538.27+97313896+114538240+125870480+129215728+127024416+121259704+113284416
1533.77+106446200+104943240+109063848+114537744+117710200+118508784+117904048
1529.27+115708896+112327776+109694232+108355592+106276456+102553608+99712144
1524.77+100164032+102204032+101527472+95464664+85237616+75872888+73652768
1520.27+80908576+92884456+101566856+102603304+98510992+95659776+97586464
1515.77+102335624+106697168+109523832+110253152+108227216+104840992+103070224
1511.28+103448728+103461624+101446712+97696480+91659216+81643464+68378016
1506.78+56976416+54059372+62367676+78021336+93497976+103355000+107082456
1502.28+107574416+107760552+108198872+107246560+103911632+100341792+99433600
1497.78+99794584+97275952+92528560+92073752+99136784+108622728+114686240
1493.28+117013464+117545504+116070232+111934368+107394768+106185944+109290152
1488.78+113993056+117264160+118977104+121421232+125981336+131378672+135713056
1484.28+138774336+141359152+143582144+145110384+146356336+148249088+151110016
1479.78+154542352+158098336+161160624+162603024+161986672+161168560+162834800
1475.28+166573216+168562080+166361104+162203680+160755840+164813360+173786720
1470.78+184803088+194400912+200626192+204154176+206784928+209052000+209854368
1466.28+207950784+203799408+200659264+202565696+209415664+216359840+219856608
1461.78+221095792+222100688+222128224+219957248+215897088+209342256+198805680
1457.28+187445072+184169584+193822976+210137024+223703376+231058096+233893984
1452.78+234573216+234485232+234667968+235670656+236760368+236352096+233791072
1448.28+230585536+229350976+231156096+234438304+236911712+237771936+237663776
1443.78+237303104+236861808+236386576+235990464+235458144+234412352+233052128
1439.28+231515808+228003712+219651056+207265376+197665344+197424224+204434576
1434.78+210755520+212089744+209998432+207225520+204443584+201156496+197124384
1430.28+192673712+188897104+186925568+186270672+185225792+183159792+180682672
1425.78+177748576+173736496+169232144+165660016+163490528+162336416+161432080
1421.28+158432096+150325440+138162112+128829240+128293776+134278704+140050016
1416.78+142516112+143044688+143307824+143450544+143278096+142901632+142372208
1412.28+141781216+141393904+141200032+140890176+140474480+140335392+140643520
1407.78+141159968+141419440+140767840+138839104+136550720+135790944+137232192
1403.28+139259360+140015536+139446752+138226704+135887232+131819608+127403016
1398.78+125087224+125339456+126174992+125532536+122646440+117884808+112906880
1394.28+110330304+111415064+114431016+116527504+116515648+115202936+113774680
1389.78+112308720+109627072+104844840+99373216+96389064+97341336+100177024
1385.28+102126712+102605296+102472192+102145800+101589520+101025624+100623936
1380.78+100159072+99431376+98545736+97713176+97167680+97047424+97053232
1376.28+96592544+95444536+93990512+92908256+92931688+94469096+97048416+99594464
1371.14+101450056+102584720+102947256+102508504+101872352+101805328+102222128
1366.64+102494872+102438360+102070208+100947728+98829736+96568952+95303272
1362.14+95114976+95414280+96123448+97457152+98982512+99887648+99965488+99651880
1357.00+99310736+99009112+98771720+98609312+98409584+98092248+97737912+97408080
1351.86+97025312+96551032+96128272+95932976+95964104+96037360+95960768+95687928
1346.71+95342408+95106328+95116576+95399456+95824040+96150256+96192384+95860720
1341.57+95037688+93680072+92167064+91241576+91315504+92018272+92642744+92853144
1336.43+92805032+92787400+92941552+93215864+93430744+93424704+93203896+92939336
1331.28+92809832+92862256+93024560+93198104+93307392+93311576+93237576+93149256
1326.14+93046024+92877304+92729312+92785424+93001008+93097824+93000520+92900248
1321.00+92745360+92169296+91162456+90312304+90086072+90293328+90465032+90387184
1315.86+90104288+89726240+89384344+89184552+89140352+89189104+89223936+89132112
1310.71+88944640+88855424+88958680+89111664+89185784+89246584+89355288+89404768
1305.57+89310592+89197960+89274408+89597816+89989024+90196144+90173752+90145672
1300.43+90290736+90512576+90642296+90700936+90796272+90929712+91060192+91231224
1295.29+91540520+92042680+92674560+93234112+93546336+93703152+93995704+94530688
1290.14+95069904+95340440+95391432+95545792+96014632+96659896+97197352+97565936
1285.00+97935472+98407352+98933272+99506496+100187304+100933000+101650600
1280.50+102378872+103172136+103882856+104344632+104722384+105428704+106654448
1276.00+108162072+109579560+110765336+111801384+112747800+113612280+114548592
1271.50+115798976+117356192+118911992+120241432+121416480+122610136+123936792
1267.00+125523384+127448584+129566856+131575616+133322544+134930528+136650832
1262.50+138640544+140839344+143078096+145333776+147758416+150438704+153310032
1258.00+156324016+159488896+162724544+165877680+168869520+171735728+174636576
1253.50+177862912+181574976+185512576+189269872+192848176+196598032+200657184
1249.00+204814496+208888624+212918768+217024784+221276752+225657152+230102544
1244.50+234677360+239616272+244953552+250333200+255476624+260593312+265995760
1240.00+271597216+277138752+282611072+288204896+294107680+300441632+307052672
1235.50+313400160+319130496+324639200+330556960+336864896+343093632+349120704
1231.00+355155776+361224192+367283616+373565376+380221504+386873184+392989408
1226.50+398522688+403858336+409348544+415115520+421100512+427160352+433153184
1222.01+438937088+444324512+449227488+453811712+458264896+462504160+466393216
1217.51+470098560+473904512+477785824+481444160+484639968+487337568+489659648
1213.01+491807520+493847232+495582688+496805760+497606048+498256032+498834912
1208.51+499115648+498824992+497968192+496807328+495501952+493869152+491649472
1204.01+488868512+485769344+482551872+479332160+476101632+472596640+468493856
1199.51+463817824+458862496+453719776+448221920+442339744+436327072+430489952
1195.01+424968896+419603200+413981728+407827104+401345600+394974944+388904448
1190.51+383052288+377308864+371607936+365950272+360470752+355264640+350154592
1186.01+344879168+339460960+334145536+329117024+324450848+320164000+316169024
1181.51+312321696+308597888+305060192+301644544+298172704+294619328+291241312
1177.01+288349632+285968608+283828608+281697152+279498848+277100352+274345056
1172.51+271477696+269077312+267382832+266099968+264960224+263951920+262989744
1168.01+261904560+260700064+259396992+257924912+256544864+255826592+255796688
1163.51+255775408+255359168+254812384+254317648+253728736+253155072+252901792
1159.01+252787312+252372800+251771568+251477424+251539728+251598640+251565232
1154.51+251706528+252170112+252810960+253440960+254091088+255029552+256504416
1150.01+258439168+260483232+262331424+263896384+265313872+266946496+269183328
1145.51+272043744+275160288+278213152+281114112+283846944+286521024+289529728
1141.01+293231296+297467392+301740672+305789632+309735104+313804832+318173120
1136.51+322923552+327988512+333239072+338665536+344307712+350062272+355810272
1132.01+361723328+368202272+375459680+383282816+391243456+399095424+406940416
1127.51+415004704+423356224+431913376+440600416+449340832+458082368+467031712
1123.01+476588512+486791744+497149472+507340960+517696992+528583200+539716032
1118.51+550515904+560877504+571154432+581564928+591940160+602039936+611956032
1114.01+622077440+632588672+643158016+653378816+663364160+673543552+683961984
1109.51+694176000+703794944+712793344+721328064+729543104+737577856+745559104
1105.01+753526272+761396096+769055616+776462272+783543040+790086720+796009152
1100.51+801630976+807309312+812929728+818261504+823557568+829151360+834757632
1096.01+839875328+844492800+848739136+852444096+855731008+859390080+863920448
1091.51+868828544+873426368+877709504+881976064+886126848+889776000+892774784
1087.01+895394816+898008320+900618176+902817664+904356672+905474880+906489920
1082.51+907420864+908201024+908832448+909092352+908486976+906686208+903835392
1078.01+900466496+897131776+893857792+890014208+885134208+879669376+874355136
1073.51+869082304+863007040+855651136+847340544+838679808+829947392+820968832
1069.01+811389696+800990528+789735744+777699584+765142464+752417664+739521152
1064.51+726084672+712102080+698166336+684726976+671628608+658547712+645342144
1060.01+631934144+618381504+605054272+592326080+580178432+568283456+556237824
1055.51+543781184+531204864+519315168+508504480+498196416+487665056+476916128
1051.01+466364160+456189376+446369920+436881472+427682720+418803712+410348416
1046.51+402143776+393806240+385423296+377614816+370595232+363755392+356484288
1042.01+348934336+341739776+335309408+329581088+324278272+319222560+314328192
1037.52+309395392+304256640+299157088+294528480+290272832+285798880+280899488
1033.02+276055104+271728608+267892672+264344176+261018432+257903200+255017632
1028.52+252500464+250449040+248664864+246748096+244444240+241907424+239677392
1024.02+238283904+237715664+237360816+236597584+235355920+234021008+232928736
1019.52+232133344+231560896+231222656+231247104+231696112+232400400+233051856
1015.02+233526960+234044720+234946928+236355936+238079344+239779552+241223408
1010.52+242498688+244043696+246365872+249632656+253591600+257930688+262622000
1006.02+267861296+273741856+280110432+286770368+293783520+301479392+310115712
1001.52+319600096+329632064+340021312+350733920+361732768+372956256+384433632
997.02+396283936+408595136+421358176+434430144+447521568+460339488+472797120
992.52+484917952+496530048+507252448+516744096+524658368+530412032+533469376
988.02+533920416+532307744+528796288+523025280+514884736+504874176+493535360
983.52+481080224+467775232+454146976+440575008+427092704+413734432+400686048
979.02+387945568+375251776+362548192+350215936+338649664+327790240+317318976
974.52+307216096+297825088+289271552+281135648+273010368+265145504+258132192
970.02+252094544+246607952+241336688+236346000+231788352+227621584+223680576
965.52+219879648+216295232+213063072+210176704+207475536+204905472+202659168
961.02+200938016+199655312+198457376+197024800+195339072+193712144+192518560
956.52+191878784+191605856+191360704+190846512+190021120+189170688+188603616
952.02+188292272+188004192+187666832+187405616+187386720+187758320+188500032
947.52+189233104+189495616+189243744+188806320+188425744+188174256+188101520
943.02+188132448+188055696+187868176+187864288+188252944+188904880+189522960
938.52+189876032+189941184+189922000+189950928+189884720+189682640+189681088
934.02+190082016+190575264+190932064+191449760+192329952+193182000+193566000
929.52+193532512+193374448+193357440+193748720+194608144+195582896+196314464
925.02+196859840+197386656+197816464+198073584+198349760+198832624+199401232
920.52+199780192+199899824+200019072+200487088+201344368+202255712+202910560
916.02+203304688+203560448+203774112+204093888+204639728+205305968+205938592
911.52+206645248+207601680+208653344+209446912+209872560+210099856+210270272
907.02+210362400+210342912+210310560+210492000+211054160+211866400+212543056
902.52+212793216+212654048+212344528+212056976+211971696+212260288+212850880
898.02+213373856+213615728+213869152+214547840+215563232+216385824+216652880
893.52+216432544+215992144+215541808+215138176+214716528+214349920+214372064
889.02+214910528+215418192+215157472+214111744+212963456+212252960+211976656
884.52+211900960+211826832+211570624+211041840+210383344+209841024+209488016
880.02+209187136+208850832+208605616+208555920+208460992+207973296+207170256
875.52+206491136+206098336+205689184+204993312+204077712+203167728+202460896
871.02+202014560+201603792+200908064+200020384+199454336+199508864+199921312
866.52+200193568+200001360+199327696+198392320+197341792+196086368+194739824
862.02+193972512+194280560+195083696+195286576+194656960+194070640+194470624
857.52+195932928+197530080+197957712+196562032+193884128+191115600+189348096
853.03+189434480+191510688+194144784+195061376+193626608+191754320+191607392
848.53+193191616+194920448+195730112+195784416+195613936+195385840+195148000
844.03+195139024+195353360+195296736+195022016+195960208+199170320+202959344
839.53+204165248+202059920+199060352+197334784+196675776+195949808+194766160
835.03+193286320+191898368+191279808+191662368+192188208+191885024+190900432
830.53+189832896+188487344+186354848+183899024+182280048+181821616+181641152
826.03+180982336+180277088+180390912+181185072+181498208+180494432+178400784
821.53+175980176+173995520+173089184+173293776+173683552+173261152+172059728
817.03+170725472+169423408+167955776+166561568+165722720+165480496+165576080
812.53+165945120+166517936+166721840+165818176+163921696+162243168+161806624
808.03+162055136+161467696+159522704+157263104+155948736+156038768+157231760
803.53+158582928+158884864+157839728+156418512+155633232+155722112
##END=
