##TITLE=octarelline 6 front
##JCAMP-DX=4.24
##DATA TYPE=INFRARED SPECTRUM
##DATE=31/1/2005
##TIME=17:0:6
##SAMPLING PROCEDURE=film
##ORIGIN=Vincent
##DATA PROCESSING=no operation
##XUNITS=1/CM
##YUNITS=ABSORBANCE
##RESOLUTION=2
##FIRSTX=4000.283
##LASTX=800.31372
##DELTAX=-0.64282227
##MAXY=0.23628673
##MINY=-0.0028175882
##XFACTOR=1
##YFACTOR=2.2005917e-010
##NPOINTS=4979
##FIRSTY=0.0068491804
##XYDATA=(X++(Y..Y))
4000.28+31124268+31113756+31127500+31140642+30952080+30342286+29517028+29056898
3995.14+29192276+29458284+29366946+29051048+28924634+29026696+29092114+29043886
3990.00+29087460+29404316+29886858+30149498+29878858+29229286+28665026+28364516
3984.86+28140418+27961680+28052958+28415112+28767430+29008550+29200154+29161954
3979.71+28699756+28136836+28023248+28368932+28739502+28966652+29206242+29396196
3974.57+29269402+28934422+28884528+29278472+29640258+29495898+29018220+28790348
3969.43+29110260+29764212+30322818+30474644+30170402+29618406+29102500+28762420
3964.28+28612270+28649030+28783426+28856118+28886558+29098562+29525988+29888172
3959.14+30015488+30011186+29887218+29467718+28811952+28299480+28140060+28154858
3954.00+28150680+28205090+28436834+28678272+28567990+28004158+27390272+27185006
3948.86+27252274+27028300+26402554+25963054+26190124+26804712+27150182+26878404
3943.71+26140774+25421292+25299996+26057812+27358898+28494356+28977632+28827230
3938.57+28398288+28129678+28323584+28916756+29510226+29743074+29465688+28552596
3933.43+27003734+25445124+24928164+25778796+27112734+27878644+27944502+27879004
3928.29+28139584+28705724+29085906+28685196+27516588+26378354+25967584+26199422
3923.14+26700022+27298788+27708404+27512650+26856700+26441420+26508780+26437962
3918.00+25592646+24201740+23295012+23778922+25447388+27124184+28010840+28432540
3912.86+28972144+29576852+29892234+29766720+29219974+28539470+28270004+28435998
3907.72+28307118+27484260+26259740+24509834+21750624+18711668+16987422+16705651
3902.57+16608258+16519408+17387782+18973060+19899668+20000076+20567808+22323738
3897.43+24663720+26694058+27887832+28136482+27926368+27979818+28214754+27529230
3892.29+25098644+21795464+19916304+21032980+24278078+27411860+29099874+29068360
3887.15+26822242+22218810+17364642+15733822+18437724+23094816+26845730+28594728
3882.00+28314636+26204546+23287392+21557604+22442596+25400202+28649030+30950046
3876.86+32135874+32213352+30831990+28074078+25231724+24053488+25060996+26759166
3871.72+26563624+22855012+16768764+11932701+11570124+15659714+21441060+25952328
3866.58+27485096+25874380+22692462+20600260+21184694+23444160+25245306+25918716
3861.43+26541210+27991514+29826190+31198846+31739562+31405836+30525178+29650884
3856.29+27884252+22153026+10676275-2870950-11411349-12010527-7665278-1217819
3851.15+7031841+16031937+23285012+27719378+30284950+31874526+32666684+32984714
3846.01+33039618+32281144+30316006+27967290+26524636+26308616+26514502+26308974
3840.86+25745666+25150704+23552844+19170700+12684336+8508395+10180549+15539846
3835.72+19859030+21870874+23607010+25873784+26997296+25910968+24050750+23670344
3830.58+25451080+28259624+30604748+31706450+31434402+30064932+28478366+27920640
3825.44+28847284+30360444+31188086+30512276+27634324+22242602+15896868+11929506
3820.29+12563819+16935456+22484950+26558136+26586990+21396348+13587506+8866745
3815.15+10894139+17695050+24696712+29307844+31559544+32372262+32462306+32278756
3810.01+32074060+31647634+29989568+25936952+20163000+16013202+16588327+21029176
3804.86+25707766+28256522+28139702+24605594+17275878+9048132+5424395+8996964
3799.72+16641948+23522848+27307970+28110710+26971894+25431658+25098522+26409824
3794.58+28332058+29705816+30334764+30666154+31075876+31667960+32279712+32549366
3789.44+32288922+31770524+31407630+31275924+31129412+30686702+29843386+28876530
3784.29+28400198+28795842+29766958+30683478+31053286+30458638+28684600+26331624
3779.15+24732328+24770088+26157344+28036852+29727074+30844180+31295162+31243660
3774.01+30890776+30442510+30182346+29947770+28749766+25873902+22397264+20612978
3768.87+21637282+24313446+26574352+27204444+26436532+25470744+25377562+26233514
3763.72+27392536+28376450+29029922+28980976+27617144+24951632+22275318+21311804
3758.58+22375846+23955730+24627630+24665508+25185612+26434268+27357586+25993208
3753.44+20455250+11374900+3372209+880318+2043853+1432806-1581514-1933625
3748.30+3514203+11837081+18098288+18737318+11757558-1159273-12229153-12803775
3743.15-3185251+8579634+16653573+20785700+22763262+23692606+23957160+23303820
3738.01+21045108+17223902+13028763+9697951+8015930+8668362+11327339+13691267
3732.87+13572937+11917316+11999094+15327039+20058660+23759276+25796792+26665920
3727.73+26518794+25269732+23472612+22242960+22257354+23112312+23731896+23355240
3722.58+22298398+21741706+22496850+24015978+25017270+24987610+24603570+24782000
3717.44+25794052+27208978+28217502+28164878+27049170+25103168+21874204+16889184
3712.30+11619466+9098829+10386060+13181875+15149816+16578127+18800970+21809144
3707.16+24632750+26743426+28050452+28478126+28181346+27421162+26004056+23657962
3702.01+21105978+19930088+20982810+23429756+25653782+26769894+27023890+27014108
3696.87+26978692+26866838+26616916+26192030+25704668+25348848+24688018+22625350
3691.73+19118912+16042967+14604733+12908817+8652530+3576896+2459803+7174807
3686.59+14569893+20725906+24314038+25856262+26166640+26008588+26033258+26385506
3681.44+26669380+26398144+25453346+24294866+23589152+23097196+21051410+15555614
3676.30+7163355-297115-2423609+1862167+9697005+16841610+19912622+17622176
3671.16+11769155+6566772+5269879+7647577+11768207+16580737+21463296+25244590
3666.02+27193950+27845954+28009530+27921954+27709956+27612372+27629672+27715684
3660.87+28001656+28343872+28361056+28067754+27339818+25097094+20817440+16606358
3655.73+15636950+18408754+22513744+25638050+26809482+25606352+22067492+17017914
3650.59+11535574+6641483+3711597+3827686+6405558+9869839+13619960+17962838
3645.45+22519930+26156746+28312844+29345452+29761586+29851630+29881964+30024444
3640.30+30161680+30074968+29779496+29534702+29618286+30099214+30732824+31030704
3635.16+30566516+29375300+28138626+27789050+28614180+29600494+28770058+24491134
3630.02+17080802+9494166+5821710+8045693+14366314+21233324+26355822+29460076
3624.87+31207448+32207490+32776236+33026222+32878738+31995034+29973208+26958776
3619.73+23999192+22336944+22398454+23863812+26306824+29051288+30982906+31420898
3614.59+30780732+29774840+28659296+27884134+28328120+29781050+30332730+28563576
3609.45+25565478+23773922+24274862+26250206+28616928+31046236+33478066+35497616
3604.30+36529684+36449516+35750700+35051300+34638716+34542828+34723120+34979096
3599.16+35084348+35155956+35453300+35754296+35541816+34846792+34289304+34309408
3594.02+34918748+36007892+37332944+38489984+39251924+39498888+38699188+36355336
3588.88+33154214+30721592+29977028+30627802+32287366+34834220+37623668+39588420
3583.73+40367348+40547812+40745708+41054708+41413376+41915212+42634956+43416896
3578.59+43969516+44122760+44000068+43925736+44115904+44475608+44751024+44862212
3573.45+45028168+45490228+46158784+46665188+46702052+46123624+44790976+42708520
3568.31+40323648+38321104+37129276+36949964+37994536+40137444+42584716+44505448
3563.16+45832724+46949948+47856408+48241380+48212932+48318172+48818024+49353104
3558.02+49481428+49254196+49133960+49471548+50176800+50775368+50736624+49932600
3552.88+48920760+48595328+49373604+50807476+52100712+52816212+53002056+52855000
3547.74+52472748+51914724+51452960+51570448+52440972+53556876+54318004+54832440
3542.59+55602288+56591900+57274276+57476640+57514668+57606716+57730132+57893052
3537.45+58089908+58202088+58281444+58616476+59288524+60003720+60493324+60751816
3532.31+60865124+60944340+61117236+61333824+61407364+61376056+61480896+61684420
3527.17+61709548+61571916+61533324+61580536+61565004+61700932+62252984+62867980
3522.02+62961004+62715580+62989180+64162584+65638372+66562464+66661504+66282040
3516.88+65927224+65912020+66344208+67200584+68272744+69159456+69562128+69588328
3511.74+69539224+69465616+69262152+69120712+69468304+70379320+71421368+72156480
3506.60+72508752+72607368+72572584+72505832+72517920+72671936+72979992+73441688
3501.45+74037712+74712824+75379624+75908384+76203872+76345336+76597104+77163128
3496.31+77925592+78492856+78623592+78596056+78951560+79773864+80492728+80628752
3491.17+80464680+80596520+81084640+81490992+81567848+81482040+81515384+81888584
3486.03+82727824+83820736+84559000+84462248+83728320+83049128+82972072+83518208
3480.88+84335912+85103368+85824912+86721872+87803584+88684464+88945336+88600432
3475.74+88087336+87876032+88140592+88680536+89090536+89157728+89154656+89543344
3470.60+90361088+91120896+91387992+91255192+91183736+91532160+92251992+92906488
3465.45+93076904+92848784+92703920+92877512+93145960+93336128+93576632+93890320
3460.31+94058712+94102144+94369024+94934256+95388024+95413952+95219272+95216184
3455.17+95562112+96107296+96617416+96988928+97256064+97368416+97154008+96708216
3450.03+96536008+96930360+97480000+97593080+97313160+97223816+97713840+98665064
3444.88+99720320+100575336+101057040+101106064+100763880+100227912+99861008
3440.38+99918416+100245616+100482024+100557512+100738240+101172680+101676312
3435.89+101997856+102104512+102190240+102490440+103041512+103552064+103633760
3431.39+103248864+102791416+102652128+102831568+103089592+103324472+103617664
3426.89+103935408+104017128+103665000+103035184+102521408+102385248+102563904
3422.39+102792536+102864656+102814096+102853992+103149328+103633152+104061032
3417.89+104202400+104001752+103639592+103379264+103339600+103483144+103801256
3413.39+104332232+104937288+105306392+105261592+104918056+104522728+104250512
3408.89+104119176+104012920+103882224+103919664+104316360+104866208+105149928
3404.39+105079208+104924264+104808264+104584504+104193960+103797912+103526280
3399.89+103351504+103190856+102934048+102460944+101817136+101367208+101539464
3395.39+102298768+103042992+103229520+103017840+102973960+103230632+103411368
3390.89+103338600+103225072+103146112+102938888+102690176+102699592+102933432
3386.39+103036544+102861064+102550648+102260976+102160760+102399984+102761176
3381.89+102717816+102073296+101196952+100583144+100528792+101078080+101866560
3377.39+102295664+102249960+102219720+102441496+102534168+102255040+101900992
3372.89+101737016+101712728+101890728+102404072+102922408+102853632+102135856
3368.39+101307024+100849416+100826512+100989928+101011096+100797056+100608896
3363.89+100601088+100493032+100120744+99893416+100143392+100470264+100372848
3359.39+100008376+99721312+99378480+98810616+98362992+98371160+98551552
3354.89+98506784+98399464+98614992+99117848+99589912+99948368+100330016
3350.39+100746912+101035616+101087616+100953768+100745304+100493160+100117648
3345.89+99538696+98793192+97989992+97253352+96824240+97033032+97893320+98838320
3340.75+99181560+98820024+98214496+97754752+97454792+97291656+97489520+98255920
3335.60+99294984+99829320+99340136+98235152+97473440+97499408+97924472+98267416
3330.46+98447440+98407496+97909520+96995232+96199056+96012328+96467576+97224200
3325.32+97748456+97584320+96868952+96332328+96414096+96748368+96817056+96635464
3320.18+96491424+96489328+96620384+96863144+97071704+97091728+96943840+96656832
3315.03+96192512+95746456+95754840+96398776+97428456+98472784+99135296+99026448
3309.89+98209552+97346160+97018456+97275224+98044632+99299816+100590816
3305.39+101181096+100883328+100143024+99332216+98602000+98215608+98299672
3300.89+98539184+98618200+98598408+98506176+98134008+97548464+97196016+97276464
3295.75+97525856+97666128+97651800+97589504+97727944+98235512+98783040+98806792
3290.61+98285712+97721632+97339728+96944936+96505880+96231544+96087408+95788808
3285.46+95259136+94720736+94422088+94479840+94840936+95251856+95385688+95100136
3280.32+94567576+94155688+94093504+94172720+93973464+93469696+93095160+93009832
3275.18+92755208+91951016+90873304+90018904+89574488+89574856+90043776+90610960
3270.04+90537552+89552208+88302832+87564024+87283192+86815416+85902560+84908224
3264.89+84167616+83612576+83160280+82973912+83045800+82919936+82243720+81334320
3259.75+80774576+80573488+80146624+79147096+77958392+77206072+77022352+77048408
3254.61+76985160+76811128+76534496+76109608+75644840+75311064+75034408+74607880
3249.47+74112936+73844032+73806776+73649616+73142712+72467400+72000800+71946640
3244.32+72166608+72334144+72265320+72005304+71568960+70843096+69840704+68812400
3239.18+68019480+67567080+67401048+67298200+67021928+66676476+66598356+66777216
3234.04+66802648+66498476+66095808+65724596+65274308+64776228+64406364+64121880
3228.90+63799880+63644128+63990276+64741348+65332912+65275160+64594508+63779840
3223.75+63314444+63212048+63095324+62696508+62092384+61486364+60996392+60683400
3218.61+60603584+60793188+61203020+61590484+61613664+61208240+60684856+60322428
3213.47+60121112+60079028+60253176+60442024+60335524+60078424+60127536+60489928
3208.33+60654896+60309940+59660096+59060284+58699360+58552856+58390008+57978816
3203.18+57409300+57001952+56877728+56854612+56769252+56662720+56643592+56707628
3198.04+56700848+56453904+56002696+55587772+55370844+55267288+55130472+54928232
3192.90+54712228+54549812+54486200+54488140+54532884+54739564+55184668+55575068
3187.76+55462548+54864492+54324656+54248000+54452828+54488504+54192984+53812288
3182.61+53662632+53762964+53839604+53707724+53489316+53381380+53398424+53470096
3177.47+53595676+53739992+53801040+53808300+53928216+54145472+54214024+54072320
3172.33+54014168+54244008+54549692+54629868+54518856+54465280+54591416+54844172
3167.19+55131560+55359232+55469324+55497756+55486508+55408228+55332860+55479736
3162.04+55906008+56319432+56425212+56260000+55988052+55649360+55259548+54917468
3156.90+54689732+54586456+54655748+54914088+55223376+55391408+55320640+55057412
3151.76+54829056+54918316+55250240+55343628+54955688+54488620+54420784+54643780
3146.61+54692032+54340980+53751236+53237928+53013528+52961692+52746744+52290464
3141.47+51875592+51630576+51337780+50966080+50857688+51109732+51266068+50954256
3136.33+50420068+50146640+50242924+50457964+50565848+50497908+50223740+49772152
3131.19+49372272+49343448+49693128+49938632+49571300+48652116+47783136+47457044
3126.04+47599120+47784220+47742040+47540556+47312936+46999460+46435640+45672720
3120.90+45096644+45170776+45985992+47018256+47497656+47157276+46465864+45961072
3115.76+45635768+45234928+44814924+44645136+44750544+44880984+44827672+44588228
3110.62+44335932+44286968+44487276+44749216+44871720+44803244+44531916+44044572
3105.47+43475220+43081916+43017592+43207796+43395736+43317332+43008212+42889916
3100.33+43269712+43840340+44038200+43782248+43505884+43559636+43890976+44201072
3095.19+44221528+43933432+43577556+43335128+43148168+42972028+42928628+43001360
3090.05+42936084+42669820+42532308+42798316+43311084+43658848+43585248+43222948
3084.90+42985856+43097184+43253128+43033224+42568968+42376664+42571852+42739532
3079.76+42617528+42428828+42451776+42653712+42864552+43024444+43097904+42970708
3074.62+42621260+42230404+41983940+41855728+41735096+41604628+41479204+41361120
3069.48+41342376+41502028+41648836+41552248+41415416+41586724+41855968+41673224
3064.33+41015436+40364592+39967828+39761488+39794976+40024724+40055696+39755728
3059.19+39667508+40168536+40771040+40899300+40763720+40796256+40792060+40296876
3054.05+39439968+38775360+38564472+38639568+38772600+38854300+38865824+38900612
3048.91+39079140+39285284+39147652+38488908+37651480+37156968+37155768+37450664
3043.76+37902200+38471872+38998508+39297524+39433484+39535976+39438284+38885492
3038.62+38031236+37341928+36985320+36688336+36294704+36118228+36469044+37066348
3033.48+37302488+37035784+36739632+36822924+37180460+37519476+37748120+37870068
3028.34+37824020+37645852+37529552+37596448+37787928+38012052+38213164+38324824
3023.19+38336216+38361884+38494064+38671596+38779440+38780756+38662596+38401104
3018.05+38091796+37956524+38081596+38280924+38380352+38535680+38989992+39587700
3012.91+39856068+39640028+39281444+39067500+38910092+38732892+38714660+38904208
3007.77+38997076+38810872+38647240+38881896+39415604+39789332+39734840+39446568
3002.62+39309164+39453040+39680596+39843348+40081624+40533524+41023120+41292896
2997.48+41378660+41521132+41833024+42255640+42686164+43013268+43160184+43220304
2992.34+43427120+43920444+44586060+45134548+45327732+45210860+45143216+45477104
2987.20+46176124+46842500+47155712+47224872+47471264+48139644+48981772+49544160
2982.05+49759480+50008488+50545820+51156088+51539776+51760748+52077884+52552360
2976.91+53042172+53461268+53886756+54442188+55167132+55956352+56618048+57009820
2971.77+57166020+57320056+57757872+58552252+59461392+60185628+60664356+61050504
2966.62+61528836+62277756+63358536+64435656+64894020+64535200+63924544+63769024
2961.48+64149096+64603504+64837248+65048780+65567232+66305524+66738768+66500900
2956.34+65840136+65288532+65009020+64777320+64435656+63983108+63342868+62467384
2951.20+61623252+61167592+61092728+61113352+61161764+61436728+61973664+62445784
2946.05+62510128+62211224+61925112+61921952+62127340+62325580+62473948+62674048
2940.91+62944736+63174280+63302048+63436400+63777164+64426904+65221176+65775552
2935.77+65816420+65472268+65149936+65079532+65091452+64942036+64754832+64904116
2930.63+65414136+65807176+65771912+65607980+65697232+65900344+65921988+65874796
2925.48+65955200+65947052+65603604+65147744+64892080+64739032+64513196+64338796
2920.34+64252392+63891372+63016992+61956304+61158124+60667508+60327528+60134940
2915.20+60094192+59947824+59386952+58469852+57605744+57101484+56839960+56550020
2910.06+56244628+56132796+56123484+55782336+54935376+54015744+53583224+53636408
2904.91+53631332+53150436+52353396+51710276+51484228+51640964+52065320+52523360
2899.77+52568544+51992136+51332708+51399232+52232484+53044708+53224880+52892572
2894.63+52393260+51757972+50864324+49815696+48938488+48479952+48401828+48515036
2889.49+48754236+49134080+49496388+49618940+49578048+49615688+49675280+49532092
2884.34+49286888+49205960+49202700+49042188+48864692+48960428+49238884+49434032
2879.20+49568164+49749828+49826196+49625336+49295208+49113940+49180876+49459968
2874.06+49901956+50389544+50710560+50641644+50107300+49315592+48661040+48362776
2868.92+48262116+48049488+47549352+46805160+46124704+45912788+46175160+46372168
2863.77+46093516+45599292+45322796+45236976+45126492+45050068+45108076+45130820
2858.63+44968956+44716484+44422792+44007528+43621092+43620608+44004520+44291180
2853.49+44161016+43857056+43790304+44034472+44337496+44424956+44183876+43715380
2848.35+43267672+42967464+42654912+42173800+41733056+41639824+41752884+41592852
2843.20+41003428+40302760+39786812+39451608+39210408+39053824+38979316+38977996
2838.06+39008708+38909732+38573948+38227916+38168668+38260420+38127776+37790204
2832.92+37620672+37712868+37796564+37742124+37704716+37767908+37781812+37584460
2827.78+37180824+36699844+36294104+36109480+36260080+36690856+37072700+37081452
2822.63+36859476+36898908+37314956+37643448+37548136+37297336+37292904+37520436
2817.49+37715268+37770424+37778340+37837568+37909276+37807716+37398152+36839104
2812.35+36458860+36404100+36580968+36833712+36991556+36879608+36551008+36344308
2807.20+36494088+36826040+36998988+36902980+36711588+36640884+36738672+36883688
2802.06+36967700+37037940+37214024+37496460+37739368+37770544+37538064+37165116
2796.92+36813928+36476352+36048984+35628048+35453664+35517980+35580616+35623016
2791.78+35900316+36465688+37030752+37357152+37469844+37467568+37406308+37363992
2786.63+37416376+37551968+37699084+37785888+37781696+37724140+37700764+37755196
2781.49+37882900+38089640+38331540+38483148+38483868+38445840+38510132+38740928
2776.35+39166492+39701356+40058212+40007076+39693312+39507648+39713720+40322688
2771.21+41116568+41668776+41666140+41319320+41135904+41262740+41428872+41538792
2766.06+41839268+42438440+43067368+43458264+43659212+43865716+44136712+44425200
2760.92+44746208+45147308+45530792+45717384+45755068+45921576+46307744+46669412
2755.78+46868272+47116800+47555136+47953792+48143016+48391952+49038452+50018620
2750.64+51042368+51956388+52686208+53083976+53128808+53097872+53314428+53811680
2745.49+54395032+54918192+55393468+55905888+56543964+57382784+58459800+59729568
2740.35+61012652+62044192+62676112+63096296+63727472+64780360+66021848+67102616
2735.21+67998296+68962712+70151008+71477960+72796040+74054808+75305320+76631840
2730.07+78039032+79388456+80560856+81671688+82972808+84531984+86200048+87904792
2724.92+89787448+91958408+94294864+96591232+98792320+100963184+103092568
2720.42+105103408+107050960+109139304+111470824+113947656+116473152+119067856
2715.92+121702744+124274648+126863440+129717936+132837240+135853856+138556336
2711.42+141250640+144373424+147949712+151630528+155146176+158553984+162058656
2706.92+165708864+169335952+172819760+176270240+179805360+183344368+186865824
2702.42+190664336+194981696+199521696+203751696+207598160+211483184+215734048
2697.93+220258832+224771472+229105664+233306912+237533200+241853120+246161600
2693.43+250380160+254626976+259020320+263414608+267565152+271523968+275668512
2688.93+280327552+285447264+290638880+295535104+300083168+304469888+308847648
2684.43+313268032+317807392+322524064+327269600+331772736+335973280+340133184
2679.93+344570592+349372480+354334752+359129568+363567072+367765120+372050112
2675.43+376679360+381641056+386649312+391343520+395610912+399702592+403911744
2670.93+408225472+412464064+416677184+421125440+425911776+430875904+435803968
2666.43+440523200+444879072+448877440+452822208+457076352+461679072+466362912
2661.93+470947744+475521472+480195264+484844384+489237760+493335744+497332800
2657.43+501458688+505829248+510429824+515146624+519826528+524369504+528745984
2652.93+532966784+537109248+541326016+545713600+550237888+554829888+559429824
2648.43+563903296+568140160+572290240+576620224+581097024+585418304+589512576
2643.93+593663680+598098496+602741312+607374976+611842432+616148608+620488128
2639.43+625038464+629657920+634048640+638213696+642430656+646794688+651151296
2634.93+655447744+659804800+664285760+668835584+673334272+677563392+681362304
2630.43+684949440+688845120+693337280+698224576+703062976+707487168+711426944
2625.93+715190848+719154368+723296768+727350080+731355328+735581312+739917376
2621.43+743959488+747726592+751673280+755946240+760209472+764246784+768210752
2616.93+772238976+776274688+780274944+784264768+788214336+792083968+795931328
2612.43+799834240+803815872+807861696+811858496+815587072+818974720+822289984
2607.93+825857472+829699008+833664640+837715776+841829824+845793792+849410112
2603.43+852779584+856131008+859475456+862673088+865750592+868921088+872294784
2598.93+875745920+879044608+882054144+884852672+887691136+890761024+893993728
2594.43+897168576+900186624+903124288+906055104+908954368+911774464+914496768
2589.93+917094720+919530368+921821056+924108864+926650432+929614464+932813376
2585.43+935749696+938083392+939983424+941910336+944162176+946678848+949171328
2580.93+951397376+953432000+955624256+958115136+960534336+962458112+964022272
2576.43+965730560+967777792+969926080+971963200+973880512+975657536+977240512
2571.93+978772416+980526784+982526528+984445824+985962624+987101376+988210560
2567.43+989660608+991524480+993483904+995088832+996195968+997117952+998286336
2562.93+999807488+1001405568+1002744448+1003729280+1004596224+1005738880
2559.08+1007332416+1009057344+1010363584+1011082880+1011593984+1012340288
2555.22+1013404672+1014632256+1015891904+1017098112+1018185856+1019178880
2551.36+1020158208+1021141312+1022125504+1023174720+1024327168+1025487232
2547.50+1026534784+1027434752+1028183168+1028801280+1029422784+1030194816
2543.65+1031073152+1031904000+1032692096+1033577088+1034577024+1035561024
2539.79+1036446208+1037250368+1038003264+1038769408+1039670976+1040745024
2535.93+1041823680+1042666432+1043186432+1043537152+1044048384+1045028480
2532.08+1046465280+1047945152+1049038848+1049725312+1050280448+1050855040
2528.22+1051431232+1052108416+1053071680+1054229504+1055197312+1055747648
2524.36+1056084032+1056553664+1057262464+1058095168+1058935232+1059724032
2520.51+1060382976+1060869376+1061308736+1061903872+1062648448+1063294528
2516.65+1063695232+1064019328+1064485248+1065054464+1065590272+1066150528
2512.79+1066905152+1067851328+1068798016+1069554176+1070023040+1070233024
2508.94+1070372736+1070661312+1071113472+1071543232+1071808128+1071927936
2505.08+1072012800+1072180864+1072499904+1072895232+1073213248+1073417984
2501.22+1073579776+1073655168+1073521408+1073281920+1073246336+1073494272
2497.36+1073737856+1073741824+1073615872+1073523840+1073337216+1072813056
2493.51+1071971520+1071061632+1070218432+1069371456+1068498112+1067747008
2489.65+1067215872+1066746880+1066088768+1065218624+1064372352+1063725504
2485.79+1063133568+1062286848+1061063936+1059628096+1058165504+1056688064
2481.94+1055167424+1053699584+1052368256+1051031232+1049478784+1047774592
2478.08+1046223168+1044941440+1043698176+1042274624+1040754560+1039282176
2474.22+1037718720+1035832768+1033722304+1031727296+1029956928+1028215872
2470.37+1026414336+1024689664+1023012544+1021031616+1018543168+1015879552
2466.51+1013585152+1011801408+1010145152+1008158336+1005795712+1003450624
2462.65+1001505664+999865728+998033728+995702272+993125120+990773248+988785152
2458.15+986924608+984955968+982837568+980636288+978458112+976415296+974491520
2453.65+972510400+970377088+968236928+966233856+964283200+962251264+960228544
2449.15+958405440+956775168+955187712+953603968+952087232+950572160+948851456
2444.65+946848512+944770816+942898240+941282944+939782336+938366464+937179264
2440.15+936228288+935199936+933771264+931999680+930255552+928823296+927686336
2435.65+926639296+925528000+924365056+923246848+922184896+921102912+919967552
2431.15+918840192+917801920+916917056+916205440+915546816+914715200+913627776
2426.65+912450304+911387072+910503232+909778880+909165120+908569600+907946304
2422.15+907369152+906901056+906488576+906071040+905610560+904972160+904030912
2417.65+902925440+901953728+901182336+900413312+899521856+898603904+897820864
2413.15+897222272+896696896+896068352+895330944+894672960+894123776+893408000
2408.66+892377728+891316928+890528640+889906688+889184448+888339904+887504320
2404.16+886691648+885824320+884844608+883741248+882581440+881502144+880537280
2399.66+879543040+878391168+877113344+875800768+874523392+873379328+872439680
2395.16+871574272+870510656+869120000+867525120+865900160+864293376+862694592
2390.66+861133056+859594112+857965376+856218496+854545344+853105664+851739776
2386.16+850178432+848439744+846727040+845063744+843301952+841390912+839375808
2381.66+837269440+835128192+833087168+831158016+829143872+826882496+824427264
2377.16+821941184+819529920+817159168+814693888+812096448+809559424+807257600
2372.66+805050112+802687232+800200832+797778624+795382976+792796288+789977472
2368.16+787086656+784250688+781500160+778851264+776303360+773801088+771261504
2363.66+768626048+765916480+763245632+760717312+758340672+756094464+753980864
2359.16+751925312+749769920+747488000+745262080+743257536+741426688+739604992
2354.66+737694976+735739456+733867136+732154112+730522560+728855168+727121856
2350.16+725295936+723244672+720857472+718184256+715315136+712263808+709046272
2345.66+705751360+702500480+699448768+696737856+694298176+691830592+689163264
2341.16+686453120+683881984+681355968+678696256+675942016+673298560+670902528
2336.66+668711744+666552896+664255808+661804160+659308096+656809152+654244352
2332.16+651628992+649119424+646829440+644706880+642632960+640553536+638439936
2327.66+636230912+633918784+631639488+629529536+627493440+625292672+622901440
2323.16+620565504+618440320+616409856+614337088+612221248+610030848+607668480
2318.66+605198720+602851072+600723584+598706240+596680192+594577344+592323392
2314.16+589947904+587654272+585564992+583534720+581385408+579154496+576960704
2309.66+574791360+572553024+570194816+567721856+565243904+562992512+561093760
2305.16+559329600+557310208+554881216+552255680+549757184+547545728+545537984
2300.66+543493312+541225856+538776512+536360288+534153088+532179584+530321888
2296.16+528363456+526114400+523613536+521122496+518808960+516564608+514228864
2291.66+511848000+509581376+507493728+505537280+503614048+501571200+499306400
2287.16+496937792+494686208+492565280+490384224+488082496+485811200+483636960
2282.66+481401632+478988928+476555584+474361504+472455808+470637728+468685280
2278.16+466546816+464318816+462120896+460036768+458114656+456327744+454540864
2273.66+452596864+450449888+448183072+445921440+443766272+441776448+439963136
2269.16+438284768+436642112+434890944+432923744+430801120+428750816+426936736
2264.66+425248352+423376544+421128576+418639328+416271008+414282304+412587872
2260.16+410872160+408924800+406809920+404718784+402772576+400982208+399283872
2255.66+397542304+395605184+393445920+391261888+389347488+387816640+386440832
2251.16+384849344+382912736+380861600+378974816+377292192+375681856+374068288
2246.66+372450528+370798720+369057664+367221408+365350432+363543168+361877312
2242.16+360298272+358630240+356808416+355014912+353430656+351977632+350472512
2237.66+348885856+347256768+345525408+343659904+341791808+340049472+338419136
2233.16+336898656+335541920+334245760+332756352+331017920+329264320+327698272
2228.66+326270016+324803360+323161696+321360576+319638080+318255840+317112448
2224.17+315791360+314098976+312286080+310638784+309152640+307723584+306334528
2219.67+304961088+303516896+302001376+300534176+299198560+297946560+296670752
2215.17+295285920+293761888+292129728+290496768+289018752+287772064+286617184
2210.67+285306720+283791264+282259072+280795264+279235328+277518432+275950432
2206.17+274850080+274075200+273142688+271787776+270217824+268784928+267541840
2201.67+266257680+264799840+263313792+261981744+260810848+259717552+258608176
2197.17+257353552+255917696+254514032+253396368+252510784+251596288+250543488
2192.67+249398976+248146672+246757200+245358752+244127792+243076144+242074528
2188.17+241032208+239964816+238933584+237927968+236842336+235618672+234353632
2183.67+233160496+232014656+230870400+229774256+228746208+227707360+226635392
2179.17+225596448+224579664+223510992+222412064+221354976+220333536+219361152
2174.67+218539296+217845312+217055360+216028928+214865824+213691344+212512224
2170.17+211326192+210177504+209088080+208074560+207163968+206322480+205492720
2165.67+204703744+203972528+203150112+202109392+200989888+200021648+199220176
2161.17+198426176+197523408+196486320+195399600+194490800+193906080+193418064
2156.67+192603536+191344160+189943200+188761696+187918320+187320928+186819136
2152.17+186296016+185694464+184993088+184202192+183397824+182662544+181966768
2147.67+181204928+180365712+179543568+178771344+177973936+177127808+176343824
2143.17+175723024+175167088+174428976+173411776+172335776+171467696+170782240
2138.67+170091536+169406192+168873968+168445232+167896240+167141232+166270576
2134.17+165393392+164628608+164052928+163509456+162728288+161752976+160917856
2129.67+160321568+159708736+158947296+158227440+157713120+157316768+156862928
2125.17+156285920+155653728+155079104+154544496+153859552+152942112+152024832
2120.67+151374944+150955616+150570000+150149952+149708512+149211392+148648320
2116.17+148065584+147467312+146855680+146306800+145849904+145366768+144768960
2111.67+144118784+143518576+143017296+142631456+142270096+141738560+141003968
2107.17+140306448+139831104+139519888+139287216+139117184+138843552+138223840
2102.67+137317296+136446992+135749520+135100064+134469680+134018416+133825440
2098.17+133748008+133569408+133167544+132607616+132087096+131693592+131271632
2093.67+130673776+130008648+129460424+128992088+128447656+127836864+127298768
2089.17+126881368+126532296+126250248+126066544+125922712+125706200+125379016
2084.67+124968040+124466968+123851864+123148472+122399624+121626680+120916184
2080.17+120442000+120248072+120093184+119683680+119014744+118364768+117992336
2075.67+117909808+117877208+117594520+116995056+116342632+115919688+115699648
2071.17+115484872+115227464+114990280+114723600+114328048+113857560+113425664
2066.67+112989280+112413144+111706336+111037600+110530312+110168944+109900296
2062.17+109721336+109611400+109437584+109072920+108612264+108311760+108261552
2057.67+108272624+108128104+107789272+107301960+106723880+106188040+105842232
2053.17+105639448+105373640+104928472+104354808+103728976+103116992+102640856
2048.67+102374088+102199920+101936176+101588752+101318176+101164136+100964792
2044.17+100560736+99975704+99367104+98878152+98561936+98368800+98195096
2039.68+97991360+97804944+97663048+97468760+97126328+96709824+96351960+96020232
2034.53+95579144+95041136+94587688+94349168+94267352+94151736+93829744+93327496
2029.39+92916976+92838680+92967896+92929672+92543032+91963712+91418920+91013976
2024.25+90784256+90715520+90676104+90483736+90080096+89566616+89076504+88660360
2019.10+88288448+87926944+87604240+87395680+87321304+87299912+87190488+86875280
2013.96+86360776+85840760+85571960+85585472+85624664+85460296+85156304+84905280
2008.82+84729056+84509400+84226664+83990112+83833000+83639576+83308496+82907416
2003.68+82594856+82425352+82299512+82121448+81926728+81779464+81619344+81329672
1998.53+80945408+80638680+80480608+80349376+80127888+79859248+79619912+79313256
1993.39+78740496+77910176+77170344+76896736+77049384+77213776+77109072+76859672
1988.25+76708632+76706312+76782992+76870560+76842672+76580240+76195320+75935392
1983.11+75853736+75841392+75908016+76069024+76065352+75633592+74967328+74525664
1977.96+74448720+74503312+74483040+74389960+74287600+74209800+74130648+73947464
1972.82+73590280+73160168+72830952+72629584+72428584+72095104+71564680+70868088
1967.68+70197696+69853016+70004384+70515728+71024536+71234040+71116720+70841256
1962.54+70553888+70304720+70112128+69947704+69724192+69468672+69415064+69709824
1957.39+70118336+70248272+69960016+69392024+68739312+68215512+68047240+68247544
1952.25+68481592+68387464+67975400+67588008+67484552+67592280+67661784+67520824
1947.11+67139248+66631336+66248460+66152124+66053724+65399184+64162100+63159820
1941.97+63195156+64106204+65060204+65565288+65735796+65776648+65709040+65558972
1936.82+65419740+65300940+65195156+65241240+65556420+65946688+66068560+65850596
1931.68+65509108+65199900+64905212+64622712+64416332+64287996+64176436+64068164
1926.54+64016276+64072780+64158572+63967188+63207552+62098572+61313560+61271092
1921.40+61800940+62517776+62895300+62110944+59887800+57591576+57257804+59122944
1916.25+61341464+62402680+62510980+62464724+62482564+62489612+62553112+62641508
1911.11+62557720+62258808+61874968+61511964+61309920+61456272+61894396+62269740
1905.97+62324000+62157080+62021972+62034596+62100028+62069312+61966620+61965648
1900.83+62078052+62072588+61820356+61488420+61299488+61326788+61516336+61667672
1895.68+61509904+61065428+60745992+60843292+61190156+61462696+61419252+60753148
1890.54+59313976+57679872+56946500+57618580+59077372+60347532+60997360+61166980
1885.40+61094548+60881864+60612072+60458028+60577988+60939004+61317928+61482968
1880.26+61377148+61145744+60988624+60944588+60886232+60759096+60699896+60829820
1875.11+61079984+61294388+61339892+61161524+60904920+60736896+60252572+58581088
1869.97+55674164+53035400+52343008+53639912+55641980+57362436+58582180+59275916
1864.83+59481872+59564556+59942120+60572284+61035584+61074040+60847288+60662048
1859.68+60602368+60539776+60444444+60472708+60693952+60996876+61283468+61502868
1854.54+61562692+61467796+61380668+61323632+61137740+60880652+60814292+60858208
1849.40+60605648+59978260+59433020+59433868+59750904+59038832+55610520+49795792
1844.26+45243592+45852348+51013280+56404640+59214460+60031980+60365120+60666900
1839.11+60810532+60722464+60314428+59774556+59698048+60302048+61024424+61259320
1833.97+60944588+60376528+59865608+59281244+57795180+54945408+52109768+51654244
1828.83+54176296+57811776+60280588+60408544+58297320+55450084+54173156+55478884
1823.69+58033812+60017552+61016168+61528348+61776296+61726408+61485996+61129852
1818.54+60633668+60141604+59905384+59980320+60246992+60587204+60868524+60945316
1813.40+60741020+60187564+59214216+58042296+57317024+57604288+58734388+59901020
1808.26+60491748+60655992+60884416+61253864+61450192+61369136+61091396+60393744
1803.12+59042464+57510792+56548440+56067444+55424320+54770276+55059352+56581008
1797.97+58387948+59379068+59358104+58983072+58857028+58421748+56037188+51077620
1792.83+45837780+43951716+46401072+50766560+54607860+57397676+59264516+60133844
1787.69+60393992+60599456+60295508+58753288+56786688+56162084+57250664+58757896
1782.55+59448300+58913872+57415968+56035256+56037432+57350328+58714752+59461268
1777.40+59723748+59325248+58246432+57399132+56760412+53906216+47131020+39257680
1772.26+35725184+38654320+45127212+50998312+53752084+52960724+50582260+49974580
1767.12+52613364+56480172+58865996+59370344+59168276+58466580+56107508+51831392
1761.98+47977412+47754216+51508144+56176492+58902840+59339916+58190096+55887856
1756.83+53729120+53844804+56396768+59049248+60267732+60363180+58770736+53948768
1751.69+47331616+43813636+45816352+50094752+52746620+53629880+54514736+55972448
1746.55+57492868+58689912+59255428+58933140+58130976+57931204+59069612+60711788
1741.41+60478160+56844072+51931992+50284072+53549380+58589812+61956304+62737320
1736.26+60153008+52245412+39417520+27511338+24287602+31756416+44244860+54362380
1731.12+58652224+58522440+57679872+58522688+60671880+62637376+63749704+64213744
1725.98+64269276+63884568+63041524+62061060+61572644+62023300+63169412+64177164
1720.84+64186516+62433028+57814924+49409668+38861260+31700710+32954092+40529080
1715.69+47511872+50839584+53267420+57418144+61970260+64780480+65866652+66009324
1710.55+65516160+65198564+65981596+67091548+66728428+64503600+61795604+60146212
1705.41+60118568+61248524+62954444+65379244+67719376+65842692+55222896+38260536
1700.26+26587350+30754090+47515964+64159172+70941248+65600072+53484356+46137348
1695.12+52495100+68638944+83479920+91639232+95326912+97955504+100165424
1690.62+101769704+103765056+106818616+110329168+114108800+118260480+120253576
1686.12+115500200+103344552+91281312+89853928+101364352+118406224+133326240
1681.62+143383600+149391424+153507712+157663936+162488256+167515744+171858944
1677.12+173900512+171913104+167133040+165237856+171308992+183065184+193246784
1672.62+198021824+199526112+200976880+202180816+201683712+201346272+205379280
1668.12+214721824+225557296+234079312+239936112+244596288+248349440+250094496
1663.62+249712384+249679568+253365792+261303888+270491936+278016640+283673216
1659.12+288661440+293526656+298162176+302349056+305418272+306142912+302875072
1654.62+293525536+277763936+261967360+259201152+276232768+303296416+325749376
1650.12+337650176+341081696+340161568+337574368+334151296+330248064+327997728
1645.63+331238176+340860480+351989824+359082016+361568480+362371136+363124320
1641.13+363443520+363317952+363010080+361672448+358596544+354220896+347825472
1636.63+337147424+323560544+314809824+317005760+325768960+331989056+332098400
1632.13+328312768+323196256+317437376+311019808+303635392+294744608+284865408
1627.63+275897632+269216192+264179392+258600560+250138944+238329712+226150688
1623.13+217998096+214887072+213528288+210638928+205877600+200606768+195272176
1618.63+187906432+175574784+159166352+146425776+145445280+153817968+161678928
1614.13+163891616+162542320+160714688+158906768+156930304+155185232+153594304
1609.63+151814336+150258464+149337120+148623936+147788544+147157408+146825520
1605.13+146410304+145776816+145028592+144139792+143304288+142943936+142955696
1600.63+142827200+142551920+142432448+142298544+141899200+141492368+141217520
1596.13+140706464+139989328+139751680+140223456+140885600+141460384+142097552
1591.63+142679376+142955952+143119984+143481760+144061232+144943264+146278176
1587.13+147750384+148912752+149892800+150933760+151802784+152435520+153274288
1582.63+154357472+155233088+156001504+157091552+158275120+159255856+159941792
1578.13+158462096+151466144+139563424+130893872+134095096+147080112+160002000
1573.63+167099104+169691552+170907184+171024944+168197728+162405008+157340720
1569.13+157390144+162808640+169723072+174483216+176005552+175040752+173260464
1564.63+172510208+173497056+175330352+176231664+173540080+164190832+147931680
1560.13+130000472+117606248+113487104+116735088+127143304+142399936+155045504
1555.63+158439280+153645280+148329472+148905520+154636736+160307264+162092512
1551.13+159963216+156648208+155021328+155791680+157517168+158481488+157724080
1546.63+154614848+149132976+143195760+139703456+138431408+135161904+127285104
1542.13+117869216+111043200+105181808+96374200+87616672+87868648+99701632
1537.63+114903624+124934832+128089008+126485776+121521960+114143704+107408784
1533.13+105337904+108454416+113134528+116117552+117044872+116426104+114078520
1528.63+110685088+108211712+107095928+105390016+102272256+100024712+100726736
1524.13+102660688+101815536+95899696+86391256+78101448+76486552+83184568
1519.63+93819888+101461824+102327384+98548088+95846232+97640048+102243272
1515.13+106461528+108937800+109219616+107017560+103730456+101946336+102100320
1510.63+102043072+100323832+97072080+91712424+82820816+71079160+60902612
1506.13+58141148+65440524+79507000+93557400+102612728+106155144+106665280
1501.63+106679304+106842464+105940776+103107936+100021976+99094600+99151000
1497.13+96665608+92342832+92039384+98606696+107433256+113179376+115379856
1492.63+115734816+114372288+111056384+107660200+107013952+109792720+113866160
1488.13+116847664+118703664+121463160+126250248+131636632+135713728+138414880
1483.63+140681712+142641696+143955056+145117216+147067824+149943184+153202464
1479.13+156517424+159504672+161107664+160754912+160090768+161680064+165251424
1474.63+167330336+165692480+162449216+161963024+166710080+175749008+185997408
1470.13+194285072+199310608+202122160+204345088+206284336+207036720+205704992
1465.63+202575984+200142192+201828448+207856240+214316992+218105040+219928736
1461.14+221168240+221066928+218809488+214925504+208835440+199120384+188770384
1456.64+185988496+195000400+209886752+222195504+229001552+231808672+232520000
1452.14+232280096+232146720+232804944+233715264+233471904+231380080+228605424
1447.64+227415488+228895360+231801664+234086352+234963056+235026544+234898928
1443.14+234529952+233803600+233009072+232287504+231315024+229976576+228256352
1438.64+224738784+217109824+206128288+197695696+197395088+203214544+208286032
1434.14+209086352+207031472+204374320+201641360+198433472+194473808+190022336
1429.64+186278048+184420832+183780736+182556864+180357840+178055424+175504832
1425.14+171764496+167295248+163692736+161571408+160396576+159199248+155851024
1420.64+147920144+136704272+128506040+128374592+133803784+138675968+140591632
1416.14+141114928+141688768+142174752+142240784+141922208+141129696+139871520
1411.64+138642144+137906928+137614448+137549120+137678656+137975184+138233072
1407.14+138096672+137124368+135232320+133359728+133009112+134512000+136391504
1402.64+137106592+136596736+135374800+133085248+129329024+125314584+123065208
1398.14+122948896+123326640+122504880+119833048+115592008+111217048+108990376
1393.64+109900552+112280536+113716000+113463304+112285384+110897600+109226080
1389.14+106596360+102518808+97940424+95207664+95592848+97584184+98926384
1384.64+99171168+99087544+98896704+98369912+97667120+96984976+96171512+95287656
1379.50+94775408+94792928+95076312+95370496+95364568+94560536+92850520+90907912
1374.35+89659416+89717640+91280200+93953736+96756152+98831784+99980536
1369.85+100311944+99979680+99535352+99691120+100394128+100891504+100762008
1365.35+100036104+98521992+96127296+93697752+92411248+92395720+92932632
1360.85+93750920+95062744+96595672+97599384+97733256+97277328+96600008+95915632
1355.71+95434944+95300624+95384568+95370120+95051400+94484160+93890320+93455880
1350.57+93206512+93056920+92925856+92806256+92785416+92935344+93127456+93108600
1345.43+92904768+92893304+93225752+93474504+93126968+92171008+90935136+89687120
1340.28+88661344+88150184+88255592+88740944+89269976+89649208+89858480+90036392
1335.14+90369456+90836848+91155400+91083704+90668720+90150160+89765912+89654864
1330.00+89819328+90158272+90556400+90890304+91010896+90857288+90563424+90335472
1324.86+90273528+90351848+90470320+90523760+90498888+90410472+90118752+89442776
1319.71+88543848+87867048+87568096+87358568+87025376+86722256+86581872+86391256
1314.57+85902800+85291768+85074632+85532776+86334968+86866056+86875280+86589128
1309.43+86257184+85935480+85724544+85815576+86186032+86526576+86581632+86427024
1304.29+86388072+86722864+87333104+87819456+87889184+87605704+87209176+86938712
1299.14+87039280+87589120+88284392+88747960+88997744+89257176+89515776+89657208
1294.00+89790272+90068768+90421184+90730672+91029128+91322456+91523904+91667448
1288.86+91938560+92433936+93080968+93771272+94422208+94973984+95422840+95839072
1283.72+96356040+97117176+98106696+99068992+99758672+100210224+100595400
1279.22+100982872+101442624+102163608+103241176+104528072+105829448+107033824
1274.72+108026712+108757432+109415936+110310872+111559568+113057800+114654520
1270.22+116216232+117630600+118878184+120073432+121406128+123048432+125016168
1265.72+127080592+128935328+130513400+132006104+133597472+135347104+137319312
1261.22+139636528+142356336+145379072+148513360+151597616+154563680+157436752
1256.72+160281632+163147968+166052512+169031328+172208944+175746704+179634128
1252.22+183602176+187365568+190924512+194510928+198295456+202248720+206271808
1247.72+210329952+214457024+218668448+222918272+227185824+231577552+236276880
1243.22+241347904+246659248+252016320+257353552+262790960+268491936+274434976
1238.72+280390912+286242784+292216992+298575808+305108800+311225888+316669504
1234.22+321906624+327651744+334112704+340883840+347481440+353768512+359890048
1229.72+366051968+372401504+378891776+385197856+391004928+396412128+401849536
1225.22+407585792+413553696+419585568+425570400+431378304+436901024+442165728
1220.72+447249376+452112576+456645440+460821952+464740384+468542688+472310144
1216.22+475967584+479301056+482128224+484450400+486447712+488372960+490375936
1211.72+492340192+493951776+495022336+495668128+496085472+496266240+496031520
1207.22+495271008+494043616+492520608+490841248+488970688+486690208+483814304
1202.72+480402016+476678720+472789568+468758688+464611488+460351744+455832448
1198.22+450843936+445376384+439639488+433810464+427905952+421921440+415919232
1193.72+409934688+403907968+397783584+391620064+385554080+379671968+373946752
1189.22+368325888+362826432+357454048+352084448+346564832+340921984+335363872
1184.72+330105152+325265344+320831264+316641472+312538784+308562528+304842720
1180.22+301324064+297816736+294292000+290926112+287849664+284989600+282171680
1175.72+279348480+276717504+274463552+272413856+270216192+267885568+265783344
1171.22+264060144+262537680+261099904+259745312+258381184+257000304+255824880
1166.72+254934000+254118112+253350368+252857488+252527344+251907280+250946992
1162.22+250076224+249509760+249123488+248911952+248916096+248836704+248355296
1157.72+247655744+247158752+246950912+246869456+246930240+247316336+248025952
1153.22+248782144+249326880+249757792+250476960+251783904+253594240+255588000
1148.72+257495584+259250384+261046896+263195936+265757376+268452160+271093024
1144.22+273843936+276851360+279928832+282838208+285656352+288747776+292475488
1139.72+296901696+301630624+306141280+310350272+314610432+319167872+324011296
1135.22+329163296+334658400+340315872+346001792+351952992+358427840+365279392
1130.72+372285728+379582432+387367744+395463552+403539776+411591136+419907456
1126.22+428659616+437667040+446580800+455310272+464199616+473625792+483529920
1121.72+493582592+503680448+513955296+524417216+534926048+545431296+555986752
1117.23+566610112+577256832+587854656+598328320+608744128+619321664+630110784
1112.73+640797568+651061184+660971712+670867136+680962240+691136448+700957056
1108.23+710021440+718470656+726932800+735701504+744252416+751923072+758790336
1103.73+765531968+772618752+779924160+787013952+793600512+799700160+805454336
1099.23+810986816+816475456+822070336+827574528+832549568+836950592+841224256
1094.73+845615872+849911936+854040128+858303360+862804224+867228672+871354624
1090.23+875311616+879266816+883159872+886740288+889765440+892267392+894564992
1085.73+896859648+899040384+901041728+902923712+904472704+905343104+905709056
1081.23+906081664+906419840+906117248+904825856+902616000+899548160+895733824
1076.73+891578880+887447104+883307264+878959104+874204096+868670912+861976384
1072.23+854255104+846126144+838017664+829772544+820975680+811442624+801196416
1067.73+790086208+777774656+764297536+750371136+736801536+723764928+710866752
1063.23+697641088+683856384+669659200+655556288+641968064+628791296+615665984
1058.73+602558720+589769856+577499264+565593664+553657792+541444672+529241344
1054.23+517605856+506583136+495625920+484489344+473583552+463204672+453095072
1049.73+443011520+433112256+423597120+414512768+405960672+397951680+390126272
1045.23+382167776+374374048+367238080+360556416+353580064+346104288+338846496
1040.73+332529536+327035264+321751648+316362656+310889120+305312000+299705408
1036.23+294512960+290091456+286100832+281861184+277230112+272702720+268703968
1031.73+265181536+261861104+258598400+255449680+252537632+249895552+247444464
1027.23+245084896+242756976+240420912+238117888+236064096+234534848+233605248
1022.73+233047712+232474736+231635232+230638480+229791168+229170000+228551520
1018.23+227892992+227569008+227870672+228531200+229068800+229410848+229894400
1013.73+230773616+231986608+233377632+234925712+236701888+238723408+240979728
1009.23+243611616+246894544+250914896+255398944+260032080+264867136+270213472
1004.73+276200608+282746976+289932608+298057536+307172192+316809824+326454048
1000.23+336153984+346414560+357513856+369217664+381168512+393266880+405564736
995.73+418097120+430928096+444078272+457298624+470213920+482711328+494809216
991.23+506092032+515732512+523158048+528296544+531196000+531835328+530278144
986.73+526578496+520575552+512172064+501775424+490156224+477918432+465265472
982.23+452154368+438543136+424578848+410601728+396917088+383628256+370754592
977.73+358395936+346675168+335571072+324842720+314212608+303731488+293854976
973.23+284934304+276797664+269101056+261816656+255030816+248634544+242584704
968.73+237093040+232217488+227665632+223225792+218971520+214985440+211351856
964.23+208310496+205899904+203647888+201144240+198644448+196637680+195126736
959.73+193774608+192456752+191271664+190254704+189389168+188742416+188342224
955.23+187955216+187225360+186132880+185126288+184625040+184558768+184630224
950.73+184742576+184894640+184996304+185062464+185196560+185221120+184841152
946.23+184250112+183971408+184069696+184175968+184200000+184367760+184652416
941.73+184765456+184652416+184586944+184812224+185273440+185657360+185708160
937.23+185518816+185353040+185278880+185256880+185399568+185763216+186185616
932.74+186690208+187608880+188872256+189724944+189586400+188792384+188181264
928.24+188262640+188898144+189585104+190059232+190626240+191653152+192873200
923.74+193671600+193929696+194068960+194417984+194960400+195502592+195849520
919.24+196056496+196527760+197497152+198539344+199086544+199216400+199427344
914.74+199878208+200303392+200522416+200712384+201244544+202310240+203634448
910.24+204667088+205134816+205231264+205274832+205454080+205845600+206406720
905.74+206983024+207522768+208120416+208749376+209214688+209447232+209572528
901.24+209661216+209692896+209750704+209985152+210374432+210735248+210995088
896.74+211313488+211849840+212471872+212834656+212807392+212621600+212499360
892.24+212379120+212166528+211963376+211870512+211852064+211930640+212175536
887.74+212352528+211973456+210889984+209600528+208786128+208684928+208957840
883.24+209042960+208649360+207995728+207540528+207484736+207622048+207637104
878.74+207387376+206886208+206153504+205173568+203979296+202818976+202143408
874.24+202187728+202528944+202385424+201532448+200604688+200229952+200202224
869.74+199884576+199152384+198440640+197972912+197487776+196835360+196389088
865.24+196533616+196933488+196720080+195526224+194016128+193141968+193078016
860.74+193205664+193027696+192676832+192576576+193037168+194163184+195710656
856.24+196931152+196934912+195465056+193234208+191459104+191104896+192258864
851.74+193892720+194488080+193469040+191900496+191285424+191911648+192982544
847.24+193850400+194264560+193963968+193054256+192389584+192577872+192991360
842.74+192635744+191606480+191066800+192028064+194517664+197642624+200202224
838.24+201359696+200983776+199676432+198468832+197910608+197398224+196039968
833.74+193884656+191495008+189081952+186962816+185923856+186133264+186928016
829.24+188270016+190470000+192003824+190153264+184720112+178914160+175898704
824.74+176114608+178004176+179670336+179871968+178632240+176878848+175292960
820.24+174091168+173491776+173286160+172532800+170757744+168742480+167319328
815.74+166409040+165709360+165116352+164298112+163105424+162219952+162201808
811.24+162371552+161801728+160732688+160052512+160093072+160569216+160954624
806.74+160603552+159259328+157609664+156714544+156780016+157035888+156757584
802.24+155967904+155103424+154507088+154500080
##END=
