##TITLE=octarelline 6 front
##JCAMP-DX=4.24
##DATA TYPE=INFRARED SPECTRUM
##DATE=31/1/2005
##TIME=16:31:17
##SAMPLING PROCEDURE=film
##ORIGIN=Vincent
##DATA PROCESSING=no operation
##XUNITS=1/CM
##YUNITS=ABSORBANCE
##RESOLUTION=2
##FIRSTX=4000.283
##LASTX=800.31372
##DELTAX=-0.64282227
##MAXY=0.15049446
##MINY=0.0057197288
##XFACTOR=1
##YFACTOR=1.4015888e-010
##NPOINTS=4979
##FIRSTY=0.0066451873
##XYDATA=(X++(Y..Y))
4000.28+47411816+46422712+44870220+43547568+42837392+42809304+43419828+44425776
3995.14+45369076+45739992+45279304+44358892+43840716+44124332+44606392+44540440
3990.00+44042844+43749864+43829096+43892224+43628860+43129908+42707060+42619056
3984.86+42880464+43261756+43476392+43408968+43195456+43140960+43433692+43863568
3979.71+44054452+43927072+43727572+43681308+43905908+44433648+45046924+45389128
3974.57+45479092+45751608+46347904+46788124+46542884+45644212+44619508+44040592
3969.43+44096044+44501092+44886708+45133692+45163300+44740176+43863196+43025408
3964.28+42779528+43338548+44619692+46222488+47445568+47848248+47637432+47157708
3959.14+46487952+45782164+45366640+45194784+44813444+43933440+42649948+41374668
3954.00+40808892+41341160+42330520+42884208+43246960+44280388+45932304+47525840
3948.86+48988660+50358876+50842472+49729712+47543660+45336840+43858508+43959664
3943.71+46323536+50005984+52589560+52603464+50829140+48766508+46865188+44836488
3938.57+42904436+41844320+41916576+42520000+43098636+43705100+44540812+45783476
3933.43+47922144+51103632+54116416+55293168+54397780+52436084+50227664+48314564
3928.29+47210964+46702624+46255672+46612632+48951132+52186644+53581760+52226836
3923.14+49546728+46956504+45516760+46600256+50069616+53183220+53962304+54135780
3918.00+56295644+59795452+61618072+60082612+56061308+51319940+47132584+44230180
3912.86+42979904+43099384+43485760+43110056+42112964+41338544+41088120+41273968
3907.72+42190660+44203392+47668004+53678164+62853088+72761952+79429024+82253080
3902.57+83828792+84714688+83231496+80469672+79781680+80635528+78273384+70598512
3897.43+60962320+53175148+47978980+44890084+43889416+44648552+46865188+51807440
3892.29+60784140+71276144+77231584+75093032+67468496+59093028+52542780+49841004
3887.15+54225612+66304848+80024640+86629896+83327880+74649152+65936936+59945532
3882.00+58568808+62951848+70723600+75961864+74236736+66833212+58461724+52240920
3876.86+48661064+48013120+51230752+57829976+64562464+67343352+64922852+60908256
3871.72+61957964+72529768+89744544+103688488+105275888+94396032+78713240
3867.22+66525428+62573208+67217088+76170648+82296328+81253936+75618736+71028968
3862.08+69269000+67486808+63327508+57807764+53098108+50613800+51112832+53658428
3856.93+56056416+60569044+76350280+109661816+151666576+181993904+189184736
3852.43+178745088+158720208+132594808+105283536+83074416+67723896+57056688
3847.93+49865404+46258672+45158804+45220832+46950132+51270376+56940816+61252976
3842.79+63181988+64709732+68080312+72306680+75019048+78571536+89388664
3838.29+107529464+121327976+119608696+106613504+94814368+88328872+82178936
3833.79+73658880+66881528+65915616+68920368+70436208+67302960+61047080+55324004
3828.65+52549360+52925076+55160052+57229020+57319136+55112680+51893828+49508256
3823.51+50548656+58770964+75963008+97094832+111432064+111597696+99692616
3819.01+83251992+70031536+67101388+78176208+97910768+112146840+109973736
3814.51+94450864+76303328+62101352+52498640+46570444+43712592+42847880+42809120
3809.36+44316172+50552224+64203420+82499640+96016584+96264632+85010624+71526192
3804.22+62675172+61024288+69102992+88006024+110729336+123194648+117385464
3799.72+99258544+80098368+66957012+62078360+64276960+68797816+69789552+65283852
3794.58+58125604+51804816+47583040+45250260+44299120+44059516+43963600+43854576
3789.44+43668756+43309516+43048820+43388368+44506712+46382212+48889216+51147384
3784.29+51771196+50520688+48535180+46674880+45555180+47065640+52833968+60608220
3779.15+65164268+63948688+59259260+54367144+50473568+47623364+45833332+44869844
3774.01+44435144+44405728+44545500+45316040+49044008+57738140+68943600+76122376
3768.87+74870888+67483592+60308780+58055028+60708224+64330324+64728604+61064780
3763.72+55775464+51444628+49020744+48967268+52455808+59800736+67993664+72068488
3758.58+70445288+66919268+65520208+65803740+64817796+61570400+58489956+60986240
3753.44+75059920+100199800+124343328+134501072+134460768+138442848+148285840
3748.94+150415616+136014048+112698408+93871320+89705760+106505880+140878784
3744.44+172477280+176693680+152395360+119971704+94654600+78358992+68475304
3739.94+63359180+62016184+64621864+72658528+85775528+100152880+111416184
3735.44+116919752+115359720+108467488+102486712+102707792+106422728+105363784
3730.94+95817904+82074056+69722120+61130532+57454024+59685688+66159180+72178504
3725.80+74023176+71908568+68454904+66208060+66626576+69076736+70520096+68422992
3720.66+64038816+60742704+59669120+59066872+57379900+55016796+53276980+52851248
3715.51+53217240+53533660+55384736+63402912+79673656+97716912+106796832
3711.01+104366328+98181656+94383832+90875944+83718736+73955080+65355716
3706.51+59615460+56150256+53934864+52308732+51766320+54201552+60589576+68350688
3701.37+72666464+71029536+65467960+59899584+56438956+54778800+54069808+53965684
3696.23+53939752+53241472+52008220+51219852+51778336+55035792+62746596+73824944
3691.09+83206640+88416280+94925392+108589720+124312752+128897280+116979776
3686.59+96889032+79056152+67113096+59882268+55606044+53165568+51979472+52013284
3681.44+53547940+56832080+61610344+66257484+68536096+69284104+74495352+90639176
3676.30+116737752+141872992+152680720+144592960+124126088+102476800+90092864
3671.80+92974224+108381808+124833992+131281776+126511528+115827296+102848880
3667.30+89236968+77559184+69675656+64848540+61840956+60601636+60832356+61486572
3662.16+62299776+63599348+64948128+65818836+66499008+67427728+69746104+76357656
3657.02+88612600+101635608+107266752+102950632+93627464+85303152+81452456
3652.52+84078704+93839136+109182352+127093744+143882272+155218752+158324816
3648.02+154531440+146922960+136499040+123448320+110186920+100036520+94152888
3643.52+91632416+91250440+91860328+92398000+92552328+92741480+93224688+93955648
3638.37+94965568+96182712+97254344+98120448+99410728+101962552+105986192
3633.87+110521264+113680920+114249248+113827304+117114440+129141624+150880960
3629.37+176089376+193273392+194112304+180583824+161767712+145339424+133941376
3624.87+127103376+123741432+122807992+123232696+124535008+127744800+134786560
3620.38+145784832+157307648+164743408+166471168+164062944+159294512+153528896
3615.88+148948496+147482864+149151600+153188912+159088416+164672720+166156448
3611.38+163396656+162062720+166891376+175387840+181074688+181154160+177770080
3606.88+173347488+168497072+163683056+159988896+158068656+157659360+158297040
3602.38+160017888+163075616+166915744+170018144+171384992+171682272+172108256
3597.88+172958816+174209136+176427424+179857200+183445408+185918944+187164704
3593.38+187765104+187819264+186949472+185292048+184463168+187112320+194544320
3588.88+204698048+213691968+219426384+222057568+221533024+217401184+210998432
3584.38+205114592+201230608+198882096+197574528+197708976+199548176+202372736
3579.88+204875840+206096672+206197104+206373616+207637696+209748592+211678224
3575.38+212871056+213641680+214539984+215736688+217046000+218306096+219509024
3570.88+220757056+222725328+227017664+234882640+245135008+254394592+259904464
3566.38+261187136+258945136+254191312+248747264+244707696+242814128+242371744
3561.88+242681504+243580080+244843808+246054320+246949008+247404464+247470112
3557.38+247566544+248227344+249552880+251295136+253280048+255438752+257738816
3552.88+260218016+262742544+264822320+266067824+266639456+267059136+268023984
3548.38+270371744+274373440+278979488+282668224+284954208+286261696+286769728
3543.88+286470336+285843840+285421760+285121472+284809440+284886368+285594080
3539.38+286476608+287289472+288734016+291464704+294797600+297216736+298010080
3534.88+297867488+297896768+298588192+299884128+301701760+303980224+306477696
3530.38+308953536+311449280+314012672+316324192+317959296+318915552+319499040
3525.88+319900160+320316096+321368576+323642304+326578816+328450528+328103936
3521.38+326490112+325828832+327229376+329719200+331659840+332492896+332802560
3516.88+333266272+334163072+335649984+337785920+340112288+341767680+342403712
3512.38+342684672+343557792+345368608+347978016+351169600+354316800+356268992
3507.88+356508704+356138048+356821024+358951840+361620064+364103552+366533376
3503.38+369072032+371280480+372565536+372876288+372733408+372752576+373206880
3498.88+374013888+375060576+376429792+378213184+380215360+382006752+383354176
3494.38+384490208+385802080+387250368+388332928+388802496+389189952+390263680
3489.88+392122528+394183040+395894240+397127424+398102304+399297088+401138880
3485.38+403330976+404923392+405562080+406205888+407919680+410470784+412780000
3480.88+414256576+415027456+415414304+415861824+416849440+418315712+419646432
3476.38+420585696+421605152+423144064+425011552+426594816+427334400+427270848
3471.88+427388512+428764288+431113120+433113024+434373472+435857184+438098816
3467.38+440372992+442007648+443238400+444454144+445625472+446708448+447775488
3462.88+448746624+449566912+450516096+451877280+453495296+454936000+455915520
3458.38+456562880+457332352+458513536+459915456+461304480+462781376+464249120
3453.88+465131712+465304832+465605600+466675168+468088000+469338656+470770336
3449.38+472840448+475310528+477702912+479841984+481644704+482986784+483903168
3444.88+484577952+485214848+486131872+487589536+489404384+491055328+492160480
3440.38+492624928+492600832+492574912+493013152+493821344+494628768+495537152
3435.89+496926144+498730784+500608992+502459264+504196544+505512896+506438368
3431.39+507533600+509005120+510346816+511257632+512200224+513569376+515037184
3426.89+516099072+516782560+517414784+518129280+518900384+519826784+521127808
3422.39+522887840+524876544+526656864+527980416+529105632+530465088+532010016
3417.89+533163680+533587488+533688032+534091264+534932928+535943200+537046208
3413.39+538568320+540799168+543444032+545660352+546874560+547439360+548056000
3408.89+548788160+549331840+549968576+551261760+553025984+554631872+556059200
3404.39+557576704+558842304+559366976+559424064+559568704+559848384+560205568
3399.89+560979328+562386688+564043520+565311616+565763584+565547392+565658944
3395.39+567174976+569776384+571889536+572699520+572986816+573704448+574889920
3390.89+576247616+577635264+578734144+579223040+579464448+580246336+581770560
3386.39+583470144+584815936+585871808+586958528+588106048+589159616+590236288
3381.89+591607616+593042240+593896192+594121280+594545920+595799232+597476928
3377.39+598690880+599092160+599234112+600098944+602105536+604516160+606247616
3372.89+607241856+608311488+609792064+611231040+612314688+613242432+614262080
3368.39+615498688+616989824+618420736+619196928+619203648+619049408+619359040
3363.89+620253120+621616128+623405312+625520192+627649216+629325696+630204672
3359.39+630356800+630276480+630504640+631322112+632772288+634682368+636638016
3354.89+638256064+639490368+640472896+641189504+641575040+641864576+642643328
3350.39+644344448+646620416+648416448+649024704+648900352+648969088+649428928
3345.89+649822720+649957376+650026304+650169408+650549184+651521792+653245248
3341.39+655332480+657181120+658456768+659344384+660526080+662511552+664825984
3336.89+666449664+667214912+667881536+668831744+669713152+670470272+671585600
3332.39+673208640+674939456+676446656+677630144+678421504+678975872+679706688
3327.89+680803264+682094848+683465920+684851520+685983488+686734464+687515008
3323.39+688767040+690353536+691830464+692885824+693376960+693573440+694358784
3318.89+696320832+698744768+700405184+701194368+701944768+703006400+704155264
3314.39+705570112+707702144+710380800+712928768+714917952+716218304+716824384
3309.89+717162176+717882048+718923264+719546368+719629568+720058496+721496448
3305.39+723517760+725206336+726056448+726257984+726579712+727803264+729867712
3300.89+731890240+733204992+733970240+734699456+735772800+737361024+739225728
3296.39+740647232+741073280+740709440+740208448+740149376+740977344+742803840
3291.89+744953984+746374208+746740352+746680128+746843328+747309888+747917376
3287.39+748633088+749408448+749994240+750046272+749399296+748332544+747520896
3282.89+747526528+748282304+749157120+749510848+749202944+748672064+748514048
3278.39+748842176+749163712+748979328+748327424+747533184+746683904+745771072
3273.89+745111168+745029376+745188864+744854656+743855168+742628544+741363520
3269.39+739885120+738518272+738064384+738561344+738977920+738569344+737637568
3264.89+736600768+735331648+733888832+732941056+732769600+732626176+731650048
3260.39+729913280+728121664+726719104+725671040+724796800+723988288+723283072
3255.89+722895168+722953536+723055424+722411008+720829824+719224896+718565248
3251.40+718540608+718056448+716886784+715845632+715297024+714596288+713312448
3246.90+712030400+711540160+711940224+712816576+713717952+714294400+714400192
3242.40+714138368+713529536+712326016+710420032+708211648+706329280+705153152
3237.90+704703104+704697536+704680128+704387776+703960064+703534272+702867776
3233.40+701787776+700731840+700253120+700115072+699542080+698379712+697363648
3228.90+697207936+697933824+699117888+700200320+700595072+700091904+699133632
3224.40+698257280+697498752+696738240+696100992+695508480+694521408+693200448
3219.90+692292480+691995520+691607936+690895040+690649664+691235200+691779072
3215.40+691478592+690664896+690034880+689685248+689345920+688827776+688055616
3210.90+687183488+686716928+687053696+687946880+688688448+688693952+687877696
3206.40+686643392+685517312+684672512+683950144+683267392+682664192+682026048
3201.90+681225472+680427328+679905408+679732928+679857600+680125504+680094272
3197.40+679253696+677617216+675731072+674175744+673282368+673021888+672827712
3192.90+672002560+670561536+669271616+668716288+668740352+668765376+668261184
3188.40+667071488+665566016+664256960+663324288+662854720+663136064+663986048
3183.90+664318080+663267200+661295296+659409728+658012096+657176768+657071296
3179.40+657334272+656967424+655552512+653835392+652676608+652129152+651746240
3174.90+651099008+649920192+648306496+646757376+645672576+644950144+644249344
3170.40+643366976+642291136+641219072+640537600+640433856+640556224+640363712
3165.90+639737600+638986176+638316864+637611392+636795840+636120512+635797696
3161.40+635529280+634775296+633453568+631940800+630475008+629007296+627594048
3156.90+626493504+625877504+625715008+625808384+625713600+624952256+623531968
3152.40+622063808+621223552+621202176+621510656+621256320+619924160+618045952
3147.90+616724160+616405696+616561024+616403008+615459200+613741120+611938048
3143.40+610996672+610899456+610394112+608522112+605839296+603617088+602503296
3138.90+602343616+602631616+602690176+602028864+600885632+600006336+599793408
3134.40+599977664+600044672+599607872+598488960+596808960+594996160+593587072
3129.90+592981120+593179136+593617280+593567616+592924992+592200960+591531840
3125.40+590340096+588382656+586481536+585528576+585292288+584840960+583818880
3120.90+582674944+581919360+581652672+581636224+581436096+580697408+579542592
3116.40+578455872+577688448+577079680+576505408+576027200+575470720+574332800
3111.90+572422912+570303296+568790720+568166976+568045184+567899648+567475264
3107.40+566713664+565516160+563787456+561741696+560065728+559564608+560362432
3102.90+561458048+561464320+560046464+558293312+557401984+557412352+557522432
3098.40+557204608+556524864+555801664+555298368+554931136+554142592+552532352
3093.90+550606720+549261184+548535680+547605312+546057216+544477440+543722240
3089.40+544103296+545238976+546262912+546322240+545252544+543660864+542209088
3084.90+541083968+540250112+539789248+539737600+539820736+539549312+538564352
3080.40+536939520+535221376+534016896+533480928+533340736+533379392+533567776
3075.90+533686272+533251840+532071360+530507840+529052416+527880128+526943200
3071.40+526165920+525467104+524859680+524434624+523990400+523002816+521496032
3066.91+520464672+520638816+521284896+521093760+519842976+518257856+516801600
3062.41+515527296+514605440+514062464+513477184+512636544+511954112+511683264
3057.91+511418400+510863584+510378400+510251200+510098432+509376256+508069920
3053.41+506537344+505049248+503663520+502425216+501521728+501159776+501221664
3048.91+501206016+500641792+499415968+497662080+495595392+493566816+491988832
3044.41+491025920+490485792+489998592+489304512+488466464+487766208+487235744
3039.91+486493184+485321536+484067264+483070720+482018400+480369056+478235808
3035.41+476442592+475680672+475759520+475754304+474999808+473844576+473086784
3030.91+472815712+472388416+471515680+470616256+469999712+469448256+468653664
3026.41+467521184+466027584+464266304+462565664+461241920+460366080+459834304
3021.91+459419552+458726624+457444512+455625888+453560736+451636416+450415104
3017.41+450269248+450747008+450853440+450081472+448688992+447053600+445394528
3012.91+443987520+443021696+442328224+441657824+441048640+440596320+440137760
3008.41+439329120+437907200+436017248+434453952+434111072+434881376+435569984
3003.91+435181440+433784256+432006656+430431168+429569536+429613472+429976448
2999.41+429724160+428598048+427205952+426228448+425791232+425574944+425323616
2994.91+425071744+424800352+424103968+422736384+421379520+421054112+421717728
2990.41+422277280+422048448+421402208+421005664+421142176+421660736+422067104
2985.91+421910272+421383584+421028896+420771040+420059232+419012256+418516320
2981.41+419036608+420115744+421027264+421356704+421137440+420874496+421150624
2976.91+421942912+422645536+422854720+422726400+422650688+422955712+423767040
2972.41+424860768+425871328+426679424+427292512+427584384+427619168+427915840
2967.91+428848288+430090816+431076608+431644256+431953792+432156992+432286048
2963.41+432163808+431557408+430728096+430431808+430985152+431845952+432380576
2958.91+432497408+432315328+431862048+431289760+430831456+430451584+429944832
2954.41+429295840+428543936+427464192+425826848+423881824+422268320+421363488
2949.91+420914912+420394912+419653184+419009088+418728928+418691584+418660512
2945.41+418560064+418373824+418037920+417652640+417533056+417911520+418671264
2940.91+419425440+419779040+419652192+419384864+419415072+419818592+420268256
2936.41+420405728+420164352+419791904+419597376+419578080+419321216+418502784
2931.91+417385952+416538912+416089568+415552416+414472768+413039360+411921984
2927.41+411554496+411773440+412122784+412238816+411894144+410978048+409668160
2922.91+408345312+407209536+406150272+404980032+403554336+401827648+400058784
2918.41+398695680+397810592+397082912+396429440+395933248+395141312+393371456
2913.91+390884288+388754176+387455904+386507712+385474304+384401088+383270560
2909.41+381891264+380295744+378665184+377072576+375735616+375079552+375029888
2904.91+374720384+373400480+371307744+369315040+368071232+367745792+368123648
2900.41+368605024+368481024+367597504+366553952+365961152+365721888+365302944
2895.91+364445504+363318080+362158464+361041856+359904896+358696576+357550560
2891.41+356715104+356165184+355578080+354933088+354643360+354815840+354961632
2886.91+354815232+354772576+355080544+355284352+354950464+354317216+353871424
2882.42+353808064+354116352+354709184+355289920+355530016+355461248+355416320
2877.92+355639168+356060736+356417152+356513248+356421888+356331360+356225888
2873.42+355985760+355757472+355777152+355844032+355481760+354670720+353945952
2868.92+353648416+353443968+352759232+351534496+350393600+349873472+349679104
2864.42+349061824+347903392+346823520+346184480+345693632+345153088+344795936
2859.92+344667136+344358560+343608992+342596192+341528224+340446656+339502048
2855.42+338957024+338820224+338770976+338492224+337892416+337105888+336467648
2850.92+336292416+336493344+336537408+335984064+334927648+333730720+332606976
2846.42+331716224+331299328+331235232+330812480+329492224+327670976+326164480
2841.92+325224416+324575712+324061376+323690656+323298080+322654816+321768320
2837.42+320841280+320111328+319711808+319417344+318740544+317625536+316714688
2832.92+316506848+316605632+316255648+315320032+314336448+313842464+313845344
2828.42+313805856+313141088+311871872+310621344+309860512+309431040+308903328
2823.92+308121120+307325216+306897152+306954816+307087584+306743008+305925856
2819.42+305178592+304802400+304492448+303821536+302736128+301598752+300952096
2814.92+301074816+301523232+301389280+300261984+298678912+297471264+296919136
2810.42+296663680+296212480+295393408+294484192+293913952+293799200+293834752
2805.92+293666208+293210976+292613984+292028416+291535936+291126464+290632672
2801.42+289832960+288757088+287790816+287276480+287105088+286950496+286717728
2796.92+286416640+285803904+284661216+283299168+282255488+281622368+281117120
2792.42+280621504+280217152+279919968+279716416+279602016+279356608+278665472
2787.92+277614880+276659360+276074016+275800032+275735648+275790112+275764288
2783.42+275490368+274998048+274403744+273813152+273367104+273084096+272719808
2778.92+271993472+270938240+269844576+268968000+268326080+267671408+266794816
2774.42+265938624+265571344+265656512+265655104+265348432+265038608+264780912
2769.92+264194960+263206160+262230144+261474480+260701904+259850640+259257184
2765.42+259142112+259264992+259183072+258664656+257863696+257135936+256633104
2760.92+256169488+255604000+255088176+254765936+254538752+254314624+254183904
2756.42+254117136+253838688+253161648+252199184+251147488+250097984+249141104
2751.92+248447872+248146528+248181312+248301392+248176352+247588128+246574208
2747.42+245409728+244444704+243838384+243408256+242824128+242011072+241215392
2742.92+240642704+240277824+240124544+240250256+240449440+240254864+239470832
2738.42+238443392+237657584+237280928+237130624+236827360+236074656+235006368
2733.92+234160096+233821472+233664560+233325984+232966192+232840928+232705776
2729.42+232149552+231234400+230313360+229485872+228696608+228098560+227853840
2724.92+227808704+227664592+227319152+226825712+226259600+225768928+225533088
2720.42+225551984+225616336+225488224+225041744+224384240+223843200+223571424
2715.92+223212336+222367712+221318976+220716816+220612704+220398128+219738240
2711.42+218946256+218395072+218068320+217766912+217419216+217161872+217211392
2706.92+217557472+217772880+217417424+216565664+215606784+214711168+213908032
2702.42+213434944+213415728+213363280+212662560+211496288+210702864+210700912
2697.93+211031472+211048432+210664736+210217584+209864000+209413248+208748560
2693.43+208126928+207832208+207663152+207084160+205941136+204746368+204063216
2688.93+203845824+203633408+203240336+202927376+202875328+202833904+202461456
2684.43+201784272+201161840+200899136+200944672+200888912+200325152+199375616
2679.93+198693840+198675520+198850960+198425456+197285584+196080208+195413280
2675.43+195339136+195536240+195621200+195365088+194884368+194562832+194553952
2670.93+194460928+193730672+192352560+190978816+190327696+190579888+191340464
2666.43+192001616+192043840+191257760+189989344+189003152+188775632+188958976
2661.93+188850032+188260016+187592224+187195680+187058768+186992832+186773120
2657.43+186217456+185461456+185011872+185161632+185499680+185320880+184465520
2652.93+183511632+183090144+183204784+183339792+183174432+182918128+182816048
2648.43+182628368+182005088+181177472+180740048+180752192+180610048+179929216
2643.93+179077520+178578384+178413264+178176752+177716096+177335696+177390448
2639.43+177875888+178405824+178546304+178152496+177436208+176748256+176287232
2634.93+176002592+175747888+175495360+175346224+175325504+175260224+174995424
2630.43+174641152+174478576+174630208+174941104+175135760+175008320+174592288
2625.93+174213840+174175552+174298640+174087824+173455104+172871344+172645984
2621.43+172533712+172293936+172122496+172223056+172365984+172239056+171881968
2616.93+171519856+171265520+171171056+171311392+171624096+171839024+171710960
2612.43+171283664+170903472+170872640+171040864+170942512+170454032+170031808
2607.93+170069456+170405632+170723744+171013920+171271168+171201696+170680016
2603.43+170156880+170168176+170664992+171124992+171148416+170752816+170230624
2598.93+169890160+169803136+169793968+169685296+169463312+169193136+168953632
2594.43+168864288+168973696+169132288+169185344+169197616+169273504+169316032
2589.93+169223968+169119232+169163504+169330656+169557328+169797680+169846464
2585.43+169467392+168823552+168398000+168438752+168822176+169358176+169808992
2580.93+169826368+169330864+168763664+168578592+168735568+169011552+169412976
2576.43+169953952+170423408+170651920+170680208+170529568+170193952+169875328
2571.93+169871040+170211888+170665760+170976464+170951488+170552384+170045856
2567.43+169775232+169727456+169618016+169375920+169243472+169451024+170028096
2562.93+170780528+171309824+171298896+170870688+170503792+170536400+170943872
2558.43+171472224+171809152+171800560+171646352+171700240+171977232+172166240
2553.93+172139296+172112144+172291392+172677424+173177760+173636944+173833456
2549.43+173672304+173358416+173260768+173619968+174318176+174889312+174920576
2544.93+174563568+174404512+174761328+175388240+175949984+176397888+176790880
2540.43+177124672+177475904+177970368+178516176+178852704+178944272+179047376
2535.93+179334256+179661872+179790832+179688096+179568512+179684576+180091888
2531.43+180575216+180866928+180951904+181081920+181474928+182121424+182912448
2526.93+183777952+184597440+185133024+185218704+184979904+184763664+184878176
2522.43+185428704+186224288+186842976+186981456+186780784+186640128+186724080
2517.93+186884160+187039136+187315968+187762336+188212128+188534208+188789776
2513.44+189070272+189354368+189614304+189947920+190497376+191232592+191900608
2508.94+192293424+192523936+192885968+193413152+193793776+193777248+193499056
2504.44+193284800+193331376+193669728+194249728+194940016+195541136+195949776
2499.94+196238992+196529440+196852176+197212544+197706416+198421888+199196416
2495.44+199660080+199628384+199329552+199097360+198996320+198907488+198832848
2490.94+198871264+199023104+199298848+199911232+201046960+202455120+203528848
2486.44+203893552+203739312+203550160+203612496+203853120+204038512+204032432
2481.94+203895520+203831632+204010128+204395808+204789584+205100384+205464288
2477.44+205978624+206477264+206770256+206942416+207177200+207429760+207547648
2472.94+207593072+207744928+207988848+208188960+208407600+208839072+209408896
2468.44+209730208+209580224+209242336+209217600+209653536+210222352+210532880
2463.94+210548880+210553248+210788848+211206032+211550480+211724880+211947376
2459.44+212420656+212952368+213175712+213080752+212965824+212931008+212846944
2454.94+212755936+212821392+212973536+213081952+213324128+213854000+214352128
2450.44+214480976+214515424+214905168+215478096+215727168+215607984+215453536
2445.94+215337712+215104720+214871536+214935632+215257168+215446640+215296336
2441.44+215053632+215077600+215388048+215680640+215794912+215940656+216347792
2436.94+216841376+216994672+216650416+216116688+215855296+216061056+216505648
2432.44+216761136+216610016+216227184+215932928+215887184+216075488+216396736
2427.94+216664112+216681328+216444240+216162800+216038464+216109936+216295904
2423.44+216493168+216636160+216723504+216756976+216730640+216725104+216889104
2418.94+217218912+217536096+217778016+218077408+218404608+218437264+217984288
2414.44+217321168+216918608+216947536+217162464+217201872+216969728+216724896
2409.94+216760960+217069552+217449520+217778800+217956944+217799424+217321776
2405.44+216934864+217000848+217358592+217589200+217533920+217302736+217023216
2400.94+216822544+216801536+216864544+216799168+216608032+216485232+216458912
2396.44+216362848+216189152+216102240+216124192+216114704+216087760+216229184
2391.94+216576144+216933264+217129184+217159872+217072128+216873072+216606272
2387.44+216411984+216445440+216742528+217194352+217655776+218146176+218864576
2382.94+219977936+221468352+223259568+225404208+228005344+231060864+234499904
2378.44+238352432+242781776+247913216+253697184+259970720+266677472+273976160
2373.94+282049152+290822784+299963072+309155968+318331392+327623136+337137184
2369.44+346752864+356162272+365081024+373361280+380962752+387952800+394496032
2364.94+400635264+406082496+410467840+413721696+415971040+417218624+417411936
2360.44+416664352+415050464+412319840+408124832+402450720+395625792+388005536
2355.94+379728896+370647808+360477472+349097792+336661952+323372480+309304960
2351.44+294523584+279329152+264688528+252682448+246086096+246719408+253973024
2346.94+265172800+277430272+289111072+299864384+309769440+318669920+326235712
2342.44+332434272+337661504+342254208+346114432+348916096+350548640+351324480
2337.94+351853088+352612480+353408960+353457984+352267104+350250848+348248320
2333.44+346633248+345132384+343315968+340985312+338199296+335174368+332088896
2328.95+328841728+325052960+320463552+315361568+310449376+306195744+302407456
2324.45+298544032+294342432+289968224+285663968+281444768+277179808+272813408
2319.95+268430800+264131184+259905040+255717536+251666896+247931264+244518432
2315.45+241219808+237858016+234486752+231319776+228492800+225953248+223552960
2310.95+221230912+219011680+216844320+214601712+212296240+210155920+208393776
2306.45+207021776+205866304+204647744+203116880+201301376+199578720+198314976
2301.95+197515680+196890944+196154176+195213248+194239712+193545872+193220512
2297.45+192949648+192362592+191450464+190451040+189481584+188525376+187643808
2292.95+186988928+186598336+186296464+185835808+185159696+184491200+184087024
2288.45+183891632+183613136+183127184+182577456+182034656+181369568+180617104
2283.95+180164912+180276880+180607136+180518832+179835888+178998864+178503248
2279.45+178444560+178613792+178748784+178688720+178477824+178290208+178141344
2274.95+177845376+177411168+177174544+177293456+177410608+177121168+176515376
2270.45+175984816+175701552+175543616+175361456+175096848+174698592+174144688
2265.95+173572896+173250224+173290064+173418000+173223664+172679776+172162544
2261.45+171876320+171562592+170985056+170347888+169963328+169799040+169652144
2256.95+169525152+169491200+169400880+169048016+168535104+168216848+168283536
2252.45+168546016+168621488+168277696+167644592+167079856+166775408+166627872
2247.95+166497664+166384272+166237712+165910144+165435536+165060160+164888528
2243.45+164814304+164801664+164831648+164657328+164120976+163600880+163524768
2238.95+163609056+163220864+162337136+161506000+161013008+160721008+160576096
2234.45+160714768+161108704+161491232+161606992+161373312+160916320+160501984
2229.95+160305728+160238240+160074864+159674448+159051488+158384896+157951456
2225.45+157883632+157990720+157968176+157737296+157463680+157317776+157287248
2220.95+157209744+156957536+156621808+156401520+156322080+156209024+155959824
2216.45+155691616+155582480+155634336+155583824+155131760+154383728+153877280
2211.95+153919600+154112528+153919600+153416144+153065504+152986528+152935872
2207.45+152812864+152763584+152849728+152899792+152702272+152265952+151809712
2202.95+151463312+151077984+150517984+150000960+149829776+149919904+149946064
2198.45+149816784+149657840+149503360+149314784+149139968+149040560+148988816
2193.95+148938064+148838848+148635168+148392400+148278480+148285264+148185280
2189.45+147884432+147523536+147191392+146863696+146629184+146622608+146760480
2184.95+146837760+146781392+146582144+146141632+145450336+144711968+144137648
2180.45+143769872+143606960+143661136+143839312+143924816+143724400+143181040
2175.95+142446304+141908736+141933488+142442816+142895152+142791888+142098624
2171.45+141204272+140599696+140541712+140848816+141055824+140887456+140527616
2166.95+140334736+140441216+140722624+141000736+141122320+140989520+140655952
2162.45+140295888+140024016+139806624+139543696+139155376+138661664+138258992
2157.95+138152768+138222880+138077472+137588752+137113616+137020384+137247024
2153.45+137512496+137684720+137741872+137605952+137229648+136733360+136293664
2148.95+135971184+135732112+135590304+135622704+135827632+136024848+136015968
2144.46+135827056+135633536+135453888+135103520+134503392+133854024+133424600
2139.96+133299264+133389488+133569016+133749696+133851136+133768768+133439440
2135.46+132990976+132694656+132653800+132665768+132489376+132145320+131866440
2130.96+131870680+132184248+132536016+132507888+132016384+131492392+131357120
2126.46+131472368+131383528+130947512+130448536+130193328+130192728+130210856
2121.96+130053864+129837752+129853384+130104344+130207960+129942152+129630744
2117.46+129690624+130015728+130143056+129916720+129660408+129673680+129848176
2112.96+129887072+129736856+129588376+129539840+129465696+129240016+128887072
2108.46+128518392+128264488+128248128+128439472+128610608+128564016+128319728
2103.96+127969408+127527904+127043136+126631784+126291256+125894616+125472440
2099.46+125286080+125514952+125998488+126368600+126387448+126179104+126093896
2094.96+126285104+126505760+126480184+126279712+126140648+126090424+126025416
2090.46+125960016+125921360+125791320+125495136+125196648+125119744+125282240
2085.96+125536096+125704008+125622264+125234936+124732288+124378320+124163760
2081.46+123839672+123381248+123176008+123542704+124250864+124699584+124502128
2076.96+123790848+123032064+122636600+122650816+122785520+122777440+122662728
2072.46+122571456+122426200+122124768+121875984+122019872+122559344+123135272
2067.96+123416816+123365688+123229048+123362608+123866200+124293536+123992672
2063.46+122880832+121636056+120951936+120887016+121101720+121445336+121934176
2058.96+122322072+122203728+121653544+121281488+121450520+121777256+121746320
2054.46+121438984+121307808+121497768+121764568+121842744+121629912+121170088
2049.96+120661200+120346096+120302904+120440368+120645440+120784672+120708048
2045.46+120410800+120078656+119840784+119697376+119722136+120080752+120702096
2040.96+121171640+121178752+120924080+120829224+120877992+120589944+119791640
2036.46+119041312+118885680+119045728+118903344+118466168+118235544+118375992
2031.96+118654616+118951688+119207144+119189880+118883368+118759776+119136312
2027.46+119618480+119634224+119170480+118623920+118274096+118174144+118275824
2022.96+118446208+118511448+118412256+118249352+118209056+118435672+118909856
2018.46+119500632+120163320+120899312+121445136+121371952+120597256+119507912
2013.96+118489016+117698544+117284944+117367224+117759928+118091816+118221136
2009.46+118251464+118242256+118180472+118127704+118154960+118216728+118237256
2004.96+118217128+118180072+118150544+118208688+118422248+118721008+118949960
2000.46+119011760+118898736+118662296+118403232+118190824+117996464+117794264
1995.96+117689688+117777376+118029864+118596472+120025856+122577808+125252616
1991.46+126205656+124634400+121805296+119730392+119187184+119452624+119610984
1986.96+119473360+119305416+119244576+119197544+119067232+118888552+118832128
1982.46+119084888+119665512+120321136+120665616+120478592+119897424+119302936
1977.96+118996224+119016760+119246880+119597176+119996472+120346480+120593784
1973.46+120779680+120929080+120934648+120624712+119952328+119149376+118751720
1968.96+119344384+121037776+123123152+124476960+124503288+123625536+122685984
1964.46+122038304+121491608+120954240+120687320+120886832+121385784+121828152
1959.97+121933808+121666208+121365240+121521192+122172224+122791848+122959616
1955.47+122783224+122521896+122271920+122171064+122357992+122614696+122574336
1950.97+122307272+122244448+122559928+123025528+123343776+123383944+123310352
1946.47+123532328+124135896+124688432+125249176+126983880+130505568+133999048
1941.97+134586528+131690888+127628552+124819560+123795072+123850048+124248552
1937.47+124461944+124219144+123798144+123775656+124302184+124970128+125424352
1932.97+125704376+125910392+125920000+125622848+125215128+125014176+125046280
1928.47+125008216+124732848+124508280+124697872+125238392+125994248+127441096
1923.97+130085840+133031080+134265392+132961472+130451240+128555168+128420984
1919.47+131187760+137338144+144246400+146861568+142978128+135918912+130357816
1914.97+127799832+127204976+127551568+128250824+128725752+129077696+130130720
1910.47+132000968+133592736+134008488+133542592+132961472+132499592+131869336
1905.97+130899520+129943872+129555832+129789808+130147480+130284616+130342024
1901.47+130475504+130587432+130587432+130479360+130265360+130144584+130592624
1896.97+131946432+134034920+136153168+137241232+136589952+134784816+133238728
1892.47+132587304+132681184+134141752+137971456+142955312+145540544+143682624
1887.97+139284416+135712432+134386688+134591920+135180880+135473360+135268672
1883.47+134829392+134668128+134979664+135440768+135702400+135843824+136114016
1878.97+136477792+136754000+137016336+137438928+137929552+138281584+138447664
1874.47+138357488+137918944+137427536+137422128+138288544+140854432+146665424
1869.97+155799984+164648960+168242000+165377680+159361376+153680464+149252000
1865.47+145656688+142838880+141077472+140464016+140814416+141734928+142735792
1860.97+143501936+143989072+144270592+144387472+144315856+144074576+143818432
1856.47+143687440+143629040+143636576+143919024+144469696+144907056+145040032
1851.97+145039424+144934528+144719888+144879952+145990640+148031456+150425504
1847.47+152082048+152237440+153338128+161194304+177701424+193817168+196212048
1842.97+183233776+166203792+154800720+149794304+148089968+147867568+148478240
1838.47+149626448+151342688+152974688+153229456+152175168+151250752+151024240
1833.97+151004288+151027552+151208672+152338896+157172800+167619456+179395520
1829.47+184071744+178672480+168628512+160709520+158390528+162501200+170397248
1824.97+175496704+173115664+165985744+160016912+157299680+156364624+156041408
1820.47+156069376+156066256+156030912+156463888+157186016+157383232+156838816
1815.97+156035584+155451408+155417024+155974192+156702624+157584176+159629920
1811.47+163399760+167284928+168677264+166862128+163767776+161748064+161337312
1806.97+161394512+161015520+160472416+160268960+160603696+162187664+165806896
1802.47+170353552+173342208+174374032+175625728+177736048+178020080+174416832
1797.97+169005104+165795584+166297744+168200464+168447552+168089136+172930896
1793.47+186827648+204422832+214056848+210119952+198058448+185575984+175595808
1788.97+168445776+164612736+163590368+164072672+166449936+171748832+177725472
1784.47+179765792+176526144+171545424+169029296+170582640+174964736+178758368
1779.97+178650192+174837920+170616592+168321568+168193632+170336592+174040544
1775.48+176509728+177454784+183427760+201023120+225583600+241806384+238972624
1770.98+221348720+201394016+189604096+189859744+197282224+201063520+194900688
1766.48+183465392+174915312+171383424+170260656+171280560+177869056+191116720
1761.98+204817424+209188768+201214448+188283568+179487504+177769488+181824304
1757.48+189883520+197892064+199279520+192488368+183970608+179547376+179569888
1752.98+185100672+199834000+220559344+233825072+231058288+220042768+212668464
1748.48+210931024+209809888+206215296+200871760+195726272+192975392+194269408
1743.98+198886624+203294176+203637728+200375600+200292048+209965792+225479664
1739.48+233215296+225880528+211402752+200703280+197489888+204106000+226415376
1734.98+264709104+303061120+317037952+298049312+261866368+230345200+214587472
1730.48+212507680+214658928+213402848+208501056+203870480+201589360+200884368
1725.98+200816176+201679040+204046624+207550624+210820304+212536368+212587392
1721.48+212212960+213472880+219403392+234291952+260971312+294412480+318701664
1716.98+319060928+300522656+282238304+273899456+269103136+259586704+247295056
1712.48+238784080+236058928+237403744+240944688+244177904+245032096+245778176
1707.98+251474592+263581168+278241568+290495776+297838016+300398112+299380224
1703.48+295836576+293677792+304288480+340812960+400388928+451542208+456819264
1698.98+418815456+375314272+357912256+376714464+421288320+460703488+462940960
1694.48+431143680+396622304+379908000+379342656+385575776+394681248+406492672
1689.98+418839712+429321536+437914560+444252224+448134400+456238048+481548256
1685.48+529784672+585356480+616636224+607817536+574931328+542578368+523856096
1680.98+519822048+524564320+530476320+533556992+534908576+538108416+547960512
1676.48+569518592+601262080+628320704+632908224+617082496+601469760+600617216
1671.98+611909376+626395584+642196992+661936000+681328832+689341888+681666432
1667.48+667110656+657398912+656559872+661610112+670028672+683641856+704061184
1662.98+726057664+739343168+739546496+733557632+730780544+733933952+740353408
1658.48+747549632+754258112+759537024+764806336+775117504+796832512+835453952
1653.98+892306176+953476288+982709120+952215040+882800832+817793920+780019840
1649.48+768686464+773617728+785750272+800520704+815977920+827391872+824920064
1644.98+803466112+773148288+749812608+738672512+733735488+729511488+726086144
1640.48+723441216+719833152+716308416+715411584+717094720+722786304+738326720
1635.98+762225280+774533888+754365504+708804480+662793664+630421952+610266112
1631.48+596178880+583931968+571928192+561529856+555093760+551127232+543920768
1626.98+529609152+510578976+493856448+486729152+491126496+499267776+498108864
1622.48+482326976+459322048+439461952+426641056+418379520+412124064+411768800
1617.98+425996576+455215552+479924608+474441920+440048128+402798560+380186304
1613.48+370285216+364730336+359985568+356256928+353748448+352693216+352570048
1608.98+351124448+347289760+343145312+340339040+337628960+334055296+331090720
1604.48+329877984+329487456+328937632+328260800+327310496+325743264+323900832
1599.98+322192672+320526240+319235936+319078304+319863104+320640928+321204864
1595.48+321918496+322568928+322741728+322607072+322497408+322631488+323355872
1590.99+324512736+325110144+324813376+324657312+325317952+326332512+327597440
1586.49+329508032+331537120+332921376+334148672+335693792+336908032+337853440
1581.99+339693920+342202816+344190112+346221664+349152192+352753664+361169472
1577.49+384319584+424157728+460268320+463848480+434635872+400191616+380734720
1572.99+376227104+378230080+383897504+397454080+420101984+441911072+448331264
1568.49+436757824+419317856+408295936+407062784+413084256+421972288+428642592
1563.99+430032064+427737504+426898176+435041344+461047744+508180960+565169536
1559.49+611121536+634025024+633134336+606975232+561037248+518262432+501744512
1554.99+512992192+531236256+534332864+520524800+504229120+497752128+503125504
1550.49+514187808+522285536+522569728+516668288+509859936+507374976+512984096
1545.99+526909440+542476672+549587520+547555456+548805824+562876416+583088896
1541.49+597080832+607036288+623644864+640822464+634349568+594753152+542689408
1536.99+501952576+479970272+473680224+479566048+493934688+507558624+508302144
1532.49+493397536+472639936+456000960+445318016+439174464+438097088+441159712
1527.99+443793792+444143776+446220128+451780896+454532992+448125472+436793728
1523.49+432495200+443575712+467735776+491841216+498552896+479706400+445276416
1518.99+415660160+405312608+412220480+420473632+416622752+402130208+385546272
1514.49+371604000+362741440+361200608+364002016+363237920+356415456+349782688
1509.99+348848928+353902080+365943488+388708960+420961248+450144384+457681696
1505.49+434028832+388405792+341024064+307430432+291209888+286623488+285399264
1500.99+283727200+284715872+292106944+301785632+305495328+304845792+310441856
1496.49+322561344+324780544+306312736+278999072+259867520+252485904+252035296
1491.99+257089600+268792128+282874784+290163712+286302624+276787616+270086560
1487.49+268051184+265019696+256332176+244908736+236772736+233485920+232405312
1482.99+231975968+232912800+234914112+235819776+234542160+232280720+230544336
1478.49+230597472+234869280+244925360+256680048+262538096+262039632+264905008
1473.99+279166272+300761568+317046912+318118496+303140352+279349760+257674000
1469.49+245631424+242341184+241835136+240986816+242406880+250487440+265645824
1464.99+280379488+282991168+270718560+254608336+245728208+244191696+245626432
1460.49+250584160+261493968+277556320+299383296+330463136+364850656+380899040
1455.99+363352960+325405408+291337440+272005568+264364320+262046432+261218080
1451.49+259968720+257458832+255254208+257014144+264381376+273294688+276598752
1446.99+271529888+262563824+255771104+252951184+252037904+251000096+249813504
1442.49+249160944+248918560+248679616+248522112+248186576+247829408+251842976
1437.99+267819600+295582176+318370848+315844992+290003104+262395984+247569728
1433.49+243428416+242220320+241422016+242872464+247342448+252794288+255416688
1428.99+252528976+246055104+240879600+238992784+238713888+239708656+243817616
1424.49+250127648+254258848+253640016+249664400+245901120+248467088+264213056
1419.99+291390208+313752544+314310528+296000928+275721920+263196304+256633328
1415.49+252320176+249934448+249759664+250795040+252289136+254094272+255643728
1410.99+256316128+256310096+256276384+256673856+257633072+258891536+260455024
1406.50+263552800+269317312+275778240+278418752+275494624+270490848+267385456
1402.00+266381584+266662160+270241536+278930208+288854816+292632640+287777856
1397.50+279343488+274212000+276113760+284353280+293293632+294779328+285655904
1393.00+271693824+261031408+256360272+254984336+253611968+251918512+252892048
1388.50+259469248+269167392+273790944+268050352+256295664+246623840+241917216
1384.00+239902048+238368800+236913680+235483568+233999936+232682864+231697120
1379.50+231192816+231378064+231701472+230960400+229276480+228756048+231260672
1375.00+236325408+241310016+242942768+239628256+233276800+227814512+225379408
1370.50+225229616+226124496+227528032+228459184+227760976+225876576+224189840
1366.00+222970176+222282192+223935712+229443536+236442816+240246880+239247936
1361.50+235996144+232926960+230097888+227276016+225307280+224545280+224080464
1357.00+223406496+223316368+224362416+225716272+226261568+225910544+225275696
1352.50+224719424+224244864+223983776+224378080+225684272+227374016+228440864
1348.00+228534128+228300128+228390416+228745920+229169664+229812672+230614000
1343.50+231072224+231179072+231990096+234645744+239049472+243768480+247034432
1339.00+247838784+246485440+244295008+242567632+241655440+241114400+240719504
1334.50+240911552+242048224+243701120+245200816+246517632+248077888+249978672
1330.00+251899888+253555040+254839920+255767088+256505104+257240512+257984512
1325.50+258735088+259588544+260360608+260562688+260192688+259995040+260470272
1321.00+261238992+261770496+262111552+262502720+262845664+262915632+262689680
1316.50+262286240+261844032+261555872+261663968+262288832+263231888+264002288
1312.00+264212624+263943536+263507776+263005696+262416096+261938528+261851872
1307.50+262181296+262744144+263267872+263420096+263141632+262969920+263509792
1303.00+264609888+265546816+265937456+266017328+266203264+266725568+267502448
1298.50+268154880+268327888+268116000+267951664+268093456+268490784+268993376
1294.00+269467168+269813728+270069056+270391872+270861664+271367648+271726496
1289.50+271944832+272355776+273283968+274447520+275034976+274644256+273801632
1285.00+273251488+273142368+273261376+273614016+274329664+275259424+276076416
1280.50+276590720+276725408+276398848+275703296+275055008+274885440+275177504
1276.00+275519232+275626016+275578752+275537184+275560992+275774624+276340320
1271.50+277122272+277742176+278031232+278091648+277957472+277680352+277645376
1267.00+278273504+279389760+280346368+280771712+280891456+281112704+281557440
1262.50+282088800+282701376+283670304+285092480+286483296+287313792+287794656
1258.00+288513792+289432864+289924800+289708032+289090176+288413696+287840288
1253.50+287521472+287445088+287262112+286665216+285788128+284959072+284234880
1249.00+283382528+282279168+281153120+280350176+279875104+279389152+278750752
1244.50+278224960+277965792+277629024+276834464+275758464+274975456+274826720
1240.00+275075776+275149824+274725184+274069760+273688256+273670880+273644448
1235.50+273273280+272506464+271433344+270233248+269200256+268549248+268174416
1231.00+267682656+266679264+265190864+263816848+263139600+262887664+262134672
1226.50+260435136+258323536+256576736+255480672+254892096+254584480+254355888
1222.01+254045984+253544624+252742992+251558320+250073792+248549136+247265264
1217.51+246355232+245755552+245334752+245060880+244892176+244541024+243716544
1213.01+242667120+242006256+241896464+241893648+241679392+241457984+241519648
1208.51+241863504+242334192+242812752+243169888+243310144+243347120+243644384
1204.01+244509440+245807968+247081024+248151920+249317680+250803840+252441408
1199.51+254102912+255936000+257888544+259545328+260736880+261822144+263228672
1195.01+265099760+267373408+269798432+271994048+273838752+275598752+277511232
1190.51+279559136+281727552+284133440+286847392+289808032+292788128+295387136
1186.01+297418624+299314944+301672256+304485888+307331520+310116224+313087360
1181.51+316316832+319685600+323132224+326561120+329855008+333199840+336949824
1177.01+340989472+344762880+348101376+351497216+355362816+359530912+363633152
1172.51+367532000+371185088+374605984+378150368+382311584+386978752+391459232
1168.01+395499264+399554016+403765792+407568288+410788704+414219008+418539136
1163.51+423502336+428629600+433852288+439086112+443999840+448538880+452986240
1159.01+457412608+461689728+465973088+470565760+475461440+480558400+486038112
1154.51+492045568+498185216+503803168+508724768+513502464+518914368+525264256
1150.01+532132768+538849600+545170048+551397248+557878464+564519744+570927872
1145.51+577053184+583504448+590885376+598957696+607014528+614943360+623183488
1141.01+631709120+639897280+647448768+654606208+661527552+668276608+675311488
1136.51+683141248+691587584+700042112+708222272+716096960+723444672+730138112
1132.01+736604224+743543360+751274368+759477312+767417920+774535744+781055616
1127.51+787776448+795039488+802286272+808926976+815146496+821513792+828237312
1123.01+835089984+841765824+848045632+853926464+859639296+865362752+870937024
1118.51+876024576+880505408+884661824+889067648+894214464+900060288+906072896
1114.01+911734656+916724288+920729600+923731264+926468864+929918016+934175744
1109.51+938534208+942623424+946716736+950926592+954888384+958316544+961235328
1105.01+963729024+966056896+968907904+972870720+977547008+981786048+984985216
1100.51+987769088+991097984+995059328+998944512+1002269504+1005185728
1096.65+1007995776+1010843968+1013879936+1017142144+1020251072+1022713472
1092.80+1024579008+1026337792+1028266240+1030320704+1032553024+1035089728
1088.94+1037672960+1039732352+1041048768+1042006656+1043103168+1044527488
1085.08+1046308864+1048441856+1050610688+1052222016+1053089152+1053741312
1081.23+1054790080+1056298816+1057941952+1059366784+1060227456+1060416768
1077.37+1060361216+1060670336+1061498880+1062710016+1064460736+1066910592
1073.51+1069455488+1070982464+1071111104+1070745856+1071108032+1072359488
1069.66+1073523904+1073741824+1073053952+1071768192+1069820224+1067240704
1065.80+1064457344+1061438464+1057235072+1051002496+1042861248+1033403328
1061.94+1022996864+1011852736+1000151680+987955392+975363520+962667136
1058.09+950144448+937958912+926162304+914419520+902141952+889486912+877619840
1053.59+867265920+857645440+847507584+836469568+824846656+812967744+801102912
1049.09+789481792+778206016+767412928+757203520+747087040+736240960+724734976
1044.59+713709056+703874112+694543424+684613504+673948480+663416768+653822656
1040.09+645135552+636788864+628473856+620258304+612001472+603310592+594205184
1035.59+585187136+576547200+568270528+560603008+553931072+548055808+542277760
1031.09+536148064+529620096+522726496+515731424+509322688+504077408+499842208
1026.59+495950656+491833248+487304064+482638176+478528288+475581152+473639296
1022.09+471817984+469364256+466337184+463417376+461291200+460233632+460065632
1017.59+460379808+460865568+461436736+462124448+463043296+464496512+466878656
1013.09+470335520+474587424+479025120+482943808+486080960+489150496+493415264
1008.59+499311200+505932320+512254304+518287264+524605472+531337728+538210176
1004.09+545128448+552224832+559583424+567180096+574881856+582427136+589636416
999.59+596632512+603710144+610998272+618290112+625144768+631274944+637005440
995.09+643041280+649636864+656338752+662664640+668498816+673737088+678283840
990.59+682527680+687015424+691462144+694989952+697575808+700324864+703891904
986.09+707512960+710135488+711801536+713276608+714797056+715830016+715895616
981.59+715106880+713869760+712418048+710724160+708631104+706024960+703048320
977.09+700112320+697437696+694624064+691021568+686578176+681917696+677509632
972.59+673168960+668491264+663380416+657979200+652416896+646754176+640962752
968.09+634929664+628641728+622295936+616059200+609885184+603696768+597523648
963.59+591325760+584904768+578155840+571314304+564904000+559347712+554448960
959.09+549375296+543477184+537095680+531191776+526292608+522149952+518214848
954.59+514009536+509259168+504063328+498878112+494137856+489989984+486260192
950.09+482511072+478414432+474312064+470937056+468332896+465663936+462428928
945.59+459145376+456429152+454134144+451831712+449533952+447444512+445452800
941.09+443333024+441197024+439370624+437939040+436682752+435419296+434158848
936.59+432912352+431658464+430554496+429851296+429470464+429047264+428494336
932.09+428111264+427858976+426968128+424722432+421574016+418975552+417817472
927.59+417339488+416186272+414287648+412798816+412197728+411539104+409902816
923.09+407535808+405200992+403288704+401859552+400822976+399884352+398907808
918.59+398198944+397938112+397690944+397063808+396349024+395885824+395252736
914.09+393761280+391566144+389718304+389066976+389385056+389666752+389203712
909.59+388144512+387005088+386008768+385152032+384560224+384405504+384622720
905.09+384990592+385321216+385404224+385103488+384752832+385073568+386306848
900.59+387798720+388922496+390018208+391727680+393747648+395176128+395958016
896.09+397012576+398836160+400851936+402342784+403364224+404453024+405860768
891.59+407315936+408403232+409106016+409947712+411493952+413751872+416140256
887.09+418026336+419251008+420223360+421438976+422981088+424649088+426426336
882.59+428391424+430336768+432001088+433516416+435107488+436643872+437956736
878.10+439209952+440570976+441946048+443209408+444276768+445071744+445865856
873.60+447183360+448851840+449914944+450004448+449887840+450156480+450440576
869.10+450337184+450107168+450116736+450368736+450715872+451066656+451473216
864.60+452072800+452537856+451948384+449948416+447530912+445773088+444580544
860.10+443490944+442601504+441949024+441310720+441138016+442006752+442723168
855.60+440999616+436595168+431868064+428701312+426730912+424862432+422598304
851.10+419531392+415475136+411662272+410017856+410523904+410726752+408553216
846.60+404340032+399646976+395423104+391946720+389196576+386734112+384405728
842.10+383274752+384448992+386830368+387727104+386081568+383551936+381768224
837.60+379961056+376620608+372353504+369073888+366964576+364696032+362286144
833.10+360952000+360160448+357725504+353189504+348503520+345419424+344489792
828.60+345942432+349189568+352118528+352835584+351511712+349473376+347624256
824.10+346412064+345993664+345876992+345363648+344413632+343393152+342446400
819.60+341574208+340830304+340277184+340003904+339815104+338959264+337223680
815.10+336058784+336943008+338989536+340037056+339620096+338884512+338229184
810.60+337305056+336843584+338283136+341462464+344181056+344522432+342926240
806.10+341546816+341861088+343498368+345228640+346318304+346568224+345963296
801.60+344844032+344130656+345129536
##END=
