##TITLE=octarelline 6 front
##JCAMP-DX=4.24
##DATA TYPE=INFRARED SPECTRUM
##DATE=31/1/2005
##TIME=16:46:30
##SAMPLING PROCEDURE=film
##ORIGIN=Vincent
##DATA PROCESSING=no operation
##XUNITS=1/CM
##YUNITS=ABSORBANCE
##RESOLUTION=2
##FIRSTX=4000.283
##LASTX=800.31372
##DELTAX=-0.64282227
##MAXY=0.14985971
##MINY=0.0056189685
##XFACTOR=1
##YFACTOR=1.3956773e-010
##NPOINTS=4979
##FIRSTY=0.0060441471
##XYDATA=(X++(Y..Y))
4000.28+43306192+43288516+42906948+42799384+43029368+43221940+43339296+43650384
3995.14+44063088+43998940+43135428+41991476+41472096+41904440+42831724+43714152
3990.00+44387980+44831832+44875108+44330228+43279488+42166316+41512696+41413076
3984.86+41499164+41585252+41889208+42368608+42471080+41986400+41466460+41366464
3979.71+41492208+41569460+41661376+41892968+42395684+43335160+44461360+45031856
3974.57+44759200+44248956+44052744+44029604+43900368+43655084+43294912+42884564
3969.43+42805964+43320864+44076632+44513852+44400588+43751204+42782088+42036596
3964.28+42005008+42625828+43511952+44410748+45123688+45405592+45262564+44980484
3959.14+44778208+44655900+44516672+44223744+43748572+43202188+42599688+41882820
3954.00+41385256+41641264+42519212+43316536+43842244+44496544+45345372+46080172
3948.86+46630824+46888012+46360100+44992716+43632140+42933276+42725864+42958468
3943.71+44178968+46450652+48711560+49720596+49086120+47196444+44755440+42519028
3938.57+41151260+40988320+41820592+42958848+43767384+44119712+44275668+44697484
3933.43+46028972+48511668+51189800+52547076+52109864+50592716+48775800+47171216
3928.29+46178244+45630312+44957344+44452892+45151160+46932264+48230420+48043000
3923.14+46821172+45416132+44589484+45108636+46806108+48226468+48590604+49205196
3918.00+51562204+54901332+56770756+55574572+51943896+47852012+44885272+43345688
3912.86+42660240+42212188+41646532+40966148+40531680+40501052+40471364+40259796
3907.72+40456336+41691076+44361080+49319952+56895040+64827396+69738600+71259600
3902.57+71778856+72158856+71473664+70542928+71274968+72432784+70265368+63849796
3897.43+56335776+50617980+46947324+44668512+43561036+43358664+44111436+47186280
3892.29+53864756+62340732+67820232+67043328+61506172+54845076+49365188+46814956
3887.15+49748112+58782676+69337456+74469296+71762336+64711876+57608200+52620836
3882.00+51160384+54175764+60075772+64541256+64161420+59571700+53906652+49293576
3876.86+46258816+45466384+47910780+52988888+57759168+59150136+56826856+53824568
3871.72+54726716+62419264+74927520+85368216+87166000+79946048+68905272+59824300
3866.58+56312732+59199468+65687480+70299336+69643952+65854560+63036596+61838948
3861.43+59916564+56325952+52479928+49485784+47602084+47513196+49262860+51567292
3856.29+55782468+68153304+92888544+123370440+145103584+150355200+143153136
3851.79+128789984+109392752+88713880+71852496+60447540+52887580+48001372
3847.29+45562748+44610372+44233528+45182216+48521464+53224340+56702000+57825108
3842.15+58327004+60371516+63499008+65935632+69056784+77017768+89717840+99332920
3837.01+98469248+89854528+81672352+76789632+72122984+65948900+61034028+60210400
3831.86+62240820+63167572+60578784+55550216+50797264+48181824+48050720+49688744
3826.72+51673276+52503132+51688168+50018756+48879988+50183488+56402640+68448872
3821.58+82702040+92012320+91712784+83465720+72409432+63634928+61795616+69608288
3816.44+83713400+94109664+92417152+80419744+66264720+55296084+48025672+43586620
3811.29+41639012+41544460+42183424+43530760+47597188+56588104+69205464+79222992
3806.15+80364352+73165472+63806448+57313664+55896136+61778404+75968104+93159520
3801.01+102602976+98218280+84655904+70597376+61237172+57792424+59001556
3796.51+61565192+61830808+58633740+53689260+49210284+46161872+44366536+43258424
3791.37+42509064+42156160+42128148+42055956+41854432+41894664+42358084+43146152
3786.22+44447432+46327532+47809824+47726388+46431068+45244316+44530216+44101840
3781.08+44978228+48485860+53595288+57131360+57048056+54098200+50270948+47079132
3775.94+45198020+44492968+44356188+44442164+44693348+44926100+45527740+48204236
3770.80+54192188+61532088+65803792+64421964+59236520+54473600+53153964+55266636
3765.65+58095888+58483116+55612140+51446800+48331768+47008896+47366872+49966352
3760.51+55194892+61093800+64089668+62997988+60495004+59392676+59512152+59122916
3755.37+57576836+56068552+57989128+67822128+85676672+103033536+110355944
3750.87+110192024+112841872+119816336+121362208+110854656+93545584+79375776
3746.37+76287408+89156648+115325352+139580688+143584496+126018376+101583544
3741.87+81827912+68715272+60634576+56508212+55695984+58189244+64665480+74560472
3736.73+85092000+93134288+96712928+94939840+89385880+84929608+85567232+89188136
3731.58+89248640+82446632+71960680+62611904+56657796+54692748+56892024+61815108
3726.44+66060672+66964868+64838000+61805092+59757176+59655640+61016812+61673780
3721.30+59837344+56583388+54527772+54340344+54397908+53422824+51764732+50443800
3716.16+50190272+50919812+51855440+53593032+59459216+71628160+85740920+93398416
3711.01+91863112+86528800+82321888+78449512+72541000+65230416+58906288+54943240
3705.87+53297168+52918324+52434652+51825272+52925120+56918848+61964012+64558300
3700.73+63116456+59247672+55610632+53425088+52293380+51652160+51438500+51404756
3695.59+50944500+49981996+49187112+49422836+51911840+57829832+66018052+72725152
3690.44+76584704+81913984+92753072+104962992+108779984+100333232+85691344
3685.94+72504552+63469108+57714952+54078200+52001792+51150584+51379672+52831924
3680.80+55594768+59139164+62154732+63528164+64367432+68787896+81003152
3676.30+100289368+118867944+126790632+120491440+105024192+89033152+80184688
3671.80+82529488+93777248+105598808+110314056+107220952+99806320+90233488
3667.30+79828440+71012344+65408836+62265420+60391564+59681172+59941328+60365844
3662.16+60701712+61313592+62221340+63231924+64284688+65253524+66868412+71500616
3657.02+80410984+90216112+94949584+92434928+86014520+80318856+78220136+80859240
3651.87+88029992+98530120+110878872+123087344+132101992+135550608+133951376
3647.37+129182808+121760088+111798304+101325800+93250688+88694976+86811616
3642.87+86428680+86775000+87227992+87441824+87602824+88091424+89025520+90288096
3637.73+91703416+93069896+94311736+95741328+97929056+100996064+104138600
3633.23+106153368+106676168+107065832+110234488+119246416+134846480+153151296
3628.73+166412512+168385808+159584192+146012768+133621080+125000136+119993680
3624.23+117706976+117474112+118615520+120533840+123673784+129464512+138150960
3619.73+147143504+152812896+153876528+151796736+148413344+144900112+142374480
3615.23+141685296+142814288+145525872+149734112+154135936+156103376+154990816
3610.73+154076496+156799280+162309472+166666496+167619200+166015552+163180880
3606.23+159630256+156189184+154086416+153587936+153852560+154365504+155633248
3601.73+158163616+161292736+163620128+164549200+164865424+165541360+166669440
3597.23+168085104+170175792+173123120+176006880+177745104+178497520+179149296
3592.73+179755264+179495872+178237440+177580736+179903424+186140656+194612432
3588.23+202420416+207840736+210607232+210550272+207597856+202974320+198717408
3583.73+195888768+194222896+193267536+193051856+193829072+195657456+198059328
3579.23+200051600+201031616+201521920+202438240+203929056+205549408+207153760
3574.73+208849584+210443520+211654304+212643712+213730192+214780656+215538112
3570.23+216643504+219669808+225550576+233189376+240127680+244489376+245856608
3565.74+244696432+241981296+239166288+237425872+236828000+236782592+236992736
3561.24+237505760+238281552+239235824+240358080+241447872+242167504+242586128
3556.74+243259136+244565824+246261872+247824848+249100512+250471344+252355504
3552.24+254646720+256831088+258483648+259387472+259553392+259634640+260844944
3547.74+263760336+267538960+270870368+273197728+274570560+275100128+275173888
3543.24+275447232+276123328+276822624+277337408+277818432+278266016+278607808
3538.74+279229952+280674272+282865152+285181408+287128992+288593024+289744800
3534.24+290971168+292535776+294171968+295382336+296241888+297452448+299503840
3529.74+302156288+304717696+306618336+307726272+308380320+309081408+310105376
3525.24+311517120+313462592+315948928+318353632+319688288+319634048+319040320
3520.74+319175104+320601664+322794976+324682240+325553984+325517376+325229280
3516.24+325427968+326702688+329215712+332281760+334704096+335961696+336672384
3511.74+337651104+339144640+341206592+343907616+346701440+348467616+348800992
3507.24+348590432+348935872+350132864+351993536+354439424+357329216+360064288
3502.74+361834528+362282880+361911392+361747616+362469792+363860448+365280960
3498.24+366503456+367857056+369642176+371625600+373173600+373922912+374341888
3493.74+375330624+377120000+378969088+380190464+380965792+381809440+382802432
3489.24+383887488+385314624+387189344+389052224+390513856+391927232+393723456
3484.74+395444064+396293152+396517888+397323008+399325600+401823552+403808992
3480.24+405061536+406018432+407145184+408609312+410137728+411205216+411739104
3475.74+412435744+413894240+415694944+416923808+417372096+417702592+418613792
3471.24+420216096+422078720+423612288+424574720+425307360+426384608+428068192
3466.74+430162720+432158624+433497472+434073984+434543584+435724256+437585664
3462.24+439224064+440011488+440389856+441303264+443013376+444786848+445861792
3457.74+446389120+447043168+448079936+449352960+450942080+452917568+454729760
3453.24+455770784+456350016+457204736+458350112+459330432+460238080+461588992
3448.74+463525088+465828000+468306784+470647744+472365888+473261440+473642592
3444.24+474070432+475147808+477111872+479269024+480476992+480573472+480570304
3439.74+481175264+482100928+482967232+483866368+484864128+485850656+486887840
3435.24+488073792+489326816+490727168+492458976+494160512+495275744+496235616
3430.74+498061504+500607712+502526912+503234080+503588800+504433760+505570080
3426.24+506468448+507110496+507944224+509477344+511836576+514386912+516082816
3421.74+516560192+516595200+517251488+518760896+520437632+521555040+522100736
3417.24+522646144+523592736+524750624+525760640+526663456+527801312+529343488
3412.74+531084448+532647232+533680352+534063232+534105280+534400608+535267968
3408.24+536419616+537446656+538494208+540114880+542385408+544596288+545947648
3403.74+546345024+546370752+546716288+547705216+549147968+550600064+551876352
3399.24+553125184+554285056+554965504+555139072+555489408+556585088+558050752
3394.74+559095616+559631424+560402176+561967936+563876864+565172352+565628992
3390.24+566022144+566993792+568237632+569227840+570080192+571093504+572050560
3385.74+572671168+573242240+574208576+575585600+577219264+579096960+581068096
3381.25+582666624+583471040+583498944+583379584+584078720+585956736+588134976
3376.75+589491648+590136704+591014144+592298112+593347136+594049472+595010816
3372.25+596442880+597966720+599396864+600842432+602189632+603221312+604057408
3367.75+604889216+605519104+605631808+605381248+605431488+606422592+608432448
3363.25+610854208+612869504+614144832+615009920+615982976+617315136+618834176
3358.75+620054976+620587072+620648384+621007680+622166016+623792576+625195136
3354.25+626115840+626879424+627956288+629570304+631630016+633824704+635781184
3349.75+637165312+637746880+637606016+637330112+637684544+638859264+640184704
3345.25+640812416+640545216+639907008+639684928+640498304+642512256+645228352
3340.75+647745088+649497664+650686400+651842496+653168832+654544128+655983744
3336.25+657634560+659218880+660023360+659853696+659647808+660553280+662612544
3331.75+664912576+666755456+668012416+668713280+669128768+669953344+671549248
3327.25+673231808+674136000+674469440+675062720+676048384+676865600+677399232
3322.75+678323328+680226304+682805504+685072000+686306432+686800384+687472832
3318.25+688760576+690208960+691172288+691539200+691760384+692548544+694454208
3313.75+697303744+700201536+702366592+703756864+704765568+705749696+706903104
3309.25+708125504+709006912+709372224+709713600+710679232+712370944+714357632
3304.75+716021312+716864448+717069248+717647104+719326976+721486528+723017408
3300.25+723805760+724431936+724956544+725205120+725777920+727538816+730180608
3295.75+732243264+732664128+731843584+731185472+731782080+733454400+735067712
3291.25+735791808+735809920+735770432+736001600+736438336+736813760+736796544
3286.75+736383424+736137088+736549824+737318144+737826112+738083136+738515584
3282.25+739107008+739422016+739269952+738851392+738463744+738355648+738484224
3277.75+738304576+737335296+735990336+735160576+735026624+735037184+734931520
3273.25+734911808+734954752+734770688+734312576+733702080+732954432+732285248
3268.75+732139584+732400000+732166016+730834816+728884672+727178560+725969728
3264.25+724922560+723692864+722343936+721295424+720791040+720439424+719675968
3259.75+718594176+717702464+716934528+715752640+714187328+712891456+712178112
3255.25+711760832+711322944+710690624+709658048+708253760+706914560+705919872
3250.75+705120384+704507136+704364800+704519424+704194560+703130240+702131136
3246.25+702020032+702587904+702993280+702697152+701713536+700364096+699079808
3241.75+698114176+697275712+696193856+694887104+693808128+693277632+693059264
3237.25+692590656+691601536+690533568+690170752+690670720+691208896+690972864
3232.75+690164224+689528832+689213952+688811520+688247424+687819072+687612032
3228.25+687591936+687916480+688424576+688285760+687024768+685395712+684393280
3223.75+683959744+683505728+683104704+683228224+683768384+684162176+684115264
3219.25+683660800+682985920+682542272+682781312+683503872+683981504+683840064
3214.75+683334784+682751040+682044352+681068800+679768256+678306304+677256640
3210.25+677288128+678316608+679291264+679207360+678074688+676675584+675645952
3205.75+675043584+674592064+674043584+673288000+672358720+671447040+670773504
3201.25+670303040+669760128+669135168+668902528+669343744+669881728+669518528
3196.76+667835392+665280576+662748352+661079232+660599872+660749568+660501504
3192.26+659452480+658186752+657398976+657139904+657093696+657092992+656962880
3187.76+656331584+655053248+653576960+652475840+651780992+651127744+650423104
3183.26+649898560+649569408+649083136+648199744+647143168+646280384+645637888
3178.76+644953856+644117184+643320000+642704512+642115584+641449280+640960128
3174.26+640792640+640451072+639358528+637817024+636702080+636242880+635750464
3169.76+634631488+633094016+631760000+630944128+630445696+629914240+629309184
3165.26+628874176+628606784+628097472+627104192+625925568+624926208+624029632
3160.76+622932352+621600832+620381696+619672512+619409408+618913216+617642752
3156.26+615998144+614844480+614429376+614326336+614115520+613479616+612204672
3151.76+610798464+610395392+611230720+611993728+611401536+609687104+607994752
3147.26+607016064+606705856+606653824+606395904+605772864+605067008+604516416
3142.76+603930368+603016000+601724224+600058368+597971904+595731072+593984320
3138.26+593171648+593005568+592745280+591961984+590922112+590173056+589935296
3133.76+590025472+590130880+589919424+589117376+587803328+586473088+585535808
3129.26+584871680+584062400+582984768+582067392+581845248+582214464+582392448
3124.76+581844352+580869056+579869824+578632960+576886848+575046080+573802816
3120.26+573425280+573713216+574070208+573659456+572240704+570745024+570156800
3115.76+570172480+569778816+568670272+567328064+566199680+565394944+564804800
3111.26+564183424+563469440+562827264+562109952+560794432+558861376+556958656
3106.76+555382592+553803008+552261504+551432064+551638080+552359360+552781824
3102.26+552375552+551230144+550177984+550032576+550493824+550417856+549223872
3097.76+547365312+545635968+544669632+544709824+545218944+545212992+544450880
3093.26+543632000+543126208+542354240+540839552+538984832+537446016+536398624
3088.76+535739616+535481248+535615968+535855296+535727296+534950560+533729632
3084.26+532570624+531714560+530979680+530312608+530104544+530512768+530771872
3079.76+529850944+527810080+525934176+525345344+525905408+526622720+526677280
3075.26+525835296+524339232+522766560+521741664+521392704+521172384+520392448
3070.76+518966496+517518720+516676192+516307936+515697120+514632128+513872448
3066.26+514082656+514773056+514919456+514278304+513318368+512250656+510946176
3061.76+509604672+508674720+508208544+507830624+507269632+506550496+505844352
3057.26+505355136+505078080+504569824+503323072+501495968+499873472+498960800
3052.76+498456864+497765952+496728608+495714592+495134592+494966912+494746240
3048.26+494035328+492764544+491052928+488954848+486723008+485042272+484413696
3043.76+484428256+484181856+483384256+482524096+481992864+481548512+480743232
3039.26+479513120+478228544+477245696+476421568+475202464+473408896+471695168
3034.76+470800736+470588160+470365792+469942720+469687552+469641568+469241376
3030.26+468037312+466292704+464695104+463617920+462801696+461741280+460296960
3025.76+458766400+457491936+456654784+456300352+456115072+455397216+453784768
3021.26+451882784+450591808+450016512+449567936+448880288+448017824+446982592
3016.76+445678624+444318336+443297568+442653280+441967104+440837120+439284320
3012.27+437743456+436704320+436279488+436124512+435853088+435399520+434713728
3007.77+433389984+431183840+428818272+427583200+427875616+428673984+428712320
3003.27+427721376+426308832+425143648+424513952+424307328+424143232+423714496
2998.77+423081856+422502112+422076576+421759008+421485248+421114912+420444800
2994.27+419455584+418415232+417655712+417351520+417432608+417579328+417470976
2989.77+417135904+416897312+416946464+417151360+417274784+417204768+417038336
2985.27+417041472+417308928+417467584+417121824+416542496+416419104+416899648
2980.77+417388256+417319136+416716608+416034528+415788000+416267136+417307040
2976.27+418349856+418942496+419113536+419270528+419828512+420910688+422228256
2971.77+423269088+423724096+423733632+423723040+424002112+424513760+424964864
2967.27+425233440+425557056+426258272+427341952+428460256+429136992+429081408
2962.77+428453856+427795616+427503488+427498720+427607936+427947136+428632064
2958.27+429396320+429825184+429726592+429069120+427843488+426195040+424489728
2953.77+423083808+422050432+421138048+420030848+418795680+417906848+417617536
2949.27+417544160+417174880+416480800+415808768+415475104+415671616+416308032
2944.77+416848128+416745472+416176768+415814016+415912000+416125472+416178656
2940.27+416184000+416320960+416593376+416882848+417011616+416848512+416481920
2935.77+416176352+416130560+416322208+416549920+416515616+416003776+415087424
2931.27+414053568+413113856+412341280+411867808+411855168+412120192+412057152
2926.77+411291168+410217248+409414304+408693216+407411328+405672480+404326592
2922.27+403703360+403242464+402478432+401421952+399940192+397832864+395584064
2917.77+394020896+393290720+392980928+392887904+392780608+391950144+390010112
2913.27+387703616+386071264+385201056+384393600+383158848+381594752+380083776
2908.77+378896992+377954880+376971392+375881216+374875744+373946112+372798464
2904.27+371334240+369820736+368552672+367671488+367273472+367298304+367289120
2899.77+366638016+365191680+363453728+362079936+361260128+360739232+360304576
2895.27+359947040+359532960+358746944+357559296+356409792+355693184+355318720
2890.77+354968160+354555776+354282080+354301184+354510496+354728096+354934112
2886.27+355126016+355038464+354410496+353521472+352937216+352764992+352732768
2881.77+352841440+353251552+353756256+354095648+354496128+355167168+355703808
2877.27+355663040+355318912+355198144+355330176+355435744+355447424+355474848
2872.77+355565728+355642272+355472128+354827904+353830048+352892992+352199168
2868.27+351526496+350648480+349617728+348701792+348144416+347929728+347738496
2863.77+347342816+346850528+346307552+345484480+344457856+343802432+343735744
2859.27+343690784+343223968+342608288+342081152+341311136+340099488+338921696
2854.77+338286432+338081088+337891904+337503680+336922048+336314432+335962752
2850.27+335900352+335657824+334772640+333496928+332505472+332020672+331719840
2845.77+331388896+330976512+330117632+328414848+326283680+324736608+324165760
2841.27+324001696+323633088+322994336+322229632+321448480+320868352+320659008
2836.77+320631296+320386432+319672928+318518016+317261024+316451072+316304288
2832.27+316356640+316022016+315296128+314501536+313675296+312680512+311619808
2827.78+310703968+309908672+309076480+308256032+307704768+307570048+307687968
2823.28+307758624+307680608+307546944+307326624+306864608+306172800+305387040
2818.78+304492256+303478112+302630080+302206976+302006880+301692576+301240960
2814.28+300692832+299891264+298868640+298025920+297558336+297165728+296548096
2809.78+295763104+294943296+294148960+293528288+293237600+293175648+293087616
2805.28+292808640+292253440+291386240+290421536+289736256+289369664+288943264
2800.78+288264960+287654016+287388320+287179424+286568448+285544064+284425728
2796.28+283379488+282463200+281876512+281706368+281620896+281273920+280810432
2791.78+280561568+280485088+280298336+279924128+279409728+278669856+277684960
2787.28+276748064+276210656+276083584+276024000+275687392+275058400+274432000
2782.78+274044704+273804064+273520544+273224672+272960832+272477760+271472576
2778.28+270038464+268592864+267493696+266855664+266567520+266389520+266224608
2773.78+266218400+266402032+266486272+266267888+265955536+265718352+265287920
2769.28+264392480+263253648+262294624+261589056+260909488+260092128+259186304
2764.78+258398384+257960512+257868800+257767856+257283712+256484416+255838800
2760.28+255711712+255947104+256039120+255730048+255253664+254852240+254268896
2755.78+253156160+251786736+250817936+250387136+249995600+249295056+248495984
2751.28+247971056+247848176+247976128+248008864+247608384+246816192+246045296
2746.78+245583824+245278752+244845312+244216544+243507632+242839216+242259936
2742.28+241718448+241147408+240593712+240101008+239557120+238898336+238394912
2737.78+238363840+238639008+238663024+238082928+237039152+235983536+235364928
2733.28+235251520+235206480+234799840+234199696+233842752+233632400+233042064
2728.78+231972816+230911328+230182672+229627536+229045120+228485552+228062448
2724.28+227820784+227760928+227735152+227444208+226774256+225978944+225336400
2719.78+224829360+224316080+223780688+223298416+222930192+222673952+222395232
2715.28+221917360+221345792+221004048+220876624+220512848+219756224+219079712
2710.78+218878144+218899824+218715968+218339504+218073920+218027184+218013264
2706.28+217726784+217048000+216266512+215792160+215569312+215132432+214360800
2701.78+213657680+213214096+212721520+212011264+211414880+211243200+211316416
2697.28+211252096+210936096+210521312+210097824+209552192+208824384+208226624
2692.78+208188928+208575680+208599088+207695984+206223360+204987168+204381040
2688.28+204228720+204230320+204264752+204324384+204340032+204154640+203699568
2683.78+203157024+202808992+202649456+202323616+201595520+200746912+200301808
2679.28+200361552+200405088+199850272+198659472+197280608+196188832+195669936
2674.78+195770064+196172416+196354560+196132336+195803840+195556752+195097808
2670.28+194155968+193041584+192363184+192369504+192781696+193124272+193095840
2665.78+192652832+191854400+190801552+189788112+189277968+189431904+189831280
2661.28+189970272+189819856+189597088+189256496+188557824+187516336+186497056
2656.78+185932528+186035504+186623712+187163760+187147008+186470512+185460224
2652.28+184574672+184090352+183972096+184021488+184118112+184211184+184128160
2647.78+183725360+183208528+182917392+182752368+182258528+181348512+180519536
2643.29+180218048+180327152+180355232+179971808+179347744+179006864+179242816
2638.79+179731088+179912080+179617904+179080928+178517152+178005712+177589584
2634.29+177238672+176908048+176704480+176692512+176577264+176071840+175503680
2629.79+175480720+176003152+176497776+176636944+176533504+176250848+175734272
2625.29+175136576+174741040+174617040+174644304+174718080+174716304+174471088
2620.79+173940112+173295088+172807248+172670592+172859776+173090368+173082896
2616.29+172875856+172683328+172544720+172374368+172223024+172225936+172401024
2611.79+172667248+172857232+172689008+172095200+171543664+171585616+172093440
2607.29+172432976+172365744+172251440+172337696+172375920+172105216+171746688
2602.79+171738080+172104208+172376112+172241856+172002304+172081280+172318480
2598.29+172185776+171626560+171166016+171177008+171479760+171693984+171638912
2593.79+171347680+170973408+170697520+170558816+170441264+170291968+170219488
2589.29+170263360+170291968+170261792+170418912+170973200+171660848+171922720
2584.79+171586752+171079408+170868384+170967712+171142496+171249888+171245392
2580.29+171124880+171021216+171088032+171214816+171175648+171056288+171172864
2575.79+171608144+172165600+172673328+173029200+173071728+172734096+172251040
2571.29+171952112+171909600+171928224+171830992+171687120+171728496+172002304
2566.79+172231840+172200880+172103248+172227920+172490224+172669392+172862720
2562.29+173263696+173693776+173763392+173437856+173068016+172987024+173262144
2557.79+173712592+174052096+174184496+174368304+174876800+175545280+175935632
2553.29+175901104+175717792+175655184+175692672+175689328+175652448+175721904
2548.79+175967424+176312480+176680928+177093200+177540272+177865680+177970352
2544.29+178021808+178242960+178603168+178953424+179321616+179800848+180268368
2539.79+180553344+180738912+180992880+181269888+181480032+181761008+182268160
2535.29+182859184+183270512+183478064+183653152+183898704+184210784+184559120
2530.79+184908272+185238368+185575984+185945536+186322208+186735968+187273056
2526.29+187906608+188429936+188604336+188378320+187972624+187782304+188093600
2521.79+188782688+189425792+189745344+189817296+189882736+190100784+190442288
2517.29+190709664+190760544+190731152+190880832+191237008+191652608+192124672
2512.79+192725440+193311952+193689152+193949888+194305632+194724000+195031264
2508.29+195220048+195415920+195721072+196210528+196857984+197395456+197518960
2503.79+197318192+197272736+197721152+198511808+199201808+199505152+199525712
2499.29+199601664+199949344+200496848+201042688+201478368+201826880+202143120
2494.79+202402208+202490320+202394272+202374304+202740912+203425920+204025696
2490.29+204315664+204507024+204921600+205605696+206324832+206811424+207007040
2485.79+207100640+207321680+207709472+208130048+208438016+208524496+208382672
2481.29+208254400+208483040+209053312+209519680+209565696+209402000+209423248
2476.79+209721056+210136912+210560800+210963712+211268576+211416448+211518912
2472.29+211765888+212177440+212571408+212831376+213037712+213245872+213352160
2467.79+213328720+213396672+213743472+214244160+214665808+214952976+215183328
2463.29+215442896+215861936+216489200+217046576+217173472+216971824+216922080
2458.80+217206672+217510368+217573616+217520352+217555904+217679072+217770960
2454.30+217738320+217613424+217619568+217967088+218440176+218528736+218158256
2449.80+217920160+218308848+219088080+219705056+219985696+220102352+220118288
2445.30+219949872+219657264+219465792+219490288+219592400+219603920+219626832
2440.80+219934736+220534976+221022576+221039904+220719344+220477984+220519040
2436.30+220724096+220898912+220964432+220990912+221127712+221423632+221707440
2431.80+221769984+221590128+221305504+221104000+221170112+221528192+221926512
2427.30+222100608+222084672+222030928+221901232+221612432+221296976+221142672
2422.80+221164976+221320464+221587952+221825952+221847472+221695488+221594896
2418.30+221664224+221897056+222267360+222633712+222730368+222424752+221865776
2413.80+221334224+221070768+221138448+221291008+221203792+220932160+220837984
2409.30+221047248+221381424+221746656+222099248+222179120+221837296+221466256
2404.80+221561232+222030928+222394448+222401216+222093056+221562832+221007264
2400.30+220724496+220794800+220942512+220858096+220487776+220052368+219878000
2395.80+220126816+220552064+220725104+220556048+220361536+220382048+220504480
2391.30+220546304+220527776+220563824+220649840+220664176+220532752+220352400
2386.80+220332688+220551056+220829824+220957632+221014816+221309744+222019136
2382.30+223087584+224483520+226266576+228343664+230460480+232617312+235236080
2377.80+238676240+242717088+246807360+250782752+255114336+260378640+266610976
2373.30+273293504+279906848+286336032+292765280+299376032+306183840+313011552
2368.80+319610016+325911936+332048352+337959328+343269920+347828736+351991904
2364.30+356003424+359482784+361913248+363281568+363853184+363723264+362898080
2359.80+361429088+359199872+355960800+351730816+346800384+341302464+335127520
2355.30+328237376+320780160+312871840+304433568+295244064+285121664+274150016
2350.80+262798528+252019008+243405360+238922176+239763648+245260688+253257744
2346.30+261682880+269574656+276847776+283623904+289892608+295496960+300333088
2341.80+304527424+308239424+311288736+313252512+314010976+314027392+314028576
2337.30+314418016+314944992+314979008+314209344+312968032+311753472+310636352
2332.80+309328256+307647456+305687616+303617152+301464928+299090592+296346336
2328.30+293229056+289820736+286197760+282551168+279203584+276241888+273335424
2323.80+270176992+266877888+263652720+260461760+257249264+254158416+251236144
2319.30+248275808+245173200+242104384+239217616+236454160+233746000+231100704
2314.80+228498960+225947072+223571616+221455520+219519136+217723408+216142272
2310.30+214677120+212972192+210860288+208702208+207065152+206141504+205591040
2305.80+204869680+203682704+202194752+200817536+199817024+199170800+198730848
2301.30+198342192+197821360+197050608+196134304+195319552+194736240+194312336
2296.80+193878800+193281168+192467568+191572128+190831536+190355328+190077328
2292.30+189901056+189723456+189371984+188742864+187986992+187377472+187000464
2287.80+186766688+186633760+186578800+186397632+185827200+184902976+183992192
2283.30+183384608+182993344+182577136+182123232+181864032+181921056+182091360
2278.80+182034736+181635152+181118304+180783712+180657328+180503248+180220800
2274.31+180038032+180162224+180378240+180262464+179765280+179297632+179211584
2269.81+179378976+179374048+178964624+178329168+177794192+177502000+177390272
2265.31+177356688+177282064+176992864+176452032+175888320+175534688+175322000
2260.81+175029632+174629392+174231360+173844784+173453136+173173888+173095456
2256.31+173040176+172720560+172108160+171475856+171101760+171050016+171188560
2251.81+171284016+171112528+170615616+169995968+169512752+169207040+168940512
2247.31+168684000+168534016+168479584+168384416+168203344+168025968+167925952
2242.81+167924176+167980752+167940832+167665200+167259856+166917168+166570032
2238.31+166015552+165312704+164693728+164222864+163867824+163708464+163774176
2233.81+163902032+163992336+164105936+164172016+163953056+163430304+162910000
2229.31+162694240+162834960+163129488+163218816+162892400+162381376+162094528
2224.81+162062672+161977088+161706896+161407232+161189200+161016736+160854640
2220.31+160649360+160308592+159841520+159402048+159102592+158926336+158834384
2215.81+158800816+158770768+158677456+158493424+158225296+157919104+157667408
2211.31+157526144+157473472+157480496+157517376+157447328+157109824+156591344
2206.81+156259600+156343648+156566000+156408208+155756672+155053984+154723184
2202.31+154688096+154648528+154534096+154422816+154268256+154026992+153823552
2197.81+153702128+153476080+153067136+152693488+152557904+152609136+152727376
2193.31+152831408+152769632+152401488+151835696+151364832+151155696+151116768
2188.81+151013584+150677360+150186240+149796576+149632736+149578608+149514000
2184.31+149430528+149289056+149051488+148857680+148862944+148958864+148932784
2179.81+148790176+148629488+148362576+147878432+147307808+146902384+146769408
2175.31+146863296+147080880+147265824+147263280+147024304+146594800+146045024
2170.81+145499040+145134864+145059648+145183440+145254576+145093664+144819856
2166.31+144754384+144978048+145132528+144848624+144245952+143756016+143585664
2161.81+143611680+143633072+143473984+143003040+142313920+141759456+141558752
2157.31+141501488+141252672+140827056+140549376+140597488+140782608+140821632
2152.81+140674528+140520256+140445360+140314208+140035776+139794064+139824336
2148.31+140037728+140100784+139883312+139596976+139432272+139317248+139112832
2143.81+138845376+138595408+138333232+138011376+137713392+137550544+137490624
2139.31+137417168+137313072+137287888+137439088+137742656+138021472+138016608
2134.81+137587760+136906240+136352752+136138240+136128736+136116352+136120416
2130.31+136257216+136447712+136478528+136312064+136122736+135994464+135794144
2125.81+135380512+134842016+134433360+134298576+134301104+134209496+134028256
2121.31+133985448+134161088+134309040+134201176+133937056+133751944+133692120
2116.81+133655152+133649144+133814688+134202144+134605344+134657248+134152944
2112.31+133313832+132635552+132448016+132662832+132919504+132905768+132586392
2107.81+132218096+132104296+132282728+132545152+132710264+132725360+132565880
2103.31+132239184+131848288+131480072+131106512+130716136+130426192+130336656
2098.81+130390600+130426968+130299720+129992600+129701384+129681472+129914280
2094.31+130109408+130107272+130001120+129862072+129663472+129511672+129586904
2089.82+129811408+129896488+129721096+129418880+129138536+128977496+129037432
2085.32+129295728+129474560+129287408+128799832+128339400+128030944+127664336
2080.82+127137224+126790064+126989824+127513232+127743568+127449480+127043912
2076.32+127012040+127362520+127652360+127431112+126695984+125970296+125785256
2071.82+126100456+126475568+126689408+126814408+126814976+126543568+126110120
2067.32+125851888+125941504+126277968+126641696+126801256+126606144+126175584
2062.82+125833928+125748368+125769440+125689088+125540784+125558160+125854984
2058.32+126177904+126130008+125643912+125102272+124860536+124884096+124968080
2053.82+125090096+125318912+125569560+125618408+125350192+124866328+124368640
2049.32+123992056+123787080+123824712+124175616+124719216+125129672+125176216
2044.82+124915952+124536984+124164032+123887624+123833992+124065408+124440448
2040.32+124676352+124626360+124431376+124238928+123884544+123205432+122586280
2035.82+122624472+123184408+123431784+122970800+122333544+122137952+122336256
2031.32+122515848+122467616+122305584+122288408+122574896+123008232+123276056
2026.82+123320832+123308288+123228584+122936648+122560040+122425768+122575080
2022.32+122705496+122610392+122412072+122386024+122670008+123129608+123508016
2017.82+123756784+124068680+124511688+124842376+124740264+124033920+122774000
2013.32+121391920+120600368+120738032+121384408+121933680+122270272+122560424
2008.82+122778440+122815664+122732320+122589760+122328352+121983648+121740016
2004.32+121694896+121794032+121985368+122229584+122442944+122605184+122772448
1999.82+122885128+122785760+122513744+122320256+122321976+122381216+122381792
1995.32+122349192+122331240+122485960+123262160+124984096+127007408+127826288
1990.82+126599576+124307248+122782296+122744088+123368688+123665312+123547392
1986.32+123422528+123430240+123434296+123336472+123121888+122878560+122884168
1981.82+123380456+124145696+124582144+124346832+123729184+123305000+123334720
1977.32+123607608+123807536+123901904+124087976+124471920+124953784+125367768
1972.82+125565112+125430136+125005152+124555120+124353968+124494512+125016336
1968.32+125989008+127212000+128056256+127988424+127193640+126355600+125897464
1963.82+125707064+125537504+125349992+125258280+125344016+125575928+125820608
1959.32+125964304+126062024+126261744+126588576+126944216+127264360+127432848
1954.82+127189784+126495656+125871592+125915240+126552440+127162744+127343392
1950.32+127189784+126983632+126940936+127110960+127305920+127324640+127297592
1945.82+127437880+127649664+127987072+129198472+131764704+134484480+135205792
1941.32+133311304+130439912+128484368+127895672+128089688+128503304+128792680
1936.82+128720200+128379024+128222672+128555496+129208712+129810248+130127984
1932.32+130112888+129862656+129660960+129809288+130295648+130733552+130722896
1927.82+130268368+129803656+129726328+129998408+130422912+131231872+132819232
1923.32+134737616+135712000+135083168+133569760+132304808+132115152+133945192
1918.82+138342736+143620448+146150768+144021552+139247616+135203856+133277424
1914.32+132787296+132701552+132468136+132073536+132083216+133058488+134676608
1909.82+135990032+136570384+136731232+136738976+136450800+135728656+134761840
1905.33+133977920+133747688+134097392+134687072+135139920+135342736+135389632
1900.83+135414608+135464208+135405312+135074832+134645248+134659568+135560096
1896.33+137233984+138924896+139611312+138911520+137673824+137034736+137008960
1891.83+137042496+137739376+140384048+144373184+146851840+145888368+142749424
1887.33+140099824+139144640+139276320+139520352+139421040+138974544+138437168
1882.83+138192864+138404976+138803104+139036608+139121568+139307568+139657488
1878.33+140088752+140648720+141364272+142037648+142507872+142784768+142769216
1873.83+142394672+142094336+142413520+143369872+145183056+149028512+155361840
1869.33+161781136+164563488+162622912+158229552+153908512+150461088+147745968
1864.83+145730528+144556400+144316656+144883008+145829856+146688896+147285664
1860.33+147652224+147862080+148084208+148458480+148851264+149033584+149025408
1855.83+149005552+149098560+149410304+149961232+150553552+150938624+151004832
1851.33+150723104+150271488+150175344+150913520+152496160+154472128+155833696
1846.83+155771488+156175728+161778416+174248048+186643792+188702288+179177200
1842.33+166636736+158212784+154324016+152838992+152733424+153468288+154447968
1837.83+155578048+156634848+156853680+156201296+155628944+155579808+155752176
1833.33+156036112+156478816+157548608+161116160+168545376+176888640+180282128
1828.83+176613792+169537248+163713568+161859280+164994880+171182880+175150496
1824.33+173260160+167855072+163576736+161801264+161146064+160687824+160343168
1819.83+159968240+159762640+160255664+161224768+161809264+161709648+161317760
1815.33+161018704+161068512+161593584+162400528+163392384+165016800+167483568
1810.83+169792048+170463776+169235440+167393520+166346576+166235456+166164432
1806.33+165629568+165071744+164877936+164946192+165693552+167997776+171396288
1801.83+174005616+175148528+176190576+177733504+178078768+175769008+172046608
1797.33+169581504+169604208+170785696+170985344+170742384+174207056+184371568
1792.83+197429440+204754576+202143744+193566352+184652608+177526544+172437472
1788.33+169713520+168884896+168955392+170334864+173973648+178333680+179940176
1783.83+177560320+173674144+171602064+172854880+176503664+179666624+179655232
1779.33+176762400+173696512+172229104+172350432+173990496+176692704+178496320
1774.83+179108832+183254944+195946848+214051248+226375872+224765008+212044624
1770.33+197303552+188385408+188368272+193910208+197118224+193100192+184985440
1765.83+178725760+176004512+174944288+175303136+179648768+189076128+199419744
1761.33+203524528+198620336+189595520+183216992+181986144+184906112+190441504
1756.83+195740048+196351984+191162256+184662048+181228208+181535296+186438992
1752.33+198191968+213968000+223884320+221922352+213896864+208483440+207163088
1747.83+206369808+203941536+200351648+196767664+194543536+194972208+197997056
1743.33+201463136+202502560+200987888+201473824+208770640+220358752+226563008
1738.83+221783952+211229856+202878272+200131312+205180096+222057808+250551792
1734.33+279000896+289600448+275726272+248777440+225271008+213685680+212242384
1729.83+213815600+212971200+209557360+206253104+204663088+204434688+204728640
1725.33+205532416+207509216+210686032+213751056+215212720+215027888+214582736
1720.84+215678640+220514032+232081328+252264176+277270496+295574496+296455040
1716.34+283334816+270073440+264072864+260948000+254525568+245875856+239674512
1711.84+237637904+238953024+242485888+246086416+247656368+248704704+253269808
1707.34+262611264+273792928+283293792+289713248+293252736+294266368+292942976
1702.84+292118720+300596800+328487200+373815200+413340864+419311296+393073088
1698.34+362122656+350166880+365301184+400240320+432171648+436832608+415578144
1693.84+391513888+380767488+382681024+389953120+399105696+409941120+420922112
1689.34+430151168+437753664+443946528+448636064+456246336+476271584+513487872
1684.84+556687104+582178624+577843008+555343680+532871264+520270784+518669312
1680.34+523860512+529939776+533746400+536368960+540661312+549904832+567556224
1675.84+592631040+614423232+619777920+609815936+599483200+599744960+609189184
1671.34+621523072+635214912+651917120+668341184+676225856+672335872+663509440
1666.84+658799808+660880832+666784832+674450816+685817600+702696448+721403520
1662.34+734140288+737200384+735196736+734956864+738614784+744334464+750496640
1657.84+756462912+761580736+766674304+775345600+792277824+821412032+863669696
1653.34+909145344+931574592+909943936+858257600+808404160+778391488+768517952
1648.84+771290496+779587008+789885696+801064000+809803904+808355584+792259648
1644.34+768927488+750632576+741658304+737468736+733580992+729755072+726105152
1639.84+721848576+718143040+716668992+716753792+719014336+727980224+743240064
1635.34+750564608+734114432+698039296+660479680+632664640+614328128+600931008
1630.84+588858304+576591296+565172608+556567168+549862720+540957632+527203424
1626.34+510650240+496466240+489450784+490367360+493446016+489602208+475277632
1621.84+455904800+439188640+428174816+420896800+415050592+413303648+422270944
1617.34+442542080+459807520+454919968+428356640+399138784+380523904+371562240
1612.84+366314816+362081600+358730688+356208736+354745792+354146368+352782624
1608.34+349669152+346080128+343097376+339926944+336248704+333522080+332537056
1603.84+332177728+331411616+330415040+329443136+328349696+327091232+325587168
1599.34+323757632+322273856+322088320+322996224+323976608+324763968+325727424
1594.84+326676128+327074976+326913216+326514240+326196992+326389184+327140064
1590.34+327745248+327798208+327990688+329026080+330720320+332672864+334607040
1585.84+336002400+336765984+337767264+339369920+340681568+341414592+342627744
1581.34+344811168+347457056+350458720+353559488+356452448+362944992+381000160
1576.84+411946816+440223840+444203232+423360672+398035360+383705984+380791776
1572.34+382919296+387617888+398026144+415345792+432346624+438036128+430165504
1567.84+417675456+410003776+409962080+415567104+423230848+429072704+430922208
1563.34+429913536+429791520+436386336+456563488+492581120+535796960+570918656
1558.84+589263680+589887616+571389056+538076992+507176160+495775744+505027040
1554.34+519758528+523611776+514878976+503917632+499940096+504657760+513697664
1549.84+520814496+522198368+518447328+513233856+510942240+514974816+525511872
1545.34+537162112+542046656+539576832+539237888+548587712+563047104+573405440
1540.84+580827072+592807168+604797952+599165952+569004672+529304864+497609664
1536.35+479743136+473795296+477291296+487440512+497322624+497795712+486495328
1531.85+470381696+456784928+447257536+441177568+439378720+441236736+443003744
1527.35+442938272+443934976+447336544+448404000+442274400+432050624+426923040
1522.85+433702112+450989952+468575200+472871904+457764128+431090528+408160896
1518.35+399602336+403897280+409314048+405877056+394638816+381933568+371106016
1513.85+363688896+361330944+362059296+360139040+353725280+347619424+346178592
1509.35+349603616+358235360+374396256+397089088+417456992+422345536+404651040
1504.85+370468128+334310848+307923040+294327552+289444160+287262432+285128576
1500.35+285430240+290878112+298232928+301095296+300415808+304014688+312240224
1495.85+313179488+299032800+278385280+263406240+256559152+254783600+257832736
1491.35+266716832+277628416+283097344+279774976+271962592+266164240+263907296
1486.85+261099872+254355856+245856976+239957968+237585216+236686720+236290064
1482.35+237063392+238656832+239375456+238558688+237128848+235923312+235719440
1477.85+238632784+246232368+255429424+260094752+259538656+261177760+271475200
1473.35+287641216+300090208+301278176+290702944+273801664+258349408+249585392
1468.85+247014352+246670224+246330704+247523824+253222512+263998128+274737472
1464.35+276824448+267878352+255929200+249404320+248554832+249997808+253939312
1459.85+262141056+274089856+290384096+313823008+340118368+353009696+340596704
1455.35+312237792+286343968+271761600+266483472+265280640+264741808+263508368
1450.85+261392368+259655008+260764864+265943824+272535872+275393152+272132416
1446.35+265671696+260504512+258246032+257585120+257007520+256314656+255833344
1441.85+255391984+254687776+253906848+253206848+253043856+256521488+268656544
1437.35+288919040+305206368+303044640+283863072+263173520+251681552+248010672
1432.85+246512208+245459568+246507184+250232192+254568432+256163424+253254320
1428.35+247999408+244432000+243834576+244438800+245524240+248398560+252824592
1423.85+256010720+255969072+253281904+250425152+252166000+263781936+283915264
1419.35+300373952+300592704+286994720+272438496+264073456+259887440+256592800
1414.85+254351024+254185776+255582448+257602048+259720720+261234448+261566464
1410.35+261215472+261330256+262461312+264250928+266023808+267587088+269677376
1405.85+273124000+277093088+279098080+277829344+274944320+272779008+271779424
1401.35+271834880+274435008+280646624+287572192+289979136+286197344+279945248
1396.85+276210656+277674848+283828320+290539264+291661024+284568416+273440160
1392.35+264623888+260523664+259263712+258278464+257110064+257743888+262239744
1387.85+268889664+271834880+267139392+257863760+250057488+246102304+244474720
1383.35+243512032+242725088+241785632+240483312+239109472+237906960+236847008
1378.85+236062384+235599600+235037872+234284656+234256880+235961728+239196144
1374.35+242348768+243227824+240674288+235996320+232018784+230286144+230173488
1369.85+230718528+231645936+232389472+232051168+230765504+229435616+228248272
1365.35+227353248+228373408+232686256+238396288+241558288+240719344+237910352
1360.85+235139488+232561536+230221232+229021760+229169696+229517104+229277920
1356.35+229106800+229741168+230650032+230798048+230059648+229171504+228671600
1351.86+228531680+228720928+229517696+230936096+232231808+232563776+232083536
1347.36+231703264+231856320+232238208+232791616+233976320+235754064+237224320
1342.86+237822848+238264752+239742800+242521168+245666688+247936944+248704704
1338.36+248210512+247131024+245964976+244860736+244019520+243963376+245054416
1333.86+246872624+248509216+249593648+250620736+252174272+254250832+256490656
1329.36+258565472+260200608+261315120+262267184+263456320+264687312+265455392
1324.86+265733536+265841408+265777376+265429920+265204896+265597968+266355168
1320.36+266812224+266882944+266989872+267233392+267329808+267215600+267087856
1315.86+266924784+266516192+265981808+265820368+266328064+267209104+267860576
1311.36+267944672+267633552+267328800+267246720+267326928+267489856+267763952
1306.86+268096896+268240240+268094256+268029552+268554400+269660160+270782528
1302.36+271437760+271639360+271658976+271663840+271720096+271919072+272326944
1297.86+272860192+273325696+273556384+273528640+273443968+273669600+274418240
1293.36+275429632+276155520+276352544+276334912+276491776+276798496+277036352
1288.86+277248224+277628416+278094208+278358912+278361312+278318944+278377184
1284.36+278491968+278626016+278844320+279198528+279609184+279888416+279865440
1279.86+279566336+279237472+279111296+279190208+279335264+279490272+279722624
1275.36+280061088+280376096+280481600+280389280+280367744+280635072+281082464
1270.86+281490912+281848896+282179104+282235552+281832480+281366272+281561184
1266.36+282639488+284154464+285579648+286685600+287345824+287466656+287328544
1261.86+287627328+288852480+290706016+292402752+293476288+294028480+294266752
1257.36+294257824+294171360+294242720+294323456+293952224+293098016+292324960
1252.86+291963072+291629056+290899680+289984416+289294976+288680096+287579328
1248.36+285869760+284171520+283182464+282910048+282796096+282526976+282315552
1243.86+282334624+282295456+281898624+281329920+280907872+280559744+280044832
1239.36+279442400+279021984+278826432+278751584+278812288+278922016+278603136
1234.86+277448352+275827200+274619360+274193760+274068992+273616928+272673728
1230.36+271415680+270097312+269003936+268263056+267558000+266407504+264796960
1225.86+263247584+262143472+261325392+260439984+259496720+258799664+258390144
1221.36+257866400+256920528+255736704+254571824+253270000+251678128+250254080
1216.86+249640864+249778944+249972272+249699984+248929312+247871872+246903936
1212.36+246507376+246843904+247482880+247821264+247675424+247328656+247151712
1207.86+247311760+247761184+248349520+248967920+249579776+250184112+250828192
1203.36+251622832+252658832+253901040+255200736+256449584+257696928+259081248
1198.86+260666464+262359408+263969072+265373952+266716656+268390208+270618816
1194.36+273064512+275213568+277133248+279350880+281922208+284235904+285934848
1189.86+287452992+289437408+292108992+295313824+298729600+301918400+304571584
1185.36+306818304+309114368+311800416+314827616+317863648+320717248+323655936
1180.86+327112480+331079872+335080832+338713664+341953024+345003456+348168896
1176.36+351704096+355575264+359511712+363381216+367277600+371285152+375408288
1171.86+379573920+383540000+387123200+390617344+394543616+398956832+403453824
1167.37+407711616+411610368+415183232+418869280+423251232+428211456+433011872
1162.87+437392256+441818560+446636992+451810080+457319392+462962688+468042208
1158.37+472125344+475785024+479911936+484717184+489925312+495421280+501198624
1153.87+507052128+512727104+518221408+523817056+529875424+536548320+543622272
1149.37+550695232+557504000+564057856+570598848+577350848+584171776+590701440
1144.87+597076480+604036672+611946112+620224768+628170304+635802368+643508160
1140.37+651342400+659056320+666416768+673362432+680185664+687521280+695731968
1135.87+704411968+712822656+720658240+728065472+735188224+742102016+749081536
1131.37+756552512+764632192+772854528+780532416+787411840+793832064+800270720
1126.87+806947584+813828224+820714688+827296640+833427456+839383104+845524672
1122.37+851772096+857750272+863383232+868949440+874612864+880245632+885672256
1117.87+890819328+895706432+900509952+905469056+910468352+914950528+918529216
1113.37+921539712+924675776+928242880+932070464+936070144+940448192+945223360
1108.87+949828608+953508544+956158272+958536064+961447168+964812288+967872256
1104.37+970347200+972982720+976659136+981258624+985854720+989911744+993735232
1099.87+997645248+1001268800+1004078080+1006262080+1008543168+1011307328
1096.01+1014433216+1017847552+1021628544+1025492736+1028700352+1030838848
1092.16+1032358144+1034052416+1036190336+1038424192+1040375872+1041898176
1088.30+1042923328+1043599808+1044537536+1046293312+1048583168+1050716352
1084.44+1052734336+1055161472+1057641088+1059027584+1059068480+1058910976
1080.58+1059643648+1061236608+1063116608+1064879040+1066266368+1067131456
1076.73+1067567488+1067744448+1067787008+1068012864+1068892992+1070468864
1072.87+1072121856+1073104192+1073132480+1072569088+1072221760+1072673600
1069.01+1073552320+1073741824+1072605824+1070619456+1068498944+1066055040
1065.16+1062336896+1056835776+1050136896+1043100480+1035529344+1026109632
1061.30+1013989696+1000087424+986353024+973812416+961905152+949786112+937585600
1056.80+925919296+914760704+903540096+892107712+880785472+869626112+858345792
1052.30+846937024+835718720+824793984+813889216+802658752+790999232+779297280
1047.80+768281664+758146880+748044224+737149824+725934400+715546496+706190016
1043.30+696956352+687133184+676974080+667203136+658092800+649176384+639939072
1038.80+630659840+622006720+613853696+605452928+596811200+588706176+581182528
1034.30+573364416+564987136+556899200+549761344+543303552+536983360+530597696
1029.80+524286784+518494464+513668992+509659488+505750720+501410560+496528224
1025.30+491162624+485722112+481116416+477992096+476065984+474659968+473451872
1020.80+472293760+470885312+469142080+467517792+466624320+466713504+467487616
1016.30+468293376+468726176+469173344+470414464+472678496+475535264+478656832
1011.80+482100480+485916544+490086208+494809920+500345664+506497504+512601856
1007.30+518166912+523431456+529212928+536064128+543669760+551323840+558772864
1002.80+566155776+573432128+580510144+587618944+594900608+602011840+608769216
998.30+615630144+622903360+630096256+636690752+642936448+649315072+655778752
993.80+661967296+667766016+673334016+678890368+684519936+689982720+694768640
989.30+698542784+701467904+704009920+706538880+709094080+711433920+713387840
984.80+715113024+716798848+718246080+719047040+719104960+718662400+717911296
980.30+716853760+715459840+713717440+711523456+708733760+705456960+702166976
975.80+699186816+696084992+692097920+687279552+682541056+678290816+673853376
971.30+668591360+662796352+657070784+651533312+646014016+640400768+634536896
966.80+628251328+621661312+615159488+609068544+603370816+597635200+591295104
962.30+584304256+577382976+571245696+565757184+560224064+554323136+548359040
957.81+542804224+537928192+533711808+529769664+525395712+520090624+514168512
953.31+508555904+503782912+499509984+495305280+491376736+488083744+485152768
948.81+481949152+478230304+474232288+470327136+466866304+463999136+461452800
944.31+458839104+456190816+453889312+452097920+450550880+448904320+447194816
939.81+445820544+444937344+444031648+442466848+440267456+437910592+435742144
935.31+434182272+433806400+434414176+434786944+434208128+433368064+432981984
930.81+432541216+431232192+429189184+427117024+425420096+424099200+422945728
926.31+421634976+420076704+418570752+417302816+415956512+414153344+412022816
921.81+410083168+408625728+407356160+405783232+403980224+402638880+402190336
917.31+402283616+402370624+402272448+401923168+401112832+399747200+398038336
912.81+396434240+395485536+395460480+395876288+395881920+395208864+394251808
908.31+393327744+392453216+391661376+391015072+390552576+390499168+391006816
903.81+391592160+391635456+391389376+391605184+392274368+392794496+393220256
899.31+394259616+396057152+397926656+399344224+400522784+401952928+403787488
894.81+405712032+407247744+408201088+408832160+409538688+410532000+411867584
890.31+413582784+415652544+417945728+420315072+422632544+424745856+426509248
885.81+427905856+429085024+430295360+431731168+433369120+435019168+436615552
881.31+438323104+440218944+441993024+443207936+443833984+444352320+445282720
876.81+446695648+448204832+449507488+450841984+452637792+454675680+456038208
872.31+456187840+455630176+455134624+454785600+454343232+454084832+454578496
867.81+455754528+456714944+456636512+455725248+455062080+455321856+455869824
863.31+455613632+454409728+452947104+451595488+450345280+449440384+448949472
858.81+448231808+446989440+446095200+446161728+446076544+444117696+439835616
854.31+434159104+428608832+424955680+424284800+425638496+426442656+424883840
849.81+421579104+418841856+418245472+418686336+417255520+412591360+406555648
845.31+401891072+399476000+398553504+398051424+397022560+395281280+394051840
840.81+394593984+396375488+397780960+397617888+394935712+389234208+382308512
836.31+377848064+377212960+377318304+374546464+369275008+364835488+363283648
831.81+363756032+364105664+362704864+359358912+355642016+353750656+354053632
827.31+354496960+353303712+351363712+350739360+351563456+352028864+351075296
822.81+349441728+348148768+347568448+348125536+350146752+352500768+353029280
818.31+351085088+348297504+346120576+344052448+341172480+338172096+336632064
813.81+336995168+338332736+339805152+341444832+343339520+344974208+345994720
809.31+346948000+348187136+348659712+347348800+345230144+344069440+344161664
804.81+345156576+347640384+351564704+354713120+355231776+354075264+353243232
800.31+353740064
##END=
