Image.
>Pix99999.
  .
5555
5555
2300
900
5555
2
1
0
701
5555
1.5857000e-002
1.6186528e-002
1.6517054e-002
1.6846586e-002
1.7176116e-002
1.7506637e-002
1.7836170e-002
1.8165700e-002
1.8496217e-002
1.8825756e-002
1.9156272e-002
1.9485814e-002
1.9815343e-002
2.0145854e-002
2.0475401e-002
2.0801993e-002
2.1135366e-002
2.1475719e-002
2.1794796e-002
2.2085128e-002
2.2453399e-002
2.2932511e-002
2.3119407e-002
2.2894820e-002
2.3755178e-002
2.5990356e-002
2.3251792e-002
9.8506734e-003
-9.7457040e-003
-3.0207010e-002
-5.4328974e-002
-8.7079689e-002
-1.3274293e-001
-1.9057356e-001
-2.4045426e-001
-2.6409250e-001
-2.7330130e-001
-2.8611916e-001
-3.1002730e-001
-3.4104833e-001
-3.4205514e-001
-2.7977216e-001
-1.7646681e-001
-7.2708488e-002
-1.5012246e-002
-3.6175542e-002
-1.0701622e-001
-1.8266520e-001
-2.3176068e-001
-2.3540920e-001
-2.0697927e-001
-1.6952148e-001
-1.4473651e-001
-1.5101127e-001
-1.9570874e-001
-2.7758241e-001
-3.7440079e-001
-4.6020833e-001
-5.2098382e-001
-5.5072081e-001
-5.5979401e-001
-5.6007397e-001
-5.4819143e-001
-5.1660961e-001
-4.6176600e-001
-3.8590172e-001
-3.0921075e-001
-2.5470394e-001
-2.3256376e-001
-2.4462904e-001
-2.7686700e-001
-3.1293407e-001
-3.4874666e-001
-3.8409352e-001
-4.1697842e-001
-4.4468001e-001
-4.6457171e-001
-4.7564679e-001
-4.8331767e-001
-4.9085566e-001
-4.8342857e-001
-4.4411466e-001
-3.7399927e-001
-2.8484151e-001
-2.0501800e-001
-1.6051985e-001
-1.4369701e-001
-1.3708973e-001
-1.3429172e-001
-1.3783930e-001
-1.6873443e-001
-2.4618560e-001
-3.5433525e-001
-4.6526816e-001
-5.5640930e-001
-6.1232996e-001
-6.3706803e-001
-6.3934004e-001
-6.1719102e-001
-5.6803560e-001
-5.0483286e-001
-4.4695401e-001
-4.1477165e-001
-4.2286733e-001
-4.6102801e-001
-5.1113749e-001
-5.6263930e-001
-6.0966426e-001
-6.5170181e-001
-6.8784952e-001
-7.0728928e-001
-6.9811845e-001
-6.6108203e-001
-6.0464722e-001
-5.4745167e-001
-5.0989270e-001
-5.0342059e-001
-5.3287309e-001
-5.9155750e-001
-6.6509759e-001
-7.2642487e-001
-7.4684715e-001
-7.1232527e-001
-6.2290156e-001
-5.1090258e-001
-4.1835287e-001
-3.7183619e-001
-3.8325864e-001
-4.3343407e-001
-4.9353489e-001
-5.4906082e-001
-5.9590113e-001
-6.4470422e-001
-7.0834190e-001
-7.8343511e-001
-8.5675013e-001
-9.0520847e-001
-9.0608037e-001
-8.5478991e-001
-7.6108664e-001
-6.5997601e-001
-5.9372032e-001
-5.8904517e-001
-6.5683836e-001
-7.7356815e-001
-9.0207708e-001
-1.0124749e+000
-1.0834800e+000
-1.1112463e+000
-1.1024482e+000
-1.0732286e+000
-1.0425146e+000
-1.0246485e+000
-1.0276732e+000
-1.0435181e+000
-1.0572321e+000
-1.0554926e+000
-1.0296099e+000
-9.8514074e-001
-9.3427783e-001
-8.8758427e-001
-8.5275167e-001
-8.3065271e-001
-8.2119823e-001
-8.3435875e-001
-8.8280404e-001
-9.6830505e-001
-1.0821404e+000
-1.1953881e+000
-1.2745173e+000
-1.3080086e+000
-1.3010063e+000
-1.2781428e+000
-1.2700425e+000
-1.2935208e+000
-1.3525000e+000
-1.4299097e+000
-1.5009310e+000
-1.5521791e+000
-1.5807697e+000
-1.5989314e+000
-1.6240342e+000
-1.6628981e+000
-1.7129227e+000
-1.7572178e+000
-1.7694979e+000
-1.7137537e+000
-1.5608262e+000
-1.3313982e+000
-1.0762680e+000
-8.5774755e-001
-7.2792876e-001
-6.7672908e-001
-6.6275865e-001
-6.5839010e-001
-6.5041441e-001
-6.4229721e-001
-6.4095449e-001
-6.3166177e-001
-5.9188670e-001
-5.2139002e-001
-4.3682015e-001
-3.6848402e-001
-3.4802741e-001
-3.8431925e-001
-4.6912900e-001
-5.7914710e-001
-6.8633497e-001
-7.7455449e-001
-8.3685040e-001
-8.7305003e-001
-8.8372570e-001
-8.5840350e-001
-7.8567582e-001
-6.8018740e-001
-5.7381850e-001
-5.0321013e-001
-4.9772352e-001
-5.4896080e-001
-6.2813026e-001
-7.1775091e-001
-8.0953270e-001
-8.9524764e-001
-9.6538222e-001
-1.0086672e+000
-1.0159392e+000
-9.9170375e-001
-9.4843489e-001
-8.9593631e-001
-8.3925927e-001
-7.7386016e-001
-6.8968111e-001
-5.7779074e-001
-4.3681493e-001
-2.9320371e-001
-1.8989208e-001
-1.6457509e-001
-2.4013110e-001
-3.9676020e-001
-5.8728683e-001
-7.6308399e-001
-8.8134563e-001
-9.1592038e-001
-8.5492229e-001
-7.0274282e-001
-4.7994199e-001
-2.3716061e-001
-3.7248574e-002
8.7441608e-002
1.3523041e-001
1.4048572e-001
1.4990544e-001
1.6794761e-001
1.7216933e-001
1.6050659e-001
1.4757636e-001
1.4270714e-001
1.4748372e-001
1.5507892e-001
1.5811169e-001
1.6999629e-001
2.1244273e-001
2.7546531e-001
3.2507315e-001
3.2863858e-001
2.6846927e-001
1.7651680e-001
1.0415842e-001
3.1395052e-002
-9.9560998e-002
-2.6255956e-001
-3.7165204e-001
-3.8045010e-001
-2.9259121e-001
-1.6669895e-001
-8.8542715e-002
-1.0676841e-001
-2.2167900e-001
-3.5942367e-001
-4.0872905e-001
-3.2009199e-001
-1.1309180e-001
1.2016311e-001
2.5692976e-001
2.5140017e-001
1.3403919e-001
-1.3578389e-002
-8.2795642e-002
2.3225680e-002
3.6825103e-001
9.2425084e-001
1.5951011e+000
2.2898204e+000
2.9559796e+000
3.6544478e+000
4.5395412e+000
5.7965188e+000
7.6184816e+000
1.0183085e+001
1.3568204e+001
1.7451000e+001
2.1234240e+001
2.4548904e+001
2.7344496e+001
2.9968931e+001
3.3028336e+001
3.6994835e+001
4.2040943e+001
4.7639278e+001
5.2853477e+001
5.7436928e+001
6.1814587e+001
6.6453407e+001
7.1632256e+001
7.7076424e+001
8.2111801e+001
8.6336128e+001
8.9684448e+001
9.2234940e+001
9.4128555e+001
9.5463882e+001
9.6280739e+001
9.6583023e+001
9.6357254e+001
9.5617973e+001
9.4429718e+001
9.2959251e+001
9.1422859e+001
8.9857590e+001
8.8117020e+001
8.6010017e+001
8.3371109e+001
8.0203728e+001
7.6647324e+001
7.2760284e+001
6.8506729e+001
6.3879356e+001
5.8942841e+001
5.3886292e+001
4.8990231e+001
4.4461716e+001
4.0409065e+001
3.6888256e+001
3.3907780e+001
3.1404795e+001
2.9260714e+001
2.7386459e+001
2.5741903e+001
2.4334337e+001
2.3206102e+001
2.2382500e+001
2.1860037e+001
2.1614828e+001
2.1610537e+001
2.1822678e+001
2.2243242e+001
2.2860880e+001
2.3665491e+001
2.4691254e+001
2.6016663e+001
2.7726400e+001
2.9882771e+001
3.2449341e+001
3.5284992e+001
3.8216759e+001
4.1070122e+001
4.3713581e+001
4.6109249e+001
4.8461628e+001
5.1133419e+001
5.4090927e+001
5.6848530e+001
5.8944267e+001
6.0111431e+001
6.0439877e+001
6.0314213e+001
5.9875607e+001
5.8934986e+001
5.7318020e+001
5.4996067e+001
5.2230114e+001
4.9525410e+001
4.7166927e+001
4.5125118e+001
4.3278748e+001
4.1477299e+001
3.9576305e+001
3.7460773e+001
3.5106640e+001
3.2600071e+001
3.0103628e+001
2.7809992e+001
2.5732281e+001
2.3676105e+001
2.1459713e+001
1.9005014e+001
1.6440256e+001
1.4080089e+001
1.2099372e+001
1.0448817e+001
8.9999142e+000
7.6022782e+000
6.1866045e+000
4.7878256e+000
3.4568925e+000
2.2402415e+000
1.1982414e+000
4.0514570e-001
-8.6725548e-002
-2.4778554e-001
-8.5163116e-003
7.2951937e-001
1.9251949e+000
3.3594561e+000
4.8224092e+000
6.1818056e+000
7.4089489e+000
8.5824232e+000
9.7731123e+000
1.0995165e+001
1.2168200e+001
1.3116132e+001
1.3712545e+001
1.3934605e+001
1.3824782e+001
1.3481393e+001
1.2990800e+001
1.2402740e+001
1.1742057e+001
1.1007867e+001
1.0187839e+001
9.2688084e+000
8.2833958e+000
7.3228722e+000
6.4710741e+000
5.7791963e+000
5.2683148e+000
4.9272270e+000
4.7379847e+000
4.6833248e+000
4.7480683e+000
4.9203792e+000
5.1940036e+000
5.5670805e+000
6.0282097e+000
6.5478158e+000
7.0762510e+000
7.5419536e+000
7.8755202e+000
8.0235033e+000
7.9679146e+000
7.7401714e+000
7.3961473e+000
7.0069327e+000
6.6206384e+000
6.2458301e+000
5.8798985e+000
5.5170441e+000
5.1536565e+000
4.7885342e+000
4.4110885e+000
3.9975767e+000
3.5354519e+000
3.0337303e+000
2.5075588e+000
1.9729607e+000
1.4410294e+000
9.1856682e-001
4.3239319e-001
3.9900497e-002
-2.0788586e-001
-2.8186435e-001
-1.6604286e-001
1.3977364e-001
6.1594617e-001
1.2178714e+000
1.9013520e+000
2.6286330e+000
3.3443174e+000
3.9631038e+000
4.3969798e+000
4.5738540e+000
4.4790511e+000
4.1848550e+000
3.7781069e+000
3.3350470e+000
2.9150026e+000
2.5518630e+000
2.2635982e+000
2.0488791e+000
1.8891001e+000
1.7461650e+000
1.5884811e+000
1.4055840e+000
1.2045662e+000
1.0130795e+000
8.5449690e-001
7.3715574e-001
6.6620404e-001
6.4882630e-001
7.0163429e-001
8.5537565e-001
1.1344168e+000
1.5432453e+000
2.0633240e+000
2.6429257e+000
3.2221744e+000
3.7425919e+000
4.1610951e+000
4.4641738e+000
4.6592183e+000
4.7789307e+000
4.8613157e+000
4.9417725e+000
5.0469289e+000
5.1892557e+000
5.3804655e+000
5.6380386e+000
5.9852600e+000
6.4520254e+000
7.0614543e+000
7.8193579e+000
8.7141218e+000
9.7097988e+000
1.0766047e+001
1.1845500e+001
1.2912266e+001
1.3930257e+001
1.4854977e+001
1.5626946e+001
1.6186615e+001
1.6483624e+001
1.6479479e+001
1.6152390e+001
1.5500603e+001
1.4559700e+001
1.3389132e+001
1.2080711e+001
1.0742276e+001
9.4884720e+000
8.4215622e+000
7.6048684e+000
7.0675373e+000
6.7851405e+000
6.7105408e+000
6.7741680e+000
6.8951678e+000
6.9807625e+000
6.9414415e+000
6.7039957e+000
6.2290287e+000
5.5433507e+000
4.7107029e+000
3.8385658e+000
3.0294507e+000
2.3497372e+000
1.8307594e+000
1.4463832e+000
1.1577907e+000
9.3046415e-001
7.4476999e-001
6.1144489e-001
5.4235709e-001
5.3544712e-001
5.7991695e-001
6.5353733e-001
7.3650932e-001
8.2013655e-001
8.9552063e-001
9.4743216e-001
9.5957458e-001
9.1765279e-001
8.1655407e-001
6.7162561e-001
5.0700897e-001
3.5477358e-001
2.3940206e-001
1.6165707e-001
1.0241640e-001
1.2735084e-002
-1.3374743e-001
-2.9392451e-001
-4.1429418e-001
-4.5791897e-001
-4.0820122e-001
-2.8813237e-001
-1.3212168e-001
2.1129325e-002
1.3583960e-001
1.8768550e-001
1.7194557e-001
1.2474301e-001
8.6558282e-002
8.2642503e-002
1.1769815e-001
1.5595500e-001
1.6829166e-001
1.6752976e-001
1.8329327e-001
2.6053506e-001
4.3099713e-001
6.8360019e-001
1.0014732e+000
1.3796273e+000
1.8183503e+000
2.3216994e+000
2.8730874e+000
3.3986712e+000
3.8123829e+000
4.0347552e+000
4.0238204e+000
3.8336608e+000
3.5449936e+000
3.2461784e+000
3.0051787e+000
2.8303950e+000
2.7165720e+000
2.6611872e+000
2.6576450e+000
2.6867518e+000
2.7254314e+000
2.7493389e+000
2.7446504e+000
2.7287669e+000
2.7187204e+000
2.7098179e+000
2.6925547e+000
2.6605844e+000
2.6200821e+000
2.6100092e+000
2.6646900e+000
2.7803829e+000
2.9290183e+000
3.0383878e+000
3.0405724e+000
2.9126737e+000
2.6588669e+000
2.3307381e+000
1.9782627e+000
1.6126994e+000
1.2362096e+000
8.5387826e-001
4.8711339e-001
2.0279457e-001
5.2831456e-002
7.8486810e-003
7.0445649e-003
-4.4098064e-002
-2.1560590e-001
-4.7475103e-001
-7.6319784e-001
-1.0222930e+000
-1.2065868e+000
-1.3138468e+000
-1.3521974e+000
-1.3304651e+000
-1.2549795e+000
-1.1241310e+000
-9.3826163e-001
-7.0921111e-001
-4.6257257e-001
-2.5870937e-001
-1.5686934e-001
-1.8298554e-001
-3.3388245e-001
-5.3643250e-001
-7.1398681e-001
-8.3694786e-001
-8.9776015e-001
-9.2417735e-001
-9.3940341e-001
-9.2072421e-001
-8.3657402e-001
-6.6499603e-001
-4.0792832e-001
-1.4251725e-001
6.4481497e-002
2.4899817e-001
4.5073426e-001
6.3155961e-001
7.4570316e-001
7.8986090e-001
7.7029133e-001
6.8986738e-001
5.5873966e-001
4.1710123e-001
3.1363901e-001
3.0056524e-001
4.1920492e-001
6.6639048e-001
1.0184885e+000
1.4158832e+000
1.7943885e+000
2.1069400e+000
2.3197985e+000
2.4355109e+000
2.4644935e+000
2.4106874e+000
2.2912874e+000
2.1821876e+000
2.1735001e+000
