Image.
>Pix99999.
  .
5555
5555
2300
900
5555
2
1
0
701
5555
6.9231004e-002
7.0670940e-002
7.2110876e-002
7.3550820e-002
7.4991755e-002
7.6431707e-002
7.7871643e-002
7.9312570e-002
8.0752522e-002
8.2192466e-002
8.3633386e-002
8.5074328e-002
8.6513296e-002
8.7951258e-002
8.9394100e-002
9.0844862e-002
9.2274293e-002
9.3673974e-002
9.5153838e-002
9.6748568e-002
9.8040283e-002
9.8905377e-002
1.0089623e-001
1.0448040e-001
1.0387571e-001
9.1707714e-002
6.1138865e-002
1.2259377e-002
-2.7529880e-002
-3.1398028e-002
-5.8769658e-003
3.2583963e-002
6.6121250e-002
8.1920706e-002
8.8801771e-002
9.9119551e-002
1.1415345e-001
1.3385445e-001
1.6629826e-001
2.2282135e-001
3.1825200e-001
4.6062016e-001
6.2638259e-001
7.8389776e-001
9.0724421e-001
9.7891963e-001
1.0078731e+000
1.0109060e+000
1.0036417e+000
1.0006820e+000
1.0127572e+000
1.0489315e+000
1.1154817e+000
1.2140453e+000
1.3303204e+000
1.4458250e+000
1.5446920e+000
1.6166164e+000
1.6688908e+000
1.7143987e+000
1.7646458e+000
1.8291574e+000
1.9120069e+000
2.0140491e+000
2.1288850e+000
2.2468150e+000
2.3519943e+000
2.4288075e+000
2.4684029e+000
2.4666717e+000
2.4265900e+000
2.3562448e+000
2.2738886e+000
2.2015250e+000
2.1644990e+000
2.1828749e+000
2.2520897e+000
2.3547180e+000
2.4565899e+000
2.5244997e+000
2.5528686e+000
2.5502059e+000
2.5416427e+000
2.5525873e+000
2.5855279e+000
2.6324108e+000
2.6744385e+000
2.6919353e+000
2.6755149e+000
2.6236708e+000
2.5497487e+000
2.4744761e+000
2.4250932e+000
2.4252567e+000
2.4745934e+000
2.5601451e+000
2.6563559e+000
2.7360301e+000
2.7853999e+000
2.7978816e+000
2.7750714e+000
2.7234366e+000
2.6572232e+000
2.5943377e+000
2.5547190e+000
2.5551801e+000
2.5963373e+000
2.6689842e+000
2.7511635e+000
2.8187096e+000
2.8581314e+000
2.8638525e+000
2.8426480e+000
2.8051410e+000
2.7579312e+000
2.7055399e+000
2.6526663e+000
2.6035898e+000
2.5614946e+000
2.5290358e+000
2.5084715e+000
2.5033977e+000
2.5225694e+000
2.5736020e+000
2.6484411e+000
2.7312357e+000
2.8014681e+000
2.8422499e+000
2.8577521e+000
2.8601263e+000
2.8559656e+000
2.8477657e+000
2.8328736e+000
2.8102791e+000
2.7945416e+000
2.8035228e+000
2.8384480e+000
2.8892293e+000
2.9303691e+000
2.9359765e+000
2.9045401e+000
2.8492050e+000
2.7967052e+000
2.7745440e+000
2.7906423e+000
2.8403170e+000
2.9051840e+000
2.9648619e+000
3.0131166e+000
3.0512159e+000
3.0819216e+000
3.1061602e+000
3.1165018e+000
3.1048720e+000
3.0789700e+000
3.0531578e+000
3.0371087e+000
3.0362720e+000
3.0486691e+000
3.0690255e+000
3.0910487e+000
3.1068799e+000
3.1019530e+000
3.0619867e+000
2.9877348e+000
2.8904665e+000
2.7949965e+000
2.7292464e+000
2.7086079e+000
2.7370462e+000
2.7988157e+000
2.8687024e+000
2.9224830e+000
2.9409499e+000
2.9225860e+000
2.8760500e+000
2.8154902e+000
2.7554438e+000
2.7018719e+000
2.6555793e+000
2.6165657e+000
2.5856469e+000
2.5674701e+000
2.5677621e+000
2.5874813e+000
2.6241643e+000
2.6716409e+000
2.7217627e+000
2.7637258e+000
2.7864640e+000
2.7837873e+000
2.7549956e+000
2.7110913e+000
2.6675627e+000
2.6326239e+000
2.6070349e+000
2.5795040e+000
2.5366647e+000
2.4841592e+000
2.4386685e+000
2.4152715e+000
2.4213929e+000
2.4391460e+000
2.4394882e+000
2.4060104e+000
2.3348315e+000
2.2399168e+000
2.1437042e+000
2.0646727e+000
2.0156040e+000
1.9992100e+000
2.0111713e+000
2.0405543e+000
2.0735891e+000
2.0975552e+000
2.1021757e+000
2.0840068e+000
2.0439081e+000
1.9848495e+000
1.9113090e+000
1.8309085e+000
1.7532628e+000
1.6889431e+000
1.6462137e+000
1.6207200e+000
1.6009715e+000
1.5788871e+000
1.5507582e+000
1.5187160e+000
1.4883527e+000
1.4661772e+000
1.4581240e+000
1.4679641e+000
1.4945152e+000
1.5222088e+000
1.5290065e+000
1.5052314e+000
1.4523931e+000
1.3808761e+000
1.3033997e+000
1.2199886e+000
1.1239105e+000
1.0184091e+000
9.1703856e-001
8.4553242e-001
8.2994598e-001
8.6522257e-001
9.2418534e-001
9.7740763e-001
1.0010650e+000
9.9204570e-001
9.5877689e-001
8.9914799e-001
8.0661756e-001
6.9484621e-001
5.9090966e-001
5.1486009e-001
4.7708249e-001
4.7445074e-001
4.9497637e-001
5.2520943e-001
5.4980338e-001
5.4445404e-001
4.8458093e-001
3.7335840e-001
2.3838663e-001
1.2516496e-001
7.0270360e-002
2.2690028e-002
-1.0901837e-001
-3.0593100e-001
-4.7250292e-001
-5.6855404e-001
-6.1182028e-001
-6.4554137e-001
-7.1692497e-001
-8.3806378e-001
-9.8580134e-001
-1.1014805e+000
-1.1148456e+000
-1.0064540e+000
-8.0758226e-001
-5.9216005e-001
-4.4661850e-001
-3.9363647e-001
-3.9603180e-001
-3.8123611e-001
-2.6012459e-001
4.2777896e-002
5.7235205e-001
1.2928352e+000
2.1091495e+000
2.9323125e+000
3.7113764e+000
4.5081401e+000
5.4757233e+000
6.7891049e+000
8.6279879e+000
1.1175878e+001
1.4531446e+001
1.8385572e+001
2.2146980e+001
2.5447083e+001
2.8228422e+001
3.0813120e+001
3.3755920e+001
3.7425003e+001
4.1877243e+001
4.6612801e+001
5.0836853e+001
5.4385372e+001
5.7694637e+001
6.1223400e+001
6.5265892e+001
6.9714172e+001
7.4165604e+001
7.8360748e+001
8.2226631e+001
8.5737144e+001
8.8882607e+001
9.1685997e+001
9.4185188e+001
9.6364418e+001
9.8130859e+001
9.9256844e+001
9.9467499e+001
9.8789948e+001
9.7505585e+001
9.5748116e+001
9.3459076e+001
9.0525040e+001
8.6867577e+001
8.2654755e+001
7.8244987e+001
7.3835289e+001
6.9425682e+001
6.4971115e+001
6.0443611e+001
5.5926716e+001
5.1598515e+001
4.7590141e+001
4.3962822e+001
4.0747555e+001
3.7947983e+001
3.5520069e+001
3.3385120e+001
3.1492830e+001
2.9829845e+001
2.8400251e+001
2.7214479e+001
2.6266500e+001
2.5532408e+001
2.4983824e+001
2.4592867e+001
2.4336603e+001
2.4198586e+001
2.4165354e+001
2.4231331e+001
2.4421450e+001
2.4790854e+001
2.5386684e+001
2.6230179e+001
2.7282492e+001
2.8447752e+001
2.9644520e+001
3.0826014e+001
3.1988916e+001
3.3198780e+001
3.4671131e+001
3.6699074e+001
3.9236629e+001
4.1860390e+001
4.4155266e+001
4.5860840e+001
4.7025017e+001
4.7968929e+001
4.8881573e+001
4.9726299e+001
5.0369259e+001
5.0637257e+001
5.0448143e+001
4.9842419e+001
4.8945351e+001
4.7931557e+001
4.6896709e+001
4.5832150e+001
4.4700340e+001
4.3461349e+001
4.2079910e+001
4.0538036e+001
3.8877586e+001
3.7181454e+001
3.5422520e+001
3.3437107e+001
3.1060194e+001
2.8207779e+001
2.5052588e+001
2.2019014e+001
1.9377277e+001
1.7132509e+001
1.5157144e+001
1.3249906e+001
1.1299086e+001
9.3215322e+000
7.3692565e+000
5.5079803e+000
3.8210940e+000
2.4016180e+000
1.2934062e+000
4.9301857e-001
7.6968715e-002
1.9769251e-001
8.2318926e-001
1.6800439e+000
2.5269713e+000
3.2460585e+000
3.8258405e+000
4.3532629e+000
4.9051433e+000
5.5036526e+000
6.0875001e+000
6.5157928e+000
6.7112274e+000
6.7050815e+000
6.5584221e+000
6.3353181e+000
6.0696287e+000
5.7550392e+000
5.3836069e+000
4.9550562e+000
4.4593687e+000
3.8778110e+000
3.2269497e+000
2.5745885e+000
1.9996641e+000
1.5751029e+000
1.3400365e+000
1.2862614e+000
1.3819157e+000
1.5779365e+000
1.8302685e+000
2.1105220e+000
2.4140491e+000
2.7627046e+000
3.1725349e+000
3.6410265e+000
4.1509547e+000
4.6703596e+000
5.1675282e+000
5.6163120e+000
5.9964356e+000
6.2936668e+000
6.4918399e+000
6.5710478e+000
6.5148077e+000
6.3165202e+000
5.9898491e+000
5.5752401e+000
5.1170216e+000
4.6551437e+000
4.2189031e+000
3.8221226e+000
3.4680059e+000
3.1472986e+000
2.8372481e+000
2.5011537e+000
2.1135952e+000
1.6748562e+000
1.2122215e+000
7.8314459e-001
4.3654627e-001
1.9445089e-001
5.6981742e-002
3.1914935e-004
2.6383214e-003
5.4525215e-002
1.5354079e-001
3.0120319e-001
4.8356658e-001
6.6178250e-001
8.0032200e-001
8.8131917e-001
9.0947998e-001
9.1824013e-001
9.3687195e-001
9.7737712e-001
1.0494409e+000
1.1644733e+000
1.3292291e+000
1.5396290e+000
1.7765000e+000
2.0016663e+000
2.1853228e+000
2.3199713e+000
2.4086163e+000
2.4625499e+000
2.4893107e+000
2.4880519e+000
2.4644294e+000
2.4391651e+000
2.4359000e+000
2.4758017e+000
2.5656621e+000
2.6887462e+000
2.8243961e+000
2.9567266e+000
3.0804331e+000
3.2064490e+000
3.3466225e+000
3.5069230e+000
3.6890628e+000
3.8898101e+000
4.1076083e+000
4.3455548e+000
4.6089540e+000
4.9053454e+000
5.2416205e+000
5.6229773e+000
6.0544720e+000
6.5412273e+000
7.0868940e+000
7.6909170e+000
8.3451214e+000
9.0284529e+000
9.7157412e+000
1.0381500e+001
1.1006160e+001
1.1579974e+001
1.2099206e+001
1.2560378e+001
1.2955357e+001
1.3263804e+001
1.3454480e+001
1.3486518e+001
1.3330620e+001
1.2988092e+001
1.2477211e+001
1.1837973e+001
1.1112106e+001
1.0333908e+001
9.5352688e+000
8.7460222e+000
7.9933529e+000
7.2954283e+000
6.6610599e+000
6.0837846e+000
5.5516157e+000
5.0482225e+000
4.5536556e+000
4.0443711e+000
3.5020216e+000
2.9238896e+000
2.3240440e+000
1.7436460e+000
1.2252929e+000
7.9879338e-001
4.7938418e-001
2.5695810e-001
1.1612035e-001
4.3123636e-002
2.6144601e-002
5.6296416e-002
1.2247746e-001
2.0735157e-001
2.9348931e-001
3.6722913e-001
4.2128813e-001
4.6055809e-001
4.9148601e-001
5.1721710e-001
5.3732485e-001
5.4513705e-001
5.3315187e-001
4.9544698e-001
4.2730498e-001
3.2704824e-001
2.0341812e-001
8.7424643e-002
1.3909983e-002
1.3409220e-002
1.0796075e-001
3.0078781e-001
5.8075982e-001
9.1391802e-001
1.2668109e+000
1.6209729e+000
1.9670459e+000
2.3086956e+000
2.6480198e+000
2.9760888e+000
3.2800000e+000
3.5449176e+000
3.7610857e+000
3.9328752e+000
4.0725040e+000
4.2031150e+000
4.3511629e+000
4.5436411e+000
4.7978950e+000
5.1062303e+000
5.4457998e+000
5.7717919e+000
6.0518603e+000
6.2999220e+000
6.5528207e+000
6.8740373e+000
7.3016391e+000
7.7898469e+000
8.2680359e+000
8.6567945e+000
8.9051104e+000
9.0422382e+000
9.1136179e+000
9.1539650e+000
9.1847868e+000
9.1992712e+000
9.1861439e+000
9.1405869e+000
9.0575037e+000
8.9264059e+000
8.7370739e+000
8.4838886e+000
8.1662169e+000
7.7957268e+000
7.3911686e+000
6.9824677e+000
6.6023989e+000
6.2820015e+000
6.0393939e+000
5.8547106e+000
5.6911201e+000
5.4901676e+000
5.2034636e+000
4.8279700e+000
4.3832006e+000
3.9210420e+000
3.4902709e+000
3.1067891e+000
2.7724893e+000
2.4719298e+000
2.1910858e+000
1.9322182e+000
1.7000326e+000
1.4939253e+000
1.3121520e+000
1.1533056e+000
1.0125165e+000
8.7279713e-001
7.1208131e-001
5.0151044e-001
2.2330683e-001
-1.0025984e-001
-4.3824378e-001
-7.6369894e-001
-1.0551717e+000
-1.3053592e+000
-1.5050337e+000
-1.6280384e+000
-1.6499380e+000
-1.5665680e+000
-1.3867800e+000
-1.1456926e+000
-8.8254458e-001
-6.2909633e-001
-4.0966976e-001
-2.3014644e-001
-9.0905815e-002
1.1026494e-002
8.0734581e-002
1.2768848e-001
1.6224000e-001
1.9368380e-001
2.2393920e-001
2.3024806e-001
1.9435039e-001
1.3510060e-001
7.2338760e-002
-3.0706674e-003
-9.5810734e-002
-1.6889390e-001
-1.8302715e-001
-1.2840897e-001
-1.0631904e-002
1.3517156e-001
2.6821318e-001
3.5436386e-001
3.7798220e-001
3.8630727e-001
4.3402177e-001
5.4470950e-001
7.2304070e-001
9.3120801e-001
1.1247200e+000
1.2743829e+000
1.3621119e+000
1.3982464e+000
1.4047921e+000
1.4210708e+000
1.4843488e+000
1.6063659e+000
1.7923000e+000
