##TITLE=Methyl Ethyl Ketone
##JCAMP-DX=4.24
##DATA TYPE=INFRARED SPECTRUM
##XUNITS=cm-1
##YUNITS=Absorbance
##FIRSTX=900
##LASTX=2300
##XYDATA=(X++(Y..Y))
2296 0.070202
2294 0.071662903
2292 0.073122822
2290 0.074583724
2288 0.076043651
2286 0.077504545
2284 0.078964472
2282 0.080425367
2280 0.081886284
2278 0.083346203
2276 0.084807098
2274 0.086267024
2272 0.087727919
2270 0.089187853
2268 0.090648741
2266 0.092108667
2264 0.093569562
2262 0.095029496
2260 0.096490383
2258 0.097951286
2256 0.099411234
2254 0.10087599
2252 0.10233411
2250 0.10379203
2248 0.10524994
2246 0.1067175
2244 0.073799841
2242 0.0027975084
2240 -0.07790304
2238 -0.12036511
2236 -0.15718713
2234 -0.11596312
2232 -0.070586719
2230 -0.058208566
2228 -0.054430842
2226 -0.1068712
2224 -0.16846092
2222 -0.25898603
2220 -0.34510633
2218 -0.41321656
2216 -0.44842315
2214 -0.41393438
2212 -0.36486739
2210 -0.29870474
2208 -0.24832201
2206 -0.21891707
2204 -0.18798831
2202 -0.15428816
2200 -0.12223223
2198 -0.091516897
2196 -0.080903284
2194 -0.081850395
2192 -0.14303981
2190 -0.23032159
2188 -0.40741098
2186 -0.61311364
2184 -0.80905163
2182 -1.0023493
2180 -1.0716612
2178 -1.12137
2176 -1.08454
2174 -1.039439
2172 -0.99079442
2170 -0.94105917
2168 -0.88716185
2166 -0.8413595
2164 -0.82661933
2162 -0.83600968
2160 -0.89923662
2158 -0.95526421
2156 -0.98720098
2154 -1.014097
2152 -1.0373446
2150 -1.1127902
2148 -1.2474837
2146 -1.3683822
2144 -1.4716692
2142 -1.432415
2140 -1.2952245
2138 -1.0733377
2136 -0.81061685
2134 -0.70371425
2132 -0.66404718
2130 -0.8302874
2128 -1.0602616
2126 -1.2511235
2124 -1.4318366
2122 -1.4385874
2120 -1.4135811
2118 -1.307652
2116 -1.1904814
2114 -1.075089
2112 -0.97275645
2110 -0.92692679
2108 -0.9124158
2106 -0.96754205
2104 -1.0395652
2102 -1.1263533
2100 -1.215928
2098 -1.3065441
2096 -1.3891714
2094 -1.4612135
2092 -1.4735357
2090 -1.4256283
2088 -1.343992
2086 -1.2413549
2084 -1.1840048
2082 -1.1583865
2080 -1.1575526
2078 -1.1677938
2076 -1.1659757
2074 -1.1586528
2072 -1.1316121
2070 -1.0984402
2068 -1.0775129
2066 -1.0618807
2064 -1.1375725
2062 -1.2344701
2060 -1.3615463
2058 -1.4825209
2056 -1.53634
2054 -1.5744005
2052 -1.6045154
2050 -1.6408229
2048 -1.6982703
2046 -1.7459999
2044 -1.7673661
2042 -1.7689903
2040 -1.7473725
2038 -1.6920258
2036 -1.6000671
2034 -1.4920418
2032 -1.3751646
2030 -1.347697
2028 -1.3925885
2026 -1.501245
2024 -1.6437652
2022 -1.6909986
2020 -1.6863475
2018 -1.5945804
2016 -1.4684
2014 -1.413332
2012 -1.3824843
2010 -1.4453293
2008 -1.5310702
2006 -1.5983329
2004 -1.6566489
2002 -1.687955
2000 -1.7184919
1998 -1.7789044
1996 -1.8624643
1994 -1.9957273
1992 -2.1386788
1990 -2.2718108
1988 -2.343456
1986 -2.3067837
1984 -2.2008088
1982 -2.034306
1980 -1.8977112
1978 -1.8125086
1976 -1.7829714
1974 -1.7957549
1972 -1.7626556
1970 -1.6887546
1968 -1.550808
1966 -1.3768287
1964 -1.2944262
1962 -1.2619745
1960 -1.347584
1958 -1.4816622
1956 -1.5787758
1954 -1.657919
1952 -1.6501983
1950 -1.6160535
1948 -1.6113068
1946 -1.632
1944 -1.7352154
1942 -1.8581042
1940 -1.9438083
1938 -1.9966882
1936 -1.9899029
1934 -1.9799411
1932 -2.005044
1930 -2.0491607
1928 -2.1129525
1926 -2.0905414
1924 -1.9518058
1922 -1.653478
1920 -1.2127937
1918 -0.83810157
1916 -0.548787
1914 -0.47411561
1912 -0.54888415
1910 -0.69233
1908 -0.86320829
1906 -1.057204
1904 -1.26054
1902 -1.4161006
1900 -1.5473266
1898 -1.5261419
1896 -1.4411286
1894 -1.3145753
1892 -1.1850271
1890 -1.136675
1888 -1.1438583
1886 -1.2470515
1884 -1.3960978
1882 -1.5738466
1880 -1.7464554
1878 -1.8871559
1876 -1.9708
1874 -1.9784735
1872 -1.8543583
1870 -1.5751015
1868 -1.228712
1866 -0.84774178
1864 -0.64282709
1862 -0.62434608
1860 -0.73872209
1858 -0.93307573
1856 -1.0942166
1854 -1.2200934
1852 -1.2549906
1850 -1.2376227
1848 -1.1286759
1846 -0.97575533
1844 -0.89480817
1842 -0.86279684
1840 -1.0003002
1838 -1.2165082
1836 -1.4554586
1834 -1.675519
1832 -1.7705441
1830 -1.737767
1828 -1.4381622
1826 -1.0337318
1824 -0.63526535
1822 -0.39169121
1820 -0.47319561
1818 -0.7205857
1816 -1.0468485
1814 -1.2841156
1812 -1.356766
1810 -1.2743808
1808 -1.0671222
1806 -0.80998504
1804 -0.53890616
1802 -0.33282581
1800 -0.19407606
1798 -0.16000435
1796 -0.19943786
1794 -0.21614803
1792 -0.2017556
1790 -0.069336578
1788 0.14227518
1786 0.32416248
1784 0.48434067
1782 0.56461084
1780 0.61732465
1778 0.75821048
1776 0.95654511
1774 1.1974995
1772 1.3676951
1770 1.274219
1768 1.0069363
1766 0.64176381
1764 0.32797301
1762 0.18991099
1760 0.063202053
1758 -0.17800915
1756 -0.38738957
1754 -0.48954856
1752 -0.31507725
1750 0.14519762
1748 0.74175823
1746 1.3949057
1744 1.71938
1742 1.7282794
1740 1.5438626
1738 1.2470115
1736 1.14608
1734 1.2011071
1732 1.238068
1730 1.2428384
1728 0.95898068
1726 0.50439048
1724 0.13021186
1722 -0.11107328
1720 0.09456405
1718 0.75339198
1716 1.9008743
1714 3.2093434
1712 4.2999983
1710 5.2182941
1708 5.984838
1706 6.9195709
1704 8.2949991
1702 10.372869
1700 13.272814
1698 16.772436
1696 20.681856
1694 24.209391
1692 27.074928
1690 29.621336
1688 32.013428
1686 35.168694
1684 39.132595
1682 43.83078
1680 49.080238
1678 53.597282
1676 57.440056
1674 61.11779
1672 64.727921
1670 68.819847
1668 73.270508
1666 77.732002
1664 82.177628
1662 86.492508
1660 90.623512
1658 94.422615
1656 97.834602
1654 100.76433
1652 103.0654
1650 104.62013
1648 104.98274
1646 103.88178
1644 101.751
1642 99.034874
1640 95.977341
1638 92.750526
1636 88.946693
1634 84.476295
1632 79.791832
1630 75.085518
1628 70.7155
1626 66.709145
1624 62.587883
1622 58.289661
1620 53.950188
1618 49.598095
1616 45.470913
1614 41.595654
1612 38.101704
1610 35.012859
1608 32.340858
1606 30.078402
1604 28.132172
1602 26.509937
1600 25.174725
1598 24.116106
1596 23.269001
1594 22.626308
1592 22.1516
1590 21.84696
1588 21.695446
1586 21.720072
1584 21.914263
1582 22.285631
1580 22.816395
1578 23.53825
1576 24.454256
1574 25.537407
1572 26.782539
1570 28.028492
1568 29.242119
1566 30.376106
1564 31.426294
1562 32.721161
1560 34.358513
1558 36.863419
1556 40.191113
1554 43.349281
1552 46.175438
1550 48.152069
1548 49.390308
1546 50.5145
1544 51.508194
1542 52.391453
1540 52.9123
1538 52.801968
1536 52.104427
1534 50.973064
1532 49.646793
1530 48.33704
1528 46.979584
1526 45.526852
1524 43.864105
1522 41.933983
1520 39.791195
1518 37.480148
1516 35.325073
1514 33.441395
1512 31.656841
1510 29.919447
1508 27.735924
1506 24.966923
1504 22.183817
1502 19.463795
1500 17.193195
1498 15.41417
1496 13.612143
1494 11.771077
1492 9.8925648
1490 8.0070353
1488 6.2300205
1486 4.5933604
1484 3.1041441
1482 1.8515756
1480 0.8916117
1478 0.27827689
1476 0.036846116
1474 0.2230089
1472 0.8651228
1470 1.603839
1468 2.2631037
1466 2.8383572
1464 3.2834241
1462 3.7747443
1460 4.394146
1458 5.0377469
1456 5.6907597
1454 6.1150565
1452 6.2019892
1450 6.1861668
1448 6.0463858
1446 5.8894787
1444 5.6982365
1442 5.4491777
1440 5.1222196
1438 4.7816768
1436 4.4040442
1434 3.9863508
1432 3.5212498
1430 3.0440254
1428 2.6293581
1426 2.3911757
1424 2.3636761
1422 2.546278
1420 2.8627677
1418 3.2166486
1416 3.5391915
1414 3.759769
1412 3.9499857
1410 4.1346116
1408 4.3531685
1406 4.6337953
1404 4.9427276
1402 5.291883
1400 5.6381559
1398 5.9751415
1396 6.2435498
1394 6.389677
1392 6.4169307
1390 6.2636733
1388 6.0380154
1386 5.7096047
1384 5.3555269
1382 4.9741988
1380 4.6190624
1378 4.2944632
1376 3.9939229
1374 3.6985865
1372 3.380676
1370 3.0464354
1368 2.7149389
1366 2.3892386
1364 2.0500989
1362 1.6804943
1360 1.2617059
1358 0.84537172
1356 0.49575114
1354 0.23023137
1352 0.089302748
1350 0.011401327
1348 0.0073401574
1346 0.064625181
1344 0.19892241
1342 0.38750416
1340 0.67081726
1338 0.92314053
1336 1.1038257
1334 1.1781194
1332 1.0944792
1330 1.024224
1328 0.99709713
1326 1.0749507
1324 1.2930241
1322 1.5765785
1320 1.923564
1318 2.2696106
1316 2.5935001
1314 2.8551259
1312 3.0457001
1310 3.1464083
1308 3.1926184
1306 3.2296643
1304 3.278908
1302 3.374438
1300 3.4727416
1298 3.5308461
1296 3.5511143
1294 3.5104232
1292 3.472774
1290 3.4842532
1288 3.520952
1286 3.6073699
1284 3.6798408
1282 3.711447
1280 3.7410588
1278 3.7732062
1276 3.8522086
1274 4.0191832
1272 4.2203798
1270 4.4712453
1268 4.7197504
1266 4.9707141
1264 5.2379923
1262 5.5300512
1260 5.8363519
1258 6.1577234
1256 6.4855571
1254 6.8363276
1252 7.2525864
1250 7.719646
1248 8.2215405
1246 8.7188997
1244 9.1464272
1242 9.5272789
1240 9.8434687
1238 10.135201
1236 10.4046
1234 10.645595
1232 10.80696
1230 10.890361
1228 10.744583
1226 10.514458
1224 10.060924
1222 9.5844717
1220 9.0556812
1218 8.5246353
1216 7.9883685
1214 7.4421501
1212 6.8822961
1210 6.337069
1208 5.8148208
1206 5.31145
1204 4.8302841
1202 4.3544564
1200 3.8865526
1198 3.4333875
1196 2.99615
1194 2.5840976
1192 2.1937304
1190 1.834803
1188 1.5065536
1186 1.2485179
1184 1.0305376
1182 0.88297868
1180 0.7630195
1178 0.68899739
1176 0.64516199
1174 0.69750619
1172 0.776012
1170 0.93470275
1168 1.0847217
1166 1.2067707
1164 1.2952505
1162 1.2988549
1160 1.2676125
1158 1.1679617
1156 1.0634998
1154 0.95279378
1152 0.85227746
1150 0.76134324
1148 0.65360838
1146 0.52292788
1144 0.36028594
1142 0.18266821
1140 0.064949855
1138 0.017250106
1136 0.13185216
1134 0.34340999
1132 0.68616652
1130 1.0788194
1128 1.4689783
1126 1.8621542
1124 2.2733696
1122 2.6680307
1120 2.958972
1118 3.1904464
1116 3.156673
1114 3.1068311
1112 3.0127463
1110 2.9749553
1108 3.1160197
1106 3.28508
1104 3.5156567
1102 3.6926947
1100 3.7654951
1098 3.8186908
1096 3.8552144
1094 3.9893966
1092 4.2595382
1090 4.6610351
1088 5.1963229
1086 5.7853541
1084 6.4034801
1082 6.9410262
1080 7.402348
1078 7.6643772
1076 7.8070598
1074 7.7368765
1072 7.5890512
1070 7.379447
1068 7.1746979
1066 7.102273
1064 7.0771561
1062 7.2748356
1060 7.4937963
1058 7.776403
1056 7.9930654
1054 7.9174829
1052 7.7718167
1050 7.4123302
1048 7.1414528
1046 7.0927358
1044 7.1663084
1042 7.4613981
1040 7.7208071
1038 7.9200544
1036 8.0227003
1034 8.0064669
1032 7.8868542
1030 7.657825
1028 7.2476664
1026 6.7033072
1024 6.0537243
1022 5.3581543
1020 4.7530346
1018 4.1907754
1016 3.7124715
1014 3.2529318
1012 2.7527087
1010 2.2464194
1008 1.751308
1006 1.2745342
1004 1.0029488
1002 0.76225519
1000 0.71983802
998 0.67709339
996 0.63065857
994 0.54458141
992 0.33476251
990 0.09030591
988 -0.23103386
986 -0.52426696
984 -0.76572484
982 -0.94327819
980 -1.036968
978 -1.1402245
976 -1.2523115
974 -1.3496692
972 -1.4239857
970 -1.2973809
968 -1.0428985
966 -0.66321647
964 -0.2370344
962 -0.0068931431
960 0.15272547
958 0.14949866
956 0.11835514
954 0.23387988
952 0.36644238
950 0.48114759
948 0.57226354
946 0.33637142
944 0.10637343
942 -0.0053015053
940 -0.15742239
938 -0.031870455
936 0.12057257
934 0.35045815
932 0.54718953
930 0.67294067
928 0.78042108
926 0.86037159
924 1.019922
922 1.277582
920 1.6385411
918 2.0940902
916 2.4739757
914 2.7992294
912 3.0026841
910 3.1424949
908 3.4220448
906 3.7547657
904 4.2674966
902 4.8250284
900 5.1344695
898 5.4027123
896 5.1318002
