Image.
>Pix99999.
  .
5555
5555
2300
900
5555
2
1
0
701
5555
3.9937999e-002
4.0768813e-002
4.1599624e-002
4.2430434e-002
4.3261245e-002
4.4092059e-002
4.4922870e-002
4.5753680e-002
4.6584494e-002
4.7416288e-002
4.8247114e-002
4.9077924e-002
4.9908735e-002
5.0739549e-002
5.1570360e-002
5.2401170e-002
5.3231981e-002
5.4062795e-002
5.4893605e-002
5.5724416e-002
5.6555230e-002
5.7386041e-002
5.8216851e-002
5.9047665e-002
5.9878476e-002
6.0709286e-002
5.9947940e-003
1.1690762e-002
2.4106720e-002
9.6519195e-002
1.7783801e-001
2.0625547e-001
2.2874783e-001
2.0406193e-001
1.8264826e-001
2.0568350e-001
2.3674463e-001
2.9438350e-001
3.4907979e-001
3.9067072e-001
4.1931230e-001
4.2123008e-001
3.9045560e-001
3.0888036e-001
2.3027298e-001
1.5926050e-001
1.5708375e-001
2.2074959e-001
2.9281133e-001
3.6791128e-001
3.9034072e-001
3.8231438e-001
3.6413029e-001
3.4242344e-001
3.0620822e-001
2.6533872e-001
1.9089200e-001
1.0876170e-001
4.8652284e-002
-7.2302287e-003
9.8885139e-003
3.6126539e-002
8.9930803e-002
1.4175905e-001
1.6740526e-001
1.8307272e-001
1.7179811e-001
1.4724889e-001
9.5571645e-002
2.9709917e-002
-5.7914797e-002
-1.4376532e-001
-2.2379874e-001
-2.7029866e-001
-2.7967858e-001
-2.4747428e-001
-1.8190663e-001
-1.3595200e-001
-1.0600011e-001
-1.4083633e-001
-2.1009685e-001
-2.7953184e-001
-3.4780267e-001
-3.4649211e-001
-3.2306400e-001
-2.4426320e-001
-1.5289111e-001
-8.1060410e-002
-1.6795726e-002
-3.5024557e-002
-6.5138742e-002
-9.6590035e-002
-1.1026429e-001
-4.4813395e-002
2.4384215e-002
6.9978386e-002
7.6730527e-002
5.6618685e-003
-7.1052894e-002
-1.3781284e-001
-1.7813143e-001
-1.8553486e-001
-1.9757955e-001
-2.1937335e-001
-2.5523794e-001
-3.0200601e-001
-3.4371200e-001
-3.8124663e-001
-4.0908462e-001
-4.3188158e-001
-4.2520884e-001
-4.0644935e-001
-3.3169362e-001
-2.3910011e-001
-1.5070860e-001
-6.5126747e-002
-7.6106377e-002
-1.0898787e-001
-1.7932503e-001
-2.4994411e-001
-2.8162229e-001
-3.0301899e-001
-3.1327701e-001
-3.2889068e-001
-3.6185554e-001
-4.0292323e-001
-4.5207322e-001
-5.0125450e-001
-5.4997385e-001
-5.8893275e-001
-6.1843854e-001
-6.1002094e-001
-5.6614822e-001
-5.0041741e-001
-4.2111930e-001
-3.9212793e-001
-3.9586109e-001
-4.2578456e-001
-4.6621943e-001
-4.8568800e-001
-4.9664602e-001
-5.0030315e-001
-5.0324488e-001
-4.5461935e-001
-3.9118338e-001
-2.9733300e-001
-2.0582868e-001
-1.8102111e-001
-1.8240389e-001
-2.1748433e-001
-2.5183001e-001
-2.5430936e-001
-2.4752823e-001
-2.4377637e-001
-2.4893980e-001
-2.7638742e-001
-3.0845091e-001
-3.3936995e-001
-3.5864860e-001
-3.6177310e-001
-3.1503573e-001
-2.2347540e-001
-7.0395246e-002
1.2425496e-001
2.4631856e-001
3.1715599e-001
2.1989153e-001
3.6166444e-002
-1.2363000e-001
-2.6880670e-001
-2.9669702e-001
-2.8428298e-001
-2.9504988e-001
-3.2169625e-001
-3.9712462e-001
-4.8770502e-001
-5.8126223e-001
-6.6632074e-001
-7.4180776e-001
-8.1214833e-001
-8.8230860e-001
-9.5481157e-001
-1.0235943e+000
-1.0819430e+000
-1.1163765e+000
-1.0836978e+000
-9.6676886e-001
-7.3820770e-001
-4.1755000e-001
-1.4382863e-001
5.8905017e-002
1.0977357e-001
5.7632443e-002
-2.2773340e-002
-1.0614629e-001
-2.0950450e-001
-3.2500362e-001
-4.4048417e-001
-5.5775690e-001
-5.2403724e-001
-4.2563286e-001
-2.4046361e-001
-3.7438642e-002
4.6202879e-002
5.3440243e-002
-8.4584177e-002
-2.7686825e-001
-4.7254121e-001
-6.4078653e-001
-7.3574781e-001
-7.6813197e-001
-7.1770042e-001
-5.9272611e-001
-3.8839132e-001
-1.9676860e-001
-6.8870217e-002
-1.0298314e-001
-3.0399477e-001
-5.6681937e-001
-8.4019661e-001
-1.0211563e+000
-1.1218063e+000
-1.1138523e+000
-1.0367759e+000
-9.0016842e-001
-7.2686821e-001
-6.6822350e-001
-6.6862273e-001
-8.1725568e-001
-1.0307350e+000
-1.1593900e+000
-1.2261870e+000
-1.1295052e+000
-9.3177295e-001
-6.4728993e-001
-3.6390662e-001
-2.1781577e-001
-2.1879824e-001
-4.0963802e-001
-6.7347115e-001
-9.1789430e-001
-1.0889885e+000
-1.1563903e+000
-1.1501216e+000
-1.1007463e+000
-1.0067875e+000
-8.8152516e-001
-7.5230402e-001
-6.1997843e-001
-5.0373280e-001
-3.9865500e-001
-2.4457979e-001
-6.3598476e-002
1.0768997e-001
2.5905073e-001
3.3286041e-001
3.5745949e-001
3.9214280e-001
4.3787187e-001
5.5084550e-001
6.9509286e-001
8.2299542e-001
8.8468140e-001
7.2399521e-001
4.5538461e-001
1.6462794e-001
-4.1790538e-002
-3.7096981e-002
1.1889875e-002
-6.2652081e-003
-2.2003429e-002
6.0160309e-003
1.8332604e-001
5.3477579e-001
9.1398609e-001
1.2584321e+000
1.3679520e+000
1.2445868e+000
1.1008571e+000
9.8678422e-001
1.1393480e+000
1.5053991e+000
1.7165040e+000
1.7813730e+000
1.4049869e+000
7.4080569e-001
2.2009376e-001
-1.2295484e-001
8.4791481e-002
7.9080629e-001
1.9367499e+000
3.2063191e+000
4.0937800e+000
4.6908622e+000
5.1297302e+000
5.7374468e+000
6.8481584e+000
8.7323618e+000
1.1495876e+001
1.5023334e+001
1.9077000e+001
2.2808760e+001
2.5909838e+001
2.8624960e+001
3.1152588e+001
3.4411758e+001
3.8458378e+001
4.3225410e+001
4.8503960e+001
5.2963726e+001
5.6669586e+001
6.0304466e+001
6.3988583e+001
6.8399277e+001
7.3361359e+001
7.8301201e+001
8.3123810e+001
8.7554962e+001
9.1592201e+001
9.5228027e+001
9.8450630e+001
1.0126772e+002
1.0349680e+002
1.0494011e+002
1.0521051e+002
1.0397464e+002
1.0174031e+002
9.9047913e+001
9.6035812e+001
9.2868584e+001
8.9130600e+001
8.4705437e+001
8.0075531e+001
7.5425163e+001
7.1021545e+001
6.6908348e+001
6.2676079e+001
5.8282730e+001
5.3932560e+001
4.9644806e+001
4.5521488e+001
4.1587986e+001
3.8052849e+001
3.4946308e+001
3.2362892e+001
3.0277149e+001
2.8514269e+001
2.7072163e+001
2.5884087e+001
2.4953293e+001
2.4249001e+001
2.3758095e+001
2.3427200e+001
2.3233112e+001
2.3128872e+001
2.3130501e+001
2.3247578e+001
2.3516729e+001
2.3956705e+001
2.4654428e+001
2.5630857e+001
2.6862717e+001
2.8312492e+001
2.9746372e+001
3.1103760e+001
3.2349358e+001
3.3489128e+001
3.4831676e+001
3.6463390e+001
3.8783028e+001
4.1801544e+001
4.4693970e+001
4.7292034e+001
4.9192753e+001
5.0442066e+001
5.1580967e+001
5.2557983e+001
5.3298782e+001
5.3559982e+001
5.2935257e+001
5.1594257e+001
4.9894012e+001
4.8075710e+001
4.6493732e+001
4.5071224e+001
4.3736900e+001
4.2326157e+001
4.0714191e+001
3.8821331e+001
3.6545269e+001
3.4240387e+001
3.2026848e+001
2.9919680e+001
2.7986574e+001
2.5718599e+001
2.3002087e+001
2.0240194e+001
1.7456926e+001
1.5128212e+001
1.3311700e+001
1.1574142e+001
9.9305210e+000
8.3044052e+000
6.7221055e+000
5.1966624e+000
3.7596016e+000
2.4458139e+000
1.3216534e+000
5.0718689e-001
5.5396274e-002
1.7873093e-002
4.4354701e-001
1.2425523e+000
2.1514750e+000
2.9663208e+000
3.6487880e+000
4.2024527e+000
4.7959747e+000
5.5297122e+000
6.2965088e+000
7.0586200e+000
7.5479956e+000
7.5790906e+000
7.4350076e+000
7.0499148e+000
6.6572146e+000
6.2605062e+000
5.8739648e+000
5.5163422e+000
5.1903424e+000
4.9106169e+000
4.6053767e+000
4.2836914e+000
3.9543455e+000
3.6394300e+000
3.4345508e+000
3.3585370e+000
3.4323142e+000
3.6440196e+000
3.9369495e+000
4.2565455e+000
4.5306211e+000
4.7434635e+000
4.9123259e+000
5.0717664e+000
5.2547135e+000
5.4734707e+000
5.7292643e+000
5.9952197e+000
6.2584863e+000
6.4580932e+000
6.5265479e+000
6.5134397e+000
6.3336511e+000
6.1080093e+000
5.8040953e+000
5.4713063e+000
5.1021371e+000
4.7262940e+000
4.3530698e+000
3.9896400e+000
3.6625228e+000
3.3680439e+000
3.1059365e+000
2.8670027e+000
2.6103201e+000
2.2980773e+000
1.9360952e+000
1.5120646e+000
1.0853055e+000
7.1753871e-001
4.0689039e-001
2.0615014e-001
6.1788663e-002
-1.9798890e-002
-5.4498784e-002
-3.0766480e-002
4.2121269e-002
2.1359199e-001
3.7632728e-001
4.9805456e-001
5.4880351e-001
4.3692422e-001
3.2814831e-001
2.3855206e-001
2.5208572e-001
4.3902412e-001
7.2084272e-001
1.1187028e+000
1.4982133e+000
1.8351600e+000
2.0626366e+000
2.1669331e+000
2.1854298e+000
2.1231380e+000
2.0259600e+000
1.9045354e+000
1.7738290e+000
1.6507229e+000
1.5484700e+000
1.4679428e+000
1.4168884e+000
1.3807054e+000
1.3603283e+000
1.3466361e+000
1.3414036e+000
1.3414291e+000
1.3487090e+000
1.3638028e+000
1.3944584e+000
1.4301786e+000
1.4818751e+000
1.5394297e+000
1.6166176e+000
1.7208371e+000
1.8666594e+000
2.0555303e+000
2.2920969e+000
2.5498500e+000
2.8264105e+000
3.1006200e+000
3.3817112e+000
3.6964636e+000
4.0501680e+000
4.4700251e+000
4.9227500e+000
5.3701358e+000
5.7831378e+000
6.0828495e+000
6.3039145e+000
6.3706799e+000
6.3689041e+000
6.2389841e+000
6.0631762e+000
5.7810097e+000
5.4571238e+000
5.0222974e+000
4.5689440e+000
4.0734086e+000
3.5939310e+000
3.1455314e+000
2.7055008e+000
2.2784266e+000
1.8452882e+000
1.4036183e+000
9.5953357e-001
5.1401240e-001
7.8653395e-002
-3.3894154e-001
-7.1821612e-001
-1.0636300e+000
-1.3836557e+000
-1.6886206e+000
-1.9905679e+000
-2.2746696e+000
-2.4913929e+000
-2.6602764e+000
-2.7236328e+000
-2.7427578e+000
-2.6761885e+000
-2.5723200e+000
-2.3628504e+000
-2.1287291e+000
-1.8248658e+000
-1.5218641e+000
-1.2257119e+000
-9.4538862e-001
-7.0535731e-001
-4.8139712e-001
-2.8706795e-001
-8.8401884e-002
1.1268573e-001
2.8278863e-001
4.0014178e-001
4.3519759e-001
3.8016355e-001
2.9465565e-001
1.8653707e-001
9.5734634e-002
2.3924680e-002
-7.5021228e-003
8.5461959e-003
1.6830577e-001
4.1022378e-001
7.9642779e-001
1.2145393e+000
1.5952225e+000
1.9440591e+000
2.1592441e+000
2.3535845e+000
2.5021799e+000
2.6698687e+000
2.9223390e+000
3.1990588e+000
3.5472538e+000
3.8532550e+000
4.0465016e+000
4.1530771e+000
4.0967760e+000
4.0579109e+000
4.0657287e+000
4.2245698e+000
4.5800819e+000
5.0421653e+000
5.6051435e+000
6.1609464e+000
6.7141294e+000
7.2849026e+000
7.8618994e+000
8.4051962e+000
8.8983335e+000
9.1405811e+000
9.2622213e+000
9.1083412e+000
8.8913460e+000
8.6597977e+000
8.4556322e+000
8.4686604e+000
8.5178747e+000
8.7311993e+000
8.9520178e+000
9.2058706e+000
9.4639645e+000
9.7361631e+000
1.0009213e+001
1.0282178e+001
1.0541420e+001
1.0766459e+001
1.0933537e+001
1.1007291e+001
1.0988800e+001
1.0862045e+001
1.0685434e+001
1.0461454e+001
1.0214062e+001
9.9446373e+000
9.6205978e+000
9.2560844e+000
8.7686167e+000
8.2191305e+000
7.5177889e+000
6.7756009e+000
6.0339870e+000
5.3084040e+000
4.7615919e+000
4.2478399e+000
3.9465816e+000
3.6621671e+000
3.4784429e+000
3.2702844e+000
2.9512358e+000
2.5712628e+000
2.0020847e+000
1.4184346e+000
8.0631000e-001
2.6778114e-001
-1.3671905e-001
-4.4539261e-001
-6.2315160e-001
-7.5542831e-001
-8.3904254e-001
-8.8320321e-001
-8.9310127e-001
-8.4780735e-001
-7.6695395e-001
-6.5860450e-001
-5.3676993e-001
-3.9712334e-001
-2.5411075e-001
-1.4901748e-001
-5.5913787e-002
-4.0382355e-002
-3.5210278e-002
-5.0834160e-002
-6.3335605e-002
-1.8943394e-002
2.9841289e-003
9.3322992e-002
2.8706798e-001
5.6303209e-001
8.0263942e-001
9.3487191e-001
1.0062008e+000
9.4827193e-001
9.0234041e-001
8.7802899e-001
9.6223199e-001
1.1805301e+000
1.5065045e+000
1.9324940e+000
2.3899529e+000
2.8678515e+000
3.2596784e+000
3.6046221e+000
3.6858528e+000
3.6667993e+000
3.3867171e+000
3.0404356e+000
2.7458830e+000
2.4606645e+000
2.4359000e+000
