Image.
>Pix99999.
  .
5555
5555
2300
900
5555
2
1
0
701
5555
-1.2868000e-002
-1.3136615e-002
-1.3404234e-002
-1.3671852e-002
-1.3939469e-002
-1.4207087e-002
-1.4474702e-002
-1.4742319e-002
-1.5009937e-002
-1.5277554e-002
-1.5545172e-002
-1.5812788e-002
-1.6081387e-002
-1.6349023e-002
-1.6616639e-002
-1.6884258e-002
-1.7151874e-002
-1.7419493e-002
-1.7687108e-002
-1.7954726e-002
-1.8222343e-002
-1.8489961e-002
-1.8757578e-002
-1.9026162e-002
-1.9293811e-002
-1.9561429e-002
-7.2692288e-004
3.2630883e-002
7.0273116e-002
1.1723574e-001
1.6557357e-001
2.0063171e-001
2.3415720e-001
2.5468045e-001
2.7752188e-001
3.2398349e-001
3.7168324e-001
4.1968811e-001
4.5323998e-001
4.4281980e-001
4.1842487e-001
3.6891124e-001
3.2818842e-001
3.0421162e-001
2.9361603e-001
2.9839909e-001
3.1170052e-001
3.3224666e-001
3.7889948e-001
4.4470739e-001
5.3087360e-001
6.2805563e-001
7.0445269e-001
7.7143806e-001
8.0144250e-001
8.1962734e-001
8.1064081e-001
7.9556644e-001
7.6272357e-001
7.2730720e-001
6.9531798e-001
6.6576201e-001
6.6035634e-001
6.6211843e-001
6.9192123e-001
7.2901762e-001
7.8277713e-001
8.3556640e-001
8.8161683e-001
9.1243285e-001
9.1563499e-001
9.0087950e-001
8.6422145e-001
8.3015877e-001
8.0159318e-001
7.8196925e-001
7.6976311e-001
7.5361252e-001
7.3420292e-001
7.2767961e-001
7.2833455e-001
7.5412548e-001
7.9013687e-001
8.2850194e-001
8.6729437e-001
8.8990045e-001
9.0874749e-001
9.1643441e-001
9.2311013e-001
9.4325888e-001
9.6886659e-001
1.0206629e+000
1.0779297e+000
1.1425580e+000
1.2001263e+000
1.2333694e+000
1.2486171e+000
1.2322239e+000
1.2037580e+000
1.1629391e+000
1.1290429e+000
1.1067723e+000
1.1045688e+000
1.1215013e+000
1.1402366e+000
1.1579599e+000
1.1604303e+000
1.1527756e+000
1.1503851e+000
1.1515509e+000
1.1570257e+000
1.1641425e+000
1.1574880e+000
1.1465242e+000
1.1521505e+000
1.1627929e+000
1.2053132e+000
1.2532939e+000
1.2913146e+000
1.3203081e+000
1.3104172e+000
1.2863079e+000
1.2393757e+000
1.1932247e+000
1.1616017e+000
1.1394964e+000
1.1309620e+000
1.1205683e+000
1.1025656e+000
1.0850513e+000
1.0690343e+000
1.0637428e+000
1.0686367e+000
1.0750030e+000
1.0816175e+000
1.0924243e+000
1.1063828e+000
1.1414518e+000
1.1874357e+000
1.2278954e+000
1.2651200e+000
1.2581258e+000
1.2357671e+000
1.1808699e+000
1.1170863e+000
1.0483207e+000
9.8020446e-001
9.2713302e-001
8.8442492e-001
8.7253845e-001
8.7469500e-001
8.9740157e-001
9.2373514e-001
9.4432652e-001
9.6363419e-001
9.7996002e-001
9.9730861e-001
1.0172021e+000
1.0188577e+000
1.0005412e+000
9.6882659e-001
9.2948014e-001
9.2716622e-001
9.5493788e-001
1.0076520e+000
1.0725307e+000
1.0965389e+000
1.0971965e+000
1.0703040e+000
1.0323398e+000
1.0016394e+000
9.7359198e-001
9.4726944e-001
9.2058027e-001
8.9636916e-001
8.7248003e-001
8.4420246e-001
8.1632555e-001
7.8519917e-001
7.5576508e-001
7.3114425e-001
7.0595926e-001
6.8009657e-001
6.5500647e-001
6.3490236e-001
6.3319886e-001
6.5581518e-001
7.0197707e-001
7.6485139e-001
8.1522661e-001
8.4729213e-001
8.4947640e-001
8.3225727e-001
7.9773861e-001
7.5547582e-001
7.0320708e-001
6.4554721e-001
6.0604638e-001
5.7434976e-001
5.7181132e-001
5.7983571e-001
5.8422559e-001
5.8333856e-001
5.5165690e-001
5.0307834e-001
4.2716748e-001
3.4443307e-001
2.7079558e-001
2.1305811e-001
1.8729228e-001
1.8682401e-001
2.1823914e-001
2.7486056e-001
3.5689083e-001
4.2948136e-001
4.7363621e-001
4.5920360e-001
3.8550502e-001
2.8445452e-001
1.7507094e-001
8.1633031e-002
4.7788247e-003
-4.2051084e-002
-6.8258509e-002
-7.0093639e-002
-5.6342464e-002
-5.9275363e-002
-6.9486901e-002
-9.6354276e-002
-1.3038035e-001
-1.4082986e-001
-1.3866711e-001
-1.0975366e-001
-6.6242173e-002
-1.8676221e-002
2.0427829e-002
1.8654965e-002
-2.0472709e-002
-1.0224161e-001
-1.9306961e-001
-2.6379514e-001
-3.0206186e-001
-3.0086672e-001
-2.8439614e-001
-2.6719680e-001
-2.5476098e-001
-2.4830711e-001
-2.4923621e-001
-2.5266400e-001
-2.5843176e-001
-2.6471570e-001
-2.4263662e-001
-2.0403920e-001
-1.6881521e-001
-1.4165503e-001
-1.4545001e-001
-1.6729274e-001
-1.6466969e-001
-1.4329672e-001
-7.5243451e-002
2.2268541e-002
1.4063303e-001
2.5676113e-001
3.1620339e-001
3.2288367e-001
2.5903437e-001
1.6336679e-001
7.7949435e-002
1.8143218e-002
-9.1064140e-002
-1.9636101e-001
-2.3882651e-001
-1.9003794e-001
-5.2484941e-002
1.1072926e-001
2.6936534e-001
3.3122268e-001
2.9501891e-001
2.2771151e-001
1.5354802e-001
1.7100000e-001
2.6445067e-001
3.2411659e-001
3.4754410e-001
2.3916458e-001
4.6135031e-002
-7.8573018e-002
-1.2627779e-001
1.5447721e-002
3.1612310e-001
7.9792058e-001
1.3710361e+000
1.8724731e+000
2.3317060e+000
2.7970998e+000
3.4205022e+000
4.3515749e+000
5.8385983e+000
7.9999256e+000
1.1029910e+001
1.4881857e+001
1.8817301e+001
2.2494995e+001
2.5778217e+001
2.8720469e+001
3.2148655e+001
3.6153534e+001
4.0944046e+001
4.6351719e+001
5.1122612e+001
5.5286003e+001
5.9223381e+001
6.3065727e+001
6.7534988e+001
7.2466644e+001
7.7320099e+001
8.1979744e+001
8.6058243e+001
8.9584152e+001
9.2589043e+001
9.5121201e+001
9.7272369e+001
9.8979561e+001
1.0018980e+002
1.0044200e+002
9.9355354e+001
9.7281334e+001
9.4629379e+001
9.1572708e+001
8.8285492e+001
8.4476128e+001
8.0084648e+001
7.5658546e+001
7.1385361e+001
6.7384415e+001
6.3649803e+001
5.9740681e+001
5.5615520e+001
5.1509022e+001
4.7451420e+001
4.3665771e+001
4.0169079e+001
3.7071388e+001
3.4377171e+001
3.2044937e+001
3.0061750e+001
2.8324593e+001
2.6857079e+001
2.5658583e+001
2.4735817e+001
2.4056000e+001
2.3605026e+001
2.3331011e+001
2.3211752e+001
2.3202265e+001
2.3287563e+001
2.3448847e+001
2.3681751e+001
2.3981276e+001
2.4398878e+001
2.4949572e+001
2.5675781e+001
2.6576023e+001
2.7603939e+001
2.8743999e+001
2.9923943e+001
3.1139637e+001
3.2535767e+001
3.4202950e+001
3.6726986e+001
4.0174370e+001
4.3957359e+001
4.7857716e+001
5.0930664e+001
5.3195217e+001
5.5134285e+001
5.6738823e+001
5.8098637e+001
5.9015560e+001
5.9215981e+001
5.8708256e+001
5.7629547e+001
5.6215099e+001
5.4780338e+001
5.3328499e+001
5.1861301e+001
5.0259235e+001
4.8439476e+001
4.6331066e+001
4.3865185e+001
4.1382244e+001
3.8994427e+001
3.6702999e+001
3.4542072e+001
3.1959311e+001
2.8819857e+001
2.5689121e+001
2.2624325e+001
2.0046160e+001
1.8004650e+001
1.5974571e+001
1.3943794e+001
1.1849437e+001
9.7017612e+000
7.5553112e+000
5.4852772e+000
3.6291239e+000
2.0844831e+000
9.5888078e-001
2.7582148e-001
5.2145913e-002
3.7559539e-001
1.1860240e+000
2.1799629e+000
3.1627507e+000
3.9863894e+000
4.5527458e+000
5.0413017e+000
5.5212512e+000
6.0300159e+000
6.5818200e+000
7.0104628e+000
7.2236080e+000
7.2811837e+000
7.1159182e+000
6.9085855e+000
6.6478148e+000
6.3887219e+000
6.1314964e+000
5.8545513e+000
5.5376887e+000
5.1183157e+000
4.5999084e+000
4.0594444e+000
3.5395341e+000
3.1507266e+000
2.9115274e+000
2.8260589e+000
2.8804359e+000
3.0342765e+000
3.2418315e+000
3.4520988e+000
3.6504920e+000
3.8397417e+000
4.0437646e+000
4.2887964e+000
4.5756307e+000
4.9159756e+000
5.2850199e+000
5.6880012e+000
6.0812855e+000
6.4437399e+000
6.7398796e+000
6.9035587e+000
6.9540129e+000
6.8195353e+000
6.5680127e+000
6.1588526e+000
5.6997514e+000
5.1890373e+000
4.6797829e+000
4.1897063e+000
3.7361579e+000
3.3284113e+000
2.9709172e+000
2.6247535e+000
2.2283964e+000
1.7819353e+000
1.2742300e+000
7.8470302e-001
4.0871131e-001
1.4029127e-001
3.8070172e-002
2.6429608e-002
1.1203974e-001
2.3777536e-001
4.3273598e-001
6.5730822e-001
9.3180138e-001
1.1910520e+000
1.4086685e+000
1.5862768e+000
1.6792858e+000
1.7774670e+000
1.8902982e+000
2.0504351e+000
2.2903111e+000
2.5795348e+000
2.9326773e+000
3.2967877e+000
3.6595199e+000
3.9724560e+000
4.2239943e+000
4.4173279e+000
4.5580673e+000
4.6708655e+000
4.7553663e+000
4.8039083e+000
4.8217721e+000
4.7915659e+000
4.7444286e+000
4.6889095e+000
4.6420355e+000
4.6213126e+000
4.6111960e+000
4.6176958e+000
4.6298308e+000
4.6514206e+000
4.6746588e+000
4.6999578e+000
4.7218671e+000
4.7401681e+000
4.7602606e+000
4.7879367e+000
4.8296971e+000
4.8935466e+000
4.9802408e+000
5.0928497e+000
5.2165403e+000
5.3483834e+000
5.4724941e+000
5.5902185e+000
5.7067719e+000
5.8239222e+000
5.9464302e+000
6.0659752e+000
6.1635714e+000
6.2377496e+000
6.2594447e+000
6.2487993e+000
6.1798229e+000
6.0809784e+000
5.9213362e+000
5.7291350e+000
5.4508958e+000
5.1344299e+000
4.7141085e+000
4.2675691e+000
3.7605517e+000
3.2599840e+000
2.7771742e+000
2.3304825e+000
1.9482460e+000
1.6040133e+000
1.3127000e+000
1.0380955e+000
7.8615803e-001
5.5838561e-001
3.6213064e-001
2.1133962e-001
9.6976712e-002
-1.2577921e-003
-8.9933805e-002
-1.7693931e-001
-2.5349745e-001
-2.9009858e-001
-2.9691559e-001
-2.3526409e-001
-1.3375989e-001
6.7796528e-002
3.0424401e-001
6.2708139e-001
9.4747877e-001
1.2364783e+000
1.4917451e+000
1.6405572e+000
1.7500671e+000
1.7609849e+000
1.7366760e+000
1.6421998e+000
1.5328743e+000
1.3991554e+000
1.2574240e+000
1.1009929e+000
9.1690081e-001
7.0381141e-001
4.8812199e-001
2.8059620e-001
1.3048950e-001
2.9762154e-002
-9.6655600e-003
-8.5398518e-003
7.4487939e-002
2.0299175e-001
4.0640664e-001
6.3117963e-001
8.6150885e-001
1.0746616e+000
1.1915281e+000
1.2832770e+000
1.2879500e+000
1.2921301e+000
1.3007903e+000
1.3192053e+000
1.3686591e+000
1.4221650e+000
1.4842092e+000
1.5380650e+000
1.5746157e+000
1.5963279e+000
1.5944144e+000
1.5818653e+000
1.5575600e+000
1.5430517e+000
1.5433235e+000
1.5840036e+000
1.6596851e+000
1.7657008e+000
1.8844925e+000
1.9663150e+000
2.0207670e+000
1.9973699e+000
1.9430720e+000
1.8502851e+000
1.7497531e+000
1.6551857e+000
1.5658081e+000
1.5096802e+000
1.4634145e+000
1.4697720e+000
1.4806629e+000
1.5106037e+000
1.5364486e+000
1.5492870e+000
1.5604383e+000
1.5680428e+000
1.5842299e+000
1.6162586e+000
1.6541109e+000
1.6995006e+000
1.7414000e+000
1.7794738e+000
1.8188829e+000
1.8592691e+000
1.8940229e+000
1.9231213e+000
1.9330726e+000
1.9310180e+000
1.9105289e+000
1.8816317e+000
1.8415971e+000
1.7956774e+000
1.7191141e+000
1.6294407e+000
1.4502560e+000
1.2589300e+000
1.0117848e+000
7.7333945e-001
5.9799027e-001
4.3893075e-001
3.5119998e-001
2.6535782e-001
1.8470211e-001
9.8995507e-002
2.2618398e-003
-8.4800057e-002
-1.5349549e-001
-2.0200457e-001
-2.2221720e-001
-2.2310650e-001
-2.0316029e-001
-1.6363126e-001
-1.0879948e-001
-5.7004426e-002
-8.6160582e-003
5.1178802e-003
2.7003745e-003
-1.1688050e-002
-2.9230982e-002
-2.7231975e-002
-2.1831799e-002
-2.9844899e-002
-3.9888516e-002
-5.8408048e-002
-7.2757944e-002
-2.3213249e-002
9.7450241e-004
3.0244306e-002
8.5394502e-002
1.3427430e-001
1.8082315e-001
2.2069836e-001
2.5762993e-001
2.8876457e-001
3.3900890e-001
4.2042643e-001
5.3191698e-001
6.7918849e-001
7.7997828e-001
8.3647782e-001
8.2548028e-001
7.6684129e-001
7.1261209e-001
6.6126168e-001
6.1151671e-001
5.6344324e-001
5.2617735e-001
4.9272531e-001
5.0796676e-001
5.3124034e-001
5.1749998e-001
