Image.
>Pix99999.
  .
5555
5555
2300
900
5555
2
1
0
701
5555
1.5216000e-001
1.5532547e-001
1.5849094e-001
1.6165641e-001
1.6482188e-001
1.6798735e-001
1.7115283e-001
1.7432821e-001
1.7749378e-001
1.8064937e-001
1.8382457e-001
1.8699019e-001
1.9015566e-001
1.9330150e-001
1.9648619e-001
1.9969122e-001
2.0281845e-001
2.0582689e-001
2.0914438e-001
2.1288794e-001
2.1549629e-001
2.1650119e-001
2.2174092e-001
2.3292576e-001
2.2842313e-001
1.8567678e-001
1.0472205e-001
-3.1383103e-003
-1.0649851e-001
-1.7479677e-001
-2.0330757e-001
-1.9878305e-001
-1.8422480e-001
-1.8203449e-001
-1.9352938e-001
-2.1346200e-001
-2.3488377e-001
-2.5227138e-001
-2.6775345e-001
-2.8032747e-001
-2.6734856e-001
-2.0437630e-001
-8.6017996e-002
7.8455664e-002
2.4383727e-001
3.5953593e-001
3.9697546e-001
3.4433195e-001
2.2981080e-001
9.2362799e-002
-3.5164855e-002
-1.2852554e-001
-1.8991525e-001
-2.2864722e-001
-2.4928038e-001
-2.5418851e-001
-2.4372520e-001
-2.1912761e-001
-1.8802077e-001
-1.5443055e-001
-9.9435546e-002
5.5117067e-004
1.5736340e-001
3.6808890e-001
5.8604193e-001
7.5451928e-001
8.3474123e-001
8.0631518e-001
6.9803911e-001
5.5529863e-001
4.2395598e-001
3.4104216e-001
3.0837092e-001
3.1179103e-001
3.2119456e-001
3.0575570e-001
2.5294182e-001
1.6321459e-001
6.3369095e-002
-1.4517801e-002
-5.4119341e-002
-5.0623875e-002
-2.2478135e-002
1.2072956e-002
6.9236636e-002
1.7154828e-001
3.1524396e-001
4.7551832e-001
5.8194453e-001
5.7071298e-001
4.7329515e-001
3.5743120e-001
2.9268143e-001
3.2728112e-001
4.2366040e-001
5.1663160e-001
5.6052566e-001
5.2846271e-001
4.3588078e-001
3.1626159e-001
2.1210286e-001
1.6351411e-001
1.8867660e-001
2.8873655e-001
4.3001160e-001
5.6893152e-001
6.7623067e-001
7.3172599e-001
7.2704238e-001
6.6085625e-001
5.4246229e-001
3.9196664e-001
2.5736880e-001
1.8883108e-001
1.9909172e-001
2.7510077e-001
3.6214149e-001
4.0028813e-001
3.7677142e-001
3.0654070e-001
2.3537143e-001
2.0991412e-001
2.3032734e-001
2.7321309e-001
3.0091867e-001
2.8255072e-001
2.3700081e-001
2.0208217e-001
2.0463035e-001
2.5650960e-001
3.3116141e-001
3.9297518e-001
4.3729463e-001
4.7395271e-001
5.1285458e-001
5.5682176e-001
5.8177733e-001
5.5869204e-001
4.8795566e-001
3.8739282e-001
2.8992400e-001
2.2557093e-001
1.8653899e-001
1.4837369e-001
9.0389244e-002
1.4715083e-004
-1.1149894e-001
-2.2571529e-001
-3.3478838e-001
-4.3768606e-001
-5.3689784e-001
-6.3484722e-001
-7.2808683e-001
-8.0675185e-001
-8.4581119e-001
-8.1764704e-001
-7.1380901e-001
-5.4451418e-001
-3.5849115e-001
-2.1353956e-001
-1.2921885e-001
-9.6403241e-002
-6.8344079e-002
5.3673480e-003
1.1730248e-001
2.2793873e-001
2.8815052e-001
2.5966027e-001
1.6234401e-001
4.3168202e-002
-6.1099432e-002
-1.2762088e-001
-1.6208023e-001
-1.8250188e-001
-1.9956891e-001
-2.1706499e-001
-2.2972931e-001
-2.2993477e-001
-2.1846594e-001
-2.0163149e-001
-1.8926029e-001
-1.9220710e-001
-2.1936961e-001
-2.7393758e-001
-3.3927268e-001
-3.8625064e-001
-3.7702632e-001
-2.8623366e-001
-1.5958178e-001
-7.3621869e-002
-7.0386440e-002
-1.5475687e-001
-2.6588559e-001
-3.2401660e-001
-3.1626350e-001
-2.7168027e-001
-2.2800440e-001
-2.1253103e-001
-2.0082697e-001
-1.4660686e-001
-3.5692010e-002
1.1665081e-001
2.5710496e-001
3.2152072e-001
2.8506663e-001
1.5519843e-001
-2.5826834e-002
-2.0276499e-001
-3.4186673e-001
-4.2547607e-001
-4.4445401e-001
-3.9486182e-001
-2.7971971e-001
-1.1465690e-001
4.5604568e-002
1.3097672e-001
1.0466053e-001
-3.5846449e-002
-2.3947123e-001
-4.3345612e-001
-5.8240086e-001
-6.8008721e-001
-7.3551697e-001
-7.6365769e-001
-7.7632678e-001
-7.8305215e-001
-7.9476243e-001
-8.2013685e-001
-8.5265529e-001
-8.7644845e-001
-8.7700957e-001
-8.4188581e-001
-7.5941706e-001
-6.2430376e-001
-4.5847434e-001
-3.0386409e-001
-2.1443908e-001
-2.3630065e-001
-3.5424802e-001
-5.1152939e-001
-6.4614832e-001
-7.0835745e-001
-6.9840473e-001
-6.4588583e-001
-5.6519586e-001
-4.5916700e-001
-3.4118387e-001
-2.3491108e-001
-1.7135777e-001
-1.7109419e-001
-1.8968999e-001
-1.4871587e-001
-1.7041598e-002
1.8939832e-001
4.1162184e-001
5.7690388e-001
6.6307032e-001
6.9043237e-001
6.9979286e-001
7.3774815e-001
8.3417630e-001
9.9031478e-001
1.1351774e+000
1.1616986e+000
1.0231216e+000
7.4020690e-001
4.1888303e-001
1.8979791e-001
4.6873197e-002
-1.0116801e-001
-2.5156927e-001
-3.2547504e-001
-2.7286696e-001
-9.1940559e-002
1.4510247e-001
3.2627821e-001
3.8661498e-001
3.2508460e-001
2.4366428e-001
2.9080328e-001
5.0154603e-001
7.9834807e-001
1.0222497e+000
1.0002334e+000
7.1667778e-001
2.9576486e-001
-7.6874748e-002
-1.9772591e-001
8.6918220e-002
8.4120357e-001
1.9091743e+000
2.9929976e+000
3.9005280e+000
4.5916014e+000
5.2342820e+000
6.1340041e+000
7.5480208e+000
9.6417685e+000
1.2435671e+001
1.5798110e+001
1.9384285e+001
2.2745729e+001
2.5681709e+001
2.8279484e+001
3.0921898e+001
3.4159943e+001
3.8363358e+001
4.3589741e+001
4.9278641e+001
5.4537025e+001
5.9177715e+001
6.3668053e+001
6.8414749e+001
7.3560707e+001
7.8764145e+001
8.3375999e+001
8.7095711e+001
8.9996872e+001
9.2221596e+001
9.3897850e+001
9.5102852e+001
9.5866447e+001
9.6204300e+001
9.6115356e+001
9.5545837e+001
9.4431786e+001
9.2866615e+001
9.1066750e+001
8.9140579e+001
8.7055656e+001
8.4687843e+001
8.1882271e+001
7.8617821e+001
7.4989105e+001
7.1020187e+001
6.6661720e+001
6.1928440e+001
5.6931843e+001
5.1885048e+001
4.7056648e+001
4.2607716e+001
3.8582397e+001
3.5013828e+001
3.1937170e+001
2.9334532e+001
2.7135557e+001
2.5265125e+001
2.3662136e+001
2.2307989e+001
2.1223652e+001
2.0433500e+001
1.9949472e+001
1.9755165e+001
1.9808784e+001
2.0072920e+001
2.0523144e+001
2.1149845e+001
2.1969229e+001
2.3051737e+001
2.4511810e+001
2.6429058e+001
2.8809406e+001
3.1527384e+001
3.4349705e+001
3.7104561e+001
3.9721615e+001
4.2201115e+001
4.4628742e+001
4.7258293e+001
5.0398651e+001
5.3829613e+001
5.6796532e+001
5.8763878e+001
5.9621464e+001
5.9638065e+001
5.9338108e+001
5.8932571e+001
5.8224258e+001
5.6947399e+001
5.4919704e+001
5.2308571e+001
4.9619621e+001
4.7211208e+001
4.5167477e+001
4.3403664e+001
4.1712547e+001
3.9900707e+001
3.7840767e+001
3.5531712e+001
3.3110611e+001
3.0767771e+001
2.8683285e+001
2.6837040e+001
2.4981470e+001
2.2884817e+001
2.0434515e+001
1.7751652e+001
1.5179576e+001
1.2935866e+001
1.1019930e+001
9.3464565e+000
7.7957406e+000
6.3155384e+000
4.9375467e+000
3.6717474e+000
2.4895544e+000
1.4089206e+000
5.1600879e-001
-9.1203570e-002
-3.1335714e-001
-2.5273860e-002
8.9365667e-001
2.3710542e+000
4.1044559e+000
5.8275204e+000
7.4036174e+000
8.8259315e+000
1.0213111e+001
1.1671357e+001
1.3229504e+001
1.4764600e+001
1.5998440e+001
1.6740580e+001
1.6972279e+001
1.6777258e+001
1.6318785e+001
1.5726746e+001
1.5063900e+001
1.4371388e+001
1.3676871e+001
1.2979371e+001
1.2249174e+001
1.1482520e+001
1.0723032e+001
1.0033856e+001
9.4834394e+000
9.1090031e+000
8.8968630e+000
8.8073378e+000
8.7835083e+000
8.7880945e+000
8.8197098e+000
8.9013462e+000
9.0743170e+000
9.3531723e+000
9.7058840e+000
1.0077197e+001
1.0395164e+001
1.0593280e+001
1.0621219e+001
1.0452214e+001
1.0088190e+001
9.5636845e+000
8.9461079e+000
8.2994070e+000
7.6681299e+000
7.0831871e+000
6.5595980e+000
6.0987988e+000
5.6835122e+000
5.2731428e+000
4.8030553e+000
4.2328501e+000
3.5708678e+000
2.8572617e+000
2.1598663e+000
1.5287809e+000
9.7754616e-001
5.1412541e-001
1.5109532e-001
-9.4353184e-002
-1.9876178e-001
-1.3291520e-001
1.3369974e-001
5.9907258e-001
1.2098029e+000
1.9061480e+000
2.6341457e+000
3.3267293e+000
3.8955932e+000
4.2605886e+000
4.3704653e+000
4.2266936e+000
3.9053731e+000
3.4899602e+000
3.0474837e+000
2.6369116e+000
2.3070202e+000
2.0874274e+000
1.9748821e+000
1.9325200e+000
1.8830941e+000
1.7596543e+000
1.5334028e+000
1.2137486e+000
8.5914916e-001
5.3097129e-001
2.7427518e-001
1.1486006e-001
5.2199457e-002
8.3394289e-002
2.1282957e-001
4.5242679e-001
8.2190013e-001
1.3268120e+000
1.9413179e+000
2.6124701e+000
3.2542081e+000
3.7872262e+000
4.1639051e+000
4.3818798e+000
4.5066924e+000
4.6162481e+000
4.7775087e+000
5.0246334e+000
5.3368464e+000
5.6898441e+000
6.0777283e+000
6.5109739e+000
7.0217109e+000
7.6377115e+000
8.3685608e+000
9.2165575e+000
1.0177328e+001
1.1240618e+001
1.2387000e+001
1.3586761e+001
1.4796100e+001
1.5958600e+001
1.6996124e+001
1.7824085e+001
1.8353565e+001
1.8511240e+001
1.8261299e+001
1.7597580e+001
1.6563107e+001
1.5228166e+001
1.3701497e+001
1.2113212e+001
1.0617398e+001
9.3511887e+000
8.4005461e+000
7.8043957e+000
7.5282149e+000
7.5061312e+000
7.6430202e+000
7.8354640e+000
7.9776988e+000
7.9699965e+000
7.7315617e+000
7.2232356e+000
6.4875164e+000
5.6087770e+000
4.7154889e+000
3.9124978e+000
3.2298458e+000
2.6654532e+000
2.1879065e+000
1.7766217e+000
1.4477631e+000
1.2183400e+000
1.0872637e+000
1.0403788e+000
1.0465714e+000
1.0823766e+000
1.1487550e+000
1.2447848e+000
1.3515819e+000
1.4380599e+000
1.4584832e+000
1.3877286e+000
1.2546961e+000
1.1010405e+000
9.6533674e-001
8.6276460e-001
7.5808787e-001
6.1763567e-001
4.4021374e-001
2.4024910e-001
5.0523013e-002
-9.2801884e-002
-1.5824251e-001
-1.3563091e-001
-6.1764754e-002
2.4920091e-002
1.0907196e-001
1.8143775e-001
2.3454750e-001
2.6446840e-001
2.7540785e-001
2.7900830e-001
2.9924074e-001
3.5261789e-001
4.3008447e-001
5.1868892e-001
6.1104453e-001
7.0093775e-001
7.8253412e-001
8.5761517e-001
9.4710720e-001
1.0772285e+000
1.2751373e+000
1.5616100e+000
1.9400717e+000
2.4068811e+000
2.9492850e+000
3.5360174e+000
4.0929365e+000
4.5379801e+000
4.7981257e+000
4.8341713e+000
4.6927056e+000
4.4482746e+000
4.1933823e+000
3.9984877e+000
3.8640158e+000
3.7714281e+000
3.6990252e+000
3.6326275e+000
3.5809433e+000
3.5502458e+000
3.5250516e+000
3.4898081e+000
3.4446871e+000
3.3986816e+000
3.3754001e+000
3.3933339e+000
3.4472153e+000
3.5232947e+000
3.6004319e+000
3.6642399e+000
3.7242649e+000
3.7912457e+000
3.8617916e+000
3.9190695e+000
3.9168828e+000
3.8146703e+000
3.6095350e+000
3.3172133e+000
2.9812369e+000
2.6457887e+000
2.3370514e+000
2.0710831e+000
1.8471168e+000
1.6556480e+000
1.4729393e+000
1.2759905e+000
1.0566105e+000
8.1466383e-001
5.6412226e-001
3.2153642e-001
1.0069334e-001
-8.3617508e-002
-2.1168873e-001
-2.7109519e-001
-2.7668878e-001
-2.4859291e-001
-2.0190227e-001
-1.4343686e-001
-5.7738610e-002
6.1248459e-002
1.7066026e-001
2.2424702e-001
2.0555986e-001
1.2346825e-001
4.6501949e-002
3.8275171e-002
9.5173664e-002
1.8718857e-001
2.5156319e-001
2.3721844e-001
1.6180311e-001
6.3017756e-002
-1.1279361e-002
-2.8535485e-002
-1.8448517e-002
-7.1950480e-003
4.6613500e-002
2.0029205e-001
5.0687015e-001
9.7506404e-001
1.4568250e+000
1.7821232e+000
1.8457503e+000
1.6194491e+000
1.3011500e+000
1.1175760e+000
1.1920608e+000
1.5748565e+000
2.1377778e+000
2.7265286e+000
3.2583797e+000
3.6828189e+000
4.0069141e+000
4.2472477e+000
4.4036427e+000
4.4792624e+000
4.5075684e+000
4.5234351e+000
4.5358167e+000
4.5475998e+000
