Image.
>Pix99999.
  .
5555
5555
2300
900
5555
2
1
0
701
5555
4.0658000e-003
4.1503790e-003
4.2348583e-003
4.3194368e-003
4.4040163e-003
4.4886940e-003
4.5731748e-003
4.6578520e-003
4.7423332e-003
4.8270100e-003
4.9115904e-003
4.9961694e-003
5.0807479e-003
5.1653269e-003
5.2499059e-003
5.3344849e-003
5.4189661e-003
5.5036405e-003
5.5882223e-003
5.6728008e-003
5.7573798e-003
5.8419588e-003
5.9265378e-003
6.0111172e-003
6.0956962e-003
6.1802752e-003
2.2966544e-004
1.2625480e-002
1.8844001e-002
3.6531832e-002
5.6009628e-002
4.9933407e-002
4.1486304e-002
2.1265185e-002
4.5845723e-003
2.0927655e-002
3.8539086e-002
5.4519724e-002
5.8317304e-002
2.5398284e-002
-7.2982144e-003
-3.4996651e-002
-3.9849821e-002
-7.9252888e-003
3.6696151e-002
9.4315358e-002
1.4697103e-001
1.9399308e-001
2.3652942e-001
2.7596968e-001
3.0082929e-001
3.1743845e-001
3.0945468e-001
2.9094601e-001
2.7741903e-001
2.6572144e-001
3.0287960e-001
3.5123676e-001
4.2007199e-001
4.9127537e-001
5.1361001e-001
5.2883285e-001
5.1467305e-001
5.0026619e-001
5.0055277e-001
5.0794899e-001
5.3616029e-001
5.6796622e-001
6.0364121e-001
6.2987500e-001
6.3737297e-001
6.3604301e-001
6.2470543e-001
6.2672621e-001
6.4497787e-001
6.8298286e-001
7.3696929e-001
7.8645200e-001
8.3170795e-001
8.7017304e-001
9.0514660e-001
9.5022929e-001
9.9956739e-001
1.0208250e+000
1.0329319e+000
9.8036450e-001
9.1298360e-001
8.2744831e-001
7.4144256e-001
6.9827574e-001
6.6736490e-001
6.8183964e-001
7.0714551e-001
7.5089085e-001
7.9794037e-001
8.4684604e-001
8.8892442e-001
9.1546547e-001
9.2858237e-001
9.2311251e-001
9.2137575e-001
9.2828828e-001
9.4875127e-001
9.8194116e-001
1.0083857e+000
1.0274000e+000
1.0289119e+000
1.0192968e+000
9.9354792e-001
9.6018410e-001
9.1767001e-001
8.7180710e-001
8.4991282e-001
8.3597022e-001
8.6510402e-001
9.0495282e-001
9.4322610e-001
9.7793543e-001
9.7498482e-001
9.6239847e-001
9.3746889e-001
9.1413444e-001
9.0663165e-001
9.0373510e-001
9.0620941e-001
9.0354609e-001
8.8966084e-001
8.7742192e-001
8.6962181e-001
8.7568957e-001
8.9584243e-001
9.2698181e-001
9.6652156e-001
1.0165763e+000
1.0746100e+000
1.1196579e+000
1.1563028e+000
1.1498488e+000
1.1220326e+000
1.0672731e+000
1.0015920e+000
9.5302886e-001
9.0954012e-001
8.9321846e-001
8.8293415e-001
8.6363637e-001
8.4041893e-001
8.0922830e-001
7.8074569e-001
7.7749097e-001
7.8735501e-001
8.2058048e-001
8.5721284e-001
8.8396400e-001
8.9486820e-001
8.7637067e-001
8.4548837e-001
8.0724144e-001
7.7279603e-001
7.4699914e-001
7.2256118e-001
6.9904834e-001
6.9424033e-001
7.0466435e-001
7.4577475e-001
8.0438066e-001
8.3357024e-001
8.4422386e-001
8.0448198e-001
7.4316072e-001
6.8264371e-001
6.2295824e-001
5.8265150e-001
5.4741055e-001
5.2141982e-001
4.9926251e-001
4.7828954e-001
4.6294379e-001
4.4854054e-001
4.3444699e-001
4.1626313e-001
3.9129263e-001
3.6139518e-001
3.2869864e-001
3.0019507e-001
2.8378907e-001
2.8557733e-001
3.1617531e-001
3.6932886e-001
4.2231759e-001
4.6398056e-001
4.7399643e-001
4.6232840e-001
4.3771175e-001
4.0929738e-001
3.6170307e-001
3.0287319e-001
2.3917100e-001
1.7199107e-001
1.4992872e-001
1.4627714e-001
1.6337371e-001
1.8473494e-001
1.7144750e-001
1.3869160e-001
6.9255382e-002
-9.1863889e-003
-7.5606592e-002
-1.2170742e-001
-1.2576845e-001
-1.0772200e-001
-6.5263852e-002
-2.2712423e-002
1.4022972e-002
3.6814678e-002
3.1843536e-002
1.2465158e-002
-2.5019784e-002
-6.2711768e-002
-9.1802359e-002
-1.2137657e-001
-1.4762865e-001
-1.8621074e-001
-2.2858989e-001
-2.7519721e-001
-3.1816036e-001
-3.6184999e-001
-4.0087247e-001
-4.2691904e-001
-4.4615310e-001
-4.2510498e-001
-3.8577008e-001
-3.1510532e-001
-2.2681411e-001
-1.3561457e-001
-4.5406073e-002
1.3907509e-002
3.8347542e-002
1.7480183e-002
-3.6115650e-002
-1.0271320e-001
-1.7119102e-001
-2.2955577e-001
-2.6861417e-001
-2.9149765e-001
-2.8844848e-001
-2.6461330e-001
-2.5027591e-001
-2.4444857e-001
-2.5552747e-001
-2.7696571e-001
-2.4378367e-001
-1.7737320e-001
-7.0635170e-002
5.0456487e-002
1.3266627e-001
1.8478937e-001
2.0285180e-001
1.9624594e-001
1.7473800e-001
1.4881028e-001
1.4028901e-001
1.5396006e-001
1.7892422e-001
2.0574307e-001
2.0724642e-001
1.7453200e-001
1.1438721e-001
3.3578105e-002
-1.2444817e-001
-2.8651673e-001
-3.8689610e-001
-3.9816308e-001
-3.1926709e-001
-2.3612258e-001
-1.8345928e-001
-2.1693915e-001
-3.3803236e-001
-4.4596434e-001
-5.2292210e-001
-4.6503600e-001
-2.9820585e-001
-1.2747295e-001
2.8854813e-002
3.8708687e-002
-5.5735510e-002
-1.1805489e-001
-1.3469690e-001
3.7721097e-003
2.7480677e-001
7.3363113e-001
1.3063534e+000
1.8234885e+000
2.2871523e+000
2.7251079e+000
3.2883508e+000
4.1384788e+000
5.5391140e+000
7.6177106e+000
1.0608010e+001
1.4462714e+001
1.8411280e+001
2.2097837e+001
2.5366203e+001
2.8279062e+001
3.1731899e+001
3.5819004e+001
4.0808243e+001
4.6506721e+001
5.1519093e+001
5.5869843e+001
6.0016861e+001
6.4107948e+001
6.8996399e+001
7.4494682e+001
8.0018753e+001
8.5432945e+001
9.0328873e+001
9.4672447e+001
9.8367233e+001
1.0128777e+002
1.0325425e+002
1.0421780e+002
1.0419456e+002
1.0325172e+002
1.0149286e+002
9.9151611e+001
9.6500458e+001
9.3480354e+001
9.0133316e+001
8.6113518e+001
8.1353409e+001
7.6404022e+001
7.1473076e+001
6.6837021e+001
6.2531322e+001
5.8214279e+001
5.3837139e+001
4.9622192e+001
4.5580250e+001
4.1832542e+001
3.8391823e+001
3.5359211e+001
3.2745049e+001
3.0543411e+001
2.8737051e+001
2.7195791e+001
2.5919317e+001
2.4857874e+001
2.4016905e+001
2.3371500e+001
2.2939484e+001
2.2710342e+001
2.2663879e+001
2.2752638e+001
2.2913771e+001
2.3095354e+001
2.3273361e+001
2.3441523e+001
2.3694168e+001
2.4066629e+001
2.4659134e+001
2.5482189e+001
2.6466274e+001
2.7586441e+001
2.8738672e+001
2.9918028e+001
3.1316122e+001
3.3033085e+001
3.5664425e+001
3.9280514e+001
4.3188610e+001
4.7140896e+001
5.0152451e+001
5.2230156e+001
5.3911678e+001
5.5213039e+001
5.6289280e+001
5.7067780e+001
5.7416889e+001
5.7255798e+001
5.6571930e+001
5.5471413e+001
5.4175323e+001
5.2734570e+001
5.1195549e+001
4.9500862e+001
4.7597046e+001
4.5461224e+001
4.3033287e+001
4.0642441e+001
3.8407085e+001
3.6295921e+001
3.4357506e+001
3.1992926e+001
2.9056871e+001
2.6027960e+001
2.2929577e+001
2.0282429e+001
1.8135929e+001
1.6020428e+001
1.3932156e+001
1.1799349e+001
9.6376648e+000
7.4882803e+000
5.4261723e+000
3.5840681e+000
2.0496366e+000
9.3311214e-001
2.6019013e-001
5.1976755e-002
4.0742308e-001
1.2555106e+000
2.2842381e+000
3.2838228e+000
4.0976224e+000
4.6343269e+000
5.0689287e+000
5.4677434e+000
5.8872075e+000
6.3397002e+000
6.7194386e+000
6.9526572e+000
7.0417247e+000
6.9147296e+000
6.7266784e+000
6.4609785e+000
6.1938939e+000
5.9252586e+000
5.6207175e+000
5.2593203e+000
4.7706771e+000
4.1645675e+000
3.5411325e+000
2.9378200e+000
2.4704928e+000
2.1546724e+000
1.9946345e+000
1.9902160e+000
2.1089025e+000
2.3072515e+000
2.5346360e+000
2.7531371e+000
2.9619339e+000
3.1803708e+000
3.4349780e+000
3.7270648e+000
4.0592179e+000
4.4021039e+000
4.7454681e+000
5.0813789e+000
5.3936248e+000
5.6807828e+000
5.8936601e+000
6.0118093e+000
5.9681201e+000
5.8044896e+000
5.4781170e+000
5.0931015e+000
4.6463418e+000
4.1890888e+000
3.7418370e+000
3.3188500e+000
2.9297073e+000
2.5870817e+000
2.2520943e+000
1.8767239e+000
1.4645137e+000
1.0053349e+000
5.7575047e-001
2.6933718e-001
6.3734666e-002
8.8223545e-003
2.9100750e-002
1.1437910e-001
2.1306893e-001
3.6130202e-001
5.3334856e-001
7.5013179e-001
9.7310984e-001
1.1971657e+000
1.4137623e+000
1.5869477e+000
1.7527330e+000
1.9065658e+000
2.0752037e+000
2.2815311e+000
2.5114789e+000
2.7837994e+000
3.0759487e+000
3.3926201e+000
3.7146754e+000
4.0191574e+000
4.2750602e+000
4.4601898e+000
4.5548491e+000
4.5801592e+000
4.5499129e+000
4.4974051e+000
4.4400349e+000
4.3824000e+000
4.3197460e+000
4.2544250e+000
4.1807303e+000
4.1145401e+000
4.0688047e+000
4.0347023e+000
4.0229845e+000
4.0122218e+000
4.0024805e+000
3.9955685e+000
4.0008159e+000
4.0221286e+000
4.0776405e+000
4.1605291e+000
4.2802510e+000
4.4137669e+000
4.5548902e+000
4.6796956e+000
4.7863469e+000
4.8819456e+000
4.9690537e+000
5.0572805e+000
5.1412759e+000
5.2093887e+000
5.2657747e+000
5.3037043e+000
5.3362288e+000
5.3698559e+000
5.3983512e+000
5.4100428e+000
5.3891568e+000
5.2746682e+000
5.1048832e+000
4.7870731e+000
4.4316692e+000
3.9806516e+000
3.5223737e+000
3.0474582e+000
2.5814540e+000
2.1354630e+000
1.7122502e+000
1.3321491e+000
9.8799431e-001
6.9893026e-001
4.5159477e-001
2.5610480e-001
9.6653759e-002
-2.6064493e-002
-1.2743613e-001
-2.0874929e-001
-2.7121815e-001
-3.2076585e-001
-3.6104941e-001
-3.9654544e-001
-4.2957622e-001
-4.4862121e-001
-4.1403157e-001
-3.3869380e-001
-1.4517318e-001
8.9896798e-002
4.2883635e-001
7.6947278e-001
1.0896106e+000
1.3703023e+000
1.5263528e+000
1.6405417e+000
1.6511490e+000
1.6374103e+000
1.5738215e+000
1.4882885e+000
1.3650262e+000
1.2183172e+000
1.0401337e+000
8.4777856e-001
6.4133394e-001
4.3749923e-001
2.4536061e-001
1.0766072e-001
2.6248753e-002
5.3983688e-002
1.5279120e-001
3.4944451e-001
5.8423239e-001
8.2365406e-001
1.0547614e+000
1.2370371e+000
1.4007639e+000
1.5116080e+000
1.6096849e+000
1.6646600e+000
1.7140779e+000
1.7434822e+000
1.7733845e+000
1.8054575e+000
1.8453599e+000
1.9043006e+000
1.9685032e+000
2.0420310e+000
2.1119497e+000
2.1761284e+000
2.2363350e+000
2.2897661e+000
2.3294168e+000
2.3538888e+000
2.3670650e+000
2.3727233e+000
2.3838797e+000
2.3967342e+000
2.3952992e+000
2.3823514e+000
2.3319771e+000
2.2640646e+000
2.1609669e+000
2.0495434e+000
1.9360814e+000
1.8279400e+000
1.7603573e+000
1.6969663e+000
1.6470176e+000
1.5932314e+000
1.5227209e+000
1.4522334e+000
1.3831500e+000
1.3199365e+000
1.2712929e+000
1.2298554e+000
1.1999702e+000
1.1584932e+000
1.0978944e+000
1.0142750e+000
9.0548271e-001
7.9980963e-001
6.9620031e-001
5.7915872e-001
4.5063651e-001
2.9550558e-001
1.3117802e-001
1.8206641e-002
-7.0155717e-002
-1.0241514e-001
-1.2316416e-001
-1.8315746e-001
-2.5247303e-001
-3.5378158e-001
-4.5388708e-001
-5.0966322e-001
-5.5965668e-001
-5.7296258e-001
-5.8182281e-001
-5.7114571e-001
-5.5779070e-001
-5.3776670e-001
-5.3295165e-001
-5.6403458e-001
-6.1142373e-001
-6.8529665e-001
-7.4444938e-001
-7.8148562e-001
-7.8564745e-001
-7.5451148e-001
-6.9281912e-001
-6.0540432e-001
-4.9009526e-001
-3.5781044e-001
-2.3354150e-001
-1.1713114e-001
-8.7934896e-002
-9.0895332e-002
-1.7051047e-001
-2.6479915e-001
-3.1417865e-001
-3.5380560e-001
-2.8653499e-001
-2.1022515e-001
-6.7860641e-002
2.2498593e-003
6.9959432e-002
2.0196508e-001
3.3835578e-001
4.6085429e-001
5.4285997e-001
6.1437643e-001
6.6429192e-001
7.4487615e-001
8.7504470e-001
1.0325260e+000
1.2223921e+000
1.3499948e+000
1.4175020e+000
1.3527343e+000
1.1936131e+000
9.7681296e-001
7.3146218e-001
5.6419629e-001
4.2900163e-001
3.4683731e-001
2.7986270e-001
1.8961242e-001
9.6247360e-002
1.0978000e-001
