Image.
>Pix99999.
  .
5555
5555
2300
900
5555
2
1
0
701
5555
6.1670002e-002
6.2952168e-002
6.4235330e-002
6.5518491e-002
6.6801652e-002
6.8084821e-002
6.9366999e-002
7.0650145e-002
7.1933314e-002
7.3216483e-002
7.4498653e-002
7.5781807e-002
7.7064969e-002
7.8349113e-002
7.9630338e-002
8.0908574e-002
8.2196511e-002
8.3498336e-002
8.4763445e-002
8.5975103e-002
8.7326229e-002
8.8873349e-002
8.9903094e-002
9.0202898e-002
9.2425421e-002
9.5408432e-002
7.9413176e-002
2.8947696e-002
-3.3447519e-002
-7.7214204e-002
-8.2896404e-002
-3.9554462e-002
4.2568561e-002
1.4424919e-001
2.3448071e-001
2.9057699e-001
3.3727577e-001
4.0703976e-001
5.0753713e-001
6.3031363e-001
7.3202485e-001
7.7061647e-001
7.5104004e-001
6.9631159e-001
6.4477271e-001
6.3103259e-001
6.5646064e-001
7.1114635e-001
7.8090447e-001
8.5287809e-001
9.2436928e-001
9.9306345e-001
1.0452160e+000
1.0666538e+000
1.0566565e+000
1.0238186e+000
9.9690396e-001
1.0065577e+000
1.0645546e+000
1.1701539e+000
1.2983485e+000
1.4158479e+000
1.4888886e+000
1.4929069e+000
1.4412749e+000
1.3619865e+000
1.2925397e+000
1.2650301e+000
1.2781487e+000
1.3195530e+000
1.3782600e+000
1.4453131e+000
1.5183195e+000
1.5956762e+000
1.6700666e+000
1.7319179e+000
1.7705805e+000
1.7764580e+000
1.7450668e+000
1.6800646e+000
1.6121601e+000
1.5768102e+000
1.5891798e+000
1.6490335e+000
1.7220080e+000
1.7705235e+000
1.7937183e+000
1.8025928e+000
1.8005275e+000
1.7845632e+000
1.7380315e+000
1.6497201e+000
1.5509034e+000
1.4839505e+000
1.4713714e+000
1.5197051e+000
1.6026411e+000
1.6870461e+000
1.7619100e+000
1.8262042e+000
1.8832715e+000
1.9343424e+000
1.9648365e+000
1.9577129e+000
1.9089714e+000
1.8254900e+000
1.7361680e+000
1.6768543e+000
1.6772263e+000
1.7554612e+000
1.8933314e+000
2.0565820e+000
2.2053878e+000
2.3057647e+000
2.3558438e+000
2.3673799e+000
2.3536165e+000
2.3254645e+000
2.2847316e+000
2.2319329e+000
2.1796799e+000
2.1435871e+000
2.1309640e+000
2.1416993e+000
2.1594405e+000
2.1647534e+000
2.1539660e+000
2.1311994e+000
2.1048822e+000
2.0826254e+000
2.0638800e+000
2.0456247e+000
2.0300286e+000
2.0208819e+000
2.0174594e+000
2.0167580e+000
2.0129132e+000
2.0003378e+000
1.9775088e+000
1.9455918e+000
1.9086601e+000
1.8718723e+000
1.8401872e+000
1.8191202e+000
1.8160943e+000
1.8373108e+000
1.8791265e+000
1.9308860e+000
1.9726177e+000
1.9835551e+000
1.9581357e+000
1.8996292e+000
1.8192703e+000
1.7315092e+000
1.6511041e+000
1.5902222e+000
1.5514549e+000
1.5315661e+000
1.5236640e+000
1.5215498e+000
1.5275486e+000
1.5471100e+000
1.5803759e+000
1.6227077e+000
1.6627864e+000
1.6881028e+000
1.6955411e+000
1.6883050e+000
1.6743239e+000
1.6625832e+000
1.6571985e+000
1.6590961e+000
1.6670903e+000
1.6772298e+000
1.6777711e+000
1.6566999e+000
1.6175617e+000
1.5736762e+000
1.5447520e+000
1.5462917e+000
1.5649457e+000
1.5736881e+000
1.5535620e+000
1.4975759e+000
1.4273257e+000
1.3783092e+000
1.3812311e+000
1.4538428e+000
1.5741708e+000
1.6996011e+000
1.7905571e+000
1.8180352e+000
1.7832160e+000
1.7032900e+000
1.5930474e+000
1.4659650e+000
1.3427401e+000
1.2487119e+000
1.2124065e+000
1.2561402e+000
1.3695000e+000
1.5200166e+000
1.6594086e+000
1.7384670e+000
1.7364937e+000
1.6553986e+000
1.5213305e+000
1.3705555e+000
1.2281246e+000
1.1086504e+000
1.0147430e+000
9.4410938e-001
9.0104347e-001
8.9297110e-001
9.2115521e-001
9.7888631e-001
1.0423359e+000
1.0822999e+000
1.0889834e+000
1.0675980e+000
1.0337143e+000
1.0057719e+000
9.9189281e-001
9.9051595e-001
9.8686802e-001
9.6145004e-001
9.0690744e-001
8.2789290e-001
7.4540401e-001
6.8579721e-001
6.5771556e-001
6.5741748e-001
6.8025064e-001
7.2142893e-001
7.7224290e-001
8.1888294e-001
8.3610177e-001
7.9809147e-001
7.0827717e-001
5.9192890e-001
4.8378286e-001
4.1656378e-001
3.9623782e-001
4.0993744e-001
4.4117755e-001
4.7376400e-001
4.9413913e-001
4.9266267e-001
4.6928823e-001
4.3357056e-001
4.1039002e-001
4.2957842e-001
4.9979040e-001
6.0885441e-001
7.2065234e-001
7.9001695e-001
7.9650074e-001
7.4571609e-001
6.7612255e-001
6.3741714e-001
6.3713348e-001
6.4552116e-001
6.0911196e-001
4.7908223e-001
2.8553468e-001
1.1054340e-001
1.0184639e-002
-2.9211505e-003
4.2543695e-003
-6.5733917e-002
-2.0287099e-001
-3.2000625e-001
-3.6671400e-001
-3.4021911e-001
-2.8086090e-001
-2.4924679e-001
-2.7756128e-001
-3.6374590e-001
-4.6141967e-001
-5.0381631e-001
-4.6678200e-001
-3.6960664e-001
-2.6548415e-001
-2.1669094e-001
-2.3262464e-001
-2.7613544e-001
-2.9430273e-001
-2.2843449e-001
-1.9751385e-002
3.8222241e-001
9.9265051e-001
1.7828507e+000
2.6460280e+000
3.4459832e+000
4.1766281e+000
4.9553843e+000
5.9571300e+000
7.3847046e+000
9.4375067e+000
1.2235188e+001
1.5550143e+001
1.8907160e+001
2.1973837e+001
2.4646425e+001
2.7150074e+001
2.9932165e+001
3.3342525e+001
3.7500622e+001
4.2003201e+001
4.6139149e+001
4.9701870e+001
5.2992184e+001
5.6400833e+001
6.0237316e+001
6.4457306e+001
6.8748550e+001
7.2931602e+001
7.6992775e+001
8.0926186e+001
8.4701942e+001
8.8278145e+001
9.1595619e+001
9.4538139e+001
9.6930542e+001
9.8542961e+001
9.9167175e+001
9.8891930e+001
9.8037369e+001
9.6747856e+001
9.4954262e+001
9.2546646e+001
8.9457062e+001
8.5824516e+001
8.1947037e+001
7.7989754e+001
7.3956009e+001
6.9808121e+001
6.5518394e+001
6.1145744e+001
5.6825962e+001
5.2680229e+001
4.8799965e+001
4.5272339e+001
4.2170670e+001
3.9492676e+001
3.7162399e+001
3.5102890e+001
3.3260006e+001
3.1615082e+001
3.0180605e+001
2.8965500e+001
2.7966278e+001
2.7165030e+001
2.6535854e+001
2.6066229e+001
2.5759092e+001
2.5613565e+001
2.5622141e+001
2.5785212e+001
2.6113138e+001
2.6624256e+001
2.7332724e+001
2.8209267e+001
2.9179466e+001
3.0165960e+001
3.1105192e+001
3.1974369e+001
3.2823017e+001
3.3856998e+001
3.5381458e+001
3.7448227e+001
3.9799110e+001
4.2085430e+001
4.3981033e+001
4.5431923e+001
4.6662571e+001
4.7830360e+001
4.8940727e+001
4.9902020e+001
5.0557606e+001
5.0787487e+001
5.0548965e+001
4.9920113e+001
4.9078712e+001
4.8124348e+001
4.7040051e+001
4.5776073e+001
4.4287838e+001
4.2585041e+001
4.0745190e+001
3.8883801e+001
3.7111572e+001
3.5385838e+001
3.3492786e+001
3.1253382e+001
2.8610193e+001
2.5721319e+001
2.2938944e+001
2.0466871e+001
1.8273190e+001
1.6246000e+001
1.4250745e+001
1.2213474e+001
1.0143468e+001
8.0799417e+000
6.0840826e+000
4.2505360e+000
2.6980033e+000
1.4793122e+000
5.8096063e-001
9.6596003e-002
2.2750080e-001
9.5525211e-001
1.9707649e+000
3.0104916e+000
3.9621308e+000
4.8105392e+000
5.6079006e+000
6.3316197e+000
6.8527007e+000
7.0739403e+000
6.9876308e+000
6.6965904e+000
6.4005876e+000
6.1898556e+000
5.9892321e+000
5.7359905e+000
5.4312758e+000
5.0842185e+000
4.6934900e+000
4.2418942e+000
3.7026749e+000
3.0949776e+000
2.5008276e+000
1.9972399e+000
1.6293771e+000
1.4030383e+000
1.2816359e+000
1.2338052e+000
1.2509258e+000
1.3435714e+000
1.5387740e+000
1.8471406e+000
2.2498589e+000
2.7151170e+000
3.2018778e+000
3.6690483e+000
4.0801454e+000
4.4089522e+000
4.6464562e+000
4.8071856e+000
4.9319301e+000
5.0506539e+000
5.1659379e+000
5.2561288e+000
5.2771702e+000
5.2037797e+000
5.0468259e+000
4.8294001e+000
4.5784149e+000
4.3070259e+000
4.0080967e+000
3.6780479e+000
3.3249552e+000
2.9538000e+000
2.5604200e+000
2.1379418e+000
1.6827598e+000
1.2163532e+000
7.9521030e-001
4.6420544e-001
2.3477736e-001
9.5439434e-002
1.2919614e-002
-3.5020508e-002
-4.5809895e-002
-1.4483280e-002
5.7281055e-002
1.5708600e-001
2.5875425e-001
3.3974001e-001
3.8981888e-001
4.0959108e-001
4.1330060e-001
4.2073947e-001
4.5510486e-001
5.3613019e-001
6.7455745e-001
8.6735928e-001
1.0920247e+000
1.3226900e+000
1.5366243e+000
1.7196320e+000
1.8705359e+000
1.9907637e+000
2.0807607e+000
2.1394000e+000
2.1645191e+000
2.1588359e+000
2.1339698e+000
2.1060286e+000
2.0939312e+000
2.1117084e+000
2.1630635e+000
2.2441199e+000
2.3424878e+000
2.4450142e+000
2.5418386e+000
2.6289561e+000
2.7118473e+000
2.7989213e+000
2.8999281e+000
3.0233862e+000
3.1746027e+000
3.3556273e+000
3.5641985e+000
3.7975035e+000
4.0555124e+000
4.3474040e+000
4.6972418e+000
5.1271257e+000
5.6464787e+000
6.2460938e+000
6.8879328e+000
7.5320740e+000
8.1500492e+000
8.7268648e+000
9.2683630e+000
9.7801352e+000
1.0257195e+001
1.0689229e+001
1.1058084e+001
1.1344640e+001
1.1525994e+001
1.1579720e+001
1.1487028e+001
1.1244406e+001
1.0878077e+001
1.0421434e+001
9.9053745e+000
9.3530970e+000
8.7720642e+000
8.1707850e+000
7.5695834e+000
6.9867868e+000
6.4307909e+000
5.8998280e+000
5.3765101e+000
4.8458166e+000
4.3057256e+000
3.7600572e+000
3.2185047e+000
2.6887515e+000
2.1719770e+000
1.6716145e+000
1.1995343e+000
7.7418977e-001
4.2262715e-001
1.6654463e-001
1.0079756e-002
-5.6128800e-002
-6.1775617e-002
-4.0164120e-002
-2.1004092e-002
-2.5415074e-002
-5.6667194e-002
-1.0853252e-001
-1.6339660e-001
-2.0437634e-001
-2.2303191e-001
-2.1863958e-001
-2.0315541e-001
-1.8886332e-001
-1.8134388e-001
-1.8065080e-001
-1.7756929e-001
-1.6022451e-001
-1.1614171e-001
-3.6867682e-002
7.6581530e-002
2.2350629e-001
4.0880972e-001
6.3495827e-001
8.9594477e-001
1.1878600e+000
1.5163987e+000
1.8875294e+000
2.3005452e+000
2.7430799e+000
3.1794848e+000
3.5757101e+000
3.9170799e+000
4.2075744e+000
4.4840107e+000
4.7800908e+000
5.1022100e+000
5.4470658e+000
5.8035126e+000
6.1638083e+000
6.5329719e+000
6.9127140e+000
7.2902493e+000
7.6520300e+000
7.9932666e+000
8.3166857e+000
8.6377077e+000
8.9695854e+000
9.3110495e+000
9.6506109e+000
9.9595823e+000
1.0212458e+001
1.0402164e+001
1.0531315e+001
1.0618202e+001
1.0681405e+001
1.0722793e+001
1.0743720e+001
1.0748288e+001
1.0740306e+001
1.0714330e+001
1.0659114e+001
1.0546122e+001
1.0352248e+001
1.0077545e+001
9.7327757e+000
9.3474493e+000
8.9485025e+000
8.5451794e+000
8.1422577e+000
7.7436604e+000
7.3537402e+000
6.9770117e+000
6.6116562e+000
6.2363706e+000
5.8332477e+000
5.4083672e+000
4.9792261e+000
4.5795789e+000
4.2387190e+000
3.9598794e+000
3.7378628e+000
3.5604644e+000
3.4093733e+000
3.2529798e+000
3.0571558e+000
2.7916498e+000
2.4464478e+000
2.0709579e+000
1.7230315e+000
1.4405788e+000
1.2393000e+000
1.0797453e+000
9.1572905e-001
7.2126400e-001
4.8677719e-001
2.3859216e-001
1.1399686e-002
-1.6168791e-001
-2.4971122e-001
-2.2793478e-001
-8.2548618e-002
1.6894543e-001
4.9448365e-001
8.3931166e-001
1.1483046e+000
1.3840450e+000
1.5169228e+000
1.5299746e+000
1.4191657e+000
1.2150562e+000
9.5919204e-001
7.0327854e-001
4.8919559e-001
3.1666005e-001
1.7861061e-001
8.0733180e-002
2.6394904e-002
-6.1712228e-004
-1.9498194e-002
-4.2898491e-002
-8.8994063e-002
-2.0137843e-001
-4.0810752e-001
-6.5710551e-001
-8.7999994e-001
-1.0221878e+000
-1.0528820e+000
-1.0168453e+000
-9.7126442e-001
-9.4761729e-001
-9.5890915e-001
-9.7166032e-001
-9.4784027e-001
-8.7665546e-001
-7.6230586e-001
-6.4086723e-001
-5.4841399e-001
-4.8981100e-001
-4.5742732e-001
-4.2498928e-001
-3.6157000e-001
