##TITLE=Methyl Ethyl Ketone
##JCAMP-DX=4.24
##DATA TYPE=INFRARED SPECTRUM
##XUNITS=cm-1
##YUNITS=Absorbance
##FIRSTX=900
##LASTX=2300
##XYDATA=(X++(Y..Y))
2296 -0.0077503999
2294 -0.0079116691
2292 -0.0080728391
2290 -0.0082341079
2288 -0.0083953766
2286 -0.0085565466
2284 -0.0087178163
2282 -0.0088790851
2280 -0.0090402551
2278 -0.0092015229
2276 -0.0093627935
2274 -0.0095239636
2272 -0.0096852314
2270 -0.0098464033
2268 -0.010007768
2266 -0.010168551
2264 -0.010330297
2262 -0.01049109
2260 -0.010652835
2258 -0.01081363
2256 -0.010975371
2254 -0.01113617
2252 -0.011297909
2250 -0.01145871
2248 -0.011620445
2246 -0.01178125
2244 -0.00043780287
2242 0.0047416696
2240 0.0083128279
2238 -0.0079401722
2236 -0.027103659
2234 -0.056237303
2232 -0.085330166
2230 -0.097440675
2228 -0.10777943
2226 -0.1104555
2224 -0.10881514
2222 -0.089258112
2220 -0.057354953
2218 0.0092448806
2216 0.076466776
2214 0.14076848
2212 0.18835279
2210 0.20893592
2208 0.21729726
2206 0.21248385
2204 0.19818045
2202 0.17552041
2200 0.14095017
2198 0.097892947
2196 0.055887926
2194 0.014818879
2192 0.00095004879
2190 -0.001012902
2188 0.032345094
2186 0.076926865
2184 0.1307772
2182 0.18659918
2180 0.21142885
2178 0.231208
2176 0.21819486
2174 0.20128317
2172 0.17423442
2170 0.1441042
2168 0.10187077
2166 0.060681369
2164 0.027623769
2162 0.0038927407
2160 0.0019712583
2158 0.0098866085
2156 0.032242797
2154 0.069486588
2152 0.12613623
2150 0.17372324
2148 0.20880476
2146 0.20012107
2144 0.1539003
2142 0.10384943
2140 0.05385334
2138 0.043087877
2136 0.053681001
2134 0.07533893
2132 0.10075807
2130 0.11380184
2128 0.1227884
2126 0.13282657
2124 0.14319229
2122 0.16127497
2120 0.18064737
2118 0.20101848
2116 0.22027428
2114 0.2300728
2112 0.23216885
2110 0.20617564
2108 0.17232017
2106 0.12717229
2104 0.09328831
2102 0.087962121
2100 0.099677861
2098 0.13291351
2096 0.16168429
2094 0.18049231
2092 0.17780595
2090 0.15437046
2088 0.1284876
2086 0.10298266
2084 0.10748433
2082 0.1317412
2080 0.15501389
2078 0.17644262
2076 0.16250515
2074 0.13397983
2072 0.1191636
2070 0.10927518
2068 0.12867695
2066 0.15455379
2064 0.14900376
2062 0.13505685
2060 0.097744964
2058 0.0576589
2056 0.027635857
2054 0.0020083636
2052 -0.014773041
2050 -0.021665975
2048 -0.0073686126
2046 0.014621286
2044 0.04360652
2042 0.059779637
2040 0.054297622
2038 0.0316259
2036 -0.0070319138
2034 -0.050832596
2032 -0.096724428
2030 -0.1341988
2028 -0.16462305
2026 -0.17726022
2024 -0.1791656
2022 -0.15603244
2020 -0.12065217
2018 -0.086789057
2016 -0.0543392
2014 -0.064798519
2012 -0.089831181
2010 -0.12323156
2008 -0.15766223
2006 -0.17561972
2004 -0.19058678
2002 -0.2136801
2000 -0.23769069
1998 -0.25601271
1996 -0.26105571
1994 -0.22989035
1992 -0.18337451
1990 -0.12323584
1988 -0.078479156
1986 -0.067298479
1984 -0.081485055
1982 -0.11987479
1980 -0.15730457
1978 -0.18704957
1976 -0.19432487
1974 -0.18213139
1972 -0.13856725
1970 -0.073850408
1968 -0.0094058514
1966 0.05236607
1964 0.065069303
1962 0.051874239
1960 0.01909456
1958 -0.020881373
1956 -0.059810303
1954 -0.098727435
1952 -0.15489732
1950 -0.21443082
1948 -0.2500751
1946 -0.27379751
1944 -0.27494845
1942 -0.27665028
1940 -0.30822226
1938 -0.35255942
1936 -0.40694171
1934 -0.45314434
1932 -0.47585121
1930 -0.48057085
1928 -0.46637622
1926 -0.43161279
1924 -0.3762373
1922 -0.31935444
1920 -0.26717326
1918 -0.26106662
1916 -0.29645443
1914 -0.34128961
1912 -0.38630423
1910 -0.39792675
1908 -0.38772961
1906 -0.38952106
1904 -0.3999168
1902 -0.41469619
1900 -0.43132821
1898 -0.40510958
1896 -0.36072856
1894 -0.29884118
1892 -0.23594609
1890 -0.2135226
1888 -0.21856029
1886 -0.27636257
1884 -0.35634753
1882 -0.44433817
1880 -0.52892244
1878 -0.59812826
1876 -0.64176595
1874 -0.64649183
1872 -0.59581745
1870 -0.48018938
1868 -0.35943398
1866 -0.2593368
1864 -0.25175983
1862 -0.3371838
1860 -0.46163747
1858 -0.59885806
1856 -0.69219059
1854 -0.74858844
1852 -0.74548751
1850 -0.70649642
1848 -0.63189518
1846 -0.53869712
1844 -0.48639205
1842 -0.45728165
1840 -0.48883179
1838 -0.54521507
1836 -0.56519485
1834 -0.5519892
1832 -0.44839817
1830 -0.29811358
1828 -0.12676072
1826 0.015660308
1824 0.051980857
1822 0.0079089971
1820 -0.11380922
1818 -0.25525767
1816 -0.37655914
1814 -0.46137851
1812 -0.50330818
1810 -0.50683206
1808 -0.48145324
1806 -0.425464
1804 -0.3466433
1802 -0.27564818
1800 -0.21655926
1798 -0.17786236
1796 -0.1531743
1794 -0.10619514
1792 -0.042671561
1790 -0.010484504
1788 -0.00075217034
1786 -0.019806489
1784 -0.051429398
1782 -0.034389459
1780 0.015096251
1778 0.10438925
1776 0.21825743
1774 0.34686619
1772 0.46246761
1770 0.5092333
1768 0.487048
1766 0.37560144
1764 0.2332422
1762 0.11309208
1760 0.027150696
1758 -0.075240284
1756 -0.15479401
1754 -0.17356239
1752 -0.092964545
1750 0.084226243
1748 0.26244363
1746 0.40913394
1744 0.40828434
1742 0.27286083
1740 0.12913984
1738 0.0028075315
1736 0.032137599
1734 0.18038785
1732 0.29279941
1730 0.36398378
1728 0.25240919
1726 0.027861778
1724 -0.12209711
1722 -0.17549381
1720 0.0075303465
1718 0.36764622
1716 0.93344843
1714 1.5715129
1712 2.046932
1710 2.4252241
1708 2.7842159
1706 3.3239763
1704 4.2289281
1702 5.7308912
1700 7.9339733
1698 10.922365
1696 14.614285
1694 18.30513
1692 21.683462
1690 24.742744
1688 27.553543
1686 30.988522
1684 35.116459
1682 40.058876
1680 45.631359
1678 50.552017
1676 54.855228
1674 59.080887
1672 63.32333
1670 68.159065
1668 73.400253
1666 78.378899
1664 83.060333
1662 87.26767
1660 91.026581
1658 94.358505
1656 97.231316
1654 99.602501
1652 101.343
1650 102.33853
1648 102.27623
1646 100.94608
1644 98.779999
1642 96.224159
1640 93.283722
1638 90.020126
1636 86.079857
1634 81.401108
1632 76.647209
1630 72.053108
1628 67.780678
1626 63.823128
1624 59.71608
1622 55.408585
1620 51.128212
1618 46.902718
1616 42.918571
1614 39.202816
1612 35.922653
1610 33.09399
1608 30.709532
1606 28.743921
1604 27.043877
1602 25.617718
1600 24.437092
1598 23.512808
1596 22.820999
1594 22.355543
1592 22.07452
1590 21.953257
1588 21.944748
1586 22.022692
1584 22.157646
1582 22.34923
1580 22.593983
1578 22.967699
1576 23.496828
1574 24.211843
1572 25.111954
1570 26.112091
1568 27.189758
1566 28.302963
1564 29.452053
1562 30.842403
1560 32.57262
1558 35.215317
1556 38.809471
1554 42.628101
1552 46.463039
1550 49.445744
1548 51.634987
1546 53.596535
1544 55.352116
1542 57.01844
1540 58.366619
1538 59.074615
1536 59.035458
1534 58.235764
1532 56.971252
1530 55.608376
1528 54.215481
1526 52.848351
1524 51.390118
1522 49.765587
1520 47.809845
1518 45.423283
1516 42.939831
1514 40.459167
1512 38.11256
1510 35.951511
1508 33.373684
1506 30.23332
1504 27.00292
1502 23.728857
1500 20.941128
1498 18.69795
1496 16.506001
1494 14.36108
1492 12.191132
1490 10.007306
1488 7.8504701
1486 5.7768149
1484 3.8789339
1482 2.2676671
1480 1.0646638
1478 0.3126674
1476 0.059682712
1474 0.37302983
1472 1.1717708
1470 2.1202519
1468 3.0098131
1466 3.7439415
1464 4.2433567
1462 4.6937013
1460 5.1694412
1458 5.6838231
1456 6.25104
1454 6.6842074
1452 6.8927269
1450 6.9394188
1448 6.7587867
1446 6.5435181
1444 6.2844939
1442 6.0355721
1440 5.7962785
1438 5.540081
1436 5.23739
1434 4.8167367
1432 4.2667832
1430 3.6524665
1428 3.0244539
1426 2.5145121
1424 2.1584725
1422 1.9861821
1420 1.9691857
1418 2.0546813
1416 2.175477
1414 2.258883
1412 2.3333504
1410 2.4257433
1408 2.5777023
1406 2.8387144
1404 3.1757603
1402 3.6081645
1400 4.0761561
1398 4.5823298
1396 5.0653143
1394 5.4953094
1392 5.8482747
1390 6.0612664
1388 6.1673126
1386 6.0970449
1384 5.8961015
1382 5.5176072
1380 5.078649
1378 4.5797033
1376 4.1024971
1374 3.6610608
1372 3.2630758
1370 2.914994
1368 2.6109846
1366 2.3221793
1364 1.9952345
1362 1.6214027
1360 1.1808364
1358 0.7438637
1356 0.39203757
1354 0.13651109
1352 0.037684482
1350 0.028527088
1348 0.11630327
1346 0.24170965
1344 0.45087522
1342 0.69584888
1340 0.99882901
1338 1.2809929
1336 1.5114143
1334 1.6874839
1332 1.7642063
1330 1.8375111
1328 1.9131972
1326 2.0320792
1324 2.22261
1322 2.4726453
1320 2.8004513
1318 3.1662757
1316 3.5589199
1314 3.9162509
1312 4.2205882
1310 4.4468765
1308 4.6004
1306 4.6933594
1304 4.7395263
1302 4.744678
1300 4.7266326
1298 4.691113
1296 4.6527572
1294 4.6208143
1292 4.5909405
1290 4.5618949
1288 4.5326324
1286 4.5021591
1284 4.4759488
1282 4.4603543
1280 4.4458814
1278 4.4352989
1276 4.4382901
1274 4.471755
1272 4.5362902
1270 4.6522179
1268 4.7794313
1266 4.9191937
1264 5.0492015
1262 5.1653004
1260 5.2711897
1258 5.3651214
1256 5.4496284
1254 5.5283217
1252 5.6117702
1250 5.7012329
1248 5.8020024
1246 5.9042501
1244 5.992157
1242 6.0623322
1240 6.0910511
1238 6.0937915
1236 6.0488586
1234 5.9738932
1232 5.8297877
1230 5.6469026
1228 5.3607883
1226 5.044817
1224 4.6506324
1222 4.2395515
1220 3.7883611
1218 3.3282139
1216 2.8532572
1214 2.3944428
1212 1.9681822
1210 1.5805811
1208 1.2495029
1206 0.94874203
1204 0.68293321
1202 0.42808288
1200 0.18760197
1198 -0.031983182
1196 -0.22324213
1194 -0.35684496
1192 -0.44160709
1190 -0.4583911
1188 -0.43759221
1186 -0.38478956
1184 -0.31874439
1182 -0.24127671
1180 -0.14405173
1178 0.023207337
1176 0.227314
1174 0.54205441
1172 0.86581653
1170 1.197183
1168 1.489872
1166 1.6604657
1164 1.7773411
1162 1.762157
1160 1.7207137
1158 1.6282711
1156 1.5333142
1154 1.4305489
1152 1.3036634
1150 1.140432
1148 0.94371438
1146 0.71394825
1144 0.49155492
1142 0.28523237
1140 0.13357849
1138 0.032622181
1136 0.010696277
1134 0.042345084
1132 0.15717304
1130 0.30817071
1128 0.48213148
1126 0.65172875
1124 0.76565951
1122 0.85863847
1120 0.89286399
1118 0.9271633
1116 0.99099642
1114 1.0696197
1112 1.2076069
1110 1.3453414
1108 1.4803286
1106 1.59753
1104 1.6689794
1102 1.7178975
1100 1.7219489
1098 1.7099335
1096 1.6742572
1094 1.6443189
1092 1.624904
1090 1.6326976
1088 1.6703618
1086 1.7352036
1084 1.8218035
1082 1.9170389
1080 2.0072937
1078 2.0268269
1076 1.9955357
1074 1.8277948
1072 1.6142274
1070 1.3901244
1068 1.1817714
1066 1.104205
1064 1.053748
1062 1.0795978
1060 1.1081889
1058 1.1300374
1056 1.1479458
1054 1.1474987
1052 1.1360854
1050 1.088964
1048 1.027199
1046 0.93092358
1044 0.83787525
1042 0.75259316
1040 0.68826967
1038 0.65479344
1036 0.63036799
1034 0.61311257
1032 0.56504393
1030 0.48391706
1028 0.34161031
1026 0.15572512
1024 -0.048883349
1022 -0.25691539
1020 -0.39828163
1018 -0.50586313
1016 -0.52521712
1014 -0.52011138
1012 -0.50660962
1010 -0.49862641
1008 -0.56966597
1006 -0.6490975
1004 -0.74952978
1002 -0.83429825
1000 -0.81042224
998 -0.76437396
996 -0.62176853
994 -0.48644209
992 -0.37550205
990 -0.29487979
988 -0.28370684
986 -0.27945858
984 -0.28741294
982 -0.30131793
980 -0.32509542
978 -0.38278368
976 -0.47526115
974 -0.56497395
972 -0.6497944
970 -0.68574303
968 -0.69021755
966 -0.66042346
964 -0.61526608
962 -0.57225537
960 -0.53005064
958 -0.4887912
956 -0.44648728
954 -0.37520865
952 -0.30052799
950 -0.22754803
948 -0.15257756
946 -0.05007825
944 0.0025878176
942 0.08051309
940 0.23389439
938 0.3978588
936 0.54626656
934 0.64925355
932 0.75240552
930 0.85546744
928 0.93977576
926 0.99297535
924 0.98901302
922 0.91518444
920 0.8100667
918 0.67616576
916 0.55914515
914 0.45422524
912 0.37010446
910 0.29760459
908 0.27526525
906 0.27312106
904 0.37408358
902 0.50231934
900 0.63963729
898 0.77840292
896 0.86431998
