##TITLE=Methyl Ethyl Ketone
##JCAMP-DX=4.24
##DATA TYPE=INFRARED SPECTRUM
##XUNITS=cm-1
##YUNITS=Absorbance
##FIRSTX=900
##LASTX=2300
##XYDATA=(X++(Y..Y))
2296 0.0092369998
2294 0.0094292257
2292 0.0096213501
2290 0.0098134754
2288 0.010005899
2286 0.010197628
2284 0.010390346
2282 0.010582079
2280 0.010773806
2278 0.010966519
2276 0.011158257
2274 0.011350967
2272 0.011542709
2270 0.011735415
2268 0.01192716
2266 0.012119864
2264 0.012311611
2262 0.012503337
2260 0.012696037
2258 0.012887788
2256 0.013080486
2254 0.01327224
2252 0.013464934
2250 0.013656692
2248 0.013848417
2246 0.014041107
2244 0.00052178284
2242 0.0082443468
2240 0.028536284
2238 0.046204351
2236 0.063430272
2234 0.051774342
2232 0.037189178
2230 0.0035329442
2228 -0.027844464
2226 -0.03372065
2224 -0.030195553
2222 0.010400802
2220 0.052146137
2218 0.091355346
2216 0.11977943
2214 0.12495685
2212 0.1302654
2210 0.13801411
2208 0.16297817
2206 0.20920679
2204 0.260993
2202 0.31684658
2200 0.35500836
2198 0.37974837
2196 0.39029714
2194 0.3931866
2192 0.38139978
2190 0.36339617
2188 0.32096055
2186 0.27072144
2184 0.23293841
2182 0.19814394
2180 0.20873781
2178 0.22633213
2176 0.26378971
2174 0.30250585
2172 0.3351095
2170 0.366615
2168 0.39517167
2166 0.42406714
2164 0.4552719
2162 0.48161578
2160 0.49488819
2158 0.49705961
2156 0.48064601
2154 0.46318385
2152 0.44698498
2150 0.43742979
2148 0.43521327
2146 0.43506894
2144 0.4360773
2142 0.44566959
2140 0.46115488
2138 0.48161548
2136 0.50444996
2134 0.5069927
2132 0.50087065
2130 0.4832159
2128 0.46212679
2126 0.45542192
2124 0.45214841
2122 0.45125332
2120 0.4498511
2118 0.43236873
2116 0.41246501
2114 0.3915517
2112 0.37539926
2110 0.38090545
2108 0.39118463
2106 0.40632483
2104 0.41231972
2102 0.39658007
2100 0.37027419
2098 0.33165646
2096 0.2987586
2094 0.27574658
2092 0.27374059
2090 0.29201058
2088 0.32895726
2086 0.37888148
2084 0.42166206
2082 0.45851728
2080 0.47079727
2078 0.47060317
2076 0.44606572
2074 0.41203952
2072 0.35093081
2070 0.28140682
2068 0.20538235
2066 0.128567
2064 0.07895194
2062 0.038008377
2060 0.030595869
2058 0.033397369
2056 0.055994257
2054 0.080478311
2052 0.097959466
2050 0.10882327
2048 0.10651623
2046 0.10462321
2044 0.1087132
2042 0.1181404
2040 0.13361725
2038 0.13504489
2036 0.11785685
2034 0.076181501
2032 0.014139993
2030 -0.040827524
2028 -0.087205373
2026 -0.095263265
2024 -0.079554737
2022 -0.040089518
2020 0.0099648051
2018 0.043159064
2016 0.068536602
2014 0.06217498
2012 0.045163177
2010 0.013760757
2008 -0.021569904
2006 -0.059764884
2004 -0.098657392
2002 -0.1366657
2000 -0.17498577
1998 -0.2146472
1996 -0.25602856
1994 -0.30097303
1992 -0.33925641
1990 -0.3614614
1988 -0.3642298
1986 -0.34112236
1984 -0.30725572
1982 -0.26692858
1980 -0.23422626
1978 -0.2113082
1976 -0.21621285
1974 -0.24461859
1972 -0.30406708
1970 -0.38340423
1968 -0.46180189
1966 -0.53733665
1964 -0.5895564
1962 -0.63003665
1960 -0.63947397
1958 -0.63609642
1956 -0.60306615
1954 -0.56005979
1952 -0.52297193
1950 -0.49185967
1948 -0.49438384
1946 -0.51007247
1944 -0.5397138
1942 -0.56642812
1940 -0.57079524
1938 -0.56377423
1936 -0.545762
1934 -0.53538918
1932 -0.54572719
1930 -0.57459134
1928 -0.62224585
1926 -0.66129142
1924 -0.68149114
1922 -0.66745043
1920 -0.62247467
1918 -0.57907778
1916 -0.54518068
1914 -0.53698993
1912 -0.54666865
1910 -0.54606193
1908 -0.53624111
1906 -0.5105598
1904 -0.47720718
1902 -0.46961042
1900 -0.47483629
1898 -0.50449568
1896 -0.54294425
1894 -0.5696584
1892 -0.5876205
1890 -0.57928729
1888 -0.55562222
1886 -0.5114783
1884 -0.46127424
1882 -0.4163053
1880 -0.37808847
1878 -0.35017708
1876 -0.33116901
1874 -0.31978601
1872 -0.32452035
1870 -0.3484188
1868 -0.38876924
1866 -0.44490743
1864 -0.48637268
1862 -0.5099619
1860 -0.49441639
1858 -0.44689149
1856 -0.3860817
1854 -0.31951067
1852 -0.28966182
1850 -0.28409007
1848 -0.32907081
1846 -0.40024072
1844 -0.4616226
1842 -0.51350623
1840 -0.50253254
1838 -0.46264392
1836 -0.42176899
1834 -0.3883315
1832 -0.38917688
1830 -0.40060106
1828 -0.39702952
1826 -0.36660042
1824 -0.28643206
1822 -0.19817781
1820 -0.1358844
1818 -0.11376391
1816 -0.14086428
1814 -0.19140185
1812 -0.24862371
1810 -0.29135242
1808 -0.31429684
1806 -0.31338251
1804 -0.29393619
1802 -0.27870208
1800 -0.2707108
1798 -0.28213704
1796 -0.30752215
1794 -0.32514486
1792 -0.33695519
1790 -0.31765419
1788 -0.28085217
1786 -0.23609114
1784 -0.18989062
1782 -0.16274118
1780 -0.14936431
1778 -0.15235269
1776 -0.16654314
1774 -0.19084783
1772 -0.20963272
1770 -0.20127618
1768 -0.16871126
1766 -0.11265058
1764 -0.055449881
1762 -0.013631113
1760 0.010530925
1758 -0.074261203
1756 -0.23385799
1754 -0.40850237
1752 -0.58415174
1750 -0.75298524
1748 -0.87819594
1746 -0.95995319
1744 -0.98486286
1742 -0.96916395
1740 -0.96049583
1738 -0.96411198
1736 -0.96590799
1734 -0.96301025
1732 -0.8694911
1730 -0.71303415
1728 -0.53849334
1726 -0.36038008
1724 -0.2239899
1722 -0.11307366
1720 0.012917858
1718 0.2097964
1716 0.62549627
1714 1.2370982
1712 2.0394697
1710 2.9538727
1708 3.8974259
1706 4.9644108
1704 6.2437067
1702 8.0177956
1700 10.438361
1698 13.754274
1696 17.95857
1694 22.153629
1692 25.945501
1690 29.144522
1688 31.8214
1686 34.913338
1684 38.553589
1682 43.236065
1680 48.782478
1678 53.942532
1676 58.68383
1674 63.236259
1672 67.704941
1670 72.713593
1668 78.079323
1666 83.123001
1664 87.754539
1662 91.598602
1660 94.706856
1658 97.1371
1656 98.90683
1654 100.05544
1652 100.5172
1650 100.26447
1648 99.3899
1646 98.037575
1644 96.503105
1642 95.037155
1640 93.396797
1638 91.468102
1636 88.831558
1634 85.400604
1632 81.527237
1630 77.395622
1628 73.148056
1626 68.838341
1624 64.166397
1622 59.137436
1620 54.153107
1618 49.258801
1616 44.735516
1614 40.609695
1612 37.032852
1610 34.006031
1608 31.438057
1606 29.301201
1604 27.432928
1602 25.853615
1600 24.554817
1598 23.546204
1596 22.797501
1594 22.317026
1592 22.074829
1590 22.075495
1588 22.291195
1586 22.700878
1584 23.268583
1582 23.974649
1580 24.796638
1578 25.863005
1576 27.215572
1574 28.960251
1572 31.112253
1570 33.47583
1568 36.000599
1566 38.42041
1564 40.698112
1562 42.817398
1560 44.804955
1558 47.140038
1556 49.807228
1554 52.345928
1552 54.571701
1550 55.941906
1548 56.461903
1546 56.568501
1544 56.169495
1542 55.234375
1540 53.741638
1538 51.777252
1536 49.647316
1534 47.789627
1532 46.122601
1530 44.554752
1528 42.984367
1526 41.3293
1524 39.538052
1522 37.574562
1520 35.439758
1518 33.116268
1516 30.873201
1514 28.807396
1512 26.805559
1510 24.862171
1508 22.502663
1506 19.602993
1504 16.762594
1502 14.058317
1500 11.861457
1498 10.232443
1496 8.6569004
1494 7.1391535
1492 5.6309881
1490 4.1739969
1488 2.8526018
1486 1.7368515
1484 0.89418101
1482 0.3391144
1480 0.025338128
1478 -0.070567369
1476 0.026566952
1474 0.4586004
1472 1.265434
1470 2.3316488
1468 3.6200957
1466 4.9091978
1464 6.0675879
1462 7.1152391
1460 8.0376396
1458 8.9373636
1456 9.8366003
1454 10.66358
1452 11.366632
1450 11.814844
1448 11.879194
1446 11.754857
1444 11.36734
1442 10.88473
1440 10.264989
1438 9.5197849
1436 8.6138258
1434 7.5892673
1432 6.4992218
1430 5.5536709
1428 4.7999201
1426 4.2639723
1424 3.9253635
1422 3.7004898
1420 3.6040251
1418 3.6447277
1416 3.8312171
1414 4.1861849
1412 4.6274247
1410 5.1130714
1408 5.5970702
1406 6.0520658
1404 6.4517851
1402 6.7552118
1400 6.9500999
1398 6.9688969
1396 6.8947215
1394 6.6739783
1392 6.4410715
1390 6.1845746
1388 5.930716
1386 5.6773
1384 5.4118958
1382 5.125886
1380 4.8145833
1378 4.4580579
1376 4.03162
1374 3.5241919
1372 2.960254
1370 2.358505
1368 1.7832686
1366 1.2355356
1364 0.71899211
1362 0.25319445
1360 -0.12977464
1358 -0.39695281
1356 -0.47464672
1354 -0.41368788
1352 -0.18528697
1350 0.14506921
1348 0.60204697
1346 1.0898821
1344 1.5984161
1342 2.0663607
1340 2.4402452
1338 2.7472498
1336 2.9195285
1334 3.0322387
1332 3.0267947
1330 2.9631729
1328 2.8061972
1326 2.6234863
1324 2.4178894
1322 2.2472255
1320 2.1290948
1318 2.0546036
1316 2.0240099
1314 1.9987328
1312 1.9716651
1310 1.9300089
1308 1.8735069
1306 1.8071142
1304 1.7364994
1302 1.6700109
1300 1.6222491
1298 1.6208062
1296 1.6728572
1294 1.8287852
1292 2.0567586
1290 2.4130764
1288 2.8211079
1286 3.3162036
1284 3.8028805
1282 4.2491426
1280 4.6404057
1278 4.9063144
1276 5.125
1274 5.2558661
1272 5.3750138
1270 5.4821248
1268 5.6180811
1266 5.8046093
1264 6.0503221
1262 6.3768559
1260 6.7705898
1258 7.2446671
1256 7.7896085
1254 8.4063768
1252 9.0891552
1250 9.8233156
1248 10.594628
1246 11.37925
1244 12.149405
1242 12.881936
1240 13.506691
1238 14.028576
1236 14.307072
1234 14.425609
1232 14.1682
1230 13.746941
1228 12.915243
1226 11.986035
1224 10.812715
1222 9.6389503
1220 8.4757433
1218 7.4053421
1216 6.5358372
1214 5.8165259
1212 5.361156
1210 5.0510635
1208 4.9450412
1206 4.9088578
1204 4.9366379
1202 4.9114628
1200 4.8066468
1198 4.5543957
1196 4.1697931
1194 3.6674926
1192 3.100352
1190 2.541398
1188 2.0087268
1186 1.5701822
1184 1.1894035
1182 0.9196496
1180 0.70324898
1178 0.60201365
1176 0.54244995
1174 0.5883981
1172 0.65799236
1170 0.79502702
1168 0.93411499
1166 1.0765921
1164 1.1961045
1162 1.25591
1160 1.2779018
1158 1.2230135
1156 1.1408043
1154 1.0141532
1152 0.87564677
1150 0.72221726
1148 0.56838357
1146 0.41727251
1144 0.28372508
1142 0.16960411
1140 0.082765006
1138 0.014435243
1136 -0.053270318
1134 -0.123243
1132 -0.14431626
1130 -0.13603403
1128 -0.07154084
1126 0.022371173
1124 0.19062625
1122 0.3746002
1120 0.57210958
1118 0.75466967
1116 0.85062432
1114 0.93491328
1112 0.9767049
1110 1.0203969
1108 1.0694506
1106 1.1128399
1104 1.1440172
1102 1.1890061
1100 1.2664239
1098 1.3919263
1096 1.5950571
1094 1.8356627
1092 2.1233139
1090 2.4251471
1088 2.7395868
1086 3.0482249
1084 3.3440046
1082 3.5811698
1080 3.7697778
1078 3.8586721
1076 3.8903058
1074 3.831686
1072 3.7366347
1070 3.5915618
1068 3.4384198
1066 3.3072965
1064 3.186384
1062 3.1200233
1060 3.0556288
1058 2.9865034
1056 2.9117742
1054 2.8133011
1052 2.7211437
1050 2.650696
1048 2.6000874
1046 2.598757
1044 2.623575
1042 2.6979275
1040 2.7912941
1038 2.9111049
1036 3.0256801
1034 3.1316435
1032 3.210572
1030 3.2615242
1028 3.2691445
1026 3.239687
1024 3.1310856
1022 2.9699781
1020 2.6901257
1018 2.3583345
1016 1.9594144
1014 1.5477701
1012 1.1940739
1010 0.85911262
1008 0.62429678
1006 0.40260559
1004 0.23694725
1002 0.074069463
1000 -0.072786734
998 -0.21476114
996 -0.33423215
994 -0.43416578
992 -0.47268143
990 -0.48901775
988 -0.4548516
986 -0.41946384
984 -0.38186327
982 -0.34564704
980 -0.31061262
978 -0.266828
976 -0.214742
974 -0.17352259
972 -0.14337794
970 -0.15695377
968 -0.19823663
966 -0.2649855
964 -0.34036842
962 -0.35980073
960 -0.35722587
958 -0.26891518
956 -0.16219804
954 -0.051457509
952 0.056047801
950 0.074772611
948 0.085802361
946 0.038426787
944 0.00029503182
942 0.0099362396
940 0.053996086
938 0.2096169
936 0.38751602
934 0.63084149
932 0.88225609
930 1.1500071
928 1.3833869
926 1.5605108
924 1.671206
922 1.7009408
920 1.7026817
918 1.6784234
916 1.6609157
914 1.6480033
912 1.6327126
910 1.616731
908 1.6399318
906 1.6792514
904 1.8124039
902 1.9704881
900 2.1541376
898 2.3420858
896 2.5418999
