Image.
>Pix99999.
  .
5555
5555
2300
900
5555
2
1
0
701
5555
1.5507000e-002
1.5836529e-002
1.6166057e-002
1.6495585e-002
1.6825115e-002
1.7154643e-002
1.7484171e-002
1.7813699e-002
1.8143227e-002
1.8472757e-002
1.8802285e-002
1.9131815e-002
1.9461343e-002
1.9788910e-002
2.0119380e-002
2.0453822e-002
2.0778572e-002
2.1090424e-002
2.1437053e-002
2.1835143e-002
2.2098571e-002
2.2174869e-002
2.2747489e-002
2.4020385e-002
2.3447840e-002
1.7917035e-002
5.1111258e-003
-1.4510313e-002
-3.0206960e-002
-3.1743478e-002
-2.2616442e-002
-8.9568375e-003
8.3388733e-003
3.1007977e-002
6.5183543e-002
1.1385715e-001
1.6223137e-001
1.9116424e-001
1.8494187e-001
1.3764454e-001
7.8634799e-002
4.3412305e-002
4.9689021e-002
1.0120295e-001
1.6729109e-001
2.1310185e-001
2.2881576e-001
2.1653873e-001
1.9511719e-001
1.8448670e-001
1.8852642e-001
2.0369647e-001
2.1691279e-001
2.1450636e-001
1.9220139e-001
1.5318957e-001
1.1861120e-001
1.1292220e-001
1.5066640e-001
2.3671575e-001
3.4984684e-001
4.6206218e-001
5.5199927e-001
6.0498971e-001
6.2399715e-001
6.1819381e-001
5.9850246e-001
5.7613832e-001
5.6163794e-001
5.6287909e-001
5.7785702e-001
5.9931248e-001
6.1236060e-001
6.0256475e-001
5.6765485e-001
5.1243001e-001
4.5309737e-001
4.0825209e-001
3.9059016e-001
4.0662414e-001
4.4652173e-001
4.9531132e-001
5.4047078e-001
5.7257473e-001
5.9060442e-001
5.9518814e-001
5.8127010e-001
5.4623806e-001
5.0658727e-001
4.8424250e-001
4.9444288e-001
5.4192543e-001
5.9929085e-001
6.3158423e-001
6.2195873e-001
5.6727958e-001
4.9125117e-001
4.2476282e-001
3.8737699e-001
3.8894889e-001
4.1870999e-001
4.5866132e-001
4.9315733e-001
5.1096785e-001
5.1416212e-001
5.0934899e-001
5.0031525e-001
4.8907548e-001
4.7566453e-001
4.6095169e-001
4.5247716e-001
4.5966014e-001
4.8847958e-001
5.3966564e-001
5.9833837e-001
6.4416629e-001
6.6046381e-001
6.3809550e-001
5.9224224e-001
5.4656339e-001
5.1847738e-001
5.1866698e-001
5.4250354e-001
5.8064115e-001
6.3038868e-001
6.9095033e-001
7.5634658e-001
8.1753618e-001
8.6253482e-001
8.8214284e-001
8.8380772e-001
8.8132656e-001
8.8446957e-001
8.9761579e-001
9.1139954e-001
9.1272086e-001
8.9779627e-001
8.6958647e-001
8.4059417e-001
8.2541299e-001
8.3045805e-001
8.5609943e-001
8.9371467e-001
9.3210852e-001
9.6571428e-001
9.9247515e-001
1.0133744e+000
1.0313250e+000
1.0514811e+000
1.0798291e+000
1.1208714e+000
1.1761807e+000
1.2376503e+000
1.2930064e+000
1.3300500e+000
1.3400807e+000
1.3267560e+000
1.3010576e+000
1.2789271e+000
1.2761549e+000
1.2977600e+000
1.3425000e+000
1.4046488e+000
1.4767452e+000
1.5507394e+000
1.6178551e+000
1.6670709e+000
1.6886407e+000
1.6838161e+000
1.6608703e+000
1.6332757e+000
1.6147864e+000
1.6105474e+000
1.6200366e+000
1.6372517e+000
1.6557751e+000
1.6785903e+000
1.7118212e+000
1.7541842e+000
1.7992905e+000
1.8358599e+000
1.8549541e+000
1.8679980e+000
1.8954513e+000
1.9503663e+000
2.0354686e+000
2.1289759e+000
2.2000701e+000
2.2323332e+000
2.2234731e+000
2.1942029e+000
2.1725750e+000
2.1683805e+000
2.1790297e+000
2.1972404e+000
2.2156134e+000
2.2336318e+000
2.2529278e+000
2.2672491e+000
2.2670498e+000
2.2491715e+000
2.2154400e+000
2.1723435e+000
2.1289830e+000
2.0952721e+000
2.0795701e+000
2.0822752e+000
2.0976996e+000
2.1122668e+000
2.1114705e+000
2.0934701e+000
2.0657825e+000
2.0427873e+000
2.0374653e+000
2.0437710e+000
2.0441828e+000
2.0231485e+000
1.9719031e+000
1.9008440e+000
1.8293375e+000
1.7675228e+000
1.7169018e+000
1.6714762e+000
1.6221383e+000
1.5619760e+000
1.4884036e+000
1.4088577e+000
1.3358703e+000
1.2788440e+000
1.2420143e+000
1.2193086e+000
1.1995330e+000
1.1761189e+000
1.1475856e+000
1.1187268e+000
1.0966121e+000
1.0818480e+000
1.0704566e+000
1.0578901e+000
1.0404578e+000
1.0190800e+000
9.9707919e-001
9.7606862e-001
9.5669240e-001
9.4162673e-001
9.3254548e-001
9.1969746e-001
8.8799602e-001
8.3349741e-001
7.6395768e-001
7.0215571e-001
6.7354393e-001
6.7411399e-001
6.8078601e-001
6.7994285e-001
6.6906035e-001
6.5476584e-001
6.4587778e-001
6.3763040e-001
6.1654341e-001
5.7538712e-001
5.1444787e-001
4.4254440e-001
3.7120730e-001
3.0019298e-001
2.2372101e-001
1.5211761e-001
9.8586649e-002
3.1119393e-002
-1.0265804e-001
-2.9130101e-001
-4.7873116e-001
-6.3757551e-001
-7.6951480e-001
-8.8176513e-001
-9.8227102e-001
-1.0814954e+000
-1.1855564e+000
-1.2726731e+000
-1.3025405e+000
-1.2471400e+000
-1.1003819e+000
-9.0066552e-001
-7.1227908e-001
-5.7082415e-001
-4.7688094e-001
-3.9127845e-001
-2.4738231e-001
2.5537819e-002
4.8254043e-001
1.1087455e+000
1.8317559e+000
2.5635653e+000
3.2360237e+000
3.8924739e+000
4.6696620e+000
5.7287545e+000
7.2477579e+000
9.4580021e+000
1.2546417e+001
1.6291714e+001
2.0163960e+001
2.3743141e+001
2.6835999e+001
2.9655342e+001
3.2696980e+001
3.6341728e+001
4.0710346e+001
4.5372440e+001
4.9583580e+001
5.3168114e+001
5.6506973e+001
6.0034641e+001
6.4053207e+001
6.8449677e+001
7.2801849e+001
7.6848587e+001
8.0537964e+001
8.3892563e+001
8.6963997e+001
8.9798340e+001
9.2413857e+001
9.4740257e+001
9.6621796e+001
9.7840942e+001
9.8199356e+001
9.7786728e+001
9.6906563e+001
9.5635361e+001
9.3797318e+001
9.1206741e+001
8.7773666e+001
8.3701210e+001
7.9409950e+001
7.5134628e+001
7.0883324e+001
6.6607361e+001
6.2267620e+001
5.7927048e+001
5.3735760e+001
4.9798630e+001
4.6159103e+001
4.2858765e+001
3.9939720e+001
3.7395653e+001
3.5176678e+001
3.3239670e+001
3.1558811e+001
3.0117708e+001
2.8900913e+001
2.7884501e+001
2.7038599e+001
2.6349245e+001
2.5820415e+001
2.5461048e+001
2.5277178e+001
2.5251606e+001
2.5348989e+001
2.5554983e+001
2.5884857e+001
2.6366371e+001
2.7028027e+001
2.7863779e+001
2.8827612e+001
2.9862360e+001
3.0909237e+001
3.1920509e+001
3.2899296e+001
3.4049389e+001
3.5723518e+001
3.8011627e+001
4.0659149e+001
4.3233414e+001
4.5257900e+001
4.6614986e+001
4.7574463e+001
4.8361034e+001
4.9047699e+001
4.9619862e+001
4.9998726e+001
5.0092312e+001
4.9826626e+001
4.9229012e+001
4.8423126e+001
4.7469158e+001
4.6335400e+001
4.4989601e+001
4.3431824e+001
4.1728443e+001
4.0005936e+001
3.8365170e+001
3.6835335e+001
3.5296120e+001
3.3485050e+001
3.1220472e+001
2.8493057e+001
2.5516182e+001
2.2688480e+001
2.0229128e+001
1.8083130e+001
1.6110857e+001
1.4157558e+001
1.2149820e+001
1.0119802e+001
8.1225309e+000
6.2161942e+000
4.4791241e+000
3.0029178e+000
1.8231738e+000
9.1744107e-001
3.3632171e-001
2.1118295e-001
5.4499954e-001
1.1596558e+000
1.8678083e+000
2.5340178e+000
3.1066983e+000
3.6246026e+000
4.1226807e+000
4.6027870e+000
5.0442400e+000
5.4088244e+000
5.6680937e+000
5.8135719e+000
5.8534517e+000
5.8107390e+000
5.7048826e+000
5.5435672e+000
5.3187199e+000
5.0047631e+000
4.5762882e+000
4.0214624e+000
3.3753476e+000
2.7297390e+000
2.1683779e+000
1.7423664e+000
1.4702240e+000
1.3355837e+000
1.3187757e+000
1.4065183e+000
1.5872600e+000
1.8499110e+000
2.1837616e+000
2.5785246e+000
3.0219564e+000
3.4978907e+000
3.9822466e+000
4.4422369e+000
4.8529921e+000
5.2053199e+000
5.5018144e+000
5.7550855e+000
5.9655061e+000
6.1122923e+000
6.1706319e+000
6.1191702e+000
5.9536524e+000
5.6940041e+000
5.3636770e+000
4.9830856e+000
4.5683432e+000
4.1311131e+000
3.6890061e+000
3.2668004e+000
2.8702478e+000
2.4741907e+000
2.0501678e+000
1.5811387e+000
1.0885854e+000
6.4580411e-001
3.1350243e-001
1.1046913e-001
2.2174560e-002
-9.0073596e-004
5.1092636e-004
1.2641245e-002
3.0553000e-002
5.3465184e-002
7.9568602e-002
1.0456556e-001
1.2764886e-001
1.5379527e-001
1.8451394e-001
2.1424231e-001
2.3998544e-001
2.6615894e-001
3.0200922e-001
3.6127272e-001
4.5406777e-001
5.8196670e-001
7.3993897e-001
9.1475308e-001
1.0893097e+000
1.2435316e+000
1.3591959e+000
1.4235579e+000
1.4346840e+000
1.4076561e+000
1.3670617e+000
1.3457119e+000
1.3690143e+000
1.4443105e+000
1.5651789e+000
1.7086700e+000
1.8520440e+000
1.9803835e+000
2.0877285e+000
2.1805251e+000
2.2691891e+000
2.3658960e+000
2.4817257e+000
2.6243200e+000
2.8003154e+000
3.0156109e+000
3.2740495e+000
3.5759921e+000
3.9185994e+000
4.2950006e+000
4.7000160e+000
5.1337895e+000
5.5985031e+000
6.0975614e+000
6.6323524e+000
7.1994338e+000
7.7932220e+000
8.4049997e+000
9.0216036e+000
9.6220322e+000
1.0179578e+001
1.0660691e+001
1.1032542e+001
1.1269938e+001
1.1358480e+001
1.1303067e+001
1.1117023e+001
1.0820314e+001
1.0426121e+001
9.9362040e+000
9.3584347e+000
8.7147827e+000
8.0378056e+000
7.3696694e+000
6.7441120e+000
6.1724424e+000
5.6545372e+000
5.1773620e+000
4.7233863e+000
4.2726388e+000
3.8060000e+000
3.3082657e+000
2.7738144e+000
2.2153718e+000
1.6574972e+000
1.1392603e+000
6.9743240e-001
3.5450107e-001
1.1842173e-001
-2.6871912e-002
-1.0090280e-001
-1.1831632e-001
-9.2179000e-002
-3.5040870e-002
3.7106972e-002
1.0171334e-001
1.4437515e-001
1.7245300e-001
2.0023377e-001
2.4474271e-001
3.1317669e-001
3.8945144e-001
4.5482028e-001
4.9765411e-001
5.1349860e-001
5.0948083e-001
4.8823521e-001
4.3670285e-001
3.4666878e-001
2.3040316e-001
1.0973582e-001
1.7823698e-002
-6.1750859e-003
8.1921950e-002
3.0386886e-001
6.2482250e-001
9.9339938e-001
1.3525143e+000
1.6574609e+000
1.8981875e+000
2.0836000e+000
2.2469301e+000
2.4183557e+000
2.6054828e+000
2.8070526e+000
3.0135510e+000
3.2190092e+000
3.4299998e+000
3.6535549e+000
3.8895266e+000
4.1370506e+000
4.3963594e+000
4.6704144e+000
4.9664440e+000
5.2875261e+000
5.6234589e+000
5.9616137e+000
6.2916756e+000
6.6062722e+000
6.9029140e+000
7.1758981e+000
7.4068260e+000
7.5782571e+000
7.6838555e+000
7.7281704e+000
7.7378740e+000
7.7398248e+000
7.7467122e+000
7.7589078e+000
7.7522354e+000
7.7013741e+000
7.5944510e+000
7.4291229e+000
7.2198219e+000
6.9823408e+000
6.7247572e+000
6.4525962e+000
6.1693001e+000
5.8782091e+000
5.5850406e+000
5.2986403e+000
5.0371685e+000
4.8172498e+000
4.6454477e+000
4.5150418e+000
4.3888445e+000
4.2257066e+000
3.9967995e+000
3.6878462e+000
3.3198051e+000
2.9262073e+000
2.5510740e+000
2.2301657e+000
1.9642081e+000
1.7368251e+000
1.5062726e+000
1.2388529e+000
9.4586253e-001
6.5101850e-001
3.8215452e-001
1.5877256e-001
-2.8700635e-002
-1.9175428e-001
-3.2571751e-001
-4.2602623e-001
-5.0105089e-001
-5.6313670e-001
-6.2661582e-001
-6.9857675e-001
-7.6099551e-001
-7.9227799e-001
-7.7954376e-001
-7.1502572e-001
-6.0084194e-001
-4.4366556e-001
-2.5722197e-001
-5.7331353e-002
1.3916801e-001
3.1824598e-001
4.7613156e-001
6.0895663e-001
7.0372015e-001
7.4436080e-001
7.1229029e-001
5.9872764e-001
4.3152446e-001
2.4973716e-001
9.9902712e-002
2.5762241e-002
5.3991064e-002
1.8904325e-001
3.7119159e-001
5.4252857e-001
7.0958912e-001
8.9147842e-001
1.0944871e+000
1.3111538e+000
1.4952607e+000
1.5986180e+000
1.6025634e+000
1.5023766e+000
1.3197141e+000
1.0922284e+000
8.9278901e-001
7.9325795e-001
8.2591593e-001
9.9591589e-001
1.2412944e+000
1.4919548e+000
1.7110243e+000
1.8796928e+000
2.0169919e+000
2.1510999e+000
