##TITLE=Methyl Ethyl Ketone
##JCAMP-DX=4.24
##DATA TYPE=INFRARED SPECTRUM
##XUNITS=cm-1
##YUNITS=Absorbance
##FIRSTX=900
##LASTX=2300
##XYDATA=(X++(Y..Y))
2296 0.090241
2294 0.092118315
2292 0.093995631
2290 0.095872946
2288 0.097750254
2286 0.099627577
2284 0.10150389
2282 0.1033812
2280 0.10525851
2278 0.10713583
2276 0.10901314
2274 0.11089046
2272 0.11276777
2270 0.11464509
2268 0.11652239
2266 0.11839972
2264 0.12027702
2262 0.12215434
2260 0.12403166
2258 0.12590899
2256 0.12778628
2254 0.1296636
2252 0.13154092
2250 0.13341823
2248 0.13529554
2246 0.13717285
2244 0.089944452
2242 0.0033989141
2240 -0.074512318
2238 -0.15734425
2236 -0.24109429
2234 -0.24117297
2232 -0.23325165
2230 -0.18130183
2228 -0.13553612
2226 -0.1565195
2224 -0.1949809
2222 -0.29834428
2220 -0.39479801
2218 -0.4598777
2216 -0.49149773
2214 -0.4538483
2212 -0.40869582
2210 -0.35791513
2208 -0.3317163
2206 -0.33657029
2204 -0.35798472
2202 -0.39337867
2200 -0.43004069
2198 -0.46692348
2196 -0.47484002
2194 -0.46609911
2192 -0.40546778
2190 -0.32258558
2188 -0.26540515
2186 -0.21705122
2184 -0.25969478
2182 -0.32311562
2180 -0.34359539
2178 -0.35622412
2176 -0.26604173
2174 -0.17277686
2172 -0.15226723
2170 -0.15439059
2168 -0.24709447
2166 -0.34127137
2164 -0.40890387
2162 -0.46470338
2160 -0.49692836
2158 -0.52547568
2156 -0.55145502
2154 -0.53577101
2152 -0.46014428
2150 -0.33505216
2148 -0.16132131
2146 -0.022734642
2144 0.080239132
2142 0.096550003
2140 0.05505329
2138 -0.040108893
2136 -0.16121823
2134 -0.27404743
2132 -0.38201725
2130 -0.44778016
2128 -0.50015318
2126 -0.50734788
2124 -0.50440246
2122 -0.42804557
2120 -0.33906513
2118 -0.22974578
2116 -0.12774199
2114 -0.10095743
2112 -0.10082678
2110 -0.16960694
2108 -0.26265451
2106 -0.39866394
2104 -0.54212338
2102 -0.68841106
2100 -0.78080362
2098 -0.78224432
2096 -0.70894426
2094 -0.55579144
2092 -0.41882986
2090 -0.31071347
2088 -0.25258869
2086 -0.23160501
2084 -0.20844698
2082 -0.18019827
2080 -0.18064131
2078 -0.19694665
2076 -0.28516299
2074 -0.40264043
2072 -0.52153003
2070 -0.64015228
2068 -0.66846323
2066 -0.67415118
2064 -0.60691738
2062 -0.52888858
2060 -0.47410253
2058 -0.43668619
2056 -0.46924713
2054 -0.52348864
2052 -0.60904318
2050 -0.69804227
2048 -0.78363335
2046 -0.85892892
2044 -0.9173578
2042 -0.94393516
2040 -0.92398822
2038 -0.87934178
2036 -0.81177253
2034 -0.7624861
2032 -0.73565453
2030 -0.74558789
2028 -0.78356111
2026 -0.81883967
2024 -0.85100424
2022 -0.8002646
2020 -0.70761758
2018 -0.59819746
2016 -0.482456
2014 -0.48512545
2012 -0.52541709
2010 -0.63827038
2008 -0.76907551
2006 -0.90975535
2004 -1.0467323
2002 -1.1482331
2000 -1.210204
1998 -1.1511507
1996 -1.0309786
1994 -0.82542205
1992 -0.644629
1990 -0.55700147
1988 -0.57886523
1986 -0.73847562
1984 -0.9266299
1982 -1.1094248
1980 -1.2349843
1978 -1.3032118
1976 -1.3345143
1974 -1.346545
1972 -1.3225992
1970 -1.2767497
1968 -1.2328103
1966 -1.1920993
1964 -1.2585043
1962 -1.377507
1960 -1.51798
1958 -1.6636515
1956 -1.6969315
1954 -1.6865513
1952 -1.6323348
1950 -1.5619459
1948 -1.5138671
1946 -1.481075
1944 -1.4842794
1942 -1.5222685
1940 -1.6019838
1938 -1.6843708
1936 -1.7305515
1934 -1.7242266
1932 -1.6486
1930 -1.5462762
1928 -1.4481817
1926 -1.3810643
1924 -1.3621083
1922 -1.4025462
1920 -1.485384
1918 -1.6110131
1916 -1.7512472
1914 -1.8314835
1912 -1.8647623
1910 -1.8482952
1908 -1.8099351
1906 -1.838495
1904 -1.9031479
1902 -1.9768397
1900 -2.0484717
1898 -1.9958698
1896 -1.8838857
1894 -1.6634749
1892 -1.4127328
1890 -1.220971
1888 -1.1021892
1886 -1.17557
1884 -1.3386889
1882 -1.55179
1880 -1.7251772
1878 -1.7755622
1876 -1.70908
1874 -1.530355
1872 -1.2688479
1870 -0.95307857
1868 -0.7272017
1866 -0.60515773
1864 -0.69420445
1862 -0.94784582
1860 -1.2378923
1858 -1.533206
1856 -1.7761228
1854 -1.9898369
1852 -2.1713834
1850 -2.3465075
1848 -2.4408321
1846 -2.5022357
1844 -2.3900769
1842 -2.1989901
1840 -1.9135674
1838 -1.5813059
1836 -1.2976943
1834 -1.0210692
1832 -0.74176913
1830 -0.48115951
1828 -0.26819417
1826 -0.16516757
1824 -0.2444827
1822 -0.43171155
1820 -0.69264936
1818 -0.93290168
1816 -1.1184114
1814 -1.2201427
1812 -1.2439469
1810 -1.2041534
1808 -1.1108475
1806 -0.97597897
1804 -0.81116319
1802 -0.66000479
1800 -0.54088646
1798 -0.44674504
1796 -0.37094501
1794 -0.23900028
1792 -0.048790321
1790 0.082090467
1788 0.19036444
1786 0.22121435
1784 0.22170897
1782 0.24235873
1780 0.28490686
1778 0.34283268
1776 0.43162316
1774 0.61181599
1772 0.8156507
1770 1.0189332
1768 1.0992835
1766 0.91864854
1764 0.62241179
1762 0.29220229
1760 0.067787968
1758 -0.15730068
1756 -0.31164372
1754 -0.31087109
1752 -0.14911237
1750 0.12505609
1748 0.38262233
1746 0.5978536
1744 0.5603193
1742 0.32370734
1740 0.1299503
1738 -0.0020904094
1736 0.1452408
1734 0.47903493
1732 0.63716555
1730 0.65608978
1728 0.36946937
1726 -0.067848086
1724 -0.32212651
1722 -0.35404491
1720 0.084223062
1718 0.88916284
1716 1.9678514
1714 2.9851556
1712 3.5403342
1710 3.8523378
1708 4.1057639
1706 4.6036735
1704 5.5626874
1702 7.1694398
1700 9.5036907
1698 12.551956
1696 16.282429
1694 20.02507
1692 23.472635
1690 26.627459
1688 29.499081
1686 32.892784
1684 36.879959
1682 41.361294
1680 46.230721
1678 50.394867
1676 53.935158
1674 57.532471
1672 61.224823
1670 65.418091
1668 69.927025
1666 74.141098
1664 78.11676
1662 81.887863
1660 85.496933
1658 88.969055
1656 92.297256
1654 95.436409
1652 98.254318
1650 100.63116
1648 101.82949
1646 101.38322
1644 99.689682
1642 97.164093
1640 94.282547
1638 91.319992
1636 88.018173
1634 84.335381
1632 80.495026
1630 76.613098
1628 72.788643
1626 69.009789
1624 64.905403
1622 60.454834
1620 55.952652
1618 51.446064
1616 47.238342
1614 43.366295
1612 39.964134
1610 37.042519
1608 34.50119
1606 32.293503
1604 30.233305
1602 28.355772
1600 26.713749
1598 25.36677
1596 24.355
1594 23.655834
1592 23.203915
1590 22.943857
1588 22.802469
1586 22.79747
1584 22.913628
1582 23.184631
1580 23.599903
1578 24.200665
1576 24.996628
1574 25.921362
1572 26.978764
1570 28.051426
1568 29.124081
1566 30.18693
1564 31.231203
1562 32.387352
1560 33.729126
1558 35.862797
1556 38.765312
1554 41.847878
1552 44.96067
1550 47.284195
1548 48.902775
1546 50.245605
1544 51.33305
1542 52.327286
1540 52.9706
1538 53.106762
1536 52.678684
1534 51.694206
1532 50.505116
1530 49.340363
1528 48.231544
1526 47.202198
1524 46.109451
1522 44.904129
1520 43.413975
1518 41.63073
1516 39.742058
1514 37.782898
1512 35.805481
1510 33.734192
1508 31.197174
1506 28.062042
1504 24.988119
1502 22.105
1500 19.71368
1498 17.87068
1496 16.044571
1494 14.215611
1492 12.381002
1490 10.510159
1488 8.5934458
1486 6.6371326
1484 4.6680942
1482 2.8851027
1480 1.4896412
1478 0.55872536
1476 0.13364269
1474 0.17109138
1472 0.72184551
1470 1.42047
1468 1.98666
1466 2.4544437
1464 2.7461727
1462 3.0621746
1460 3.4740119
1458 4.0050478
1456 4.7249398
1454 5.3557291
1452 5.8654275
1450 6.1269493
1448 6.0445013
1446 5.8558431
1444 5.5249276
1442 5.2309861
1440 4.9774661
1438 4.7926579
1436 4.6311512
1434 4.4083633
1432 4.0744653
1430 3.6205614
1428 3.1210959
1426 2.6862471
1424 2.3858178
1422 2.283571
1420 2.3611207
1418 2.6381977
1416 3.0051401
1414 3.3739781
1412 3.7270651
1410 3.9665759
1408 4.1805029
1406 4.3898921
1404 4.6343808
1402 4.984683
1400 5.3578119
1398 5.7635179
1396 6.0978427
1394 6.3144989
1392 6.4426508
1390 6.472229
1388 6.4267025
1386 6.2686501
1384 6.0032344
1382 5.5945411
1380 5.1587062
1378 4.6963921
1376 4.2954373
1374 3.943428
1372 3.6597061
1370 3.4378719
1368 3.2236509
1366 3.0038915
1364 2.687335
1362 2.265738
1360 1.7434851
1358 1.1990288
1356 0.72617984
1354 0.36400086
1352 0.1562632
1350 0.02951047
1348 -0.022069544
1346 -0.055501141
1344 -0.010880681
1342 0.091105431
1340 0.28872514
1338 0.48795855
1336 0.69376516
1334 0.80994314
1332 0.83499491
1330 0.82975262
1328 0.79876679
1326 0.82777399
1324 0.92478728
1322 1.1140487
1320 1.3948754
1318 1.7315184
1316 2.0943201
1314 2.3978043
1312 2.6318874
1310 2.7400465
1308 2.7752068
1306 2.7739699
1304 2.775147
1302 2.8289039
1300 2.9099126
1298 3.0253839
1296 3.1356857
1294 3.221591
1292 3.2766242
1290 3.2737601
1288 3.251044
1286 3.2039027
1284 3.1684556
1282 3.1774123
1280 3.1980753
1278 3.2477434
1276 3.2952671
1274 3.330086
1272 3.3738675
1270 3.4277918
1268 3.510452
1266 3.6439865
1264 3.8119457
1262 4.039216
1260 4.3172598
1258 4.656085
1256 5.0469346
1254 5.4833083
1252 5.9390345
1250 6.4074926
1248 6.8752384
1246 7.3336248
1244 7.7730603
1242 8.1833448
1240 8.5291872
1238 8.821991
1236 8.9961004
1234 9.1124105
1232 9.1076603
1230 9.0765333
1228 8.9963884
1226 8.9025869
1224 8.7677402
1222 8.5835276
1220 8.2805071
1218 7.922471
1216 7.4584317
1214 6.9785385
1212 6.4746556
1210 5.9842801
1208 5.5152416
1206 5.0620451
1204 4.6249299
1202 4.173377
1200 3.7017584
1198 3.1989186
1196 2.6813715
1194 2.2014134
1192 1.7664977
1190 1.431906
1188 1.1495676
1186 0.90300304
1184 0.67182732
1182 0.4565641
1180 0.28275168
1178 0.25858751
1176 0.29503199
1174 0.49142599
1172 0.68959594
1170 0.86041611
1168 0.98660135
1166 0.97956353
1164 0.93719602
1162 0.80870861
1160 0.66806746
1158 0.5060938
1156 0.36709213
1154 0.27191901
1152 0.23272458
1150 0.26134595
1148 0.2784754
1146 0.27285999
1144 0.20530966
1142 0.095828682
1140 0.030393718
1138 0.0088779442
1136 0.068005711
1134 0.1815165
1132 0.38260013
1130 0.64527905
1128 1.053081
1126 1.5132557
1124 2.0372427
1122 2.535872
1120 2.8428359
1118 3.0955033
1116 3.1543572
1114 3.2150283
1112 3.2965217
1110 3.3846073
1108 3.4887996
1106 3.5447402
1104 3.4802365
1102 3.3800063
1100 3.2238996
1098 3.1633055
1096 3.2656
1094 3.5064445
1092 3.9187799
1090 4.359673
1088 4.8206892
1086 5.2252011
1084 5.5707192
1082 5.8045006
1080 5.9567995
1078 6.0060511
1076 6.0090427
1074 6.0142646
1072 6.028522
1070 6.0964174
1068 6.1800966
1066 6.2869692
1064 6.3856678
1062 6.4009776
1060 6.3868122
1058 6.2102447
1056 6.0300231
1054 5.8383393
1052 5.6962485
1050 5.7134647
1048 5.7789083
1046 5.9575248
1044 6.1180902
1042 6.239573
1040 6.2808428
1038 6.1982427
1036 6.0123997
1034 5.7008429
1032 5.2984343
1030 4.815402
1028 4.3401728
1026 3.8866663
1024 3.6084211
1022 3.4319589
1020 3.361196
1018 3.312501
1016 3.0563316
1014 2.7264068
1012 2.1973934
1010 1.6489522
1008 1.264468
1006 0.92223257
1004 0.91888571
1002 0.93086207
1000 1.0268502
998 1.0718315
996 0.89207208
994 0.67842352
992 0.36673862
990 0.13317464
988 0.081911042
986 0.094818234
984 0.21626498
982 0.33083084
980 0.43558699
978 0.5521726
976 0.680942
974 0.79804885
972 0.90327269
970 0.95744759
968 0.97817564
966 0.97378647
964 0.9568035
962 0.92126691
960 0.88136524
958 0.85455859
956 0.83165288
954 0.81662661
952 0.795816
950 0.60718417
948 0.40991563
946 0.18443893
944 0.0016250387
942 0.051592633
940 0.1841062
938 0.4704951
936 0.75398171
934 1.0292423
932 1.3497409
930 1.7673761
928 2.207171
926 2.6816542
924 3.1356781
922 3.5636885
920 3.9768641
918 4.3740959
916 4.6072898
914 4.7226105
912 4.6211004
910 4.4030123
908 4.2145429
906 4.0342927
904 4.0195446
902 4.0452352
900 4.1698985
898 4.3094316
896 4.5411
