Image.
>Pix99999.
  .
5555
5555
2300
900
5555
2
1
0
701
5555
-1.9191001e-002
-1.9590428e-002
-1.9989856e-002
-2.0389287e-002
-2.0788714e-002
-2.1187151e-002
-2.1586571e-002
-2.1986000e-002
-2.2385430e-002
-2.2784857e-002
-2.3183301e-002
-2.3582714e-002
-2.3982143e-002
-2.4381572e-002
-2.4781000e-002
-2.5180427e-002
-2.5578881e-002
-2.5978286e-002
-2.6377715e-002
-2.6777143e-002
-2.7176570e-002
-2.7575031e-002
-2.7974429e-002
-2.8373858e-002
-2.8773285e-002
-2.9172713e-002
2.4865875e-002
1.0395385e-003
-5.3699519e-002
-1.5068507e-001
-2.5364327e-001
-3.2808563e-001
-3.9772919e-001
-4.0603638e-001
-4.0456793e-001
-3.4814501e-001
-2.9396662e-001
-2.6248211e-001
-2.5805229e-001
-3.3213916e-001
-4.0087944e-001
-4.4829282e-001
-4.3948501e-001
-3.4103534e-001
-2.5176844e-001
-1.8084100e-001
-1.8506689e-001
-2.6065373e-001
-3.3673611e-001
-4.0972769e-001
-4.4874144e-001
-4.6825182e-001
-5.0127643e-001
-5.4077291e-001
-5.4683620e-001
-5.4189318e-001
-4.4195199e-001
-3.2033408e-001
-1.9655760e-001
-7.4186496e-002
-7.8957453e-002
-1.0066299e-001
-1.8168466e-001
-2.5211450e-001
-2.2933657e-001
-1.6798186e-001
1.1209529e-003
1.7226283e-001
3.2107431e-001
3.9942157e-001
3.4834400e-001
2.2928104e-001
3.1112179e-002
-1.3608879e-001
-2.5907075e-001
-2.9464465e-001
-2.5701046e-001
-1.8174440e-001
-8.5527495e-002
-1.4347115e-002
4.1994378e-002
6.5939605e-002
7.6647855e-002
7.0591584e-002
5.9521083e-002
1.4203710e-002
-3.8899671e-002
-1.0751647e-001
-1.7664573e-001
-2.1082489e-001
-2.4056086e-001
-2.7518061e-001
-3.1345451e-001
-3.6541042e-001
-3.9792079e-001
-3.6558458e-001
-3.0118984e-001
-1.8692076e-001
-8.5419439e-002
-1.7588001e-002
1.3404628e-002
2.9484276e-003
-3.8136952e-003
-4.7660209e-004
5.0874375e-002
1.4019680e-001
2.1836531e-001
2.8553048e-001
2.3962063e-001
1.3526370e-001
-6.4930711e-003
-1.6076694e-001
-1.6389880e-001
-1.1762662e-001
7.4786998e-002
3.0099064e-001
4.4995400e-001
5.7025391e-001
5.4568475e-001
4.9096870e-001
4.2730373e-001
3.7267810e-001
3.5899428e-001
3.4252343e-001
3.0050457e-001
2.3317499e-001
1.2760800e-001
2.6065312e-002
-6.0313143e-002
-1.2039382e-001
-1.5480828e-001
-1.7390846e-001
-1.8231240e-001
-1.6864410e-001
-1.3761006e-001
-8.8329993e-002
-2.8157102e-002
4.8079891e-003
2.3403741e-002
2.3287616e-003
-3.5690136e-002
-5.3416990e-002
-6.5381914e-002
-5.4374319e-002
-3.9230347e-002
-4.0623557e-002
-4.8777603e-002
-6.9408201e-002
-1.0096739e-001
-1.5880561e-001
-2.3533785e-001
-3.4372947e-001
-4.5489731e-001
-5.6141388e-001
-6.4466798e-001
-6.9844866e-001
-7.4455196e-001
-7.8942889e-001
-8.5251957e-001
-9.3267041e-001
-9.7493082e-001
-9.7648388e-001
-8.4755307e-001
-6.2343866e-001
-3.9740598e-001
-1.8159129e-001
-2.1262757e-001
-3.7547356e-001
-6.3742238e-001
-9.3620509e-001
-1.0785029e+000
-1.1613839e+000
-1.1467555e+000
-1.1078196e+000
-1.0981741e+000
-1.1092501e+000
-1.1868839e+000
-1.2729657e+000
-1.3423206e+000
-1.3833126e+000
-1.3698601e+000
-1.3573325e+000
-1.3697339e+000
-1.4080833e+000
-1.4664874e+000
-1.4554372e+000
-1.3401301e+000
-1.0833887e+000
-7.0872951e-001
-3.7231690e-001
-1.0599221e-001
-3.8385745e-003
-1.4098393e-002
-1.0207961e-001
-2.2335613e-001
-3.8824815e-001
-5.7583481e-001
-7.1481591e-001
-8.3269906e-001
-7.9447299e-001
-6.9235569e-001
-5.3256685e-001
-3.6320654e-001
-2.9447871e-001
-2.8932703e-001
-4.0730593e-001
-5.7504451e-001
-7.5807154e-001
-9.2986602e-001
-1.0550601e+000
-1.1449000e+000
-1.1827729e+000
-1.1640999e+000
-1.0764148e+000
-9.4367403e-001
-8.0108148e-001
-7.3264045e-001
-7.6302481e-001
-8.6939287e-001
-1.0139580e+000
-1.1284200e+000
-1.2048471e+000
-1.2283900e+000
-1.2136909e+000
-1.1622360e+000
-1.0836179e+000
-1.0219365e+000
-9.6572608e-001
-9.9089730e-001
-1.0628315e+000
-1.1568928e+000
-1.2560910e+000
-1.2775698e+000
-1.2135247e+000
-9.8232216e-001
-6.7894071e-001
-4.1394621e-001
-2.7916124e-001
-3.8456678e-001
-6.2486863e-001
-9.1614002e-001
-1.1727077e+000
-1.3431112e+000
-1.4175102e+000
-1.4149537e+000
-1.3104850e+000
-1.1252646e+000
-9.1879618e-001
-7.0429921e-001
-5.6893331e-001
-4.9590358e-001
-4.0940744e-001
-3.1631321e-001
-1.5480894e-001
3.5951167e-002
1.5526022e-001
2.2239280e-001
2.5137633e-001
2.6547137e-001
3.5625300e-001
4.8752058e-001
6.2080383e-001
7.1187985e-001
6.2008518e-001
4.4737285e-001
2.6823387e-001
1.3087074e-001
1.0954261e-001
4.6482686e-002
-1.5198290e-001
-3.2277799e-001
-3.7803492e-001
-1.4000155e-001
4.1908276e-001
1.0985328e+000
1.7930071e+000
2.1464670e+000
2.1511679e+000
1.9261389e+000
1.5737672e+000
1.4261800e+000
1.4646698e+000
1.5515654e+000
1.6380168e+000
1.3514485e+000
8.0688322e-001
3.1725240e-001
-5.9764490e-002
5.7052121e-002
6.5253270e-001
1.8018482e+000
3.1964464e+000
4.3361368e+000
5.1916347e+000
5.7541223e+000
6.3469510e+000
7.3112903e+000
9.0186749e+000
1.1651429e+001
1.5135344e+001
1.9235428e+001
2.2967840e+001
2.5974335e+001
2.8538979e+001
3.0890760e+001
3.3985420e+001
3.7885452e+001
4.2484863e+001
4.7570080e+001
5.1860615e+001
5.5419685e+001
5.8917778e+001
6.2466984e+001
6.6668770e+001
7.1372841e+001
7.6086998e+001
8.0730591e+001
8.5089966e+001
8.9121750e+001
9.2743225e+001
9.5933197e+001
9.8684776e+001
1.0089794e+002
1.0247322e+002
1.0302852e+002
1.0221714e+002
1.0041441e+002
9.8067764e+001
9.5310699e+001
9.2316490e+001
8.8678787e+001
8.4293564e+001
7.9700287e+001
7.5101990e+001
7.0808205e+001
6.6866249e+001
6.2805321e+001
5.8574776e+001
5.4343384e+001
5.0133030e+001
4.6083485e+001
4.2219376e+001
3.8746490e+001
3.5694851e+001
3.3162811e+001
3.1129042e+001
2.9430691e+001
2.8054916e+001
2.6910669e+001
2.5977243e+001
2.5191000e+001
2.4554327e+001
2.4042772e+001
2.3688131e+001
2.3497169e+001
2.3492214e+001
2.3679213e+001
2.4040890e+001
2.4563280e+001
2.5279045e+001
2.6188599e+001
2.7279345e+001
2.8516884e+001
2.9737087e+001
3.0894281e+001
3.1939163e+001
3.2876312e+001
3.3995129e+001
3.5384560e+001
3.7495277e+001
4.0364502e+001
4.3246082e+001
4.5967293e+001
4.8033180e+001
4.9486397e+001
5.0855358e+001
5.2142555e+001
5.3362560e+001
5.4250660e+001
5.4307758e+001
5.3518658e+001
5.2017838e+001
5.0144470e+001
4.8396370e+001
4.6790314e+001
4.5332249e+001
4.3861427e+001
4.2251923e+001
4.0461922e+001
3.8403896e+001
3.6364799e+001
3.4450718e+001
3.2535000e+001
3.0646925e+001
2.8282320e+001
2.5299751e+001
2.2247355e+001
1.9149473e+001
1.6568260e+001
1.4570300e+001
1.2662000e+001
1.0866140e+001
9.1158142e+000
7.4556637e+000
5.9176693e+000
4.5063729e+000
3.1780620e+000
1.9734200e+000
9.9433631e-001
3.1827798e-001
5.2192125e-002
2.8380561e-001
9.2400312e-001
1.6970531e+000
2.4011307e+000
2.9804807e+000
3.4363418e+000
3.9111636e+000
4.4907203e+000
5.1004057e+000
5.7092600e+000
6.1535163e+000
6.3025851e+000
6.3386912e+000
6.2095470e+000
6.0362964e+000
5.8024631e+000
5.5203071e+000
5.1941743e+000
4.8755574e+000
4.5805001e+000
4.2598743e+000
3.9171762e+000
3.5441906e+000
3.1614659e+000
2.8799915e+000
2.7208834e+000
2.7132957e+000
2.8583412e+000
3.1118553e+000
3.4362800e+000
3.7808640e+000
4.0889835e+000
4.3560729e+000
4.6096544e+000
4.8787971e+000
5.1871786e+000
5.5393453e+000
5.8914161e+000
6.2182989e+000
6.4660711e+000
6.5557714e+000
6.5600071e+000
6.3859391e+000
6.1583948e+000
5.8399248e+000
5.4887981e+000
5.0979552e+000
4.7058902e+000
4.3195610e+000
3.9277198e+000
3.5533688e+000
3.1886442e+000
2.8536277e+000
2.5915394e+000
2.3691852e+000
2.1606820e+000
1.9333073e+000
1.6177480e+000
1.2554770e+000
8.7321055e-001
5.1351112e-001
2.5450397e-001
6.6784218e-002
-2.5710084e-002
-6.5184787e-002
-1.6326200e-002
7.6981857e-002
2.5210273e-001
4.0229130e-001
4.8147658e-001
5.1999581e-001
4.4562835e-001
3.9590260e-001
3.8874158e-001
4.4048464e-001
6.0567814e-001
8.4328341e-001
1.1808742e+000
1.5264210e+000
1.8559799e+000
2.0791020e+000
2.1866462e+000
2.2302783e+000
2.2186694e+000
2.2121892e+000
2.1908727e+000
2.1258800e+000
2.0374873e+000
1.9218726e+000
1.8252715e+000
1.7914524e+000
1.7947743e+000
1.8524683e+000
1.9083760e+000
1.9352329e+000
1.9510924e+000
1.9383910e+000
1.9435668e+000
1.9880154e+000
2.0553927e+000
2.1747770e+000
2.3118646e+000
2.4859750e+000
2.6777127e+000
2.8905370e+000
3.1106381e+000
3.3338828e+000
3.5605218e+000
3.7961512e+000
4.0559115e+000
4.3426409e+000
4.6624589e+000
5.0040159e+000
5.3524318e+000
5.6944752e+000
5.9949403e+000
6.2577796e+000
6.4410601e+000
6.5797710e+000
6.6457558e+000
6.6798058e+000
6.6567197e+000
6.6055999e+000
6.4832425e+000
6.3199029e+000
6.0423608e+000
5.7116337e+000
5.2524099e+000
4.7586551e+000
4.1970887e+000
3.6305518e+000
3.0600066e+000
2.5055194e+000
1.9822125e+000
1.5107535e+000
1.1055453e+000
7.5546288e-001
4.4979149e-001
1.2371516e-001
-2.3399857e-001
-6.6874278e-001
-1.1473068e+000
-1.6267630e+000
-2.0732765e+000
-2.3826928e+000
-2.6020160e+000
-2.6361904e+000
-2.5903113e+000
-2.3861175e+000
-2.1379399e+000
-1.7978538e+000
-1.4648902e+000
-1.1828443e+000
-9.2080712e-001
-7.2001243e-001
-4.9909806e-001
-2.2923830e-001
4.6691179e-002
3.2620656e-001
5.4491442e-001
6.5844285e-001
7.0513475e-001
6.6297311e-001
5.9264100e-001
4.8980463e-001
3.6762473e-001
2.3184249e-001
1.1287714e-001
2.6528116e-002
5.3795688e-002
1.6480331e-001
4.3957970e-001
7.8668082e-001
1.1862223e+000
1.5964450e+000
1.9894283e+000
2.3669786e+000
2.6780801e+000
2.9560597e+000
3.0899701e+000
3.2181759e+000
3.3347406e+000
3.4754019e+000
3.6882827e+000
3.8745251e+000
3.9915576e+000
4.0719452e+000
4.0872240e+000
4.1402435e+000
4.2642570e+000
4.4904575e+000
4.8567801e+000
5.3472285e+000
5.9618430e+000
6.6156235e+000
7.2866149e+000
7.8676476e+000
8.3680954e+000
8.6684818e+000
8.8408031e+000
8.7375727e+000
8.5296793e+000
8.2179899e+000
7.9116545e+000
7.8142028e+000
7.7810640e+000
8.0250883e+000
8.2992258e+000
8.6781578e+000
9.0461512e+000
9.3637981e+000
9.6479015e+000
9.8234491e+000
9.9568510e+000
9.9863110e+000
9.9816275e+000
9.9101934e+000
9.8106279e+000
9.6713657e+000
9.5446701e+000
9.4403667e+000
9.4152298e+000
9.4594145e+000
9.4899454e+000
9.4930992e+000
9.3055954e+000
9.0018005e+000
8.5248289e+000
7.9773045e+000
7.3943458e+000
6.8012528e+000
6.2011199e+000
5.5985632e+000
4.9799442e+000
4.3738098e+000
3.9292598e+000
3.5209846e+000
3.3495679e+000
3.1825807e+000
3.0324142e+000
2.8503809e+000
2.5678902e+000
2.2660282e+000
1.9182017e+000
1.5427394e+000
1.1203206e+000
6.8945634e-001
2.5521302e-001
-6.4806879e-002
-2.5954285e-001
-3.1235772e-001
-2.5223905e-001
-1.8497786e-001
-1.1427595e-001
-7.5529456e-002
-4.7349472e-002
5.2830532e-002
1.8058142e-001
4.1427422e-001
6.6496098e-001
8.0115169e-001
9.0934563e-001
6.8026137e-001
4.3736327e-001
1.9373170e-001
3.5704388e-003
8.1745237e-003
2.6016903e-001
6.1856389e-001
8.6576545e-001
7.8881323e-001
7.2881365e-001
7.0968866e-001
8.9105248e-001
1.3914021e+000
1.8518680e+000
2.2607903e+000
2.4612200e+000
2.4676979e+000
2.4417973e+000
2.3935456e+000
2.4130514e+000
2.4700129e+000
2.5312648e+000
2.5964093e+000
2.5696211e+000
2.5209951e+000
2.4965432e+000
2.4769320e+000
2.6389999e+000
