##TITLE=Methyl Ethyl Ketone
##JCAMP-DX=4.24
##DATA TYPE=INFRARED SPECTRUM
##XUNITS=cm-1
##YUNITS=Absorbance
##FIRSTX=900
##LASTX=2300
##XYDATA=(X++(Y..Y))
2296 -0.045386001
2294 -0.046330649
2292 -0.047275294
2290 -0.048218951
2288 -0.049163595
2286 -0.050107248
2284 -0.051051889
2282 -0.051995549
2280 -0.05294019
2278 -0.053883851
2276 -0.054828484
2274 -0.055773135
2272 -0.0567168
2270 -0.057658486
2268 -0.058605038
2266 -0.059559513
2264 -0.060493629
2262 -0.061401922
2260 -0.06238075
2258 -0.063459605
2256 -0.064273909
2254 -0.064718947
2252 -0.066143207
2250 -0.068948254
2248 -0.068112984
2246 -0.05369189
2244 -0.0019744772
2242 0.1004116
2240 0.2097232
2238 0.27662802
2236 0.294204
2234 0.27221003
2232 0.23825623
2230 0.22274922
2228 0.2471016
2226 0.321872
2224 0.42459062
2222 0.52411497
2220 0.59317738
2218 0.61311007
2216 0.59480745
2214 0.55755508
2212 0.51895082
2210 0.49540889
2208 0.5011704
2206 0.54716313
2204 0.63353485
2202 0.75090379
2200 0.86448878
2198 0.93768555
2196 0.95810783
2194 0.92822218
2192 0.87970722
2190 0.8473109
2188 0.84137934
2186 0.86078018
2184 0.88985759
2182 0.91355085
2180 0.93760735
2178 0.9736563
2176 1.0293705
2174 1.105868
2172 1.1825154
2170 1.235528
2168 1.2569085
2166 1.2478957
2164 1.2250628
2162 1.2070655
2160 1.200976
2158 1.2094241
2156 1.23182
2154 1.2652906
2152 1.3016354
2150 1.3302113
2148 1.3391812
2146 1.3202571
2144 1.2809057
2142 1.235816
2140 1.2067196
2138 1.2139908
2136 1.26366
2134 1.3518733
2132 1.4553883
2130 1.545442
2128 1.598404
2126 1.5984893
2124 1.5537552
2122 1.4842858
2120 1.4242418
2118 1.4064257
2116 1.4382757
2114 1.51193
2112 1.5981131
2110 1.6661377
2108 1.7109003
2106 1.7393172
2104 1.7663697
2102 1.8042126
2100 1.843842
2098 1.8699198
2096 1.8764714
2094 1.8649344
2092 1.8515379
2090 1.8538642
2088 1.8726503
2086 1.8990051
2084 1.9121797
2082 1.8930449
2080 1.847268
2078 1.7921512
2076 1.7532257
2074 1.7542472
2072 1.799096
2070 1.880775
2068 1.9800375
2066 2.0723994
2064 2.1295984
2062 2.1274226
2060 2.0638573
2058 1.950887
2056 1.8209286
2054 1.71145
2052 1.6463994
2050 1.6373243
2048 1.6697561
2046 1.7176071
2044 1.752002
2042 1.7494142
2040 1.7119726
2038 1.6546493
2036 1.5992029
2034 1.5660149
2032 1.5592394
2030 1.573318
2028 1.5911734
2026 1.5943578
2024 1.5764936
2022 1.540109
2020 1.5003462
2018 1.4746281
2016 1.4674
2014 1.4744462
2012 1.4826177
2010 1.4761633
2008 1.4447908
2006 1.3843164
2004 1.3039408
2002 1.219329
2000 1.1467731
1998 1.0995123
1996 1.0782071
1994 1.0759765
1992 1.0778657
1990 1.0664222
1988 1.027532
1986 0.95344692
1984 0.85549515
1982 0.75529128
1980 0.67927974
1978 0.65050918
1976 0.6700089
1974 0.72594815
1972 0.79791003
1970 0.86301666
1968 0.90280092
1966 0.90365905
1964 0.8625809
1962 0.78511655
1960 0.69171804
1958 0.60760224
1956 0.54779673
1954 0.51947874
1952 0.52042359
1950 0.54180384
1948 0.56527752
1946 0.56986499
1944 0.54297316
1942 0.48241001
1940 0.41058233
1938 0.35784262
1936 0.33493972
1934 0.33939883
1932 0.36040038
1930 0.38748431
1928 0.42712161
1926 0.49350959
1924 0.59408689
1922 0.72536373
1920 0.85541946
1918 0.94235742
1916 0.96619856
1914 0.92612022
1912 0.84724855
1910 0.76232892
1908 0.67993414
1906 0.59500515
1904 0.5063284
1902 0.41884676
1900 0.34959424
1898 0.31730944
1896 0.31990999
1894 0.34185418
1892 0.36295673
1890 0.36465311
1888 0.34232888
1886 0.30017951
1884 0.2453568
1882 0.18515547
1880 0.12331526
1878 0.061887842
1876 0.0050865998
1874 -0.040559717
1872 -0.064833544
1870 -0.058786962
1868 -0.028086711
1866 0.010969028
1864 0.034389976
1862 0.019382909
1860 -0.0349994
1858 -0.11340961
1856 -0.18832915
1854 -0.22791612
1852 -0.20776945
1850 -0.11772719
1848 0.012094598
1846 0.1271074
1844 0.17191057
1842 0.10641392
1840 -0.050317071
1838 -0.24333709
1836 -0.42177102
1834 -0.54614604
1832 -0.59887022
1830 -0.5799098
1828 -0.50887477
1826 -0.41801322
1824 -0.34660286
1822 -0.32904816
1820 -0.36301121
1818 -0.42062458
1816 -0.46794772
1814 -0.47684264
1812 -0.45076302
1810 -0.41232282
1808 -0.37620509
1806 -0.34519899
1804 -0.30313703
1802 -0.22659937
1800 -0.11238021
1798 0.022638049
1796 0.13834321
1794 0.18917198
1792 0.16794799
1790 0.099408083
1788 0.027005836
1786 -0.0060048318
1784 -0.00010987278
1782 0.018634165
1780 0.05056344
1778 0.11264025
1776 0.19592285
1774 0.2678805
1772 0.28402552
1770 0.20889726
1768 0.074647129
1766 -0.041336801
1764 -0.07771188
1762 -0.014599215
1760 0.05938103
1758 0.012702838
1756 -0.13510327
1754 -0.25731641
1752 -0.28466687
1750 -0.21576992
1748 -0.094221368
1746 0.015288927
1744 0.066413775
1742 0.040849701
1740 -0.028679894
1738 -0.082204409
1736 -0.098679803
1734 -0.095393173
1732 -0.10864293
1730 -0.1738034
1728 -0.27779239
1726 -0.36826622
1724 -0.38804364
1722 -0.2788848
1720 0.031198502
1718 0.60596907
1716 1.4195553
1714 2.371135
1712 3.3427343
1710 4.2415681
1708 5.1064243
1706 6.0917821
1704 7.4062519
1702 9.2681923
1700 11.814159
1698 15.043592
1696 18.632429
1694 22.0562
1692 25.0301
1690 27.567129
1688 29.981264
1686 32.764122
1684 36.251934
1682 40.511326
1680 45.095718
1678 49.270641
1676 52.83363
1674 56.107624
1672 59.488987
1670 63.279911
1668 67.44001
1666 71.664055
1664 75.746483
1662 79.62056
1660 83.245911
1658 86.593681
1656 89.697624
1654 92.623482
1652 95.335762
1650 97.664848
1648 99.253563
1646 99.694534
1644 99.042107
1642 97.740646
1640 96.031944
1638 93.877296
1636 91.120186
1634 87.606087
1632 83.476776
1630 79.121201
1628 74.780258
1626 70.488853
1624 66.190399
1622 61.801765
1620 57.351578
1618 52.979366
1616 48.813686
1614 44.949917
1612 41.470024
1610 38.434898
1608 35.841496
1606 33.626358
1604 31.726955
1602 30.097538
1600 28.705841
1598 27.530466
1596 26.543499
1594 25.710094
1592 25.00783
1590 24.430212
1588 23.995024
1586 23.740101
1584 23.688538
1582 23.848299
1580 24.234194
1578 24.86569
1576 25.740286
1574 26.820553
1572 28.023294
1570 29.235901
1568 30.389641
1566 31.473501
1564 32.499096
1562 33.520123
1560 34.762829
1558 36.563831
1556 38.936829
1554 41.517838
1552 43.887024
1550 45.714699
1548 47.013081
1546 48.121212
1544 49.252602
1542 50.379189
1540 51.315922
1538 51.787575
1536 51.666599
1534 51.034073
1532 50.091633
1530 49.100597
1528 48.18845
1526 47.304001
1524 46.315121
1522 45.053383
1520 43.409176
1518 41.378464
1516 39.122856
1514 36.927505
1512 34.87608
1510 32.786842
1508 30.440788
1506 27.692114
1504 24.66852
1502 21.768419
1500 19.235086
1498 17.042671
1496 15.058286
1494 13.104705
1492 11.087391
1490 9.0270805
1488 6.9821429
1486 5.031002
1484 3.277992
1482 1.8454053
1480 0.81018329
1478 0.19488284
1476 0.050406747
1474 0.44498003
1472 1.2767849
1470 2.2455611
1468 3.1361425
1466 3.9070029
1464 4.6005974
1462 5.3013926
1460 6.0028067
1458 6.5709987
1456 6.8669
1454 6.8070912
1452 6.4593763
1450 6.0516057
1448 5.7145863
1446 5.4086752
1444 5.0873756
1442 4.7461538
1440 4.3980145
1438 4.0621433
1436 3.7305129
1434 3.36238
1432 2.9436748
1430 2.5089445
1428 2.115762
1426 1.8322142
1424 1.6934395
1422 1.6838428
1420 1.7684975
1418 1.904037
1416 2.0646713
1414 2.2525558
1412 2.4782701
1410 2.7538917
1408 3.0803263
1406 3.4423542
1404 3.820576
1402 4.1938925
1400 4.5374799
1398 4.8235703
1396 5.0363216
1394 5.1797385
1392 5.2683139
1390 5.3222089
1388 5.3418798
1386 5.2992001
1384 5.175138
1382 4.9750233
1380 4.7175632
1378 4.4302506
1376 4.1258831
1374 3.7942953
1372 3.4345939
1370 3.06656
1368 2.709789
1366 2.3736
1364 2.048784
1362 1.7049426
1360 1.3312315
1358 0.95475614
1356 0.61153746
1354 0.33542731
1352 0.14143954
1350 0.017385527
1348 -0.044145256
1346 -0.034195133
1344 0.05454617
1342 0.21648689
1340 0.41736352
1338 0.58546156
1336 0.66569942
1334 0.64891267
1332 0.56709522
1330 0.49833962
1328 0.50445032
1326 0.60128629
1324 0.78282225
1322 1.0239502
1320 1.2958908
1318 1.5715404
1316 1.82815
1314 2.050684
1312 2.2311873
1310 2.3712523
1308 2.4758551
1306 2.5521007
1304 2.6074519
1302 2.6487341
1300 2.6818995
1298 2.7116857
1296 2.7434287
1294 2.7834585
1292 2.8369575
1290 2.9064646
1288 2.991756
1286 3.0898008
1284 3.1992631
1282 3.3227766
1280 3.4614041
1278 3.6120203
1276 3.7704799
1274 3.9341331
1272 4.1076212
1270 4.3076363
1268 4.5504065
1266 4.8452058
1264 5.193716
1262 5.5874538
1260 6.0188918
1258 6.4873133
1256 6.9954972
1254 7.5493016
1252 8.1496811
1250 8.7870302
1248 9.4452705
1246 10.101425
1244 10.733634
1242 11.32567
1240 11.861908
1238 12.331134
1236 12.725114
1234 13.038357
1232 13.2676
1230 13.411369
1228 13.462886
1226 13.402757
1224 13.213822
1222 12.893899
1220 12.458055
1218 11.94926
1216 11.409286
1214 10.860298
1212 10.311134
1210 9.7555408
1208 9.18748
1206 8.6146984
1204 8.0429201
1202 7.4676638
1200 6.880372
1198 6.2708488
1196 5.6410928
1194 5.0182838
1192 4.4319139
1190 3.9018149
1188 3.4348233
1186 3.0162692
1184 2.6344178
1182 2.2951412
1180 2.0116513
1178 1.8020368
1176 1.6725401
1174 1.5999061
1172 1.5541849
1170 1.5065743
1168 1.4399457
1166 1.3616328
1164 1.2821218
1162 1.20564
1160 1.1300297
1158 1.043242
1156 0.93702281
1154 0.81655383
1152 0.68926454
1150 0.56002837
1148 0.43089199
1146 0.2996918
1144 0.17038846
1142 0.063515559
1140 0.0035801323
1138 0.013806097
1136 0.105394
1134 0.2623843
1132 0.46679473
1130 0.71167719
1128 0.99669039
1126 1.3298029
1124 1.7104454
1122 2.1128583
1120 2.506372
1118 2.8646829
1116 3.1770713
1114 3.4667816
1112 3.7587399
1110 4.0610065
1108 4.3721309
1106 4.6773801
1104 4.9624228
1102 5.2224703
1100 5.4607058
1098 5.6942644
1096 5.9440856
1094 6.2316389
1092 6.5699382
1090 6.9498272
1088 7.3527961
1086 7.7514977
1084 8.1186295
1082 8.4344034
1080 8.6844139
1078 8.8637791
1076 8.9745169
1074 9.0302973
1072 9.0508585
1070 9.0633078
1068 9.0897713
1066 9.1342611
1064 9.1890602
1062 9.2270784
1060 9.2224255
1058 9.1647635
1056 9.0490799
1054 8.875349
1052 8.6415958
1050 8.3384447
1048 7.962297
1046 7.5324426
1044 7.0788069
1042 6.6454859
1040 6.2683096
1038 5.9475465
1036 5.6652198
1034 5.3760462
1032 5.0367622
1030 4.6310439
1028 4.1610007
1026 3.6619329
1024 3.1747029
1022 2.7319109
1020 2.3564153
1018 2.0487142
1016 1.8042058
1014 1.6189202
1012 1.485906
1010 1.3869343
1008 1.297052
1006 1.1796507
1004 1.0058709
1002 0.77995992
1000 0.51803684
998 0.24753761
996 -0.0054172873
994 -0.2278395
992 -0.41155216
990 -0.55346668
988 -0.65301001
986 -0.71371371
984 -0.74061912
982 -0.74028814
980 -0.71632397
978 -0.66144049
976 -0.56587231
974 -0.42068112
972 -0.2229657
970 0.010480762
968 0.25480551
966 0.47465551
964 0.63881958
962 0.73928559
960 0.77850848
958 0.77514249
956 0.745709
954 0.68560022
952 0.58685958
950 0.44839543
948 0.28209755
946 0.13883893
944 0.057131659
942 -0.0025311187
940 -0.078986213
938 -0.1393237
936 -0.14344811
934 -0.090066269
932 0.0081518963
930 0.12262041
928 0.21730417
926 0.24369928
924 0.16923398
922 0.032410234
920 -0.11557223
918 -0.24267381
916 -0.33231929
914 -0.40866607
912 -0.50108451
910 -0.6197446
908 -0.76927125
906 -0.95130813
904 -1.1535087
902 -1.3118014
900 -1.3583235
898 -1.2614243
896 -0.99873
