##TITLE=Methyl Ethyl Ketone
##JCAMP-DX=4.24
##DATA TYPE=INFRARED SPECTRUM
##XUNITS=cm-1
##YUNITS=Absorbance
##FIRSTX=900
##LASTX=2300
##XYDATA=(X++(Y..Y))
2296 0.047974002
2294 0.048971575
2292 0.049970143
2290 0.050967719
2288 0.051966287
2286 0.052963868
2284 0.053961437
2282 0.054960001
2280 0.055957582
2278 0.056956142
2276 0.05795373
2274 0.058952287
2272 0.059949875
2270 0.060946468
2268 0.061945979
2266 0.06294848
2264 0.063942254
2262 0.064924128
2260 0.065937869
2258 0.06699717
2256 0.067936227
2254 0.068706021
2252 0.069923252
2250 0.071771525
2248 0.071956612
2246 0.066372
2244 0.046402358
2242 0.0067321393
2240 -0.039606269
2238 -0.077312984
2236 -0.10285565
2234 -0.1189825
2232 -0.14000629
2230 -0.17958978
2228 -0.23554114
2226 -0.297903
2224 -0.34433278
2222 -0.35358468
2220 -0.32347071
2218 -0.26364642
2216 -0.20895687
2214 -0.19391268
2212 -0.22156739
2210 -0.27910298
2208 -0.32798588
2206 -0.33204928
2204 -0.29573891
2202 -0.23664886
2200 -0.17479418
2198 -0.1235285
2196 -0.067103207
2194 0.013566472
2192 0.11420695
2190 0.22013476
2188 0.30483326
2186 0.34302008
2184 0.3291516
2182 0.26783752
2180 0.17895994
2178 0.087770492
2176 0.021709485
2174 0.0017240553
2172 0.019716842
2170 0.05664137
2168 0.087792076
2166 0.092353277
2164 0.072189033
2162 0.036130443
2160 -0.0097220344
2158 -0.059017718
2156 -0.0998381
2154 -0.11843178
2152 -0.1014284
2150 -0.042033255
2148 0.040241279
2146 0.12001918
2144 0.18523268
2142 0.2322167
2140 0.27164659
2138 0.3136647
2136 0.34588173
2134 0.34978256
2132 0.31519553
2130 0.23932768
2128 0.1364336
2126 0.02646005
2124 -0.072103329
2122 -0.14278118
2120 -0.17450714
2118 -0.16203637
2116 -0.116176
2114 -0.055725612
2112 -0.0083160084
2110 0.0010143418
2108 -0.029218184
2106 -0.086431123
2104 -0.13696671
2102 -0.14641212
2100 -0.1089842
2098 -0.034752458
2096 0.047216289
2094 0.10622817
2092 0.1335054
2090 0.13187048
2088 0.11578795
2086 0.10058145
2084 0.087484069
2082 0.070954204
2080 0.041106068
2078 -0.0075930003
2076 -0.056314219
2074 -0.078700617
2072 -0.058128919
2070 0.0098310458
2068 0.09694194
2066 0.16693456
2064 0.20484416
2062 0.20996848
2060 0.20189671
2058 0.2028928
2056 0.21279286
2054 0.22064407
2052 0.21122828
2050 0.17201078
2048 0.10751496
2046 0.030384036
2044 -0.043357842
2042 -0.099530689
2040 -0.13628268
2038 -0.15728942
2036 -0.16683228
2034 -0.16888215
2032 -0.1661981
2030 -0.16119841
2028 -0.15718828
2026 -0.15399401
2024 -0.13513446
2022 -0.082291894
2020 -0.00027507171
2018 0.091190301
2016 0.15494001
2014 0.15724815
2012 0.10971381
2010 0.044849925
2008 -0.0056539942
2006 -0.0192274
2004 -0.0051190704
2002 0.014249652
2000 0.022643967
1998 0.011336719
1996 -0.012553564
1994 -0.037729695
1992 -0.065807685
1990 -0.10458443
1988 -0.16015801
1986 -0.23457471
1984 -0.3176941
1982 -0.39556962
1980 -0.46262789
1978 -0.51530182
1976 -0.53953713
1974 -0.51817483
1972 -0.44388959
1970 -0.32274196
1968 -0.19583502
1966 -0.11381249
1964 -0.095330551
1962 -0.13360658
1960 -0.1862672
1958 -0.20314386
1956 -0.17224871
1954 -0.10630623
1952 -0.036069822
1950 0.0055340333
1948 0.0093296254
1946 -0.018093251
1944 -0.057276268
1942 -0.086270072
1940 -0.096963756
1938 -0.090892501
1936 -0.078186713
1934 -0.071733885
1932 -0.079387158
1930 -0.10376941
1928 -0.13772446
1926 -0.16844629
1924 -0.18013857
1922 -0.16262633
1920 -0.13544942
1918 -0.12898821
1916 -0.15033287
1914 -0.18890814
1912 -0.2184332
1910 -0.21373558
1908 -0.18700203
1906 -0.16884221
1904 -0.17726479
1902 -0.21550855
1900 -0.2609688
1898 -0.28019723
1896 -0.25234142
1894 -0.17366043
1892 -0.078712299
1890 -0.020955112
1888 -0.044366669
1886 -0.1713596
1884 -0.36192042
1882 -0.54531747
1880 -0.67137092
1878 -0.71559912
1876 -0.69929701
1874 -0.66383642
1872 -0.62712121
1870 -0.59017551
1868 -0.55151594
1866 -0.51306826
1864 -0.49120983
1862 -0.50455099
1860 -0.54322827
1858 -0.58012986
1856 -0.59168971
1854 -0.56345367
1852 -0.50365645
1850 -0.43540302
1848 -0.38795039
1846 -0.38752428
1844 -0.43627557
1842 -0.51879215
1840 -0.60917896
1838 -0.68004566
1836 -0.71950656
1834 -0.7253924
1832 -0.69297594
1830 -0.61979532
1828 -0.52593625
1826 -0.44572729
1824 -0.41131616
1822 -0.44348687
1820 -0.52557439
1818 -0.61780149
1816 -0.68410516
1814 -0.69947094
1812 -0.66548938
1810 -0.59992492
1808 -0.51739448
1806 -0.4298135
1804 -0.35509521
1802 -0.31247461
1800 -0.30680102
1798 -0.32730848
1796 -0.338635
1794 -0.2981469
1792 -0.2000656
1790 -0.066503197
1788 0.076104797
1786 0.20384422
1784 0.30265167
1782 0.36752984
1780 0.40405059
1778 0.42405581
1776 0.43831685
1774 0.45248255
1772 0.45601532
1770 0.4296551
1768 0.36541754
1766 0.26892507
1764 0.1647272
1762 0.082783304
1760 0.021538777
1758 -0.036563575
1756 -0.070777774
1754 -0.036931243
1752 0.074074358
1750 0.23483071
1748 0.38695809
1746 0.46171033
1744 0.42869172
1742 0.29975805
1740 0.1391063
1738 0.033783883
1736 0.016013399
1734 0.063155174
1732 0.11149117
1730 0.086328909
1728 -0.0243061
1726 -0.17357473
1724 -0.27930373
1722 -0.2405704
1720 0.039693028
1718 0.62401813
1716 1.44069
1714 2.3218782
1712 3.1338766
1710 3.8180232
1708 4.4693642
1706 5.2990074
1704 6.5245686
1702 8.337142
1700 10.861289
1698 14.103779
1696 17.762571
1694 21.33864
1692 24.544065
1690 27.37051
1688 30.157429
1686 33.457745
1684 37.654221
1682 42.819702
1680 48.403202
1678 53.514866
1676 57.971844
1674 62.260132
1672 66.855331
1670 71.996933
1668 77.359665
1666 82.227097
1664 86.197685
1662 89.247375
1660 91.511688
1658 93.192116
1656 94.423203
1654 95.254639
1652 95.674881
1650 95.629967
1648 95.050652
1646 93.897682
1644 92.316963
1642 90.585701
1640 88.831963
1638 87.00071
1636 84.930702
1634 82.422554
1632 79.412109
1630 75.962456
1628 72.106247
1626 67.833481
1624 63.17844
1622 58.244808
1620 53.227184
1618 48.377377
1616 43.873856
1614 39.807091
1612 36.228874
1610 33.157742
1608 30.547344
1606 28.298508
1604 26.33753
1602 24.63422
1600 23.196285
1598 22.058098
1596 21.236
1594 20.717531
1592 20.465378
1590 20.42676
1588 20.574121
1586 20.909407
1584 21.440073
1582 22.182421
1580 23.196514
1578 24.580889
1576 26.417171
1574 28.739973
1572 31.467871
1570 34.412655
1568 37.399998
1566 40.3004
1564 43.021774
1562 45.550648
1560 48.118736
1558 51.107319
1556 54.430641
1554 57.482399
1552 59.716824
1550 60.852844
1548 61.037773
1546 60.771
1544 60.282551
1542 59.420586
1540 57.981701
1538 55.849567
1536 53.20483
1534 50.507156
1532 48.075855
1530 45.98576
1528 44.181087
1526 42.509251
1524 40.770489
1522 38.758896
1520 36.390415
1518 33.747993
1516 31.054056
1514 28.601316
1512 26.44128
1510 24.332985
1508 22.047245
1506 19.485935
1504 16.789497
1502 14.313833
1500 12.253623
1498 10.547951
1496 9.0668001
1494 7.6750751
1492 6.30515
1490 4.9725709
1488 3.6942782
1486 2.4772413
1484 1.37748
1482 0.50782549
1480 -0.04568553
1478 -0.23921186
1476 -0.0012387037
1474 0.75741589
1472 1.9789582
1470 3.424444
1468 4.8798704
1466 6.2276044
1464 7.4454298
1462 8.6063757
1460 9.7939177
1458 11.059287
1456 12.348001
1454 13.482411
1452 14.287018
1450 14.644347
1448 14.553828
1446 14.14825
1444 13.567745
1442 12.91036
1440 12.222503
1438 11.4909
1436 10.682271
1434 9.7647886
1432 8.7680416
1430 7.800745
1428 6.9629164
1426 6.3130999
1424 5.8656492
1422 5.586163
1420 5.4332132
1418 5.3736119
1416 5.3937368
1414 5.504528
1412 5.7199588
1410 6.0475101
1408 6.474699
1406 6.9603453
1404 7.4472146
1402 7.8652101
1400 8.1494761
1398 8.2526388
1396 8.1617851
1394 7.9106932
1392 7.5537715
1390 7.1565924
1388 6.7632484
1386 6.3829799
1384 6.0207806
1382 5.6844082
1380 5.3696284
1378 5.0513611
1376 4.6881857
1374 4.2282748
1372 3.6593502
1370 3.0322545
1368 2.4068065
1366 1.8302078
1364 1.3207825
1362 0.85968554
1360 0.44111034
1358 0.092998855
1356 -0.14771365
1354 -0.24212699
1352 -0.15346742
1350 0.14553618
1348 0.64835125
1346 1.2983286
1344 2.029556
1342 2.778681
1340 3.4805322
1338 4.0669327
1336 4.4751968
1334 4.6581669
1332 4.6078973
1330 4.3755374
1328 4.0292645
1326 3.6419177
1324 3.2775428
1322 2.980484
1320 2.7697725
1318 2.6286485
1316 2.52547
1314 2.4194918
1312 2.2792399
1310 2.0939977
1308 1.8666523
1306 1.6162628
1304 1.3681302
1302 1.1517191
1300 0.9967317
1298 0.93120271
1296 0.97995716
1294 1.1612234
1292 1.4829434
1290 1.9354649
1288 2.494092
1286 3.1143858
1284 3.7460995
1282 4.3378344
1280 4.8458543
1278 5.2423577
1276 5.5153656
1274 5.676362
1272 5.7532964
1270 5.7937331
1268 5.8471966
1266 5.956625
1264 6.1543236
1262 6.4550271
1260 6.8680816
1258 7.4003105
1256 8.0592995
1254 8.8538733
1252 9.7882471
1250 10.855314
1248 12.032515
1246 13.26975
1244 14.504048
1242 15.659983
1240 16.665823
1238 17.461037
1236 17.99453
1234 18.225655
1232 18.12464
1230 17.67909
1228 16.902145
1226 15.845421
1224 14.572468
1222 13.157372
1220 11.685735
1218 10.267539
1216 9.0168371
1214 8.0405369
1212 7.4111681
1210 7.1286697
1208 7.1482911
1206 7.3673487
1204 7.663754
1202 7.9051595
1200 7.9723225
1198 7.7827625
1196 7.3008785
1194 6.5729671
1192 5.6832113
1190 4.7513957
1188 3.8839855
1186 3.1372828
1184 2.5358806
1182 2.0614674
1180 1.6907935
1178 1.4123806
1176 1.22032
1174 1.1137366
1172 1.087106
1170 1.1216979
1168 1.1976538
1166 1.2991965
1164 1.4107891
1162 1.514712
1160 1.5892268
1158 1.6050739
1156 1.5403929
1154 1.394832
1152 1.1858599
1150 0.9587369
1148 0.75403118
1146 0.5854668
1144 0.45113361
1142 0.32804587
1140 0.19273841
1138 0.034541652
1136 -0.13584715
1134 -0.26671189
1132 -0.31652468
1130 -0.29169655
1128 -0.2128436
1126 -0.10687187
1124 0.0016180351
1122 0.098033093
1120 0.1776236
1118 0.25346622
1116 0.33973587
1114 0.44156343
1112 0.55036139
1110 0.63059938
1108 0.65647882
1106 0.64345598
1104 0.62419283
1102 0.64731151
1100 0.74174392
1098 0.87778032
1096 1.0220429
1094 1.1692194
1092 1.333138
1090 1.5574366
1088 1.870976
1086 2.2453208
1084 2.6363246
1082 2.9951913
1080 3.2808056
1078 3.4741459
1076 3.5643885
1074 3.5479829
1072 3.4316325
1070 3.2454185
1068 3.0284441
1066 2.8282671
1064 2.685216
1062 2.6131685
1060 2.6095064
1058 2.6447914
1056 2.6875286
1054 2.7186108
1052 2.730402
1050 2.7382221
1048 2.7617154
1046 2.8168249
1044 2.9115865
1042 3.0347412
1040 3.1696537
1038 3.2982686
1036 3.40728
1034 3.4975295
1032 3.573935
1030 3.640893
1028 3.6908906
1026 3.6808829
1024 3.5599179
1022 3.2802889
1020 2.8217978
1018 2.2440848
1016 1.6308799
1014 1.0786173
1012 0.6685856
1010 0.42553446
1008 0.34029719
1006 0.34209806
1004 0.34223914
1002 0.24584363
1000 -0.003410846
998 -0.33602744
996 -0.65045786
994 -0.84398258
992 -0.85643047
990 -0.76364946
988 -0.66387254
986 -0.6185596
984 -0.65644485
982 -0.73003185
980 -0.783535
978 -0.7957204
976 -0.755858
974 -0.66001725
972 -0.51139891
970 -0.33162957
968 -0.14978676
966 -0.0042996332
964 0.075713634
962 0.10072293
960 0.088740245
958 0.049961865
956 -0.0092333928
954 -0.088598363
952 -0.17798761
950 -0.2278377
948 -0.19357099
946 -0.082503177
944 0.090440825
942 0.32866269
940 0.62246275
938 0.89914179
936 1.0858886
934 1.1667254
932 1.1518369
930 1.0955063
928 1.0604115
926 1.0980958
924 1.238996
922 1.4438099
920 1.6648228
918 1.8874964
916 2.10987
914 2.3457146
912 2.6030478
910 2.8515251
908 3.0635893
906 3.2605464
904 3.4770777
902 3.753124
900 4.108253
898 4.4761181
896 4.7684999
