##TITLE=Methyl Ethyl Ketone
##JCAMP-DX=4.24
##DATA TYPE=INFRARED SPECTRUM
##XUNITS=cm-1
##YUNITS=Absorbance
##FIRSTX=900
##LASTX=2300
##XYDATA=(X++(Y..Y))
2296 0.18767001
2294 0.19157441
2292 0.19547883
2290 0.19938323
2288 0.20328766
2286 0.20718215
2284 0.21108648
2282 0.2149909
2280 0.21889532
2278 0.22279972
2276 0.22670414
2274 0.2306184
2272 0.23451313
2270 0.23840757
2268 0.24232161
2266 0.24628493
2264 0.25013199
2262 0.25381061
2260 0.25793356
2258 0.26267081
2256 0.26577255
2254 0.26657781
2252 0.2734575
2250 0.28890285
2248 0.28177154
2246 0.22213858
2244 0.12269143
2242 0.010886101
2240 -0.074352995
2238 -0.1033332
2236 -0.096132956
2234 -0.081899323
2232 -0.069101311
2230 -0.061400205
2228 -0.06761571
2226 -0.093541153
2224 -0.12642041
2222 -0.15240528
2220 -0.17522772
2218 -0.20241842
2216 -0.23563001
2214 -0.26697907
2212 -0.257577
2210 -0.16937576
2208 -0.0055203573
2206 0.21056324
2204 0.42430884
2202 0.57994837
2200 0.6545949
2198 0.64076793
2196 0.55140644
2194 0.4086096
2192 0.24642687
2190 0.10001104
2188 -0.0057376651
2186 -0.056913543
2184 -0.070887603
2182 -0.072627082
2180 -0.077497743
2178 -0.093620844
2176 -0.11304443
2174 -0.12381293
2172 -0.11861899
2170 -0.095512956
2168 -0.067601591
2166 -0.052697092
2164 -0.067577638
2162 -0.12020727
2160 -0.184376
2158 -0.22563036
2156 -0.22298799
2154 -0.17000909
2152 -0.099820741
2150 -0.05235783
2148 -0.040083207
2146 -0.061649181
2144 -0.099525228
2142 -0.1350134
2140 -0.16668227
2138 -0.19489467
2136 -0.20177771
2134 -0.16649948
2132 -0.08357767
2130 0.036837138
2128 0.14359988
2126 0.18035342
2124 0.12952766
2122 -0.00054528192
2120 -0.15489548
2118 -0.27245474
2116 -0.33574528
2114 -0.34942669
2112 -0.3405925
2110 -0.33808675
2108 -0.34586859
2106 -0.356538
2104 -0.35561264
2102 -0.33055869
2100 -0.2866258
2098 -0.23605812
2096 -0.19156571
2094 -0.16120319
2092 -0.13385925
2090 -0.094133109
2088 -0.039643727
2086 0.023267902
2084 0.074491702
2082 0.095627159
2080 0.097156338
2078 0.10137936
2076 0.13094828
2074 0.20086439
2072 0.2957364
2070 0.38668472
2068 0.43992808
2066 0.42593366
2064 0.33908069
2062 0.18974599
2060 0.013800301
2058 -0.14561698
2056 -0.25742114
2054 -0.30305398
2052 -0.29330227
2050 -0.2506009
2048 -0.19536297
2046 -0.14236857
2044 -0.088918254
2042 -0.027280726
2040 0.040144548
2038 0.10299699
2036 0.13739799
2034 0.11949982
2032 0.049369313
2030 -0.05830621
2028 -0.17263588
2026 -0.26040673
2024 -0.30644292
2022 -0.30706638
2020 -0.27180028
2018 -0.21674459
2016 -0.16269399
2014 -0.12950438
2012 -0.12543617
2010 -0.14844033
2008 -0.17567776
2006 -0.17796344
2004 -0.13836166
2002 -0.052233372
2000 0.059308518
1998 0.16416027
1996 0.2329307
1994 0.24586196
1992 0.21559344
1990 0.16901723
1988 0.12876241
1986 0.10940322
1984 0.10388418
1982 0.099475019
1980 0.10286718
1978 0.12997569
1976 0.19305657
1974 0.29617891
1972 0.41899455
1970 0.53025663
1968 0.60280508
1966 0.61750227
1964 0.57747477
1962 0.49962091
1960 0.413048
1958 0.35019305
1956 0.33469486
1954 0.37936041
1952 0.47107029
1950 0.58116007
1948 0.6694448
1946 0.69992751
1944 0.67599487
1942 0.62364
1940 0.57676548
1938 0.56565583
1936 0.59404171
1934 0.6508866
1932 0.72263199
1930 0.79459244
1928 0.84811324
1926 0.86719143
1924 0.85627943
1922 0.83193207
1920 0.81476021
1918 0.82168418
1916 0.84815198
1914 0.87817526
1912 0.89758211
1910 0.89677274
1908 0.87728179
1906 0.84871233
1904 0.82973921
1902 0.84003299
1900 0.88390088
1898 0.95567173
1896 1.0455543
1894 1.1420035
1892 1.232748
1890 1.303427
1888 1.3323869
1886 1.2989386
1884 1.2048951
1882 1.069163
1880 0.92511028
1878 0.80914462
1876 0.73852402
1874 0.716254
1872 0.73514408
1870 0.78368181
1868 0.85285425
1866 0.93373907
1864 1.0091983
1862 1.059621
1860 1.0772576
1858 1.0638331
1856 1.0301628
1854 0.98991007
1852 0.94917136
1850 0.90863127
1848 0.86761242
1846 0.82653463
1844 0.79201001
1842 0.77256244
1840 0.76803583
1838 0.77008587
1836 0.75992072
1834 0.71902037
1832 0.65677571
1830 0.60131961
1828 0.58262634
1826 0.62011188
1824 0.68962914
1822 0.74352145
1820 0.75406063
1818 0.71433288
1816 0.63888711
1814 0.55191535
1812 0.46632865
1810 0.38727477
1808 0.32467085
1806 0.29011098
1804 0.28379381
1802 0.29711571
1800 0.31825173
1798 0.33507401
1796 0.33948857
1794 0.32987079
1792 0.32093799
1790 0.33528045
1788 0.3823753
1786 0.45531023
1784 0.51939565
1782 0.53202516
1780 0.49604702
1778 0.4440203
1776 0.38974345
1774 0.3285169
1772 0.25073388
1770 0.15267929
1768 0.06314382
1766 0.025136523
1764 0.040310662
1762 0.068855114
1760 0.030212406
1758 -0.15385468
1756 -0.43579358
1754 -0.68636572
1752 -0.83542186
1750 -0.87738383
1748 -0.84636647
1746 -0.79631251
1744 -0.77351022
1742 -0.80601704
1740 -0.87753481
1738 -0.94135135
1736 -0.95738798
1734 -0.90351063
1732 -0.79695565
1730 -0.67951626
1728 -0.5751906
1726 -0.48559728
1724 -0.39021596
1722 -0.253916
1720 -0.040461347
1718 0.282812
1716 0.73777699
1714 1.3223565
1712 1.9604783
1710 2.5432994
1708 3.0734921
1706 3.6652107
1704 4.5021157
1702 5.804121
1700 7.771534
1698 10.506578
1696 13.751429
1694 16.999491
1692 19.920572
1690 22.442055
1688 24.81419
1686 27.493942
1684 30.808674
1682 34.838966
1680 39.174839
1678 43.126137
1676 46.502243
1674 49.609043
1672 52.835953
1670 56.501755
1668 60.620075
1666 64.956848
1664 69.314545
1662 73.571266
1660 77.615112
1658 81.35453
1656 84.81826
1654 88.131805
1652 91.395943
1650 94.601662
1648 97.394043
1646 99.201538
1644 99.824219
1642 99.45343
1640 98.340683
1638 96.694199
1636 94.580498
1634 91.960518
1632 88.884491
1630 85.490036
1628 81.844826
1626 77.934738
1624 73.759438
1622 69.362503
1620 64.859482
1618 60.422329
1616 56.196915
1614 52.287941
1612 48.766499
1610 45.662998
1608 42.93243
1606 40.47065
1604 38.207058
1602 36.121422
1600 34.226372
1598 32.552273
1596 31.111
1594 29.893087
1592 28.880121
1590 28.052668
1588 27.405672
1586 26.944614
1584 26.663172
1582 26.541948
1580 26.571766
1578 26.759991
1576 27.136057
1574 27.736624
1572 28.536364
1570 29.445061
1568 30.36256
1566 31.206116
1564 31.959112
1562 32.698872
1560 33.646904
1558 35.10598
1556 37.120598
1554 39.424961
1552 41.67384
1550 43.554501
1548 45.003128
1546 46.205502
1544 47.286503
1542 48.23975
1540 49.01598
1538 49.54826
1536 49.770916
1534 49.640614
1532 49.198421
1530 48.568264
1528 47.837692
1526 47.023651
1524 46.083382
1522 44.929268
1520 43.504879
1518 41.814514
1516 39.954243
1514 38.083538
1512 36.218479
1510 34.197426
1508 31.857603
1506 29.120493
1504 26.135063
1502 23.266479
1500 20.725122
1498 18.46953
1496 16.365429
1494 14.249392
1492 12.049548
1490 9.8148251
1488 7.6286182
1486 5.5842361
1484 3.774648
1482 2.2818334
1480 1.1504915
1478 0.39421037
1476 0.086784028
1474 0.35051602
1472 1.1277499
1470 2.13712
1468 3.1563857
1466 4.1099167
1464 4.9978385
1462 5.8584366
1460 6.6340361
1458 7.1479988
1456 7.2902598
1454 7.0900984
1452 6.7003918
1450 6.3669925
1448 6.1890135
1446 6.0542321
1444 5.8669367
1442 5.6148219
1440 5.3023052
1438 4.9296746
1436 4.4807787
1434 3.9272754
1432 3.2859216
1430 2.6371577
1428 2.06496
1426 1.6330886
1424 1.3697143
1422 1.2594078
1420 1.2792583
1418 1.40817
1416 1.6213028
1414 1.888626
1412 2.1815133
1410 2.4770815
1408 2.7654674
1406 3.0525701
1404 3.3414478
1402 3.6253879
1400 3.89168
1398 4.1233692
1396 4.3119359
1394 4.4623938
1392 4.5816603
1390 4.6736999
1388 4.7348814
1386 4.7521849
1384 4.7160678
1382 4.6249781
1380 4.4789414
1378 4.2783833
1376 4.0278373
1374 3.7389741
1372 3.4316161
1370 3.131938
1368 2.8479919
1366 2.5578685
1364 2.234226
1362 1.857232
1360 1.4387057
1358 1.0341036
1356 0.69020027
1354 0.4226402
1352 0.22719491
1350 0.081693448
1348 -0.024915915
1346 -0.080575429
1344 -0.073859438
1342 -0.0046306923
1340 0.11323237
1338 0.24858899
1336 0.37415656
1334 0.47705519
1332 0.55844551
1330 0.63602269
1328 0.72431535
1326 0.82682544
1324 0.94647694
1322 1.0889204
1320 1.257604
1318 1.4504464
1316 1.6585799
1314 1.8650573
1312 2.0595143
1310 2.2458
1308 2.4309258
1306 2.6201508
1304 2.8088074
1302 2.977144
1300 3.1092267
1298 3.203198
1296 3.2660999
1294 3.3138361
1292 3.3575821
1290 3.3973033
1288 3.4327879
1286 3.4690101
1284 3.5151227
1282 3.5842555
1280 3.6819782
1278 3.7986979
1276 3.9200671
1274 4.03126
1272 4.1274009
1270 4.2224765
1268 4.3388524
1266 4.5050554
1264 4.7414126
1262 5.0499449
1260 5.425036
1258 5.8553977
1256 6.3341684
1254 6.8640828
1252 7.4432602
1250 8.0567255
1248 8.6865788
1246 9.3155003
1244 9.9331779
1242 10.54078
1240 11.135777
1238 11.701693
1236 12.221114
1234 12.674881
1232 13.04212
1230 13.298694
1228 13.419237
1226 13.379929
1224 13.175029
1222 12.828708
1220 12.376045
1218 11.85266
1216 11.289743
1214 10.705077
1212 10.113416
1210 9.5309811
1208 8.9651566
1206 8.4066029
1204 7.8390741
1202 7.242806
1200 6.6107178
1198 5.964139
1196 5.3272285
1194 4.7157512
1192 4.1371822
1190 3.587074
1188 3.0663049
1186 2.593137
1184 2.1856
1182 1.8512989
1180 1.5871483
1178 1.3730516
1176 1.1911
1174 1.0376004
1172 0.91463321
1170 0.82949424
1168 0.78423375
1166 0.76692641
1164 0.76101822
1162 0.74776709
1160 0.71394736
1158 0.66016513
1156 0.59252685
1154 0.52173525
1152 0.45509076
1150 0.38960218
1148 0.318959
1146 0.23605072
1144 0.14270157
1142 0.061336678
1140 0.013084268
1138 0.0056399833
1136 0.052128345
1134 0.1836729
1132 0.41519707
1130 0.71387112
1128 1.0444775
1126 1.3939865
1124 1.7604516
1122 2.1542552
1120 2.576972
1118 3.0013249
1116 3.3940101
1114 3.7254004
1112 3.9874485
1110 4.2228827
1108 4.4830122
1106 4.8086853
1104 5.2146697
1102 5.6575279
1100 6.0877795
1098 6.4776087
1096 6.8203716
1094 7.150599
1092 7.5082183
1090 7.920958
1088 8.3993063
1086 8.9152899
1084 9.4269781
1082 9.8803654
1080 10.230989
1078 10.466681
1076 10.591171
1074 10.632237
1072 10.624863
1070 10.611615
1068 10.630863
1066 10.701086
1064 10.81824
1062 10.940316
1060 11.017703
1058 11.011082
1056 10.896914
1054 10.686174
1052 10.397669
1050 10.049441
1048 9.6588488
1046 9.2297935
1044 8.7677765
1042 8.2841692
1040 7.7971196
1038 7.3377724
1036 6.9328299
1034 6.585454
1032 6.2826905
1030 5.982213
1028 5.6473536
1026 5.2798705
1024 4.8989496
1022 4.545536
1020 4.2502437
1018 3.9962378
1016 3.7567172
1014 3.5107498
1012 3.2485821
1010 2.9912481
1008 2.7575519
1006 2.5368035
1004 2.3077188
1002 2.0390127
1000 1.7062881
998 1.3147566
996 0.88779068
994 0.48237568
992 0.15435068
990 -0.07177718
988 -0.19487531
986 -0.26360771
984 -0.32490954
982 -0.38005063
980 -0.41271579
978 -0.3865228
976 -0.27349257
974 -0.089819618
972 0.13708135
970 0.37904549
968 0.61518639
966 0.84945703
964 1.0865792
962 1.3125995
960 1.4986051
958 1.5812
956 1.5044086
954 1.2686002
952 0.90858996
950 0.53094947
948 0.24033144
946 0.071233928
944 0.018440314
942 -0.0022333637
940 -0.071608536
938 -0.18798409
936 -0.33174914
934 -0.49278748
932 -0.66475719
930 -0.8464855
928 -1.0315456
926 -1.1895407
924 -1.287708
922 -1.3065207
920 -1.2424377
918 -1.1400863
916 -1.0578215
914 -1.0610576
912 -1.1988491
910 -1.448346
908 -1.7519186
906 -1.9858164
904 -2.0431538
902 -1.9473093
900 -1.7631043
898 -1.5900223
896 -1.5357
