Image.
>Pix99999.
  .
5555
5555
2300
900
5555
2
1
0
701
5555
4.5081001e-002
4.6019658e-002
4.6957318e-002
4.7894977e-002
4.8832636e-002
4.9770296e-002
5.0708942e-002
5.1646609e-002
5.2584268e-002
5.3520940e-002
5.4459572e-002
5.5401180e-002
5.6335956e-002
5.7261784e-002
5.8210980e-002
5.9191938e-002
6.0088519e-002
6.0865179e-002
6.1958637e-002
6.3495904e-002
6.3855655e-002
6.2562294e-002
6.5642737e-002
7.4892208e-002
6.7881919e-002
2.9488357e-002
1.0428228e-003
2.5906656e-002
9.1859281e-002
1.6737324e-001
2.0683400e-001
1.7642446e-001
1.0565886e-001
3.8238440e-002
1.6517715e-003
6.6006496e-003
1.5784092e-002
-1.3990637e-002
-9.3169883e-002
-2.1429583e-001
-3.3731171e-001
-4.1875109e-001
-4.4017780e-001
-3.9816958e-001
-3.1910405e-001
-2.3593272e-001
-1.7216781e-001
-1.4080192e-001
-1.2452395e-001
-1.0136111e-001
-6.8514638e-002
-3.4637645e-002
-3.0107062e-002
-8.1808291e-002
-1.7505088e-001
-2.7938741e-001
-3.5454321e-001
-3.6812192e-001
-3.3160153e-001
-2.7347112e-001
-2.3359571e-001
-2.4712658e-001
-3.1600252e-001
-4.2674410e-001
-5.4774123e-001
-6.4612901e-001
-7.0750087e-001
-7.2597265e-001
-7.0463407e-001
-6.5117818e-001
-5.8027798e-001
-5.0904173e-001
-4.5517755e-001
-4.2965850e-001
-4.1523716e-001
-3.8721180e-001
-3.3039165e-001
-2.4176639e-001
-1.5358566e-001
-1.0526251e-001
-1.1487686e-001
-1.8509644e-001
-2.8784356e-001
-3.8820368e-001
-4.6742919e-001
-5.1507503e-001
-5.2938074e-001
-5.1456189e-001
-4.8724043e-001
-4.6777147e-001
-4.7359043e-001
-5.1506233e-001
-5.7852733e-001
-6.4360160e-001
-6.9923961e-001
-7.3931235e-001
-7.6239020e-001
-7.6839280e-001
-7.5613755e-001
-7.2661150e-001
-6.9171286e-001
-6.6654074e-001
-6.6179168e-001
-6.8329930e-001
-7.2441918e-001
-7.7440047e-001
-8.2559323e-001
-8.7424308e-001
-9.2701793e-001
-9.8986620e-001
-1.0487062e+000
-1.0808551e+000
-1.0627720e+000
-9.8186296e-001
-8.7310725e-001
-7.8835565e-001
-7.6962519e-001
-8.4009242e-001
-9.6479887e-001
-1.0869608e+000
-1.1586885e+000
-1.1482079e+000
-1.0715500e+000
-9.6604896e-001
-8.7518853e-001
-8.3776391e-001
-8.6651802e-001
-9.5838928e-001
-1.0910134e+000
-1.2337182e+000
-1.3531100e+000
-1.4202265e+000
-1.4282846e+000
-1.3846080e+000
-1.3166871e+000
-1.2558630e+000
-1.2161583e+000
-1.2035092e+000
-1.2239377e+000
-1.2833163e+000
-1.3828599e+000
-1.5136446e+000
-1.6307191e+000
-1.6845329e+000
-1.6739931e+000
-1.6249585e+000
-1.5779440e+000
-1.5666250e+000
-1.5713046e+000
-1.5510535e+000
-1.4802999e+000
-1.3525647e+000
-1.2033057e+000
-1.0840303e+000
-1.0308840e+000
-1.0643536e+000
-1.1730319e+000
-1.3280947e+000
-1.4899471e+000
-1.6158196e+000
-1.6694086e+000
-1.6250631e+000
-1.4885037e+000
-1.2894658e+000
-1.0952269e+000
-9.8118949e-001
-9.8172128e-001
-1.0970203e+000
-1.2741081e+000
-1.4421886e+000
-1.5627686e+000
-1.6208667e+000
-1.6253165e+000
-1.5975018e+000
-1.5669831e+000
-1.5633750e+000
-1.6005315e+000
-1.6779003e+000
-1.7669652e+000
-1.8306613e+000
-1.8559171e+000
-1.8469733e+000
-1.8234080e+000
-1.8068031e+000
-1.7969606e+000
-1.7786614e+000
-1.7256120e+000
-1.6164532e+000
-1.4736246e+000
-1.3401331e+000
-1.2422872e+000
-1.1884508e+000
-1.1564897e+000
-1.1182076e+000
-1.0883118e+000
-1.0998408e+000
-1.1567520e+000
-1.2371786e+000
-1.2872040e+000
-1.2501197e+000
-1.1286571e+000
-9.6502423e-001
-8.2046086e-001
-7.5538123e-001
-7.9288042e-001
-9.2677677e-001
-1.1193066e+000
-1.3200529e+000
-1.4935360e+000
-1.6183155e+000
-1.6887400e+000
-1.7067465e+000
-1.6693662e+000
-1.5767584e+000
-1.4583806e+000
-1.3590971e+000
-1.3127549e+000
-1.3361089e+000
-1.4062431e+000
-1.4821424e+000
-1.5438057e+000
-1.5868186e+000
-1.6084014e+000
-1.6068672e+000
-1.5876120e+000
-1.5608321e+000
-1.5396792e+000
-1.5332918e+000
-1.5281451e+000
-1.4963962e+000
-1.4107271e+000
-1.2499070e+000
-1.0124000e+000
-7.1903270e-001
-4.3693960e-001
-2.5327921e-001
-2.1813646e-001
-3.4121782e-001
-5.7198656e-001
-8.2898676e-001
-1.0534725e+000
-1.2111264e+000
-1.2923857e+000
-1.2988652e+000
-1.2196959e+000
-1.0419040e+000
-7.8915036e-001
-5.1228774e-001
-2.6950184e-001
-1.0712333e-001
-8.9817867e-003
7.5906634e-002
1.6379920e-001
2.4330105e-001
3.0831015e-001
3.6332321e-001
4.2834595e-001
5.2645940e-001
6.5004885e-001
7.7101630e-001
8.7080687e-001
9.3749809e-001
9.4568187e-001
8.6482590e-001
6.9012910e-001
4.4819123e-001
2.1955621e-001
9.4032407e-002
3.8751222e-002
-4.8058294e-002
-1.5688065e-001
-1.9125500e-001
-8.3319902e-002
1.8032429e-001
5.1634502e-001
7.8387284e-001
8.8349390e-001
7.8573102e-001
6.0039890e-001
5.0980747e-001
5.7687998e-001
7.4267036e-001
8.6248857e-001
7.7496403e-001
4.7389078e-001
8.7475665e-002
-2.1316545e-001
-2.5392100e-001
8.5196346e-002
8.4010160e-001
1.8581729e+000
2.8704929e+000
3.7176685e+000
4.3843713e+000
5.0309043e+000
5.9348569e+000
7.3530073e+000
9.4774876e+000
1.2361734e+001
1.5895264e+001
1.9691429e+001
2.3221821e+001
2.6251961e+001
2.8884424e+001
3.1540817e+001
3.4814850e+001
3.9086388e+001
4.4394337e+001
5.0151562e+001
5.5439495e+001
6.0065327e+001
6.4507713e+001
6.9187836e+001
7.4258026e+001
7.9369347e+001
8.3854149e+001
8.7415543e+001
9.0157158e+001
9.2267303e+001
9.3925987e+001
9.5228203e+001
9.6179108e+001
9.6721443e+001
9.6755363e+001
9.6170181e+001
9.4899994e+001
9.3102715e+001
9.1099236e+001
8.9043564e+001
8.6885567e+001
8.4468002e+001
8.1603371e+001
7.8263237e+001
7.4561501e+001
7.0554390e+001
6.6221527e+001
6.1569439e+001
5.6666477e+001
5.1680664e+001
4.6851597e+001
4.2356400e+001
3.8289040e+001
3.4713478e+001
3.1666632e+001
2.9116537e+001
2.6972422e+001
2.5156963e+001
2.3623480e+001
2.2358269e+001
2.1374800e+001
2.0673000e+001
2.0232450e+001
2.0020805e+001
2.0001204e+001
2.0163031e+001
2.0523657e+001
2.1102543e+001
2.1923460e+001
2.3046120e+001
2.4556705e+001
2.6504856e+001
2.8874489e+001
3.1539101e+001
3.4284744e+001
3.6960560e+001
3.9512295e+001
4.1937828e+001
4.4303013e+001
4.6847809e+001
4.9883217e+001
5.3218315e+001
5.6146881e+001
5.8149212e+001
5.9089714e+001
5.9199120e+001
5.8967392e+001
5.8598217e+001
5.7911488e+001
5.6659660e+001
5.4668880e+001
5.2087971e+001
4.9383839e+001
4.6915501e+001
4.4817535e+001
4.3065006e+001
4.1497299e+001
3.9913822e+001
3.8118130e+001
3.6016781e+001
3.3658836e+001
3.1219372e+001
2.8946819e+001
2.6884680e+001
2.4820072e+001
2.2538504e+001
1.9933258e+001
1.7149332e+001
1.4573278e+001
1.2437483e+001
1.0713282e+001
9.2683287e+000
7.9281092e+000
6.5966129e+000
5.2844987e+000
4.0081458e+000
2.7722135e+000
1.6269159e+000
6.7942405e-001
3.1729639e-002
-2.3218073e-001
-1.1426002e-002
7.8709924e-001
2.0777006e+000
3.5670359e+000
5.0197549e+000
6.3470421e+000
7.5666575e+000
8.7869196e+000
1.0096869e+001
1.1511699e+001
1.2908999e+001
1.4025184e+001
1.4676396e+001
1.4838535e+001
1.4585177e+001
1.4072357e+001
1.3435045e+001
1.2748950e+001
1.2049891e+001
1.1328965e+001
1.0549771e+001
9.6637411e+000
8.6878424e+000
7.7303143e+000
6.9047122e+000
6.2958703e+000
5.9318938e+000
5.7682924e+000
5.7347388e+000
5.7526655e+000
5.7735314e+000
5.7985501e+000
5.8637595e+000
6.0323129e+000
6.3341155e+000
6.7401948e+000
7.1923218e+000
7.6106238e+000
7.9211917e+000
8.0700607e+000
8.0310211e+000
7.8153849e+000
7.4631381e+000
7.0411544e+000
6.6046314e+000
6.1819448e+000
5.7907486e+000
5.4397340e+000
5.1269598e+000
4.8351703e+000
4.5321431e+000
4.1727438e+000
3.7348340e+000
3.2362714e+000
2.7065554e+000
2.1762958e+000
1.6600797e+000
1.1506419e+000
6.5908104e-001
2.3277423e-001
-7.3447853e-002
-2.0859131e-001
-1.4055486e-001
1.3150111e-001
5.8565784e-001
1.1761825e+000
1.8600481e+000
2.6030302e+000
3.3485126e+000
4.0016961e+000
4.4647002e+000
4.6585813e+000
4.5696969e+000
4.2832150e+000
3.8994176e+000
3.5037179e+000
3.1572971e+000
2.8848264e+000
2.6896229e+000
2.5523634e+000
2.4437599e+000
2.3274686e+000
2.1738884e+000
1.9695119e+000
1.7178423e+000
1.4452721e+000
1.1832321e+000
9.6167260e-001
8.0463535e-001
7.2665167e-001
7.4273431e-001
8.7143809e-001
1.1251160e+000
1.5012475e+000
1.9782519e+000
2.5067158e+000
3.0333269e+000
3.5107551e+000
3.9031732e+000
4.1947823e+000
4.3843670e+000
4.4900217e+000
4.5447245e+000
4.5995331e+000
4.7038460e+000
4.8941307e+000
5.1930327e+000
5.6025524e+000
6.1184678e+000
6.7337799e+000
7.4412746e+000
8.2336435e+000
9.0998878e+000
1.0022076e+001
1.0979388e+001
1.1949249e+001
1.2913136e+001
1.3858607e+001
1.4765086e+001
1.5588573e+001
1.6266800e+001
1.6712357e+001
1.6849760e+001
1.6635429e+001
1.6061831e+001
1.5177072e+001
1.4043880e+001
1.2739561e+001
1.1355555e+001
1.0012341e+001
8.8252115e+000
7.8863912e+000
7.2514277e+000
6.9096456e+000
6.8204532e+000
6.9124436e+000
7.0976577e+000
7.2707572e+000
7.3335261e+000
7.2146153e+000
6.8763142e+000
6.3396921e+000
5.6491809e+000
4.8700399e+000
4.0743895e+000
3.3369644e+000
2.7190697e+000
2.2500913e+000
1.9335828e+000
1.7348316e+000
1.6129000e+000
1.5336524e+000
1.4683745e+000
1.3969077e+000
1.3085686e+000
1.2090757e+000
1.1145895e+000
1.0536231e+000
1.0419492e+000
1.0593551e+000
1.0724229e+000
1.0388150e+000
9.3334961e-001
7.7493715e-001
5.9470958e-001
4.2664000e-001
2.9471967e-001
1.9704089e-001
1.1670612e-001
1.8155999e-002
-1.2090020e-001
-2.8115880e-001
-4.3529212e-001
-5.6104761e-001
-6.4257342e-001
-6.7711926e-001
-6.7027944e-001
-6.3911390e-001
-5.9292603e-001
-5.1683760e-001
-4.0329215e-001
-2.7684516e-001
-1.6945817e-001
-1.0922098e-001
-9.3873084e-002
-5.0347593e-002
8.6300582e-002
3.1572163e-001
6.0230267e-001
8.6465490e-001
1.0482143e+000
1.1949670e+000
1.3688800e+000
1.6270659e+000
1.9994246e+000
2.4486949e+000
2.9219208e+000
3.3672719e+000
3.7300816e+000
3.9489770e+000
3.9762414e+000
3.8080075e+000
3.4745455e+000
3.0684438e+000
2.6842718e+000
2.3790400e+000
2.1840160e+000
2.0846143e+000
2.0546012e+000
2.0660129e+000
2.0925884e+000
2.1150014e+000
2.1200743e+000
2.1074071e+000
2.0797768e+000
2.0402679e+000
1.9967862e+000
1.9706637e+000
1.9881829e+000
2.0785429e+000
2.2530200e+000
2.4688747e+000
2.6680326e+000
2.7879126e+000
2.7829797e+000
2.6605000e+000
2.4454515e+000
2.1754179e+000
1.8858726e+000
1.5957611e+000
1.3186772e+000
1.0631406e+000
8.3298731e-001
6.2049568e-001
4.0797919e-001
1.5715142e-001
-1.5684837e-001
-5.0147861e-001
-8.2983184e-001
-1.0954163e+000
-1.2729071e+000
-1.4029230e+000
-1.5327771e+000
-1.6791302e+000
-1.8384452e+000
-1.9682500e+000
-2.0259554e+000
-2.0013433e+000
-1.9001480e+000
-1.7556211e+000
-1.6032943e+000
-1.4650102e+000
-1.3557681e+000
-1.2774669e+000
-1.2240925e+000
-1.1722450e+000
-1.0948291e+000
-9.6718764e-001
-7.8191811e-001
-5.8794111e-001
-4.4025570e-001
-3.6564088e-001
-3.6185759e-001
-3.5046139e-001
-2.5961950e-001
-1.0716539e-001
7.5429484e-002
2.8705364e-001
5.1935863e-001
7.1133125e-001
8.0076057e-001
7.6891679e-001
6.2066954e-001
4.0804070e-001
2.0617402e-001
1.3171357e-001
2.8409079e-001
6.5937239e-001
1.2083217e+000
1.8084600e+000
2.3380013e+000
2.7487073e+000
3.0197027e+000
3.1676271e+000
3.2302325e+000
3.2928450e+000
3.4396057e+000
3.7031951e+000
4.0748167e+000
4.4298649e+000
4.6152000e+000
