##TITLE=Methyl Ethyl Ketone
##JCAMP-DX=4.24
##DATA TYPE=INFRARED SPECTRUM
##XUNITS=cm-1
##YUNITS=Absorbance
##FIRSTX=900
##LASTX=2300
##XYDATA=(X++(Y..Y))
2296 -0.069046997
2294 -0.070482947
2292 -0.071919888
2290 -0.073355839
2288 -0.074791782
2286 -0.076228715
2284 -0.077664673
2282 -0.079101615
2280 -0.080537565
2278 -0.081974499
2276 -0.083410457
2274 -0.084847391
2272 -0.086283349
2270 -0.087720275
2268 -0.08915624
2266 -0.090593159
2264 -0.092029124
2262 -0.093466051
2260 -0.094902024
2258 -0.096338943
2256 -0.097774915
2254 -0.099210858
2252 -0.10064487
2250 -0.10208269
2248 -0.10352062
2246 -0.10495857
2244 -0.0039003715
2242 0.022968529
2240 0.032446478
2238 0.014164537
2236 -0.0081367064
2234 -0.028365253
2232 -0.048179578
2230 -0.062228762
2228 -0.071497992
2226 -0.044854447
2224 -0.016903149
2222 0.0086487839
2220 0.014735838
2218 -0.038085409
2216 -0.10281675
2214 -0.18632667
2212 -0.242567
2210 -0.25247568
2208 -0.22413972
2206 -0.15165713
2204 -0.072541758
2202 0.010270527
2200 0.07251846
2198 0.1192189
2196 0.14762144
2194 0.16605386
2192 0.13226542
2190 0.075858071
2188 -0.056105927
2186 -0.21214378
2184 -0.2899152
2182 -0.34933642
2180 -0.23542172
2178 -0.096193239
2176 0.008786086
2174 0.10081813
2172 0.082291178
2170 0.05611442
2168 0.046156179
2166 0.038526464
2164 0.033611521
2162 0.008777542
2160 -0.067769729
2158 -0.14758268
2156 -0.22359701
2154 -0.27683538
2152 -0.29764515
2150 -0.32682198
2148 -0.36925128
2146 -0.42950606
2144 -0.50427628
2142 -0.53530061
2140 -0.53484011
2138 -0.48042074
2136 -0.39835286
2134 -0.36710879
2132 -0.35839251
2130 -0.43068042
2128 -0.52814043
2126 -0.55536836
2124 -0.5657953
2122 -0.47249669
2120 -0.36414257
2118 -0.28029481
2116 -0.20269115
2114 -0.14516971
2112 -0.092768341
2110 -0.050098531
2108 -0.021660049
2106 -0.031901781
2104 -0.053077742
2102 -0.085814841
2100 -0.1217313
2098 -0.16012116
2096 -0.20730999
2094 -0.26556861
2092 -0.34166586
2090 -0.43455815
2088 -0.55423671
2086 -0.69400752
2084 -0.80629355
2082 -0.89857495
2080 -0.88237864
2078 -0.81051689
2076 -0.6521523
2074 -0.46062949
2072 -0.27825159
2070 -0.099954769
2068 0.016443929
2066 0.11605038
2064 0.1325136
2062 0.12351517
2060 0.018874317
2058 -0.1110658
2056 -0.27642971
2054 -0.43095165
2052 -0.52153176
2050 -0.57177126
2048 -0.55082935
2046 -0.51443607
2044 -0.47524223
2042 -0.45229796
2040 -0.45458537
2038 -0.4699266
2036 -0.49498799
2034 -0.52620274
2032 -0.56168675
2030 -0.61975443
2028 -0.69512159
2026 -0.77544206
2024 -0.85719109
2022 -0.8832016
2020 -0.88015842
2018 -0.85891855
2016 -0.83152598
2014 -0.85981733
2012 -0.90694374
2010 -0.96552134
2008 -1.0240768
2006 -1.0388542
2004 -1.0397583
2002 -1.0222621
2000 -1.0041943
1998 -1.0046145
1996 -1.0066428
1994 -0.99974734
1992 -0.97966468
1990 -0.93420893
1988 -0.88700438
1986 -0.84669483
1984 -0.82025903
1982 -0.81087357
1980 -0.81106466
1978 -0.81801832
1976 -0.80788261
1974 -0.78077108
1972 -0.726273
1970 -0.65360039
1968 -0.59991437
1966 -0.56037921
1964 -0.56686765
1962 -0.59622937
1960 -0.65333241
1958 -0.72120315
1956 -0.81028342
1954 -0.90627265
1952 -0.99134725
1950 -1.0665091
1948 -1.0845249
1946 -1.07985
1944 -1.0503783
1942 -1.0241145
1940 -1.0344328
1938 -1.0618564
1936 -1.1040171
1934 -1.1376498
1932 -1.146088
1930 -1.1420424
1928 -1.1305486
1926 -1.1358286
1924 -1.166242
1922 -1.2283528
1920 -1.3171784
1918 -1.394922
1916 -1.4559472
1914 -1.438924
1912 -1.3654498
1910 -1.2337296
1908 -1.0716829
1906 -0.92715585
1904 -0.79466963
1902 -0.67698169
1900 -0.56529987
1898 -0.4452877
1896 -0.32476428
1894 -0.24889359
1892 -0.19991209
1890 -0.21366251
1888 -0.26114392
1886 -0.34893501
1884 -0.45442617
1882 -0.56776547
1880 -0.67123681
1878 -0.74586451
1876 -0.80741704
1874 -0.86482561
1872 -0.91486943
1870 -0.95676941
1868 -0.94459331
1866 -0.86613393
1864 -0.72946173
1862 -0.5497933
1860 -0.36959884
1858 -0.19958934
1856 -0.10696121
1854 -0.073135041
1852 -0.19866866
1850 -0.42414996
1848 -0.75101364
1846 -1.129365
1844 -1.3166546
1842 -1.3960217
1840 -1.2298908
1838 -0.95054591
1836 -0.68691772
1834 -0.43517381
1832 -0.21239354
1830 -0.020325225
1828 0.10939386
1826 0.17410485
1824 0.13961279
1822 0.089590274
1820 0.093099184
1818 0.14148748
1816 0.22950542
1814 0.28165823
1812 0.26041162
1810 0.2088954
1808 0.15094337
1806 0.14735951
1804 0.20323446
1802 0.18024139
1800 0.069908991
1798 -0.16013783
1796 -0.47097856
1794 -0.60031593
1792 -0.58978319
1790 -0.37242502
1788 -0.034256481
1786 0.23664774
1784 0.45716822
1782 0.5663448
1780 0.60491812
1778 0.58068329
1776 0.5364483
1774 0.54944408
1772 0.61339003
1770 0.74978566
1768 0.85338873
1766 0.79328573
1764 0.62286842
1762 0.37951192
1760 0.10513257
1758 -0.17172888
1756 -0.360567
1754 -0.42360073
1752 -0.42275125
1750 -0.39880571
1748 -0.40833041
1746 -0.46061465
1744 -0.58624637
1742 -0.76921463
1740 -0.94436175
1738 -1.1034039
1736 -1.16908
1734 -1.1661122
1732 -1.0391631
1730 -0.83030897
1728 -0.63852108
1726 -0.46335948
1724 -0.33640295
1722 -0.21511841
1720 0.075721145
1718 0.58129513
1716 1.3448843
1714 2.1897075
1712 2.9098961
1710 3.5163679
1708 4.0114899
1706 4.549602
1704 5.2703609
1702 6.4541702
1700 8.2569742
1698 11.075217
1696 14.980572
1694 19.220991
1692 23.3981
1690 27.192476
1688 30.577635
1686 34.382206
1684 38.711018
1682 43.595497
1680 48.905762
1678 53.435139
1676 57.260799
1674 61.091061
1672 65.014397
1670 69.643616
1668 74.777863
1666 79.756248
1664 84.543098
1662 88.973907
1660 93.057854
1658 96.785988
1656 100.07103
1654 102.7786
1652 104.7124
1650 105.67774
1648 105.45492
1646 103.96036
1644 101.70237
1642 99.163132
1640 96.420242
1638 93.54834
1636 90.10247
1634 85.967781
1632 81.507126
1630 76.893501
1628 72.354332
1626 67.930939
1624 63.276722
1622 58.370331
1620 53.573254
1618 48.921631
1616 44.671829
1614 40.843479
1612 37.531063
1610 34.735291
1608 32.363499
1606 30.385271
1604 28.638466
1602 27.148479
1600 25.925508
1598 24.977282
1596 24.2715
1594 23.793066
1592 23.489601
1590 23.352274
1588 23.351635
1586 23.468771
1584 23.673943
1582 23.952799
1580 24.28993
1578 24.766722
1576 25.411171
1574 26.222166
1572 27.193789
1570 28.230536
1568 29.309759
1566 30.459814
1564 31.688658
1562 33.115269
1560 34.811062
1558 37.186943
1556 40.250114
1554 43.377178
1552 46.392307
1550 48.627281
1548 50.1017
1546 51.230286
1544 51.993248
1542 52.473663
1540 52.56382
1538 52.192097
1536 51.38863
1534 50.266674
1532 48.929817
1530 47.497318
1528 45.945755
1526 44.262897
1524 42.451576
1522 40.515553
1520 38.611691
1518 36.818947
1516 35.1395
1514 33.58485
1512 31.872641
1510 29.915628
1508 27.494759
1506 24.504908
1504 21.613897
1502 18.903526
1500 16.620956
1498 14.81887
1496 13.067715
1494 11.384089
1492 9.7706957
1490 8.2276611
1488 6.7133279
1486 5.2411814
1484 3.8227479
1482 2.5444937
1480 1.5138223
1478 0.7606287
1476 0.28648239
1474 0.16612938
1472 0.49296939
1470 1.0697699
1468 1.7188339
1466 2.2938092
1464 2.6864657
1462 2.9833601
1460 3.2000103
1458 3.4587767
1456 3.8114598
1454 4.2424521
1452 4.7785478
1450 5.2147765
1448 5.4887104
1446 5.6380568
1444 5.6116209
1442 5.5144348
1440 5.317986
1438 5.0542231
1436 4.6971569
1434 4.2637129
1432 3.7600589
1430 3.2644773
1428 2.8109519
1426 2.4537928
1424 2.2221541
1422 2.1366134
1420 2.216686
1418 2.4847472
1416 2.8952913
1414 3.414331
1412 3.9500413
1410 4.4236131
1408 4.8336487
1406 5.1545305
1404 5.4432793
1402 5.7119784
1400 5.965044
1398 6.195962
1396 6.3741503
1394 6.4589748
1392 6.4994278
1390 6.467721
1388 6.4016614
1386 6.2753201
1384 6.0799193
1382 5.7786174
1380 5.3921313
1378 4.9008732
1376 4.3705373
1374 3.8214982
1372 3.3403959
1370 2.9485502
1368 2.6575613
1366 2.4275372
1364 2.1688702
1362 1.8590136
1360 1.4604394
1358 1.0384629
1356 0.66188741
1354 0.35266027
1352 0.16056995
1350 0.035465539
1348 -0.017546639
1346 -0.043031462
1344 -0.0045976378
1342 0.061494172
1340 0.17262569
1338 0.30164924
1336 0.46438801
1334 0.6249451
1332 0.78284669
1330 0.9195314
1328 1.023618
1326 1.1217207
1324 1.2138077
1322 1.3218532
1320 1.4547069
1318 1.6208624
1316 1.8222901
1314 2.0390208
1312 2.255939
1310 2.4302771
1308 2.5617864
1306 2.6441293
1304 2.6912022
1302 2.711781
1300 2.7143774
1298 2.6989403
1296 2.6822286
1294 2.6793001
1292 2.6891999
1290 2.7255571
1288 2.7664242
1286 2.8096342
1284 2.8559043
1282 2.9110157
1280 2.9767389
1278 3.0663118
1276 3.1603043
1274 3.2611032
1272 3.3567195
1270 3.4470272
1268 3.5545819
1266 3.6963422
1264 3.8892457
1262 4.1478062
1260 4.4415159
1258 4.7743464
1256 5.1332598
1254 5.5239067
1252 5.9580035
1250 6.4223313
1248 6.8981133
1246 7.3741498
1244 7.8331027
1242 8.2713442
1240 8.6624765
1238 8.9995975
1236 9.2017803
1234 9.3287954
1232 9.2922039
1230 9.2108459
1228 9.0371943
1226 8.8439159
1224 8.598218
1222 8.3150892
1220 7.9406567
1218 7.5262547
1216 7.0344515
1214 6.5362158
1212 6.0277791
1210 5.520165
1208 5.013299
1206 4.5039954
1204 3.9993658
1202 3.5287225
1200 3.1028926
1198 2.7439401
1196 2.436657
1194 2.1469362
1192 1.8585372
1190 1.5342951
1188 1.2056403
1186 0.92401916
1184 0.68687189
1182 0.56902409
1180 0.49262765
1178 0.47496024
1176 0.47184598
1174 0.4951421
1172 0.52639115
1170 0.58131725
1168 0.61700481
1166 0.59153718
1164 0.53079051
1162 0.38534409
1160 0.23811948
1158 0.092251338
1156 -0.020616043
1154 -0.075404629
1152 -0.089730367
1150 -0.051583417
1148 -0.0065459982
1146 0.038822822
1144 0.0464608
1142 0.024273615
1140 0.0089556975
1138 0.011216007
1136 0.08199697
1134 0.2001076
1132 0.41567242
1130 0.68339956
1128 1.0291333
1126 1.4075272
1124 1.8455718
1122 2.2932613
1120 2.7358479
1118 3.1661861
1116 3.5328858
1114 3.8805101
1112 4.1497874
1110 4.3772273
1108 4.4677739
1106 4.4967299
1104 4.3775911
1102 4.2627144
1100 4.1694102
1098 4.179481
1096 4.3566141
1094 4.6120281
1092 4.962204
1090 5.3158255
1088 5.6698213
1086 6.0031843
1084 6.3078504
1082 6.5199385
1080 6.6654844
1078 6.7273717
1076 6.7614441
1074 6.8644814
1072 6.9965897
1070 7.1759391
1068 7.3462229
1066 7.3739533
1064 7.3654041
1062 7.2242241
1060 7.0912433
1058 7.0543542
1056 7.0514603
1054 7.1949344
1052 7.3224688
1050 7.3937588
1048 7.4024348
1046 7.2603536
1044 7.1004076
1042 6.9090137
1040 6.7302299
1038 6.5650392
1036 6.3561301
1034 6.0891452
1032 5.7348442
1030 5.3001823
1028 4.8312078
1026 4.3478937
1024 3.9580679
1022 3.630348
1020 3.4430935
1018 3.3105676
1016 3.1843028
1014 3.0488756
1012 2.7944059
1010 2.5188196
1008 2.2332561
1006 1.9587615
1004 1.8241565
1002 1.7044011
1000 1.6776674
998 1.643857
996 1.5763714
994 1.4669911
992 1.2268176
990 0.95721221
988 0.6219874
986 0.30775821
984 0.032186016
982 -0.20259242
980 -0.37913179
978 -0.48710352
976 -0.52152687
974 -0.50455582
972 -0.44691563
970 -0.39192796
968 -0.33503479
966 -0.21061715
964 -0.05061093
962 0.21217173
960 0.50142395
958 0.64974654
956 0.75705999
954 0.61807352
952 0.4504472
950 0.30720341
948 0.16946667
946 0.096317999
944 0.02647409
942 -0.0018739402
940 -0.054741196
938 0.018218696
936 0.09623149
934 0.18885025
932 0.27689677
930 0.35752451
928 0.53441089
926 0.865677
924 1.2413
922 1.6700859
920 2.0666966
918 2.4346237
916 2.8753386
914 3.3658254
912 3.7398772
910 4.0491953
908 4.0376444
906 3.9032059
904 3.7921989
902 3.6882591
900 3.8419583
898 4.0372133
896 4.3263001
