Image.
>Pix99999.
  .
5555
5555
2300
900
5555
2
1
0
701
5555
-1.5477000e-002
-1.5798541e-002
-1.6120080e-002
-1.6442616e-002
-1.6764160e-002
-1.7086692e-002
-1.7408239e-002
-1.7730771e-002
-1.8052319e-002
-1.8373860e-002
-1.8696386e-002
-1.9017939e-002
-1.9340463e-002
-1.9663002e-002
-1.9984560e-002
-2.0304143e-002
-2.0627594e-002
-2.0956010e-002
-2.1271875e-002
-2.1572830e-002
-2.1915171e-002
-2.2317849e-002
-2.2562455e-002
-2.2584507e-002
-2.3193400e-002
-2.1754108e-002
-8.0600003e-004
4.7668587e-002
7.6922759e-002
3.3777915e-002
-9.8493114e-002
-3.1103188e-001
-5.3424597e-001
-6.9329721e-001
-7.6223648e-001
-7.4533498e-001
-7.1092820e-001
-7.3105586e-001
-8.1767797e-001
-9.5249486e-001
-1.0674949e+000
-1.0948997e+000
-1.0257939e+000
-8.7840253e-001
-7.0625889e-001
-5.6276798e-001
-4.5741925e-001
-3.8643211e-001
-3.4757069e-001
-3.4210190e-001
-3.8261643e-001
-4.7755569e-001
-6.0384458e-001
-7.3127419e-001
-8.4116149e-001
-9.2216700e-001
-9.7725797e-001
-1.0135590e+000
-1.0365772e+000
-1.0527767e+000
-1.0750371e+000
-1.1137881e+000
-1.1612309e+000
-1.2038110e+000
-1.2303143e+000
-1.2347772e+000
-1.2278448e+000
-1.2224882e+000
-1.2180275e+000
-1.2115604e+000
-1.2092800e+000
-1.2201525e+000
-1.2509160e+000
-1.3014146e+000
-1.3475006e+000
-1.3624786e+000
-1.3439994e+000
-1.2985240e+000
-1.2339324e+000
-1.1546414e+000
-1.0509943e+000
-9.1673321e-001
-7.8129178e-001
-6.8697518e-001
-6.7656082e-001
-7.7824825e-001
-9.6088684e-001
-1.1700639e+000
-1.3441542e+000
-1.4336575e+000
-1.4463015e+000
-1.4119871e+000
-1.3648480e+000
-1.3331795e+000
-1.3187383e+000
-1.3138157e+000
-1.3133000e+000
-1.3134723e+000
-1.3113500e+000
-1.3029294e+000
-1.2809429e+000
-1.2408754e+000
-1.1965988e+000
-1.1692050e+000
-1.1802446e+000
-1.2445949e+000
-1.3494369e+000
-1.4703985e+000
-1.5788456e+000
-1.6505852e+000
-1.6835572e+000
-1.6846868e+000
-1.6599081e+000
-1.6126168e+000
-1.5397725e+000
-1.4406199e+000
-1.3352492e+000
-1.2514046e+000
-1.2133235e+000
-1.2361879e+000
-1.3043742e+000
-1.3897576e+000
-1.4637734e+000
-1.5047203e+000
-1.5188639e+000
-1.5241321e+000
-1.5381840e+000
-1.5727787e+000
-1.6192681e+000
-1.6609733e+000
-1.6858257e+000
-1.6867112e+000
-1.6675806e+000
-1.6369750e+000
-1.6042789e+000
-1.5758036e+000
-1.5448782e+000
-1.5010594e+000
-1.4433271e+000
-1.3786659e+000
-1.3295200e+000
-1.3183439e+000
-1.3390040e+000
-1.3718522e+000
-1.3976452e+000
-1.4028964e+000
-1.3939778e+000
-1.3859121e+000
-1.3914971e+000
-1.4207138e+000
-1.4778357e+000
-1.5621425e+000
-1.6614513e+000
-1.7574450e+000
-1.8273180e+000
-1.8520222e+000
-1.8376143e+000
-1.8034331e+000
-1.7735523e+000
-1.7677637e+000
-1.7803972e+000
-1.7918000e+000
-1.7768072e+000
-1.7146013e+000
-1.6120759e+000
-1.4926043e+000
-1.3918626e+000
-1.3434591e+000
-1.3508800e+000
-1.3991144e+000
-1.4599186e+000
-1.5039438e+000
-1.5207675e+000
-1.5134128e+000
-1.4997551e+000
-1.5022249e+000
-1.5345172e+000
-1.6010346e+000
-1.6871397e+000
-1.7693197e+000
-1.8259515e+000
-1.8417623e+000
-1.8216621e+000
-1.7804472e+000
-1.7285469e+000
-1.6658900e+000
-1.5611935e+000
-1.3784115e+000
-1.1318852e+000
-8.6928880e-001
-6.5667140e-001
-5.5370712e-001
-5.5890745e-001
-6.3772696e-001
-7.6079309e-001
-9.0328729e-001
-1.0347257e+000
-1.1213778e+000
-1.1311014e+000
-1.0432614e+000
-8.8367862e-001
-7.0440090e-001
-5.5925751e-001
-4.9581739e-001
-5.3994125e-001
-6.9768763e-001
-9.4213158e-001
-1.2269149e+000
-1.4991949e+000
-1.7078851e+000
-1.8190900e+000
-1.8132409e+000
-1.6887875e+000
-1.4645625e+000
-1.2085049e+000
-1.0101306e+000
-9.2985857e-001
-9.9276268e-001
-1.1569154e+000
-1.3470068e+000
-1.5111343e+000
-1.6194909e+000
-1.6591451e+000
-1.6310056e+000
-1.5594040e+000
-1.4818000e+000
-1.4334614e+000
-1.4382172e+000
-1.4814000e+000
-1.5257508e+000
-1.5401415e+000
-1.5023090e+000
-1.4008315e+000
-1.2358115e+000
-1.0310377e+000
-8.2750571e-001
-6.7886478e-001
-6.3465303e-001
-6.9660139e-001
-8.3024758e-001
-9.8085999e-001
-1.0917701e+000
-1.1410929e+000
-1.1317325e+000
-1.0706280e+000
-9.6426654e-001
-8.1826288e-001
-6.4108425e-001
-4.5679033e-001
-2.9511896e-001
-1.6368215e-001
-5.5442564e-002
2.9598478e-002
8.5840173e-002
1.1303877e-001
1.1714214e-001
1.1179177e-001
1.1384266e-001
1.3327283e-001
1.7324290e-001
2.3034514e-001
2.9262576e-001
3.2696649e-001
2.9655120e-001
2.1361354e-001
1.2436448e-001
6.2416680e-002
3.7461039e-002
1.2782452e-002
-6.3769527e-002
-1.7007872e-001
-2.2783557e-001
-1.6733834e-001
4.3712296e-002
3.3014584e-001
5.5106962e-001
6.1789733e-001
5.1552522e-001
3.4072098e-001
2.4740374e-001
3.0003801e-001
4.6700045e-001
6.3208407e-001
6.4954007e-001
4.8184028e-001
1.9552141e-001
-7.6806061e-002
-1.7063659e-001
5.2389190e-002
6.6785693e-001
1.5774404e+000
2.5639169e+000
3.4672949e+000
4.2306538e+000
4.9783182e+000
5.9651561e+000
7.4345574e+000
9.5709906e+000
1.2418852e+001
1.5860812e+001
1.9518286e+001
2.2883211e+001
2.5750263e+001
2.8249069e+001
3.0792023e+001
3.3934898e+001
3.8019119e+001
4.3062908e+001
4.8522240e+001
5.3558842e+001
5.7995728e+001
6.2268684e+001
6.6773621e+001
7.1678337e+001
7.6707115e+001
8.1287849e+001
8.5122513e+001
8.8222885e+001
9.0679573e+001
9.2594933e+001
9.4045113e+001
9.5070717e+001
9.5665062e+001
9.5779373e+001
9.5332962e+001
9.4264214e+001
9.2703552e+001
9.0921936e+001
8.9035965e+001
8.6981201e+001
8.4622902e+001
8.1824593e+001
7.8596840e+001
7.5067932e+001
7.1269287e+001
6.7126648e+001
6.2604843e+001
5.7750069e+001
5.2732014e+001
4.7813351e+001
4.3200630e+001
3.9020214e+001
3.5355610e+001
3.2247150e+001
2.9657770e+001
2.7485235e+001
2.5644825e+001
2.4088385e+001
2.2801207e+001
2.1791758e+001
2.1058500e+001
2.0586494e+001
2.0357321e+001
2.0351563e+001
2.0552769e+001
2.0950457e+001
2.1533714e+001
2.2304281e+001
2.3335285e+001
2.4763016e+001
2.6701687e+001
2.9194283e+001
3.2111370e+001
3.5169765e+001
3.8133041e+001
4.0868416e+001
4.3344196e+001
4.5647736e+001
4.8043224e+001
5.0862370e+001
5.3968845e+001
5.6741699e+001
5.8704052e+001
5.9708031e+001
5.9953030e+001
5.9883606e+001
5.9658611e+001
5.9062485e+001
5.7832222e+001
5.5804531e+001
5.3157429e+001
5.0395786e+001
4.7882153e+001
4.5716419e+001
4.3849804e+001
4.2126099e+001
4.0362385e+001
3.8392586e+001
3.6153755e+001
3.3714844e+001
3.1248600e+001
2.8973379e+001
2.6897039e+001
2.4780863e+001
2.2411352e+001
1.9710478e+001
1.6851143e+001
1.4233622e+001
1.2084757e+001
1.0351918e+001
8.8761568e+000
7.4607887e+000
6.0053368e+000
4.5394764e+000
3.1275218e+000
1.8440336e+000
7.7223361e-001
-1.9483268e-003
-4.2079240e-001
-4.5401800e-001
-3.1179577e-002
9.4247073e-001
2.3885927e+000
4.0181150e+000
5.5903292e+000
7.0015154e+000
8.2639780e+000
9.4922724e+000
1.0767952e+001
1.2086302e+001
1.3344200e+001
1.4347284e+001
1.4963546e+001
1.5173733e+001
1.5013057e+001
1.4559286e+001
1.3903777e+001
1.3140950e+001
1.2355246e+001
1.1605193e+001
1.0886585e+001
1.0128114e+001
9.2925196e+000
8.4130774e+000
7.5705142e+000
6.8799415e+000
6.4068732e+000
6.1339078e+000
6.0055370e+000
5.9457450e+000
5.9128113e+000
5.9218493e+000
6.0114241e+000
6.2291970e+000
6.5892024e+000
7.0524573e+000
7.5572639e+000
8.0261955e+000
8.3810396e+000
8.5525780e+000
8.5018215e+000
8.2372446e+000
7.8107142e+000
7.3167653e+000
6.8269606e+000
6.3624697e+000
5.9214201e+000
5.4864082e+000
5.0512390e+000
4.6285429e+000
4.2187858e+000
3.7984033e+000
3.3410161e+000
2.8267739e+000
2.2529914e+000
1.6412100e+000
1.0199912e+000
4.2349619e-001
-9.4754934e-002
-4.5786560e-001
-6.1097854e-001
-5.4424661e-001
-2.7024022e-001
1.7687514e-001
7.4633431e-001
1.3744750e+000
2.0288880e+000
2.7244570e+000
3.4430437e+000
4.0942001e+000
4.5620656e+000
4.7303653e+000
4.5666313e+000
4.1748228e+000
3.6836035e+000
3.2063079e+000
2.8229883e+000
2.5617976e+000
2.4240623e+000
2.3834732e+000
2.3938301e+000
2.3881910e+000
2.3097794e+000
2.1309562e+000
1.8565108e+000
1.5344014e+000
1.2199217e+000
9.6241093e-001
7.9993343e-001
7.5197649e-001
8.2789570e-001
1.0256041e+000
1.3357494e+000
1.7404170e+000
2.2176042e+000
2.7403793e+000
3.2756011e+000
3.7814832e+000
4.2184677e+000
4.5574059e+000
4.7890687e+000
4.9363751e+000
5.0324707e+000
5.1150308e+000
5.2169304e+000
5.3613009e+000
5.5699663e+000
5.8663173e+000
6.2681737e+000
6.7813668e+000
7.4029198e+000
8.1193085e+000
8.9187870e+000
9.7987432e+000
1.0764737e+001
1.1830500e+001
1.2993009e+001
1.4213728e+001
1.5417937e+001
1.6481926e+001
1.7289244e+001
1.7754560e+001
1.7826799e+001
1.7505756e+001
1.6813951e+001
1.5801250e+001
1.4534657e+001
1.3108508e+001
1.1634668e+001
1.0242189e+001
9.0485115e+000
8.1305513e+000
7.5303106e+000
7.2332964e+000
7.1964440e+000
7.3433795e+000
7.5779099e+000
7.7803001e+000
7.8347392e+000
7.6507826e+000
7.1850858e+000
6.4835467e+000
5.6288939e+000
4.7347989e+000
3.8978019e+000
3.1610730e+000
2.5439205e+000
2.0421603e+000
1.6503763e+000
1.3716925e+000
1.2051001e+000
1.1357270e+000
1.1394886e+000
1.1801159e+000
1.2262102e+000
1.2632093e+000
1.2837251e+000
1.2861450e+000
1.2640474e+000
1.1985400e+000
1.0776520e+000
9.1161275e-001
7.2178131e-001
5.4147661e-001
3.9607659e-001
2.8607965e-001
2.0508468e-001
1.4382350e-001
8.7723687e-002
1.3179526e-002
-8.9619227e-002
-1.9386441e-001
-2.7284160e-001
-3.2177305e-001
-3.4951183e-001
-3.8266221e-001
-4.3181178e-001
-4.5938635e-001
-4.2466840e-001
-3.1019861e-001
-1.2967682e-001
4.2728864e-002
1.4036514e-001
1.5255374e-001
9.5714517e-002
1.9548353e-002
-2.6612006e-002
-1.5253600e-002
6.8623163e-002
2.2144131e-001
4.3433714e-001
6.9720113e-001
1.0079702e+000
1.3855541e+000
1.8474594e+000
2.3928037e+000
2.9925008e+000
3.5576458e+000
3.9979830e+000
4.2604532e+000
4.3301573e+000
4.2678428e+000
4.1470337e+000
4.0240145e+000
3.9389222e+000
3.8982501e+000
3.8918481e+000
3.8859332e+000
3.8447590e+000
3.7437162e+000
3.5820658e+000
3.4166279e+000
3.3093693e+000
3.2943490e+000
3.3738973e+000
3.4800820e+000
3.5458443e+000
3.5578678e+000
3.5349863e+000
3.5505471e+000
3.6601400e+000
3.8308091e+000
3.9974835e+000
4.0678768e+000
3.9768114e+000
3.7580571e+000
3.4684479e+000
3.1603751e+000
2.8686295e+000
2.5790608e+000
2.2762485e+000
1.9772286e+000
1.7050529e+000
1.4758765e+000
1.2932639e+000
1.1281396e+000
9.4648451e-001
7.2570127e-001
4.5737651e-001
1.6975571e-001
-9.3726069e-002
-2.7135938e-001
-3.1805730e-001
-2.5656682e-001
-1.3233569e-001
-9.1594830e-003
6.6365719e-002
1.1784203e-001
1.7882439e-001
2.5836682e-001
3.5177144e-001
4.2949209e-001
4.6977586e-001
4.9699572e-001
5.3968233e-001
6.0172600e-001
6.7524284e-001
7.3327583e-001
7.5233805e-001
7.3673445e-001
6.9542116e-001
6.2960535e-001
5.3793359e-001
4.1716504e-001
2.7085289e-001
1.2821850e-001
2.5744012e-002
2.8207824e-003
9.2303544e-002
3.0067480e-001
6.1827803e-001
1.0008276e+000
1.4058900e+000
1.8290328e+000
2.2609336e+000
2.6398478e+000
2.8947780e+000
2.9697137e+000
2.8391292e+000
2.5781596e+000
2.2840114e+000
2.0417750e+000
1.9252818e+000
1.9780099e+000
2.2199531e+000
2.6109822e+000
3.0546873e+000
3.2953157e+000
3.1115704e+000
2.5766425e+000
1.8375000e+000
