Image.
>Pix99999.
  .
5555
5555
2300
900
5555
2
1
0
701
5555
1.0832000e-001
1.1057677e-001
1.1282357e-001
1.1508031e-001
1.1733709e-001
1.1958393e-001
1.2184063e-001
1.2409740e-001
1.2634428e-001
1.2860094e-001
1.3085771e-001
1.3310464e-001
1.3536125e-001
1.3760822e-001
1.3986480e-001
1.4214113e-001
1.4437880e-001
1.4656682e-001
1.4888033e-001
1.5137213e-001
1.5339257e-001
1.5476920e-001
1.5786099e-001
1.6339535e-001
1.6251771e-001
1.4389820e-001
9.6795470e-002
1.8852167e-002
-5.9178039e-002
-1.0902086e-001
-1.5003400e-001
-2.0715408e-001
-2.7278873e-001
-3.3109477e-001
-3.7132579e-001
-3.8868698e-001
-3.9604515e-001
-4.0589985e-001
-4.0817955e-001
-3.8743961e-001
-3.3347601e-001
-2.4510896e-001
-1.5084840e-001
-8.3824970e-002
-5.9724219e-002
-8.0335408e-002
-1.1314818e-001
-1.1984637e-001
-8.0930777e-002
9.2812795e-003
1.2446528e-001
2.3283090e-001
3.2057914e-001
3.8143045e-001
4.1611356e-001
4.2506236e-001
3.9905879e-001
3.3128342e-001
2.3772778e-001
1.4368622e-001
8.2311772e-002
8.2682289e-002
1.4753738e-001
2.6512849e-001
4.0004188e-001
5.1248622e-001
5.7609373e-001
5.7696581e-001
5.3325927e-001
4.7172987e-001
4.1052002e-001
3.6135045e-001
3.2297274e-001
2.9276913e-001
2.8073031e-001
2.9771465e-001
3.3983383e-001
3.9566138e-001
4.4435373e-001
4.6822017e-001
4.7561085e-001
4.8186639e-001
4.9260280e-001
5.0597912e-001
5.0491601e-001
4.7391424e-001
4.2622635e-001
3.8391170e-001
3.6124930e-001
3.6435121e-001
3.7876427e-001
3.8596389e-001
3.8149381e-001
3.6759746e-001
3.5123646e-001
3.3955473e-001
3.3369532e-001
3.3121684e-001
3.2427362e-001
3.0597565e-001
2.8152287e-001
2.6153305e-001
2.5937656e-001
2.8521070e-001
3.3205965e-001
3.8683900e-001
4.3915600e-001
4.8044521e-001
5.0420612e-001
5.0618201e-001
4.8825842e-001
4.5702457e-001
4.2851719e-001
4.1806906e-001
4.2254397e-001
4.3106115e-001
4.3257004e-001
4.1938755e-001
3.9666933e-001
3.7272981e-001
3.4670284e-001
3.1478158e-001
2.7798837e-001
2.3965378e-001
2.0338881e-001
1.7187965e-001
1.4384359e-001
1.1900690e-001
1.0852046e-001
1.2486915e-001
1.6496728e-001
2.1603757e-001
2.5413769e-001
2.5731421e-001
2.3103383e-001
1.9536172e-001
1.7968303e-001
2.0891279e-001
2.7427951e-001
3.4955290e-001
3.9952201e-001
3.9292938e-001
3.2899731e-001
2.2335663e-001
1.0159867e-001
-1.0014843e-002
-9.8205656e-002
-1.5882780e-001
-2.0006914e-001
-2.3389764e-001
-2.6541215e-001
-2.9423255e-001
-3.1169492e-001
-3.0712947e-001
-2.7706939e-001
-2.2492264e-001
-1.6776863e-001
-1.2698671e-001
-1.1535926e-001
-1.3398376e-001
-1.5353772e-001
-1.3547480e-001
-6.4031765e-002
5.3979404e-002
1.6718854e-001
2.1187887e-001
1.6250049e-001
2.4599204e-002
-1.5098569e-001
-3.0109963e-001
-4.0135571e-001
-4.5390147e-001
-4.8387790e-001
-5.1938772e-001
-5.5739915e-001
-5.7838500e-001
-5.6402725e-001
-5.0473583e-001
-4.2034161e-001
-3.4393281e-001
-3.0024743e-001
-3.0389443e-001
-3.4976101e-001
-4.2039543e-001
-4.8829907e-001
-5.2269989e-001
-4.9842715e-001
-4.0269637e-001
-2.6183510e-001
-1.2031507e-001
-1.0532716e-002
5.0699793e-002
7.8190126e-002
9.6988916e-002
1.0411460e-001
8.0413893e-002
1.0076840e-002
-1.0883170e-001
-2.3216562e-001
-2.9631031e-001
-2.6426715e-001
-1.3105735e-001
4.3839313e-002
1.7294066e-001
2.0008063e-001
1.0486734e-001
-6.8966344e-002
-2.4948558e-001
-3.9500862e-001
-4.8929963e-001
-5.3608000e-001
-5.4511005e-001
-5.1006383e-001
-4.2201477e-001
-3.0667546e-001
-2.0991394e-001
-1.7106171e-001
-2.1316861e-001
-3.1403559e-001
-4.3056437e-001
-5.4543513e-001
-6.6042817e-001
-7.8055906e-001
-9.0803707e-001
-1.0321136e+000
-1.1358036e+000
-1.2098371e+000
-1.2523931e+000
-1.2686988e+000
-1.2649733e+000
-1.2357486e+000
-1.1675240e+000
-1.0474023e+000
-8.7124044e-001
-6.6819090e-001
-4.8611736e-001
-3.6210862e-001
-3.1626964e-001
-3.3407280e-001
-3.8000619e-001
-4.2036143e-001
-4.3026417e-001
-4.0822670e-001
-3.6730137e-001
-3.1855240e-001
-2.7035800e-001
-2.3271711e-001
-2.1494684e-001
-2.1661760e-001
-2.2482556e-001
-2.0052715e-001
-1.0098559e-001
5.6704119e-002
2.1485367e-001
3.2564360e-001
3.6371213e-001
3.5115406e-001
3.3690348e-001
3.4977466e-001
4.0052959e-001
4.9944970e-001
6.4950848e-001
8.1133401e-001
9.1698301e-001
9.0544856e-001
7.4496591e-001
4.9744040e-001
2.6976678e-001
7.3313311e-002
-1.4251938e-001
-3.5675973e-001
-4.9495679e-001
-5.2339470e-001
-4.5539272e-001
-3.4522220e-001
-2.6660392e-001
-2.6819038e-001
-3.5948458e-001
-4.7047547e-001
-4.8846918e-001
-3.6340201e-001
-1.1790736e-001
1.4278242e-001
2.7844957e-001
2.3994353e-001
7.0365161e-002
-1.1680578e-001
-1.6712651e-001
6.6156164e-002
6.7771220e-001
1.5754950e+000
2.5360601e+000
3.3917892e+000
4.0790319e+000
4.7167602e+000
5.5546665e+000
6.8261938e+000
8.7179661e+000
1.1352458e+001
1.4737144e+001
1.8546572e+001
2.2242069e+001
2.5502575e+001
2.8302214e+001
3.0998070e+001
3.4196701e+001
3.8369106e+001
4.3679638e+001
4.9566681e+001
5.5038624e+001
5.9804043e+001
6.4260704e+001
6.8861404e+001
7.3884819e+001
7.9099670e+001
8.3907196e+001
8.7954933e+001
9.1195961e+001
9.3699295e+001
9.5578835e+001
9.6918945e+001
9.7757439e+001
9.8069244e+001
9.7788017e+001
9.6882576e+001
9.5397392e+001
9.3548676e+001
9.1648819e+001
8.9784698e+001
8.7801888e+001
8.5472084e+001
8.2582138e+001
7.9117027e+001
7.5232117e+001
7.1020638e+001
6.6490501e+001
6.1667839e+001
5.6632912e+001
5.1565220e+001
4.6713203e+001
4.2247627e+001
3.8243504e+001
3.4749481e+001
3.1792549e+001
2.9333817e+001
2.7277021e+001
2.5534822e+001
2.4052145e+001
2.2822359e+001
2.1879370e+001
2.1247002e+001
2.0923246e+001
2.0868816e+001
2.1016005e+001
2.1316874e+001
2.1754877e+001
2.2342239e+001
2.3121080e+001
2.4177921e+001
2.5631271e+001
2.7558313e+001
2.9963873e+001
3.2740910e+001
3.5687618e+001
3.8631279e+001
4.1459156e+001
4.4099125e+001
4.6546162e+001
4.8990108e+001
5.1734695e+001
5.4683872e+001
5.7307770e+001
5.9168159e+001
6.0082718e+001
6.0199188e+001
5.9913929e+001
5.9362022e+001
5.8338303e+001
5.6630962e+001
5.4162857e+001
5.1188145e+001
4.8251595e+001
4.5680702e+001
4.3473888e+001
4.1516830e+001
3.9649052e+001
3.7727791e+001
3.5657124e+001
3.3426964e+001
3.1125589e+001
2.8901485e+001
2.6913158e+001
2.5136560e+001
2.3335400e+001
2.1284302e+001
1.8870457e+001
1.6223457e+001
1.3704443e+001
1.1548617e+001
9.7659025e+000
8.2614288e+000
6.8847475e+000
5.5498986e+000
4.2650671e+000
3.0523143e+000
1.9322493e+000
9.5502317e-001
2.0462376e-001
-2.4677205e-001
-3.4582999e-001
-1.6479701e-002
8.2238650e-001
2.1025441e+000
3.5781689e+000
5.0456691e+000
6.4171009e+000
7.6917434e+000
8.9412746e+000
1.0206778e+001
1.1457546e+001
1.2590600e+001
1.3444499e+001
1.3924874e+001
1.4047134e+001
1.3867519e+001
1.3460893e+001
1.2894137e+001
1.2214741e+001
1.1455754e+001
1.0633444e+001
9.7480545e+000
8.7919607e+000
7.7999959e+000
6.8644981e+000
6.0708742e+000
5.4710722e+000
5.0741539e+000
4.8403544e+000
4.7238922e+000
4.6896353e+000
4.7272916e+000
4.8571711e+000
5.0997109e+000
5.4621921e+000
5.9283719e+000
6.4511123e+000
6.9683585e+000
7.4082651e+000
7.7055759e+000
7.8137188e+000
7.7228999e+000
7.4725742e+000
7.1208768e+000
6.7328386e+000
6.3493953e+000
5.9745202e+000
5.6111164e+000
5.2713490e+000
4.9606872e+000
4.6682262e+000
4.3583374e+000
3.9691870e+000
3.4671860e+000
2.8720679e+000
2.2256982e+000
1.5827943e+000
9.8408467e-001
4.4683322e-001
-3.1749755e-003
-3.2067442e-001
-4.7034055e-001
-4.3992645e-001
-2.2653978e-001
1.6253200e-001
6.9694829e-001
1.3156250e+000
1.9642479e+000
2.6098230e+000
3.2200541e+000
3.7539546e+000
4.1571569e+000
4.3627968e+000
4.3374066e+000
4.1092539e+000
3.7324772e+000
3.2797427e+000
2.8220007e+000
2.4174778e+000
2.1061473e+000
1.8984852e+000
1.7804301e+000
1.7083706e+000
1.6389103e+000
1.5433975e+000
1.4157059e+000
1.2812028e+000
1.1696115e+000
1.1040140e+000
1.0990006e+000
1.1584679e+000
1.2903286e+000
1.5132024e+000
1.8428129e+000
2.2831771e+000
2.8212960e+000
3.4181442e+000
4.0243626e+000
4.5844092e+000
5.0502110e+000
5.3933229e+000
5.6119642e+000
5.7448092e+000
5.8434925e+000
5.9634643e+000
6.1449566e+000
6.3985057e+000
6.7252331e+000
7.1225553e+000
7.5901842e+000
8.1340904e+000
8.7623291e+000
9.4838781e+000
1.0306620e+001
1.1233869e+001
1.2255040e+001
1.3340000e+001
1.4444197e+001
1.5508389e+001
1.6471102e+001
1.7268610e+001
1.7837671e+001
1.8116795e+001
1.8051241e+001
1.7609934e+001
1.6793308e+001
1.5659793e+001
1.4296599e+001
1.2827303e+001
1.1380026e+001
1.0071869e+001
8.9948940e+000
8.1893625e+000
7.6676612e+000
7.4066758e+000
7.3595686e+000
7.4466133e+000
7.5737920e+000
7.6363525e+000
7.5480580e+000
7.2692699e+000
6.7913570e+000
6.1488342e+000
5.3916469e+000
4.5807552e+000
3.7804542e+000
3.0543857e+000
2.4529319e+000
1.9962901e+000
1.6820657e+000
1.4758929e+000
1.3419400e+000
1.2590140e+000
1.2148780e+000
1.2089559e+000
1.2371845e+000
1.2817436e+000
1.3224771e+000
1.3424931e+000
1.3321657e+000
1.2964873e+000
1.2403343e+000
1.1598238e+000
1.0484867e+000
8.9914203e-001
7.1361738e-001
5.1439714e-001
3.2855898e-001
1.8067136e-001
8.1591748e-002
1.2406539e-002
-4.4376712e-002
-8.6718082e-002
-1.1240809e-001
-1.2912983e-001
-1.4002931e-001
-1.3208650e-001
-9.1886520e-002
-1.5407383e-002
8.9563318e-002
1.9275154e-001
2.6548329e-001
2.9752684e-001
2.9497835e-001
2.9226470e-001
3.2002532e-001
3.8204649e-001
4.7122175e-001
5.7080430e-001
6.7576730e-001
8.1577194e-001
1.0199257e+000
1.2935724e+000
1.6264900e+000
1.9837989e+000
2.3360023e+000
2.6823757e+000
3.0267990e+000
3.3660779e+000
3.6843309e+000
3.9376380e+000
4.0839343e+000
4.1049395e+000
3.9998240e+000
3.7984457e+000
3.5404968e+000
3.2713921e+000
3.0314682e+000
2.8430471e+000
2.7153482e+000
2.6349440e+000
2.5836599e+000
2.5467484e+000
2.5092282e+000
2.4552000e+000
2.3717532e+000
2.2563820e+000
2.1199818e+000
2.0048287e+000
1.9603657e+000
2.0329697e+000
2.2458100e+000
2.5548341e+000
2.8872526e+000
3.1352143e+000
3.2065020e+000
3.0823114e+000
2.7793422e+000
2.3681848e+000
1.9281440e+000
1.5244694e+000
1.2053260e+000
9.7564161e-001
8.1877971e-001
6.8442810e-001
5.2159595e-001
3.0334011e-001
2.0382941e-002
-2.9994643e-001
-6.2141287e-001
-9.0858167e-001
-1.1351571e+000
-1.3030190e+000
-1.4219600e+000
-1.5038593e+000
-1.5557054e+000
-1.5679172e+000
-1.5334892e+000
-1.4672489e+000
-1.3863500e+000
-1.2987291e+000
-1.2064743e+000
-1.1020818e+000
-9.8415625e-001
-8.8052446e-001
-8.1865656e-001
-8.0043203e-001
-8.1307697e-001
-8.1611776e-001
-7.7143037e-001
-6.7283320e-001
-5.2943027e-001
-3.7542862e-001
-2.4435440e-001
-1.4532691e-001
-7.7224270e-002
-2.4175467e-002
3.0152939e-002
9.0410993e-002
1.4944692e-001
1.6856751e-001
1.2006448e-001
4.4468384e-002
-7.1083382e-004
4.1485116e-002
2.0912686e-001
4.7076392e-001
7.7592880e-001
1.0678680e+000
1.3018508e+000
1.4849153e+000
1.6383328e+000
1.7876433e+000
1.9543052e+000
2.1383159e+000
2.3294640e+000
2.4996407e+000
2.6167045e+000
2.6520059e+000
2.5832119e+000
2.4125209e+000
2.1475000e+000
