Image.
>Pix99999.
  .
5555
5555
2300
900
5555
2
1
0
701
5555
3.7537999e-002
3.8318884e-002
3.9100762e-002
3.9881647e-002
4.0662531e-002
4.1443415e-002
4.2224299e-002
4.3005180e-002
4.3786064e-002
4.4566944e-002
4.5347828e-002
4.6128709e-002
4.6909593e-002
4.7690477e-002
4.8471361e-002
4.9252242e-002
5.0033126e-002
5.0814010e-002
5.1594891e-002
5.2375775e-002
5.3156655e-002
5.3938508e-002
5.4719426e-002
5.5500306e-002
5.6281190e-002
5.7062071e-002
2.4571426e-002
8.9937000e-004
-4.6399683e-003
7.1439543e-003
2.1425698e-002
1.9485464e-002
1.5629062e-002
-4.8944531e-003
-2.1443537e-002
2.6869006e-004
3.3366747e-002
1.0975365e-001
1.8077254e-001
2.2841541e-001
2.5312886e-001
2.3063302e-001
2.1034060e-001
1.9815871e-001
2.0583680e-001
2.3765287e-001
2.5557074e-001
2.5858304e-001
2.5466830e-001
2.4629760e-001
2.6553360e-001
3.0088216e-001
3.2034171e-001
3.3236551e-001
3.1928641e-001
2.9819870e-001
3.1719080e-001
3.4551832e-001
4.0379739e-001
4.6631107e-001
5.1723200e-001
5.6694293e-001
6.1526555e-001
6.6042632e-001
6.8831092e-001
7.0240307e-001
6.7246151e-001
6.3397098e-001
5.8482629e-001
5.4870552e-001
5.3931397e-001
5.3873986e-001
5.4693192e-001
5.5012721e-001
5.4669660e-001
5.5129576e-001
5.6363124e-001
5.8844918e-001
6.2143588e-001
6.4165765e-001
6.5444946e-001
6.6120648e-001
6.6562682e-001
7.0523781e-001
7.5611919e-001
8.1549352e-001
8.7669653e-001
8.8043064e-001
8.7368256e-001
8.4191704e-001
8.1057125e-001
8.0864578e-001
8.1275433e-001
8.2448143e-001
8.3417189e-001
8.3440739e-001
8.3534586e-001
8.4104174e-001
8.4733075e-001
8.5347307e-001
8.5493141e-001
8.5040915e-001
8.4265906e-001
8.3248091e-001
8.3082783e-001
8.3627546e-001
8.6988455e-001
9.2134559e-001
9.9040377e-001
1.0676076e+000
1.1249771e+000
1.1737045e+000
1.1954960e+000
1.2089337e+000
1.2101629e+000
1.2083285e+000
1.1828046e+000
1.1517316e+000
1.1070902e+000
1.0643229e+000
1.0465114e+000
1.0380964e+000
1.0465434e+000
1.0546997e+000
1.0546834e+000
1.0530858e+000
1.0521441e+000
1.0555199e+000
1.0643080e+000
1.0684656e+000
1.0645214e+000
1.0555340e+000
1.0431514e+000
1.0327621e+000
1.0251591e+000
1.0090293e+000
9.8763734e-001
9.6781534e-001
9.4954842e-001
9.5118326e-001
9.6060598e-001
9.6928412e-001
9.7661972e-001
9.8201472e-001
9.8704118e-001
1.0010195e+000
1.0126308e+000
9.9398351e-001
9.5984852e-001
8.9556080e-001
8.3069497e-001
7.8931433e-001
7.6744896e-001
7.7294964e-001
7.9085457e-001
8.1421942e-001
8.4193623e-001
8.7402165e-001
8.9501548e-001
9.0424860e-001
8.9001656e-001
8.5750449e-001
8.2019949e-001
7.8287089e-001
7.5073618e-001
7.2174728e-001
6.9520861e-001
6.6852188e-001
6.5963525e-001
6.5812421e-001
6.6839159e-001
6.8151623e-001
6.7349905e-001
6.5496850e-001
6.1664891e-001
5.7427001e-001
5.4102856e-001
5.1817310e-001
5.0848860e-001
5.0190121e-001
4.8966601e-001
4.6510690e-001
4.2394021e-001
3.6364141e-001
2.8527555e-001
2.1687664e-001
1.7102088e-001
1.8353568e-001
2.5007394e-001
3.3479130e-001
4.1928428e-001
4.4400057e-001
4.2365801e-001
3.5145310e-001
2.5281316e-001
1.5343192e-001
5.5107038e-002
9.5770787e-004
-3.4015372e-002
-5.8905920e-003
4.7422826e-002
1.2098043e-001
1.9590475e-001
2.2006731e-001
2.1324018e-001
1.4910814e-001
6.5302201e-002
-1.5102683e-002
-8.2478181e-002
-1.1862884e-001
-1.4282200e-001
-1.5682599e-001
-1.7074606e-001
-1.8485345e-001
-1.9614668e-001
-2.1354435e-001
-2.3846325e-001
-2.7817881e-001
-3.1355998e-001
-3.3807039e-001
-3.4578258e-001
-3.3838862e-001
-3.4366399e-001
-3.5557193e-001
-3.8401639e-001
-4.1708535e-001
-4.3403885e-001
-4.3846574e-001
-4.2996761e-001
-4.1767046e-001
-3.9856514e-001
-3.7654090e-001
-3.3039898e-001
-2.6903000e-001
-1.9943954e-001
-1.3345236e-001
-1.0585783e-001
-1.1658520e-001
-1.7377840e-001
-2.5793868e-001
-3.4736943e-001
-4.2089078e-001
-4.6410283e-001
-4.6957684e-001
-4.4385302e-001
-3.9727500e-001
-3.3971602e-001
-3.1503308e-001
-3.1906995e-001
-3.6722094e-001
-4.4437358e-001
-4.7343153e-001
-4.7001800e-001
-4.0277776e-001
-3.0423924e-001
-2.2218800e-001
-1.5545222e-001
-1.0329807e-001
-6.2459320e-002
-2.4966270e-002
9.8823141e-003
4.2845435e-002
7.7330925e-002
9.6199527e-002
1.0565533e-001
9.7976670e-002
8.0642737e-002
7.3180929e-002
2.7760969e-002
-7.9630330e-002
-1.9343071e-001
-2.8127450e-001
-3.1626201e-001
-2.9186070e-001
-2.4780540e-001
-2.0634036e-001
-2.2410685e-001
-3.0774009e-001
-3.9867327e-001
-4.8088628e-001
-4.4289601e-001
-3.0668703e-001
-1.2979060e-001
5.9674598e-002
9.7960383e-002
2.6662724e-002
-4.9846910e-002
-1.0230336e-001
1.8401608e-002
3.0842978e-001
8.2705027e-001
1.4723204e+000
2.0646179e+000
2.6001663e+000
3.0927141e+000
3.6962686e+000
4.5701475e+000
5.9918828e+000
8.1008062e+000
1.1144135e+001
1.5087143e+001
1.9145260e+001
2.2951340e+001
2.6369619e+001
2.9457325e+001
3.3165085e+001
3.7582066e+001
4.2931221e+001
4.9007641e+001
5.4297573e+001
5.8840698e+001
6.3161888e+001
6.7406982e+001
7.2375771e+001
7.7866928e+001
8.3185448e+001
8.8226166e+001
9.2623344e+001
9.6378838e+001
9.9461876e+001
1.0187428e+002
1.0363258e+002
1.0464260e+002
1.0481458e+002
1.0387891e+002
1.0165857e+002
9.8763321e+001
9.5764854e+001
9.2521919e+001
8.9004166e+001
8.4715416e+001
7.9536865e+001
7.4328011e+001
6.9378952e+001
6.4854134e+001
6.0739651e+001
5.6503677e+001
5.2083618e+001
4.7785828e+001
4.3636585e+001
3.9843716e+001
3.6421135e+001
3.3457489e+001
3.0954659e+001
2.8856743e+001
2.7143694e+001
2.5679157e+001
2.4477182e+001
2.3521738e+001
2.2819120e+001
2.2340000e+001
2.2069782e+001
2.1955589e+001
2.1974701e+001
2.2085627e+001
2.2278822e+001
2.2541988e+001
2.2863480e+001
2.3236473e+001
2.3709364e+001
2.4296600e+001
2.5050436e+001
2.5970232e+001
2.6994904e+001
2.8105200e+001
2.9267900e+001
3.0487499e+001
3.1976673e+001
3.3837803e+001
3.6625866e+001
4.0388969e+001
4.4344749e+001
4.8250656e+001
5.1185268e+001
5.3173763e+001
5.4796108e+001
5.6042252e+001
5.7011913e+001
5.7631279e+001
5.7799217e+001
5.7497856e+001
5.6787159e+001
5.5724766e+001
5.4459190e+001
5.2984173e+001
5.1304302e+001
4.9363426e+001
4.7111687e+001
4.4666275e+001
4.2040649e+001
3.9568844e+001
3.7380867e+001
3.5292759e+001
3.3309261e+001
3.0893505e+001
2.7909393e+001
2.4890440e+001
2.1871176e+001
1.9264135e+001
1.7112492e+001
1.4975286e+001
1.2861593e+001
1.0759704e+001
8.6981211e+000
6.7155118e+000
4.8738914e+000
3.2530000e+000
1.9144685e+000
9.2013085e-001
2.9205588e-001
5.3367313e-002
3.4408611e-001
1.1580226e+000
2.2224960e+000
3.3648901e+000
4.3510847e+000
5.0376682e+000
5.5903144e+000
6.0614758e+000
6.5348310e+000
7.0280199e+000
7.4262681e+000
7.6518431e+000
7.7415185e+000
7.6321096e+000
7.4766965e+000
7.2599802e+000
7.0227151e+000
6.7545547e+000
6.4275050e+000
6.0177083e+000
5.4872656e+000
4.8475347e+000
4.2027426e+000
3.5927482e+000
3.1232607e+000
2.8078446e+000
2.6434028e+000
2.6206896e+000
2.7000713e+000
2.8504999e+000
3.0367711e+000
3.2352326e+000
3.4544969e+000
3.6966496e+000
3.9796135e+000
4.2957230e+000
4.6453037e+000
5.0068121e+000
5.3745794e+000
5.7309284e+000
6.0561571e+000
6.3346906e+000
6.5079517e+000
6.5742068e+000
6.4607401e+000
6.2170939e+000
5.7961526e+000
5.3099313e+000
4.7582068e+000
4.2142687e+000
3.7069018e+000
3.2641101e+000
2.8909109e+000
2.5717320e+000
2.2598135e+000
1.8857123e+000
1.4615524e+000
9.9130183e-001
5.5166668e-001
2.3775679e-001
3.3698704e-002
-4.8664548e-003
4.2714916e-002
1.8033583e-001
3.4063286e-001
5.2271116e-001
7.0701265e-001
8.9481008e-001
1.0906217e+000
1.2963743e+000
1.5030289e+000
1.6884077e+000
1.8722030e+000
2.0545092e+000
2.2559228e+000
2.4988124e+000
2.7707543e+000
3.0889127e+000
3.4277458e+000
3.7875500e+000
4.1402826e+000
4.4705930e+000
4.7635107e+000
5.0047565e+000
5.1854672e+000
5.3031058e+000
5.3352942e+000
5.3117051e+000
5.2265677e+000
5.1296430e+000
5.0481668e+000
4.9836392e+000
4.9521112e+000
4.9280958e+000
4.9095197e+000
4.9034414e+000
4.9262857e+000
4.9634690e+000
5.0298719e+000
5.0903673e+000
5.1423488e+000
5.1887503e+000
5.2331529e+000
5.2973890e+000
5.3913713e+000
5.5099673e+000
5.6507359e+000
5.7816939e+000
5.8958955e+000
5.9807458e+000
6.0424175e+000
6.1016722e+000
6.1617932e+000
6.2312074e+000
6.3045998e+000
6.3724794e+000
6.4367366e+000
6.4930444e+000
6.5331383e+000
6.5280485e+000
6.4778128e+000
6.3094559e+000
6.0866485e+000
5.7261181e+000
5.3298364e+000
4.8424125e+000
4.3452349e+000
3.8272557e+000
3.3279960e+000
2.8681800e+000
2.4358640e+000
2.0511310e+000
1.6861877e+000
1.3521326e+000
1.0442605e+000
7.7129805e-001
5.3254759e-001
3.2940537e-001
1.5008092e-001
-5.6243539e-003
-1.3423161e-001
-2.3479623e-001
-2.8203171e-001
-2.9268196e-001
-2.4913798e-001
-1.7949373e-001
-7.5523995e-002
4.8996612e-002
2.2687665e-001
4.3158001e-001
7.1625137e-001
1.0099938e+000
1.3178513e+000
1.5966337e+000
1.7820842e+000
1.9251442e+000
1.9621199e+000
1.9647257e+000
1.8951782e+000
1.7843071e+000
1.6036215e+000
1.3894972e+000
1.1345756e+000
8.8667661e-001
6.5123749e-001
4.4557846e-001
2.7122468e-001
1.3524021e-001
3.4650873e-002
-1.1063977e-002
-1.6527893e-002
3.6066066e-002
1.2147792e-001
2.6345006e-001
4.2125660e-001
5.8218706e-001
7.3132372e-001
8.1495965e-001
8.8534987e-001
9.1704971e-001
9.5139587e-001
9.9980938e-001
1.0541127e+000
1.1270421e+000
1.2031100e+000
1.2839988e+000
1.3445371e+000
1.3616825e+000
1.3409746e+000
1.2644857e+000
1.1969386e+000
1.1477060e+000
1.1542143e+000
1.2165285e+000
1.2959808e+000
1.3825322e+000
1.4265509e+000
1.4362080e+000
1.3785989e+000
1.2844157e+000
1.1432513e+000
9.9010295e-001
8.6220515e-001
7.4686575e-001
6.8395358e-001
6.2694079e-001
5.6398314e-001
4.9534005e-001
3.9189929e-001
2.9368314e-001
2.1981055e-001
1.6782996e-001
1.8671221e-001
2.2259966e-001
2.9687786e-001
3.5116771e-001
3.6377254e-001
3.3044645e-001
2.3097032e-001
1.3123891e-001
3.4418710e-002
-3.2605849e-002
-7.3534846e-002
-1.2068309e-001
-1.6983442e-001
-1.9805366e-001
-2.1161310e-001
-1.8371652e-001
-1.4589369e-001
-1.6960257e-001
-2.1951452e-001
-3.7615758e-001
-5.5045325e-001
-7.2128600e-001
-8.8474929e-001
-9.6598315e-001
-1.0386840e+000
-1.0578029e+000
-1.0683110e+000
-1.0406429e+000
-1.0061290e+000
-9.5144629e-001
-9.0550631e-001
-8.7996572e-001
-8.6069953e-001
-8.5047424e-001
-8.2051516e-001
-7.6404083e-001
-7.1049917e-001
-6.6359919e-001
-6.7561436e-001
-7.3604739e-001
-8.2467437e-001
-9.2678380e-001
-9.6852201e-001
-9.7897166e-001
-9.1053510e-001
-8.1503534e-001
-6.7778897e-001
-5.3172559e-001
-3.8225532e-001
-2.3449039e-001
-1.3555302e-001
-4.3056846e-002
-1.4193322e-002
2.8883666e-004
6.9993734e-003
-3.3971794e-002
-2.3646429e-003
5.2358858e-002
1.7449671e-001
2.7779770e-001
3.4043536e-001
3.7924057e-001
3.8076717e-001
4.1165763e-001
4.7824705e-001
5.3437352e-001
5.7989436e-001
5.8098483e-001
5.5039144e-001
5.0616056e-001
4.5480511e-001
3.3126485e-001
1.8136449e-001
5.8113039e-003
-1.7466259e-001
-1.8683635e-001
-1.7138380e-001
-2.0254999e-002
