Image.
>Pix99999.
  .
5555
5555
2300
900
5555
2
1
0
701
5555
2.6301000e-002
2.6848217e-002
2.7395433e-002
2.7942652e-002
2.8489869e-002
2.9037086e-002
2.9584302e-002
3.0131521e-002
3.0678738e-002
3.1224966e-002
3.1773157e-002
3.2320388e-002
3.2866623e-002
3.3410877e-002
3.3961959e-002
3.4522954e-002
3.5055820e-002
3.5551958e-002
3.6148570e-002
3.6888778e-002
3.7249971e-002
3.7078612e-002
3.8315676e-002
4.1537900e-002
3.9527223e-002
2.7499678e-002
1.9178903e-002
2.2723598e-002
2.9763361e-003
-7.8420930e-002
-2.2328927e-001
-4.1342297e-001
-5.9226090e-001
-7.0174682e-001
-7.2182113e-001
-6.5345854e-001
-5.3772730e-001
-4.2358100e-001
-3.4489077e-001
-3.2253307e-001
-3.4352285e-001
-3.8471067e-001
-4.2256221e-001
-4.3815708e-001
-4.3102679e-001
-4.0926799e-001
-3.9290816e-001
-4.0072215e-001
-4.3196672e-001
-4.7570732e-001
-5.0440288e-001
-4.9262050e-001
-4.4405085e-001
-3.7544757e-001
-3.1892142e-001
-3.0479914e-001
-3.3692360e-001
-4.0602821e-001
-4.8453772e-001
-5.4280120e-001
-5.6614739e-001
-5.4892993e-001
-5.0190401e-001
-4.3916079e-001
-3.6683714e-001
-2.8941914e-001
-2.1596323e-001
-1.5950610e-001
-1.4301041e-001
-1.8596098e-001
-2.8007901e-001
-4.0284261e-001
-5.1240861e-001
-5.6782097e-001
-5.5794704e-001
-4.8901823e-001
-3.9540961e-001
-3.1762591e-001
-2.8224298e-001
-3.0240366e-001
-3.5736486e-001
-4.1500485e-001
-4.4542769e-001
-4.2812204e-001
-3.7647718e-001
-3.1574273e-001
-2.6985115e-001
-2.5719282e-001
-2.7720404e-001
-3.2140267e-001
-3.7742871e-001
-4.3310368e-001
-4.8184639e-001
-5.2081263e-001
-5.5356610e-001
-5.8258855e-001
-5.9619439e-001
-5.7969308e-001
-5.2876759e-001
-4.4861534e-001
-3.6677429e-001
-3.1482443e-001
-3.0597973e-001
-3.3900231e-001
-3.8371286e-001
-4.0446699e-001
-3.8883847e-001
-3.4082156e-001
-2.9260239e-001
-2.7990192e-001
-3.0824986e-001
-3.6685622e-001
-4.2958000e-001
-4.7078970e-001
-4.9074519e-001
-5.0175864e-001
-5.2141058e-001
-5.6440079e-001
-6.2633622e-001
-6.9414496e-001
-7.5185853e-001
-7.8507936e-001
-7.8936940e-001
-7.6646322e-001
-7.2628474e-001
-6.8229896e-001
-6.4914221e-001
-6.3855761e-001
-6.4878196e-001
-6.7202282e-001
-6.9977683e-001
-7.2512567e-001
-7.4791789e-001
-7.6915812e-001
-7.8221411e-001
-7.7640969e-001
-7.3880070e-001
-6.6186595e-001
-5.6434411e-001
-4.7865066e-001
-4.4497198e-001
-4.9536407e-001
-6.1535740e-001
-7.6848477e-001
-9.1557074e-001
-1.0237094e+000
-1.0864623e+000
-1.1096081e+000
-1.0987635e+000
-1.0598935e+000
-1.0040822e+000
-9.4468302e-001
-8.9472038e-001
-8.6430037e-001
-8.5242999e-001
-8.5375315e-001
-8.6672235e-001
-8.9054477e-001
-9.1815645e-001
-9.3618333e-001
-9.1781175e-001
-8.3666003e-001
-6.9553655e-001
-5.1947260e-001
-3.6560872e-001
-2.9497364e-001
-3.2148194e-001
-4.2674866e-001
-5.5908322e-001
-6.6222787e-001
-7.2463173e-001
-7.5968069e-001
-7.8569698e-001
-8.1699049e-001
-8.4725183e-001
-8.6172247e-001
-8.5525692e-001
-8.3055305e-001
-7.9912090e-001
-7.7533954e-001
-7.6796943e-001
-7.8069729e-001
-8.0939305e-001
-8.4486908e-001
-8.7289065e-001
-8.7682140e-001
-8.4001482e-001
-7.5354910e-001
-6.4122677e-001
-5.4123646e-001
-4.7735772e-001
-4.5850173e-001
-4.6958983e-001
-4.8876810e-001
-5.1877826e-001
-5.7211775e-001
-6.3986880e-001
-6.9617373e-001
-6.9889379e-001
-6.0982275e-001
-4.4279569e-001
-2.4683145e-001
-9.2889026e-002
-4.9672280e-002
-1.3304566e-001
-3.2012641e-001
-5.5497557e-001
-7.7261728e-001
-9.3974620e-001
-1.0447497e+000
-1.0839800e+000
-1.0549413e+000
-9.4941086e-001
-7.6608020e-001
-5.5040962e-001
-3.7259999e-001
-2.8749433e-001
-3.2332629e-001
-4.4365218e-001
-5.8053166e-001
-6.9405031e-001
-7.7030009e-001
-8.1815404e-001
-8.5718322e-001
-9.0205002e-001
-9.5984107e-001
-1.0228438e+000
-1.0739775e+000
-1.0942966e+000
-1.0654430e+000
-9.7367126e-001
-8.1060481e-001
-5.7863212e-001
-2.9831344e-001
-4.2588606e-002
9.5235586e-002
7.7424332e-002
-8.0935761e-002
-3.0438381e-001
-4.9418339e-001
-6.0282600e-001
-6.2814975e-001
-6.0396850e-001
-5.7480586e-001
-5.4631716e-001
-5.0001252e-001
-4.3459657e-001
-3.6550722e-001
-3.1704554e-001
-3.0613050e-001
-2.9718858e-001
-2.3150568e-001
-1.0866264e-001
2.9074669e-002
1.4566348e-001
2.2191386e-001
2.7124166e-001
3.2466376e-001
3.9639601e-001
4.9025729e-001
6.2811488e-001
8.3224082e-001
1.0604820e+000
1.2233108e+000
1.2304617e+000
1.0261670e+000
6.8695140e-001
3.6098507e-001
9.4447032e-002
-1.3783380e-001
-2.9410356e-001
-2.8546137e-001
-8.2422711e-002
2.7606875e-001
6.7294085e-001
9.5474070e-001
1.0326639e+000
8.9901757e-001
6.6896451e-001
5.1847756e-001
5.1665801e-001
6.2279773e-001
7.1320206e-001
6.4167887e-001
3.8796216e-001
4.7248363e-002
-2.2670096e-001
-2.5738701e-001
9.8542511e-002
9.0810513e-001
2.0208228e+000
3.1460454e+000
4.1064405e+000
4.8756208e+000
5.6040902e+000
6.5582914e+000
7.9752359e+000
1.0027868e+001
1.2784463e+001
1.6180647e+001
1.9889000e+001
2.3430590e+001
2.6560305e+001
2.9321585e+001
3.2087563e+001
3.5424858e+001
3.9698189e+001
4.4943245e+001
5.0588322e+001
5.5743530e+001
6.0235229e+001
6.4552582e+001
6.9141037e+001
7.4189430e+001
7.9368454e+001
8.4001701e+001
8.7732315e+001
9.0571327e+001
9.2649918e+001
9.4133270e+001
9.5133034e+001
9.5701744e+001
9.5867897e+001
9.5639107e+001
9.4977921e+001
9.3834320e+001
9.2285645e+001
9.0507744e+001
8.8567856e+001
8.6401588e+001
8.3875824e+001
8.0853813e+001
7.7363792e+001
7.3569664e+001
6.9545280e+001
6.5254425e+001
6.0673481e+001
5.5836514e+001
5.0892658e+001
4.6081203e+001
4.1589912e+001
3.7531757e+001
3.3980843e+001
3.0971048e+001
2.8464422e+001
2.6364227e+001
2.4594236e+001
2.3116249e+001
2.1924006e+001
2.1032946e+001
2.0437500e+001
2.0103306e+001
1.9985064e+001
2.0037451e+001
2.0246826e+001
2.0634529e+001
2.1222052e+001
2.2032169e+001
2.3132883e+001
2.4630732e+001
2.6596800e+001
2.9035402e+001
3.1828875e+001
3.4759289e+001
3.7663639e+001
4.0462456e+001
4.3113735e+001
4.5635868e+001
4.8253937e+001
5.1299652e+001
5.4608398e+001
5.7497139e+001
5.9443474e+001
6.0289188e+001
6.0274971e+001
5.9931286e+001
5.9483906e+001
5.8742878e+001
5.7408543e+001
5.5232193e+001
5.2359570e+001
4.9337845e+001
4.6601742e+001
4.4329453e+001
4.2490532e+001
4.0873600e+001
3.9241493e+001
3.7393433e+001
3.5245399e+001
3.2861393e+001
3.0416372e+001
2.8138523e+001
2.6060001e+001
2.3977808e+001
2.1708300e+001
1.9185207e+001
1.6552332e+001
1.4141506e+001
1.2126566e+001
1.0437651e+001
8.9496717e+000
7.5463853e+000
6.1826677e+000
4.8917890e+000
3.6804285e+000
2.5146728e+000
1.4195359e+000
5.0334501e-001
-1.1666949e-001
-3.3269674e-001
-3.0563384e-002
8.7661231e-001
2.2732127e+000
3.8166289e+000
5.2479558e+000
6.4943151e+000
7.6035600e+000
8.7183867e+000
9.9464140e+000
1.1301831e+001
1.2667800e+001
1.3795924e+001
1.4495034e+001
1.4703803e+001
1.4467206e+001
1.3934072e+001
1.3253997e+001
1.2541780e+001
1.1859155e+001
1.1205293e+001
1.0534215e+001
9.7688951e+000
8.8952818e+000
7.9920788e+000
7.1629362e+000
6.5073981e+000
6.0759301e+000
5.8484173e+000
5.7709470e+000
5.7689877e+000
5.7921944e+000
5.8350892e+000
5.9257007e+000
6.1193733e+000
6.4430590e+000
6.8711376e+000
7.3494802e+000
7.7994566e+000
8.1378593e+000
8.2886629e+000
8.2118855e+000
7.9238482e+000
7.4866228e+000
7.0042334e+000
6.5515347e+000
6.1447101e+000
5.7765636e+000
5.4254999e+000
5.0742717e+000
4.7149587e+000
4.3309889e+000
3.8929684e+000
3.3883100e+000
2.8346505e+000
2.2596731e+000
1.6941292e+000
1.1579757e+000
6.5662301e-001
2.1183057e-001
-1.2605757e-001
-3.1354830e-001
-3.3039737e-001
-1.7606948e-001
1.2700000e-001
5.5135387e-001
1.0715089e+000
1.6729920e+000
2.3527706e+000
3.0781016e+000
3.7626541e+000
4.2989883e+000
4.5763392e+000
4.5478134e+000
4.2734842e+000
3.8428433e+000
3.3515842e+000
2.8835802e+000
2.4965932e+000
2.2201138e+000
2.0434792e+000
1.9295200e+000
1.8143308e+000
1.6460823e+000
1.4073907e+000
1.1118594e+000
8.1173998e-001
5.6141347e-001
4.0119469e-001
3.5157079e-001
4.0435821e-001
5.4600143e-001
7.6609570e-001
1.0619991e+000
1.4418106e+000
1.9052560e+000
2.4312809e+000
2.9843585e+000
3.5127354e+000
3.9694228e+000
4.3254900e+000
4.5711746e+000
4.7258263e+000
4.8241062e+000
4.9161482e+000
5.0494976e+000
5.2593756e+000
5.5672426e+000
5.9743719e+000
6.4750042e+000
7.0597391e+000
7.7226400e+000
8.4664421e+000
9.2976475e+000
1.0225167e+001
1.1247801e+001
1.2343000e+001
1.3468660e+001
1.4556839e+001
1.5534086e+001
1.6332169e+001
1.6892942e+001
1.7177519e+001
1.7153280e+001
1.6790268e+001
1.6076447e+001
1.5043121e+001
1.3753845e+001
1.2323864e+001
1.0880027e+001
9.5448732e+000
8.4208660e+000
7.5638180e+000
7.0026116e+000
6.7296457e+000
6.7104201e+000
6.8709936e+000
7.1121440e+000
7.3042145e+000
7.3283958e+000
7.1085896e+000
6.6154499e+000
5.8987184e+000
5.0400419e+000
4.1470871e+000
3.3159933e+000
2.6027186e+000
2.0364497e+000
1.6097211e+000
1.3065277e+000
1.1114882e+000
1.0043720e+000
9.5533657e-001
9.3359452e-001
9.1328001e-001
8.8210130e-001
8.5466617e-001
8.4617412e-001
8.5818642e-001
8.8294238e-001
8.9966512e-001
8.8983899e-001
8.4730965e-001
7.7066571e-001
6.6304314e-001
5.3172743e-001
3.9123642e-001
2.5946414e-001
1.5603276e-001
8.3701238e-002
7.2711855e-003
-9.6118681e-002
-1.9939610e-001
-2.6878273e-001
-2.8417239e-001
-2.4046263e-001
-1.6052184e-001
-7.1950965e-002
3.7524849e-003
5.8155160e-002
1.1081512e-001
1.8453428e-001
2.9269364e-001
4.3782896e-001
6.0135806e-001
7.6105887e-001
8.9835250e-001
9.9693269e-001
1.0453591e+000
1.0467786e+000
1.0394042e+000
1.0780429e+000
1.2351528e+000
1.5574601e+000
2.0123410e+000
2.5380158e+000
3.0476763e+000
3.4668982e+000
3.7694626e+000
3.9414268e+000
3.9713681e+000
3.8604872e+000
3.6419528e+000
3.3631110e+000
3.0876896e+000
2.8641455e+000
2.6900115e+000
2.5488160e+000
2.4211431e+000
2.2996182e+000
2.2121425e+000
2.1849058e+000
2.2161112e+000
2.2850416e+000
2.3390419e+000
2.3356476e+000
2.2835891e+000
2.2097631e+000
2.1566663e+000
2.1596525e+000
2.2216442e+000
2.3317099e+000
2.4614694e+000
2.5753267e+000
2.6308358e+000
2.5993919e+000
2.4990020e+000
2.3593130e+000
2.2107360e+000
2.0702193e+000
1.9148818e+000
1.7215314e+000
1.4954175e+000
1.2519392e+000
1.0143111e+000
7.9603601e-001
5.7386541e-001
3.1947657e-001
1.7034799e-002
-3.3153844e-001
-6.7879450e-001
-9.7330141e-001
-1.1870410e+000
-1.3081411e+000
-1.3579022e+000
-1.3593794e+000
-1.3152357e+000
-1.2289680e+000
-1.1221992e+000
-1.0194566e+000
-9.3893677e-001
-8.8653773e-001
-8.3229274e-001
-7.4609345e-001
-6.2660658e-001
-4.8005036e-001
-3.1392950e-001
-1.3379671e-001
6.2076584e-002
2.6645124e-001
4.3544787e-001
5.2238274e-001
5.0297517e-001
3.7628001e-001
2.0351407e-001
5.8640387e-002
5.9979111e-003
9.7715646e-002
3.5028300e-001
7.5157273e-001
1.2185030e+000
1.6548829e+000
1.9819442e+000
2.1496909e+000
2.1985223e+000
2.1960492e+000
2.2265258e+000
2.3551061e+000
2.5607588e+000
2.8003173e+000
3.0277255e+000
3.2065899e+000
3.3382740e+000
3.4371662e+000
3.5305681e+000
3.6476073e+000
3.8120108e+000
4.0374150e+000
4.3021626e+000
4.5729647e+000
4.8052092e+000
4.9516001e+000
