Image.
>Pix99999.
  .
5555
5555
2300
900
5555
2
1
0
701
5555
5.7298001e-003
5.8490294e-003
5.9681591e-003
6.0872887e-003
6.2066172e-003
6.3258475e-003
6.4449776e-003
6.5641068e-003
6.6833356e-003
6.8024662e-003
6.9216941e-003
7.0410222e-003
7.1601546e-003
7.2793826e-003
7.3986119e-003
7.5177434e-003
7.6368731e-003
7.7561005e-003
7.8753298e-003
7.9945587e-003
8.1137884e-003
8.2329214e-003
8.3522443e-003
8.4713800e-003
8.5905092e-003
8.7097352e-003
3.2366285e-004
3.7605320e-003
1.7449897e-002
1.5787238e-002
1.1827972e-002
-1.5731947e-002
-4.4063587e-002
-5.1587872e-002
-5.1576320e-002
7.3427008e-004
5.5024765e-002
1.0634208e-001
1.3844280e-001
1.1256630e-001
7.5656399e-002
2.1790266e-002
-8.2565397e-003
2.1862509e-003
3.9200686e-002
1.0623171e-001
1.6881061e-001
2.2522396e-001
2.6058406e-001
2.8048700e-001
2.7886644e-001
2.6544675e-001
2.3420393e-001
1.9549254e-001
1.8042134e-001
1.7319036e-001
1.9934921e-001
2.3307596e-001
2.2085555e-001
2.0124066e-001
1.4282857e-001
8.5879713e-002
8.6116068e-002
1.0088862e-001
1.6796245e-001
2.3968472e-001
3.0980435e-001
3.7563169e-001
4.3086192e-001
4.7958788e-001
5.1800001e-001
5.3973836e-001
5.3887224e-001
5.2757645e-001
5.0717121e-001
4.9800822e-001
4.9964926e-001
5.0870758e-001
5.2216780e-001
5.3706264e-001
5.5247974e-001
5.7664013e-001
6.0440475e-001
6.2196153e-001
6.3614720e-001
6.2793607e-001
6.1460578e-001
6.1296505e-001
6.1444753e-001
6.3880318e-001
6.6506428e-001
6.8100888e-001
6.8871808e-001
6.6634321e-001
6.3503385e-001
5.9008265e-001
5.4800361e-001
5.1679724e-001
4.9839681e-001
4.9884319e-001
5.2049714e-001
5.6637073e-001
6.2397265e-001
6.9005406e-001
7.2282231e-001
7.2692901e-001
6.9575655e-001
6.4385974e-001
6.1704654e-001
6.0494167e-001
6.2499142e-001
6.5771425e-001
6.8443078e-001
7.0883375e-001
7.3235589e-001
7.5586778e-001
7.7811098e-001
7.9846710e-001
7.9945040e-001
7.9653811e-001
7.9310685e-001
7.9331887e-001
8.0763447e-001
8.2342941e-001
8.3664322e-001
8.4303182e-001
8.3751762e-001
8.2707298e-001
8.1195486e-001
7.9738790e-001
7.8375083e-001
7.7980125e-001
7.8521490e-001
7.9780090e-001
8.1520450e-001
8.2704586e-001
8.3514726e-001
8.6170566e-001
8.9836675e-001
9.5943749e-001
1.0299020e+000
1.0715910e+000
1.1026535e+000
1.0791198e+000
1.0399668e+000
9.8422068e-001
9.2917949e-001
9.1036600e-001
9.1096807e-001
9.5811141e-001
1.0184650e+000
1.0849098e+000
1.1406217e+000
1.1667690e+000
1.1726160e+000
1.1527015e+000
1.1257617e+000
1.0976697e+000
1.0817763e+000
1.0812413e+000
1.1003371e+000
1.1351371e+000
1.1681100e+000
1.1977239e+000
1.1886497e+000
1.1553686e+000
1.0931238e+000
1.0169563e+000
9.6666878e-001
9.2821842e-001
9.1974300e-001
9.2121470e-001
9.1745883e-001
9.0970826e-001
8.9079303e-001
8.6889499e-001
8.4822404e-001
8.3300120e-001
8.2711917e-001
8.2384622e-001
8.1786197e-001
8.0518842e-001
7.8375578e-001
7.5771457e-001
7.3148745e-001
7.1296418e-001
7.0650107e-001
7.1332371e-001
7.2940737e-001
7.4056071e-001
7.4214411e-001
7.4011028e-001
7.3714948e-001
7.4108201e-001
7.5049281e-001
7.4808306e-001
7.3821080e-001
7.2920585e-001
7.2011453e-001
7.4568492e-001
7.8472859e-001
8.2673383e-001
8.6279655e-001
8.4662831e-001
8.0429512e-001
7.3046643e-001
6.5508431e-001
6.0972947e-001
5.8904964e-001
6.0296130e-001
6.2340903e-001
6.3895929e-001
6.3725090e-001
6.1503959e-001
5.9080994e-001
5.6581253e-001
5.4984546e-001
5.3806829e-001
5.2134222e-001
5.0145292e-001
4.7298628e-001
4.4101074e-001
3.9923176e-001
3.5372987e-001
2.9864201e-001
2.4113035e-001
1.9764841e-001
1.6507883e-001
1.6900891e-001
1.8941319e-001
2.2068100e-001
2.5167769e-001
2.7129593e-001
2.8268781e-001
2.7785474e-001
2.6828328e-001
2.5256416e-001
2.3767261e-001
2.3078321e-001
2.2926535e-001
2.3805143e-001
2.4195871e-001
2.3633917e-001
2.1745096e-001
1.8462732e-001
1.5592000e-001
1.3530226e-001
1.0696629e-001
7.2167292e-002
2.7410880e-002
-2.3354642e-002
-1.8856170e-002
2.2260783e-002
1.1105148e-001
2.2281808e-001
2.9464221e-001
3.3714926e-001
3.3551148e-001
3.0570546e-001
2.6263031e-001
2.1459171e-001
1.7670956e-001
1.5375128e-001
1.4634600e-001
1.4577018e-001
1.3534972e-001
1.1291860e-001
8.4202133e-002
2.7787773e-002
-6.5031737e-002
-1.4971343e-001
-2.0231265e-001
-2.3285268e-001
-2.4641410e-001
-2.7090552e-001
-3.1533143e-001
-3.8346529e-001
-4.7570843e-001
-5.5819261e-001
-6.2600219e-001
-6.2985200e-001
-5.8186483e-001
-4.7730431e-001
-3.4046650e-001
-2.5017205e-001
-1.9837093e-001
-1.5959725e-001
-1.1601502e-001
-4.2548925e-003
1.7867324e-001
5.3055674e-001
1.0056906e+000
1.5073811e+000
2.0125864e+000
2.5073380e+000
3.1187735e+000
3.9739594e+000
5.3397555e+000
7.3532715e+000
1.0267662e+001
1.4066143e+001
1.8015659e+001
2.1763460e+001
2.5114843e+001
2.8103662e+001
3.1594236e+001
3.5681377e+001
4.0638176e+001
4.6288399e+001
5.1284004e+001
5.5648987e+001
5.9807083e+001
6.3898842e+001
6.8772575e+001
7.4230453e+001
7.9645500e+001
8.4881882e+001
8.9491905e+001
9.3524010e+001
9.7048424e+001
1.0005354e+002
1.0254115e+002
1.0433300e+002
1.0526390e+002
1.0506029e+002
1.0354357e+002
1.0111972e+002
9.8229668e+001
9.4846100e+001
9.1030495e+001
8.6541641e+001
8.1364967e+001
7.6218712e+001
7.1338181e+001
6.6822563e+001
6.2648109e+001
5.8418762e+001
5.4081215e+001
4.9851719e+001
4.5747181e+001
4.1896088e+001
3.8323177e+001
3.5199570e+001
3.2531528e+001
3.0276949e+001
2.8410070e+001
2.6779657e+001
2.5405958e+001
2.4288290e+001
2.3438421e+001
2.2833500e+001
2.2454929e+001
2.2243349e+001
2.2170599e+001
2.2188164e+001
2.2284042e+001
2.2442915e+001
2.2659010e+001
2.2927685e+001
2.3297649e+001
2.3783571e+001
2.4442787e+001
2.5280087e+001
2.6259571e+001
2.7368080e+001
2.8507580e+001
2.9669394e+001
3.0964457e+001
3.2479382e+001
3.4845909e+001
3.8148914e+001
4.1915710e+001
4.5930286e+001
4.9161690e+001
5.1623428e+001
5.3757893e+001
5.5557930e+001
5.7118771e+001
5.8260098e+001
5.8738056e+001
5.8544628e+001
5.7787106e+001
5.6638229e+001
5.5351456e+001
5.3922058e+001
5.2352802e+001
5.0568649e+001
4.8513348e+001
4.6254372e+001
4.3793400e+001
4.1441299e+001
3.9313469e+001
3.7212002e+001
3.5117195e+001
3.2470890e+001
2.9116613e+001
2.5812138e+001
2.2634172e+001
2.0008945e+001
1.7989820e+001
1.5968428e+001
1.3930523e+001
1.1821497e+001
9.6623135e+000
7.5361900e+000
5.5153394e+000
3.7175760e+000
2.2225361e+000
1.1063775e+000
3.8295865e-001
6.8760931e-002
2.7233255e-001
9.4455683e-001
1.8241280e+000
2.7607484e+000
3.5837185e+000
4.1861086e+000
4.6837277e+000
5.1100016e+000
5.5406990e+000
5.9948602e+000
6.4073634e+000
6.7351651e+000
6.9119363e+000
6.8602099e+000
6.7142429e+000
6.4425473e+000
6.1520648e+000
5.8353558e+000
5.4819951e+000
5.0739641e+000
4.5782213e+000
4.0081148e+000
3.4525328e+000
2.9419920e+000
2.5445628e+000
2.2681410e+000
2.1037216e+000
2.0570290e+000
2.1181414e+000
2.2695372e+000
2.4959669e+000
2.7501659e+000
3.0151210e+000
3.2866709e+000
3.5698893e+000
3.8721488e+000
4.1979642e+000
4.5326962e+000
4.8735375e+000
5.2096715e+000
5.5296822e+000
5.8110204e+000
6.0074439e+000
6.1084919e+000
6.0517850e+000
5.8872814e+000
5.5732131e+000
5.1934471e+000
4.7364302e+000
4.2507629e+000
3.7546167e+000
3.2934999e+000
2.8822122e+000
2.5369401e+000
2.2157536e+000
1.8484263e+000
1.4391785e+000
9.8451799e-001
5.5933243e-001
2.5733280e-001
5.8760352e-002
7.3234173e-003
2.9859256e-002
1.2535807e-001
2.4976429e-001
4.2164800e-001
6.0456157e-001
8.0236673e-001
9.9575406e-001
1.1752000e+000
1.3506738e+000
1.5060925e+000
1.6702631e+000
1.8499943e+000
2.0520380e+000
2.2966354e+000
2.5719934e+000
2.8928239e+000
3.2359831e+000
3.5961699e+000
3.9341679e+000
4.2361202e+000
4.4895401e+000
4.6929760e+000
4.8555584e+000
4.9788594e+000
5.0540142e+000
5.0942578e+000
5.0892315e+000
5.0651999e+000
5.0249190e+000
4.9874377e+000
4.9653683e+000
4.9564838e+000
4.9752893e+000
4.9988647e+000
5.0279231e+000
5.0557199e+000
5.0804582e+000
5.1103997e+000
5.1531768e+000
5.2027783e+000
5.2669268e+000
5.3413639e+000
5.4297314e+000
5.5247698e+000
5.6226592e+000
5.7093377e+000
5.7863564e+000
5.8664889e+000
5.9567747e+000
6.0764914e+000
6.2166457e+000
6.3654451e+000
6.5090251e+000
6.6175876e+000
6.6962752e+000
6.7172041e+000
6.7052655e+000
6.6380301e+000
6.5407887e+000
6.3798523e+000
6.1805182e+000
5.8774195e+000
5.5369449e+000
5.0974536e+000
4.6442547e+000
4.1600442e+000
3.6832950e+000
3.2231543e+000
2.7802086e+000
2.3711002e+000
1.9966531e+000
1.6764275e+000
1.4013357e+000
1.1792799e+000
9.7899050e-001
7.9870033e-001
6.2150431e-001
4.5147574e-001
3.0178761e-001
1.6979113e-001
6.3641720e-002
-2.6248351e-002
-9.6080609e-002
-1.4472982e-001
-1.3359725e-001
-7.9712361e-002
9.3914032e-002
3.1021199e-001
6.3352472e-001
9.5887625e-001
1.2651510e+000
1.5322096e+000
1.6766893e+000
1.7816292e+000
1.7895730e+000
1.7772640e+000
1.7231679e+000
1.6483543e+000
1.5357265e+000
1.3898863e+000
1.1981452e+000
9.8422742e-001
7.5018716e-001
5.3112245e-001
3.3116734e-001
1.6910122e-001
4.1932985e-002
-3.1761773e-002
-6.3038364e-002
-9.9789239e-003
8.6385697e-002
2.4128549e-001
4.0917102e-001
5.6202185e-001
7.0259863e-001
7.9220283e-001
8.7184596e-001
9.2329925e-001
9.7552109e-001
1.0329024e+000
1.0907644e+000
1.1494194e+000
1.2025549e+000
1.2416040e+000
1.2755314e+000
1.2992932e+000
1.3214713e+000
1.3422571e+000
1.3698914e+000
1.4080940e+000
1.4626278e+000
1.5343320e+000
1.6175128e+000
1.7081845e+000
1.7890308e+000
1.8577726e+000
1.8794780e+000
1.8705243e+000
1.7936747e+000
1.6867223e+000
1.5238630e+000
1.3475171e+000
1.1646693e+000
9.9283767e-001
9.0828872e-001
8.4173739e-001
8.6301506e-001
8.8113743e-001
8.8437933e-001
8.7218630e-001
8.1058961e-001
7.3778218e-001
6.3808322e-001
5.3714216e-001
4.3324834e-001
3.2632500e-001
2.1256709e-001
7.6006398e-002
-8.5737333e-002
-2.4441457e-001
-3.9479792e-001
-4.9139827e-001
-5.4825938e-001
-5.7576007e-001
-5.8870542e-001
-6.0799152e-001
-6.3146526e-001
-6.7194569e-001
-7.2192550e-001
-8.2636416e-001
-9.4041234e-001
-1.0597839e+000
-1.1698507e+000
-1.1675369e+000
-1.1552804e+000
-1.0831234e+000
-1.0231118e+000
-1.0167928e+000
-1.0167650e+000
-1.0349206e+000
-1.0317448e+000
-9.7978926e-001
-9.1864169e-001
-8.4169078e-001
-7.7089059e-001
-7.0782918e-001
-6.4207840e-001
-5.7443428e-001
-5.1972294e-001
-4.7628677e-001
-4.5012587e-001
-4.3327817e-001
-3.9943951e-001
-3.5645658e-001
-2.8501406e-001
-2.0534234e-001
-1.4111491e-001
-8.2859442e-002
-8.0975525e-002
-8.6368963e-002
-1.0220226e-001
-1.1233957e-001
-3.6324643e-002
2.3079067e-003
7.1892515e-002
2.1178348e-001
3.7398469e-001
5.1549202e-001
5.9593201e-001
6.4930069e-001
6.4456332e-001
6.1926174e-001
5.6115502e-001
4.9932459e-001
4.3315336e-001
3.6719874e-001
3.0064553e-001
1.9254261e-001
5.5007957e-002
-8.3631724e-002
-2.2113821e-001
-2.3752531e-001
-2.0613091e-001
-9.7092599e-002
3.2693621e-002
9.3387529e-002
1.4314468e-001
1.5340000e-001
