Image.
>Pix99999.
  .
5555
5555
2300
900
5555
2
1
0
701
5555
-3.0618999e-002
-3.1270068e-002
-3.1920142e-002
-3.2571208e-002
-3.3221278e-002
-3.3872344e-002
-3.4522418e-002
-3.5173479e-002
-3.5823561e-002
-3.6474619e-002
-3.7124701e-002
-3.7775755e-002
-3.8425840e-002
-3.9075911e-002
-3.9726961e-002
-4.0377051e-002
-4.1028097e-002
-4.1678190e-002
-4.2329233e-002
-4.2979330e-002
-4.3630369e-002
-4.4280469e-002
-4.4931509e-002
-4.5581609e-002
-4.6232644e-002
-4.6882749e-002
-1.7422228e-003
1.1386198e-002
-4.9704402e-003
-2.1123171e-002
-3.7022971e-002
-4.0719323e-002
-4.4379361e-002
-6.6980161e-002
-9.4133452e-002
-1.5011364e-001
-1.9924234e-001
-2.1013221e-001
-1.9721813e-001
-1.1791375e-001
-3.1505056e-002
6.2226772e-002
1.1870740e-001
1.1369119e-001
7.0881113e-002
-1.4352065e-002
-5.9749108e-002
-6.4181164e-002
2.5255973e-003
1.2037956e-001
2.4413428e-001
3.6935645e-001
4.5911118e-001
5.3327471e-001
5.7483912e-001
6.0612863e-001
6.0544884e-001
5.9755588e-001
5.6898052e-001
5.3751427e-001
5.1892316e-001
5.0349069e-001
5.1057243e-001
5.2291059e-001
5.5324239e-001
5.9164017e-001
6.5318137e-001
7.1013033e-001
7.4937713e-001
7.6565802e-001
7.4169600e-001
7.1550816e-001
6.9211906e-001
6.8296838e-001
6.8953997e-001
6.9615108e-001
7.0135957e-001
7.1742272e-001
7.4118996e-001
8.1151259e-001
9.0674174e-001
1.0197721e+000
1.1391312e+000
1.1855484e+000
1.2084680e+000
1.1454586e+000
1.0629832e+000
9.6427917e-001
8.6595380e-001
8.2015467e-001
7.9234397e-001
8.4246498e-001
9.1099942e-001
1.0107244e+000
1.1054578e+000
1.1713264e+000
1.2136966e+000
1.2135007e+000
1.1953140e+000
1.1573844e+000
1.1158571e+000
1.0737033e+000
1.0226645e+000
9.6263456e-001
9.0015578e-001
8.3641303e-001
8.1380987e-001
8.1836879e-001
8.6787492e-001
9.3930912e-001
1.0012122e+000
1.0581408e+000
1.0932239e+000
1.1215961e+000
1.1623483e+000
1.2065892e+000
1.2485228e+000
1.2873816e+000
1.2942989e+000
1.2917440e+000
1.2718114e+000
1.2506782e+000
1.2388428e+000
1.2348745e+000
1.2480595e+000
1.2684143e+000
1.2971280e+000
1.3347698e+000
1.3824303e+000
1.4375063e+000
1.4977343e+000
1.5352740e+000
1.5501446e+000
1.5248220e+000
1.4719071e+000
1.4131979e+000
1.3542628e+000
1.3286445e+000
1.3207843e+000
1.3463074e+000
1.3841799e+000
1.4328868e+000
1.4837745e+000
1.5531420e+000
1.6279508e+000
1.7199900e+000
1.8086960e+000
1.8455230e+000
1.8567297e+000
1.8186493e+000
1.7775714e+000
1.7679667e+000
1.7819263e+000
1.8272375e+000
1.8772540e+000
1.9165957e+000
1.9477811e+000
1.9713105e+000
1.9967186e+000
2.0285907e+000
2.0733058e+000
2.1300380e+000
2.1931190e+000
2.2601657e+000
2.2975931e+000
2.3156643e+000
2.3021119e+000
2.2720537e+000
2.2652121e+000
2.2690654e+000
2.2932928e+000
2.3235981e+000
2.3462367e+000
2.3658054e+000
2.3988538e+000
2.4410501e+000
2.5059719e+000
2.5849175e+000
2.6714213e+000
2.7555270e+000
2.8233514e+000
2.8720486e+000
2.8980520e+000
2.9031262e+000
2.8913057e+000
2.8846722e+000
2.8944471e+000
2.9445434e+000
3.0303006e+000
3.0980861e+000
3.1358757e+000
3.1066523e+000
3.0320029e+000
2.9684677e+000
2.9195316e+000
2.9175935e+000
2.9390800e+000
2.9818723e+000
3.0317137e+000
3.1167989e+000
3.2149999e+000
3.3185627e+000
3.4158742e+000
3.4477570e+000
3.4421892e+000
3.3739722e+000
3.2846854e+000
3.2003851e+000
3.1305656e+000
3.0949867e+000
3.0676301e+000
3.0436711e+000
3.0095630e+000
2.9644840e+000
2.9370863e+000
2.9241252e+000
2.9216607e+000
2.9152379e+000
2.8810077e+000
2.8271143e+000
2.7622342e+000
2.6972795e+000
2.6221619e+000
2.5448115e+000
2.4647720e+000
2.3888285e+000
2.3669252e+000
2.3774979e+000
2.4049907e+000
2.4334269e+000
2.4343128e+000
2.4200139e+000
2.4243605e+000
2.4513159e+000
2.5202506e+000
2.6041701e+000
2.6564257e+000
2.6607645e+000
2.5927119e+000
2.4839983e+000
2.3661716e+000
2.2520878e+000
2.1537020e+000
2.0669641e+000
1.9848691e+000
1.9110349e+000
1.8430457e+000
1.7514206e+000
1.6417217e+000
1.5089296e+000
1.3624572e+000
1.2781059e+000
1.2330440e+000
1.2731557e+000
1.3560811e+000
1.4119092e+000
1.4410542e+000
1.4028382e+000
1.3215709e+000
1.2244060e+000
1.1186800e+000
1.0143795e+000
9.1109586e-001
7.7997804e-001
6.3990581e-001
4.9544358e-001
3.4443581e-001
2.0098837e-001
5.6712627e-002
-8.5233331e-002
-2.1210743e-001
-3.1769457e-001
-3.8604105e-001
-4.1075960e-001
-4.1860256e-001
-4.2775500e-001
-4.7213480e-001
-5.6217420e-001
-6.6007406e-001
-7.5256580e-001
-7.2237200e-001
-5.9008318e-001
-3.6957985e-001
-1.0354123e-001
2.7437279e-002
5.2664395e-002
3.6725953e-002
6.5422081e-003
1.8056311e-002
3.5309609e-002
1.7070466e-001
4.1922882e-001
6.7561901e-001
9.1839111e-001
1.1473780e+000
1.4747801e+000
2.0254989e+000
3.0710635e+000
4.7511477e+000
7.3531990e+000
1.0860429e+001
1.4530050e+001
1.8005239e+001
2.1099894e+001
2.3857075e+001
2.7144022e+001
3.1051565e+001
3.5801800e+001
4.1209961e+001
4.5912792e+001
4.9943001e+001
5.3759472e+001
5.7504841e+001
6.1972130e+001
6.6989235e+001
7.2013603e+001
7.6916077e+001
8.1300743e+001
8.5191978e+001
8.8623222e+001
9.1684685e+001
9.4542557e+001
9.7183624e+001
9.9597794e+001
1.0115955e+002
1.0131142e+002
1.0031612e+002
9.8536270e+001
9.6252663e+001
9.3724762e+001
9.0613586e+001
8.6841881e+001
8.2763206e+001
7.8536819e+001
7.4398880e+001
7.0404366e+001
6.6236839e+001
6.1874691e+001
5.7497257e+001
5.3129486e+001
4.8937714e+001
4.4950291e+001
4.1374527e+001
3.8224220e+001
3.5507633e+001
3.3206535e+001
3.1186117e+001
2.9466518e+001
2.8032944e+001
2.6879978e+001
2.5956501e+001
2.5250399e+001
2.4710789e+001
2.4340738e+001
2.4118385e+001
2.4010429e+001
2.3984915e+001
2.3997349e+001
2.4023077e+001
2.4139915e+001
2.4376572e+001
2.4826006e+001
2.5496346e+001
2.6293398e+001
2.7188999e+001
2.8094414e+001
2.9005199e+001
3.0111797e+001
3.1507521e+001
3.3746548e+001
3.6904427e+001
4.0401119e+001
4.4030037e+001
4.6914604e+001
4.9077492e+001
5.0994640e+001
5.2714542e+001
5.4402508e+001
5.5936981e+001
5.7071499e+001
5.7638000e+001
5.7515942e+001
5.6868755e+001
5.5985748e+001
5.4902771e+001
5.3657600e+001
5.2200127e+001
5.0482063e+001
4.8544075e+001
4.6358582e+001
4.4185616e+001
4.2116711e+001
4.0062359e+001
3.8040840e+001
3.5497467e+001
3.2276566e+001
2.9005011e+001
2.5724125e+001
2.2956562e+001
2.0754990e+001
1.8570429e+001
1.6387596e+001
1.4117848e+001
1.1769958e+001
9.3983116e+000
7.0833492e+000
4.9821239e+000
3.1808503e+000
1.7866428e+000
8.1358451e-001
2.2008215e-001
1.8712750e-001
7.8097343e-001
1.6345439e+000
2.5814090e+000
3.3928907e+000
3.9383330e+000
4.3632936e+000
4.7160697e+000
5.1172571e+000
5.6078801e+000
6.1108508e+000
6.5900607e+000
6.9206266e+000
7.0164986e+000
6.9959464e+000
6.8181453e+000
6.5972562e+000
6.3232222e+000
6.0059710e+000
5.6299386e+000
5.1520734e+000
4.5798635e+000
3.9891670e+000
3.4052219e+000
2.9194436e+000
2.5415673e+000
2.2754519e+000
2.1254599e+000
2.0688732e+000
2.1018798e+000
2.2198529e+000
2.3877015e+000
2.6194692e+000
2.8940413e+000
3.2238927e+000
3.5883265e+000
3.9798918e+000
4.3642359e+000
4.7198462e+000
5.0781212e+000
5.4367833e+000
5.7961612e+000
6.1224923e+000
6.3423862e+000
6.3811097e+000
6.2836494e+000
5.9996920e+000
5.6427116e+000
5.2008905e+000
4.7226114e+000
4.2318649e+000
3.7756860e+000
3.3694606e+000
3.0326662e+000
2.7028601e+000
2.2853577e+000
1.7867044e+000
1.1969367e+000
6.3528830e-001
2.4445303e-001
1.0062307e-003
-2.3939166e-002
5.0445884e-002
2.1107852e-001
3.9529645e-001
6.0694325e-001
8.1587958e-001
1.0164021e+000
1.2058042e+000
1.3679628e+000
1.5473773e+000
1.7314714e+000
1.9322360e+000
2.1559708e+000
2.3867908e+000
2.6431303e+000
2.9167027e+000
3.2233577e+000
3.5438609e+000
3.8785701e+000
4.2029195e+000
4.5062819e+000
4.7898884e+000
5.0466528e+000
5.2887821e+000
5.5078726e+000
5.6872692e+000
5.8272181e+000
5.8953400e+000
5.9308429e+000
5.9323921e+000
5.9377556e+000
5.9703097e+000
6.0137801e+000
6.0731716e+000
6.1280155e+000
6.1642704e+000
6.1961517e+000
6.2168660e+000
6.2351217e+000
6.2558360e+000
6.2938781e+000
6.3719831e+000
6.4975700e+000
6.6891036e+000
6.9060593e+000
7.1442194e+000
7.3684378e+000
7.5754800e+000
7.7669573e+000
7.9402680e+000
8.0916147e+000
8.2201672e+000
8.3176699e+000
8.3975000e+000
8.4645596e+000
8.5283632e+000
8.5936937e+000
8.6500130e+000
8.6763296e+000
8.6642742e+000
8.5474281e+000
8.3704023e+000
8.0329456e+000
7.6484756e+000
7.1417112e+000
6.6153097e+000
6.0430312e+000
5.4749551e+000
4.9187374e+000
4.3911262e+000
3.9178121e+000
3.4906974e+000
3.1326473e+000
2.8185792e+000
2.5563638e+000
2.3191416e+000
2.1071239e+000
1.9085732e+000
1.7259142e+000
1.5686401e+000
1.4326371e+000
1.3257600e+000
1.2328329e+000
1.1438335e+000
1.0611755e+000
9.9851042e-001
9.6462852e-001
1.0311344e+000
1.1453000e+000
1.3981853e+000
1.6712885e+000
1.9875234e+000
2.2677453e+000
2.4323158e+000
2.5408421e+000
2.5118821e+000
2.4592199e+000
2.3588710e+000
2.2418427e+000
2.0911412e+000
1.8917377e+000
1.6250144e+000
1.3239760e+000
9.9338925e-001
6.9473469e-001
4.3198043e-001
2.2297604e-001
5.7982717e-002
-5.9182264e-002
-1.3652270e-001
-1.5745413e-001
-1.4028548e-001
-3.5226338e-002
1.0173209e-001
2.8164107e-001
4.5793697e-001
5.7473123e-001
6.7286307e-001
7.0046628e-001
7.2756028e-001
7.5749975e-001
7.8967977e-001
8.2908463e-001
8.7172449e-001
9.2253792e-001
9.7890973e-001
1.0429943e+000
1.0853562e+000
1.0920143e+000
1.0782267e+000
1.0418500e+000
1.0219042e+000
1.0169795e+000
1.0075629e+000
9.9243790e-001
9.6080285e-001
9.2245454e-001
9.0246683e-001
8.8649130e-001
8.3954817e-001
7.7192563e-001
6.3060790e-001
4.7268432e-001
3.1453478e-001
1.6864440e-001
1.1432588e-001
8.3313927e-002
1.7290637e-001
2.6415741e-001
3.6025691e-001
4.2592832e-001
3.9560980e-001
3.5898623e-001
3.0836287e-001
2.7030501e-001
2.5134361e-001
1.9913521e-001
9.5966503e-002
-3.6806196e-002
-2.0199887e-001
-3.6155331e-001
-5.1483983e-001
-6.6064942e-001
-7.9825568e-001
-9.0683055e-001
-9.9767101e-001
-1.0583843e+000
-1.1090162e+000
-1.1725514e+000
-1.2384766e+000
-1.2925003e+000
-1.3357843e+000
-1.2821480e+000
-1.2162822e+000
-1.1033995e+000
-1.0032444e+000
-9.9324125e-001
-1.0075674e+000
-1.1288929e+000
-1.2560480e+000
-1.4001131e+000
-1.5097150e+000
-1.5388306e+000
-1.5302107e+000
-1.4553771e+000
-1.3733362e+000
-1.2814541e+000
-1.1927097e+000
-1.1091114e+000
-1.0511051e+000
-1.0137347e+000
-9.7950310e-001
-9.4345313e-001
-8.4633303e-001
-7.2143984e-001
-5.9395051e-001
-4.7032341e-001
-4.3723348e-001
-4.2475644e-001
-4.3411127e-001
-4.4213080e-001
-3.5252827e-001
-2.5376269e-001
-8.2285389e-002
7.9872087e-004
2.4757978e-002
6.8896309e-002
1.0402200e-001
1.3940428e-001
1.7593925e-001
2.1388377e-001
2.5461262e-001
2.8731918e-001
3.0693692e-001
3.0582061e-001
2.7962881e-001
2.3954679e-001
1.8565626e-001
8.7740891e-002
-4.2175069e-002
-2.2860378e-001
-4.4349003e-001
-6.2009543e-001
-7.7982098e-001
-8.6791909e-001
-9.3558866e-001
-9.2825317e-001
-9.0817487e-001
-7.2986001e-001
