Image.
>Pix99999.
  .
5555
5555
2300
900
5555
2
1
0
701
5555
2.4217000e-002
2.4732262e-002
2.5246529e-002
2.5760792e-002
2.6275057e-002
2.6790313e-002
2.7304586e-002
2.7818849e-002
2.8333114e-002
2.8848365e-002
2.9362643e-002
2.9875923e-002
3.0392138e-002
3.0909380e-002
3.1420760e-002
3.1923223e-002
3.2449931e-002
3.3008400e-002
3.3479914e-002
3.3828609e-002
3.4503426e-002
3.5635591e-002
3.5556678e-002
3.3768620e-002
3.6485396e-002
4.6291463e-002
4.3673847e-002
8.0361366e-003
-6.0652360e-002
-1.5470621e-001
-2.5892028e-001
-3.5535929e-001
-4.2347127e-001
-4.4485345e-001
-4.1272640e-001
-3.2849449e-001
-2.1296793e-001
-9.1524012e-002
1.4623657e-002
8.8521592e-002
1.2517251e-001
1.2497530e-001
9.5765799e-002
4.8147134e-002
-5.0305007e-003
-5.0968219e-002
-7.9718523e-002
-8.2833543e-002
-5.4359153e-002
5.5659134e-003
7.5111151e-002
1.2592129e-001
1.3054754e-001
7.2422184e-002
-2.2458386e-002
-1.1575665e-001
-1.7393680e-001
-1.7443770e-001
-1.3229580e-001
-7.3875666e-002
-2.2629771e-002
3.6681686e-003
5.3700781e-003
-1.0593028e-002
-3.4646057e-002
-5.7868440e-002
-7.7041425e-002
-9.0997435e-002
-9.9090025e-002
-1.0140672e-001
-1.0047300e-001
-9.9713810e-002
-1.0266358e-001
-1.1010406e-001
-1.1143079e-001
-9.4316788e-002
-5.5636115e-002
1.1525289e-003
5.9180256e-002
9.9360980e-002
1.1252486e-001
9.5757909e-002
5.6899026e-002
8.4139425e-003
-3.3501752e-002
-5.4095108e-002
-4.9639571e-002
-2.4307594e-002
1.8600633e-003
8.4431283e-003
-3.0188686e-003
-2.0746410e-002
-2.5055017e-002
3.5099825e-004
4.6714939e-002
9.6289031e-002
1.3355063e-001
1.4610118e-001
1.2952079e-001
8.3868295e-002
1.5320085e-002
-6.5239899e-002
-1.3663444e-001
-1.7788516e-001
-1.8519978e-001
-1.6372900e-001
-1.2709969e-001
-9.0941772e-002
-6.6202559e-002
-6.0984075e-002
-7.9732902e-002
-1.2201206e-001
-1.7275481e-001
-2.1295442e-001
-2.3164040e-001
-2.2538021e-001
-2.0734303e-001
-1.9547993e-001
-1.9981943e-001
-2.2440621e-001
-2.6321945e-001
-3.0496693e-001
-3.3290413e-001
-3.3141756e-001
-2.9823491e-001
-2.4089964e-001
-1.8401819e-001
-1.5389319e-001
-1.5462251e-001
-1.7860369e-001
-2.1079428e-001
-2.3725703e-001
-2.6003298e-001
-2.8557539e-001
-3.0881327e-001
-3.1926429e-001
-3.0667028e-001
-2.6628286e-001
-2.1488111e-001
-1.7704511e-001
-1.6966601e-001
-1.9933866e-001
-2.4625480e-001
-2.8250673e-001
-2.9584846e-001
-2.8560370e-001
-2.6659605e-001
-2.5591621e-001
-2.5187159e-001
-2.4383512e-001
-2.2221071e-001
-1.8320630e-001
-1.4329332e-001
-1.2537378e-001
-1.3927600e-001
-1.8316442e-001
-2.3470812e-001
-2.6557425e-001
-2.6191276e-001
-2.2149685e-001
-1.5901743e-001
-9.6137017e-002
-5.1288497e-002
-3.7784740e-002
-5.6068674e-002
-9.7821169e-002
-1.4383462e-001
-1.7315179e-001
-1.7886920e-001
-1.6481642e-001
-1.4919728e-001
-1.5280685e-001
-1.7863354e-001
-2.1861769e-001
-2.5844556e-001
-2.8347000e-001
-2.8833550e-001
-2.7427095e-001
-2.4940571e-001
-2.2569682e-001
-2.1789685e-001
-2.3803414e-001
-2.8093842e-001
-3.3044767e-001
-3.6258042e-001
-3.5486171e-001
-3.0643728e-001
-2.3100618e-001
-1.5395057e-001
-1.0112463e-001
-7.7140972e-002
-7.3056206e-002
-7.3289789e-002
-6.2990442e-002
-4.1941632e-002
-1.9017277e-002
-6.4439280e-003
-1.4360697e-002
-3.8760778e-002
-6.6340029e-002
-7.8291290e-002
-5.7142168e-002
-1.7694607e-003
7.7417076e-002
1.6121194e-001
2.2845772e-001
2.6782075e-001
2.7568609e-001
2.5561434e-001
2.1539396e-001
1.6537900e-001
1.1755887e-001
8.6062029e-002
8.3121419e-002
1.0757735e-001
1.4817514e-001
1.8465172e-001
1.9651291e-001
1.8252458e-001
1.5425622e-001
1.2654343e-001
1.1186981e-001
1.0896194e-001
1.0760307e-001
9.5545717e-002
6.5082036e-002
3.0458253e-002
1.6856356e-002
3.7261207e-002
9.0553060e-002
1.5317658e-001
1.9337150e-001
2.0164588e-001
1.8768054e-001
1.7728209e-001
1.9863001e-001
2.5194776e-001
3.1754461e-001
3.7137938e-001
3.9259270e-001
3.7781000e-001
3.3661902e-001
2.8522062e-001
2.4232771e-001
2.2435732e-001
2.4030101e-001
2.7413151e-001
2.9376087e-001
2.6888588e-001
1.8202354e-001
5.9443928e-002
-4.4474296e-002
-8.0166839e-002
-1.6879097e-002
1.2165263e-001
2.7750263e-001
4.0329456e-001
4.6942878e-001
4.7347525e-001
4.3126231e-001
3.6266714e-001
2.8755820e-001
2.2294690e-001
1.8025875e-001
1.5493292e-001
1.3391736e-001
1.1594860e-001
9.9399544e-002
3.5581592e-002
-1.3843104e-001
-3.8907155e-001
-6.2121254e-001
-8.0008000e-001
-9.4524938e-001
-1.0771275e+000
-1.2068714e+000
-1.3347229e+000
-1.4517362e+000
-1.5385028e+000
-1.5700680e+000
-1.5272400e+000
-1.4025658e+000
-1.2196714e+000
-1.0215656e+000
-8.3552980e-001
-6.6822362e-001
-5.0086832e-001
-2.9626819e-001
-1.2033761e-002
3.9115903e-001
9.3148839e-001
1.5963125e+000
2.3068035e+000
2.9598064e+000
3.5687761e+000
4.2583652e+000
5.2097573e+000
6.6430788e+000
8.8221197e+000
1.1942429e+001
1.5736143e+001
1.9590620e+001
2.3057287e+001
2.5966465e+001
2.8563532e+001
3.1372499e+001
3.4785706e+001
3.8923096e+001
4.3355202e+001
4.7343811e+001
5.0716228e+001
5.3847385e+001
5.7151829e+001
6.0908745e+001
6.5018204e+001
6.9102348e+001
7.2938393e+001
7.6491150e+001
7.9749901e+001
8.2698349e+001
8.5342194e+001
8.7713005e+001
8.9861481e+001
9.1825203e+001
9.3510918e+001
9.4733109e+001
9.5423431e+001
9.5625008e+001
9.5315620e+001
9.4389679e+001
9.2731476e+001
9.0269531e+001
8.7123634e+001
8.3562096e+001
7.9741470e+001
7.5680862e+001
7.1372803e+001
6.6829529e+001
6.2161049e+001
5.7561909e+001
5.3191971e+001
4.9156422e+001
4.5529427e+001
4.2351440e+001
3.9600548e+001
3.7203972e+001
3.5102753e+001
3.3264648e+001
3.1670778e+001
3.0308212e+001
2.9158501e+001
2.8198246e+001
2.7412502e+001
2.6795784e+001
2.6344114e+001
2.6050051e+001
2.5895771e+001
2.5857840e+001
2.5933422e+001
2.6142349e+001
2.6505600e+001
2.7035772e+001
2.7715694e+001
2.8499659e+001
2.9344639e+001
3.0219536e+001
3.1113768e+001
3.2065140e+001
3.3264484e+001
3.5000690e+001
3.7291058e+001
3.9827553e+001
4.2221138e+001
4.4121807e+001
4.5470341e+001
4.6502357e+001
4.7393948e+001
4.8181686e+001
4.8855759e+001
4.9379269e+001
4.9676373e+001
4.9650555e+001
4.9288956e+001
4.8671055e+001
4.7842045e+001
4.6790100e+001
4.5514690e+001
4.4051586e+001
4.2486988e+001
4.0945240e+001
3.9500317e+001
3.8135044e+001
3.6710159e+001
3.4982506e+001
3.2786137e+001
3.0109615e+001
2.7148104e+001
2.4274824e+001
2.1708317e+001
1.9425070e+001
1.7311857e+001
1.5220467e+001
1.3076923e+001
1.0907791e+001
8.7711105e+000
6.7421064e+000
4.9079480e+000
3.3558826e+000
2.1094418e+000
1.1294423e+000
4.5471287e-001
2.1470523e-001
4.2348510e-001
9.2577428e-001
1.5478449e+000
2.1523051e+000
2.6798754e+000
3.1609378e+000
3.6357384e+000
4.1273241e+000
4.6283598e+000
5.0952888e+000
5.4715252e+000
5.7012453e+000
5.7698579e+000
5.7159715e+000
5.5801611e+000
5.3856549e+000
5.1287694e+000
4.7750707e+000
4.2884932e+000
3.6503339e+000
2.9022942e+000
2.1587980e+000
1.5227840e+000
1.0540640e+000
7.7441287e-001
6.6569763e-001
7.0369685e-001
8.6651438e-001
1.1270343e+000
1.4521800e+000
1.8193114e+000
2.2230067e+000
2.6650760e+000
3.1497693e+000
3.6666355e+000
4.1843853e+000
4.6719322e+000
5.1079960e+000
5.4878640e+000
5.8249922e+000
6.1207395e+000
6.3517146e+000
6.4849072e+000
6.4857101e+000
6.3429255e+000
6.0815439e+000
5.7363038e+000
5.3433394e+000
4.9306769e+000
4.5137410e+000
4.1044321e+000
3.7104578e+000
3.3228531e+000
2.9107115e+000
2.4512298e+000
1.9463853e+000
1.4290113e+000
9.6669686e-001
6.0619211e-001
3.4745389e-001
1.7039295e-001
4.2587049e-002
-5.5053055e-002
-1.1711000e-001
-1.3923280e-001
-1.2776595e-001
-9.2427149e-002
-4.3565631e-002
1.3960592e-002
8.3179593e-002
1.6145748e-001
2.3474869e-001
2.9115576e-001
3.2785913e-001
3.5185218e-001
3.8292015e-001
4.4299370e-001
5.5072242e-001
7.1186101e-001
9.1083497e-001
1.1222172e+000
1.3137423e+000
1.4618603e+000
1.5613407e+000
1.6171840e+000
1.6443499e+000
1.6578280e+000
1.6689349e+000
1.6861143e+000
1.7144303e+000
1.7588037e+000
1.8240896e+000
1.9118600e+000
2.0170572e+000
2.1308665e+000
2.2421224e+000
2.3469000e+000
2.4555154e+000
2.5819085e+000
2.7398171e+000
2.9359961e+000
3.1651392e+000
3.4228468e+000
3.7115500e+000
4.0393219e+000
4.4214063e+000
4.8713999e+000
5.3953557e+000
5.9925456e+000
6.6517677e+000
7.3587255e+000
8.0983133e+000
8.8573246e+000
9.6261501e+000
1.0393417e+001
1.1141932e+001
1.1850892e+001
1.2496663e+001
1.3054086e+001
1.3500501e+001
1.3814480e+001
1.3978259e+001
1.3983966e+001
1.3835479e+001
1.3544628e+001
1.3129339e+001
1.2608457e+001
1.2003200e+001
1.1333171e+001
1.0619596e+001
9.8820238e+000
9.1421165e+000
8.4198217e+000
7.7287912e+000
7.0772481e+000
6.4642954e+000
5.8844609e+000
5.3268375e+000
4.7782574e+000
4.2242441e+000
3.6582856e+000
3.0917251e+000
2.5424674e+000
2.0332198e+000
1.5821263e+000
1.1954302e+000
8.8124830e-001
6.5687919e-001
5.3664398e-001
5.2167356e-001
5.9409785e-001
7.0189857e-001
7.9199326e-001
8.2895893e-001
7.9864955e-001
7.2502989e-001
6.3925672e-001
5.6701994e-001
5.2167058e-001
4.9136406e-001
4.5798594e-001
4.0374860e-001
3.1946680e-001
2.1592358e-001
1.1144601e-001
3.0393811e-002
-5.9515564e-003
1.3340998e-002
9.7919457e-002
2.5924671e-001
5.0078237e-001
8.0609763e-001
1.1558743e+000
1.5355228e+000
1.9335388e+000
2.3436573e+000
2.7562079e+000
3.1518605e+000
3.5160444e+000
3.8526843e+000
4.1734729e+000
4.4986687e+000
4.8436260e+000
5.2059050e+000
5.5740547e+000
5.9256272e+000
6.2436485e+000
6.5331969e+000
6.8157573e+000
7.1407161e+000
7.5538578e+000
8.0723448e+000
8.6873474e+000
9.3398476e+000
9.9600906e+000
1.0482878e+001
1.0862040e+001
1.1105590e+001
1.1239386e+001
1.1309484e+001
1.1359783e+001
1.1406090e+001
1.1453792e+001
1.1489821e+001
1.1501560e+001
1.1486258e+001
1.1443972e+001
1.1382206e+001
1.1303456e+001
1.1198200e+001
1.1052383e+001
1.0851290e+001
1.0583606e+001
1.0252211e+001
9.8686399e+000
9.4557505e+000
9.0419149e+000
8.6614990e+000
8.3367300e+000
8.0492601e+000
7.7650452e+000
7.4335527e+000
7.0186315e+000
6.5380645e+000
6.0267940e+000
5.5300550e+000
5.0853624e+000
4.6982975e+000
4.3617482e+000
4.0541286e+000
3.7509356e+000
3.4293451e+000
3.0766120e+000
2.7091827e+000
2.3522754e+000
2.0355158e+000
1.7778280e+000
1.5616848e+000
1.3608428e+000
1.1514271e+000
9.1829765e-001
6.7186815e-001
4.2866403e-001
2.0420910e-001
1.2090683e-002
-1.3933876e-001
-2.3998620e-001
-2.7006853e-001
-2.1271327e-001
-6.8946630e-002
1.4778802e-001
3.9761785e-001
6.4083683e-001
8.6037201e-001
1.0492212e+000
1.2153431e+000
1.3627102e+000
1.4690803e+000
1.5048429e+000
1.4377528e+000
1.2468640e+000
9.5407569e-001
6.0518312e-001
2.9241413e-001
9.4240196e-002
-7.7891164e-004
-2.2653192e-002
1.2052171e-002
8.7777205e-002
1.8066704e-001
2.7193633e-001
3.6878836e-001
4.7748190e-001
5.7696557e-001
6.4665139e-001
6.9308728e-001
7.3670405e-001
8.2442749e-001
9.9278527e-001
1.2134018e+000
1.4381280e+000
1.6055310e+000
1.6677926e+000
1.6432371e+000
1.5643784e+000
1.4556930e+000
1.3375715e+000
1.2227561e+000
1.1222000e+000
