Image.
>Pix99999.
  .
5555
5555
2300
900
5555
2
1
0
701
5555
-2.7657000e-003
-2.8232178e-003
-2.8806357e-003
-2.9381532e-003
-2.9957704e-003
-3.0533879e-003
-3.1109063e-003
-3.1683249e-003
-3.2258418e-003
-3.2833593e-003
-3.3409758e-003
-3.3984948e-003
-3.4560126e-003
-3.5135304e-003
-3.5710479e-003
-3.6286637e-003
-3.6861834e-003
-3.7437011e-003
-3.8012189e-003
-3.8587365e-003
-3.9163516e-003
-3.9738719e-003
-4.0312926e-003
-4.0889042e-003
-4.1464251e-003
-4.2039426e-003
-1.5622286e-004
2.0442855e-002
4.5268759e-002
7.4799925e-002
1.0504112e-001
1.2416407e-001
1.4146097e-001
1.3590397e-001
1.2564757e-001
8.6874954e-002
4.6156440e-002
3.3031057e-003
-2.9495835e-002
-3.1238558e-002
-2.2485457e-002
5.3662928e-003
3.1545486e-002
5.3139929e-002
6.8465032e-002
7.6318055e-002
7.1181677e-002
5.3956389e-002
1.8802810e-002
-2.9172070e-002
-6.9303289e-002
-1.0440362e-001
-1.0436652e-001
-8.9062713e-002
-6.6187769e-002
-4.1183878e-002
-4.7151119e-002
-6.0277618e-002
-8.8946559e-002
-1.1957965e-001
-1.2469343e-001
-1.2425449e-001
-8.7269850e-002
-4.6386559e-002
-2.9198341e-003
3.3272967e-002
4.2097386e-002
4.3123335e-002
3.1147651e-002
1.7086167e-002
1.5261916e-003
-1.8377017e-002
-4.4347681e-002
-6.4798065e-002
-7.8305073e-002
-8.0885679e-002
-7.4436426e-002
-7.7387914e-002
-8.7494776e-002
-1.0336492e-001
-1.2198772e-001
-1.1841983e-001
-1.0547774e-001
-8.1480525e-002
-5.4253280e-002
-5.6100305e-002
-6.4733475e-002
-9.3323790e-002
-1.2381627e-001
-1.3173370e-001
-1.3477001e-001
-1.2585580e-001
-1.1759960e-001
-1.2021067e-001
-1.2550546e-001
-1.3402721e-001
-1.4172143e-001
-1.4644553e-001
-1.5004140e-001
-1.5243603e-001
-1.4964715e-001
-1.4017923e-001
-1.2614617e-001
-1.0838566e-001
-1.0086240e-001
-1.0246800e-001
-1.0919640e-001
-1.1855423e-001
-1.1646263e-001
-1.0805946e-001
-1.0901529e-001
-1.1412993e-001
-1.3416201e-001
-1.5879944e-001
-1.6035369e-001
-1.5559115e-001
-1.3589513e-001
-1.1484323e-001
-1.1308274e-001
-1.1821910e-001
-1.4046115e-001
-1.6865690e-001
-2.0515576e-001
-2.4258058e-001
-2.7709246e-001
-3.0341572e-001
-3.1438181e-001
-3.1164530e-001
-2.9362535e-001
-2.7142197e-001
-2.4881828e-001
-2.4036689e-001
-2.4551629e-001
-2.5946259e-001
-2.7777901e-001
-2.7742463e-001
-2.6417479e-001
-2.3547286e-001
-1.9944808e-001
-1.8243471e-001
-1.7430200e-001
-1.7980959e-001
-1.9036046e-001
-1.9261591e-001
-1.9351754e-001
-2.0335150e-001
-2.1689251e-001
-2.3805690e-001
-2.5820041e-001
-2.6224491e-001
-2.5934643e-001
-2.4563497e-001
-2.3148794e-001
-2.2554931e-001
-2.2322801e-001
-2.2790186e-001
-2.3834932e-001
-2.5441191e-001
-2.7697805e-001
-3.0371994e-001
-3.1792569e-001
-3.1869379e-001
-2.9530889e-001
-2.5478613e-001
-2.1908171e-001
-1.8858837e-001
-1.8937114e-001
-2.0730031e-001
-2.3489921e-001
-2.6616463e-001
-2.8464958e-001
-2.9864711e-001
-3.0415446e-001
-3.0907860e-001
-3.1988540e-001
-3.3554751e-001
-3.6962047e-001
-4.0616864e-001
-4.4349951e-001
-4.7444171e-001
-4.9096143e-001
-5.0533813e-001
-5.1966655e-001
-5.4403955e-001
-5.8003753e-001
-6.1729747e-001
-6.4925152e-001
-6.5293217e-001
-6.2998962e-001
-5.8520472e-001
-5.3093672e-001
-4.8953834e-001
-4.5915681e-001
-4.5391327e-001
-4.6219254e-001
-4.9001193e-001
-5.2811003e-001
-5.5316782e-001
-5.7284945e-001
-5.6425738e-001
-5.4561281e-001
-5.3122842e-001
-5.2065760e-001
-5.3075647e-001
-5.5087876e-001
-5.8713549e-001
-6.3218874e-001
-6.8731582e-001
-7.4304461e-001
-7.8828317e-001
-8.1773001e-001
-8.1731683e-001
-7.9324698e-001
-7.4406946e-001
-6.9276464e-001
-6.5741527e-001
-6.5204990e-001
-6.8144798e-001
-7.1915305e-001
-7.5300521e-001
-7.7647483e-001
-7.8892756e-001
-8.1193918e-001
-8.3998561e-001
-8.7596720e-001
-9.1206175e-001
-9.3096513e-001
-9.3753099e-001
-9.3718755e-001
-9.3768883e-001
-9.4979799e-001
-9.7004277e-001
-9.8169601e-001
-9.7833604e-001
-9.4190150e-001
-8.8467789e-001
-8.2733244e-001
-7.8694761e-001
-7.8147697e-001
-7.9836440e-001
-8.2117146e-001
-8.4190905e-001
-8.5234141e-001
-8.5349476e-001
-8.4983492e-001
-8.2977051e-001
-7.9492652e-001
-7.5114608e-001
-6.9909698e-001
-6.4235026e-001
-5.8210647e-001
-4.9517950e-001
-3.9457080e-001
-2.9422912e-001
-2.0118880e-001
-1.4395364e-001
-1.1073784e-001
-8.3929054e-002
-6.2557787e-002
-3.7150901e-002
-1.1149000e-002
9.8478356e-003
3.1071093e-002
3.9606631e-002
4.3589264e-002
3.9924581e-002
3.4472182e-002
4.4745065e-002
1.9812858e-002
-6.6460207e-002
-1.4501214e-001
-1.7836536e-001
-1.4312229e-001
-3.7994269e-002
9.6878260e-002
2.3688321e-001
2.9376400e-001
2.6099879e-001
1.7604405e-001
6.5502398e-002
5.4632600e-002
1.2962142e-001
2.3093113e-001
3.3590820e-001
2.9184732e-001
1.4301454e-001
1.0089286e-002
-8.1501521e-002
3.3980630e-002
3.6846370e-001
9.8520803e-001
1.7643226e+000
2.5266771e+000
3.2487235e+000
3.9193339e+000
4.7036986e+000
5.7699757e+000
7.4073663e+000
9.7618141e+000
1.3043370e+001
1.7199286e+001
2.1405680e+001
2.5290886e+001
2.8711365e+001
3.1737764e+001
3.5270451e+001
3.9413151e+001
4.4404594e+001
5.0063641e+001
5.5060444e+001
5.9422756e+001
6.3601871e+001
6.7726250e+001
7.2518692e+001
7.7783997e+001
8.2833450e+001
8.7548813e+001
9.1507019e+001
9.4749435e+001
9.7321198e+001
9.9258171e+001
1.0064474e+002
1.0137220e+002
1.0134919e+002
1.0035429e+002
9.8238754e+001
9.5470932e+001
9.2501991e+001
8.9270927e+001
8.5795731e+001
8.1720642e+001
7.6966537e+001
7.2201508e+001
6.7648323e+001
6.3437328e+001
5.9557926e+001
5.5561798e+001
5.1397888e+001
4.7303467e+001
4.3304909e+001
3.9614056e+001
3.6252441e+001
3.3365009e+001
3.0951559e+001
2.8947075e+001
2.7323786e+001
2.5925444e+001
2.4762302e+001
2.3811686e+001
2.3088587e+001
2.2583500e+001
2.2292799e+001
2.2177559e+001
2.2212111e+001
2.2348454e+001
2.2573578e+001
2.2872663e+001
2.3239941e+001
2.3671743e+001
2.4223642e+001
2.4911085e+001
2.5786266e+001
2.6848211e+001
2.8015343e+001
2.9262960e+001
3.0491636e+001
3.1694527e+001
3.3050369e+001
3.4653542e+001
3.7136002e+001
4.0567715e+001
4.4340130e+001
4.8221657e+001
5.1229145e+001
5.3378536e+001
5.5175072e+001
5.6622471e+001
5.7842960e+001
5.8684742e+001
5.8926426e+001
5.8524429e+001
5.7535633e+001
5.6146290e+001
5.4639713e+001
5.3041531e+001
5.1375099e+001
4.9512936e+001
4.7362530e+001
4.4948639e+001
4.2241997e+001
3.9692360e+001
3.7467064e+001
3.5399281e+001
3.3503044e+001
3.1124643e+001
2.8104401e+001
2.5035212e+001
2.1959698e+001
1.9360786e+001
1.7286171e+001
1.5221857e+001
1.3163824e+001
1.1063781e+001
8.9459181e+000
6.8768978e+000
4.9319243e+000
3.2272358e+000
1.8365138e+000
8.3112490e-001
2.3019797e-001
4.5883693e-002
3.8867372e-001
1.2269007e+000
2.2844000e+000
3.3832779e+000
4.3305745e+000
5.0069952e+000
5.5553441e+000
6.0182877e+000
6.4613242e+000
6.8905196e+000
7.2378817e+000
7.4408431e+000
7.5266242e+000
7.4385529e+000
7.2950644e+000
7.0770149e+000
6.8345032e+000
6.5574236e+000
6.2283311e+000
5.8237700e+000
5.3025999e+000
4.6759887e+000
4.0455217e+000
3.4519320e+000
2.9994102e+000
2.6954989e+000
2.5268927e+000
2.4920084e+000
2.5644681e+000
2.7291744e+000
2.9717360e+000
3.2446649e+000
3.5385962e+000
3.8417542e+000
4.1577487e+000
4.4896336e+000
4.8353291e+000
5.1899157e+000
5.5513053e+000
5.9045858e+000
6.2322569e+000
6.4987807e+000
6.6376257e+000
6.6654086e+000
6.5122099e+000
6.2527738e+000
5.8486938e+000
5.3914824e+000
4.8784337e+000
4.3607998e+000
3.8606920e+000
3.4036660e+000
2.9948831e+000
2.6284227e+000
2.2653756e+000
1.8502786e+000
1.3963280e+000
9.1080129e-001
4.6920609e-001
1.6965753e-001
-1.1782292e-002
-2.3637086e-002
4.0016860e-002
1.7147020e-001
3.3509713e-001
5.3166759e-001
7.4587709e-001
9.9367523e-001
1.2393196e+000
1.4711428e+000
1.6830560e+000
1.8401614e+000
2.0005121e+000
2.1700737e+000
2.3754094e+000
2.6455011e+000
2.9552341e+000
3.3202839e+000
3.6982710e+000
4.0815897e+000
4.4298601e+000
4.7268467e+000
4.9634743e+000
5.1390238e+000
5.2694964e+000
5.3612361e+000
5.4142680e+000
5.4362998e+000
5.4110312e+000
5.3656287e+000
5.3008399e+000
5.2433033e+000
5.2141614e+000
5.1982121e+000
5.2045794e+000
5.2083392e+000
5.1988358e+000
5.1893845e+000
5.1804538e+000
5.1837254e+000
5.2140718e+000
5.2540426e+000
5.3116746e+000
5.3689079e+000
5.4249892e+000
5.4865856e+000
5.5560155e+000
5.6442299e+000
5.7523975e+000
5.8714600e+000
5.9984736e+000
6.1246381e+000
6.2486935e+000
6.3683448e+000
6.4782753e+000
6.5590739e+000
6.6121750e+000
6.6067433e+000
6.5649676e+000
6.4574327e+000
6.3157034e+000
6.1033239e+000
5.8585453e+000
5.5317554e+000
5.1756415e+000
4.7411504e+000
4.2871780e+000
3.7876782e+000
3.2895050e+000
2.7975545e+000
2.3301013e+000
1.9080983e+000
1.5200784e+000
1.1823543e+000
8.7500083e-001
6.0659361e-001
3.6963987e-001
1.7063008e-001
1.6759150e-002
-9.3915716e-002
-1.5852500e-001
-1.9051509e-001
-1.9526489e-001
-1.8358535e-001
-1.5376222e-001
-1.1187967e-001
-4.5026843e-002
4.4588149e-002
2.0501912e-001
4.0377599e-001
7.1941203e-001
1.0471619e+000
1.3919469e+000
1.6957937e+000
1.8698529e+000
1.9928914e+000
1.9899570e+000
1.9568777e+000
1.8632319e+000
1.7496829e+000
1.6025405e+000
1.4373593e+000
1.2463806e+000
1.0353148e+000
8.0336714e-001
5.7055491e-001
3.4569779e-001
1.6976640e-001
4.1847039e-002
-1.5471114e-003
1.7100342e-002
1.4642888e-001
3.2923722e-001
5.7125396e-001
8.1812108e-001
1.0064956e+000
1.1677780e+000
1.2403520e+000
1.3011063e+000
1.3416371e+000
1.3877401e+000
1.4597114e+000
1.5464911e+000
1.6806242e+000
1.8237051e+000
1.9847527e+000
2.1166270e+000
2.1866105e+000
2.2078683e+000
2.1530142e+000
2.0777006e+000
1.9788440e+000
1.8901252e+000
1.8136578e+000
1.7558964e+000
1.7139760e+000
1.6828583e+000
1.6598731e+000
1.6466689e+000
1.6406171e+000
1.6532521e+000
1.6685828e+000
1.6613464e+000
1.6371192e+000
1.5276314e+000
1.4052880e+000
1.2706537e+000
1.1533422e+000
1.1517818e+000
1.1614772e+000
1.2187964e+000
1.2515303e+000
1.2051899e+000
1.1383275e+000
1.0247006e+000
9.3231666e-001
8.7982762e-001
8.4344500e-001
8.2714301e-001
7.8396201e-001
7.0813513e-001
6.0561424e-001
4.8076946e-001
3.6331511e-001
2.5240564e-001
1.5485996e-001
6.6032633e-002
-2.5382228e-003
-5.9426054e-002
-7.1884319e-002
-7.5134464e-002
-1.0849337e-001
-1.5580668e-001
-3.0463359e-001
-4.6029502e-001
-5.9741712e-001
-7.1910119e-001
-7.3666757e-001
-7.4442124e-001
-7.0936573e-001
-6.7459571e-001
-6.4127082e-001
-6.0986054e-001
-5.8340377e-001
-5.6423163e-001
-5.5821502e-001
-5.7015884e-001
-6.0639483e-001
-6.5629208e-001
-7.1978170e-001
-7.7206302e-001
-8.1357026e-001
-8.2047778e-001
-8.0420381e-001
-7.5256097e-001
-6.8432122e-001
-6.0503221e-001
-5.2219146e-001
-4.3349048e-001
-3.4317943e-001
-2.3988250e-001
-1.3682596e-001
-7.5437352e-002
-1.8834755e-002
-6.2072999e-003
9.0624020e-004
2.9037833e-002
1.1169258e-001
3.0072778e-001
4.8644429e-001
6.6187942e-001
8.0460382e-001
8.7665176e-001
9.0255082e-001
8.5405821e-001
7.6298559e-001
6.2096459e-001
5.0549674e-001
4.1551331e-001
3.9353842e-001
4.1918862e-001
4.3690288e-001
4.5096028e-001
4.4794938e-001
4.4028699e-001
5.1128989e-001
6.0415596e-001
7.5935370e-001
9.2484444e-001
1.0468000e+000
