Image.
>Pix99999.
  .
5555
5555
2300
900
5555
2
1
0
701
5555
5.7009999e-002
5.8196303e-002
5.9382606e-002
6.0567912e-002
6.1754212e-002
6.2940516e-002
6.4125821e-002
6.5312117e-002
6.6498429e-002
6.7684725e-002
6.8870045e-002
7.0055343e-002
7.1242616e-002
7.2433844e-002
7.3614359e-002
7.4780971e-002
7.5986385e-002
7.7243403e-002
7.8360327e-002
7.9280138e-002
8.0722317e-002
8.2898974e-002
8.3134502e-002
8.0632195e-002
8.5344665e-002
1.0129554e-001
9.6665166e-002
3.8196623e-002
-7.2613321e-002
-2.2118424e-001
-3.8000727e-001
-5.1586139e-001
-5.8678871e-001
-5.6024712e-001
-4.5160156e-001
-2.9442450e-001
-1.3952525e-001
-2.9517669e-002
4.6062447e-002
1.1146767e-001
1.8318313e-001
2.6728436e-001
3.3791900e-001
3.6680382e-001
3.5461590e-001
3.1265894e-001
2.5915501e-001
2.0977738e-001
1.6182731e-001
1.1138900e-001
7.2848640e-002
6.4873211e-002
9.9914707e-002
1.8385683e-001
3.0432519e-001
4.4349420e-001
5.8488643e-001
7.1319085e-001
8.1564116e-001
8.8704354e-001
9.4980085e-001
1.0315096e+000
1.1446168e+000
1.2880330e+000
1.4278549e+000
1.5266879e+000
1.5773439e+000
1.5860406e+000
1.5710611e+000
1.5524532e+000
1.5416900e+000
1.5469900e+000
1.5766778e+000
1.6332951e+000
1.6962872e+000
1.7375536e+000
1.7324291e+000
1.6689999e+000
1.5834610e+000
1.5270363e+000
1.5450143e+000
1.6636761e+000
1.8415989e+000
2.0155990e+000
2.1323719e+000
2.1581514e+000
2.1217444e+000
2.0695493e+000
2.0274041e+000
2.0067630e+000
1.9946527e+000
1.9720590e+000
1.9305092e+000
1.8666881e+000
1.7796260e+000
1.6723422e+000
1.5611914e+000
1.4673377e+000
1.4095500e+000
1.4015131e+000
1.4398000e+000
1.5111487e+000
1.5890760e+000
1.6457014e+000
1.6677189e+000
1.6541350e+000
1.6303403e+000
1.6270236e+000
1.6539937e+000
1.7086284e+000
1.7717429e+000
1.8216838e+000
1.8523840e+000
1.8647664e+000
1.8627840e+000
1.8506507e+000
1.8293784e+000
1.7981157e+000
1.7559340e+000
1.7034310e+000
1.6485457e+000
1.6015477e+000
1.5692589e+000
1.5549504e+000
1.5530822e+000
1.5559750e+000
1.5628320e+000
1.5757419e+000
1.5958686e+000
1.6238636e+000
1.6608129e+000
1.7046598e+000
1.7393091e+000
1.7439420e+000
1.7024437e+000
1.6114208e+000
1.5103811e+000
1.4523356e+000
1.4673265e+000
1.5645827e+000
1.7142401e+000
1.8710563e+000
1.9980180e+000
2.0653481e+000
2.0552719e+000
1.9611585e+000
1.8025074e+000
1.6131450e+000
1.4362714e+000
1.3114039e+000
1.2456214e+000
1.2275336e+000
1.2321194e+000
1.2353066e+000
1.2396001e+000
1.2582179e+000
1.2933532e+000
1.3366745e+000
1.3607920e+000
1.3394730e+000
1.2889544e+000
1.2465550e+000
1.2476914e+000
1.3120714e+000
1.4025240e+000
1.4605743e+000
1.4558325e+000
1.3841226e+000
1.2829440e+000
1.2019967e+000
1.1590872e+000
1.1513778e+000
1.1647000e+000
1.1827773e+000
1.1993980e+000
1.2139000e+000
1.2253349e+000
1.2329311e+000
1.2395962e+000
1.2499337e+000
1.2676085e+000
1.2916806e+000
1.3039980e+000
1.2797068e+000
1.2041309e+000
1.0807371e+000
9.6438557e-001
9.2634577e-001
9.9251258e-001
1.1504220e+000
1.3375372e+000
1.4779296e+000
1.5480212e+000
1.5554539e+000
1.5102791e+000
1.4232721e+000
1.3137040e+000
1.2102740e+000
1.1614312e+000
1.2126758e+000
1.3496572e+000
1.5181104e+000
1.6411905e+000
1.6462920e+000
1.5214822e+000
1.2973021e+000
1.0342335e+000
7.9829079e-001
6.1731499e-001
4.9224740e-001
4.0909901e-001
3.5174492e-001
3.2334435e-001
3.3784485e-001
4.0370944e-001
5.2104926e-001
6.7248940e-001
8.2968390e-001
9.6011442e-001
1.0314853e+000
1.0192599e+000
9.0955728e-001
7.1421218e-001
4.6370187e-001
2.0334680e-001
-1.6603537e-002
-1.5765409e-001
-1.9893029e-001
-1.6216075e-001
-9.2617594e-002
-2.5514450e-002
2.1764033e-002
7.0935257e-002
1.5897806e-001
2.8454709e-001
4.1744998e-001
5.1958358e-001
5.5994046e-001
5.4861403e-001
5.1984996e-001
4.9570259e-001
4.8309413e-001
4.7028178e-001
4.4085124e-001
4.0685463e-001
3.9428550e-001
4.0119180e-001
4.0377921e-001
3.7437066e-001
2.9830754e-001
2.2038144e-001
2.1644360e-001
3.2090920e-001
5.2559173e-001
7.7914000e-001
1.0095493e+000
1.1666028e+000
1.2252204e+000
1.1911151e+000
1.0941980e+000
9.8761195e-001
9.2589056e-001
9.0645909e-001
8.8253385e-001
7.9746830e-001
6.1192644e-001
3.7306181e-001
1.7495194e-001
4.2290401e-002
-5.3939648e-002
-1.2216164e-001
-1.4907542e-001
-1.2601131e-001
-5.7408173e-002
2.1671278e-002
5.6916714e-002
4.8962161e-003
-1.5047431e-001
-3.4967443e-001
-4.8981923e-001
-5.2107400e-001
-4.5333582e-001
-3.5317251e-001
-3.0881855e-001
-3.4172821e-001
-4.0927765e-001
-4.3113971e-001
-3.0464730e-001
8.0597758e-002
8.0175143e-001
1.7665871e+000
2.7664313e+000
3.6655724e+000
4.4348679e+000
5.1847482e+000
6.1208353e+000
7.4351544e+000
9.2880783e+000
1.1810951e+001
1.5051216e+001
1.8742285e+001
2.2400490e+001
2.5699963e+001
2.8562943e+001
3.1290028e+001
3.4440914e+001
3.8466599e+001
4.3545982e+001
4.9213520e+001
5.4620380e+001
5.9522728e+001
6.4264984e+001
6.9187798e+001
7.4432747e+001
7.9673866e+001
8.4281548e+001
8.7976250e+001
9.0854576e+001
9.3099976e+001
9.4890739e+001
9.6319511e+001
9.7385040e+001
9.7984543e+001
9.7954811e+001
9.7195305e+001
9.5718788e+001
9.3758797e+001
9.1679787e+001
8.9601532e+001
8.7387337e+001
8.4874672e+001
8.1953880e+001
7.8666222e+001
7.5157913e+001
7.1436386e+001
6.7371025e+001
6.2886082e+001
5.8015808e+001
5.2948021e+001
4.7984333e+001
4.3369514e+001
3.9256577e+001
3.5720833e+001
3.2764179e+001
3.0307240e+001
2.8214071e+001
2.6392780e+001
2.4813221e+001
2.3483570e+001
2.2434711e+001
2.1677502e+001
2.1194504e+001
2.0956354e+001
2.0930683e+001
2.1102446e+001
2.1475092e+001
2.2049206e+001
2.2827631e+001
2.3857492e+001
2.5223890e+001
2.6983828e+001
2.9139462e+001
3.1604635e+001
3.4223602e+001
3.6892761e+001
3.9578316e+001
4.2239269e+001
4.4842915e+001
4.7520103e+001
5.0497471e+001
5.3622459e+001
5.6343208e+001
5.8229752e+001
5.9130573e+001
5.9198723e+001
5.8808929e+001
5.8106579e+001
5.6940853e+001
5.5181461e+001
5.2833244e+001
5.0142315e+001
4.7554920e+001
4.5327072e+001
4.3438557e+001
4.1776939e+001
4.0186649e+001
3.8497574e+001
3.6553482e+001
3.4318428e+001
3.1905947e+001
2.9515100e+001
2.7365034e+001
2.5446079e+001
2.3490402e+001
2.1277294e+001
1.8747086e+001
1.6076828e+001
1.3647535e+001
1.1666334e+001
1.0071389e+001
8.7204714e+000
7.4594822e+000
6.2037492e+000
4.9572830e+000
3.7345080e+000
2.5487013e+000
1.4601331e+000
5.8204222e-001
5.2392632e-003
-2.1740644e-001
-1.7498851e-002
6.7514116e-001
1.7842423e+000
3.0624030e+000
4.3155642e+000
5.4760175e+000
6.5559893e+000
7.6308250e+000
8.7605133e+000
9.9530497e+000
1.1131600e+001
1.2130416e+001
1.2808509e+001
1.3095642e+001
1.3005234e+001
1.2641071e+001
1.2113491e+001
1.1504350e+001
1.0856268e+001
1.0164199e+001
9.3964529e+000
8.5129414e+000
7.5339026e+000
6.5631137e+000
5.7115583e+000
5.0658293e+000
4.6560726e+000
4.4427080e+000
4.3775911e+000
4.4252195e+000
4.5715170e+000
4.8261118e+000
5.1885900e+000
5.6349821e+000
6.1268325e+000
6.6125169e+000
7.0379696e+000
7.3522410e+000
7.5175962e+000
7.5179386e+000
7.3617783e+000
7.0872607e+000
6.7427583e+000
6.3799710e+000
6.0377021e+000
5.7343497e+000
5.4809465e+000
5.2818604e+000
5.1238909e+000
4.9677057e+000
4.7572603e+000
4.4257250e+000
3.9381900e+000
3.3146417e+000
2.6034503e+000
1.8753786e+000
1.1906109e+000
5.8587933e-001
9.5344156e-002
-2.4476691e-001
-4.1080770e-001
-3.9928773e-001
-2.0979051e-001
1.5647757e-001
6.7552429e-001
1.2900321e+000
1.9495040e+000
2.6244304e+000
3.2774136e+000
3.8490477e+000
4.2671571e+000
4.4547315e+000
4.3845730e+000
4.1135149e+000
3.7222195e+000
3.2974322e+000
2.9134836e+000
2.6183307e+000
2.4329138e+000
2.3403988e+000
2.2992499e+000
2.2442176e+000
2.1240354e+000
1.9237014e+000
1.6564742e+000
1.3685493e+000
1.1081010e+000
9.1298550e-001
8.1312382e-001
8.2848418e-001
9.7244996e-001
1.2500366e+000
1.6586931e+000
2.1839757e+000
2.7973518e+000
3.4492335e+000
4.0801477e+000
4.6251259e+000
5.0409617e+000
5.3279629e+000
5.5107455e+000
5.6382532e+000
5.7527423e+000
5.8738437e+000
6.0156631e+000
6.1923113e+000
6.4209213e+000
6.7236195e+000
7.1168361e+000
7.6050878e+000
8.1942778e+000
8.8969927e+000
9.7211933e+000
1.0660662e+001
1.1694046e+001
1.2778500e+001
1.3867475e+001
1.4913930e+001
1.5861680e+001
1.6637304e+001
1.7166586e+001
1.7384411e+001
1.7255119e+001
1.6795431e+001
1.6041477e+001
1.5043750e+001
1.3855257e+001
1.2531862e+001
1.1146942e+001
9.8109159e+000
8.6364574e+000
7.7179694e+000
7.1195188e+000
6.8492908e+000
6.8741722e+000
7.1005287e+000
7.4047956e+000
7.6353350e+000
7.6645989e+000
7.4339991e+000
6.9394712e+000
6.2573762e+000
5.4781466e+000
4.6802802e+000
3.9207292e+000
3.2175150e+000
2.5821137e+000
2.0318608e+000
1.5861419e+000
1.2648764e+000
1.0773200e+000
1.0088012e+000
1.0359980e+000
1.1285621e+000
1.2569721e+000
1.3970901e+000
1.5289057e+000
1.6386030e+000
1.7134902e+000
1.7399203e+000
1.7051328e+000
1.5995796e+000
1.4223840e+000
1.1906929e+000
9.2737919e-001
6.5894175e-001
4.1438177e-001
2.2432616e-001
1.0060361e-001
1.1460651e-002
-7.2734542e-002
-1.5233020e-001
-2.2272797e-001
-2.8377011e-001
-3.3324987e-001
-3.6192292e-001
-3.6261785e-001
-3.3706823e-001
-2.8773159e-001
-2.1440375e-001
-1.2279589e-001
-3.4612201e-002
2.6094371e-002
4.0738419e-002
9.0583004e-003
-2.7371800e-002
-2.3018351e-002
5.0663516e-002
2.0204879e-001
3.9989316e-001
6.1541569e-001
8.5133868e-001
1.1258960e+000
1.4758111e+000
1.9226525e+000
2.4360342e+000
2.9636614e+000
3.4310880e+000
3.7708092e+000
3.9494061e+000
3.9565914e+000
3.8221421e+000
3.5920103e+000
3.3294868e+000
3.0928888e+000
2.9147937e+000
2.8066559e+000
2.7387774e+000
2.6729283e+000
2.5761380e+000
2.4322429e+000
2.2693632e+000
2.1284845e+000
2.0559819e+000
2.0805080e+000
2.1775894e+000
2.3084786e+000
2.4325218e+000
2.5289063e+000
2.6331723e+000
2.7768400e+000
2.9377887e+000
3.0680153e+000
3.0842319e+000
2.9291055e+000
2.6479864e+000
2.3108554e+000
1.9859009e+000
1.7187400e+000
1.4886713e+000
1.2640944e+000
1.0298325e+000
7.8345388e-001
5.4940933e-001
3.5205242e-001
1.9480282e-001
6.5889806e-002
-7.6801464e-002
-2.6772553e-001
-4.9374229e-001
-7.2555071e-001
-9.2066079e-001
-1.0483240e+000
-1.1257936e+000
-1.1828700e+000
-1.2513450e+000
-1.3505075e+000
-1.4570372e+000
-1.5347800e+000
-1.5417696e+000
-1.4474543e+000
-1.2650731e+000
-1.0260704e+000
-7.8726858e-001
-6.0044140e-001
-4.8041150e-001
-4.2813560e-001
-4.2885530e-001
-4.6851945e-001
-5.4822701e-001
-6.5989655e-001
-7.5092751e-001
-7.6182961e-001
-6.4905030e-001
-4.0672177e-001
-1.4685357e-001
3.0355662e-002
1.7056546e-001
3.4590590e-001
5.9303159e-001
9.2570281e-001
1.3066057e+000
1.6799445e+000
1.9695837e+000
2.1232343e+000
2.1944735e+000
2.2595401e+000
2.3780203e+000
2.5841515e+000
2.8314450e+000
3.0556242e+000
3.2026165e+000
3.2337577e+000
3.1593220e+000
3.0011766e+000
2.7767279e+000
2.5007696e+000
2.1808429e+000
1.8415587e+000
1.5827142e+000
1.5227000e+000
