##TITLE=Methyl Ethyl Ketone
##JCAMP-DX=4.24
##DATA TYPE=INFRARED SPECTRUM
##XUNITS=cm-1
##YUNITS=Absorbance
##FIRSTX=900
##LASTX=2300
##XYDATA=(X++(Y..Y))
2296 0.023327
2294 0.023812305
2292 0.024297612
2290 0.024782918
2288 0.025268223
2286 0.025753528
2284 0.026238834
2282 0.026724141
2280 0.027209446
2278 0.027694751
2276 0.028180057
2274 0.028665364
2272 0.029150669
2270 0.029635973
2268 0.03012128
2266 0.030606586
2264 0.031091891
2262 0.0315772
2260 0.032062501
2258 0.032547809
2256 0.033033118
2254 0.033518419
2252 0.034003727
2250 0.034489028
2248 0.034974337
2246 0.035459645
2244 0.0068220827
2242 0.0029030794
2240 -0.0063802004
2238 -0.015760122
2236 -0.0250734
2234 -0.029963901
2232 -0.033773474
2230 -0.020492611
2228 -0.004259916
2226 0.029223541
2224 0.060154308
2222 0.075599439
2220 0.080174774
2218 0.054269336
2216 0.026889
2214 3.5287114e-05
2212 -0.021225359
2210 -0.033426683
2208 -0.036995661
2206 -0.030502258
2204 -0.0068266541
2202 0.032759313
2200 0.070749298
2198 0.10675525
2196 0.13556714
2194 0.16033281
2192 0.19499211
2190 0.23413004
2188 0.25837338
2186 0.27766636
2184 0.26156959
2182 0.23738801
2180 0.20056526
2178 0.16219248
2176 0.14714657
2174 0.13649152
2172 0.15138416
2170 0.16539609
2168 0.16056074
2166 0.14701414
2164 0.10848326
2162 0.073370546
2160 0.053360239
2158 0.044335347
2156 0.053174999
2154 0.061525226
2152 0.066493593
2150 0.070670985
2148 0.074368827
2146 0.085829109
2144 0.10421281
2142 0.1299907
2140 0.16045684
2138 0.19176628
2136 0.22324543
2134 0.24292631
2132 0.25751358
2130 0.25659624
2128 0.25085562
2126 0.23477136
2124 0.21641408
2122 0.1977116
2120 0.17980897
2118 0.17725578
2116 0.178308
2114 0.18958859
2112 0.20267172
2110 0.21689554
2108 0.22861855
2106 0.23232664
2104 0.22304051
2102 0.18782814
2100 0.13851559
2098 0.072032414
2096 0.011608486
2094 -0.037435804
2092 -0.066327699
2090 -0.076059707
2088 -0.064645521
2086 -0.038286399
2084 0.0001381035
2082 0.045069464
2080 0.080595337
2078 0.11086653
2076 0.13188358
2074 0.14937049
2072 0.167798
2070 0.18673123
2068 0.19543397
2066 0.20155264
2064 0.18811519
2062 0.17012531
2060 0.14047597
2058 0.1123214
2056 0.10500857
2054 0.1123923
2052 0.15889454
2050 0.21447878
2048 0.27484164
2046 0.32135358
2044 0.33975181
2042 0.34073937
2040 0.32247102
2038 0.30295143
2036 0.28501272
2034 0.27572924
2032 0.27479628
2030 0.27865839
2028 0.28591156
2026 0.29892179
2024 0.31581029
2022 0.35379624
2020 0.40280247
2018 0.45703289
2016 0.512312
2014 0.52401286
2012 0.52011251
2010 0.46890226
2008 0.4049077
2006 0.34034041
2004 0.27902484
2002 0.24431951
2000 0.22128281
1998 0.2233471
1996 0.23433499
1994 0.2556158
1992 0.27206096
1990 0.26818058
1988 0.2463066
1986 0.19679415
1984 0.14575595
1982 0.10187099
1980 0.075024158
1978 0.067574553
1976 0.0763814
1974 0.097502664
1972 0.14043017
1970 0.19900435
1968 0.25107908
1966 0.29702812
1964 0.2827251
1962 0.23588064
1960 0.16181919
1958 0.077216849
1956 0.024398629
1954 -0.016524322
1952 -0.034696251
1950 -0.047181156
1948 -0.057208955
1946 -0.06489075
1944 -0.067176089
1942 -0.061337192
1940 -0.047183923
1938 -0.032094114
1936 -0.024640229
1934 -0.027911663
1932 -0.043028899
1930 -0.066561922
1928 -0.092833951
1926 -0.11198453
1924 -0.11764969
1922 -0.094451644
1920 -0.046711586
1918 0.00571658
1916 0.051866256
1914 0.063750736
1912 0.051021192
1910 0.021337613
1908 -0.014694664
1906 -0.052918486
1904 -0.092671275
1902 -0.1209214
1900 -0.14520738
1898 -0.12772551
1896 -0.093959287
1894 -0.050739467
1892 -0.0093738521
1890 -0.01264968
1888 -0.037285447
1886 -0.088558577
1884 -0.14176869
1882 -0.17238207
1880 -0.18307926
1878 -0.16240144
1876 -0.12636401
1874 -0.073395878
1872 -0.022664342
1870 0.021362312
1868 0.036444392
1866 0.0075831646
1864 -0.054104652
1862 -0.14642546
1860 -0.23878117
1858 -0.32026815
1856 -0.38507971
1854 -0.43462816
1852 -0.45841342
1850 -0.46288541
1848 -0.4499692
1846 -0.42378429
1844 -0.42622834
1842 -0.4403967
1840 -0.4664889
1838 -0.49636027
1836 -0.48349243
1834 -0.44963229
1832 -0.38204971
1830 -0.2991941
1828 -0.22393844
1826 -0.15818292
1824 -0.12963285
1822 -0.13121742
1820 -0.162845
1818 -0.21330261
1816 -0.26534972
1814 -0.31395429
1812 -0.35184181
1810 -0.3723343
1808 -0.37866828
1806 -0.37046099
1804 -0.35258669
1802 -0.36803764
1800 -0.41204041
1798 -0.48069647
1796 -0.56266212
1794 -0.56112057
1792 -0.50426841
1790 -0.39155588
1788 -0.25498569
1786 -0.1773515
1784 -0.14073268
1782 -0.13867489
1780 -0.15702851
1778 -0.164855
1776 -0.15794343
1774 -0.11007075
1772 -0.031003073
1770 0.055280481
1768 0.12639062
1766 0.13833214
1764 0.10673208
1762 0.056799665
1760 0.013538977
1758 -0.080960274
1756 -0.17559572
1754 -0.21389855
1752 -0.18946606
1750 -0.1061857
1748 -0.036742277
1746 -0.0059159743
1744 -0.047732364
1742 -0.15995862
1740 -0.24413717
1738 -0.28846136
1736 -0.221386
1734 -0.066001602
1732 0.060224075
1730 0.15155886
1728 0.10999926
1726 -0.022428099
1724 -0.10517374
1722 -0.1292955
1720 0.0046066865
1718 0.27377257
1716 0.73352987
1714 1.3135349
1712 1.8621
1710 2.3849545
1708 2.91081
1706 3.5890563
1704 4.5743103
1702 6.1199865
1700 8.3460197
1698 11.460477
1696 15.410429
1694 19.43561
1692 23.187656
1690 26.535381
1688 29.542938
1686 33.106178
1684 37.316364
1682 42.397861
1680 48.159882
1678 53.240429
1676 57.668415
1674 61.93811
1672 66.179321
1670 71.151749
1668 76.65741
1666 82.024055
1664 87.137215
1662 91.607834
1660 95.474876
1658 98.791061
1656 101.53429
1654 103.69081
1652 105.0376
1650 105.34613
1648 104.43428
1646 102.19714
1644 99.237373
1642 96.134377
1640 92.858833
1638 89.436371
1636 85.398415
1634 80.615761
1632 75.642403
1630 70.689072
1628 66.033089
1626 61.706848
1624 57.365242
1622 52.960102
1620 48.740505
1618 44.717564
1616 41.002171
1614 37.602825
1612 34.592278
1610 31.97748
1608 29.739862
1606 27.869593
1604 26.263414
1602 24.941208
1600 23.894531
1598 23.124529
1596 22.59
1594 22.272846
1592 22.115206
1590 22.092384
1588 22.158888
1586 22.297771
1584 22.493114
1582 22.73926
1580 23.033876
1578 23.432751
1576 23.954
1574 24.655096
1572 25.535849
1570 26.546236
1568 27.66744
1566 28.828285
1564 30.028004
1562 31.458103
1560 33.223171
1558 35.949154
1556 39.695557
1554 43.700977
1552 47.707298
1550 50.704754
1548 52.733047
1546 54.428535
1544 55.807865
1542 57.009727
1540 57.847939
1538 58.025272
1536 57.519341
1534 56.423138
1532 54.968201
1530 53.488411
1528 51.951553
1526 50.333797
1524 48.494244
1522 46.330692
1520 43.955452
1518 41.37775
1516 38.994057
1514 36.958378
1512 35.033798
1510 33.217377
1508 30.911804
1506 27.962643
1504 24.974297
1502 21.989954
1500 19.498577
1498 17.550781
1496 15.612857
1494 13.669111
1492 11.63604
1490 9.5273933
1488 7.4168739
1486 5.384758
1484 3.5797319
1482 2.0827403
1480 0.98453933
1478 0.30403826
1476 0.055158913
1474 0.34732729
1472 1.1328371
1470 2.128454
1468 3.1519709
1466 4.0210786
1464 4.6267815
1462 5.1205792
1460 5.5540819
1458 6.0040779
1456 6.4900198
1454 6.920722
1452 7.2359991
1450 7.4152708
1448 7.389174
1446 7.2932534
1444 7.1023526
1442 6.8762312
1440 6.6008859
1438 6.2605882
1436 5.8317642
1434 5.2819338
1432 4.6261916
1430 3.9759963
1428 3.3739319
1426 2.9278457
1424 2.6481137
1422 2.5234835
1420 2.5445945
1418 2.6703193
1416 2.8608885
1414 3.0702319
1412 3.2631106
1410 3.4330568
1408 3.6059291
1406 3.807905
1404 4.0579515
1402 4.3742113
1400 4.7289438
1398 5.1297674
1396 5.5319214
1394 5.9191914
1392 6.2441411
1390 6.4363918
1388 6.5135198
1386 6.4047303
1384 6.1987705
1382 5.8618021
1380 5.4810357
1378 5.0514617
1376 4.6027369
1374 4.1489792
1372 3.7046299
1370 3.2781668
1368 2.8862343
1366 2.4969735
1364 2.0719786
1362 1.6158644
1360 1.1225312
1358 0.66272599
1356 0.32525629
1354 0.09315452
1352 0.019826697
1350 0.027014945
1348 0.11688121
1346 0.24828464
1344 0.44056278
1342 0.66583401
1340 0.95201999
1338 1.23648
1336 1.5035771
1334 1.7326559
1332 1.8689283
1330 1.987751
1328 2.0833607
1326 2.2114072
1324 2.4037452
1322 2.6465938
1320 2.9612308
1318 3.3014543
1316 3.6650901
1314 4.013639
1312 4.3302693
1310 4.6010423
1308 4.8129978
1306 4.9612513
1304 5.0565414
1302 5.1011686
1300 5.1194692
1298 5.1171198
1296 5.1048999
1294 5.0767579
1292 5.0412531
1290 4.9923286
1288 4.942596
1286 4.8939238
1284 4.8492684
1282 4.8119845
1280 4.7828813
1278 4.7719717
1276 4.7757459
1274 4.8126559
1272 4.8658423
1270 4.9494557
1268 5.0421357
1266 5.1453352
1264 5.2505951
1262 5.3558035
1260 5.4640603
1258 5.5763235
1256 5.6940203
1254 5.8169503
1252 5.9446096
1250 6.0761356
1248 6.2121248
1246 6.3498001
1244 6.4815884
1242 6.6012521
1240 6.6845617
1238 6.7359867
1236 6.716486
1234 6.6528473
1232 6.4897604
1230 6.2784319
1228 5.9433174
1226 5.5683165
1224 5.0885077
1222 4.5903215
1220 4.0502777
1218 3.521261
1216 3.0186772
1214 2.5540979
1212 2.1589241
1210 1.8123478
1208 1.5368646
1206 1.3008322
1204 1.1106822
1202 0.93969536
1200 0.78679484
1198 0.63908815
1196 0.49889928
1194 0.37349591
1192 0.26582611
1190 0.1974085
1188 0.15767369
1186 0.16491556
1184 0.1977828
1182 0.27260816
1180 0.37266135
1178 0.53820938
1176 0.73218
1174 1.0059609
1172 1.2880754
1170 1.5816288
1168 1.8492063
1166 2.0315921
1164 2.1633482
1162 2.167136
1160 2.1178503
1158 1.9628489
1156 1.7822315
1154 1.5621676
1152 1.3436663
1150 1.12722
1148 0.90754962
1146 0.68596357
1144 0.47195989
1142 0.27363545
1140 0.12858413
1138 0.034015946
1136 0.023001971
1134 0.069826536
1132 0.18327975
1130 0.32842761
1128 0.50696456
1126 0.6918664
1124 0.86348712
1122 1.0265341
1120 1.156088
1118 1.2796781
1116 1.3870515
1114 1.4914281
1112 1.584024
1110 1.6695064
1108 1.7330369
1106 1.7977101
1104 1.8643452
1102 1.9253013
1100 1.9713475
1098 1.9845624
1096 1.9460715
1094 1.8907938
1092 1.815804
1090 1.7451712
1088 1.6803532
1086 1.6276236
1084 1.5883871
1082 1.5775635
1080 1.582004
1078 1.5719811
1076 1.5486329
1074 1.475019
1072 1.3828616
1070 1.2764286
1068 1.1683917
1066 1.073444
1064 0.9843632
1062 0.92708653
1060 0.87463081
1058 0.84240347
1056 0.80402285
1054 0.73830295
1052 0.66534078
1050 0.57093585
1048 0.48819923
1046 0.43453929
1044 0.39705777
1042 0.38730332
1040 0.36388189
1038 0.31850481
1036 0.25295001
1034 0.16380906
1032 0.06295976
1030 -0.051240236
1028 -0.20157376
1026 -0.3783583
1024 -0.57569653
1022 -0.78046817
1020 -0.94887418
1018 -1.0984483
1016 -1.1927142
1014 -1.2679286
1012 -1.2971731
1010 -1.3179075
1008 -1.331432
1006 -1.3483129
1004 -1.4121374
1002 -1.4786085
1000 -1.5598748
998 -1.6295353
996 -1.6480215
994 -1.646497
992 -1.5820137
990 -1.490407
988 -1.3366096
986 -1.1712081
984 -0.98765504
982 -0.8484329
980 -0.77079576
978 -0.74511296
976 -0.77343601
974 -0.80717605
972 -0.844787
970 -0.87346935
968 -0.89527011
966 -0.89732045
964 -0.88899702
962 -0.85398775
960 -0.80966312
958 -0.74289799
956 -0.67000449
954 -0.56134653
952 -0.4480668
950 -0.32538065
948 -0.20134097
946 -0.065188609
944 0.0024638772
942 0.07690385
940 0.23162542
938 0.43280888
936 0.61887997
934 0.76065236
932 0.88444245
930 0.97037226
928 1.0730622
926 1.2021965
924 1.3182141
922 1.4171451
920 1.4289137
918 1.3594103
916 1.2644843
914 1.1526786
912 1.1282583
910 1.151596
908 1.2513194
906 1.381845
904 1.5279663
902 1.6791863
900 1.7925076
898 1.8999408
896 1.9285001
