Image.
>Pix99999.
  .
5555
5555
2300
900
5555
2
1
0
701
5555
7.4615002e-002
7.6166779e-002
7.7719562e-002
7.9271339e-002
8.0824114e-002
8.2375899e-002
8.3928674e-002
8.5480459e-002
8.7033227e-002
8.8585019e-002
9.0137780e-002
9.1689579e-002
9.3242340e-002
9.4794139e-002
9.6345924e-002
9.7898684e-002
9.9451460e-002
1.0100228e-001
1.0255989e-001
1.0410792e-001
1.0565571e-001
1.0721321e-001
1.0876129e-001
1.1031874e-001
1.1186685e-001
1.1342429e-001
4.6667341e-002
1.7006142e-003
-2.9516160e-003
2.9153146e-002
6.6342190e-002
1.4920461e-001
2.3637457e-001
3.4663263e-001
4.4925922e-001
4.8168501e-001
4.8928624e-001
3.9938569e-001
3.0027032e-001
1.8882671e-001
9.9363796e-002
5.9497558e-002
4.8555162e-002
8.0097899e-002
1.1897343e-001
1.6374364e-001
1.8770880e-001
1.9129826e-001
1.8155824e-001
1.6287170e-001
1.7077786e-001
1.9430698e-001
2.5703976e-001
3.3648288e-001
4.3615851e-001
5.4205686e-001
6.6407675e-001
7.8972757e-001
9.0691054e-001
1.0221794e+000
1.0869401e+000
1.1443154e+000
1.1700805e+000
1.1912100e+000
1.2029126e+000
1.2141507e+000
1.2271554e+000
1.2517306e+000
1.3056629e+000
1.3697928e+000
1.4478401e+000
1.4992908e+000
1.5100315e+000
1.4763047e+000
1.3970011e+000
1.3307786e+000
1.2802199e+000
1.3134370e+000
1.4038583e+000
1.5457197e+000
1.7123513e+000
1.8217204e+000
1.9062474e+000
1.9017090e+000
1.8695279e+000
1.8309600e+000
1.7912897e+000
1.8096064e+000
1.8381668e+000
1.8857046e+000
1.9313143e+000
1.9438860e+000
1.9456817e+000
1.9218669e+000
1.9041754e+000
1.9160879e+000
1.9494491e+000
2.0204716e+000
2.0786581e+000
2.1057179e+000
2.0945857e+000
2.0392313e+000
1.9856209e+000
1.9405596e+000
1.9255006e+000
1.9348800e+000
1.9608146e+000
1.9957666e+000
2.0160999e+000
2.0277495e+000
2.0046201e+000
1.9673526e+000
1.9478440e+000
1.9343147e+000
1.9995062e+000
2.0836358e+000
2.1932092e+000
2.3005662e+000
2.3440742e+000
2.3634930e+000
2.3200827e+000
2.2654207e+000
2.2126501e+000
2.1741555e+000
2.1688874e+000
2.1765749e+000
2.1955841e+000
2.2081587e+000
2.2101817e+000
2.1816499e+000
2.1216199e+000
2.0537193e+000
1.9832885e+000
1.9827790e+000
2.0357697e+000
2.1234713e+000
2.2265222e+000
2.2498956e+000
2.2298059e+000
2.1585021e+000
2.0692999e+000
2.0340106e+000
2.0194967e+000
2.0480125e+000
2.0860240e+000
2.0815899e+000
2.0611470e+000
1.9978241e+000
1.9318103e+000
1.8922457e+000
1.8720785e+000
1.8850485e+000
1.8905394e+000
1.8686855e+000
1.8221740e+000
1.7548985e+000
1.6970342e+000
1.6587809e+000
1.6444638e+000
1.6476008e+000
1.6705457e+000
1.7057750e+000
1.7549037e+000
1.8108271e+000
1.8482200e+000
1.8734843e+000
1.8532153e+000
1.8126870e+000
1.7660201e+000
1.7188472e+000
1.6928872e+000
1.6761086e+000
1.6642046e+000
1.6569324e+000
1.6427760e+000
1.6200000e+000
1.5694846e+000
1.4983401e+000
1.4171820e+000
1.3393599e+000
1.2858030e+000
1.2557609e+000
1.2468101e+000
1.2690911e+000
1.3201280e+000
1.4233915e+000
1.5772586e+000
1.7486507e+000
1.9310457e+000
2.0228291e+000
2.0417972e+000
1.9868919e+000
1.8871325e+000
1.7970669e+000
1.7153317e+000
1.6433100e+000
1.5777600e+000
1.5491370e+000
1.5406971e+000
1.5810840e+000
1.6395857e+000
1.6594366e+000
1.6514513e+000
1.5733629e+000
1.4671119e+000
1.3733178e+000
1.2956711e+000
1.2572676e+000
1.2407817e+000
1.2334331e+000
1.2448800e+000
1.2657685e+000
1.2987520e+000
1.3339934e+000
1.3187809e+000
1.2624643e+000
1.1488806e+000
1.0080436e+000
8.8868541e-001
7.8662419e-001
7.2240198e-001
6.7491537e-001
7.2198927e-001
8.2137281e-001
1.0419376e+000
1.3180964e+000
1.4643186e+000
1.5241694e+000
1.3381886e+000
1.0447428e+000
7.5761974e-001
5.0829321e-001
3.8090858e-001
3.3074886e-001
3.8050100e-001
4.4235694e-001
4.6620190e-001
4.3287101e-001
3.0829400e-001
1.8159373e-001
8.8912293e-002
7.2461039e-002
1.3712044e-001
2.0968550e-001
2.6466081e-001
2.9319102e-001
3.0194777e-001
3.8645664e-001
5.3555024e-001
7.3543900e-001
9.6152860e-001
1.0461864e+000
1.0397360e+000
8.9915234e-001
6.9642258e-001
5.5264097e-001
4.5740378e-001
4.1431570e-001
4.1568115e-001
4.7666410e-001
5.7005715e-001
6.6191185e-001
6.8640488e-001
5.5779982e-001
3.4294015e-001
1.2893605e-001
-5.6125000e-003
-1.5247226e-002
3.7959836e-002
-3.9491430e-004
-7.2735623e-002
-1.1560701e-001
-2.0842783e-002
2.1568373e-001
5.0855988e-001
8.2487392e-001
9.5488489e-001
9.2581767e-001
8.2522678e-001
6.8411267e-001
6.0666001e-001
5.6655139e-001
3.9635837e-001
1.3728918e-001
-1.7894669e-001
-4.8353493e-001
-5.6021780e-001
-4.1383609e-001
2.8374970e-002
6.8550849e-001
1.6154816e+000
2.6369066e+000
3.5389423e+000
4.3982215e+000
5.2538018e+000
6.3401952e+000
7.8232436e+000
9.8814125e+000
1.2594223e+001
1.5720349e+001
1.9124857e+001
2.2265211e+001
2.4945269e+001
2.7452812e+001
2.9879885e+001
3.2853245e+001
3.6394802e+001
4.0329403e+001
4.4555679e+001
4.8242744e+001
5.1454086e+001
5.4716305e+001
5.8068474e+001
6.1948547e+001
6.6205261e+001
7.0409653e+001
7.4527428e+001
7.8368446e+001
8.1944275e+001
8.5216217e+001
8.8244942e+001
9.1103386e+001
9.3767998e+001
9.6243103e+001
9.7951881e+001
9.8512680e+001
9.8090065e+001
9.6898247e+001
9.5148430e+001
9.3000290e+001
9.0150566e+001
8.6585510e+001
8.2664551e+001
7.8575844e+001
7.4602570e+001
7.0775139e+001
6.6777557e+001
6.2576775e+001
5.8346416e+001
5.4114342e+001
5.0044514e+001
4.6173168e+001
4.2671520e+001
3.9572308e+001
3.6902431e+001
3.4633244e+001
3.2615993e+001
3.0853748e+001
2.9313515e+001
2.8009762e+001
2.6921000e+001
2.6032166e+001
2.5301348e+001
2.4715750e+001
2.4248343e+001
2.3939470e+001
2.3793718e+001
2.3859289e+001
2.4132252e+001
2.4673151e+001
2.5494884e+001
2.6511255e+001
2.7710192e+001
2.8861870e+001
2.9923120e+001
3.0913542e+001
3.1833128e+001
3.2964691e+001
3.4378738e+001
3.6428257e+001
3.9035599e+001
4.1400539e+001
4.3436039e+001
4.4864639e+001
4.5830631e+001
4.6860107e+001
4.7994019e+001
4.9310074e+001
5.0502399e+001
5.1231030e+001
5.1334743e+001
5.0695930e+001
4.9707165e+001
4.8690689e+001
4.7718098e+001
4.6845501e+001
4.5925156e+001
4.4896851e+001
4.3486691e+001
4.1615753e+001
3.9602459e+001
3.7522629e+001
3.5600838e+001
3.3841553e+001
3.1638742e+001
2.8828293e+001
2.5854816e+001
2.2790489e+001
2.0203510e+001
1.8153530e+001
1.6147999e+001
1.4156161e+001
1.2092398e+001
9.9531860e+000
7.8250713e+000
5.7600598e+000
3.8444700e+000
2.2279806e+000
1.0158944e+000
2.6860788e-001
7.7282660e-002
4.6690914e-001
1.3386991e+000
2.2896349e+000
3.1166737e+000
3.8895242e+000
4.5788116e+000
5.3181152e+000
6.1603498e+000
6.8581858e+000
7.3123598e+000
7.3832574e+000
6.9468107e+000
6.4411154e+000
5.8846674e+000
5.3719716e+000
4.9188080e+000
4.5161629e+000
4.1693721e+000
3.8697679e+000
3.5735331e+000
3.1982112e+000
2.7151966e+000
2.1658478e+000
1.6380999e+000
1.2606293e+000
1.0771171e+000
1.0956129e+000
1.2407072e+000
1.4404335e+000
1.6392343e+000
1.7943600e+000
1.9910529e+000
2.2506747e+000
2.5794771e+000
2.9873466e+000
3.4162536e+000
3.8789861e+000
4.3255162e+000
4.7479572e+000
5.0849428e+000
5.2797894e+000
5.3568959e+000
5.2787256e+000
5.1432920e+000
4.9301949e+000
4.6795602e+000
4.3835487e+000
4.1037917e+000
3.8437471e+000
3.6281114e+000
3.4238248e+000
3.1933320e+000
2.9318585e+000
2.6333263e+000
2.3262372e+000
2.0149598e+000
1.6831012e+000
1.3253714e+000
9.6199834e-001
6.2244445e-001
3.4347600e-001
1.5199375e-001
2.5814988e-002
-3.4080796e-002
-8.0596894e-002
4.1586831e-003
1.6124222e-001
4.3552577e-001
6.8765777e-001
8.9156431e-001
9.8664117e-001
9.4223905e-001
8.7170309e-001
7.7999455e-001
7.4964732e-001
7.9546046e-001
9.3092144e-001
1.1590612e+000
1.4360558e+000
1.7366600e+000
1.9841440e+000
2.1738875e+000
2.2719052e+000
2.3128543e+000
2.3124671e+000
2.2959766e+000
2.2881680e+000
2.2963715e+000
2.3553703e+000
2.4448714e+000
2.5889664e+000
2.7370856e+000
2.8702042e+000
2.9812400e+000
3.0443063e+000
3.1046228e+000
3.1740482e+000
3.2549679e+000
3.3648787e+000
3.4838257e+000
3.6136520e+000
3.7555673e+000
3.9129260e+000
4.0905733e+000
4.3078909e+000
4.5647335e+000
4.8867030e+000
5.2694998e+000
5.7208948e+000
6.2193260e+000
6.7606301e+000
7.3259673e+000
7.9152083e+000
8.5335760e+000
9.1660004e+000
9.8067560e+000
1.0432601e+001
1.1004600e+001
1.1529112e+001
1.1940201e+001
1.2279733e+001
1.2451679e+001
1.2549529e+001
1.2456100e+001
1.2307878e+001
1.2015777e+001
1.1687063e+001
1.1271023e+001
1.0820320e+001
1.0298201e+001
9.7324686e+000
9.0945501e+000
8.4428835e+000
7.7804160e+000
7.1526232e+000
6.5651960e+000
5.9844246e+000
5.4022903e+000
4.7882667e+000
4.1548142e+000
3.5392234e+000
2.9521472e+000
2.4428401e+000
1.9894409e+000
1.6268178e+000
1.3121029e+000
1.0725179e+000
8.6514896e-001
7.1665770e-001
5.9592003e-001
5.5331016e-001
5.3425771e-001
5.9086156e-001
6.3820636e-001
6.5716535e-001
6.3696837e-001
5.2056277e-001
3.8502383e-001
2.1543288e-001
7.1968742e-002
-2.5683537e-002
-8.7408498e-002
-1.0292940e-001
-1.0937640e-001
-1.0616785e-001
-1.0166256e-001
-8.7131329e-002
-2.8574597e-002
6.8690166e-002
2.2522628e-001
4.4623768e-001
7.5339115e-001
1.0987597e+000
1.4698057e+000
1.8504000e+000
2.2421820e+000
2.6399484e+000
3.0599999e+000
3.4766161e+000
3.8648829e+000
4.2456646e+000
4.5977263e+000
4.9607983e+000
5.3586593e+000
5.7569599e+000
6.1548271e+000
6.5360441e+000
6.8869658e+000
7.2466764e+000
7.6202140e+000
7.9988208e+000
8.3811235e+000
8.7443037e+000
9.0917730e+000
9.4553013e+000
9.8370237e+000
1.0264185e+001
1.0707336e+001
1.1085240e+001
1.1403557e+001
1.1514594e+001
1.1544075e+001
1.1470069e+001
1.1384525e+001
1.1373878e+001
1.1376121e+001
1.1401964e+001
1.1413925e+001
1.1326313e+001
1.1208086e+001
1.0952965e+001
1.0665766e+001
1.0276747e+001
9.8700924e+000
9.4222393e+000
8.9661713e+000
8.4972153e+000
8.0362864e+000
7.5895452e+000
7.1620898e+000
6.7557096e+000
6.3505793e+000
5.9457612e+000
5.5449705e+000
5.1498947e+000
4.7904229e+000
4.4537797e+000
4.1577911e+000
3.8780737e+000
3.5981743e+000
3.3144062e+000
2.9879928e+000
2.6534595e+000
2.3119760e+000
1.9743721e+000
1.6919227e+000
1.4103514e+000
1.1320792e+000
8.4112167e-001
4.9497142e-001
1.5188281e-001
-1.7837915e-001
-4.7254756e-001
-6.8245274e-001
-8.6521053e-001
-1.0015026e+000
-1.1210630e+000
-1.2150501e+000
-1.2325978e+000
-1.1646720e+000
-9.8413932e-001
-7.1068060e-001
-3.7705162e-001
-8.4469020e-003
3.5048050e-001
6.9832361e-001
9.1780519e-001
1.0862509e+000
1.0349733e+000
9.3250102e-001
7.1992838e-001
4.9623120e-001
3.1945646e-001
1.5085752e-001
7.0429765e-002
3.7228284e-004
-1.8022135e-003
-5.5462420e-002
-7.4831448e-002
-9.1075771e-002
-9.8891497e-002
-1.0518817e-001
-1.0812935e-001
-1.0713863e-001
-9.9542290e-002
-6.6408008e-002
-1.6878396e-003
1.2802914e-001
3.1873864e-001
5.2727014e-001
7.4729174e-001
8.4607863e-001
8.7840372e-001
8.3555681e-001
7.6164782e-001
8.3004034e-001
9.3360275e-001
1.1300020e+000
1.3402393e+000
1.4376000e+000
