##TITLE=Methyl Ethyl Ketone
##JCAMP-DX=4.24
##DATA TYPE=INFRARED SPECTRUM
##XUNITS=cm-1
##YUNITS=Absorbance
##FIRSTX=900
##LASTX=2300
##XYDATA=(X++(Y..Y))
2296 0.13435
2294 0.13714601
2292 0.13994201
2290 0.142738
2288 0.14552405
2286 0.14832
2284 0.151116
2282 0.15391201
2280 0.156708
2278 0.159504
2276 0.16230001
2274 0.165096
2272 0.16789201
2270 0.17068799
2268 0.17347419
2266 0.17626999
2264 0.179066
2262 0.18186201
2260 0.18465799
2258 0.187454
2256 0.19024999
2254 0.193046
2252 0.195842
2250 0.19862832
2248 0.201424
2246 0.20422
2244 0.14447843
2242 0.0054837
2240 -0.1464576
2238 -0.25565434
2236 -0.35865745
2234 -0.37848568
2232 -0.3923119
2230 -0.40547007
2228 -0.41636541
2226 -0.41021147
2224 -0.38459954
2222 -0.27472532
2220 -0.15823893
2218 -0.0357453
2216 0.032977343
2214 -0.016503254
2212 -0.12062529
2210 -0.30245084
2208 -0.45065913
2206 -0.55096859
2204 -0.58202595
2202 -0.54914236
2200 -0.51105082
2198 -0.47212282
2196 -0.45965856
2194 -0.46256295
2192 -0.48615947
2190 -0.51843899
2188 -0.59439862
2186 -0.6843347
2184 -0.78555
2182 -0.88912368
2180 -0.92184764
2178 -0.94340736
2176 -0.92000139
2174 -0.89650738
2172 -0.91912591
2170 -0.94402432
2168 -0.95730728
2166 -0.95021939
2164 -0.8732909
2162 -0.80520785
2160 -0.77752352
2158 -0.79298812
2156 -0.88225704
2154 -0.95973027
2152 -1.0090253
2150 -1.0209657
2148 -0.99407715
2146 -0.98821074
2144 -1.0045698
2142 -1.04932
2140 -1.1123571
2138 -1.15686
2136 -1.19012
2134 -1.1818621
2132 -1.156198
2130 -1.0745529
2128 -0.97537518
2126 -0.87709337
2124 -0.77950948
2122 -0.76214188
2120 -0.75900197
2118 -0.78230566
2116 -0.80972302
2114 -0.83849001
2112 -0.87450135
2110 -0.94056565
2108 -1.0014154
2106 -1.0332543
2104 -1.0361371
2102 -0.98508096
2100 -0.92754322
2098 -0.87275219
2096 -0.83056712
2094 -0.80488187
2092 -0.79983705
2090 -0.81369036
2088 -0.86111945
2086 -0.93307698
2084 -0.9990465
2082 -1.058612
2080 -1.0597348
2078 -1.0311985
2076 -0.95236576
2074 -0.85431409
2072 -0.79685003
2070 -0.75347519
2068 -0.84859729
2066 -0.98013991
2064 -1.1939857
2062 -1.4155784
2060 -1.5387022
2058 -1.6134701
2056 -1.5282571
2054 -1.3982728
2052 -1.2254329
2050 -1.073784
2048 -1.0029758
2046 -0.99237752
2044 -1.0704262
2042 -1.1835365
2040 -1.3196086
2038 -1.4577055
2036 -1.5880615
2034 -1.7062101
2032 -1.8148851
2030 -1.865151
2028 -1.8737363
2026 -1.807995
2024 -1.7011544
2022 -1.5866268
2020 -1.4725742
2018 -1.3929582
2016 -1.32576
2014 -1.3153749
2012 -1.3204843
2010 -1.415176
2008 -1.5325285
2006 -1.66326
2004 -1.7851218
2002 -1.831151
2000 -1.8476034
1998 -1.8338126
1996 -1.8185358
1994 -1.8308152
1992 -1.8537103
1990 -1.8714029
1988 -1.8824661
1986 -1.8661479
1984 -1.8608223
1982 -1.8802705
1980 -1.9211299
1978 -1.9872001
1976 -2.0087686
1974 -1.9883549
1972 -1.8815014
1970 -1.7183541
1968 -1.5837406
1966 -1.4731215
1964 -1.5459272
1962 -1.7087363
1960 -1.933512
1958 -2.1786153
1956 -2.2950613
1954 -2.3590963
1952 -2.3189127
1950 -2.2400939
1948 -2.168026
1946 -2.1221499
1944 -2.1931465
1942 -2.3304036
1940 -2.5184088
1938 -2.6865785
1936 -2.7493572
1934 -2.7371814
1932 -2.6570139
1930 -2.532479
1928 -2.388108
1926 -2.1525171
1924 -1.8169696
1922 -1.4154253
1920 -0.9601993
1918 -0.6834048
1916 -0.56017411
1914 -0.59333414
1912 -0.72131944
1910 -0.83742654
1908 -0.93994683
1906 -1.161171
1904 -1.445436
1902 -1.7917935
1900 -2.1581895
1898 -2.2960827
1896 -2.3269143
1894 -2.178611
1892 -1.975664
1890 -1.846777
1888 -1.7904034
1886 -1.8923014
1884 -2.0777023
1882 -2.33108
1880 -2.5794256
1878 -2.7739232
1876 -2.8401701
1874 -2.7366436
1872 -2.4551904
1870 -2.0092998
1868 -1.6422523
1866 -1.3988364
1864 -1.4528862
1862 -1.74849
1860 -2.0828071
1858 -2.4097707
1856 -2.5803599
1854 -2.6473198
1852 -2.4985485
1850 -2.2333848
1848 -1.790476
1846 -1.2716607
1844 -1.0193685
1842 -0.93649709
1840 -1.2829157
1838 -1.8117697
1836 -2.2817872
1834 -2.644845
1832 -2.692632
1830 -2.5442483
1828 -2.166522
1826 -1.7901428
1824 -1.6068578
1822 -1.6377578
1820 -1.9599659
1818 -2.3383999
1816 -2.658
1814 -2.8006938
1812 -2.7375748
1810 -2.5669456
1808 -2.3392184
1806 -2.10338
1804 -1.8730395
1802 -1.5792195
1800 -1.2421074
1798 -0.86791784
1796 -0.47692356
1794 -0.23110715
1792 -0.069361918
1790 -0.12800664
1788 -0.29352561
1786 -0.43302009
1784 -0.52649719
1782 -0.4565846
1780 -0.25837439
1778 0.11634
1776 0.58315396
1774 1.0344216
1772 1.3257948
1770 1.234766
1768 0.89795065
1766 0.46492493
1764 0.15374085
1762 0.11758596
1760 0.055954568
1758 -0.10742983
1756 -0.25329286
1754 -0.37620029
1752 -0.12519276
1750 0.54974473
1748 1.475008
1746 2.5455644
1744 3.0729332
1742 3.0879893
1740 2.8382926
1738 2.4406414
1736 2.372
1734 2.5459414
1732 2.4975591
1730 2.2686992
1728 1.5591223
1726 0.60522598
1724 -0.054612517
1722 -0.35863361
1720 0.10983205
1718 1.2156035
1716 2.9075212
1714 4.6618242
1712 5.8478241
1710 6.6902452
1708 7.3541541
1706 8.3099661
1704 9.911581
1702 12.338029
1700 15.648332
1698 19.262693
1696 22.916286
1694 25.93642
1692 28.137497
1690 30.176464
1688 32.23719
1686 35.123829
1684 38.834999
1682 43.025341
1680 47.560558
1678 51.486374
1676 54.87883
1674 58.465485
1672 62.244938
1670 66.51368
1668 71.090523
1666 75.405502
1664 79.507332
1662 83.384651
1660 87.061676
1658 90.506523
1656 93.736259
1654 96.73645
1652 99.353119
1650 101.46097
1648 102.26166
1646 101.2825
1644 99.07338
1642 96.145531
1640 92.949684
1638 89.714539
1636 85.948296
1634 81.539612
1632 76.870537
1630 72.131691
1628 67.793602
1626 63.874947
1624 59.945721
1622 55.92923
1620 51.835476
1618 47.678284
1616 43.555229
1614 39.518471
1612 35.826122
1610 32.540161
1608 29.779263
1606 27.507849
1604 25.546034
1602 23.885715
1600 22.466898
1598 21.325535
1596 20.4645
1594 19.865215
1592 19.4748
1590 19.236343
1588 19.084606
1586 19.085215
1584 19.25452
1582 19.715
1580 20.491194
1578 21.638794
1576 23.164085
1574 24.801632
1572 26.498962
1570 27.93931
1568 29.071001
1566 30.086714
1564 31.007378
1562 32.28455
1560 34.029171
1558 36.755154
1556 40.341743
1554 43.585651
1552 46.359425
1550 48.221195
1548 49.407513
1546 50.735107
1544 52.245731
1542 54.00787
1540 55.444279
1538 55.906525
1536 55.306541
1534 53.691292
1532 51.792439
1530 50.191998
1528 48.951782
1526 48.108948
1524 47.391075
1522 46.682323
1520 45.415676
1518 43.411892
1516 41.052242
1514 38.403366
1512 36.01112
1510 33.917385
1508 31.464045
1506 28.491865
1504 25.35124
1502 22.146515
1500 19.484491
1498 17.448589
1496 15.532143
1494 13.704474
1492 11.84444
1490 9.9114237
1488 7.9111781
1486 5.8679838
1484 3.8488159
1482 2.0875769
1480 0.79774171
1478 0.077977873
1476 -0.005503878
1474 0.48095542
1472 1.484604
1470 2.425426
1468 3.0079401
1466 3.4228444
1464 3.6544967
1462 4.0218515
1460 4.6684132
1458 5.4362392
1456 6.3481197
1454 6.9176044
1452 6.9985094
1450 6.7767153
1448 6.1647034
1446 5.5003033
1444 4.7733073
1442 4.1543741
1440 3.6874435
1438 3.4449944
1436 3.4000299
1434 3.3683007
1432 3.263088
1430 2.9498653
1428 2.5276999
1426 2.1686187
1424 1.9760623
1422 2.0580184
1420 2.3264604
1418 2.7177958
1416 3.0798743
1414 3.2724612
1412 3.4162188
1410 3.4985962
1408 3.6336286
1406 3.8793373
1404 4.1937423
1402 4.6388764
1400 5.127728
1398 5.6867681
1396 6.1659212
1394 6.5061617
1392 6.6447492
1390 6.51302
1388 6.2567706
1386 5.83113
1384 5.3514485
1382 4.8174777
1380 4.3586044
1378 4.000679
1376 3.7756858
1374 3.6288474
1372 3.4508538
1370 3.2194459
1368 2.8900235
1366 2.5208216
1364 2.1429217
1362 1.7408636
1360 1.3250046
1358 0.9200083
1356 0.57123744
1354 0.31476134
1352 0.16865876
1350 0.060317632
1348 -0.044341199
1346 -0.13996929
1344 -0.14247361
1342 -0.031438485
1340 0.28890735
1338 0.5763911
1336 0.78963315
1334 0.80729717
1332 0.57442021
1330 0.3358826
1328 0.12866586
1326 0.073145598
1324 0.21379721
1322 0.52763283
1320 1.0207021
1318 1.589866
1316 2.1772301
1314 2.6197541
1312 2.9048972
1310 2.9829173
1308 2.9307468
1306 2.8110514
1304 2.6683202
1302 2.5489972
1300 2.4395795
1298 2.3567502
1296 2.2857857
1294 2.2500901
1292 2.2433431
1290 2.3056059
1288 2.3930359
1286 2.5282893
1284 2.6595199
1282 2.7844853
1280 2.9022453
1278 3.0122163
1276 3.1496115
1274 3.329989
1272 3.54794
1270 3.8122778
1268 4.0759211
1266 4.345192
1264 4.6114593
1262 4.8909078
1260 5.191308
1258 5.5114684
1256 5.8313169
1254 6.1524234
1252 6.4763002
1250 6.8155546
1248 7.1985216
1246 7.6078749
1244 8.0492315
1242 8.4850025
1240 8.8734837
1238 9.2158222
1236 9.4462099
1234 9.6208992
1232 9.6757603
1230 9.6777802
1228 9.5433044
1226 9.3557262
1224 9.0237703
1222 8.658699
1220 8.2205877
1218 7.78513
1216 7.3572459
1214 6.931396
1212 6.500474
1210 6.0354815
1208 5.5193558
1206 4.9683213
1204 4.3854818
1202 3.8180273
1200 3.273531
1198 2.7733634
1196 2.3086071
1194 1.866614
1192 1.4425446
1190 1.0398948
1188 0.6677103
1186 0.38476288
1184 0.15915683
1182 0.050264757
1180 -0.022555392
1178 -0.06138505
1176 -0.088219799
1174 -0.088249259
1172 -0.061976213
1170 0.064420648
1168 0.19194356
1166 0.32535306
1164 0.42660022
1162 0.45074862
1160 0.47369647
1158 0.49644828
1156 0.54507971
1154 0.63168383
1152 0.71203274
1150 0.7743578
1148 0.78750581
1146 0.73603499
1144 0.60485655
1142 0.40940759
1140 0.21456352
1138 0.049053598
1136 0.036702972
1134 0.12587027
1132 0.39793876
1130 0.74052131
1128 1.0824399
1126 1.404825
1124 1.6213131
1122 1.803624
1120 1.90562
1118 2.0022366
1116 2.1113784
1114 2.2339015
1112 2.4137845
1110 2.6220207
1108 2.9226966
1106 3.25597
1104 3.6668613
1102 4.0580473
1100 4.4070745
1098 4.7177176
1096 4.9738002
1094 5.2602229
1092 5.58845
1090 5.9508572
1088 6.3409939
1086 6.6889315
1084 6.9981585
1082 7.2652321
1080 7.5006514
1078 7.6982517
1076 7.8662825
1074 7.9484439
1072 7.9943485
1070 7.9729128
1068 7.9374418
1066 7.9003949
1064 7.8754444
1062 7.9398236
1060 8.0195179
1058 8.1696873
1056 8.2900486
1054 8.2770023
1052 8.2134953
1050 7.990582
1048 7.7810178
1046 7.608911
1044 7.4928474
1042 7.484591
1040 7.5035405
1038 7.5639262
1036 7.63201
1034 7.7046204
1032 7.7429118
1030 7.7366834
1028 7.6032157
1026 7.3647232
1024 6.9481444
1022 6.4305906
1020 5.8179083
1018 5.1776567
1016 4.6223798
1014 4.1068854
1012 3.7802074
1010 3.4944022
1008 3.3149118
1006 3.1397822
1004 2.9143496
1002 2.6826739
1000 2.412288
998 2.1481473
996 1.9120642
994 1.682582
992 1.4770005
990 1.2962079
988 1.173962
986 1.0689185
984 0.988446
982 0.8574053
980 0.65765136
978 0.4624702
976 0.28242686
974 0.26722842
972 0.38891956
970 0.61416733
968 0.89448357
966 1.06095
964 1.1680434
962 1.1213167
960 1.0224413
958 0.84127009
956 0.64223301
954 0.4142926
952 0.18584163
950 0.021022767
948 -0.12482083
946 -0.041142214
944 0.015733361
942 0.47519633
940 0.9764418
938 1.6517129
936 2.3060484
934 2.8967452
932 3.424665
930 3.816736
928 4.0977769
926 4.2006707
924 4.2587538
922 4.2633519
920 4.369966
918 4.5705557
916 4.6876431
914 4.7440796
912 4.6092672
910 4.3718772
908 4.270124
906 4.216464
904 4.4075356
902 4.6589947
900 5.0306144
898 5.4201097
896 5.8464999
