Image.
>Pix99999.
  .
5555
5555
2300
900
5555
2
1
0
701
5555
-1.7813999e-002
-1.8192459e-002
-1.8570919e-002
-1.8949376e-002
-1.9327834e-002
-1.9706294e-002
-2.0084752e-002
-2.0463210e-002
-2.0841669e-002
-2.1220127e-002
-2.1598585e-002
-2.1977045e-002
-2.2355502e-002
-2.2733960e-002
-2.3112420e-002
-2.3490880e-002
-2.3870315e-002
-2.4248796e-002
-2.4627255e-002
-2.5005713e-002
-2.5384171e-002
-2.5762631e-002
-2.6141088e-002
-2.6519546e-002
-2.6898006e-002
-2.7276464e-002
-1.0136286e-003
5.7354983e-002
1.0131424e-001
1.3211389e-001
1.6108885e-001
1.5688242e-001
1.5014085e-001
1.3995840e-001
1.3073589e-001
1.3072699e-001
1.3172702e-001
1.3527496e-001
1.3604689e-001
1.2800635e-001
1.1704543e-001
1.0076158e-001
8.3865345e-002
6.6465296e-002
4.6701688e-002
2.4025759e-002
8.4873941e-003
-1.4597143e-005
4.6560023e-004
7.3036645e-003
6.3017285e-003
5.4718269e-004
-8.1082815e-003
-1.7885102e-002
-1.6517734e-002
-1.1507186e-002
-1.4498999e-002
-1.9389693e-002
-4.4566277e-002
-7.2657362e-002
-9.2212774e-002
-1.1026995e-001
-1.2028895e-001
-1.3219379e-001
-1.5917520e-001
-1.8820506e-001
-2.1931320e-001
-2.4620645e-001
-2.6179534e-001
-2.7389094e-001
-2.8160301e-001
-2.8154823e-001
-2.7091858e-001
-2.4371636e-001
-1.9906995e-001
-1.5209642e-001
-1.0465187e-001
-7.7254020e-002
-6.3800491e-002
-6.8556227e-002
-8.2468912e-002
-9.8353252e-002
-1.1476832e-001
-1.2072813e-001
-1.2334681e-001
-1.2225943e-001
-1.2033325e-001
-1.3093135e-001
-1.4365213e-001
-1.5871945e-001
-1.7307171e-001
-1.7989379e-001
-1.8704137e-001
-2.0072231e-001
-2.1688503e-001
-2.3761164e-001
-2.5064993e-001
-2.4511014e-001
-2.2267500e-001
-1.7641880e-001
-1.2089857e-001
-5.7728261e-002
-7.2177579e-003
2.9029369e-002
3.1806052e-002
8.4347352e-003
-4.1806031e-002
-1.0746904e-001
-1.6730429e-001
-2.2290924e-001
-2.4334215e-001
-2.4931961e-001
-2.2389761e-001
-1.8875659e-001
-1.5516523e-001
-1.2211458e-001
-9.8958105e-002
-7.7524073e-002
-5.6707621e-002
-3.8446981e-002
-3.3668742e-002
-3.5035554e-002
-4.8111349e-002
-6.3286223e-002
-7.7006556e-002
-9.0482041e-002
-1.0357532e-001
-1.1305794e-001
-1.1803114e-001
-1.1931206e-001
-1.1814342e-001
-1.1650878e-001
-1.1469074e-001
-1.1012800e-001
-1.0287357e-001
-9.7434193e-002
-9.3038127e-002
-7.0296451e-002
-3.7678294e-002
1.5572978e-002
7.6574199e-002
9.0661123e-002
8.8028386e-002
3.3909678e-002
-3.2519013e-002
-7.6203294e-002
-1.0924867e-001
-1.0633100e-001
-9.4631530e-002
-8.1721954e-002
-7.4454926e-002
-8.3406776e-002
-9.5688663e-002
-1.0903338e-001
-1.1075860e-001
-9.5249772e-002
-6.9368288e-002
-3.4640368e-002
-7.5541199e-003
1.0073767e-002
1.6130401e-002
1.4211500e-002
1.8438309e-002
2.9237797e-002
4.0940050e-002
5.2330349e-002
3.8996443e-002
1.1731234e-002
-2.6025234e-002
-6.7917809e-002
-1.0425066e-001
-1.3880549e-001
-1.7105263e-001
-2.0184496e-001
-2.1350528e-001
-2.1490499e-001
-1.9613086e-001
-1.6988623e-001
-1.5008999e-001
-1.3644062e-001
-1.3615486e-001
-1.4368941e-001
-1.5517560e-001
-1.7335129e-001
-1.9662629e-001
-2.1860036e-001
-2.3471232e-001
-2.3745735e-001
-2.2945583e-001
-2.2614171e-001
-2.3311186e-001
-2.5277331e-001
-2.8007233e-001
-3.1364867e-001
-3.4920430e-001
-3.9990121e-001
-4.5936400e-001
-4.9778780e-001
-5.2699149e-001
-4.9262932e-001
-4.3259856e-001
-3.5444349e-001
-2.7496639e-001
-2.3939590e-001
-2.3224108e-001
-2.8078249e-001
-3.5675499e-001
-4.5442230e-001
-5.4839486e-001
-6.1264384e-001
-6.4266801e-001
-6.2229991e-001
-5.7581490e-001
-5.1140082e-001
-4.6879372e-001
-4.6789742e-001
-5.0655097e-001
-5.8102459e-001
-6.5243685e-001
-7.1004063e-001
-7.4741000e-001
-7.6845443e-001
-7.8147751e-001
-7.8830445e-001
-7.9775518e-001
-8.0580932e-001
-8.2884467e-001
-8.5669565e-001
-8.8316226e-001
-9.0801239e-001
-9.0501285e-001
-8.8627660e-001
-8.3292353e-001
-7.5946075e-001
-6.7532778e-001
-5.9759903e-001
-5.6427187e-001
-5.7324588e-001
-6.3218480e-001
-7.0796770e-001
-7.7144486e-001
-8.0586684e-001
-8.0131412e-001
-7.7348894e-001
-7.3515087e-001
-6.9336152e-001
-6.5207750e-001
-6.2373114e-001
-6.0399991e-001
-5.9262741e-001
-5.8542359e-001
-5.3441650e-001
-4.5586121e-001
-3.5205027e-001
-2.3960704e-001
-1.7170314e-001
-1.3434166e-001
-1.2315750e-001
-1.2492394e-001
-1.0303545e-001
-6.2322658e-002
6.3545667e-003
8.1200100e-002
1.1258273e-001
1.1287863e-001
7.9020843e-002
4.3056242e-002
4.4290598e-002
1.9621046e-002
-6.7235999e-002
-1.5801728e-001
-2.1972348e-001
-2.1889383e-001
-1.4952379e-001
-5.5166688e-002
4.0257182e-002
5.2404452e-002
-2.2787545e-002
-1.2805670e-001
-2.4096161e-001
-2.3810601e-001
-1.4010313e-001
-1.6221225e-002
1.1113489e-001
9.5964238e-002
-1.6867202e-002
-1.0071701e-001
-1.3410960e-001
1.2131363e-002
3.1368160e-001
8.1583667e-001
1.4239039e+000
1.9629714e+000
2.4580164e+000
2.9535499e+000
3.6166208e+000
4.6123266e+000
6.1875424e+000
8.4566422e+000
1.1550274e+001
1.5390000e+001
1.9227930e+001
2.2734123e+001
2.5860624e+001
2.8688635e+001
3.2102127e+001
3.6181755e+001
4.1120964e+001
4.6730759e+001
5.1681866e+001
5.6000797e+001
6.0097515e+001
6.4096420e+001
6.8628006e+001
7.3542412e+001
7.8322952e+001
8.2900475e+001
8.7029289e+001
9.0688553e+001
9.3807556e+001
9.6353630e+001
9.8291122e+001
9.9550583e+001
1.0009155e+002
9.9737595e+001
9.8382500e+001
9.6376945e+001
9.4080956e+001
9.1437553e+001
8.8476898e+001
8.4837257e+001
8.0449455e+001
7.5871117e+001
7.1315262e+001
6.6991829e+001
6.2924641e+001
5.8784958e+001
5.4532810e+001
5.0395397e+001
4.6388721e+001
4.2633942e+001
3.9150257e+001
3.6074730e+001
3.3416080e+001
3.1149200e+001
2.9249815e+001
2.7576372e+001
2.6146189e+001
2.4953543e+001
2.4018803e+001
2.3333500e+001
2.2888508e+001
2.2633936e+001
2.2540642e+001
2.2557117e+001
2.2668379e+001
2.2855131e+001
2.3107121e+001
2.3417671e+001
2.3839878e+001
2.4390085e+001
2.5106096e+001
2.5984917e+001
2.6955687e+001
2.7996601e+001
2.9073608e+001
3.0190832e+001
3.1571966e+001
3.3322529e+001
3.6031223e+001
3.9743931e+001
4.3660061e+001
4.7545097e+001
5.0487686e+001
5.2531952e+001
5.4281677e+001
5.5745983e+001
5.7038254e+001
5.8010040e+001
5.8436768e+001
5.8273743e+001
5.7566540e+001
5.6481941e+001
5.5273399e+001
5.3937553e+001
5.2477451e+001
5.0796230e+001
4.8822781e+001
4.6632225e+001
4.4225170e+001
4.1941486e+001
3.9907848e+001
3.7940521e+001
3.6032837e+001
3.3572262e+001
3.0389071e+001
2.7132841e+001
2.3847395e+001
2.1077131e+001
1.8880150e+001
1.6719999e+001
1.4588789e+001
1.2410063e+001
1.0195522e+001
7.9874592e+000
5.8560047e+000
3.9285021e+000
2.3047068e+000
1.1003144e+000
3.4355983e-001
6.4440995e-002
3.5858876e-001
1.1532171e+000
2.1266909e+000
3.0764799e+000
3.8552628e+000
4.3655272e+000
4.7885799e+000
5.1927910e+000
5.6411448e+000
6.1598001e+000
6.5964508e+000
6.8752933e+000
6.9983196e+000
6.8935995e+000
6.7395892e+000
6.5217242e+000
6.2994561e+000
6.0676188e+000
5.7931209e+000
5.4475741e+000
4.9698906e+000
4.3615394e+000
3.7175894e+000
3.0848141e+000
2.5900772e+000
2.2519858e+000
2.0740209e+000
2.0445910e+000
2.1246867e+000
2.2858744e+000
2.4987910e+000
2.7386560e+000
3.0109241e+000
3.3099587e+000
3.6484663e+000
4.0136538e+000
4.4033208e+000
4.8006639e+000
5.2006159e+000
5.5864573e+000
5.9374890e+000
6.2309222e+000
6.4058928e+000
6.4774075e+000
6.3774748e+000
6.1605124e+000
5.7839766e+000
5.3478107e+000
4.8509078e+000
4.3597341e+000
3.8925936e+000
3.4620099e+000
3.0705302e+000
2.7093148e+000
2.3484678e+000
1.9470973e+000
1.5141501e+000
1.0528555e+000
6.2538439e-001
3.1170911e-001
9.5527798e-002
2.2554858e-002
2.4062000e-002
9.5418170e-002
1.8588106e-001
3.3125240e-001
5.1018864e-001
7.5175631e-001
9.9446142e-001
1.2280715e+000
1.4326675e+000
1.5691723e+000
1.7049640e+000
1.8433069e+000
2.0131943e+000
2.2411973e+000
2.5102103e+000
2.8370895e+000
3.1854396e+000
3.5457401e+000
3.8677707e+000
4.1347656e+000
4.3356304e+000
4.4737706e+000
4.5707593e+000
4.6327133e+000
4.6597762e+000
4.6588898e+000
4.6157646e+000
4.5554428e+000
4.4802108e+000
4.4117298e+000
4.3679552e+000
4.3386879e+000
4.3368783e+000
4.3372121e+000
4.3354282e+000
4.3266797e+000
4.3018055e+000
4.2767925e+000
4.2562418e+000
4.2496462e+000
4.2710090e+000
4.3127561e+000
4.3840356e+000
4.4731994e+000
4.5824566e+000
4.7021441e+000
4.8310232e+000
4.9585285e+000
5.0822392e+000
5.1962881e+000
5.3021097e+000
5.4008627e+000
5.4953251e+000
5.5835013e+000
5.6630569e+000
5.7196856e+000
5.7521968e+000
5.7274547e+000
5.6602540e+000
5.4904799e+000
5.2718759e+000
4.9291663e+000
4.5606360e+000
4.1282544e+000
3.6953607e+000
3.2616849e+000
2.8347270e+000
2.4229629e+000
2.0286386e+000
1.6660903e+000
1.3251313e+000
1.0153387e+000
7.2071159e-001
4.4809264e-001
2.0448488e-001
-3.2788664e-003
-1.6553167e-001
-2.8602928e-001
-3.6765265e-001
-4.1999412e-001
-4.4194341e-001
-4.4094574e-001
-4.0049651e-001
-3.3571893e-001
-2.2419122e-001
-8.8420801e-002
1.0404824e-001
3.2077402e-001
6.0502934e-001
8.9462209e-001
1.1869786e+000
1.4498503e+000
1.6186372e+000
1.7469726e+000
1.7746320e+000
1.7754205e+000
1.7214181e+000
1.6454157e+000
1.5306293e+000
1.3872405e+000
1.2038965e+000
9.9785036e-001
7.6893359e-001
5.4260540e-001
3.2699960e-001
1.5941818e-001
4.1166909e-002
1.8513143e-002
6.2848836e-002
1.9594346e-001
3.6845714e-001
5.7019848e-001
7.6822430e-001
9.0554196e-001
1.0158972e+000
1.0403401e+000
1.0594487e+000
1.0933814e+000
1.1470681e+000
1.2827766e+000
1.4260424e+000
1.5910866e+000
1.7383300e+000
1.8389194e+000
1.9099925e+000
1.9218258e+000
1.9097887e+000
1.8614286e+000
1.8090819e+000
1.7548020e+000
1.7225202e+000
1.7144829e+000
1.7303278e+000
1.7614785e+000
1.7721539e+000
1.7619869e+000
1.6877230e+000
1.5794028e+000
1.4314919e+000
1.2742188e+000
1.1441388e+000
1.0273678e+000
9.6466821e-001
9.1607159e-001
9.2052358e-001
9.3629622e-001
1.0077851e+000
1.0793514e+000
1.1497329e+000
1.1979377e+000
1.1747991e+000
1.1291971e+000
1.0296068e+000
9.2747736e-001
8.2045454e-001
7.1558702e-001
6.1406660e-001
5.1806998e-001
4.2994812e-001
3.5649809e-001
2.9521281e-001
2.2245717e-001
1.3909455e-001
2.5374725e-002
-1.0145596e-001
-1.9867308e-001
-2.7868226e-001
-2.9380286e-001
-2.9233974e-001
-3.0005312e-001
-3.1519261e-001
-3.9774919e-001
-4.8839629e-001
-6.0848200e-001
-7.2233272e-001
-7.9174632e-001
-8.4625334e-001
-8.3515930e-001
-8.1650376e-001
-7.7521193e-001
-7.3893684e-001
-7.1474969e-001
-6.9934630e-001
-6.9950330e-001
-7.1326745e-001
-7.4514395e-001
-7.8341043e-001
-8.2696313e-001
-8.4523195e-001
-8.4150440e-001
-8.0229098e-001
-7.4123061e-001
-6.7907900e-001
-6.1737365e-001
-5.7605124e-001
-5.4115331e-001
-4.9790156e-001
-4.5237571e-001
-3.9138499e-001
-3.2861519e-001
-2.6624867e-001
-1.9906181e-001
-6.4761430e-002
2.6156604e-003
8.1104219e-002
2.2649814e-001
3.4314081e-001
4.4072402e-001
4.8288822e-001
5.2825385e-001
5.8080757e-001
6.4871657e-001
7.4049473e-001
8.0003339e-001
8.1913728e-001
7.5581884e-001
6.1585635e-001
4.7004285e-001
3.2098266e-001
2.5100285e-001
2.2385730e-001
2.5274116e-001
3.0447236e-001
4.0273678e-001
5.1394689e-001
6.0873443e-001
7.0102602e-001
7.0523000e-001
