Image.
>Pix99999.
  .
5555
5555
2300
900
5555
2
1
0
701
5555
-3.0902000e-002
-3.1545080e-002
-3.2187164e-002
-3.2830238e-002
-3.3473320e-002
-3.4116399e-002
-3.4758490e-002
-3.5401560e-002
-3.6044639e-002
-3.6687717e-002
-3.7330799e-002
-3.7972897e-002
-3.8615957e-002
-3.9259043e-002
-3.9902121e-002
-4.0545203e-002
-4.1187305e-002
-4.1830361e-002
-4.2473443e-002
-4.3116521e-002
-4.3758627e-002
-4.4401679e-002
-4.5044761e-002
-4.5687839e-002
-4.6330921e-002
-4.6973038e-002
-1.7455658e-003
1.2571640e-001
2.7489442e-001
4.4040626e-001
6.0827231e-001
6.4446682e-001
6.6982937e-001
6.6506279e-001
6.6482711e-001
7.1260554e-001
7.5280672e-001
7.4746227e-001
7.1387434e-001
6.0180962e-001
4.7894257e-001
3.4212348e-001
2.1557240e-001
1.0710419e-001
2.6964275e-002
-1.9270428e-002
-2.2751722e-002
1.2862397e-002
3.9590254e-002
5.7746302e-002
1.9511929e-002
-5.0883710e-002
-9.5810533e-002
-1.2859493e-001
-8.1847407e-002
-9.5124012e-003
3.2530017e-002
6.7230172e-002
3.9278869e-002
2.4879102e-003
3.4421389e-003
1.0319075e-002
4.4798572e-002
7.9383902e-002
9.9724598e-002
1.2339472e-001
1.6440457e-001
2.1432346e-001
2.8259671e-001
3.3788079e-001
3.6492401e-001
3.6592925e-001
3.3343697e-001
3.0006394e-001
2.6962939e-001
2.5608283e-001
2.5722012e-001
2.4326110e-001
2.1780179e-001
1.5445992e-001
7.1090400e-002
-3.0956510e-004
-6.5970801e-002
-8.3362482e-002
-8.5554883e-002
-8.3373137e-002
-8.0393746e-002
-7.8382537e-002
-7.4486740e-002
-3.2333441e-002
1.3057571e-002
4.1337319e-002
6.0147017e-002
4.7613498e-002
4.4773150e-002
8.5146673e-002
1.2818006e-001
1.6316935e-001
1.5762599e-001
8.6137533e-002
2.1935428e-002
-1.9829795e-002
-2.6170962e-002
7.9220952e-004
-4.4190073e-003
-4.0452566e-002
-6.3678689e-002
-7.5754061e-002
-3.5859309e-003
1.1229976e-001
1.9220443e-001
2.5505859e-001
2.2301200e-001
1.6098891e-001
1.4687984e-001
1.4603464e-001
1.7369993e-001
1.9639017e-001
1.0545540e-001
-2.1039840e-002
-2.2012870e-001
-4.1830274e-001
-5.6033593e-001
-6.5660912e-001
-6.6204011e-001
-6.5145320e-001
-6.4352918e-001
-6.5527076e-001
-6.9736832e-001
-7.2027630e-001
-7.1475714e-001
-6.9393611e-001
-6.6308254e-001
-6.6026533e-001
-6.7993015e-001
-7.0689511e-001
-7.3547453e-001
-7.0945352e-001
-6.5447170e-001
-5.5820513e-001
-4.4682199e-001
-4.1466910e-001
-4.1081718e-001
-5.2296400e-001
-6.6751391e-001
-8.3742511e-001
-1.0083033e+000
-1.1375520e+000
-1.2450634e+000
-1.2997091e+000
-1.3414214e+000
-1.3817714e+000
-1.4355708e+000
-1.5249926e+000
-1.6042980e+000
-1.6568035e+000
-1.6597172e+000
-1.6022916e+000
-1.5369780e+000
-1.4759967e+000
-1.4117714e+000
-1.3423610e+000
-1.1735386e+000
-9.2841136e-001
-6.7545706e-001
-4.2662737e-001
-3.9688599e-001
-4.8396498e-001
-7.0531040e-001
-9.7944003e-001
-1.2038558e+000
-1.4068543e+000
-1.5261223e+000
-1.6135705e+000
-1.6320198e+000
-1.6301250e+000
-1.6401303e+000
-1.6587670e+000
-1.7126697e+000
-1.7688216e+000
-1.8066914e+000
-1.8394189e+000
-1.8665481e+000
-1.8936323e+000
-1.9170434e+000
-1.8596021e+000
-1.6940080e+000
-1.3983319e+000
-9.9618030e-001
-6.8318671e-001
-4.8025972e-001
-4.4851160e-001
-5.2810699e-001
-6.1723047e-001
-6.9688165e-001
-8.3261883e-001
-1.0009719e+000
-1.1675049e+000
-1.3332759e+000
-1.2521440e+000
-1.0642715e+000
-7.3892081e-001
-3.9182907e-001
-2.6780850e-001
-3.0013463e-001
-6.4672709e-001
-1.1136537e+000
-1.5925448e+000
-1.9999744e+000
-2.2261732e+000
-2.2945001e+000
-2.1767380e+000
-1.8940554e+000
-1.4493387e+000
-1.0241863e+000
-6.9893622e-001
-6.5867281e-001
-9.0008944e-001
-1.2664733e+000
-1.6749943e+000
-1.9884057e+000
-2.2155948e+000
-2.3082266e+000
-2.3168201e+000
-2.2121480e+000
-2.0427785e+000
-1.9247602e+000
-1.8360668e+000
-1.8814366e+000
-1.9860333e+000
-2.0237970e+000
-2.0021820e+000
-1.7988205e+000
-1.4827089e+000
-1.0634221e+000
-6.6895443e-001
-4.8602623e-001
-5.2121830e-001
-8.3278781e-001
-1.2497317e+000
-1.6495315e+000
-1.9580921e+000
-2.1381557e+000
-2.2150967e+000
-2.2219150e+000
-2.1100750e+000
-1.8971022e+000
-1.6512437e+000
-1.3946331e+000
-1.2404774e+000
-1.1688571e+000
-1.0344158e+000
-8.5203362e-001
-6.2432301e-001
-3.8082808e-001
-2.8672108e-001
-2.8384393e-001
-2.9127297e-001
-2.8845686e-001
-1.5832952e-001
7.2553143e-002
4.4644731e-001
8.5640335e-001
1.1200271e+000
1.2036326e+000
1.0043010e+000
6.7465001e-001
3.6059281e-001
9.3382686e-002
-2.8345639e-001
-5.9784102e-001
-7.0146710e-001
-4.0162310e-001
3.0893272e-001
1.1422164e+000
1.9665142e+000
2.3305461e+000
2.2455883e+000
2.0434885e+000
1.8254039e+000
1.9560800e+000
2.3655510e+000
2.5157869e+000
2.4388647e+000
1.8008890e+000
8.1707132e-001
1.0938518e-001
-2.8609449e-001
1.2202087e-001
1.2117321e+000
2.8385215e+000
4.5318909e+000
5.5525222e+000
6.0987368e+000
6.4111619e+000
6.9352245e+000
8.1058855e+000
1.0146772e+001
1.3122175e+001
1.6692049e+001
2.0530428e+001
2.3859159e+001
2.6436005e+001
2.8793695e+001
3.1182806e+001
3.4518307e+001
3.8803658e+001
4.3601513e+001
4.8695919e+001
5.2800636e+001
5.6033943e+001
5.9373997e+001
6.2903561e+001
6.7138680e+001
7.1891838e+001
7.6523849e+001
8.1005112e+001
8.5240250e+001
8.9233292e+001
9.2996841e+001
9.6506401e+001
9.9742096e+001
1.0249920e+002
1.0455557e+002
1.0528091e+002
1.0415858e+002
1.0175003e+002
9.8654678e+001
9.5250793e+001
9.1832924e+001
8.7944153e+001
8.3437225e+001
7.8710762e+001
7.3925713e+001
6.9481735e+001
6.5436630e+001
6.1313759e+001
5.7053703e+001
5.2745846e+001
4.8410988e+001
4.4228542e+001
4.0229649e+001
3.6641880e+001
3.3489811e+001
3.0829508e+001
2.8620628e+001
2.6654264e+001
2.4938440e+001
2.3442137e+001
2.2203386e+001
2.1247000e+001
2.0565825e+001
2.0106972e+001
1.9831900e+001
1.9675089e+001
1.9662428e+001
1.9804726e+001
2.0175091e+001
2.0804726e+001
2.1761032e+001
2.3050714e+001
2.4517517e+001
2.6087294e+001
2.7487160e+001
2.8654360e+001
2.9709127e+001
3.0679829e+001
3.2050896e+001
3.3948250e+001
3.6822647e+001
4.0642414e+001
4.4117798e+001
4.7045738e+001
4.9021820e+001
5.0183556e+001
5.1397499e+001
5.2683105e+001
5.4047459e+001
5.5117401e+001
5.5247013e+001
5.4405029e+001
5.2722290e+001
5.0673679e+001
4.8857597e+001
4.7331211e+001
4.6125851e+001
4.5078766e+001
4.4074352e+001
4.2792114e+001
4.1032299e+001
3.8945271e+001
3.6552437e+001
3.4174881e+001
3.1916969e+001
2.9334080e+001
2.6317450e+001
2.3217468e+001
2.0073755e+001
1.7503460e+001
1.5591310e+001
1.3837000e+001
1.2242581e+001
1.0626723e+001
8.9841890e+000
7.2907639e+000
5.5520415e+000
3.8034520e+000
2.1781824e+000
9.1816974e-001
1.5201581e-001
2.1577388e-002
5.4629773e-001
1.6012971e+000
2.7313318e+000
3.5839312e+000
4.1757431e+000
4.5124154e+000
4.9506931e+000
5.6868696e+000
6.5761266e+000
7.6097803e+000
8.2674618e+000
8.2867403e+000
8.0311766e+000
7.4046116e+000
6.7866750e+000
6.1931400e+000
5.6631541e+000
5.2478361e+000
4.9833508e+000
4.8931689e+000
4.8029294e+000
4.6739960e+000
4.3953400e+000
4.0124197e+000
3.7202044e+000
3.5863006e+000
3.7090180e+000
4.0260124e+000
4.4132829e+000
4.7431855e+000
4.8568668e+000
4.8463459e+000
4.7934608e+000
4.8114839e+000
5.0081615e+000
5.3376865e+000
5.8272491e+000
6.3570480e+000
6.9089470e+000
7.3354139e+000
7.5143738e+000
7.5316601e+000
7.2605000e+000
6.9330950e+000
6.5139947e+000
6.0618858e+000
5.5736313e+000
5.1051354e+000
4.6802135e+000
4.3173146e+000
4.0296369e+000
3.7531900e+000
3.4907792e+000
3.2475219e+000
3.0088658e+000
2.7742159e+000
2.4983106e+000
2.0971107e+000
1.6206681e+000
1.0988531e+000
6.1741251e-001
2.9041091e-001
6.6590965e-002
-2.1558788e-002
-3.2730255e-002
7.8926958e-002
2.6975816e-001
6.0632133e-001
8.9676106e-001
1.0644658e+000
1.0916306e+000
8.4572589e-001
6.0392022e-001
3.8772914e-001
2.9403231e-001
4.0105024e-001
6.3281971e-001
1.0270894e+000
1.4690809e+000
1.9313500e+000
2.2903471e+000
2.5172961e+000
2.6052487e+000
2.5781488e+000
2.5091522e+000
2.4176919e+000
2.3313260e+000
2.2532363e+000
2.1835091e+000
2.1177285e+000
2.0467296e+000
1.9787760e+000
1.9181364e+000
1.8860960e+000
1.9243078e+000
1.9889871e+000
2.1044109e+000
2.2045028e+000
2.2689078e+000
2.3262815e+000
2.3821261e+000
2.4829195e+000
2.6672807e+000
2.9017093e+000
3.2024229e+000
3.5148664e+000
3.8354867e+000
4.1517501e+000
4.4626398e+000
4.7689142e+000
5.0708423e+000
5.3702769e+000
5.6730857e+000
5.9950013e+000
6.3329248e+000
6.6887546e+000
7.0391145e+000
7.3444943e+000
7.6081767e+000
7.7768717e+000
7.8917551e+000
7.8902597e+000
7.8367233e+000
7.6536140e+000
7.4450688e+000
7.1743040e+000
6.8988533e+000
6.6076908e+000
6.2846727e+000
5.8933511e+000
5.4583969e+000
4.9548821e+000
4.4504991e+000
3.9477315e+000
3.4597313e+000
2.9865000e+000
2.5118725e+000
2.0414732e+000
1.5950938e+000
1.1825471e+000
8.3982211e-001
5.5014849e-001
3.1689140e-001
1.0763785e-001
-1.0529539e-001
-3.1447679e-001
-5.0370073e-001
-6.5491360e-001
-6.6824442e-001
-6.2644398e-001
-4.3665206e-001
-2.3988496e-001
-5.2982345e-002
9.4727531e-002
1.1821999e-001
9.7068109e-002
-3.1975262e-002
-1.6867691e-001
-3.1194562e-001
-4.0351799e-001
-4.0530521e-001
-3.5493085e-001
-2.4024589e-001
-1.3982528e-001
-6.1346181e-002
-2.3223897e-002
-1.7655902e-002
-5.1988419e-003
2.2255678e-002
1.0180971e-001
2.3494139e-001
4.7532141e-001
7.7490312e-001
1.1710970e+000
1.5932958e+000
2.0144768e+000
2.4185922e+000
2.7331040e+000
3.0139563e+000
3.1571057e+000
3.2603226e+000
3.2055349e+000
3.1372330e+000
3.0334330e+000
2.9983048e+000
3.1395154e+000
3.3719578e+000
3.7781475e+000
4.1841669e+000
4.5856714e+000
4.9533896e+000
5.2816496e+000
5.6202197e+000
5.9689841e+000
6.3218093e+000
6.6755285e+000
7.0118442e+000
7.3292165e+000
7.5818591e+000
7.7884169e+000
7.8711653e+000
7.9001555e+000
7.8348494e+000
7.7440133e+000
7.6208181e+000
7.4941840e+000
7.3728309e+000
7.2635169e+000
7.2310467e+000
7.2244940e+000
7.3304324e+000
7.4286127e+000
7.4988494e+000
7.5206485e+000
7.4293394e+000
7.3597755e+000
7.3377142e+000
7.4017243e+000
7.5872917e+000
7.7621202e+000
7.9098277e+000
7.9036736e+000
7.7440548e+000
7.3963633e+000
6.9173336e+000
6.4062524e+000
5.8935976e+000
5.5423055e+000
5.2588072e+000
5.0416918e+000
4.8275590e+000
4.4502015e+000
4.0358758e+000
3.5148602e+000
2.9889679e+000
2.5084565e+000
2.0354683e+000
1.6123302e+000
1.2262945e+000
1.0058014e+000
8.3572310e-001
8.1747115e-001
7.5694847e-001
5.9627926e-001
3.7535888e-001
5.3677723e-002
-2.2691566e-001
-4.4855180e-001
-6.0733676e-001
-6.9910318e-001
-7.4543720e-001
-7.5358003e-001
-7.2204155e-001
-6.6770214e-001
-6.4618599e-001
-6.4169824e-001
-6.8458492e-001
-7.3872095e-001
-6.9960690e-001
-6.3611388e-001
-4.6509218e-001
-2.8362519e-001
-1.5963495e-001
-4.3925215e-002
-1.3014964e-002
1.2047996e-005
5.6549395e-004
8.0034658e-003
4.5105457e-002
1.1765315e-001
2.9674920e-001
5.7022142e-001
1.0446543e+000
1.5283103e+000
2.0227857e+000
2.3296959e+000
2.4081917e+000
2.4228303e+000
2.3794858e+000
2.4303727e+000
2.5468876e+000
2.6311829e+000
2.7003989e+000
2.8503675e+000
3.0334277e+000
3.2750783e+000
3.5321209e+000
3.4902437e+000
3.4006042e+000
3.2637999e+000
