Image.
>Pix99999.
  .
5555
5555
2300
900
5555
2
1
0
701
5555
-2.6911000e-002
-2.7471200e-002
-2.8031396e-002
-2.8590601e-002
-2.9150795e-002
-2.9710000e-002
-3.0270191e-002
-3.0830389e-002
-3.1390589e-002
-3.1948812e-002
-3.2509971e-002
-3.3072151e-002
-3.3629432e-002
-3.4178786e-002
-3.4748577e-002
-3.5349101e-002
-3.5870112e-002
-3.6281068e-002
-3.6984690e-002
-3.8098440e-002
-3.8124140e-002
-3.6620498e-002
-3.9162025e-002
-4.7408685e-002
-4.0617935e-002
-4.7217929e-003
2.2466134e-002
-2.5922526e-003
-8.7913506e-002
-2.2364555e-001
-3.6874869e-001
-4.8466778e-001
-5.7823139e-001
-6.6698843e-001
-7.5877756e-001
-8.5609347e-001
-9.5191956e-001
-1.0385411e+000
-1.1165820e+000
-1.1877499e+000
-1.2485542e+000
-1.2929522e+000
-1.3122320e+000
-1.2999723e+000
-1.2627389e+000
-1.2120171e+000
-1.1629200e+000
-1.1275165e+000
-1.1030320e+000
-1.0827070e+000
-1.0624499e+000
-1.0433843e+000
-1.0438515e+000
-1.0842988e+000
-1.1701957e+000
-1.2957799e+000
-1.4286280e+000
-1.5322595e+000
-1.5882832e+000
-1.5900360e+000
-1.5528629e+000
-1.4973671e+000
-1.4340686e+000
-1.3705239e+000
-1.3146468e+000
-1.2745843e+000
-1.2583200e+000
-1.2711972e+000
-1.3061960e+000
-1.3516263e+000
-1.3949000e+000
-1.4250789e+000
-1.4411880e+000
-1.4469098e+000
-1.4521397e+000
-1.4663608e+000
-1.4893051e+000
-1.5171760e+000
-1.5459797e+000
-1.5733303e+000
-1.6017314e+000
-1.6336509e+000
-1.6622965e+000
-1.6795266e+000
-1.6835999e+000
-1.6766078e+000
-1.6650742e+000
-1.6558938e+000
-1.6506909e+000
-1.6501873e+000
-1.6602215e+000
-1.6870170e+000
-1.7311018e+000
-1.7879279e+000
-1.8427083e+000
-1.8777436e+000
-1.8789937e+000
-1.8385297e+000
-1.7671701e+000
-1.6838790e+000
-1.6123285e+000
-1.5727067e+000
-1.5658206e+000
-1.5839218e+000
-1.6162188e+000
-1.6524100e+000
-1.6882788e+000
-1.7216556e+000
-1.7489423e+000
-1.7677749e+000
-1.7840700e+000
-1.8058687e+000
-1.8360440e+000
-1.8728818e+000
-1.9057049e+000
-1.9226000e+000
-1.9224806e+000
-1.9090074e+000
-1.8879423e+000
-1.8658570e+000
-1.8502514e+000
-1.8477173e+000
-1.8591775e+000
-1.8803937e+000
-1.8970720e+000
-1.8938857e+000
-1.8690660e+000
-1.8293563e+000
-1.7930182e+000
-1.7808900e+000
-1.8043542e+000
-1.8641363e+000
-1.9355909e+000
-1.9847780e+000
-1.9855803e+000
-1.9247171e+000
-1.8243080e+000
-1.7197738e+000
-1.6365362e+000
-1.5902450e+000
-1.5786800e+000
-1.5915952e+000
-1.6180577e+000
-1.6467371e+000
-1.6647526e+000
-1.6605264e+000
-1.6318496e+000
-1.5829300e+000
-1.5276400e+000
-1.4829761e+000
-1.4616857e+000
-1.4718682e+000
-1.5098891e+000
-1.5657387e+000
-1.6237839e+000
-1.6695114e+000
-1.7026029e+000
-1.7296461e+000
-1.7566379e+000
-1.7849036e+000
-1.8001943e+000
-1.7828571e+000
-1.7221009e+000
-1.6168416e+000
-1.4869881e+000
-1.3617221e+000
-1.2668128e+000
-1.2215536e+000
-1.2271000e+000
-1.2738558e+000
-1.3427471e+000
-1.4107550e+000
-1.4561909e+000
-1.4642695e+000
-1.4453900e+000
-1.4222749e+000
-1.4147286e+000
-1.4338247e+000
-1.4641392e+000
-1.4807593e+000
-1.4780543e+000
-1.4627542e+000
-1.4478880e+000
-1.4442261e+000
-1.4413252e+000
-1.4177136e+000
-1.3541614e+000
-1.2415402e+000
-1.1060582e+000
-9.8919570e-001
-9.1747457e-001
-9.0258259e-001
-9.3429714e-001
-9.9391937e-001
-1.0745549e+000
-1.1721579e+000
-1.2628800e+000
-1.3162022e+000
-1.3237274e+000
-1.2957902e+000
-1.2646571e+000
-1.2657385e+000
-1.2990954e+000
-1.3446120e+000
-1.3867136e+000
-1.4174929e+000
-1.4431134e+000
-1.4724033e+000
-1.4918617e+000
-1.4759988e+000
-1.4063600e+000
-1.2754143e+000
-1.1008103e+000
-9.1758347e-001
-7.7399462e-001
-7.1738201e-001
-7.6217067e-001
-8.9652473e-001
-1.0824368e+000
-1.2707092e+000
-1.4230286e+000
-1.5114944e+000
-1.5183015e+000
-1.4385464e+000
-1.3020281e+000
-1.1608001e+000
-1.0722117e+000
-1.0816774e+000
-1.1759658e+000
-1.3043610e+000
-1.4130272e+000
-1.4568601e+000
-1.4210143e+000
-1.3166403e+000
-1.1862268e+000
-1.0864315e+000
-1.0567102e+000
-1.1132120e+000
-1.2252980e+000
-1.3356011e+000
-1.3957372e+000
-1.3766044e+000
-1.2947295e+000
-1.1925029e+000
-1.0987486e+000
-1.0239600e+000
-9.5071024e-001
-8.4886205e-001
-7.0867562e-001
-5.4200697e-001
-3.8730571e-001
-2.9216570e-001
-2.7273721e-001
-3.1277427e-001
-3.5500041e-001
-3.3137643e-001
-2.3987463e-001
-1.2327230e-001
-6.5103061e-003
1.0474595e-001
2.0817086e-001
2.9621977e-001
3.3752894e-001
2.9496130e-001
1.8191451e-001
5.3153258e-002
-2.1294395e-002
5.9668552e-003
5.1099397e-002
-2.8925583e-002
-2.1118477e-001
-3.5007161e-001
-3.4774736e-001
-1.7822942e-001
9.7050533e-002
3.6229143e-001
5.1368886e-001
4.8984206e-001
3.4823012e-001
2.1765161e-001
1.5778600e-001
1.5224874e-001
1.2882660e-001
2.7286708e-003
-2.1565303e-001
-4.3371743e-001
-5.3543359e-001
-4.0121511e-001
7.3846608e-002
9.4666708e-001
2.1068902e+000
3.3285587e+000
4.4436908e+000
5.3847542e+000
6.2534361e+000
7.2749643e+000
8.6752014e+000
1.0631195e+001
1.3176831e+001
1.6195852e+001
1.9394142e+001
2.2397490e+001
2.5045723e+001
2.7418354e+001
2.9804314e+001
3.2595814e+001
3.6003883e+001
3.9991474e+001
4.4147842e+001
4.7884514e+001
5.1109074e+001
5.4188606e+001
5.7501240e+001
6.1290752e+001
6.5480064e+001
6.9753952e+001
7.3895393e+001
7.7817352e+001
8.1435356e+001
8.4659821e+001
8.7470802e+001
8.9911163e+001
9.2035759e+001
9.3862106e+001
9.5225410e+001
9.5849533e+001
9.5689529e+001
9.4916023e+001
9.3622665e+001
9.1785820e+001
8.9341896e+001
8.6251656e+001
8.2673149e+001
7.8912102e+001
7.5115730e+001
7.1248436e+001
6.7248878e+001
6.3086071e+001
5.8825077e+001
5.4612659e+001
5.0573227e+001
4.6796276e+001
4.3373062e+001
4.0385891e+001
3.7839382e+001
3.5660557e+001
3.3764843e+001
3.2080658e+001
3.0573433e+001
2.9239716e+001
2.8075001e+001
2.7068830e+001
2.6210749e+001
2.5497744e+001
2.4947134e+001
2.4590786e+001
2.4441395e+001
2.4488560e+001
2.4731047e+001
2.5182262e+001
2.5847914e+001
2.6714819e+001
2.7720482e+001
2.8763241e+001
2.9781960e+001
3.0765299e+001
3.1708447e+001
3.2636219e+001
3.3745518e+001
3.5360111e+001
3.7550114e+001
4.0062180e+001
4.2517994e+001
4.4536743e+001
4.6040840e+001
4.7264786e+001
4.8374092e+001
4.9369900e+001
5.0160942e+001
5.0604134e+001
5.0618515e+001
5.0222294e+001
4.9527302e+001
4.8712128e+001
4.7876541e+001
4.7003948e+001
4.6012814e+001
4.4785236e+001
4.3252720e+001
4.1432091e+001
3.9451958e+001
3.7514500e+001
3.5642521e+001
3.3635246e+001
3.1290237e+001
2.8507994e+001
2.5461782e+001
2.2581928e+001
2.0122522e+001
1.8046719e+001
1.6201857e+001
1.4387233e+001
1.2485600e+001
1.0499930e+001
8.4642248e+000
6.4296746e+000
4.5032024e+000
2.8414369e+000
1.5324495e+000
5.8422422e-001
9.1225006e-002
2.2691041e-001
9.0878308e-001
1.7421540e+000
2.4628727e+000
3.0636144e+000
3.6029606e+000
4.1387296e+000
4.6495667e+000
5.0204077e+000
5.1672997e+000
5.0871139e+000
4.8649087e+000
4.6588130e+000
4.5323801e+000
4.4106359e+000
4.2366309e+000
4.0167542e+000
3.7641971e+000
3.4797246e+000
3.1447041e+000
2.7249899e+000
2.2223120e+000
1.6935911e+000
1.2136902e+000
8.5899663e-001
6.7024696e-001
6.3478261e-001
7.1128005e-001
8.3928210e-001
9.8043656e-001
1.1354190e+000
1.3236704e+000
1.5751607e+000
1.9003417e+000
2.2790706e+000
2.6879630e+000
3.1081083e+000
3.5181599e+000
3.8913047e+000
4.1979074e+000
4.4094977e+000
4.5201921e+000
4.5557237e+000
4.5395508e+000
4.4806199e+000
4.3807087e+000
4.2366319e+000
4.0522976e+000
3.8426604e+000
3.6200514e+000
3.3894691e+000
3.1574099e+000
2.9343150e+000
2.7244577e+000
2.5193021e+000
2.2945554e+000
2.0106282e+000
1.6514628e+000
1.2450407e+000
8.3990157e-001
4.9532032e-001
2.3859122e-001
4.5228198e-002
-1.0496338e-001
-2.0571500e-001
-2.3785479e-001
-1.7720211e-001
-3.4969568e-002
1.2121560e-001
2.2638085e-001
2.4612638e-001
1.8632743e-001
1.0498802e-001
5.6006998e-002
6.5967396e-002
1.4834884e-001
3.0331263e-001
5.1747817e-001
7.5983852e-001
9.9557799e-001
1.1922771e+000
1.3307011e+000
1.4136126e+000
1.4525558e+000
1.4651664e+000
1.4696274e+000
1.4826300e+000
1.5185947e+000
1.5877379e+000
1.6928000e+000
1.8239813e+000
1.9654626e+000
2.0965548e+000
2.2027881e+000
2.2840250e+000
2.3509011e+000
2.4259517e+000
2.5290926e+000
2.6689217e+000
2.8433058e+000
3.0360360e+000
3.2312655e+000
3.4208009e+000
3.6055341e+000
3.7993791e+000
4.0203137e+000
4.2872782e+000
4.6149201e+000
5.0091710e+000
5.4703803e+000
5.9915600e+000
6.5638227e+000
7.1778054e+000
7.8238759e+000
8.4920998e+000
9.1702566e+000
9.8419962e+000
1.0487868e+001
1.1084624e+001
1.1609229e+001
1.2040501e+001
1.2358560e+001
1.2542892e+001
1.2586009e+001
1.2500458e+001
1.2308555e+001
1.2036718e+001
1.1704288e+001
1.1310880e+001
1.0851972e+001
1.0325371e+001
9.7374210e+000
9.1150389e+000
8.4851141e+000
7.8652143e+000
7.2622142e+000
6.6663723e+000
6.0686922e+000
5.4701400e+000
4.8776283e+000
4.3046775e+000
3.7652326e+000
3.2702241e+000
2.8252447e+000
2.4268100e+000
2.0696464e+000
1.7499981e+000
1.4728849e+000
1.2607317e+000
1.1329600e+000
1.0926238e+000
1.1260889e+000
1.1922474e+000
1.2493258e+000
1.2697151e+000
1.2399869e+000
1.1713190e+000
1.0788019e+000
9.7319794e-001
8.6015773e-001
7.3649037e-001
5.9869480e-001
4.4774839e-001
2.8968579e-001
1.4019839e-001
2.1159954e-002
-3.8261354e-002
-2.1923501e-002
5.2542344e-002
1.6670772e-001
3.1918061e-001
5.1198751e-001
7.4551910e-001
1.0192165e+000
1.3310021e+000
1.6774665e+000
2.0525482e+000
2.4493959e+000
2.8601866e+000
3.2720599e+000
3.6609049e+000
4.0046082e+000
4.2936997e+000
4.5289397e+000
4.7297301e+000
4.9227486e+000
5.1411424e+000
5.4137712e+000
5.7527947e+000
6.1521001e+000
6.5693278e+000
6.9646616e+000
7.3285422e+000
7.6691885e+000
8.0204830e+000
8.4034052e+000
8.7894363e+000
9.1361713e+000
9.3982210e+000
9.5470905e+000
9.6024218e+000
9.5979815e+000
9.5739470e+000
9.5634298e+000
9.5752153e+000
9.6058807e+000
9.6342525e+000
9.6329384e+000
9.5702887e+000
9.4189596e+000
9.1677589e+000
8.8185015e+000
8.3994036e+000
7.9468536e+000
7.5016575e+000
7.0939984e+000
6.7202263e+000
6.3648539e+000
6.0038443e+000
5.6214199e+000
5.2322726e+000
4.8550382e+000
4.4975953e+000
4.1586123e+000
3.8193450e+000
3.4640102e+000
3.0997910e+000
2.7431107e+000
2.4211843e+000
2.1550715e+000
1.9402466e+000
1.7635920e+000
1.6058867e+000
1.4514401e+000
1.2997357e+000
1.1472033e+000
9.7010797e-001
7.4352169e-001
4.5521170e-001
1.0698929e-001
-2.6474100e-001
-6.1823845e-001
-9.2224491e-001
-1.1541194e+000
-1.3106543e+000
-1.3919588e+000
-1.3940393e+000
-1.3110580e+000
-1.1349139e+000
-8.6298084e-001
-5.1395011e-001
-1.1593190e-001
2.8871235e-001
6.5680492e-001
9.5455700e-001
1.1548774e+000
1.2457787e+000
1.2265052e+000
1.1214797e+000
9.6228629e-001
7.8331107e-001
6.1117882e-001
4.4342047e-001
2.7729028e-001
1.3460918e-001
3.9234072e-002
5.4785982e-004
1.8312342e-002
7.0505410e-002
1.2603199e-001
1.4095105e-001
8.6009793e-002
-2.7561635e-003
-8.2764216e-002
-1.4753857e-001
-2.0574340e-001
-2.8864861e-001
-4.1660926e-001
-5.4744571e-001
-6.2930048e-001
-6.3314027e-001
-5.5371809e-001
-4.5531821e-001
-4.0679938e-001
-4.2697600e-001
-5.0891501e-001
-5.9340143e-001
-6.1441052e-001
-5.3050941e-001
-3.0641001e-001
