Image.
>Pix99999.
  .
5555
5555
2300
900
5555
2
1
0
701
5555
-4.2681001e-002
-4.3568730e-002
-4.4456460e-002
-4.5344189e-002
-4.6231918e-002
-4.7120646e-002
-4.8008382e-002
-4.8896112e-002
-4.9783841e-002
-5.0671570e-002
-5.1559299e-002
-5.2448016e-002
-5.3335760e-002
-5.4223489e-002
-5.5111218e-002
-5.5998947e-002
-5.6887656e-002
-5.7775408e-002
-5.8663141e-002
-5.9550870e-002
-6.0438599e-002
-6.1326332e-002
-6.2215026e-002
-6.3102789e-002
-6.3990518e-002
-6.4878255e-002
-2.4109429e-003
1.5183841e-002
2.5490919e-002
-5.0182022e-002
-1.3863657e-001
-3.0322024e-001
-4.7240236e-001
-6.2201136e-001
-7.5564611e-001
-7.6997596e-001
-7.6571357e-001
-7.0469135e-001
-6.7011034e-001
-7.2565705e-001
-8.1622601e-001
-9.7217619e-001
-1.0926110e+000
-1.1485996e+000
-1.1446776e+000
-1.0707464e+000
-1.0018976e+000
-9.4210088e-001
-9.3165588e-001
-9.5759201e-001
-9.8289645e-001
-1.0064871e+000
-9.6030354e-001
-8.8359857e-001
-8.2852477e-001
-7.8112209e-001
-8.5532641e-001
-9.5736504e-001
-1.0765001e+000
-1.1974846e+000
-1.2858714e+000
-1.3657721e+000
-1.3832725e+000
-1.3688301e+000
-1.2055743e+000
-1.0268307e+000
-8.4484375e-001
-7.2539145e-001
-7.6690859e-001
-8.5934752e-001
-1.0171239e+000
-1.1324428e+000
-1.1762559e+000
-1.1477543e+000
-1.0460757e+000
-9.2308033e-001
-7.8803891e-001
-6.9689363e-001
-6.3726461e-001
-6.4952904e-001
-6.9913399e-001
-7.7851075e-001
-8.6861658e-001
-9.2484343e-001
-9.6989238e-001
-9.8652476e-001
-9.9687016e-001
-9.9027985e-001
-9.7808409e-001
-9.0902692e-001
-8.3099329e-001
-7.4557930e-001
-6.7181760e-001
-6.5361053e-001
-6.4101571e-001
-6.2095582e-001
-5.9505898e-001
-5.5904472e-001
-5.5047739e-001
-5.9072071e-001
-6.3703996e-001
-6.8227553e-001
-6.9974196e-001
-6.8862104e-001
-6.8393642e-001
-6.8726701e-001
-6.6988087e-001
-6.3784021e-001
-5.6234425e-001
-4.6537849e-001
-4.1515958e-001
-3.8557598e-001
-3.9958239e-001
-4.2719731e-001
-4.1441068e-001
-3.9223313e-001
-3.6556378e-001
-3.4252724e-001
-3.5497466e-001
-3.8151491e-001
-4.4676572e-001
-5.2464908e-001
-6.2331730e-001
-7.1059066e-001
-7.6131243e-001
-7.9707718e-001
-8.1938958e-001
-8.5088784e-001
-8.9725894e-001
-9.2242563e-001
-9.1514415e-001
-8.8644350e-001
-8.4336829e-001
-8.4029227e-001
-8.7272811e-001
-9.0228033e-001
-9.2767447e-001
-8.7841570e-001
-7.9153967e-001
-7.2610766e-001
-6.7034000e-001
-7.4995190e-001
-8.7254852e-001
-1.0726449e+000
-1.2873977e+000
-1.4365329e+000
-1.5504240e+000
-1.5416000e+000
-1.4914845e+000
-1.4077255e+000
-1.3364786e+000
-1.3348701e+000
-1.3794783e+000
-1.4795922e+000
-1.5930080e+000
-1.6930543e+000
-1.7778149e+000
-1.8460336e+000
-1.8749017e+000
-1.8688210e+000
-1.7547914e+000
-1.5508059e+000
-1.2681295e+000
-9.4151455e-001
-7.2963953e-001
-5.9530485e-001
-6.6378188e-001
-8.2942486e-001
-1.0193280e+000
-1.2132145e+000
-1.2828143e+000
-1.3037028e+000
-1.2500954e+000
-1.1760908e+000
-1.1747569e+000
-1.2199000e+000
-1.3823651e+000
-1.5873080e+000
-1.7743760e+000
-1.9281470e+000
-2.0004857e+000
-2.0293081e+000
-2.0333979e+000
-2.0332432e+000
-2.0517550e+000
-2.0438800e+000
-2.0031607e+000
-1.8539153e+000
-1.5893064e+000
-1.2936630e+000
-9.8169774e-001
-7.7123851e-001
-6.4178616e-001
-6.2811083e-001
-6.8313855e-001
-8.5182536e-001
-1.0746108e+000
-1.2434677e+000
-1.3803103e+000
-1.2919196e+000
-1.1090143e+000
-8.7740052e-001
-6.5622807e-001
-6.1404061e-001
-6.7596537e-001
-8.6893409e-001
-1.1091068e+000
-1.3396025e+000
-1.5414377e+000
-1.6952673e+000
-1.7936900e+000
-1.8434883e+000
-1.8065760e+000
-1.6766424e+000
-1.5000407e+000
-1.2738271e+000
-1.1724949e+000
-1.1933680e+000
-1.3413763e+000
-1.5851672e+000
-1.8093400e+000
-2.0128467e+000
-2.0892231e+000
-2.0936735e+000
-2.0004160e+000
-1.8688571e+000
-1.8552338e+000
-1.9194813e+000
-2.1433537e+000
-2.4252741e+000
-2.6337388e+000
-2.7597389e+000
-2.7033103e+000
-2.5376136e+000
-2.2504578e+000
-1.9741157e+000
-1.8139817e+000
-1.7815095e+000
-1.9219520e+000
-2.0913174e+000
-2.2223771e+000
-2.2414434e+000
-2.1321769e+000
-1.9678210e+000
-1.7816182e+000
-1.6034700e+000
-1.4377937e+000
-1.2392876e+000
-1.0190256e+000
-7.8122139e-001
-5.3688854e-001
-3.4506077e-001
-1.7647439e-001
-6.9811225e-002
1.7693356e-002
1.0930930e-001
2.1471389e-001
3.2399917e-001
4.4580132e-001
5.8477402e-001
7.2972631e-001
8.5609275e-001
9.1622841e-001
8.6451101e-001
7.2482592e-001
5.3849596e-001
3.8399380e-001
2.9697648e-001
1.0455062e-001
-1.5072070e-001
-2.9546857e-001
-3.1150281e-001
-7.9493992e-002
3.8414258e-001
9.1560096e-001
1.4550858e+000
1.6250675e+000
1.4700022e+000
1.1754972e+000
8.1048012e-001
7.2763801e-001
8.5048491e-001
9.3692994e-001
9.7873563e-001
7.0082194e-001
2.5154743e-001
-7.8951158e-002
-2.3199540e-001
1.0341948e-001
8.9657474e-001
2.1480927e+000
3.4829187e+000
4.4925671e+000
5.2946024e+000
5.9580760e+000
6.8178873e+000
8.1270409e+000
1.0068641e+001
1.2720251e+001
1.5913558e+001
1.9547714e+001
2.3008150e+001
2.6048483e+001
2.8872643e+001
3.1545736e+001
3.4858192e+001
3.8850342e+001
4.3384525e+001
4.8332520e+001
5.2543594e+001
5.6100956e+001
5.9662792e+001
6.3295769e+001
6.7605743e+001
7.2401375e+001
7.7134850e+001
8.1758324e+001
8.6021156e+001
8.9931992e+001
9.3433395e+001
9.6543541e+001
9.9262741e+001
1.0145840e+002
1.0302782e+002
1.0338514e+002
1.0220357e+002
9.9978638e+001
9.7170517e+001
9.4057999e+001
9.0801567e+001
8.7027626e+001
8.2665825e+001
7.8138512e+001
7.3629143e+001
6.9335968e+001
6.5250267e+001
6.0973961e+001
5.6463425e+001
5.2020393e+001
4.7674610e+001
4.3585457e+001
3.9783092e+001
3.6386585e+001
3.3429279e+001
3.0920435e+001
2.8829037e+001
2.6997583e+001
2.5432623e+001
2.4109674e+001
2.3053640e+001
2.2254002e+001
2.1689188e+001
2.1302834e+001
2.1040995e+001
2.0841454e+001
2.0745171e+001
2.0760519e+001
2.0961969e+001
2.1360880e+001
2.2048889e+001
2.3052200e+001
2.4311026e+001
2.5824051e+001
2.7307148e+001
2.8706760e+001
2.9914785e+001
3.0908619e+001
3.1945772e+001
3.3124306e+001
3.5308578e+001
3.8511600e+001
4.2092541e+001
4.5840187e+001
4.8606060e+001
5.0478027e+001
5.1999180e+001
5.3210445e+001
5.4335426e+001
5.5071079e+001
5.5178692e+001
5.4615429e+001
5.3425732e+001
5.2009350e+001
5.0660095e+001
4.9387959e+001
4.8200798e+001
4.6894814e+001
4.5379440e+001
4.3516224e+001
4.1302135e+001
3.9128300e+001
3.7110538e+001
3.5160160e+001
3.3190559e+001
3.0635052e+001
2.7319614e+001
2.4059435e+001
2.0995445e+001
1.8537998e+001
1.6758490e+001
1.5015572e+001
1.3291887e+001
1.1565683e+001
9.8142328e+000
8.0400715e+000
6.2510943e+000
4.4664259e+000
2.8614743e+000
1.6061393e+000
7.4097937e-001
2.6744831e-001
1.5211265e-001
4.5046034e-001
9.2443550e-001
1.4004797e+000
1.8933278e+000
2.3379252e+000
2.8435826e+000
3.4509625e+000
4.1214800e+000
4.8866601e+000
5.5050945e+000
5.9264231e+000
6.1346822e+000
6.0516238e+000
5.8469105e+000
5.4726553e+000
5.0855079e+000
4.6835957e+000
4.3634653e+000
4.1063943e+000
3.8772607e+000
3.6465881e+000
3.3761122e+000
3.1155281e+000
2.8967235e+000
2.7456732e+000
2.6644197e+000
2.6276112e+000
2.6479650e+000
2.7400000e+000
2.9503131e+000
3.2833812e+000
3.7001433e+000
4.1448436e+000
4.5693035e+000
4.9546604e+000
5.3080282e+000
5.6114483e+000
5.8493705e+000
5.9970570e+000
6.0050640e+000
5.9326215e+000
5.7752910e+000
5.5823011e+000
5.3458300e+000
5.0807610e+000
4.7804561e+000
4.4925327e+000
4.2136021e+000
3.9619401e+000
3.7109647e+000
3.4674718e+000
3.2240748e+000
2.9523635e+000
2.6560109e+000
2.2842948e+000
1.8508483e+000
1.3951548e+000
9.6200287e-001
6.1948854e-001
3.6114484e-001
1.8148978e-001
4.9950827e-002
-3.9972946e-002
-1.0694593e-001
-4.7488544e-002
9.0542465e-002
3.5911626e-001
6.1193800e-001
8.3121401e-001
9.4291842e-001
9.2912221e-001
9.0113658e-001
8.7215358e-001
9.0940571e-001
1.0214312e+000
1.2087586e+000
1.4624926e+000
1.7397105e+000
2.0092900e+000
2.2053266e+000
2.3330772e+000
2.3795331e+000
2.3806894e+000
2.3458006e+000
2.2860188e+000
2.1989279e+000
2.0933194e+000
1.9872519e+000
1.8893715e+000
1.8328015e+000
1.8036543e+000
1.8318404e+000
1.8786560e+000
1.9581844e+000
2.0379078e+000
2.1214464e+000
2.2025669e+000
2.2817471e+000
2.3602586e+000
2.4280350e+000
2.4954264e+000
2.5573664e+000
2.6380069e+000
2.7584214e+000
2.9240851e+000
3.1547787e+000
3.4134300e+000
3.6965570e+000
3.9724143e+000
4.2523232e+000
4.5649061e+000
4.9167624e+000
5.3323593e+000
5.7737999e+000
6.2073874e+000
6.6100206e+000
6.9276333e+000
7.1928368e+000
7.3601718e+000
7.4828296e+000
7.5146637e+000
7.5027070e+000
7.3751674e+000
7.2044563e+000
6.9150414e+000
6.5827646e+000
6.1479692e+000
5.6691942e+000
5.1078429e+000
4.5460324e+000
3.9921608e+000
3.4937541e+000
3.0733550e+000
2.6787901e+000
2.3068719e+000
1.9017558e+000
1.4667954e+000
1.0302432e+000
6.0032427e-001
2.0809849e-001
-1.5958041e-001
-5.1357377e-001
-8.4414995e-001
-1.1014507e+000
-1.2990166e+000
-1.3490074e+000
-1.3464277e+000
-1.2695347e+000
-1.1727799e+000
-1.0387771e+000
-8.8235259e-001
-6.4472592e-001
-4.0683526e-001
-1.6751973e-001
3.8367063e-002
1.6091490e-001
2.5752550e-001
3.0132231e-001
3.3454341e-001
3.4814957e-001
3.4934548e-001
3.3130386e-001
2.9967180e-001
2.5130570e-001
1.8677354e-001
1.1211927e-001
4.9472019e-002
6.9957701e-003
2.8342340e-002
1.0424244e-001
3.5859972e-001
7.0566392e-001
1.1787320e+000
1.6782635e+000
2.1322994e+000
2.5489240e+000
2.8116920e+000
3.0312560e+000
3.0972600e+000
3.1460536e+000
3.1348829e+000
3.1402588e+000
3.1996877e+000
3.2809651e+000
3.4179075e+000
3.5722482e+000
3.7673986e+000
4.0216198e+000
4.3746858e+000
4.8000660e+000
5.3124738e+000
5.8201675e+000
6.3132381e+000
6.7319827e+000
7.0862374e+000
7.3863392e+000
7.6497245e+000
7.8866501e+000
8.1015062e+000
8.2466898e+000
8.3621311e+000
8.4219284e+000
8.4722757e+000
8.5365744e+000
8.5998240e+000
8.6397648e+000
8.6772614e+000
8.7078838e+000
8.7432117e+000
8.7972679e+000
8.8256054e+000
8.7710457e+000
8.7070303e+000
8.6241112e+000
8.5760288e+000
8.5872660e+000
8.5366859e+000
8.3875551e+000
8.1258698e+000
7.7399449e+000
7.3822865e+000
7.0565925e+000
6.8174434e+000
6.6359110e+000
6.4452624e+000
6.2393532e+000
5.9172297e+000
5.5403128e+000
5.0470743e+000
4.5240169e+000
4.0173736e+000
3.5219588e+000
3.1248238e+000
2.7403715e+000
2.4109817e+000
2.0849237e+000
1.7800783e+000
1.4907985e+000
1.2711500e+000
1.0690994e+000
9.2141777e-001
7.6173705e-001
5.7383364e-001
3.6388475e-001
1.1424290e-001
-1.3449617e-001
-3.7962502e-001
-5.6311691e-001
-6.7615199e-001
-6.7813015e-001
-5.8804798e-001
-4.3149108e-001
-2.3507112e-001
-2.5085896e-002
1.8844101e-001
3.5657111e-001
5.0253338e-001
4.7007310e-001
3.9385170e-001
1.7436732e-001
-5.5997685e-002
-1.3837387e-001
-2.0067474e-001
-6.6140354e-002
6.5135956e-003
1.9702064e-001
4.1467512e-001
7.4675155e-001
1.1197715e+000
1.6113914e+000
2.0963242e+000
2.5673256e+000
3.0456069e+000
3.5339913e+000
3.9655442e+000
4.3222771e+000
4.4135532e+000
4.2577519e+000
3.9994814e+000
3.6743884e+000
3.7145376e+000
3.9482460e+000
4.5030823e+000
5.1752539e+000
5.6438584e+000
6.0552406e+000
6.2976122e+000
6.5121031e+000
7.0735002e+000
