##TITLE=Methyl Ethyl Ketone
##JCAMP-DX=4.24
##DATA TYPE=INFRARED SPECTRUM
##XUNITS=cm-1
##YUNITS=Absorbance
##FIRSTX=900
##LASTX=2300
##XYDATA=(X++(Y..Y))
2296 0.087281004
2294 0.089097403
2292 0.090912804
2290 0.092729203
2288 0.094544612
2286 0.096360013
2284 0.098176405
2282 0.099991821
2280 0.1018092
2278 0.1036266
2276 0.105444
2274 0.1072614
2272 0.10906897
2270 0.11087638
2268 0.11270341
2266 0.11454057
2264 0.11633886
2262 0.11805823
2260 0.11996089
2258 0.12210164
2256 0.12360743
2254 0.1242029
2252 0.12719351
2250 0.13354743
2248 0.13101737
2246 0.10646571
2244 0.057876427
2242 -0.0048295045
2240 -0.036282219
2238 0.0019686886
2236 0.080298074
2234 0.15573347
2232 0.21001931
2230 0.23828243
2228 0.26031065
2226 0.29759347
2224 0.35012525
2222 0.41018161
2220 0.46464717
2218 0.50118768
2216 0.51697344
2214 0.51523989
2212 0.51235396
2210 0.52761012
2208 0.57635802
2206 0.66553342
2204 0.77303421
2202 0.86870813
2200 0.92575902
2198 0.92585373
2196 0.88011712
2194 0.80908692
2192 0.73441625
2190 0.67413229
2188 0.63083464
2186 0.6025824
2184 0.58876604
2182 0.59057921
2180 0.61435473
2178 0.66580951
2176 0.74149972
2174 0.8321529
2172 0.91727686
2170 0.97658539
2168 1.0056872
2166 1.0105493
2164 1.0185891
2162 1.0583748
2160 1.1360829
2158 1.245591
2156 1.36128
2154 1.45467
2152 1.5096543
2150 1.5176767
2148 1.4819603
2146 1.4122536
2144 1.3278264
2142 1.249881
2140 1.1934171
2138 1.1691248
2136 1.1784029
2134 1.219516
2132 1.29268
2130 1.3953959
2128 1.511224
2126 1.6189557
2124 1.6986505
2122 1.736986
2120 1.7471325
2118 1.7484365
2116 1.7468443
2114 1.74138
2112 1.7264423
2110 1.6981122
2108 1.6670032
2106 1.6473292
2104 1.6465394
2102 1.6668713
2100 1.7026939
2098 1.7443177
2096 1.7775571
2094 1.7887745
2092 1.773754
2090 1.735777
2088 1.69394
2086 1.67019
2084 1.6728703
2082 1.7021099
2080 1.7461029
2078 1.7905174
2076 1.82926
2074 1.860527
2072 1.88504
2070 1.9047328
2068 1.9206083
2066 1.9335464
2064 1.94436
2062 1.9532626
2060 1.9571943
2058 1.953882
2056 1.9477971
2054 1.9458729
2052 1.9529662
2050 1.969502
2048 1.9818338
2046 1.9735322
2044 1.942354
2042 1.8949077
2040 1.849192
2038 1.8243594
2036 1.8256485
2034 1.8503729
2032 1.8903668
2030 1.935336
2028 1.976828
2026 2.0091372
2024 2.0341761
2022 2.0577812
2020 2.0872886
2018 2.1279414
2016 2.1726599
2014 2.2094903
2012 2.2299719
2010 2.230058
2008 2.2155383
2006 2.1972528
2004 2.1867518
2002 2.195586
2000 2.2342012
1998 2.3077161
1996 2.4034929
1994 2.4994855
1992 2.5708075
1990 2.5967777
1988 2.5798979
1986 2.5351157
1984 2.4851427
1982 2.4523575
1980 2.4457903
1978 2.4644804
1976 2.4924486
1974 2.509341
1972 2.5054829
1970 2.4799254
1968 2.4455407
1966 2.4196215
1964 2.4113011
1962 2.4226592
1960 2.4448159
1958 2.4633441
1956 2.4627056
1954 2.4311981
1952 2.3749607
1950 2.3096597
1948 2.2535996
1946 2.2221251
1944 2.2145777
1942 2.2214966
1940 2.2315319
1938 2.2332814
1936 2.2185142
1934 2.1825082
1932 2.128262
1930 2.0648451
1928 2.008805
1926 1.9787879
1924 1.984822
1922 2.0282345
1920 2.0938463
1918 2.1599312
1916 2.2126629
1914 2.2465963
1912 2.271672
1910 2.3031154
1908 2.3441164
1906 2.389025
1904 2.4251001
1902 2.4390862
1900 2.4305296
1898 2.4059305
1896 2.3706572
1894 2.3285768
1892 2.2839146
1890 2.242074
1888 2.2133651
1886 2.20838
1884 2.2271957
1882 2.2620969
1880 2.2986219
1878 2.3204229
1876 2.3164501
1874 2.282382
1872 2.2285869
1870 2.1730533
1868 2.1315057
1866 2.1139872
1864 2.1162167
1862 2.1268489
1860 2.1393449
1858 2.1512022
1856 2.1603541
1854 2.1637211
1852 2.1539938
1850 2.1234739
1848 2.0733881
1846 2.0123429
1844 1.9567564
1842 1.9233775
1840 1.9122308
1838 1.9115075
1836 1.9049171
1834 1.877782
1832 1.8303983
1830 1.773005
1828 1.7181169
1826 1.6759878
1824 1.6452389
1822 1.6166524
1820 1.5801361
1818 1.5272808
1816 1.4571228
1814 1.3751676
1812 1.2945695
1810 1.2322457
1808 1.2015789
1806 1.2072899
1804 1.229236
1802 1.2343643
1800 1.2050925
1798 1.1413565
1796 1.06725
1794 1.0156636
1792 0.99221361
1790 0.98168987
1788 0.96655244
1786 0.93291456
1784 0.87942868
1782 0.81350607
1780 0.74365956
1778 0.67750931
1776 0.61988944
1774 0.57279265
1772 0.53384137
1770 0.49654576
1768 0.44842544
1766 0.3771193
1764 0.2886416
1762 0.19349228
1760 0.059943944
1758 -0.15938996
1756 -0.43568602
1754 -0.6885497
1752 -0.87445611
1750 -0.98973036
1748 -1.0530854
1746 -1.0943071
1744 -1.1400732
1742 -1.2050776
1740 -1.267316
1738 -1.2820836
1736 -1.22422
1734 -1.0949038
1732 -0.93086791
1730 -0.78539968
1728 -0.6761663
1726 -0.58539236
1724 -0.47262096
1722 -0.28569192
1720 0.021938503
1718 0.4805131
1716 1.0732026
1714 1.7457213
1712 2.4355812
1710 3.0983262
1708 3.779624
1706 4.6024165
1704 5.7171903
1702 7.2969823
1700 9.5706282
1698 12.722507
1696 16.521572
1694 20.42251
1692 23.998478
1690 27.057909
1688 29.809256
1686 32.744007
1684 36.264935
1682 40.535557
1680 45.170162
1678 49.455845
1676 53.18203
1674 56.647766
1672 60.254345
1670 64.3274
1668 68.802917
1666 73.309196
1664 77.566917
1662 81.443413
1660 84.875565
1658 87.848587
1656 90.393311
1654 92.573097
1652 94.45224
1650 96.056549
1648 97.262177
1646 97.846924
1644 97.74234
1642 97.028336
1640 95.725502
1638 93.773193
1636 91.114647
1634 87.750206
1632 83.867546
1630 79.782516
1628 75.627998
1626 71.341187
1624 66.86544
1622 62.209972
1620 57.509842
1618 52.995232
1616 48.83017
1614 45.090691
1612 41.809029
1610 38.98035
1608 36.551662
1606 34.434292
1604 32.56546
1602 30.919392
1600 29.486704
1598 28.263397
1596 27.237499
1594 26.390589
1592 25.7122
1590 25.203312
1588 24.86791
1586 24.70653
1584 24.701925
1582 24.82567
1580 25.079741
1578 25.497904
1576 26.114599
1574 26.94665
1572 27.951139
1570 29.033127
1568 30.11944
1566 31.177713
1564 32.209072
1562 33.270664
1560 34.583244
1558 36.467022
1556 38.927258
1554 41.600491
1552 44.051418
1550 45.917503
1548 47.175301
1546 48.129215
1544 48.981838
1542 49.732693
1540 50.291817
1538 50.527546
1536 50.367657
1534 49.833515
1532 49.029778
1530 48.114483
1528 47.163406
1526 46.144699
1524 45.001808
1522 43.685822
1520 42.191986
1518 40.568043
1516 38.890556
1514 37.230495
1512 35.528721
1510 33.584633
1508 31.239117
1506 28.4564
1504 25.42152
1502 22.516226
1500 19.958828
1498 17.71443
1496 15.664714
1494 13.667589
1492 11.65378
1490 9.6487741
1488 7.6954627
1486 5.8377542
1484 4.149014
1482 2.7260876
1480 1.6107166
1478 0.7815749
1476 0.27297229
1474 0.1843954
1472 0.51059246
1470 1.0992949
1468 1.7935932
1466 2.481997
1464 3.1197953
1462 3.7320952
1460 4.3360252
1458 4.9160357
1456 5.4349799
1454 5.8407431
1452 6.1002774
1450 6.2119136
1448 6.1884179
1446 6.0539503
1444 5.8403082
1442 5.5823789
1440 5.295814
1438 4.9669185
1436 4.5644655
1434 4.0509338
1432 3.4375257
1430 2.8027647
1428 2.2315319
1426 1.792062
1424 1.5193497
1422 1.4067614
1420 1.4360714
1418 1.5849897
1416 1.8265228
1414 2.1296589
1412 2.471128
1410 2.8412476
1408 3.2407973
1406 3.6796222
1404 4.1594996
1402 4.6660247
1400 5.1713681
1398 5.6348715
1396 6.0201497
1394 6.302844
1392 6.4700236
1390 6.5211492
1388 6.4581594
1386 6.2839952
1384 6.010973
1382 5.6643362
1380 5.269599
1378 4.847321
1376 4.4118285
1374 3.9713688
1372 3.5412521
1370 3.1459939
1368 2.7904017
1366 2.4453888
1364 2.0735788
1362 1.6436273
1360 1.1661739
1358 0.71266061
1356 0.35158116
1354 0.12050258
1352 0.020429509
1350 0.0078256633
1348 0.043002032
1346 0.10933182
1344 0.2015188
1342 0.32225484
1340 0.46475974
1338 0.60446167
1336 0.71532029
1334 0.7778883
1332 0.78900284
1330 0.77000964
1328 0.74890107
1326 0.75416636
1324 0.80624992
1322 0.91070169
1320 1.0615486
1318 1.2396575
1316 1.42624
1314 1.6078334
1312 1.7740657
1310 1.9174503
1308 2.0288963
1306 2.0969472
1304 2.1166193
1302 2.0958431
1300 2.0501232
1298 2.0026619
1296 1.9748143
1294 1.980948
1292 2.0298264
1290 2.1222875
1288 2.2540278
1286 2.4145057
1284 2.5916727
1282 2.774225
1280 2.9561491
1278 3.1413248
1276 3.3374999
1274 3.554652
1272 3.7990565
1270 4.0692105
1268 4.3625183
1266 4.6782451
1264 5.0222611
1262 5.4109588
1260 5.8591504
1258 6.3733411
1256 6.9502172
1254 7.5716548
1252 8.2179403
1250 8.8738766
1248 9.5281296
1246 10.17475
1244 10.806623
1242 11.409366
1240 11.964823
1238 12.4506
1236 12.844743
1234 13.131561
1232 13.294681
1230 13.314143
1228 13.176343
1226 12.879943
1224 12.434315
1222 11.866574
1220 11.20414
1218 10.47244
1216 9.6982517
1214 8.9182224
1212 8.168788
1210 7.4813318
1208 6.87325
1206 6.3342729
1204 5.8412542
1202 5.3587265
1200 4.8531384
1198 4.3027282
1196 3.6993072
1194 3.0582528
1192 2.4061451
1190 1.780895
1188 1.2199165
1186 0.75316763
1184 0.39897734
1182 0.15444374
1180 0.0076199956
1178 -0.061655678
1176 -0.0719826
1174 -0.034726087
1172 0.037034616
1170 0.1229626
1168 0.20319983
1166 0.26358593
1164 0.29763216
1162 0.31251481
1160 0.31475571
1158 0.30220649
1156 0.27200043
1154 0.22475557
1152 0.1659525
1150 0.10959271
1148 0.06587968
1146 0.031856857
1144 0.0041667903
1142 -0.01378944
1140 -0.013035581
1138 0.025123805
1136 0.12527823
1134 0.31818098
1132 0.61635011
1130 0.98527205
1128 1.3780725
1126 1.7468357
1124 2.0581105
1122 2.3150373
1120 2.534528
1118 2.7444017
1116 2.9658215
1114 3.1963348
1112 3.4279001
1110 3.6536229
1108 3.871387
1106 4.0914049
1104 4.3246574
1102 4.5779319
1100 4.8552685
1098 5.1574197
1096 5.4842143
1094 5.8351536
1092 6.210618
1090 6.6123791
1088 7.0385923
1086 7.4762273
1084 7.9049187
1082 8.2932758
1080 8.6136045
1078 8.8564367
1076 9.023592
1074 9.1355877
1072 9.2148447
1070 9.2768612
1068 9.328763
1066 9.359127
1064 9.3526602
1062 9.2966022
1060 9.1865273
1058 9.0376253
1056 8.8686285
1054 8.6918955
1052 8.5076542
1050 8.2867107
1048 7.9984159
1046 7.6298141
1044 7.1912961
1042 6.7454047
1040 6.3575048
1038 6.0623012
1036 5.8653102
1034 5.7096386
1032 5.5291138
1030 5.2772422
1028 4.9298353
1026 4.5156054
1024 4.0777454
1022 3.6642449
1020 3.3097847
1018 3.0042129
1016 2.7228
1014 2.4292593
1012 2.095134
1010 1.7252953
1008 1.341292
1006 0.99021912
1004 0.71684504
1002 0.53716666
1000 0.44685417
998 0.39975578
996 0.345155
994 0.25090009
992 0.098029144
990 -0.10484889
988 -0.34113055
986 -0.59005952
984 -0.82471359
982 -1.0016726
980 -1.077682
978 -1.0241998
976 -0.83297086
974 -0.5510788
972 -0.24098635
970 0.029947937
968 0.20900321
966 0.29706597
964 0.31440467
962 0.3017191
960 0.2976445
958 0.31598726
956 0.35513014
954 0.38166744
952 0.36246359
950 0.29307884
948 0.18455994
946 0.077359967
944 0.018751035
942 0.053598002
940 0.205708
938 0.42543697
936 0.65226686
934 0.85240787
932 1.0002052
930 1.075647
928 1.0678302
926 0.99419528
924 0.88996881
922 0.82889599
920 0.86903858
918 0.97268975
916 1.0786101
914 1.1271435
912 1.0918589
910 1.071999
908 1.1728517
906 1.4009064
904 1.7233801
902 2.0515983
900 2.3073792
898 2.509876
896 2.7028
