Image.
>Pix99999.
  .
5555
5555
2300
900
5555
2
1
0
701
5555
3.3918999e-002
3.4623992e-002
3.5329983e-002
3.6035970e-002
3.6740966e-002
3.7446950e-002
3.8152941e-002
3.8857941e-002
3.9563920e-002
4.0269911e-002
4.0974915e-002
4.1680891e-002
4.2385895e-002
4.3091867e-002
4.3797858e-002
4.4502873e-002
4.5208838e-002
4.5914829e-002
4.6619847e-002
4.7325812e-002
4.8031803e-002
4.8736822e-002
4.9442779e-002
5.0148770e-002
5.0853793e-002
5.1559750e-002
1.4992577e-002
5.2383856e-004
-1.3180800e-002
7.1419342e-003
3.2520056e-002
6.5819748e-002
9.8452255e-002
1.0350388e-001
1.0525937e-001
9.1363601e-002
8.0247782e-002
8.5588545e-002
9.4706520e-002
1.1271711e-001
1.2847744e-001
1.3822883e-001
1.4556679e-001
1.4953843e-001
1.4906715e-001
1.4331214e-001
1.3192347e-001
1.1540338e-001
1.1104725e-001
1.1603660e-001
1.4101857e-001
1.7717719e-001
1.9997652e-001
2.1660040e-001
2.0435628e-001
1.8285720e-001
1.6690600e-001
1.5235071e-001
1.6183637e-001
1.7481416e-001
1.8206400e-001
1.8756942e-001
1.7940877e-001
1.7361051e-001
1.8886554e-001
2.0911901e-001
2.4018495e-001
2.6252651e-001
2.5973067e-001
2.4971795e-001
2.3082399e-001
2.2205579e-001
2.2929253e-001
2.5061437e-001
2.8591761e-001
3.2989928e-001
3.8025308e-001
4.2369622e-001
4.6190581e-001
4.7552258e-001
4.7602913e-001
4.5925352e-001
4.3566954e-001
4.1277748e-001
3.9029759e-001
3.7663543e-001
3.6505041e-001
3.6286062e-001
3.6203310e-001
3.5869172e-001
3.5488242e-001
3.4999651e-001
3.4562251e-001
3.4399340e-001
3.4012473e-001
3.2832292e-001
3.1652495e-001
3.0742696e-001
3.0505040e-001
3.1335127e-001
3.2138428e-001
3.2711086e-001
3.2915434e-001
3.2773253e-001
3.2209450e-001
3.1321248e-001
2.9415125e-001
2.6861849e-001
2.4302274e-001
2.1794064e-001
2.0886485e-001
2.0646116e-001
2.1663961e-001
2.3072220e-001
2.2657052e-001
2.1723701e-001
1.6520076e-001
1.0553338e-001
5.0526526e-002
4.0850854e-003
-3.4934029e-004
4.5262612e-003
1.3779655e-002
1.8479809e-002
1.0098993e-002
3.0610999e-003
4.0618042e-003
5.8022626e-003
5.5354629e-003
-6.5490711e-003
-3.3312403e-002
-5.2762449e-002
-6.2345903e-002
-5.5196259e-002
-3.5715751e-002
-4.0062845e-002
-6.0588200e-002
-1.0312469e-001
-1.5562387e-001
-1.8328638e-001
-2.0032600e-001
-2.0340224e-001
-2.0275620e-001
-2.1343763e-001
-2.2694285e-001
-2.3140879e-001
-2.3262560e-001
-2.2534080e-001
-2.1912326e-001
-2.2425565e-001
-2.3384643e-001
-2.4661922e-001
-2.5637433e-001
-2.6008290e-001
-2.5975540e-001
-2.5826651e-001
-2.5110224e-001
-2.3630418e-001
-2.1756113e-001
-1.9494830e-001
-1.7811885e-001
-1.6663501e-001
-1.5173072e-001
-1.3278057e-001
-1.1214360e-001
-9.1031030e-002
-8.5953429e-002
-9.0244018e-002
-9.7292960e-002
-1.0533353e-001
-1.1399043e-001
-1.2337729e-001
-1.3753965e-001
-1.5366158e-001
-1.6255926e-001
-1.6966750e-001
-1.8147098e-001
-1.9510068e-001
-2.2007895e-001
-2.4586828e-001
-2.6699284e-001
-2.8355023e-001
-2.9017439e-001
-2.9495534e-001
-2.9777217e-001
-2.9458201e-001
-2.8205949e-001
-2.5489569e-001
-2.1649605e-001
-1.8407910e-001
-1.6305299e-001
-1.4920433e-001
-1.3863367e-001
-1.2292356e-001
-1.0243062e-001
-1.0587715e-001
-1.2346359e-001
-1.5982449e-001
-2.0520826e-001
-2.2618854e-001
-2.3658143e-001
-2.2896110e-001
-2.1670932e-001
-2.2560810e-001
-2.4886532e-001
-3.0463836e-001
-3.7063962e-001
-4.3209419e-001
-4.8107499e-001
-5.0207990e-001
-5.1361102e-001
-5.1960993e-001
-5.3022391e-001
-5.4704595e-001
-5.5726254e-001
-5.6391364e-001
-5.6616431e-001
-5.7124180e-001
-5.8370525e-001
-5.9957165e-001
-6.1745805e-001
-6.3337582e-001
-6.5134257e-001
-6.6818750e-001
-6.8907523e-001
-7.0913392e-001
-7.2030401e-001
-7.2391844e-001
-7.1692824e-001
-7.0677000e-001
-6.9319957e-001
-6.7862278e-001
-6.4843732e-001
-6.0840374e-001
-5.6371772e-001
-5.2229267e-001
-5.0910407e-001
-5.1647449e-001
-5.4183561e-001
-5.6964797e-001
-5.8219373e-001
-5.7903987e-001
-5.5790186e-001
-5.2466059e-001
-4.8585531e-001
-4.4490901e-001
-4.0424418e-001
-3.8866511e-001
-3.9303052e-001
-4.1528454e-001
-4.4738215e-001
-4.3109772e-001
-3.8310403e-001
-2.9314625e-001
-1.8395618e-001
-9.8645724e-002
-3.2743029e-002
1.8692198e-003
1.4853021e-002
1.2634862e-002
6.7766686e-003
2.1298774e-002
5.5188838e-002
9.9994302e-002
1.3857235e-001
1.3969700e-001
1.1770100e-001
9.3670063e-002
3.2382440e-002
-8.3293825e-002
-1.9369857e-001
-2.6611570e-001
-2.8310767e-001
-2.4430200e-001
-1.9063765e-001
-1.4242429e-001
-1.5892982e-001
-2.4310859e-001
-3.2906231e-001
-4.0215018e-001
-3.5758600e-001
-2.1906632e-001
-5.8780771e-002
1.0248081e-001
1.2533486e-001
5.0448265e-002
-2.2516619e-002
-7.2434537e-002
1.2625538e-002
2.3047426e-001
6.3367826e-001
1.1505015e+000
1.6569302e+000
2.1537259e+000
2.6572299e+000
3.3026457e+000
4.2253351e+000
5.6756363e+000
7.7762957e+000
1.0752594e+001
1.4573715e+001
1.8512411e+001
2.2225580e+001
2.5551472e+001
2.8533531e+001
3.2056526e+001
3.6211590e+001
4.1291004e+001
4.7107162e+001
5.2257877e+001
5.6762871e+001
6.0965412e+001
6.5016129e+001
6.9711121e+001
7.4896873e+001
8.0098900e+001
8.5205765e+001
8.9870293e+001
9.4071960e+001
9.7737915e+001
1.0078543e+002
1.0308788e+002
1.0444140e+002
1.0465534e+002
1.0367429e+002
1.0155500e+002
9.8838959e+001
9.6022430e+001
9.2901527e+001
8.9410934e+001
8.5175499e+001
8.0130630e+001
7.5076981e+001
7.0283264e+001
6.5883331e+001
6.1857929e+001
5.7704319e+001
5.3363548e+001
4.9104897e+001
4.4955521e+001
4.1127285e+001
3.7638771e+001
3.4603622e+001
3.2023880e+001
2.9842480e+001
2.8039543e+001
2.6482620e+001
2.5191319e+001
2.4159040e+001
2.3394041e+001
2.2869499e+001
2.2567324e+001
2.2428646e+001
2.2415392e+001
2.2471003e+001
2.2578085e+001
2.2720646e+001
2.2917620e+001
2.3179708e+001
2.3584700e+001
2.4158600e+001
2.4927448e+001
2.5883512e+001
2.6933273e+001
2.8050079e+001
2.9181921e+001
3.0328238e+001
3.1655416e+001
3.3257542e+001
3.5744259e+001
3.9186844e+001
4.2996212e+001
4.6936493e+001
4.9985226e+001
5.2172825e+001
5.4039715e+001
5.5622635e+001
5.7094692e+001
5.8260101e+001
5.8813206e+001
5.8673885e+001
5.7857056e+001
5.6613068e+001
5.5285664e+001
5.3859795e+001
5.2328651e+001
5.0558399e+001
4.8454391e+001
4.6096416e+001
4.3486427e+001
4.1009758e+001
3.8808895e+001
3.6705643e+001
3.4697418e+001
3.2188259e+001
2.9023657e+001
2.5836298e+001
2.2681099e+001
2.0039061e+001
1.7966471e+001
1.5929285e+001
1.3919473e+001
1.1858594e+001
9.7536478e+000
7.6415286e+000
5.5928507e+000
3.7417681e+000
2.1865280e+000
1.0411062e+000
3.2620308e-001
6.1216217e-002
3.3766702e-001
1.0875885e+000
2.0188689e+000
2.9509070e+000
3.7450202e+000
4.3130436e+000
4.8075609e+000
5.2868066e+000
5.7848210e+000
6.3113399e+000
6.7428150e+000
7.0047817e+000
7.1225667e+000
7.0293818e+000
6.8759108e+000
6.6404605e+000
6.3771119e+000
6.0730929e+000
5.7127585e+000
5.2758670e+000
4.7431207e+000
4.1274676e+000
3.5212348e+000
2.9564219e+000
2.5096486e+000
2.1957028e+000
2.0161834e+000
1.9736077e+000
2.0506694e+000
2.2181885e+000
2.4472871e+000
2.7011037e+000
2.9731722e+000
3.2602527e+000
3.5717466e+000
3.9043999e+000
4.2580204e+000
4.6228280e+000
4.9978237e+000
5.3667574e+000
5.7154202e+000
6.0157938e+000
6.2135496e+000
6.3108907e+000
6.2419453e+000
6.0591235e+000
5.7195654e+000
5.3160181e+000
4.8406887e+000
4.3484488e+000
3.8564970e+000
3.3950379e+000
2.9748178e+000
2.6062109e+000
2.2534223e+000
1.8611400e+000
1.4342507e+000
9.6958685e-001
5.3906953e-001
2.3408008e-001
3.7095852e-002
-2.5520364e-003
3.4134313e-002
1.4500049e-001
2.8399250e-001
4.5847118e-001
6.5337563e-001
8.8711476e-001
1.1298811e+000
1.3826171e+000
1.6227659e+000
1.8235989e+000
2.0186529e+000
2.2073407e+000
2.4192543e+000
2.6766071e+000
2.9683137e+000
3.3086393e+000
3.6652040e+000
4.0325699e+000
4.3755741e+000
4.6775784e+000
4.9219980e+000
5.1032228e+000
5.2234492e+000
5.2944298e+000
5.3200068e+000
5.3198977e+000
5.2969451e+000
5.2684426e+000
5.2399821e+000
5.2159724e+000
5.2014823e+000
5.1888881e+000
5.1763124e+000
5.1617303e+000
5.1401925e+000
5.1226492e+000
5.1145630e+000
5.1200929e+000
5.1554618e+000
5.2048130e+000
5.2792835e+000
5.3586731e+000
5.4432549e+000
5.5288377e+000
5.6147809e+000
5.7068019e+000
5.8064308e+000
5.9140372e+000
6.0279837e+000
6.1433988e+000
6.2556624e+000
6.3542581e+000
6.4393997e+000
6.4987278e+000
6.5437918e+000
6.5712285e+000
6.5828500e+000
6.5587955e+000
6.4984856e+000
6.3427320e+000
6.1414833e+000
5.8241711e+000
5.4756021e+000
5.0455341e+000
4.5955701e+000
4.0989561e+000
3.5996120e+000
3.0985742e+000
2.6218750e+000
2.1906281e+000
1.7964299e+000
1.4566640e+000
1.1470872e+000
8.7445140e-001
6.2427396e-001
3.9887565e-001
1.9526300e-001
1.6720563e-002
-1.2182222e-001
-2.2318554e-001
-2.6352289e-001
-2.6840883e-001
-2.3773751e-001
-1.9211337e-001
-1.3291284e-001
-5.3852096e-002
9.4423071e-002
2.7861801e-001
5.7064474e-001
8.7369019e-001
1.1921344e+000
1.4745891e+000
1.6425343e+000
1.7600491e+000
1.7530630e+000
1.7183869e+000
1.6278114e+000
1.5197914e+000
1.3811727e+000
1.2203034e+000
1.0295213e+000
8.2791221e-001
6.1728895e-001
4.1934717e-001
2.4071947e-001
1.1158548e-001
2.7161360e-002
7.7022202e-003
2.8253902e-002
9.6841514e-002
1.8949124e-001
3.1258315e-001
4.4674993e-001
5.9620273e-001
7.3849970e-001
8.2852399e-001
9.0271783e-001
9.1834968e-001
9.4067508e-001
9.9606675e-001
1.0678167e+000
1.1898928e+000
1.3036700e+000
1.3931611e+000
1.4470400e+000
1.4309908e+000
1.3986470e+000
1.3442571e+000
1.3102705e+000
1.3048040e+000
1.3277839e+000
1.3815954e+000
1.4602729e+000
1.5568454e+000
1.6457530e+000
1.7219337e+000
1.7387390e+000
1.7186643e+000
1.6247462e+000
1.5028319e+000
1.3544855e+000
1.2070477e+000
1.1099622e+000
1.0241252e+000
9.7459722e-001
9.2423570e-001
8.5728335e-001
7.9625201e-001
7.6154619e-001
7.3551273e-001
7.3623002e-001
7.2747976e-001
6.9462860e-001
6.4592153e-001
5.6534147e-001
4.6027932e-001
3.1912535e-001
1.7026280e-001
1.5909225e-002
-1.0820735e-001
-2.0454709e-001
-2.9269952e-001
-3.7549466e-001
-4.6245280e-001
-5.4979897e-001
-6.1707097e-001
-6.7532533e-001
-7.1737486e-001
-7.5430238e-001
-7.8286624e-001
-8.1004423e-001
-8.3842760e-001
-8.6721754e-001
-9.0027893e-001
-9.3465602e-001
-9.7813737e-001
-1.0243185e+000
-1.0816286e+000
-1.1303960e+000
-1.1522857e+000
-1.1599550e+000
-1.1352074e+000
-1.1058636e+000
-1.0670497e+000
-1.0124271e+000
-9.3614244e-001
-8.5446608e-001
-7.7014089e-001
-7.3232210e-001
-7.3213696e-001
-7.4406427e-001
-7.5929981e-001
-7.0402747e-001
-6.1629158e-001
-5.1643223e-001
-4.1608754e-001
-3.8284874e-001
-3.6396372e-001
-3.4190118e-001
-3.1702602e-001
-2.3243731e-001
-1.4466462e-001
-4.6873931e-002
5.5326894e-004
1.7678294e-002
6.6798382e-002
1.8657970e-001
3.2607746e-001
5.2282482e-001
6.9567072e-001
8.1669617e-001
8.9854598e-001
9.1784525e-001
9.2860138e-001
9.2891878e-001
9.1572583e-001
8.9023703e-001
8.8902515e-001
9.0523362e-001
9.5777684e-001
1.0291799e+000
1.0169295e+000
9.7328699e-001
8.6372870e-001
7.3801130e-001
6.8708950e-001
6.4851463e-001
6.3777000e-001
