##TITLE=Methyl Ethyl Ketone
##JCAMP-DX=4.24
##DATA TYPE=INFRARED SPECTRUM
##XUNITS=cm-1
##YUNITS=Absorbance
##FIRSTX=900
##LASTX=2300
##XYDATA=(X++(Y..Y))
2296 0.028809
2294 0.029408144
2292 0.030007286
2290 0.030606428
2288 0.03120557
2286 0.031805709
2284 0.032404855
2282 0.033003997
2280 0.033603143
2278 0.034202285
2276 0.034801427
2274 0.035404507
2272 0.036000766
2270 0.036589064
2268 0.037198782
2266 0.037838265
2264 0.038399201
2262 0.038848143
2260 0.039592635
2258 0.040750243
2256 0.040811144
2254 0.039331779
2252 0.041927297
2250 0.050269496
2248 0.043464553
2246 0.0098734964
2244 0.00032086598
2242 0.062900506
2240 0.16420417
2238 0.25172529
2236 0.28928941
2234 0.25378564
2232 0.15527679
2230 0.016076276
2228 -0.13031638
2226 -0.25176349
2224 -0.33415896
2222 -0.37448087
2220 -0.3929176
2218 -0.40845865
2216 -0.407736
2214 -0.36840126
2212 -0.27121741
2210 -0.11301818
2208 0.048625942
2206 0.1478145
2204 0.15971322
2202 0.087400988
2200 -0.0049625547
2198 -0.050248209
2196 -0.045156714
2194 -0.013099658
2192 -0.0038449955
2190 -0.059686095
2188 -0.16022216
2186 -0.26514664
2184 -0.33482918
2182 -0.34186018
2180 -0.30623227
2178 -0.26147234
2176 -0.23389687
2174 -0.24082595
2172 -0.27383697
2170 -0.31722748
2168 -0.35996965
2166 -0.39546579
2164 -0.42802703
2162 -0.46604872
2160 -0.519678
2158 -0.59646118
2156 -0.69133598
2154 -0.79321241
2152 -0.88410264
2150 -0.94607866
2148 -0.97087479
2146 -0.9567318
2144 -0.91459328
2142 -0.8620227
2140 -0.82585639
2138 -0.83112657
2136 -0.8825177
2134 -0.97110593
2132 -1.0623224
2130 -1.1178647
2128 -1.1211721
2126 -1.0710729
2124 -0.99627405
2122 -0.93243945
2120 -0.89942813
2118 -0.90578419
2116 -0.93868983
2114 -0.97868681
2112 -1.0108349
2110 -1.0247854
2108 -1.0211058
2106 -1.0048293
2104 -0.98183811
2102 -0.95703429
2100 -0.9303844
2098 -0.90095592
2096 -0.87199283
2094 -0.84835112
2092 -0.83462065
2090 -0.83313853
2088 -0.8376174
2086 -0.83930802
2084 -0.8333348
2082 -0.81842309
2080 -0.8015275
2078 -0.79301536
2076 -0.80420202
2074 -0.84274715
2072 -0.89990437
2070 -0.95870578
2068 -0.99557132
2066 -0.99130601
2064 -0.95544791
2062 -0.91013873
2060 -0.88060826
2058 -0.88692188
2056 -0.92436743
2054 -0.97687167
2052 -1.0242864
2050 -1.0491979
2048 -1.0508251
2046 -1.0375036
2044 -1.025352
2042 -1.0285389
2040 -1.0415485
2038 -1.0502362
2036 -1.0409328
2034 -1.0058312
2032 -0.95913428
2030 -0.92250621
2028 -0.90917712
2026 -0.9240157
2024 -0.95463526
2022 -0.98412085
2020 -1.0080913
2018 -1.0280676
2016 -1.04494
2014 -1.0571439
2012 -1.0554142
2010 -1.0318017
2008 -0.99871629
2006 -0.97610998
2004 -0.97532648
2002 -1.0008459
2000 -1.0473806
1998 -1.1045414
1996 -1.1596857
1994 -1.2000833
1992 -1.2155154
1990 -1.2004868
1988 -1.162472
1986 -1.1133928
1984 -1.0565594
1982 -0.99016964
1980 -0.9098416
1978 -0.81348741
1976 -0.71257657
1974 -0.62564856
1972 -0.57309794
1970 -0.57093459
1968 -0.61452776
1966 -0.68636978
1964 -0.75762808
1962 -0.80031598
1960 -0.81120521
1958 -0.80154377
1956 -0.78986388
1954 -0.79339445
1952 -0.81196409
1950 -0.83645999
1948 -0.85851753
1946 -0.87228251
1944 -0.87805694
1942 -0.87942106
1940 -0.88072079
1938 -0.88601744
1936 -0.89757258
1934 -0.91555905
1932 -0.93532157
1930 -0.94974905
1928 -0.95193166
1926 -0.93556029
1924 -0.89569038
1922 -0.83042037
1920 -0.74808818
1918 -0.66251767
1916 -0.58748287
1914 -0.53353983
1912 -0.49934739
1910 -0.47788
1908 -0.46561816
1906 -0.46215856
1904 -0.46984321
1902 -0.49116296
1900 -0.5235219
1898 -0.56023771
1896 -0.5896914
1894 -0.59985048
1892 -0.5880118
1890 -0.55791581
1888 -0.51727724
1886 -0.4735055
1884 -0.42482558
1882 -0.36540917
1880 -0.29572773
1878 -0.22226429
1876 -0.15959099
1874 -0.12448423
1872 -0.12426457
1870 -0.15735006
1868 -0.20933166
1866 -0.25943613
1864 -0.2899321
1862 -0.28876758
1860 -0.25799912
1858 -0.20887417
1856 -0.15677942
1854 -0.11743692
1852 -0.10062204
1850 -0.11127783
1848 -0.1498152
1846 -0.21254785
1844 -0.28820863
1842 -0.3603197
1840 -0.40884462
1838 -0.41513532
1836 -0.37454388
1834 -0.29399732
1832 -0.19195989
1830 -0.092270114
1828 -0.014394321
1826 0.029222697
1824 0.042010065
1822 0.037264451
1820 0.028481621
1818 0.025439069
1816 0.025580628
1814 0.019128069
1812 -0.00047735311
1810 -0.034917329
1808 -0.077530004
1806 -0.12011805
1804 -0.17091084
1802 -0.2467532
1800 -0.35111538
1798 -0.47162181
1796 -0.57088429
1794 -0.60206652
1792 -0.5465408
1790 -0.41383621
1788 -0.24560255
1786 -0.097683385
1784 -0.0021030102
1782 0.032758031
1780 0.020369444
1778 -0.013959091
1776 -0.049337856
1774 -0.071039617
1772 -0.070908047
1770 -0.047924053
1768 -0.015349732
1766 0.0084950142
1764 0.026205137
1762 0.045162335
1760 0.020196481
1758 -0.1143012
1756 -0.3339777
1754 -0.55484557
1752 -0.74347162
1750 -0.91081679
1748 -1.0582676
1746 -1.1760072
1744 -1.2643458
1742 -1.3317802
1740 -1.3813611
1738 -1.4071012
1736 -1.3865399
1734 -1.292642
1732 -1.1321034
1730 -0.93897247
1728 -0.74800557
1726 -0.58335704
1724 -0.43524119
1722 -0.26500919
1720 -0.018251717
1718 0.3623935
1716 0.90881038
1714 1.6142404
1712 2.3898275
1710 3.1105831
1708 3.7693541
1706 4.4759436
1704 5.4110775
1702 6.8084593
1700 8.9606018
1698 12.09713
1696 15.953285
1694 19.89406
1692 23.440088
1690 26.391943
1688 28.984388
1686 31.745821
1684 35.073296
1682 39.090302
1680 43.378639
1678 47.217026
1676 50.447456
1674 53.457813
1672 56.678909
1670 60.406086
1668 64.529099
1666 68.636902
1664 72.477455
1662 76.003723
1660 79.233536
1658 82.208183
1656 84.97348
1654 87.566025
1652 89.987144
1650 92.177773
1648 93.940941
1646 95.009789
1644 95.330933
1642 95.044922
1640 94.23381
1638 92.887817
1636 90.977013
1634 88.494774
1632 85.552773
1630 82.340233
1628 78.906624
1626 75.161392
1624 71.048042
1622 66.595421
1620 61.957291
1618 57.379349
1616 53.049713
1614 49.07481
1612 45.513645
1610 42.38327
1608 39.656685
1606 37.275578
1604 35.200462
1602 33.414936
1600 31.895006
1598 30.604303
1596 29.494499
1594 28.514326
1592 27.643827
1590 26.897905
1588 26.305397
1586 25.895721
1584 25.664778
1582 25.578711
1580 25.625652
1578 25.827272
1576 26.226143
1574 26.866806
1572 27.727646
1570 28.717354
1568 29.74592
1566 30.748085
1564 31.702652
1562 32.658154
1560 33.811863
1558 35.453419
1556 37.631557
1554 40.097511
1552 42.493347
1550 44.461121
1548 45.914429
1546 47.051929
1544 48.037071
1542 48.921677
1540 49.700981
1538 50.323082
1536 50.675686
1534 50.617996
1532 50.148895
1530 49.41975
1528 48.537983
1526 47.514851
1524 46.308952
1522 44.855995
1520 43.166943
1518 41.347408
1516 39.528156
1514 37.817471
1512 36.164722
1510 34.348999
1508 32.193165
1506 29.648685
1504 26.861275
1502 24.146959
1500 21.684654
1498 19.4405
1496 17.319714
1494 15.220884
1492 13.0981
1490 10.977097
1488 8.8960276
1486 6.8950071
1484 5.0498099
1482 3.465872
1480 2.1855521
1478 1.1791449
1476 0.48353586
1474 0.21541952
1472 0.38132766
1470 0.83003938
1468 1.4043674
1466 1.9933944
1464 2.5508926
1462 3.1000297
1460 3.6686368
1458 4.2651358
1456 4.8626399
1454 5.3955698
1452 5.8024821
1450 6.0445695
1448 6.1197953
1446 6.0664253
1444 5.919189
1442 5.6941562
1440 5.3917184
1438 4.9965143
1436 4.4883013
1434 3.8537507
1432 3.1275103
1430 2.4044988
1428 1.772706
1426 1.2865508
1424 0.96060938
1422 0.76671326
1420 0.68096983
1418 0.69987798
1416 0.82911944
1414 1.0781262
1412 1.440648
1410 1.8874087
1408 2.3868127
1406 2.9115722
1404 3.4366522
1402 3.9399724
1400 4.405488
1398 4.8257709
1396 5.1978712
1394 5.5214329
1392 5.7888246
1390 5.9815297
1388 6.0829434
1386 6.0834703
1384 5.9810491
1382 5.782125
1380 5.4943471
1378 5.1259985
1376 4.6938257
1374 4.2282724
1372 3.7694421
1370 3.3617544
1368 3.018199
1366 2.7018051
1364 2.3647785
1362 1.9665483
1360 1.5088663
1358 1.0537277
1356 0.66050786
1354 0.35997367
1352 0.15830076
1350 0.03426474
1348 -0.030841783
1346 -0.042474106
1344 -0.006215401
1342 0.067310542
1340 0.16585009
1338 0.27603897
1336 0.38249943
1334 0.46812543
1332 0.52233028
1330 0.5473091
1328 0.55690348
1326 0.57849675
1324 0.63669145
1322 0.74519211
1320 0.90778375
1318 1.1152424
1316 1.3526499
1314 1.600659
1312 1.838936
1310 2.0487199
1308 2.2182765
1306 2.3477521
1304 2.443444
1302 2.517118
1300 2.5786004
1298 2.631583
1296 2.6767144
1294 2.7117326
1292 2.7379885
1290 2.764262
1288 2.803108
1286 2.8694906
1284 2.972302
1282 3.1075253
1280 3.2645104
1278 3.4270115
1276 3.5856943
1274 3.7465951
1272 3.9230726
1270 4.1346574
1268 4.3926306
1266 4.6908116
1264 5.0196166
1262 5.3723764
1260 5.7526202
1258 6.181097
1256 6.6800141
1254 7.2654529
1252 7.942802
1250 8.6992006
1248 9.5090332
1246 10.331249
1244 11.125422
1242 11.857339
1240 12.501549
1238 13.047814
1236 13.490914
1234 13.825599
1232 14.04768
1230 14.149193
1228 14.121222
1226 13.953236
1224 13.643943
1222 13.209147
1220 12.671217
1218 12.05428
1216 11.382543
1214 10.678366
1212 9.9688053
1210 9.2910042
1208 8.6710443
1206 8.1015301
1204 7.5576921
1202 6.9961729
1200 6.3844838
1198 5.7238393
1196 5.0307784
1194 4.3372769
1192 3.6745458
1190 3.0625861
1188 2.5127971
1186 2.023632
1184 1.5940961
1182 1.2313708
1180 0.94781166
1178 0.76071501
1176 0.67388803
1174 0.65899897
1172 0.67752737
1170 0.6872192
1168 0.66081929
1166 0.60659033
1164 0.54324126
1162 0.49335408
1160 0.47420907
1158 0.4886356
1156 0.53276455
1154 0.59450829
1152 0.65402102
1150 0.67901039
1148 0.6418044
1146 0.53413928
1144 0.36892474
1142 0.19653103
1140 0.067327559
1138 0.010479705
1136 0.047634207
1134 0.1928138
1132 0.44323286
1130 0.76125634
1128 1.1083103
1126 1.464205
1124 1.818712
1122 2.1739817
1120 2.526572
1118 2.8528101
1116 3.1313071
1114 3.359448
1112 3.547308
1110 3.7255542
1108 3.9251981
1106 4.1655402
1104 4.4543362
1102 4.7780023
1100 5.1185546
1098 5.4615564
1096 5.802043
1094 6.1569538
1092 6.5438299
1090 6.9670682
1088 7.4157429
1086 7.8476911
1084 8.2231617
1082 8.5298882
1080 8.7734175
1078 8.9877329
1076 9.2007551
1074 9.4057999
1072 9.5869293
1070 9.7267208
1068 9.8149033
1066 9.8628387
1064 9.8848076
1062 9.8892412
1060 9.8813744
1058 9.8601913
1056 9.8170023
1054 9.7261209
1052 9.5652504
1050 9.3338423
1048 9.0424137
1046 8.7162714
1044 8.3743258
1042 8.0086946
1040 7.6158404
1038 7.2242193
1036 6.8649797
1034 6.5540123
1032 6.286005
1030 6.0056634
1028 5.6636968
1026 5.2639236
1024 4.8284726
1022 4.3939257
1020 3.9877076
1018 3.6001978
1016 3.2144198
1014 2.81988
1012 2.4152308
1010 2.0221426
1008 1.668828
1006 1.3852108
1004 1.1862675
1002 1.0393846
1000 0.9051308
998 0.75844812
996 0.58644927
994 0.40265641
992 0.22137792
990 0.039022565
988 -0.14664263
986 -0.31922889
984 -0.45577812
982 -0.52740383
980 -0.51512682
978 -0.43714985
976 -0.32036543
974 -0.18978325
972 -0.062592715
970 0.06839098
968 0.21386983
966 0.375853
964 0.54945511
962 0.71354485
960 0.844841
958 0.92634302
956 0.94345611
954 0.88482809
952 0.74725324
950 0.55341417
948 0.33700669
946 0.14780906
944 0.031119177
942 0.0018929318
940 0.061622515
938 0.1903404
936 0.35987574
934 0.53181911
932 0.66985971
930 0.75486481
928 0.77493399
926 0.7293092
924 0.62673938
922 0.50124466
920 0.39573291
918 0.36264917
916 0.43661401
914 0.575351
912 0.71769822
910 0.80398279
908 0.79793066
906 0.75271875
904 0.72745925
902 0.7168324
900 0.7033987
898 0.68546116
896 0.66529
