Image.
>Pix99999.
  .
5555
5555
2300
900
5555
2
1
0
701
5555
2.6168000e-002
2.6712222e-002
2.7256442e-002
2.7800664e-002
2.8344886e-002
2.8889107e-002
2.9434320e-002
2.9978549e-002
3.0522771e-002
3.1067980e-002
3.1611230e-002
3.2154452e-002
3.2700624e-002
3.3248805e-002
3.3789180e-002
3.4316685e-002
3.4877155e-002
3.5483234e-002
3.5968579e-002
3.6282584e-002
3.7048716e-002
3.8448401e-002
3.8171370e-002
3.5530370e-002
3.9121337e-002
5.4366216e-002
6.3558012e-002
4.2944353e-002
-2.9450562e-002
-1.6622749e-001
-3.4440100e-001
-5.3441292e-001
-7.2090113e-001
-8.9178735e-001
-1.0312884e+000
-1.1231200e+000
-1.1529268e+000
-1.1158460e+000
-1.0428660e+000
-9.6902668e-001
-9.0242684e-001
-8.3731538e-001
-7.4462301e-001
-5.9777951e-001
-4.0836489e-001
-2.0169821e-001
-1.1468508e-002
1.3141149e-001
2.1696292e-001
2.4326250e-001
2.1470644e-001
1.3999869e-001
3.7779290e-002
-7.2071917e-002
-1.7726587e-001
-2.7179921e-001
-3.6518082e-001
-4.6627161e-001
-5.6119412e-001
-6.2762570e-001
-6.3917315e-001
-5.7846081e-001
-4.6970972e-001
-3.5184771e-001
-2.6776743e-001
-2.5028351e-001
-2.8694585e-001
-3.4746021e-001
-3.9071995e-001
-3.8182154e-001
-3.2496101e-001
-2.3981558e-001
-1.5479538e-001
-9.6244998e-002
-7.1302712e-002
-7.9463214e-002
-1.1652803e-001
-1.7503761e-001
-2.3860745e-001
-2.8936082e-001
-3.1586599e-001
-3.1403360e-001
-2.9993227e-001
-2.9360947e-001
-3.0193201e-001
-3.2410392e-001
-3.4833211e-001
-3.6442944e-001
-3.8476366e-001
-4.2588681e-001
-4.8693028e-001
-5.5671471e-001
-6.0924435e-001
-6.2038720e-001
-5.9554273e-001
-5.5112278e-001
-5.0208443e-001
-4.5955071e-001
-4.2277119e-001
-3.8760990e-001
-3.5470715e-001
-3.2692006e-001
-3.0808708e-001
-3.0126718e-001
-3.0519584e-001
-3.1567451e-001
-3.2351518e-001
-3.1959492e-001
-3.0312884e-001
-2.7844831e-001
-2.5696442e-001
-2.5148022e-001
-2.6922920e-001
-3.1233767e-001
-3.7137893e-001
-4.3203264e-001
-4.7869855e-001
-4.9922410e-001
-4.9722400e-001
-4.8247710e-001
-4.6312830e-001
-4.4320023e-001
-4.1359136e-001
-3.6317116e-001
-2.9539108e-001
-2.2260821e-001
-1.6744399e-001
-1.5368329e-001
-1.9284257e-001
-2.8652561e-001
-4.1778713e-001
-5.6102109e-001
-6.8687707e-001
-7.6950270e-001
-8.0286527e-001
-7.8861940e-001
-7.2349805e-001
-6.0504669e-001
-4.4573498e-001
-2.7091104e-001
-1.3158999e-001
-7.9205126e-002
-1.1944795e-001
-2.3143312e-001
-3.7275213e-001
-4.9933344e-001
-5.9658414e-001
-6.6554332e-001
-7.1344042e-001
-7.4737334e-001
-7.6518142e-001
-7.6275355e-001
-7.4675930e-001
-7.3103422e-001
-7.3709661e-001
-7.8473145e-001
-8.7200361e-001
-9.8306358e-001
-1.0877448e+000
-1.1510432e+000
-1.1422257e+000
-1.0408510e+000
-8.5880101e-001
-6.3016182e-001
-4.1745338e-001
-2.8650728e-001
-2.6167181e-001
-3.3669275e-001
-4.6665919e-001
-5.9583449e-001
-6.9894087e-001
-7.7047455e-001
-8.1816989e-001
-8.5357964e-001
-8.8091642e-001
-8.9864254e-001
-8.9828545e-001
-8.7089688e-001
-8.1959432e-001
-7.5732428e-001
-7.1127743e-001
-7.0939815e-001
-7.5276840e-001
-8.2406420e-001
-8.9026034e-001
-9.1481906e-001
-8.7699711e-001
-7.7349365e-001
-6.3742346e-001
-5.1457244e-001
-4.2336786e-001
-3.6077902e-001
-3.0224052e-001
-2.2534490e-001
-1.6264960e-001
-1.6983314e-001
-2.6679522e-001
-4.3827218e-001
-6.1424565e-001
-7.0819700e-001
-6.8728858e-001
-5.6331998e-001
-3.9955530e-001
-2.8010690e-001
-2.6507965e-001
-3.8284799e-001
-5.9357852e-001
-8.2301521e-001
-1.0123289e+000
-1.1234214e+000
-1.1538401e+000
-1.1188360e+000
-1.0236534e+000
-8.7106121e-001
-6.8757069e-001
-5.1462966e-001
-3.9397326e-001
-3.5845089e-001
-4.0710065e-001
-5.1956910e-001
-6.7935574e-001
-8.7106508e-001
-1.0646733e+000
-1.2229850e+000
-1.3184760e+000
-1.3360643e+000
-1.2839363e+000
-1.1826929e+000
-1.0462193e+000
-8.8052636e-001
-6.8129987e-001
-4.4321108e-001
-1.8291837e-001
6.3334726e-002
2.3693138e-001
2.7887321e-001
1.8530497e-001
-5.4198429e-003
-2.3109359e-001
-4.2556006e-001
-5.5563229e-001
-6.1680287e-001
-6.3100737e-001
-6.2959003e-001
-6.1994022e-001
-5.9301955e-001
-5.4501379e-001
-4.8044002e-001
-4.1640687e-001
-3.6865354e-001
-3.1150928e-001
-2.0108093e-001
-4.2128481e-002
1.2255651e-001
2.4387741e-001
2.8475142e-001
2.6193291e-001
2.2873221e-001
2.3582366e-001
3.2308260e-001
5.1084030e-001
7.8928602e-001
1.0694618e+000
1.2203151e+000
1.1655343e+000
9.0062851e-001
5.4032457e-001
2.4953356e-001
6.0273197e-002
-8.5929081e-002
-1.7553256e-001
-1.3865447e-001
4.8000738e-002
3.4896660e-001
6.5602988e-001
8.2985711e-001
8.0713046e-001
6.1195934e-001
3.8245419e-001
3.0329263e-001
4.2182201e-001
6.5357983e-001
8.3036381e-001
7.7295822e-001
4.6965143e-001
5.6005426e-002
-2.7130949e-001
-3.0161101e-001
1.1420384e-001
1.0233179e+000
2.2366529e+000
3.4184415e+000
4.3697834e+000
5.0691319e+000
5.6999521e+000
6.5766878e+000
7.9646735e+000
1.0042459e+001
1.2865980e+001
1.6345341e+001
2.0125999e+001
2.3708839e+001
2.6857265e+001
2.9646704e+001
3.2466896e+001
3.5877434e+001
4.0218395e+001
4.5492615e+001
5.1126320e+001
5.6253212e+001
6.0715073e+001
6.5005692e+001
6.9564194e+001
7.4570885e+001
7.9715218e+001
8.4358604e+001
8.8140884e+001
9.1032402e+001
9.3138008e+001
9.4621826e+001
9.5643623e+001
9.6330032e+001
9.6718384e+001
9.6749596e+001
9.6260567e+001
9.5067505e+001
9.3267281e+001
9.1190948e+001
8.9027451e+001
8.6761513e+001
8.4232574e+001
8.1219124e+001
7.7691101e+001
7.3796982e+001
6.9634987e+001
6.5223274e+001
6.0570038e+001
5.5708439e+001
5.0770935e+001
4.5970818e+001
4.1471600e+001
3.7370445e+001
3.3743324e+001
3.0642109e+001
2.8048227e+001
2.5880842e+001
2.4066031e+001
2.2554615e+001
2.1332424e+001
2.0413910e+001
1.9805500e+001
1.9495237e+001
1.9446304e+001
1.9603937e+001
1.9930668e+001
2.0413984e+001
2.1063148e+001
2.1915300e+001
2.3057358e+001
2.4609909e+001
2.6636972e+001
2.9115088e+001
3.1901009e+001
3.4762222e+001
3.7550720e+001
4.0231728e+001
4.2816761e+001
4.5370159e+001
4.8102337e+001
5.1269886e+001
5.4619675e+001
5.7398731e+001
5.9123142e+001
5.9773788e+001
5.9670536e+001
5.9333965e+001
5.8961582e+001
5.8333557e+001
5.7118980e+001
5.5034920e+001
5.2193542e+001
4.9115261e+001
4.6235153e+001
4.3763733e+001
4.1719311e+001
3.9950802e+001
3.8264187e+001
3.6471298e+001
3.4455147e+001
3.2204708e+001
2.9851042e+001
2.7631712e+001
2.5621801e+001
2.3674383e+001
2.1596729e+001
1.9239365e+001
1.6677937e+001
1.4220294e+001
1.2067517e+001
1.0222762e+001
8.6079140e+000
7.1103230e+000
5.6855536e+000
4.3735404e+000
3.1896925e+000
2.1059577e+000
1.1324228e+000
3.3940080e-001
-1.8518674e-001
-3.4497648e-001
-2.7969152e-002
8.5908341e-001
2.2172320e+000
3.7284832e+000
5.1451635e+000
6.3878336e+000
7.5010576e+000
8.6342983e+000
9.9087334e+000
1.1350389e+001
1.2815200e+001
1.3986344e+001
1.4632952e+001
1.4705553e+001
1.4292628e+001
1.3602357e+001
1.2817248e+001
1.2042790e+001
1.1331268e+001
1.0675939e+001
1.0018386e+001
9.2615118e+000
8.3743496e+000
7.4321675e+000
6.5496001e+000
5.8537860e+000
5.4183812e+000
5.2344089e+000
5.2520938e+000
5.3914585e+000
5.5742946e+000
5.7421660e+000
5.8836160e+000
6.0453739e+000
6.2741995e+000
6.5926099e+000
6.9866714e+000
7.3967800e+000
7.7493401e+000
7.9689293e+000
8.0005646e+000
7.8261399e+000
7.4688735e+000
6.9996195e+000
6.4904957e+000
5.9971051e+000
5.5565157e+000
5.1816344e+000
4.8687234e+000
4.5945907e+000
4.3185487e+000
3.9848065e+000
3.5617321e+000
3.0617344e+000
2.5170531e+000
1.9718751e+000
1.4516848e+000
9.5269537e-001
4.8536074e-001
9.2556305e-002
-1.7600045e-001
-2.7339479e-001
-1.6762744e-001
1.4711222e-001
6.4983416e-001
1.2881964e+000
2.0147519e+000
2.7961988e+000
3.5733483e+000
4.2406015e+000
4.6868143e+000
4.8219304e+000
4.6380477e+000
4.2516518e+000
3.7902143e+000
3.3488836e+000
2.9882002e+000
2.7217691e+000
2.5448091e+000
2.4377081e+000
2.3676801e+000
2.2880154e+000
2.1629388e+000
1.9832822e+000
1.7605015e+000
1.5303428e+000
1.3285526e+000
1.1810250e+000
1.1092317e+000
1.1300925e+000
1.2567428e+000
1.4962821e+000
1.8476537e+000
2.2971101e+000
2.8221641e+000
3.3898108e+000
3.9636338e+000
4.5067673e+000
4.9880362e+000
5.3883343e+000
5.7005901e+000
5.9355407e+000
6.1161594e+000
6.2801027e+000
6.4670796e+000
6.7127395e+000
7.0395150e+000
7.4472952e+000
7.9310579e+000
8.4875937e+000
9.1234121e+000
9.8615828e+000
1.0719316e+001
1.1694523e+001
1.2767102e+001
1.3889250e+001
1.5003960e+001
1.6052492e+001
1.6978519e+001
1.7741236e+001
1.8297800e+001
1.8606936e+001
1.8619240e+001
1.8277792e+001
1.7558176e+001
1.6508999e+001
1.5216360e+001
1.3808343e+001
1.2409348e+001
1.1110750e+001
9.9886513e+000
9.1009388e+000
8.4902897e+000
8.1759024e+000
8.1405535e+000
8.3025103e+000
8.5501137e+000
8.7431450e+000
8.7575436e+000
8.5215149e+000
8.0115213e+000
7.2814026e+000
6.4142675e+000
5.5146537e+000
4.6763544e+000
3.9568107e+000
3.3877172e+000
2.9630222e+000
2.6615977e+000
2.4496074e+000
2.2945602e+000
2.1736691e+000
2.0739131e+000
1.9979880e+000
1.9507508e+000
1.9327629e+000
1.9347957e+000
1.9291580e+000
1.8876920e+000
1.7926835e+000
1.6362529e+000
1.4278107e+000
1.1802446e+000
9.0593338e-001
6.2262881e-001
3.6029071e-001
1.5200981e-001
2.8628139e-002
-1.8165726e-003
1.7661830e-002
4.1859142e-002
4.9830690e-002
3.2757431e-002
-3.0005835e-003
-4.6957787e-002
-8.8119477e-002
-1.2156037e-001
-1.5659398e-001
-1.9934839e-001
-2.4017523e-001
-2.6899242e-001
-2.8406048e-001
-2.8748465e-001
-2.8564632e-001
-2.8222832e-001
-2.7170050e-001
-2.4697155e-001
-2.0163286e-001
-1.2138432e-001
2.7425662e-002
2.7172428e-001
6.0823643e-001
1.0148602e+000
1.4407908e+000
1.8400062e+000
2.1969130e+000
2.5065646e+000
2.7710922e+000
2.9896719e+000
3.1486149e+000
3.2336285e+000
3.2383850e+000
3.1659126e+000
3.0402572e+000
2.8909628e+000
2.7488873e+000
2.6380560e+000
2.5634525e+000
2.5203028e+000
2.4909739e+000
2.4568543e+000
2.4049065e+000
2.3318198e+000
2.2557800e+000
2.1965828e+000
2.1626678e+000
2.1563060e+000
2.1715894e+000
2.2082188e+000
2.2872596e+000
2.4240901e+000
2.6009710e+000
2.7852840e+000
2.9259875e+000
2.9813502e+000
2.9515350e+000
2.8472891e+000
2.6821101e+000
2.4673548e+000
2.2074099e+000
1.9088914e+000
1.5904094e+000
1.2677300e+000
9.3797195e-001
5.9413397e-001
2.3104309e-001
-1.3843784e-001
-4.4782090e-001
-6.3408202e-001
-6.8766326e-001
-6.3487285e-001
-5.7241881e-001
-5.8791423e-001
-6.8405873e-001
-8.3181262e-001
-9.6831256e-001
-1.0419275e+000
-1.0644727e+000
-1.0597939e+000
-1.0388851e+000
-1.0022982e+000
-9.2538339e-001
-7.8647488e-001
-5.9494871e-001
-3.7597892e-001
-1.8168205e-001
-5.9164792e-002
-1.5299166e-002
-3.5253275e-002
-6.4414650e-002
-5.3770587e-002
-7.9793222e-003
5.0859001e-002
8.6606905e-002
7.2705150e-002
2.9370453e-002
8.2123950e-003
1.2982243e-001
4.8062497e-001
9.6291530e-001
1.4476571e+000
1.8588642e+000
2.1532512e+000
2.3599658e+000
2.5227492e+000
2.6736951e+000
2.8369122e+000
3.0174675e+000
3.2089298e+000
3.3787353e+000
3.4945171e+000
3.5510387e+000
3.5620098e+000
3.5897760e+000
3.6875999e+000
3.8273058e+000
3.9533727e+000
3.9828827e+000
3.8621805e+000
3.6807330e+000
3.5639000e+000
