Image.
>Pix99999.
  .
5555
5555
2300
900
5555
2
1
0
701
5555
8.1313001e-003
8.3005577e-003
8.4697157e-003
8.6388737e-003
8.8080326e-003
8.9771906e-003
9.1463476e-003
9.3155056e-003
9.4846636e-003
9.6538216e-003
9.8229805e-003
9.9921385e-003
1.0161100e-002
1.0330843e-002
1.0499620e-002
1.0668379e-002
1.0838115e-002
1.1006895e-002
1.1176628e-002
1.1345414e-002
1.1514171e-002
1.1683900e-002
1.1852689e-002
1.2022414e-002
1.2191205e-002
1.2359964e-002
4.5930856e-004
7.5125066e-003
4.7992123e-003
2.0121362e-002
3.8238671e-002
5.1730998e-002
6.4604521e-002
7.1199812e-002
7.5494908e-002
6.4195447e-002
4.7229987e-002
8.2763806e-003
-3.1856257e-002
-7.1824543e-002
-1.0484394e-001
-1.2271429e-001
-1.3331680e-001
-1.3356397e-001
-1.3487074e-001
-1.3830985e-001
-1.4822854e-001
-1.6432080e-001
-1.8812890e-001
-2.1743031e-001
-2.6022786e-001
-3.1056082e-001
-3.6332360e-001
-4.1690338e-001
-4.4183579e-001
-4.5743829e-001
-4.2653960e-001
-3.8508734e-001
-3.2809886e-001
-2.6942515e-001
-2.5511685e-001
-2.4870808e-001
-2.8553036e-001
-3.2568738e-001
-3.6130896e-001
-3.8883236e-001
-3.8834926e-001
-3.8378081e-001
-3.7591755e-001
-3.7916741e-001
-4.0420702e-001
-4.3370843e-001
-4.6640751e-001
-4.8991880e-001
-5.0269628e-001
-5.1993895e-001
-5.4209542e-001
-5.8471680e-001
-6.4115494e-001
-7.0645422e-001
-7.7583367e-001
-8.1306332e-001
-8.3674550e-001
-8.0879444e-001
-7.6481599e-001
-7.0959133e-001
-6.5195853e-001
-6.2686282e-001
-6.0935968e-001
-6.3756800e-001
-6.7674255e-001
-7.4970388e-001
-8.2571244e-001
-8.9402139e-001
-9.4950080e-001
-9.6958923e-001
-9.7866815e-001
-9.7477651e-001
-9.7766799e-001
-9.9504650e-001
-1.0181158e+000
-1.0455456e+000
-1.0648917e+000
-1.0752610e+000
-1.0808570e+000
-1.0838950e+000
-1.0949920e+000
-1.1118097e+000
-1.1453686e+000
-1.1871355e+000
-1.2368699e+000
-1.2894115e+000
-1.3146839e+000
-1.3308978e+000
-1.3134760e+000
-1.2879550e+000
-1.2847846e+000
-1.2883315e+000
-1.3223403e+000
-1.3600590e+000
-1.3851258e+000
-1.4071971e+000
-1.4256977e+000
-1.4550947e+000
-1.5124577e+000
-1.5761714e+000
-1.6405720e+000
-1.6699630e+000
-1.6479149e+000
-1.5901390e+000
-1.5029972e+000
-1.4449133e+000
-1.4198395e+000
-1.4477091e+000
-1.5114574e+000
-1.5792822e+000
-1.6450742e+000
-1.6746095e+000
-1.6848820e+000
-1.6582699e+000
-1.6180999e+000
-1.5599692e+000
-1.4975786e+000
-1.4569705e+000
-1.4253360e+000
-1.4335885e+000
-1.4566317e+000
-1.5077569e+000
-1.5698377e+000
-1.6427867e+000
-1.7120929e+000
-1.7585989e+000
-1.7777337e+000
-1.7536407e+000
-1.7078800e+000
-1.6499186e+000
-1.5993526e+000
-1.5629463e+000
-1.5380785e+000
-1.5196296e+000
-1.5075228e+000
-1.4983240e+000
-1.4968380e+000
-1.4995316e+000
-1.5122452e+000
-1.5311093e+000
-1.5611268e+000
-1.5983912e+000
-1.6179360e+000
-1.6299994e+000
-1.6150829e+000
-1.5919430e+000
-1.5798131e+000
-1.5755167e+000
-1.5856206e+000
-1.5964750e+000
-1.5914142e+000
-1.5695490e+000
-1.5278022e+000
-1.4841678e+000
-1.4565115e+000
-1.4490689e+000
-1.4649280e+000
-1.5004644e+000
-1.5486680e+000
-1.5955014e+000
-1.6309237e+000
-1.6183670e+000
-1.5613285e+000
-1.4776460e+000
-1.3874643e+000
-1.3399223e+000
-1.3252765e+000
-1.3338643e+000
-1.3510838e+000
-1.3579036e+000
-1.3595361e+000
-1.3416482e+000
-1.3171451e+000
-1.2630628e+000
-1.1987286e+000
-1.1348772e+000
-1.0750948e+000
-1.0519099e+000
-1.0453320e+000
-1.0626514e+000
-1.0872960e+000
-1.1100056e+000
-1.1377560e+000
-1.1729335e+000
-1.2198000e+000
-1.2702382e+000
-1.3073601e+000
-1.3148824e+000
-1.2847012e+000
-1.2345935e+000
-1.1849114e+000
-1.1557480e+000
-1.1411749e+000
-1.1291169e+000
-1.1229000e+000
-1.1142044e+000
-1.1444331e+000
-1.1948528e+000
-1.2796440e+000
-1.3754821e+000
-1.4144706e+000
-1.4151187e+000
-1.3315418e+000
-1.2143523e+000
-1.1055628e+000
-1.0160409e+000
-9.6583718e-001
-9.2918873e-001
-8.9063388e-001
-8.3109653e-001
-7.4839699e-001
-6.6480350e-001
-5.9741420e-001
-5.6644070e-001
-5.7115716e-001
-6.1131060e-001
-6.7631328e-001
-7.2773409e-001
-7.5648034e-001
-7.3780799e-001
-6.7815053e-001
-6.4578724e-001
-6.4179891e-001
-7.0221579e-001
-8.0716568e-001
-8.4336877e-001
-8.3382362e-001
-7.0839554e-001
-5.2389097e-001
-3.6436641e-001
-2.3165286e-001
-1.5705147e-001
-1.2285046e-001
-1.1365760e-001
-1.1765200e-001
-1.1818740e-001
-1.0381523e-001
-8.6350374e-002
-6.0483530e-002
-3.8331106e-002
-1.9998880e-002
1.6063513e-002
1.2885056e-002
-5.3788800e-002
-1.4376372e-001
-2.3064162e-001
-3.1279802e-001
-3.8095611e-001
-4.4129419e-001
-5.0451428e-001
-5.6745893e-001
-6.4592379e-001
-7.0628816e-001
-7.4315858e-001
-6.6855800e-001
-4.9984440e-001
-2.7351016e-001
-2.4184667e-002
7.7151395e-002
6.1708689e-002
1.0971848e-002
-4.9234681e-002
4.0436313e-003
1.7961729e-001
5.5365944e-001
1.0720503e+000
1.6033572e+000
2.1184168e+000
2.6162760e+000
3.2172387e+000
4.0612850e+000
5.4009786e+000
7.3601599e+000
1.0246345e+001
1.4042429e+001
1.8045380e+001
2.1908375e+001
2.5403185e+001
2.8563320e+001
3.2232986e+001
3.6502193e+001
4.1583282e+001
4.7293278e+001
5.2236271e+001
5.6455517e+001
6.0434608e+001
6.4327980e+001
6.8951691e+001
7.4138290e+001
7.9362045e+001
8.4485962e+001
8.9107979e+001
9.3248955e+001
9.6942810e+001
1.0017971e+002
1.0297606e+002
1.0494380e+002
1.0565231e+002
1.0492263e+002
1.0265214e+002
9.9689354e+001
9.6793839e+001
9.3736267e+001
9.0438774e+001
8.6440071e+001
8.1622238e+001
7.6687073e+001
7.1880669e+001
6.7379333e+001
6.3195412e+001
5.8918602e+001
5.4502323e+001
5.0228443e+001
4.6116180e+001
4.2311371e+001
3.8824745e+001
3.5749241e+001
3.3089550e+001
3.0821199e+001
2.8930435e+001
2.7300772e+001
2.5955114e+001
2.4888481e+001
2.4102510e+001
2.3560001e+001
2.3237858e+001
2.3069244e+001
2.3034924e+001
2.3093924e+001
2.3233715e+001
2.3442451e+001
2.3694340e+001
2.3978525e+001
2.4334217e+001
2.4772800e+001
2.5371887e+001
2.6133974e+001
2.7038353e+001
2.8071239e+001
2.9148436e+001
3.0268400e+001
3.1580891e+001
3.3181644e+001
3.5674297e+001
3.9148472e+001
4.3012352e+001
4.7015011e+001
5.0108902e+001
5.2288864e+001
5.4064857e+001
5.5446125e+001
5.6576199e+001
5.7378620e+001
5.7701916e+001
5.7496826e+001
5.6795830e+001
5.5681328e+001
5.4366173e+001
5.2853725e+001
5.1154953e+001
4.9225433e+001
4.7014278e+001
4.4646965e+001
4.2126411e+001
3.9748158e+001
3.7631470e+001
3.5573120e+001
3.3583630e+001
3.1131283e+001
2.8078251e+001
2.5015451e+001
2.1981010e+001
1.9421181e+001
1.7383650e+001
1.5365143e+001
1.3361327e+001
1.1302446e+001
9.2111645e+000
7.1447406e+000
5.1830406e+000
3.4614501e+000
2.0402198e+000
9.9362141e-001
3.3116984e-001
6.2293127e-002
3.1871501e-001
1.0511169e+000
2.0023870e+000
3.0077209e+000
3.8665195e+000
4.4749188e+000
4.9731855e+000
5.4126983e+000
5.8715625e+000
6.3655400e+000
6.7956567e+000
7.0869460e+000
7.2472639e+000
7.2083116e+000
7.1118145e+000
6.9379587e+000
6.7291350e+000
6.4745193e+000
6.1538281e+000
5.7481327e+000
5.2160215e+000
4.5736451e+000
3.9292314e+000
3.3187342e+000
2.8569307e+000
2.5522485e+000
2.3980882e+000
2.3902912e+000
2.4850016e+000
2.6503229e+000
2.8448091e+000
3.0331185e+000
3.2257547e+000
3.4302170e+000
3.6689506e+000
3.9444635e+000
4.2558341e+000
4.5909920e+000
4.9498963e+000
5.3220930e+000
5.7022800e+000
6.0541725e+000
6.3186679e+000
6.4699416e+000
6.4267049e+000
6.2361660e+000
5.8414693e+000
5.3556342e+000
4.7740221e+000
4.1836286e+000
3.6237741e+000
3.1406960e+000
2.7449226e+000
2.4283588e+000
2.1362801e+000
1.7948526e+000
1.4103360e+000
9.7288227e-001
5.5774522e-001
2.5374877e-001
4.7803454e-002
1.3694743e-003
3.9870933e-002
1.6855358e-001
3.1988749e-001
4.9363241e-001
6.6703701e-001
8.4044588e-001
1.0239397e+000
1.2197057e+000
1.4340626e+000
1.6447097e+000
1.8595171e+000
2.0767851e+000
2.2978036e+000
2.5409045e+000
2.7872446e+000
3.0532622e+000
3.3283305e+000
3.6192200e+000
3.9168024e+000
4.2031093e+000
4.4638057e+000
4.6782589e+000
4.8389182e+000
4.9481320e+000
4.9976230e+000
5.0092854e+000
4.9749074e+000
4.9228430e+000
4.8519187e+000
4.7791777e+000
4.7077560e+000
4.6444120e+000
4.5986605e+000
4.5627618e+000
4.5441647e+000
4.5273323e+000
4.5125976e+000
4.4994059e+000
4.4967670e+000
4.5090966e+000
4.5551429e+000
4.6295767e+000
4.7432194e+000
4.8793373e+000
5.0364242e+000
5.1967320e+000
5.3562341e+000
5.5020399e+000
5.6327276e+000
5.7477255e+000
5.8542681e+000
5.9672689e+000
6.0845003e+000
6.1988111e+000
6.3009653e+000
6.3615909e+000
6.3962011e+000
6.3842030e+000
6.3409119e+000
6.2264719e+000
6.0641041e+000
5.7703981e+000
5.4297523e+000
4.9648514e+000
4.4803433e+000
3.9506381e+000
3.4314392e+000
2.9357743e+000
2.4677460e+000
2.0516005e+000
1.6763455e+000
1.3632097e+000
1.0949200e+000
8.8026857e-001
6.9501597e-001
5.3847802e-001
3.9340502e-001
2.5910145e-001
1.3347325e-001
2.0250186e-002
-6.1634973e-002
-1.1813646e-001
-1.2717357e-001
-1.1015666e-001
-5.0223906e-002
3.6186099e-002
1.9302772e-001
3.8373801e-001
6.7414886e-001
9.8017764e-001
1.3203511e+000
1.6319811e+000
1.8498492e+000
2.0135276e+000
2.0432661e+000
2.0399978e+000
1.9716402e+000
1.8890486e+000
1.7803166e+000
1.6428378e+000
1.4635620e+000
1.2504060e+000
1.0003446e+000
7.3831129e-001
4.7293222e-001
2.4622679e-001
6.0959116e-002
-3.9053142e-002
-7.7822030e-002
-1.4585584e-002
1.0184558e-001
2.9406890e-001
5.0795591e-001
7.2870779e-001
9.3743479e-001
1.0757360e+000
1.1973243e+000
1.2642757e+000
1.3354347e+000
1.4286194e+000
1.5295836e+000
1.6533598e+000
1.7618799e+000
1.8284469e+000
1.8563315e+000
1.8080803e+000
1.7416227e+000
1.6521429e+000
1.5961089e+000
1.5861341e+000
1.6210669e+000
1.6996845e+000
1.7856722e+000
1.8716800e+000
1.9170229e+000
1.9305537e+000
1.8844620e+000
1.8094072e+000
1.7161112e+000
1.6177233e+000
1.5283753e+000
1.4375172e+000
1.3242536e+000
1.2074640e+000
1.0875458e+000
9.7844636e-001
9.4005913e-001
9.1952801e-001
9.7688919e-001
1.0385797e+000
1.1120850e+000
1.1572680e+000
1.1309251e+000
1.0622305e+000
9.1496158e-001
7.6557744e-001
6.1684841e-001
5.1065201e-001
4.5499605e-001
4.2304748e-001
4.0864757e-001
3.5270151e-001
2.6517987e-001
1.4106292e-001
2.0902604e-003
-8.9636758e-002
-1.5996596e-001
-1.9089429e-001
-2.1312429e-001
-2.5637025e-001
-3.0364704e-001
-3.5810080e-001
-4.1389573e-001
-4.7985232e-001
-5.4717195e-001
-6.2333739e-001
-6.9277662e-001
-7.3234212e-001
-7.6273096e-001
-7.6522994e-001
-7.6180279e-001
-7.4483234e-001
-7.2208101e-001
-6.8700695e-001
-6.2934047e-001
-5.3868502e-001
-4.1074896e-001
-2.4607770e-001
-1.0269991e-001
1.9471880e-002
6.6290893e-002
6.6492885e-002
3.5626836e-002
-8.9909881e-003
-5.2017093e-002
-9.4827592e-002
-1.3275363e-001
-1.6801314e-001
-1.5783620e-001
-1.4117168e-001
-9.6997023e-002
-5.2420024e-002
-1.7277107e-002
7.9450198e-004
2.5581270e-002
1.0182287e-001
2.7183029e-001
4.3722028e-001
5.8853525e-001
6.9900584e-001
7.2213000e-001
7.2849733e-001
7.0942652e-001
7.4367917e-001
8.4345227e-001
9.6763456e-001
1.1129895e+000
1.1878557e+000
1.2126353e+000
1.2308841e+000
1.2475740e+000
1.3250846e+000
1.4277058e+000
1.4703640e+000
1.4986266e+000
1.4348768e+000
1.3569220e+000
1.3024000e+000
