Image.
>Pix99999.
  .
5555
5555
2300
900
5555
2
1
0
701
5555
4.5786001e-002
4.6738636e-002
4.7691274e-002
4.8643909e-002
4.9596548e-002
5.0549187e-002
5.1501822e-002
5.2454460e-002
5.3406108e-002
5.4358732e-002
5.5311374e-002
5.6264009e-002
5.7216644e-002
5.8169283e-002
5.9121918e-002
6.0074557e-002
6.1026219e-002
6.1978832e-002
6.2931463e-002
6.3884109e-002
6.4836748e-002
6.5789379e-002
6.6742018e-002
6.7694657e-002
6.8646327e-002
6.9598928e-002
5.4104041e-002
2.0637643e-003
-5.0774399e-002
-1.2040219e-001
-1.9251186e-001
-2.7052844e-001
-3.4723186e-001
-3.8488087e-001
-4.1314340e-001
-3.8135451e-001
-3.4297618e-001
-2.8840464e-001
-2.3809917e-001
-2.0344426e-001
-1.8045886e-001
-1.8103462e-001
-1.9177200e-001
-2.1681531e-001
-2.4144498e-001
-2.6446465e-001
-2.8364471e-001
-2.9921868e-001
-3.0595034e-001
-3.0624908e-001
-2.9047287e-001
-2.6569203e-001
-2.1925761e-001
-1.6360573e-001
-9.6800737e-002
-2.6568979e-002
8.6808000e-003
3.5839461e-002
1.4972034e-002
-1.2964278e-002
-3.7916802e-002
-6.0797762e-002
-6.3518256e-002
-6.4519115e-002
-6.6637114e-002
-6.9315687e-002
-7.3660113e-002
-8.0616750e-002
-9.3831532e-002
-1.1627333e-001
-1.5498501e-001
-1.9735408e-001
-2.4258074e-001
-2.7980232e-001
-3.0768207e-001
-3.2092285e-001
-3.2208976e-001
-3.0759078e-001
-2.8307921e-001
-2.5312778e-001
-2.2076143e-001
-1.8532836e-001
-1.4868203e-001
-1.1128117e-001
-7.3666319e-002
-5.6272049e-002
-4.3598887e-002
-5.2824143e-002
-6.5199889e-002
-7.2046891e-002
-7.7139281e-002
-7.4992999e-002
-7.7121913e-002
-1.0277814e-001
-1.3782437e-001
-1.9084394e-001
-2.3842070e-001
-2.6815057e-001
-2.8937659e-001
-3.0078852e-001
-3.1347144e-001
-3.2975167e-001
-3.4145755e-001
-3.4787568e-001
-3.4398457e-001
-3.3213550e-001
-3.0379096e-001
-2.6527053e-001
-2.2777708e-001
-1.9155440e-001
-1.8702573e-001
-1.9561063e-001
-2.1986160e-001
-2.4874176e-001
-2.7717787e-001
-3.0538222e-001
-3.2850775e-001
-3.4887880e-001
-3.5009325e-001
-3.4807470e-001
-3.4897628e-001
-3.5629380e-001
-3.8483691e-001
-4.1367120e-001
-4.3275312e-001
-4.3281820e-001
-3.9978001e-001
-3.5859287e-001
-3.1453007e-001
-2.9493183e-001
-3.0516687e-001
-3.3688951e-001
-3.8418069e-001
-4.2154261e-001
-4.4911286e-001
-4.5053050e-001
-4.3636155e-001
-4.0711525e-001
-3.7130710e-001
-3.5111889e-001
-3.3774200e-001
-3.5788742e-001
-3.8890335e-001
-4.3910429e-001
-4.9331087e-001
-5.3429902e-001
-5.6920642e-001
-5.8560878e-001
-5.9622383e-001
-6.0301483e-001
-6.0226429e-001
-5.8216774e-001
-5.4906899e-001
-4.9672136e-001
-4.5513600e-001
-4.3954137e-001
-4.5226789e-001
-4.9587977e-001
-5.3706998e-001
-5.6799507e-001
-5.8084029e-001
-5.7926041e-001
-5.8385593e-001
-5.9559953e-001
-6.0035753e-001
-5.9981000e-001
-5.7795978e-001
-5.4504639e-001
-5.2650160e-001
-5.1478195e-001
-5.1751113e-001
-5.2488762e-001
-5.2404737e-001
-5.2050740e-001
-5.2052420e-001
-5.2347499e-001
-5.3545380e-001
-5.5155265e-001
-5.6913304e-001
-5.8589143e-001
-5.9857827e-001
-6.0520494e-001
-6.0318220e-001
-5.9950888e-001
-5.9831774e-001
-6.0392648e-001
-6.1820585e-001
-6.3531578e-001
-6.5242553e-001
-6.5565223e-001
-6.4524871e-001
-6.1320871e-001
-5.6707531e-001
-5.2578950e-001
-4.8969206e-001
-4.7005084e-001
-4.5878801e-001
-4.5389956e-001
-4.5121956e-001
-4.6410435e-001
-4.8407713e-001
-5.2051008e-001
-5.6180936e-001
-5.9115380e-001
-6.0839462e-001
-5.9166217e-001
-5.6321764e-001
-5.3726834e-001
-5.2323312e-001
-5.3568202e-001
-5.5831903e-001
-5.8463937e-001
-5.9786212e-001
-5.9062654e-001
-5.6516987e-001
-5.2264833e-001
-4.8444068e-001
-4.5396450e-001
-4.3840039e-001
-4.3524823e-001
-4.4461229e-001
-4.6239990e-001
-4.8119506e-001
-5.0045735e-001
-5.2093524e-001
-5.4310501e-001
-5.8134478e-001
-6.2852782e-001
-6.7624992e-001
-7.2240841e-001
-7.5934970e-001
-7.8918809e-001
-8.0990899e-001
-8.2374918e-001
-8.2576632e-001
-8.1797749e-001
-7.9313982e-001
-7.6063114e-001
-7.2705078e-001
-7.0036215e-001
-6.8859714e-001
-6.8590397e-001
-6.8949568e-001
-6.8574655e-001
-6.6986901e-001
-6.3349402e-001
-5.7916868e-001
-5.2510631e-001
-4.7654748e-001
-4.5447668e-001
-4.5299500e-001
-4.5472440e-001
-4.5498678e-001
-4.1363660e-001
-3.4463322e-001
-2.7371949e-001
-2.0406571e-001
-1.6334258e-001
-1.3638271e-001
-9.9057280e-002
-5.8461655e-002
-2.7899506e-002
-1.3684923e-002
-2.9289376e-002
-5.0348897e-002
-4.6469916e-002
-1.1388886e-002
5.9902798e-002
3.5561688e-002
-5.7314996e-002
-1.6144657e-001
-2.8233156e-001
-4.0045744e-001
-5.0936580e-001
-5.8990985e-001
-6.4212394e-001
-6.7016858e-001
-6.7989475e-001
-6.8143624e-001
-6.7999917e-001
-6.7151201e-001
-6.5952033e-001
-6.1223024e-001
-5.3910285e-001
-4.4806409e-001
-3.4442529e-001
-2.4795085e-001
-1.4358033e-001
2.9959574e-002
3.2979244e-001
9.0146196e-001
1.6694555e+000
2.5777137e+000
3.5588419e+000
4.5304399e+000
5.6279297e+000
6.9692116e+000
8.8172436e+000
1.1310752e+001
1.4613737e+001
1.8698143e+001
2.2778040e+001
2.6505209e+001
2.9768593e+001
3.2628067e+001
3.5960434e+001
3.9870811e+001
4.4680367e+001
5.0221840e+001
5.5247292e+001
5.9759571e+001
6.4123123e+001
6.8437019e+001
7.3304718e+001
7.8527946e+001
8.3366043e+001
8.7746742e+001
9.1330521e+001
9.4197792e+001
9.6463875e+001
9.8152687e+001
9.9306046e+001
9.9846275e+001
9.9723412e+001
9.8957504e+001
9.7646675e+001
9.6070953e+001
9.4472099e+001
9.2682648e+001
9.0626381e+001
8.7909882e+001
8.4455383e+001
8.0558792e+001
7.6387604e+001
7.2077705e+001
6.7680328e+001
6.2933239e+001
5.7844803e+001
5.2801109e+001
4.7845276e+001
4.3221088e+001
3.8963024e+001
3.5274780e+001
3.2170410e+001
2.9602571e+001
2.7535772e+001
2.5775200e+001
2.4326155e+001
2.3145132e+001
2.2239342e+001
2.1574499e+001
2.1154955e+001
2.0950754e+001
2.0964495e+001
2.1171297e+001
2.1575821e+001
2.2158394e+001
2.2913870e+001
2.3823517e+001
2.4978489e+001
2.6404600e+001
2.8160521e+001
3.0253454e+001
3.2534130e+001
3.4964439e+001
3.7346458e+001
3.9650383e+001
4.1843010e+001
4.3949394e+001
4.6383923e+001
4.9117214e+001
5.1686279e+001
5.3927357e+001
5.5366562e+001
5.6026676e+001
5.6337643e+001
5.6210350e+001
5.5600643e+001
5.4410042e+001
5.2631657e+001
5.0570599e+001
4.8680538e+001
4.6980686e+001
4.5457714e+001
4.3988407e+001
4.2472450e+001
4.0791206e+001
3.8872952e+001
3.6699841e+001
3.4255619e+001
3.1923256e+001
2.9837395e+001
2.7891880e+001
2.6079378e+001
2.3823641e+001
2.0977858e+001
1.8101097e+001
1.5259150e+001
1.2912271e+001
1.1124040e+001
9.4056568e+000
7.7591476e+000
6.1267080e+000
4.5424032e+000
3.0804384e+000
1.8175601e+000
8.3847761e-001
1.8840137e-001
-1.5199319e-001
-2.0087355e-001
8.6215734e-003
5.6726623e-001
1.4872148e+000
2.5985742e+000
3.8166270e+000
4.9850774e+000
5.9922547e+000
6.9144964e+000
7.7647662e+000
8.6243038e+000
9.5229797e+000
1.0346986e+001
1.1045646e+001
1.1482534e+001
1.1527886e+001
1.1385214e+001
1.0981600e+001
1.0502140e+001
9.9103088e+000
9.2223377e+000
8.3993044e+000
7.4625063e+000
6.4536924e+000
5.5620694e+000
4.8422298e+000
4.3329382e+000
4.0193777e+000
3.8236346e+000
3.7478564e+000
3.7927856e+000
3.9674342e+000
4.2973051e+000
4.7170115e+000
5.1867151e+000
5.6586227e+000
6.1016374e+000
6.4922371e+000
6.7978730e+000
7.0089517e+000
7.0700622e+000
7.0427642e+000
6.8756833e+000
6.6768517e+000
6.4292092e+000
6.1652102e+000
5.8746548e+000
5.5596156e+000
5.2103257e+000
4.8458223e+000
4.4541492e+000
4.0262027e+000
3.5463715e+000
3.0161219e+000
2.4461188e+000
1.8799897e+000
1.3311596e+000
8.1811965e-001
3.5845089e-001
-1.3867170e-002
-2.7836961e-001
-3.7667900e-001
-3.4573513e-001
-1.5677144e-001
1.4187825e-001
5.8855867e-001
1.0621657e+000
1.5500641e+000
2.0051262e+000
2.3831601e+000
2.7059255e+000
2.9172144e+000
3.0523717e+000
3.0510108e+000
2.9859660e+000
2.8223279e+000
2.6428192e+000
2.4486916e+000
2.2914333e+000
2.1856377e+000
2.1271801e+000
2.1149700e+000
2.1100464e+000
2.1055896e+000
2.0793967e+000
2.0367265e+000
1.9823821e+000
1.9249995e+000
1.8762181e+000
1.8419975e+000
1.8400685e+000
1.8783001e+000
1.9997137e+000
2.1879423e+000
2.5048473e+000
2.8725040e+000
3.3256364e+000
3.7732384e+000
4.1901875e+000
4.5641017e+000
4.8395882e+000
5.0697284e+000
5.2133060e+000
5.3421807e+000
5.4542756e+000
5.6031909e+000
5.8137350e+000
6.0823994e+000
6.4287133e+000
6.8268423e+000
7.2891164e+000
7.8144517e+000
8.4049644e+000
9.0585985e+000
9.7612696e+000
1.0498829e+001
1.1248751e+001
1.1984457e+001
1.2677579e+001
1.3250932e+001
1.3715430e+001
1.3931529e+001
1.4002091e+001
1.3748120e+001
1.3362761e+001
1.2657309e+001
1.1866928e+001
1.0855326e+001
9.8130388e+000
8.7094707e+000
7.6598291e+000
6.7360430e+000
5.9543543e+000
5.4277358e+000
5.0696931e+000
4.9498296e+000
4.9191480e+000
4.9718404e+000
4.9638143e+000
4.8662434e+000
4.6075797e+000
4.2068286e+000
3.6889572e+000
3.1108458e+000
2.5586219e+000
2.0468378e+000
1.6561065e+000
1.3295183e+000
1.1044464e+000
9.2302138e-001
8.2577544e-001
7.6749802e-001
8.2043207e-001
8.9496237e-001
1.0279365e+000
1.1549355e+000
1.2624015e+000
1.3536117e+000
1.4017520e+000
1.4182332e+000
1.3674275e+000
1.2763257e+000
1.1185712e+000
9.3873829e-001
7.3353815e-001
5.4377836e-001
3.7599820e-001
2.4227130e-001
1.4154312e-001
6.6850528e-002
1.0515638e-002
-4.1476998e-002
-9.5420763e-002
-1.0843486e-001
-9.9446788e-002
-5.7352316e-002
5.4865181e-003
1.2963177e-001
2.6166874e-001
3.7823799e-001
4.7097188e-001
4.4470900e-001
4.1721943e-001
3.9507994e-001
4.0343046e-001
5.0694078e-001
6.0947549e-001
7.0747352e-001
7.8647685e-001
8.3134907e-001
8.9196789e-001
9.8157996e-001
1.1100206e+000
1.2928860e+000
1.5310074e+000
1.8300492e+000
2.1851141e+000
2.5799539e+000
2.9564390e+000
3.3000281e+000
3.4881442e+000
3.5770872e+000
3.4551537e+000
3.2573721e+000
3.0068998e+000
2.7671010e+000
2.6878843e+000
2.6484120e+000
2.7490685e+000
2.8462837e+000
2.8771489e+000
2.8839457e+000
2.7865415e+000
2.6898143e+000
2.5958412e+000
2.5120292e+000
2.4538643e+000
2.4100819e+000
2.3969316e+000
2.4251411e+000
2.5122259e+000
2.5923400e+000
2.6556172e+000
2.6279087e+000
2.5126355e+000
2.3219168e+000
2.0771677e+000
1.8077624e+000
1.5280681e+000
1.2746240e+000
1.0360620e+000
8.4781832e-001
6.7290670e-001
4.9643427e-001
3.1890136e-001
1.3245183e-001
-5.2670941e-002
-2.1354203e-001
-3.7944248e-001
-5.8135188e-001
-7.9496813e-001
-1.0581143e+000
-1.2937701e+000
-1.4412080e+000
-1.5343722e+000
-1.5045046e+000
-1.4793199e+000
-1.4642286e+000
-1.4766101e+000
-1.5221740e+000
-1.5114760e+000
-1.4385715e+000
-1.2912838e+000
-1.0880001e+000
-9.4090551e-001
-8.3320254e-001
-8.2652801e-001
-8.6393195e-001
-8.7151098e-001
-8.6515206e-001
-7.6906675e-001
-6.5210462e-001
-4.9776956e-001
-3.4026158e-001
-2.1510229e-001
-9.5094487e-002
-3.1342179e-002
3.6188588e-003
1.0959405e-001
2.3519826e-001
4.4325882e-001
6.2902772e-001
7.4820834e-001
8.1744653e-001
7.8104919e-001
7.7089500e-001
8.0392593e-001
9.0037000e-001
1.0730965e+000
1.2176331e+000
1.3342896e+000
1.3388371e+000
1.2632204e+000
1.0855476e+000
8.5406327e-001
6.4977270e-001
4.5663893e-001
4.1757622e-001
4.1890889e-001
4.7692186e-001
5.4404593e-001
6.6005999e-001
