##TITLE=Methyl Ethyl Ketone
##JCAMP-DX=4.24
##DATA TYPE=INFRARED SPECTRUM
##XUNITS=cm-1
##YUNITS=Absorbance
##FIRSTX=900
##LASTX=2300
##XYDATA=(X++(Y..Y))
2296 0.016554
2294 0.016898507
2292 0.017243015
2290 0.01758752
2288 0.017932029
2286 0.018276535
2284 0.018621042
2282 0.01896555
2280 0.019309068
2278 0.019653564
2276 0.019998072
2274 0.020342577
2272 0.020687087
2270 0.021031592
2268 0.021376101
2266 0.021720607
2264 0.022064138
2262 0.022408621
2260 0.022753129
2258 0.023097636
2256 0.023442144
2254 0.023786649
2252 0.024131158
2250 0.024475664
2248 0.024819206
2246 0.025163678
2244 0.00093510858
2242 0.010746849
2240 0.01712136
2238 -0.0015246344
2236 -0.023943722
2234 -0.063570596
2232 -0.1022146
2230 -0.091107853
2228 -0.070852548
2226 0.0027745049
2224 0.078603052
2222 0.15162285
2220 0.2135374
2218 0.24180858
2216 0.26183543
2214 0.26805314
2212 0.2691972
2210 0.26344961
2208 0.24780394
2206 0.22037414
2204 0.21654195
2202 0.23624188
2200 0.28668177
2198 0.35899842
2196 0.38635358
2194 0.38688254
2192 0.33869913
2190 0.26989043
2188 0.21478185
2186 0.16458543
2184 0.1172268
2182 0.070466369
2180 0.032959253
2178 -0.0024120037
2176 0.023277642
2174 0.057838321
2172 0.12923722
2170 0.2024738
2168 0.26593658
2166 0.321825
2164 0.35332537
2162 0.37476158
2160 0.37668583
2158 0.37553519
2156 0.37245801
2154 0.36622638
2152 0.35571834
2150 0.33351383
2148 0.29861531
2146 0.27189606
2144 0.25354108
2142 0.26527479
2140 0.29722473
2138 0.3300828
2136 0.362362
2134 0.37168291
2132 0.37162545
2130 0.37668517
2128 0.38371599
2126 0.39066851
2124 0.39743072
2122 0.3772516
2120 0.3525615
2118 0.32441518
2116 0.29623929
2114 0.2724708
2112 0.24924834
2110 0.22645383
2108 0.20541449
2106 0.18939643
2104 0.17038211
2102 0.14279471
2100 0.10457318
2098 0.0504319
2096 -0.002001571
2094 -0.04949807
2092 -0.074526049
2090 -0.07704927
2088 -0.060969092
2086 -0.031519901
2084 -0.0025650351
2082 0.025083058
2080 0.040604118
2078 0.049472097
2076 0.041303858
2074 0.026240649
2072 0.005615124
2070 -0.016800277
2068 -0.022904666
2066 -0.025198843
2064 0.0025247224
2062 0.036062747
2060 0.079332724
2058 0.11529756
2056 0.10078095
2054 0.067353219
2052 -0.0010318486
2050 -0.05219553
2048 -0.044517599
2046 -0.0035759495
2044 0.077944808
2042 0.14084736
2040 0.16656594
2038 0.16583987
2036 0.14519429
2034 0.12804382
2032 0.11725914
2030 0.094731264
2028 0.060069632
2026 0.013051761
2024 -0.042014927
2022 -0.080431618
2020 -0.11042477
2018 -0.1383656
2016 -0.16448601
2014 -0.19761395
2012 -0.230896
2010 -0.21626873
2008 -0.18439795
2006 -0.097627312
2004 0.0029140785
2002 0.09469337
2000 0.17666668
1998 0.21585253
1996 0.23716
1994 0.23080489
1992 0.198044
1990 0.13072307
1988 0.037992302
1986 -0.071900107
1984 -0.16018285
1982 -0.21306527
1980 -0.22146304
1978 -0.19396092
1976 -0.13727343
1974 -0.063750207
1972 0.032673266
1970 0.14177392
1968 0.22221652
1966 0.28341201
1964 0.26474145
1962 0.20878631
1960 0.15337761
1958 0.10149315
1956 0.1013894
1954 0.12118489
1952 0.13400371
1950 0.14659075
1948 0.13794477
1946 0.122125
1944 0.11162749
1942 0.097619914
1940 0.10283034
1938 0.11125443
1936 0.12141229
1934 0.12910445
1932 0.1174526
1930 0.10706084
1928 0.094085321
1926 0.1229926
1924 0.19927232
1922 0.3189221
1920 0.47929448
1918 0.57137489
1916 0.60613155
1914 0.56119013
1912 0.46415502
1910 0.38763174
1908 0.3267929
1906 0.27111149
1904 0.2191536
1902 0.16209936
1900 0.10629293
1898 0.10333457
1896 0.12517285
1894 0.16919105
1892 0.21467048
1890 0.23070779
1888 0.22484085
1886 0.19462036
1884 0.14571014
1882 0.0721156
1880 -0.0052067041
1878 -0.080745898
1876 -0.109387
1874 -0.074891225
1872 0.035859477
1870 0.21692179
1868 0.36566639
1866 0.47337407
1864 0.46212941
1862 0.36179611
1860 0.23849083
1858 0.10556654
1856 0.0045471732
1854 -0.081141531
1852 -0.070864797
1850 -0.008586566
1848 0.16489425
1846 0.38653606
1844 0.47563681
1842 0.4782494
1840 0.29544708
1838 0.040224105
1836 -0.16076204
1834 -0.29666939
1832 -0.29319119
1830 -0.20236993
1828 -0.00032697618
1826 0.19820672
1824 0.31079593
1822 0.31435525
1820 0.15795055
1818 -0.040008843
1816 -0.22961544
1814 -0.35214651
1812 -0.39503559
1810 -0.41118279
1808 -0.42030263
1806 -0.41811651
1804 -0.40339771
1802 -0.29800779
1800 -0.12371844
1798 0.10570678
1796 0.36353713
1794 0.4996942
1792 0.56043118
1790 0.48757675
1788 0.35402319
1786 0.25628293
1784 0.19443806
1782 0.17365336
1780 0.19598436
1778 0.30227658
1776 0.46376514
1774 0.66499871
1772 0.80874175
1770 0.77313805
1768 0.60548782
1766 0.36272994
1764 0.15683044
1762 0.055090986
1760 0.012085269
1758 -0.11002814
1756 -0.24287444
1754 -0.32312217
1752 -0.21260452
1750 0.092501402
1748 0.47397026
1746 0.88449788
1744 1.0452994
1742 0.98914158
1740 0.84900749
1738 0.66673166
1736 0.61179799
1734 0.64071268
1732 0.54165608
1730 0.34963581
1728 0.017587945
1726 -0.35577542
1724 -0.51564163
1722 -0.43903279
1720 0.044636995
1718 0.85310274
1716 2.0714729
1714 3.4139843
1712 4.5331221
1710 5.5103269
1708 6.3760557
1706 7.4213572
1704 8.85991
1702 10.884256
1700 13.583777
1698 16.764635
1696 20.319286
1694 23.64509
1692 26.512297
1690 29.14208
1688 31.6112
1686 34.600014
1684 38.150738
1682 42.097946
1680 46.344559
1678 50.021076
1676 53.19603
1674 56.411739
1672 59.706772
1670 63.509132
1668 67.669121
1666 71.758247
1664 75.747665
1662 79.448929
1660 82.879791
1658 86.009933
1656 88.900116
1654 91.621132
1652 94.079979
1650 96.202522
1648 97.433029
1646 97.439819
1644 96.56601
1642 95.142113
1640 93.342903
1638 91.274483
1636 88.485214
1634 84.898788
1632 80.855087
1630 76.553215
1628 72.389053
1626 68.413055
1624 64.335121
1622 60.116516
1620 55.915615
1618 51.751892
1616 47.752571
1614 43.954605
1612 40.532501
1610 37.520191
1608 34.936661
1606 32.749306
1604 30.799311
1602 29.102064
1600 27.653828
1598 26.482985
1596 25.5835
1594 24.926321
1592 24.445108
1590 24.091372
1588 23.807417
1586 23.636658
1584 23.587542
1582 23.748659
1580 24.138857
1578 24.834221
1576 25.853914
1574 27.065395
1572 28.444622
1570 29.729792
1568 30.872561
1566 31.918379
1564 32.868919
1562 34.000038
1560 35.382931
1558 37.426296
1556 40.060513
1554 42.544708
1552 44.784348
1550 46.393784
1548 47.510899
1546 48.636856
1544 49.782669
1542 50.992096
1540 51.911041
1538 52.184315
1536 51.776657
1534 50.744736
1532 49.500668
1530 48.353821
1528 47.294857
1526 46.314049
1524 45.2509
1522 44.040764
1520 42.460182
1518 40.463882
1516 38.409386
1514 36.392151
1512 34.594841
1510 33.012058
1508 30.97444
1506 28.303936
1504 25.387749
1502 22.284307
1500 19.635546
1498 17.506721
1496 15.459572
1494 13.473413
1492 11.4698
1490 9.4404087
1488 7.4302435
1486 5.4744549
1484 3.6222339
1482 2.0404398
1480 0.86045331
1478 0.16358903
1476 0.059709877
1474 0.54627532
1472 1.5249308
1470 2.5554149
1468 3.3990963
1466 4.1674418
1464 4.8436227
1462 5.6067858
1460 6.5358601
1458 7.3337011
1456 7.8931999
1454 8.0205326
1452 7.5712771
1450 7.0598521
1448 6.5144958
1446 6.0114145
1444 5.5581985
1442 5.111095
1440 4.6648808
1438 4.2654729
1436 3.8809872
1434 3.4790087
1432 3.0358005
1430 2.5610368
1428 2.136384
1426 1.8510321
1424 1.7527268
1422 1.85497
1420 2.0728011
1418 2.3285306
1416 2.5298371
1414 2.590456
1412 2.6317806
1410 2.6812968
1408 2.8117394
1406 3.0758135
1404 3.4198792
1402 3.8912954
1400 4.397068
1398 4.9488888
1396 5.4227571
1394 5.7586861
1392 5.9341693
1390 5.8896351
1388 5.7651987
1386 5.53405
1384 5.27386
1382 4.9773626
1380 4.6915402
1378 4.4129333
1376 4.1610031
1374 3.8976784
1372 3.6016321
1370 3.2735426
1368 2.9202583
1366 2.5720863
1364 2.2269635
1362 1.8562272
1360 1.4392691
1358 1.0080755
1356 0.60422742
1354 0.28604189
1352 0.10618283
1350 0.0072082067
1348 -0.012705822
1346 -0.01746675
1344 0.071334995
1342 0.23395723
1340 0.52423263
1338 0.78609455
1336 0.98560399
1334 1.0430107
1332 0.91435057
1330 0.77826488
1328 0.65805417
1326 0.64045483
1324 0.74984586
1322 0.95307106
1320 1.2442012
1318 1.559847
1316 1.8642
1314 2.0778418
1312 2.2009349
1310 2.2161543
1308 2.1767626
1306 2.1279886
1304 2.0849428
1302 2.0629971
1300 2.0424132
1298 2.0186827
1296 2.0006571
1294 2.0194807
1292 2.065208
1290 2.1695979
1288 2.279212
1286 2.385565
1284 2.4854081
1282 2.5783377
1280 2.6854
1278 2.8283651
1276 2.9860187
1274 3.16136
1272 3.3356411
1270 3.4996238
1268 3.6631854
1266 3.8372912
1264 4.0394325
1262 4.2978325
1260 4.6277981
1258 5.0435095
1256 5.5333886
1254 6.085032
1252 6.6535621
1250 7.2252197
1248 7.7679014
1246 8.2830505
1244 8.7634354
1242 9.2196703
1240 9.6471701
1238 10.054013
1236 10.416457
1234 10.729698
1232 10.906119
1230 11.002325
1228 10.882934
1226 10.70875
1224 10.391154
1222 10.040594
1220 9.6094437
1218 9.1412067
1216 8.5994482
1214 8.0352821
1212 7.4341068
1210 6.8324227
1208 6.2347517
1206 5.6586714
1204 5.1128278
1202 4.5920582
1200 4.0918646
1198 3.58637
1196 3.0747073
1194 2.5569887
1192 2.0476589
1190 1.5884991
1188 1.1731439
1186 0.84935266
1184 0.57328689
1182 0.37106776
1180 0.20640647
1178 0.12282981
1176 0.079537198
1174 0.15243232
1172 0.24724817
1170 0.40319502
1168 0.5436908
1166 0.63852054
1164 0.70199984
1162 0.68864506
1160 0.66147214
1158 0.60835159
1156 0.56793183
1154 0.54504001
1152 0.51418072
1150 0.46436301
1148 0.36968058
1146 0.23027501
1144 0.097955242
1142 -0.0094051361
1140 -0.018204279
1138 0.045490421
1136 0.158444
1134 0.32414722
1132 0.52266848
1130 0.74042195
1128 0.99104357
1126 1.2580307
1124 1.5609043
1122 1.8697846
1120 2.177696
1118 2.4858158
1116 2.7964342
1114 3.1083083
1112 3.4247229
1110 3.7357776
1108 4.0291662
1106 4.31212
1104 4.5696888
1102 4.8200316
1100 5.0604439
1098 5.3271523
1096 5.6400714
1094 6.0028515
1092 6.4263978
1090 6.85185
1088 7.2702537
1086 7.6223722
1084 7.9145885
1082 8.1411438
1080 8.3218441
1078 8.4598179
1076 8.5717039
1074 8.6372223
1072 8.684741
1070 8.7058134
1068 8.7144346
1066 8.6682644
1064 8.6052847
1062 8.4682646
1060 8.331831
1058 8.2235889
1056 8.125948
1054 8.0736141
1052 8.0054283
1050 7.8830891
1048 7.7220531
1046 7.4667749
1044 7.1815734
1042 6.8415203
1040 6.4848042
1038 6.1079855
1036 5.75879
1034 5.4464054
1032 5.1969991
1030 4.9985771
1028 4.7685738
1026 4.5075531
1024 4.1572123
1022 3.7649381
1020 3.4152968
1018 3.0945067
1016 2.9006858
1014 2.7402315
1012 2.5722389
1010 2.3922448
1008 2.0926921
1006 1.7803242
1004 1.4363401
1002 1.0962241
1000 0.7854501
998 0.47776234
996 0.18456185
994 -0.095676124
992 -0.33318993
990 -0.54696864
988 -0.70517802
986 -0.84655887
984 -0.95987439
982 -1.0621672
980 -1.14864
978 -1.1949694
976 -1.1946086
974 -1.1086055
972 -0.95166808
970 -0.74262428
968 -0.50478977
966 -0.29777548
964 -0.10730676
962 0.036589056
960 0.16352257
958 0.23051351
956 0.28326356
954 0.288468
952 0.28785402
950 0.27935609
948 0.2649858
946 0.16926515
944 0.069989182
942 -0.0052535236
940 -0.16137563
938 -0.207727
936 -0.22403972
934 -0.15409519
932 -0.10934886
930 -0.11927873
928 -0.17266396
926 -0.29451355
924 -0.36566761
922 -0.37386605
920 -0.26583695
918 -0.049568892
916 0.16572872
914 0.37963215
912 0.49333256
910 0.55217379
908 0.61844981
906 0.68405747
904 0.80400091
902 0.93500692
900 1.0158054
898 1.0875316
896 1.1095999
