##TITLE=Methyl Ethyl Ketone
##JCAMP-DX=4.24
##DATA TYPE=INFRARED SPECTRUM
##XUNITS=cm-1
##YUNITS=Absorbance
##FIRSTX=900
##LASTX=2300
##XYDATA=(X++(Y..Y))
2296 0.0064917998
2294 0.0066269068
2292 0.0067619137
2290 0.0068970202
2288 0.0070320275
2286 0.007167134
2284 0.0073020421
2282 0.007437048
2280 0.0075722528
2278 0.0077076564
2276 0.0078422744
2274 0.007975799
2272 0.0081123551
2270 0.0082530808
2268 0.00838261
2266 0.008496562
2264 0.0086522158
2262 0.0088659683
2260 0.0089248838
2258 0.0087667517
2256 0.0091843856
2254 0.010411434
2252 0.009498057
2250 0.0055670999
2248 0.0095902616
2246 0.0283786
2244 0.03876112
2242 0.014915653
2240 -0.045820799
2238 -0.135032
2236 -0.22626285
2234 -0.29455692
2232 -0.34150392
2230 -0.37592137
2228 -0.40488309
2226 -0.433222
2224 -0.45927441
2222 -0.47925925
2220 -0.48870742
2218 -0.48197567
2216 -0.44950229
2214 -0.38436192
2212 -0.29496521
2210 -0.19539005
2208 -0.10387316
2206 -0.035893995
2204 0.0091159884
2202 0.034591593
2200 0.035557687
2198 0.0057144971
2196 -0.055718865
2194 -0.14315672
2192 -0.23232703
2190 -0.29915872
2188 -0.34434503
2186 -0.37785915
2184 -0.4150404
2182 -0.4669731
2180 -0.5208357
2178 -0.5590266
2176 -0.57596314
2174 -0.57255876
2172 -0.55957782
2170 -0.5487504
2168 -0.54290283
2166 -0.54153007
2164 -0.5429616
2162 -0.54476577
2160 -0.54276413
2158 -0.53350669
2156 -0.51902002
2154 -0.50299907
2152 -0.48852187
2150 -0.47644475
2148 -0.45972097
2146 -0.43184537
2144 -0.39997143
2142 -0.37648061
2140 -0.37550282
2138 -0.40742311
2136 -0.4652583
2134 -0.53601891
2132 -0.60751194
2130 -0.67083824
2128 -0.72882116
2126 -0.78839034
2124 -0.85601741
2122 -0.93398416
2120 -1.0085034
2118 -1.0611809
2116 -1.0790029
2114 -1.056427
2112 -1.009632
2110 -0.9627952
2108 -0.94108909
2106 -0.96457404
2104 -1.0327158
2102 -1.1337807
2100 -1.241538
2098 -1.3272746
2096 -1.3737
2094 -1.3727399
2092 -1.3359764
2090 -1.2817988
2088 -1.2259903
2086 -1.18013
2084 -1.1433758
2082 -1.1108067
2080 -1.0825583
2078 -1.0614988
2076 -1.0540172
2074 -1.0645592
2072 -1.0828279
2070 -1.0947889
2068 -1.0959978
2066 -1.0896322
2064 -1.0915704
2062 -1.1193511
2060 -1.1767642
2058 -1.259095
2056 -1.3530115
2054 -1.4413614
2052 -1.5062732
2050 -1.5350168
2048 -1.5380771
2046 -1.5354357
2044 -1.5470361
2042 -1.5864538
2040 -1.6428114
2038 -1.6983827
2036 -1.7496214
2034 -1.8007809
2032 -1.8594915
2030 -1.929787
2028 -1.9961572
2026 -2.0332179
2024 -2.0110612
2022 -1.9083487
2020 -1.7470691
2018 -1.5739117
2016 -1.45684
2014 -1.4565636
2012 -1.567162
2010 -1.7480503
2008 -1.94328
2006 -2.0987227
2004 -2.1899774
2002 -2.2111561
2000 -2.1727562
1998 -2.0929101
1996 -1.9929571
1994 -1.8930774
1992 -1.8046875
1990 -1.7360104
1988 -1.700394
1986 -1.7111171
1984 -1.7685125
1982 -1.8637313
1980 -1.9760977
1978 -2.0793085
1976 -2.1468201
1974 -2.154633
1972 -2.0886705
1970 -1.9503928
1968 -1.7860428
1966 -1.6586014
1964 -1.6097349
1962 -1.6563761
1960 -1.7639201
1958 -1.879684
1956 -1.9811457
1954 -2.0639725
1952 -2.1273012
1950 -2.1691792
1948 -2.1802289
1946 -2.15345
1944 -2.1069462
1942 -2.0689225
1940 -2.0526938
1938 -2.0590315
1936 -2.0730944
1934 -2.0769
1932 -2.0720899
1930 -2.0691445
1928 -2.0699532
1926 -2.0662065
1924 -2.0285733
1922 -1.9275571
1920 -1.7784714
1918 -1.621182
1916 -1.4924185
1914 -1.4173713
1912 -1.3878742
1910 -1.3835968
1908 -1.4099228
1906 -1.4826642
1904 -1.595028
1902 -1.71984
1900 -1.8021295
1898 -1.7856016
1896 -1.6699142
1894 -1.4962522
1892 -1.3426731
1890 -1.292941
1888 -1.3752205
1886 -1.5722529
1884 -1.8138644
1882 -2.0118515
1880 -2.1211207
1878 -2.1306505
1876 -2.0589101
1874 -1.9353751
1872 -1.7735245
1870 -1.5820962
1868 -1.3958426
1866 -1.2618915
1864 -1.2093686
1862 -1.245936
1860 -1.3400592
1858 -1.4435511
1856 -1.5346457
1854 -1.6099052
1852 -1.6656283
1850 -1.6985765
1848 -1.716288
1846 -1.7319964
1844 -1.7542963
1842 -1.7830093
1840 -1.7957994
1838 -1.7600583
1836 -1.6582057
1834 -1.4868851
1832 -1.2562926
1830 -0.99094284
1828 -0.74594331
1826 -0.58889616
1824 -0.55949378
1822 -0.66467774
1820 -0.85426998
1818 -1.0477231
1816 -1.1842057
1814 -1.2300062
1812 -1.1988648
1810 -1.1283978
1808 -1.0334944
1806 -0.91205049
1804 -0.76873189
1802 -0.61789316
1800 -0.48725653
1798 -0.40229762
1796 -0.34120429
1794 -0.25860891
1792 -0.1517864
1790 -0.049294371
1788 0.028254142
1786 0.074481085
1784 0.10448516
1782 0.14449844
1780 0.20935449
1778 0.3066687
1776 0.45516774
1774 0.66801375
1772 0.89162272
1770 1.0293597
1768 1.0082408
1766 0.80318296
1764 0.50343239
1762 0.25051209
1760 0.064457826
1758 -0.1122324
1756 -0.24333999
1754 -0.22736247
1752 -0.035680518
1750 0.28006262
1748 0.5938915
1746 0.75264466
1744 0.68926764
1742 0.4336459
1740 0.14038801
1738 0.016823828
1736 0.12917508
1734 0.40253174
1732 0.65263748
1730 0.66735297
1728 0.41116324
1726 0.011036351
1724 -0.31902575
1722 -0.3346231
1720 0.13733703
1718 1.1477095
1716 2.46367
1714 3.68032
1712 4.5760775
1710 5.1531153
1708 5.643702
1706 6.420105
1704 7.7860188
1702 9.9291401
1700 12.858578
1698 16.40439
1696 20.166286
1694 23.644039
1692 26.643
1690 29.30402
1688 32.061493
1686 35.494984
1684 39.944447
1682 45.396149
1680 51.22908
1678 56.514828
1676 61.076973
1674 65.427811
1672 70.023819
1670 75.053841
1668 80.204567
1666 84.829552
1664 88.579773
1662 91.452026
1660 93.566559
1658 95.089127
1656 96.156342
1654 96.849663
1652 97.154404
1650 96.970718
1648 96.15873
1646 94.615219
1644 92.511551
1642 90.225754
1640 87.950722
1638 85.644623
1636 83.139175
1634 80.223282
1632 76.852676
1630 73.136307
1628 69.133759
1626 64.834076
1624 60.245998
1622 55.427666
1620 50.526001
1618 45.752647
1616 41.264114
1614 37.152676
1612 33.503563
1610 30.39213
1608 27.816521
1606 25.697285
1604 23.944891
1602 22.484283
1600 21.284943
1598 20.357874
1596 19.7115
1594 19.33984
1592 19.216028
1590 19.296759
1588 19.559471
1586 20.007608
1584 20.649624
1582 21.50281
1580 22.630678
1578 24.136757
1576 26.100344
1574 28.545149
1572 31.376812
1570 34.396099
1568 37.431721
1566 40.373455
1564 43.161671
1562 45.810478
1560 48.503269
1558 51.495033
1556 54.577072
1554 57.08041
1552 58.582924
1550 59.089073
1548 58.909714
1546 58.53257
1544 58.147747
1542 57.561008
1540 56.465801
1538 54.590229
1536 52.017914
1534 49.203545
1532 46.535564
1530 44.206924
1528 42.224178
1526 40.4286
1524 38.648151
1522 36.747478
1520 34.669125
1518 32.450916
1516 30.211157
1514 28.110207
1512 26.15324
1510 24.157701
1508 21.940353
1506 19.402758
1504 16.673532
1502 14.100397
1500 11.897182
1498 10.051018
1496 8.4591141
1494 6.9820933
1492 5.5554504
1490 4.2106628
1488 2.9687035
1486 1.8215778
1484 0.80373698
1482 0.0096476674
1480 -0.45932201
1478 -0.50867987
1476 -0.042660296
1474 1.0013533
1472 2.4889393
1470 4.0695329
1468 5.4904227
1466 6.6989012
1464 7.7586327
1462 8.8177547
1460 9.9816465
1458 11.257703
1456 12.535
1454 13.5898
1452 14.255445
1450 14.483171
1448 14.310354
1446 13.852179
1444 13.228088
1442 12.53583
1440 11.844714
1438 11.185003
1436 10.527472
1434 9.7846193
1432 8.9187489
1430 7.9834003
1428 7.0847101
1426 6.3647575
1424 5.9117966
1422 5.7224236
1420 5.741981
1418 5.876513
1416 6.0473886
1414 6.2162151
1412 6.3866916
1410 6.6061325
1408 6.9086623
1406 7.2918601
1404 7.7235303
1402 8.1396303
1400 8.4651356
1398 8.625102
1396 8.5750647
1394 8.3207579
1392 7.9109459
1390 7.4357224
1388 6.9639807
1386 6.5178299
1384 6.100256
1382 5.7020407
1380 5.3170772
1378 4.9455423
1376 4.5744972
1374 4.1712079
1372 3.7115982
1370 3.1942039
1368 2.6376433
1366 2.0808456
1364 1.5507132
1362 1.0504954
1360 0.58877498
1358 0.19239718
1356 -0.098177418
1354 -0.22915445
1352 -0.15418892
1350 0.15071827
1348 0.67024595
1346 1.3373857
1344 2.090976
1342 2.8932323
1340 3.6848905
1338 4.3645267
1336 4.8284745
1334 4.9960027
1332 4.8564525
1330 4.50384
1328 4.0457025
1326 3.5705779
1324 3.1465278
1322 2.8119857
1320 2.5816736
1318 2.4403796
1316 2.3577299
1314 2.2910981
1312 2.2076318
1310 2.0966768
1308 1.9584448
1306 1.8036307
1304 1.6479474
1302 1.511752
1300 1.4192371
1298 1.398865
1296 1.4767572
1294 1.6721036
1292 1.9942522
1290 2.4362369
1288 2.976408
1286 3.5731542
1284 4.1797481
1282 4.7495298
1280 5.2453718
1278 5.6486158
1276 5.9563427
1274 6.1873841
1272 6.372097
1270 6.552669
1268 6.7692251
1266 7.0518203
1264 7.417624
1262 7.8651567
1260 8.3907957
1258 8.9960737
1256 9.6883774
1254 10.482773
1252 11.386455
1250 12.387546
1248 13.466857
1246 14.59725
1244 15.743382
1242 16.85523
1240 17.872143
1238 18.712717
1236 19.302614
1234 19.589725
1232 19.538401
1230 19.142258
1228 18.413868
1226 17.393372
1224 16.137875
1222 14.728302
1220 13.261354
1218 11.850309
1216 10.602543
1214 9.6040535
1212 8.9157591
1210 8.5538225
1208 8.4962406
1206 8.6610155
1204 8.9305782
1202 9.1469297
1200 9.1700153
1198 8.9218807
1196 8.3819361
1194 7.6200581
1192 6.7310114
1190 5.8158312
1188 4.9569998
1186 4.1931648
1184 3.54422
1182 3.0121918
1180 2.5961177
1178 2.296802
1176 2.1059201
1174 1.9946786
1172 1.9293048
1170 1.877229
1168 1.819484
1166 1.7657964
1164 1.7272846
1162 1.702566
1160 1.6807868
1158 1.637621
1156 1.5535743
1154 1.428491
1152 1.2704828
1150 1.0963123
1148 0.92105877
1146 0.7507357
1144 0.58677363
1142 0.42418745
1140 0.25200808
1138 0.050842941
1136 -0.18385743
1134 -0.4178538
1132 -0.61696041
1130 -0.76896447
1128 -0.86510634
1126 -0.89350092
1124 -0.85164821
1122 -0.76191944
1120 -0.6554628
1118 -0.56829572
1116 -0.51855367
1114 -0.47869506
1112 -0.42049941
1110 -0.34203956
1108 -0.2546671
1106 -0.1851975
1104 -0.1460124
1102 -0.10402221
1100 -0.018546432
1098 0.14083968
1096 0.38407141
1094 0.67606115
1092 0.98174882
1090 1.294814
1088 1.6227715
1086 1.9893279
1084 2.4021955
1082 2.8170564
1080 3.1710846
1078 3.3878579
1076 3.4082658
1074 3.2294359
1072 2.8873463
1070 2.485312
1068 2.135597
1066 1.927425
1064 1.905012
1062 2.0050628
1060 2.1367977
1058 2.2087226
1056 2.16224
1054 2.0312188
1052 1.8735356
1050 1.749761
1048 1.7024308
1046 1.7210001
1044 1.7765818
1042 1.8249784
1040 1.8326315
1038 1.8075398
1036 1.7765701
1034 1.7904433
1032 1.8845634
1030 2.0308251
1028 2.1765051
1026 2.2426572
1024 2.165391
1022 1.9445119
1020 1.6059688
1018 1.2069738
1016 0.80276287
1014 0.42026162
1012 0.076221615
1010 -0.2218786
1008 -0.46892118
1006 -0.66064423
1004 -0.80256069
1002 -0.92953479
1000 -1.0757439
998 -1.2502621
996 -1.4482213
994 -1.640582
992 -1.8007075
990 -1.9285083
988 -2.0275226
986 -2.0919492
984 -2.1124132
982 -2.0752187
980 -1.973618
978 -1.827842
976 -1.6609257
974 -1.4850781
972 -1.3144815
970 -1.1795305
968 -1.108148
966 -1.106115
964 -1.1577866
962 -1.1949463
960 -1.154188
958 -1.0355678
956 -0.86060047
954 -0.67283612
952 -0.50761962
950 -0.35350591
948 -0.19845501
946 -0.068676613
944 0.010675553
942 0.052136689
940 0.073248088
938 0.07605508
936 0.06270463
934 0.049731411
932 0.058158107
930 0.1123301
928 0.23700286
926 0.45513692
924 0.77436197
922 1.1468083
920 1.5118183
918 1.814212
916 2.0173428
914 2.1528015
912 2.2614892
910 2.3564391
908 2.4295204
906 2.4192944
904 2.2782874
902 2.066478
900 1.8753222
898 1.8135592
896 1.9947
