Image.
>Pix99999.
  .
5555
5555
2300
900
5555
2
1
0
701
5555
4.5132998e-002
4.6071660e-002
4.7011312e-002
4.7949973e-002
4.8888627e-002
4.9827289e-002
5.0766934e-002
5.1705603e-002
5.2644257e-002
5.3582914e-002
5.4522555e-002
5.5462215e-002
5.6399904e-002
5.7334617e-002
5.8278102e-002
5.9234470e-002
6.0156904e-002
6.1029799e-002
6.2032107e-002
6.3215703e-002
6.3919254e-002
6.3946761e-002
6.5760165e-002
7.0093773e-002
6.7787051e-002
5.0311036e-002
2.2712776e-002
-3.7283273e-003
-7.9846159e-003
2.8420763e-002
1.0273328e-001
2.0475352e-001
3.1859574e-001
4.2644316e-001
5.0890923e-001
5.5167699e-001
5.6288320e-001
5.5850220e-001
5.5971479e-001
5.8285946e-001
6.1887002e-001
6.5210301e-001
6.7118561e-001
6.6881669e-001
6.4860076e-001
6.1620367e-001
5.7239151e-001
5.1691216e-001
4.5180476e-001
3.8118559e-001
3.1460857e-001
2.6104665e-001
2.2013514e-001
1.8788786e-001
1.5752743e-001
1.2640457e-001
1.1189800e-001
1.3531156e-001
2.0764144e-001
3.2971713e-001
4.7502601e-001
6.1035627e-001
7.1111661e-001
7.6125687e-001
7.6726800e-001
7.4440950e-001
7.1361059e-001
6.9506913e-001
6.9896352e-001
7.2761244e-001
7.6505101e-001
7.8981572e-001
7.8303808e-001
7.3354083e-001
6.5745711e-001
5.7963896e-001
5.2197725e-001
5.0096458e-001
5.1625055e-001
5.5976743e-001
6.1611801e-001
6.6837454e-001
7.0345777e-001
7.1420395e-001
7.1184754e-001
7.1055657e-001
7.0933479e-001
7.0138615e-001
6.7983049e-001
6.4270890e-001
6.0788357e-001
5.9655482e-001
6.1347342e-001
6.5528083e-001
7.1144682e-001
7.6998949e-001
8.2319099e-001
8.6536258e-001
8.9230078e-001
9.0287036e-001
9.0660286e-001
9.1551012e-001
9.3465787e-001
9.6326572e-001
9.8826754e-001
9.9492848e-001
9.8123097e-001
9.5153058e-001
9.1496646e-001
8.8131166e-001
8.5611004e-001
8.4338355e-001
8.4841835e-001
8.7528479e-001
9.2059374e-001
9.7652864e-001
1.0296298e+000
1.0659509e+000
1.0784841e+000
1.0651261e+000
1.0311942e+000
9.8493171e-001
9.3405920e-001
8.8569564e-001
8.4566116e-001
8.1793642e-001
8.0095881e-001
7.9046994e-001
7.8046417e-001
7.6629269e-001
7.5158888e-001
7.4157053e-001
7.3278999e-001
7.1857691e-001
6.9556934e-001
6.6549993e-001
6.4460874e-001
6.5001386e-001
6.7561132e-001
7.0309472e-001
7.0817602e-001
6.7222017e-001
6.0952228e-001
5.4680628e-001
4.9932498e-001
4.7336248e-001
4.6344748e-001
4.6290851e-001
4.8167354e-001
5.3441173e-001
6.2182355e-001
7.3209757e-001
8.3034247e-001
8.7856448e-001
8.7036777e-001
8.1883425e-001
7.5294065e-001
7.0253068e-001
6.7305350e-001
6.5860623e-001
6.5724427e-001
6.7006856e-001
6.9941419e-001
7.4426740e-001
7.8760815e-001
8.0938876e-001
8.1080669e-001
8.0532587e-001
8.1108803e-001
8.4062791e-001
8.7570918e-001
8.8754290e-001
8.6961448e-001
8.3121282e-001
7.9566252e-001
7.8485751e-001
7.8726625e-001
7.7669710e-001
7.4035615e-001
6.7889208e-001
6.1476254e-001
5.7554609e-001
5.6402719e-001
5.6836146e-001
5.7396412e-001
5.7056618e-001
5.6810164e-001
5.8291686e-001
6.1194277e-001
6.4157480e-001
6.6220659e-001
6.6871601e-001
6.6203755e-001
6.4369786e-001
6.0450411e-001
5.3400683e-001
4.4322360e-001
3.5610068e-001
2.9845327e-001
2.9215989e-001
3.4202284e-001
4.3683770e-001
5.3755414e-001
5.9286350e-001
5.6350809e-001
4.3137285e-001
2.3498127e-001
4.0902622e-002
-1.0143879e-001
-1.6183321e-001
-1.3747701e-001
-4.0774219e-002
1.1407174e-001
3.0560291e-001
4.7853333e-001
5.6560612e-001
5.3582305e-001
3.9275441e-001
1.8821096e-001
-6.7239739e-003
-1.5405349e-001
-2.4066868e-001
-2.6267233e-001
-2.2309652e-001
-1.4129280e-001
-4.9590103e-002
5.0350120e-003
-2.0742701e-002
-1.1795740e-001
-2.4070121e-001
-3.2791027e-001
-3.2287940e-001
-2.1492782e-001
-3.2274347e-002
1.5628657e-001
2.6898342e-001
2.6745662e-001
1.5329200e-001
-2.9109322e-002
-2.1441375e-001
-3.5234544e-001
-4.1262010e-001
-3.9839602e-001
-3.3340091e-001
-2.4153355e-001
-1.4199050e-001
-4.2984854e-002
5.4989520e-002
1.5458359e-001
2.5861293e-001
3.6487499e-001
4.6197426e-001
5.1283878e-001
4.7435856e-001
3.5337019e-001
1.9358972e-001
4.1215394e-002
-6.2812477e-002
-8.8623896e-002
-1.7372740e-002
1.5291479e-001
4.0120000e-001
6.5085357e-001
7.9760313e-001
7.8364527e-001
6.0831791e-001
3.5934141e-001
1.6200486e-001
4.6937648e-002
-2.2654952e-002
-4.4732213e-002
1.6901098e-002
1.7913450e-001
4.2878211e-001
7.0277768e-001
9.1122711e-001
9.9741477e-001
9.5020986e-001
8.3437550e-001
7.5072503e-001
7.2408402e-001
7.0921618e-001
6.3467681e-001
4.3775734e-001
1.4570965e-001
-1.4205596e-001
-3.1584185e-001
-2.7565309e-001
4.4163659e-002
6.5807700e-001
1.4631305e+000
2.2878411e+000
3.0480354e+000
3.7643349e+000
4.5667658e+000
5.6547785e+000
7.2079029e+000
9.3581734e+000
1.2143591e+001
1.5482653e+001
1.9070572e+001
2.2480770e+001
2.5499449e+001
2.8172781e+001
3.0841200e+001
3.4019821e+001
3.8056782e+001
4.3010765e+001
4.8376961e+001
5.3343006e+001
5.7721298e+001
6.1916557e+001
6.6335732e+001
7.1184990e+001
7.6180473e+001
8.0699005e+001
8.4394127e+001
8.7251572e+001
8.9390022e+001
9.0977844e+001
9.2134369e+001
9.2914520e+001
9.3312561e+001
9.3276901e+001
9.2754845e+001
9.1733818e+001
9.0357986e+001
8.8874771e+001
8.7365189e+001
8.5720680e+001
8.3749245e+001
8.1248634e+001
7.8186363e+001
7.4685577e+001
7.0846230e+001
6.6712936e+001
6.2310837e+001
5.7673859e+001
5.2907230e+001
4.8181614e+001
4.3663315e+001
3.9498009e+001
3.5807198e+001
3.2674011e+001
3.0079805e+001
2.7913294e+001
2.6071768e+001
2.4486683e+001
2.3137989e+001
2.2046631e+001
2.1229500e+001
2.0686583e+001
2.0395498e+001
2.0320393e+001
2.0445698e+001
2.0779829e+001
2.1341137e+001
2.2159889e+001
2.3301754e+001
2.4859882e+001
2.6886028e+001
2.9362087e+001
3.2166359e+001
3.5095364e+001
3.7998119e+001
4.0802723e+001
4.3464027e+001
4.5985634e+001
4.8570427e+001
5.1533165e+001
5.4738140e+001
5.7571911e+001
5.9550961e+001
6.0505520e+001
6.0627979e+001
6.0379822e+001
5.9946632e+001
5.9148193e+001
5.7772141e+001
5.5708500e+001
5.3139942e+001
5.0521614e+001
4.8164745e+001
4.6138023e+001
4.4404358e+001
4.2853600e+001
4.1324707e+001
3.9625443e+001
3.7614189e+001
3.5248741e+001
3.2673573e+001
3.0189409e+001
2.7925520e+001
2.5764248e+001
2.3521967e+001
2.1039309e+001
1.8380024e+001
1.5842695e+001
1.3615728e+001
1.1689320e+001
9.9906425e+000
8.4291477e+000
6.9511023e+000
5.5490198e+000
4.2016735e+000
2.8759878e+000
1.6246480e+000
6.0239887e-001
-5.9894979e-002
-2.8818974e-001
-1.5892982e-002
8.0015510e-001
2.0463338e+000
3.4359481e+000
4.7585344e+000
5.9597754e+000
7.0706286e+000
8.1867647e+000
9.4022655e+000
1.0767487e+001
1.2196800e+001
1.3447899e+001
1.4303194e+001
1.4642000e+001
1.4477977e+001
1.3972608e+001
1.3286255e+001
1.2526140e+001
1.1752468e+001
1.0974480e+001
1.0169692e+001
9.2959299e+000
8.3567610e+000
7.4218569e+000
6.5759802e+000
5.8974886e+000
5.4267268e+000
5.1498928e+000
5.0240903e+000
4.9868984e+000
4.9969225e+000
5.0516381e+000
5.1756229e+000
5.4146004e+000
5.7906070e+000
6.2828593e+000
6.8482141e+000
7.4232063e+000
7.9301920e+000
8.2809801e+000
8.4044714e+000
8.2676840e+000
7.8989325e+000
7.4007454e+000
6.8706841e+000
6.3705449e+000
5.9318295e+000
5.5518761e+000
5.2172604e+000
4.9069386e+000
4.5805230e+000
4.1765776e+000
3.6600759e+000
3.0466871e+000
2.3813131e+000
1.7314422e+000
1.1407292e+000
6.1123002e-001
1.5326293e-001
-1.9598828e-001
-3.9471370e-001
-4.0667978e-001
-2.1658058e-001
1.5744394e-001
6.7673504e-001
1.2854108e+000
1.9447241e+000
2.6437078e+000
3.3442121e+000
3.9555199e+000
4.3821139e+000
4.5497317e+000
4.4474463e+000
4.1574697e+000
3.7696669e+000
3.3507342e+000
2.9571440e+000
2.6346984e+000
2.4121320e+000
2.2900665e+000
2.2399900e+000
2.1973014e+000
2.1029582e+000
1.9250612e+000
1.6639555e+000
1.3643308e+000
1.0819325e+000
8.7144423e-001
7.7141881e-001
7.9235810e-001
9.3383569e-001
1.1878848e+000
1.5470337e+000
2.0058722e+000
2.5480840e+000
3.1371722e+000
3.7292881e+000
4.2773027e+000
4.7453079e+000
5.1198211e+000
5.3997812e+000
5.5983572e+000
5.7369847e+000
5.8468714e+000
5.9648333e+000
6.1325078e+000
6.3853221e+000
6.7434483e+000
7.2154698e+000
7.7956042e+000
8.4769258e+000
9.2566986e+000
1.0131165e+001
1.1092420e+001
1.2125531e+001
1.3200500e+001
1.4282728e+001
1.5328413e+001
1.6288298e+001
1.7103916e+001
1.7712029e+001
1.8052834e+001
1.8079041e+001
1.7768776e+001
1.7126026e+001
1.6190880e+001
1.5024132e+001
1.3712917e+001
1.2359282e+001
1.1075130e+001
9.9590683e+000
9.0777731e+000
8.4703875e+000
8.1382570e+000
8.0537214e+000
8.1462803e+000
8.3216858e+000
8.4589405e+000
8.4480515e+000
8.2192955e+000
7.7459354e+000
7.0724936e+000
6.2720346e+000
5.4396901e+000
4.6585846e+000
3.9730885e+000
3.4047189e+000
2.9458468e+000
2.5833251e+000
2.3075359e+000
2.1087799e+000
1.9760853e+000
1.8963766e+000
1.8535573e+000
1.8354166e+000
1.8400464e+000
1.8621857e+000
1.8831600e+000
1.8760852e+000
1.8049386e+000
1.6489757e+000
1.4280467e+000
1.1749597e+000
9.2931837e-001
7.1747822e-001
5.3301179e-001
3.6780196e-001
2.2734794e-001
1.1476038e-001
2.0394381e-002
-6.5747052e-002
-1.4712080e-001
-2.2400665e-001
-2.9211617e-001
-3.4027132e-001
-3.4510207e-001
-2.9671675e-001
-2.2446890e-001
-1.6397280e-001
-1.4122444e-001
-1.6254714e-001
-1.9285777e-001
-2.0046097e-001
-1.8641025e-001
-1.5804571e-001
-1.1760385e-001
-5.5149831e-002
6.4689726e-002
2.6358265e-001
5.1324201e-001
7.7666140e-001
1.0275301e+000
1.2649920e+000
1.5454075e+000
1.9199994e+000
2.3894713e+000
2.9207480e+000
3.4246986e+000
3.8098016e+000
4.0154300e+000
4.0139513e+000
3.8463564e+000
3.5782304e+000
3.2952313e+000
3.0682251e+000
2.9132066e+000
2.8196480e+000
2.7423208e+000
2.6405759e+000
2.5112519e+000
2.3676543e+000
2.2431877e+000
2.1645868e+000
2.1263700e+000
2.1147022e+000
2.1137393e+000
2.1123471e+000
2.1128178e+000
2.1245468e+000
2.1665792e+000
2.2546299e+000
2.3867221e+000
2.5430703e+000
2.6634223e+000
2.6889310e+000
2.5949392e+000
2.3786092e+000
2.0777731e+000
1.7373481e+000
1.3928313e+000
1.0756193e+000
8.1173211e-001
6.2142545e-001
5.1128572e-001
4.7415879e-001
4.7104073e-001
4.5495796e-001
3.7910983e-001
2.0821589e-001
-5.6462198e-002
-3.9366642e-001
-7.4747336e-001
-1.0561337e+000
-1.2678301e+000
-1.3526583e+000
-1.3442578e+000
-1.2881994e+000
-1.2167877e+000
-1.1448460e+000
-1.0403996e+000
-8.7407285e-001
-6.6337574e-001
-4.4316003e-001
-2.6744896e-001
-1.8110269e-001
-1.8194300e-001
-2.5091970e-001
-3.5119179e-001
-4.4486731e-001
-5.0567633e-001
-5.1558799e-001
-4.7502646e-001
-3.9077282e-001
-2.7603221e-001
-1.5039179e-001
-4.9893979e-002
-1.3088249e-003
1.6143478e-002
2.7888343e-002
3.3606507e-002
2.5987912e-002
-4.3074936e-003
-6.2166214e-002
-1.3423714e-001
-2.0036680e-001
-2.3224901e-001
-2.0953660e-001
-1.4920822e-001
-7.6093584e-002
-9.4819702e-003
3.5380471e-002
5.3326566e-002
3.4338918e-002
-5.9691578e-002
-2.4968052e-001
-4.6234035e-001
-5.9109724e-001
-4.9134856e-001
-6.6394687e-002
5.5268431e-001
1.1778001e+000
