Image.
>Pix99999.
  .
5555
5555
2300
900
5555
2
1
0
701
5555
6.8299002e-003
6.9719963e-003
7.1140933e-003
7.2561898e-003
7.3982868e-003
7.5403834e-003
7.6823812e-003
7.8245765e-003
7.9665752e-003
8.1087686e-003
8.2507692e-003
8.3928639e-003
8.5349604e-003
8.6770570e-003
8.8191535e-003
8.9611523e-003
9.1032479e-003
9.2454422e-003
9.3874438e-003
9.5296353e-003
9.6716378e-003
9.8137306e-003
9.9558281e-003
1.0098312e-002
1.0240131e-002
1.0381929e-002
3.8580285e-004
2.0717824e-002
5.7915721e-002
3.8178511e-002
9.8402500e-003
-5.6041092e-002
-1.2349232e-001
-1.6595206e-001
-2.0394011e-001
-2.1629649e-001
-2.2477058e-001
-2.2176187e-001
-2.1645369e-001
-2.0627333e-001
-1.9956143e-001
-2.0098813e-001
-2.0391999e-001
-2.0851129e-001
-1.9920366e-001
-1.7242549e-001
-1.3449183e-001
-8.6802512e-002
-3.7678283e-002
1.2073450e-002
7.1044289e-002
1.3525921e-001
2.0202988e-001
2.6973203e-001
3.0853581e-001
3.3793321e-001
3.0886480e-001
2.6648527e-001
1.8554480e-001
9.9396572e-002
4.8727226e-002
5.9740273e-003
1.5762851e-002
3.4680590e-002
7.7171430e-002
1.3009261e-001
2.1243799e-001
2.9974160e-001
3.9229435e-001
4.6017724e-001
4.8039800e-001
4.7648466e-001
4.4473016e-001
4.1886565e-001
4.0287361e-001
3.9053106e-001
3.8045943e-001
3.6316532e-001
3.4058067e-001
3.1020582e-001
2.7593571e-001
2.6267615e-001
2.5867900e-001
3.1750673e-001
3.9617801e-001
4.7276714e-001
5.4840213e-001
5.8519745e-001
6.1780280e-001
6.8823224e-001
7.6215786e-001
8.2252628e-001
8.6165911e-001
8.1611836e-001
7.5015604e-001
6.5981668e-001
5.8004916e-001
5.3121287e-001
5.0406021e-001
5.0543082e-001
5.3231144e-001
5.8671927e-001
6.5262777e-001
7.2626638e-001
7.5974071e-001
7.5971597e-001
7.2518748e-001
6.7115939e-001
6.6078323e-001
6.7437541e-001
7.1223885e-001
7.5885516e-001
7.3278320e-001
6.8273234e-001
6.1300927e-001
5.3979707e-001
5.4489458e-001
5.6635636e-001
6.0712826e-001
6.4805090e-001
6.6913313e-001
6.8825895e-001
7.1184522e-001
7.3722816e-001
7.6196402e-001
7.7202070e-001
7.5226796e-001
7.0841771e-001
6.3947207e-001
5.7822990e-001
5.3513730e-001
5.1035857e-001
4.9957457e-001
4.8318511e-001
4.5861435e-001
4.3659735e-001
4.1577113e-001
3.9664158e-001
3.7749091e-001
3.5028028e-001
3.2096800e-001
2.8666085e-001
2.5281760e-001
2.1432079e-001
1.7690264e-001
1.6033693e-001
1.5153985e-001
1.5333970e-001
1.5662783e-001
1.4554732e-001
1.3631429e-001
1.3789126e-001
1.4130864e-001
1.5145747e-001
1.5102680e-001
1.4070036e-001
1.2974119e-001
1.2083073e-001
1.1074032e-001
9.4072238e-002
6.4236030e-002
2.0795500e-002
-2.4357170e-003
-1.0150905e-002
1.5081394e-002
5.9826195e-002
6.6271074e-002
5.3824361e-002
-7.1636420e-003
-8.7270014e-002
-1.6997430e-001
-2.5101501e-001
-3.1038561e-001
-3.5499269e-001
-3.6368424e-001
-3.6400500e-001
-3.7353736e-001
-4.0382105e-001
-4.6335572e-001
-5.2835524e-001
-5.7613117e-001
-6.0186791e-001
-6.0575759e-001
-5.9255224e-001
-5.7447654e-001
-5.2309138e-001
-4.3750134e-001
-3.1006795e-001
-1.4044967e-001
-9.4946306e-003
8.9443862e-002
1.2100710e-001
1.0570610e-001
6.2644020e-002
3.8399724e-003
-7.5483352e-002
-1.6263999e-001
-2.3099256e-001
-2.8662190e-001
-2.9731965e-001
-2.8739715e-001
-2.6299664e-001
-2.3932657e-001
-2.4123850e-001
-2.6528406e-001
-3.2274014e-001
-3.9965475e-001
-4.9363109e-001
-5.8268094e-001
-6.5534073e-001
-6.7812896e-001
-6.3979566e-001
-5.3236055e-001
-3.6328059e-001
-2.0787284e-001
-6.9072373e-002
-1.1547165e-002
-1.2772879e-002
-3.5714708e-002
-7.3381528e-002
-9.9585429e-002
-1.2444628e-001
-9.4358690e-002
-3.7102707e-002
8.0737606e-002
2.2036141e-001
2.4666688e-001
2.0036946e-001
2.4131361e-002
-2.0016077e-001
-3.7905529e-001
-5.0704968e-001
-5.4241127e-001
-5.1782650e-001
-4.0713814e-001
-2.8747094e-001
-1.9536269e-001
-1.6244221e-001
-2.3439220e-001
-3.3424473e-001
-4.3697485e-001
-4.8768935e-001
-4.7351214e-001
-4.3167546e-001
-3.7623399e-001
-3.0545351e-001
-2.2023615e-001
-4.7865547e-002
1.9064549e-001
4.6972558e-001
7.6629430e-001
8.9108258e-001
9.0501159e-001
7.4456912e-001
4.9905494e-001
3.2276893e-001
2.0430857e-001
1.6476510e-001
1.8741031e-001
2.8619501e-001
4.2774943e-001
5.7418579e-001
6.5127403e-001
5.6224954e-001
3.7240389e-001
1.6513102e-001
2.3609400e-002
-5.6237825e-003
1.8782742e-002
-4.2552385e-002
-1.4029817e-001
-2.1970230e-001
-1.8171944e-001
-2.2833731e-002
1.8409044e-001
4.1301680e-001
4.9201098e-001
4.4841695e-001
3.7091795e-001
2.7798310e-001
2.5375998e-001
2.6682416e-001
1.6390944e-001
-1.7645374e-002
-2.5675556e-001
-4.8794386e-001
-5.3060246e-001
-3.8185349e-001
1.8266886e-003
5.4245543e-001
1.3499514e+000
2.2674501e+000
3.1097841e+000
3.9258153e+000
4.7185202e+000
5.7096109e+000
7.0512958e+000
8.9508314e+000
1.1510675e+001
1.4539696e+001
1.7926714e+001
2.1065939e+001
2.3729897e+001
2.6160755e+001
2.8444805e+001
3.1287865e+001
3.4729328e+001
3.8679108e+001
4.3023041e+001
4.6811871e+001
5.0099869e+001
5.3320839e+001
5.6533104e+001
6.0202591e+001
6.4203407e+001
6.8201050e+001
7.2154755e+001
7.5862076e+001
7.9327339e+001
8.2495796e+001
8.5452347e+001
8.8310043e+001
9.1038361e+001
9.3626968e+001
9.5511604e+001
9.6323502e+001
9.6247177e+001
9.5497086e+001
9.4219017e+001
9.2527321e+001
9.0126373e+001
8.7007614e+001
8.3519928e+001
7.9851517e+001
7.6233902e+001
7.2692535e+001
6.8907158e+001
6.4855965e+001
6.0710415e+001
5.6502655e+001
5.2402401e+001
4.8449574e+001
4.4841057e+001
4.1616070e+001
3.8827965e+001
3.6454052e+001
3.4360165e+001
3.2546551e+001
3.0971949e+001
2.9636705e+001
2.8494999e+001
2.7531784e+001
2.6709137e+001
2.6033588e+001
2.5498169e+001
2.5142729e+001
2.4966927e+001
2.4993830e+001
2.5204075e+001
2.5645796e+001
2.6329514e+001
2.7172884e+001
2.8167791e+001
2.9128546e+001
3.0022400e+001
3.0911272e+001
3.1800724e+001
3.2918213e+001
3.4332687e+001
3.6397442e+001
3.9049828e+001
4.1568802e+001
4.3851154e+001
4.5480316e+001
4.6568489e+001
4.7577358e+001
4.8542355e+001
4.9581268e+001
5.0449001e+001
5.0932068e+001
5.0923431e+001
5.0353401e+001
4.9548023e+001
4.8739410e+001
4.7951103e+001
4.7203400e+001
4.6351715e+001
4.5337509e+001
4.3931931e+001
4.2078529e+001
4.0108459e+001
3.8104710e+001
3.6256680e+001
3.4556114e+001
3.2389549e+001
2.9589214e+001
2.6626463e+001
2.3572952e+001
2.0976706e+001
1.8889181e+001
1.6807858e+001
1.4698332e+001
1.2513609e+001
1.0261946e+001
8.0602388e+000
5.9623942e+000
4.0409021e+000
2.4317088e+000
1.2072196e+000
4.0500420e-001
9.8702446e-002
3.0789629e-001
9.1573137e-001
1.5628970e+000
2.0914676e+000
2.6101835e+000
3.1168365e+000
3.7250359e+000
4.4892302e+000
5.1824780e+000
5.7354798e+000
5.9738908e+000
5.7951269e+000
5.5281701e+000
5.1749516e+000
4.8285966e+000
4.4896216e+000
4.1807609e+000
3.9016840e+000
3.6648092e+000
3.4220800e+000
3.0910532e+000
2.6381280e+000
2.1032302e+000
1.5713960e+000
1.1693461e+000
9.4001716e-001
8.9391774e-001
9.6753281e-001
1.1092803e+000
1.2682343e+000
1.4097900e+000
1.6085804e+000
1.8769135e+000
2.2233927e+000
2.6614308e+000
3.1235800e+000
3.6218724e+000
4.0971160e+000
4.5359206e+000
4.9022141e+000
5.1525044e+000
5.2877660e+000
5.2729969e+000
5.1869349e+000
5.0074353e+000
4.8103881e+000
4.5949211e+000
4.4044714e+000
4.2333012e+000
4.0709486e+000
3.8761373e+000
3.6274281e+000
3.3214512e+000
2.9671874e+000
2.5903373e+000
2.1891291e+000
1.7606089e+000
1.3200504e+000
8.9725602e-001
5.4046869e-001
2.6818472e-001
1.0129015e-001
7.0672845e-003
-7.5408276e-003
-4.4636056e-003
1.0204736e-001
2.5388852e-001
4.7020763e-001
6.5800577e-001
7.9023570e-001
8.2503855e-001
7.4494404e-001
6.4847040e-001
5.4711670e-001
5.1329041e-001
5.6066525e-001
6.9105232e-001
9.0355521e-001
1.1575526e+000
1.4305201e+000
1.6599374e+000
1.8366989e+000
1.9106450e+000
1.9147455e+000
1.8572236e+000
1.7819394e+000
1.7422360e+000
1.7308812e+000
1.7735909e+000
1.8312000e+000
1.8985196e+000
1.9740726e+000
2.0739806e+000
2.1904640e+000
2.3463178e+000
2.4978542e+000
2.6382177e+000
2.7608337e+000
2.8488305e+000
2.9454656e+000
3.0549550e+000
3.1979525e+000
3.3911719e+000
3.6139052e+000
3.8878093e+000
4.1968246e+000
4.5633574e+000
4.9771881e+000
5.4417968e+000
5.9319000e+000
6.4464407e+000
6.9769211e+000
7.5274572e+000
8.1110535e+000
8.7134504e+000
9.3343801e+000
9.9505453e+000
1.0534777e+001
1.1080173e+001
1.1525186e+001
1.1897562e+001
1.2089000e+001
1.2203630e+001
1.2124132e+001
1.2004908e+001
1.1781178e+001
1.1526788e+001
1.1197075e+001
1.0813910e+001
1.0323852e+001
9.7847939e+000
9.1654034e+000
8.5320883e+000
7.8858662e+000
7.2642274e+000
6.6757598e+000
6.1101723e+000
5.5620341e+000
5.0023503e+000
4.4338140e+000
3.8659546e+000
3.3138738e+000
2.8262160e+000
2.3908558e+000
2.0564635e+000
1.7691069e+000
1.5397559e+000
1.3315842e+000
1.1524904e+000
9.9588001e-001
9.1200364e-001
8.5221845e-001
8.7241369e-001
8.9722186e-001
9.3898749e-001
9.7546792e-001
9.9948519e-001
1.0248537e+000
1.0492387e+000
1.0572273e+000
1.0289618e+000
9.4110596e-001
7.6973873e-001
5.5911762e-001
3.1781250e-001
1.2990572e-001
5.9291665e-003
-1.5183631e-002
4.0848464e-002
1.5024486e-001
2.9183790e-001
4.9856937e-001
7.4430788e-001
1.0619612e+000
1.4063165e+000
1.7850163e+000
2.1720681e+000
2.5723038e+000
2.9765475e+000
3.3959329e+000
3.8070798e+000
4.1797953e+000
4.5155048e+000
4.7317834e+000
4.9100499e+000
5.0009522e+000
5.1262779e+000
5.3272815e+000
5.6051207e+000
6.0008283e+000
6.4098625e+000
6.8300343e+000
7.2116899e+000
7.5534363e+000
7.8711329e+000
8.1693802e+000
8.4623489e+000
8.7458286e+000
8.9903364e+000
9.2048683e+000
9.3318377e+000
9.4240189e+000
9.4655781e+000
9.4962044e+000
9.5230427e+000
9.5431519e+000
9.5147943e+000
9.4757223e+000
9.3833685e+000
9.2825623e+000
9.1425314e+000
8.9695005e+000
8.6881008e+000
8.3657894e+000
7.9463644e+000
7.5279121e+000
7.1166925e+000
6.7495723e+000
6.4507980e+000
6.1963596e+000
5.9908986e+000
5.7817111e+000
5.5629826e+000
5.2930579e+000
4.9817634e+000
4.6104813e+000
4.2067909e+000
3.7867422e+000
3.3642492e+000
2.9760628e+000
2.6006210e+000
2.2649903e+000
1.9379132e+000
1.6341081e+000
1.3314015e+000
1.0199945e+000
7.0737100e-001
3.8807094e-001
7.8514367e-002
-1.8743856e-001
-4.3951941e-001
-6.4807570e-001
-8.6363018e-001
-1.0944617e+000
-1.3231864e+000
-1.5463428e+000
-1.7138233e+000
-1.8026620e+000
-1.7940865e+000
-1.6768342e+000
-1.4228702e+000
-1.0556784e+000
-6.0554093e-001
-1.0966367e-001
3.2171002e-001
7.1583229e-001
9.5292497e-001
1.1305664e+000
1.1038089e+000
1.0279367e+000
8.1372041e-001
5.8391839e-001
3.7485093e-001
1.7418733e-001
7.9909392e-002
0.0000000e+000
-1.0464676e-003
-3.0519634e-002
1.2213871e-002
7.2443202e-002
1.8321835e-001
2.9973638e-001
4.2803425e-001
5.3599322e-001
6.1035883e-001
6.4184624e-001
6.2069446e-001
5.9998024e-001
5.8122110e-001
6.2772024e-001
7.2002196e-001
7.5943983e-001
7.6821595e-001
6.9561923e-001
5.8964592e-001
6.6342640e-001
7.8213006e-001
1.0175246e+000
1.2706529e+000
1.4474000e+000
