Image.
>Pix99999.
  .
5555
5555
2300
900
5555
2
1
0
701
5555
-1.7109999e-002
-1.7465491e-002
-1.7820982e-002
-1.8177470e-002
-1.8532965e-002
-1.8889450e-002
-1.9244948e-002
-1.9601429e-002
-1.9956931e-002
-2.0313410e-002
-2.0668915e-002
-2.1024406e-002
-2.1380879e-002
-2.1736389e-002
-2.2092860e-002
-2.2448370e-002
-2.2804840e-002
-2.3160353e-002
-2.3516821e-002
-2.3872336e-002
-2.4228800e-002
-2.4584319e-002
-2.4939811e-002
-2.5296271e-002
-2.5651794e-002
-2.6008250e-002
-9.6649426e-004
5.3264104e-002
1.0577124e-001
1.1458000e-001
1.1688000e-001
1.1582314e-001
1.1629485e-001
1.5647341e-001
2.0077004e-001
2.6248550e-001
3.2851979e-001
4.1005981e-001
4.8760882e-001
5.5030847e-001
5.8331859e-001
5.5329913e-001
5.0245881e-001
4.2370993e-001
3.7331796e-001
3.6044499e-001
3.8453791e-001
4.4201821e-001
4.6560863e-001
4.6225122e-001
4.0281430e-001
3.1203645e-001
2.5582686e-001
2.1567421e-001
2.2997665e-001
2.6164284e-001
3.0426759e-001
3.4916839e-001
3.9918321e-001
4.4975093e-001
4.8349658e-001
5.1513368e-001
5.4034758e-001
5.6877440e-001
6.1906093e-001
6.7646521e-001
7.5195229e-001
8.2575119e-001
8.9063609e-001
9.3602705e-001
9.4622296e-001
9.4556808e-001
9.3443894e-001
9.4062340e-001
9.6754050e-001
1.0024772e+000
1.0425812e+000
1.0702289e+000
1.0887389e+000
1.0909661e+000
1.0848000e+000
1.0488938e+000
1.0008987e+000
9.3224126e-001
8.5737520e-001
8.1120914e-001
7.7179247e-001
7.8309441e-001
8.0273461e-001
8.2881463e-001
8.5410547e-001
8.6718708e-001
8.8247025e-001
9.1569912e-001
9.5459646e-001
1.0025944e+000
1.0422611e+000
1.0604215e+000
1.0686920e+000
1.0655789e+000
1.0714142e+000
1.0909834e+000
1.1167386e+000
1.1466975e+000
1.1592885e+000
1.1573000e+000
1.1414257e+000
1.1178603e+000
1.0918578e+000
1.0650042e+000
1.0548156e+000
1.0515122e+000
1.0811720e+000
1.1211976e+000
1.1642158e+000
1.2070686e+000
1.2356246e+000
1.2603883e+000
1.2795489e+000
1.2985361e+000
1.3229285e+000
1.3503773e+000
1.3835220e+000
1.4120030e+000
1.4237943e+000
1.4264500e+000
1.4169420e+000
1.4059595e+000
1.3976263e+000
1.3793147e+000
1.3500943e+000
1.3158500e+000
1.2785468e+000
1.2734250e+000
1.2931440e+000
1.3234478e+000
1.3572359e+000
1.3417822e+000
1.3001109e+000
1.2619479e+000
1.2274200e+000
1.2773784e+000
1.3567468e+000
1.4490520e+000
1.5404623e+000
1.5625886e+000
1.5636582e+000
1.5378670e+000
1.5072640e+000
1.4803556e+000
1.4507571e+000
1.4071817e+000
1.3673297e+000
1.3483944e+000
1.3544480e+000
1.4011450e+000
1.4433092e+000
1.4654526e+000
1.4570889e+000
1.4171757e+000
1.3787285e+000
1.3466300e+000
1.3346580e+000
1.3359617e+000
1.3484389e+000
1.3666743e+000
1.3809645e+000
1.3942032e+000
1.4043159e+000
1.4137824e+000
1.4320757e+000
1.4542036e+000
1.4705617e+000
1.4827578e+000
1.4533638e+000
1.4006250e+000
1.2969211e+000
1.1725852e+000
1.0490516e+000
9.3874198e-001
8.6645883e-001
8.1946278e-001
7.9426020e-001
7.8713030e-001
7.9252779e-001
8.3553743e-001
9.1926694e-001
1.0410998e+000
1.1959885e+000
1.3057461e+000
1.3737414e+000
1.3798927e+000
1.3454022e+000
1.2972960e+000
1.2435706e+000
1.1772950e+000
1.1056160e+000
1.0665016e+000
1.0447572e+000
1.0929934e+000
1.1703286e+000
1.2571423e+000
1.3425043e+000
1.4018160e+000
1.4442595e+000
1.4669021e+000
1.4659249e+000
1.4177510e+000
1.3399520e+000
1.2281528e+000
1.1197701e+000
1.0289831e+000
9.7060376e-001
9.4605255e-001
9.3611008e-001
9.4383109e-001
9.3408424e-001
9.1182858e-001
8.8395405e-001
8.4938246e-001
8.3663458e-001
8.3675480e-001
8.8303632e-001
9.5375633e-001
1.0541968e+000
1.1640893e+000
1.1894877e+000
1.1629041e+000
1.0317917e+000
8.5466599e-001
6.6773427e-001
4.8883429e-001
3.4276623e-001
2.4016829e-001
2.5102609e-001
3.2526591e-001
4.6325421e-001
5.8640361e-001
6.2060040e-001
6.0363495e-001
5.4520285e-001
5.0358254e-001
5.0203645e-001
5.2033460e-001
5.4974228e-001
5.7905751e-001
6.0609603e-001
6.5842676e-001
7.2927940e-001
7.9836184e-001
8.6103857e-001
8.6063331e-001
8.2303357e-001
7.7481884e-001
7.3121566e-001
7.1555364e-001
7.1870995e-001
6.9944465e-001
6.7542219e-001
6.7796952e-001
6.8907231e-001
6.7393559e-001
5.9959269e-001
4.1197130e-001
1.9232440e-001
4.5126315e-002
-5.2611758e-003
5.3313754e-002
3.5469417e-002
-7.9377890e-002
-2.0020786e-001
-3.1540567e-001
-3.3510044e-001
-2.4801269e-001
-9.9200547e-002
8.5938327e-002
1.7224126e-001
1.6858035e-001
1.1720820e-001
3.6889061e-002
1.4918680e-002
3.2284670e-002
-7.8315288e-004
-7.0759937e-002
-2.0627566e-001
-3.5895136e-001
-3.9251611e-001
-2.9548842e-001
2.0053491e-002
5.2691311e-001
1.3473946e+000
2.3310301e+000
3.2975473e+000
4.2365050e+000
5.1054039e+000
6.1019802e+000
7.3821855e+000
9.1737223e+000
1.1593214e+001
1.4560560e+001
1.7981142e+001
2.1222031e+001
2.4034163e+001
2.6550903e+001
2.8858988e+001
3.1626350e+001
3.4907082e+001
3.8691154e+001
4.2866039e+001
4.6548824e+001
4.9778770e+001
5.2939606e+001
5.6101715e+001
5.9792503e+001
6.3901398e+001
6.8179497e+001
7.2553574e+001
7.6784073e+001
8.0822845e+001
8.4527824e+001
8.7936859e+001
9.1100578e+001
9.3984581e+001
9.6575577e+001
9.8406265e+001
9.9156502e+001
9.9005913e+001
9.8187248e+001
9.6784607e+001
9.4907379e+001
9.2213570e+001
8.8679398e+001
8.4732361e+001
8.0586197e+001
7.6574295e+001
7.2746353e+001
6.8769676e+001
6.4609703e+001
6.0391006e+001
5.6139603e+001
5.2034740e+001
4.8113575e+001
4.4585430e+001
4.1476189e+001
3.8797382e+001
3.6521187e+001
3.4493416e+001
3.2720715e+001
3.1177521e+001
2.9869246e+001
2.8763000e+001
2.7841225e+001
2.7057531e+001
2.6414469e+001
2.5899595e+001
2.5555656e+001
2.5391806e+001
2.5416521e+001
2.5610233e+001
2.5993160e+001
2.6564228e+001
2.7315857e+001
2.8251268e+001
2.9228764e+001
3.0218960e+001
3.1123335e+001
3.1927008e+001
3.2816200e+001
3.3853138e+001
3.5491726e+001
3.7723286e+001
4.0032818e+001
4.2319645e+001
4.4108387e+001
4.5473373e+001
4.6770145e+001
4.8001480e+001
4.9206871e+001
5.0132782e+001
5.0500175e+001
5.0285828e+001
4.9553207e+001
4.8602146e+001
4.7701054e+001
4.6845989e+001
4.6031452e+001
4.5137363e+001
4.4106403e+001
4.2738033e+001
4.0957962e+001
3.9029655e+001
3.7016937e+001
3.5119080e+001
3.3358433e+001
3.1189966e+001
2.8464993e+001
2.5572006e+001
2.2557369e+001
1.9970509e+001
1.7866159e+001
1.5810715e+001
1.3786910e+001
1.1723446e+001
9.6305523e+000
7.5842671e+000
5.6347084e+000
3.8485959e+000
2.3329206e+000
1.1598699e+000
3.8172922e-001
9.8549217e-002
4.0727901e-001
1.2283664e+000
2.1911120e+000
3.1178143e+000
3.9945600e+000
4.7695961e+000
5.5365157e+000
6.3254480e+000
6.9162254e+000
7.1922002e+000
7.1524434e+000
6.7049122e+000
6.2843900e+000
5.9388227e+000
5.6200109e+000
5.3309383e+000
5.0262141e+000
4.6955132e+000
4.3658614e+000
4.0035915e+000
3.5656610e+000
3.0391865e+000
2.4788878e+000
1.9504941e+000
1.5567265e+000
1.3298978e+000
1.2749280e+000
1.3452126e+000
1.4904803e+000
1.6626428e+000
1.8214370e+000
2.0160251e+000
2.2636805e+000
2.5753944e+000
2.9708993e+000
3.3953233e+000
3.8537369e+000
4.2938924e+000
4.6991205e+000
5.0353856e+000
5.2546644e+000
5.3759780e+000
5.3544798e+000
5.2685623e+000
5.0890398e+000
4.8677368e+000
4.5943866e+000
4.3275065e+000
4.0704484e+000
3.8439400e+000
3.6275642e+000
3.3900242e+000
3.1249325e+000
2.8245280e+000
2.5009928e+000
2.1532173e+000
1.7762234e+000
1.3711640e+000
9.7268480e-001
6.2717056e-001
3.5038602e-001
1.7121057e-001
4.5887757e-002
-4.1648567e-002
-1.3124035e-001
-1.3348040e-001
-8.2803756e-002
5.6877255e-002
1.7209861e-001
2.3397028e-001
2.2927928e-001
1.4036976e-001
6.7777358e-002
3.4277286e-002
5.8333445e-002
1.5643521e-001
3.0838752e-001
5.1433557e-001
7.3870832e-001
9.6228999e-001
1.1360658e+000
1.2587937e+000
1.3217586e+000
1.3442643e+000
1.3351200e+000
1.3037194e+000
1.2521399e+000
1.1943203e+000
1.1520846e+000
1.1289144e+000
1.1531668e+000
1.1965737e+000
1.2667161e+000
1.3354800e+000
1.3929492e+000
1.4467235e+000
1.4978302e+000
1.5596434e+000
1.6481760e+000
1.7518713e+000
1.8807690e+000
2.0197885e+000
2.1710720e+000
2.3244016e+000
2.4878936e+000
2.6743507e+000
2.9087913e+000
3.2221980e+000
3.6290100e+000
4.1141000e+000
4.6664543e+000
5.2451797e+000
5.8422489e+000
6.4450893e+000
7.0450001e+000
7.6303968e+000
8.1937733e+000
8.7055378e+000
9.1795855e+000
9.5753174e+000
9.9176311e+000
1.0131240e+001
1.0276128e+001
1.0240091e+001
1.0152059e+001
9.9242182e+000
9.6578426e+000
9.2974415e+000
8.8948412e+000
8.4084377e+000
7.8977356e+000
7.3474927e+000
6.7950644e+000
6.2396235e+000
5.6818557e+000
5.1208496e+000
4.5521932e+000
3.9780152e+000
3.4103508e+000
2.8555858e+000
2.3389866e+000
1.8549045e+000
1.4167730e+000
1.0105910e+000
6.5376461e-001
3.3581960e-001
1.1132118e-001
-6.2582806e-002
-1.1841643e-001
-1.3877159e-001
-8.1833452e-002
-1.4339276e-002
7.7785410e-002
1.6172749e-001
2.2105321e-001
2.6176107e-001
2.5644359e-001
2.3958051e-001
1.9933584e-001
1.5532699e-001
1.0372645e-001
4.4538230e-002
-2.4588477e-002
-9.2503220e-002
-1.5168180e-001
-1.6936971e-001
-1.4020661e-001
-4.5207314e-002
8.3955623e-002
1.7957456e-001
3.2417530e-001
5.6116325e-001
8.5558391e-001
1.2649961e+000
1.7153472e+000
2.2145128e+000
2.7140696e+000
3.1702480e+000
3.6141396e+000
4.0140471e+000
4.4115620e+000
4.8020091e+000
5.1864529e+000
5.5516748e+000
5.9076152e+000
6.2413416e+000
6.5759430e+000
6.9134879e+000
7.2614346e+000
7.6264143e+000
8.0019159e+000
8.3946161e+000
8.8182392e+000
9.2759600e+000
9.7634363e+000
1.0263145e+001
1.0688884e+001
1.1049389e+001
1.1254810e+001
1.1380814e+001
1.1430305e+001
1.1462932e+001
1.1543309e+001
1.1635900e+001
1.1741114e+001
1.1835160e+001
1.1827104e+001
1.1797186e+001
1.1661106e+001
1.1502057e+001
1.1238062e+001
1.0942429e+001
1.0541680e+001
1.0126208e+001
9.6779327e+000
9.2350416e+000
8.8053436e+000
8.3919554e+000
8.0045042e+000
7.6401901e+000
7.3027177e+000
6.9767060e+000
6.6590195e+000
6.3297219e+000
5.9909816e+000
5.6406965e+000
5.2861090e+000
4.9473147e+000
4.6181316e+000
4.3237286e+000
4.0420332e+000
3.7977552e+000
3.5618150e+000
3.3487880e+000
3.1378551e+000
2.9286149e+000
2.7130959e+000
2.4549873e+000
2.1802385e+000
1.8323642e+000
1.4799380e+000
1.1155576e+000
7.7869189e-001
5.0730914e-001
2.8153634e-001
1.3670169e-001
3.9833605e-002
1.0469723e-002
5.3136915e-002
1.7541285e-001
3.8764176e-001
6.7125571e-001
9.5232093e-001
1.2263703e+000
1.4060600e+000
1.5391492e+000
1.5944474e+000
1.6210623e+000
1.5626166e+000
1.4823956e+000
1.3140759e+000
1.1329153e+000
8.9849186e-001
6.5893519e-001
3.7594894e-001
1.0515662e-001
-6.7800730e-003
-2.0744938e-001
-2.4166900e-001
-2.5080371e-001
-1.8742833e-001
-1.4124134e-001
-1.3184063e-001
-1.3308989e-001
-1.5148164e-001
-1.7212461e-001
-1.9569665e-001
-2.1260983e-001
-2.2256801e-001
-1.9986227e-001
-1.5298462e-001
-3.6430217e-002
1.1631691e-001
3.1586075e-001
5.3032333e-001
5.8506572e-001
5.9580839e-001
4.3457818e-001
2.4537164e-001
1.6963001e-001
