##TITLE=Methyl Ethyl Ketone
##JCAMP-DX=4.24
##DATA TYPE=INFRARED SPECTRUM
##XUNITS=cm-1
##YUNITS=Absorbance
##FIRSTX=900
##LASTX=2300
##XYDATA=(X++(Y..Y))
2296 0.11344
2294 0.11585654
2292 0.11826312
2290 0.12066967
2288 0.12308617
2286 0.1254928
2284 0.12789935
2282 0.1303158
2280 0.13272247
2278 0.13512902
2276 0.13754544
2274 0.13995212
2272 0.14236851
2270 0.14477524
2268 0.14718179
2266 0.14959814
2264 0.15200491
2262 0.15441146
2260 0.15682778
2258 0.15923458
2256 0.16164114
2254 0.1640574
2252 0.16646425
2250 0.16888049
2248 0.17128737
2246 0.17369393
2244 0.075075589
2242 0.0027489085
2240 -0.041659202
2238 -0.088831291
2236 -0.13666607
2234 -0.22805062
2232 -0.31946898
2230 -0.34123975
2228 -0.35392675
2226 -0.32130849
2224 -0.29682276
2222 -0.32031992
2220 -0.34211797
2218 -0.35107091
2216 -0.33572772
2214 -0.26887
2212 -0.21212059
2210 -0.17681104
2208 -0.15583657
2206 -0.15107043
2204 -0.10205375
2202 -0.0093268361
2200 0.099799335
2198 0.2190716
2196 0.26878285
2194 0.2779308
2192 0.24601851
2190 0.19724269
2188 0.21501794
2186 0.2548013
2184 0.34927642
2182 0.45602989
2180 0.50335586
2178 0.54109687
2176 0.52767402
2174 0.51357734
2172 0.54500002
2170 0.59229589
2168 0.70557046
2166 0.81560814
2164 0.8901825
2162 0.91493952
2160 0.82121032
2158 0.69731295
2156 0.53917098
2154 0.39532894
2152 0.27733591
2150 0.16069725
2148 0.042509258
2146 -0.04272357
2144 -0.098713323
2142 -0.072774433
2140 0.0079244571
2138 0.10460567
2136 0.20698829
2134 0.24202672
2132 0.24869855
2130 0.22608657
2128 0.1950224
2126 0.21251535
2124 0.24135326
2122 0.30275089
2120 0.36826816
2118 0.41631228
2116 0.46054
2114 0.49585959
2112 0.52668589
2110 0.54401666
2108 0.55161786
2106 0.53567827
2104 0.52218527
2102 0.52146786
2100 0.54464358
2098 0.60459208
2096 0.67678142
2094 0.75758404
2092 0.79464996
2090 0.78509963
2088 0.71760124
2086 0.60832
2084 0.51718032
2082 0.4420315
2080 0.43192405
2078 0.45462021
2076 0.53123045
2074 0.62847894
2072 0.74998242
2070 0.87842989
2068 0.96925676
2066 1.0480808
2064 1.030532
2062 0.98709637
2060 0.87854648
2058 0.7568332
2056 0.63357258
2054 0.52212697
2052 0.45181149
2050 0.4127512
2048 0.43047118
2046 0.46421501
2044 0.50601161
2042 0.53931034
2040 0.55987287
2038 0.57713425
2036 0.59627253
2034 0.58738577
2032 0.55047679
2030 0.47012359
2028 0.35774282
2026 0.26217008
2024 0.17952354
2022 0.18241116
2020 0.22804628
2018 0.31018844
2016 0.40656
2014 0.4246248
2012 0.41774923
2010 0.35448784
2008 0.27904296
2006 0.22582828
2004 0.1822768
2002 0.16043611
2000 0.14696726
1998 0.13725081
1996 0.12100286
1994 0.07679262
1992 0.0065570194
1990 -0.098487467
1988 -0.199213
1986 -0.26676816
1984 -0.2946091
1982 -0.27840546
1980 -0.23952317
1978 -0.19086525
1976 -0.11034251
1974 -0.0048475098
1972 0.15148452
1970 0.34091711
1968 0.4874171
1966 0.6031763
1964 0.56558275
1962 0.45244691
1960 0.31340522
1958 0.16829717
1956 0.10922428
1954 0.082682081
1952 0.053830724
1950 0.023640554
1948 -0.04536172
1946 -0.12993349
1944 -0.22524646
1942 -0.32380554
1940 -0.38940144
1938 -0.44270715
1936 -0.48280972
1934 -0.52945697
1932 -0.60876483
1930 -0.69015819
1928 -0.77144843
1926 -0.75164253
1924 -0.60697234
1922 -0.2948916
1920 0.1689564
1918 0.57413822
1916 0.90454799
1914 1.0303174
1912 1.0120405
1910 0.89202946
1908 0.72079164
1906 0.46143979
1904 0.16013896
1902 -0.062385008
1900 -0.24254289
1898 -0.14604631
1896 0.06714686
1894 0.36357594
1892 0.65784031
1890 0.73549199
1888 0.66961294
1886 0.36214215
1884 -0.042720109
1882 -0.4659996
1880 -0.83218145
1878 -1.058899
1876 -1.1303201
1874 -1.0236858
1872 -0.75510859
1870 -0.34259343
1868 0.023381934
1866 0.29830715
1864 0.31075966
1862 0.094618917
1860 -0.22095868
1858 -0.58110845
1856 -0.87186944
1854 -1.1107006
1852 -1.154842
1850 -1.08406
1848 -0.76291442
1846 -0.31614572
1844 -0.028420769
1842 0.14979821
1840 -0.055486284
1838 -0.43125552
1836 -0.78529561
1834 -1.0774353
1832 -1.1590486
1830 -1.0925882
1828 -0.81375372
1826 -0.48570412
1824 -0.22615942
1822 -0.1365592
1820 -0.35098898
1818 -0.69697404
1816 -1.0893662
1814 -1.3751603
1812 -1.4937866
1810 -1.5099062
1808 -1.4632102
1806 -1.3842649
1804 -1.2888888
1802 -1.104463
1800 -0.85195661
1798 -0.54349154
1796 -0.20534749
1794 0.05041758
1792 0.25653279
1790 0.28170061
1788 0.21140593
1786 0.090562046
1784 -0.040080115
1782 -0.08227434
1780 -0.042812072
1778 0.16804475
1776 0.49114513
1774 0.89936817
1772 1.2352166
1770 1.2636199
1768 1.0527701
1766 0.65198785
1764 0.275291
1762 0.086625971
1760 0.022918921
1758 -0.1401096
1756 -0.27951515
1754 -0.28217357
1752 0.11122571
1750 0.91638422
1748 1.8764083
1746 2.8765786
1744 3.3343627
1742 3.2901106
1740 3.0552647
1738 2.7391315
1736 2.7539601
1734 3.0162656
1732 2.9661701
1730 2.6664948
1728 1.8552731
1726 0.77217174
1724 0.034943312
1722 -0.3217839
1720 0.097462833
1718 1.135717
1716 2.6918159
1714 4.2958274
1712 5.3234153
1710 5.9967608
1708 6.5124741
1706 7.3147764
1704 8.7642841
1702 11.060088
1700 14.26722
1698 17.871763
1696 21.584572
1694 24.70524
1692 27.030432
1690 29.208103
1688 31.446199
1686 34.603912
1684 38.673012
1682 43.163399
1680 47.913441
1678 51.744286
1676 54.781116
1674 57.95108
1672 61.301353
1670 65.306725
1668 69.76593
1666 74.055748
1664 78.187599
1662 82.094162
1660 85.820053
1658 89.405647
1656 92.879082
1654 96.261002
1652 99.325775
1650 101.83563
1648 102.96206
1646 102.13393
1644 99.988251
1642 97.140556
1640 94.047112
1638 90.973892
1636 87.408188
1634 83.2089
1632 78.67997
1630 73.986656
1628 69.600609
1626 65.569458
1624 61.5504
1622 57.482006
1620 53.413952
1618 49.352432
1616 45.321373
1614 41.365524
1612 37.740738
1610 34.507679
1608 31.818542
1606 29.62887
1604 27.72225
1602 26.086262
1600 24.651777
1598 23.459949
1596 22.5315
1594 21.842863
1592 21.335178
1590 20.955492
1588 20.641106
1586 20.458586
1584 20.4342
1582 20.68034
1580 21.227755
1578 22.166775
1576 23.515858
1574 25.062916
1572 26.752895
1570 28.213604
1568 29.374121
1566 30.414549
1564 31.360443
1562 32.727947
1560 34.63184
1558 37.475872
1556 41.140217
1554 44.293808
1552 46.799721
1550 48.387123
1548 49.281731
1546 50.3605
1544 51.65572
1542 53.185894
1540 54.431061
1538 54.725983
1536 54.018028
1534 52.39986
1532 50.52425
1530 48.973774
1528 47.784458
1526 46.970749
1524 46.233562
1522 45.41901
1520 44.061825
1518 41.984573
1516 39.654285
1514 37.184616
1512 34.99044
1510 33.132275
1508 30.853329
1506 27.971001
1504 24.79808
1502 21.394541
1500 18.582367
1498 16.46607
1496 14.572286
1494 12.892672
1492 11.232294
1490 9.5554352
1488 7.814415
1486 6.0009842
1484 4.1241198
1482 2.387464
1480 1.0355928
1478 0.20076557
1476 -0.0015910976
1474 0.39726579
1472 1.3446983
1470 2.2765388
1468 2.878015
1466 3.2988458
1464 3.5400999
1462 3.9253714
1460 4.6155238
1458 5.4296217
1456 6.37042
1454 6.9749432
1452 7.07581
1450 6.9706731
1448 6.6101112
1446 6.2389321
1444 5.8478971
1442 5.4578843
1440 5.0750842
1438 4.7874579
1436 4.5727243
1434 4.3503695
1432 4.0722556
1430 3.678412
1428 3.2603319
1426 2.977643
1424 2.9035034
1422 3.0965157
1420 3.4466209
1418 3.8307598
1416 4.1123772
1414 4.1477089
1412 4.1006684
1410 4.0292706
1408 4.0481162
1406 4.2427588
1404 4.5474772
1402 5.0139627
1400 5.5294042
1398 6.1058364
1396 6.5685
1394 6.8221326
1392 6.8803563
1390 6.659914
1388 6.3900204
1386 6.0576701
1384 5.7119031
1382 5.3533101
1380 5.0213518
1378 4.7319646
1376 4.5304742
1374 4.3828011
1372 4.2125201
1370 3.9879508
1368 3.6473234
1366 3.22088
1364 2.727752
1362 2.1813669
1360 1.6175903
1358 1.0810838
1356 0.63997686
1354 0.30901831
1352 0.12070238
1350 0.013006148
1348 -0.0010871568
1346 0.057356119
1344 0.25353718
1342 0.53904152
1340 0.9756828
1338 1.3534687
1336 1.6008571
1334 1.66927
1332 1.4806023
1330 1.293808
1328 1.141264
1326 1.1203557
1324 1.2753391
1322 1.5569054
1320 1.9742246
1318 2.4476869
1316 2.9360201
1314 3.3156183
1312 3.5720794
1310 3.6676517
1308 3.6591749
1306 3.6053843
1304 3.5296721
1302 3.4518049
1300 3.3651862
1298 3.272155
1296 3.1873429
1294 3.1465342
1292 3.1399634
1290 3.2059381
1288 3.28754
1286 3.3870606
1284 3.4614463
1282 3.4745641
1280 3.4698899
1278 3.4344883
1276 3.4408486
1274 3.5263579
1272 3.6761315
1270 3.9228549
1268 4.1893625
1266 4.4834042
1264 4.7639074
1262 5.0333376
1260 5.2905679
1258 5.5360847
1256 5.7782173
1254 6.0317755
1252 6.3352876
1250 6.6999445
1248 7.1685395
1246 7.6916504
1244 8.2353888
1242 8.7492151
1240 9.1440678
1238 9.4725761
1236 9.6890154
1234 9.8662853
1232 9.9798441
1230 10.037284
1228 9.9296579
1226 9.7445641
1224 9.3496418
1222 8.9293642
1220 8.4549379
1218 8.0013409
1216 7.5840144
1214 7.1369596
1212 6.629128
1210 6.051775
1208 5.3889565
1206 4.75246
1204 4.1632619
1202 3.6563559
1200 3.2211349
1198 2.7832053
1196 2.3385286
1194 1.8765037
1192 1.415848
1190 1.0025839
1188 0.62401891
1186 0.30456945
1184 0.019127503
1182 -0.20536086
1180 -0.38979793
1178 -0.47066882
1176 -0.50796402
1174 -0.42796952
1172 -0.3333391
1170 -0.20544758
1168 -0.080711372
1166 0.040145651
1164 0.18163583
1162 0.3732048
1160 0.56990176
1158 0.76651037
1156 0.90262181
1154 0.93020749
1152 0.87741613
1150 0.71783352
1148 0.536093
1146 0.33978534
1144 0.18867248
1142 0.084063925
1140 0.024783023
1138 0.00040012674
1136 0.0017986342
1134 0.029807463
1132 0.19177417
1130 0.42271286
1128 0.74476874
1126 1.0894443
1124 1.4198334
1122 1.7402488
1120 2.0225401
1118 2.2828581
1116 2.4447684
1114 2.5761285
1112 2.5881228
1110 2.6115491
1108 2.6775243
1106 2.8106751
1104 3.1124268
1102 3.4625254
1100 3.8989558
1098 4.2917957
1096 4.6051574
1094 4.8192935
1092 4.914712
1090 5.0163794
1088 5.1415915
1086 5.3898873
1084 5.7320046
1082 6.0796933
1080 6.4141335
1078 6.637116
1076 6.8023157
1074 6.9125242
1072 6.9940648
1070 6.9944997
1068 6.9533839
1066 6.7363815
1064 6.4916201
1062 6.2085834
1060 5.9648366
1058 5.9878635
1056 6.0501513
1054 6.2792826
1052 6.459753
1050 6.4819694
1048 6.4559674
1046 6.3217821
1044 6.2506948
1042 6.3045831
1040 6.4371543
1038 6.6753502
1036 6.8331099
1034 6.8799167
1032 6.7228365
1030 6.3772001
1028 5.9520769
1026 5.4767246
1024 5.0494094
1022 4.6467924
1020 4.2359228
1018 3.8200352
1016 3.3786228
1014 2.9311142
1012 2.4918423
1010 2.0609815
1008 1.7130719
1006 1.3871243
1004 1.2390066
1002 1.0965345
1000 0.98203355
998 0.83845413
996 0.56613863
994 0.26785177
992 -0.10856274
990 -0.47301865
988 -0.80726695
986 -1.0998971
984 -1.3198234
982 -1.5046692
980 -1.6406699
978 -1.7214764
976 -1.7384114
974 -1.6424371
972 -1.4547865
970 -1.2326927
968 -0.99796563
966 -0.89958149
964 -0.86591965
962 -0.8929534
960 -0.92734152
958 -0.72094196
956 -0.45624083
954 -0.049392372
952 0.35957921
950 0.40360856
948 0.41633117
946 0.19076465
944 0.00084490329
942 0.027321421
940 0.11363906
938 0.35123581
936 0.58763289
934 0.82115811
932 1.1061571
930 1.5008454
928 1.9060502
926 2.3254957
924 2.6443319
922 2.8400011
920 3.0008166
918 3.131511
916 3.3620114
914 3.664149
912 4.0255742
910 4.414999
908 4.6540294
906 4.830626
904 4.7919407
902 4.6942978
900 4.6239085
898 4.5573506
896 4.8021998
