##TITLE=Methyl Ethyl Ketone
##JCAMP-DX=4.24
##DATA TYPE=INFRARED SPECTRUM
##XUNITS=cm-1
##YUNITS=Absorbance
##FIRSTX=900
##LASTX=2300
##XYDATA=(X++(Y..Y))
2296 0.0085816998
2294 0.0087602446
2292 0.0089387884
2290 0.0091173332
2288 0.0092957793
2286 0.0094743231
2284 0.009652867
2282 0.0098315105
2280 0.010009957
2278 0.010187712
2276 0.010367429
2274 0.010547171
2272 0.010723966
2270 0.010896787
2268 0.0110813
2266 0.011279736
2264 0.011438388
2262 0.011542498
2260 0.011793443
2258 0.012250433
2256 0.012160028
2254 0.01130243
2252 0.01247606
2250 0.016512202
2248 0.013002429
2246 -0.0027820822
2244 -0.00012487058
2242 0.051514305
2240 0.14198643
2238 0.24740319
2236 0.33506185
2234 0.37816545
2232 0.38341588
2230 0.36961111
2228 0.36535215
2226 0.38921452
2224 0.40815189
2222 0.38391602
2220 0.31834331
2218 0.23166673
2216 0.16987799
2214 0.17327419
2212 0.2285772
2210 0.30458462
2208 0.36335626
2206 0.37467158
2204 0.34704998
2202 0.30237311
2200 0.26839519
2198 0.2660549
2196 0.28212357
2194 0.294393
2192 0.28768766
2190 0.25490561
2188 0.21211648
2186 0.17944935
2184 0.1636928
2182 0.16524979
2180 0.17624809
2178 0.18655112
2176 0.18726371
2174 0.17163101
2172 0.13985324
2170 0.095559604
2168 0.04713444
2166 0.0029444969
2164 -0.034901537
2162 -0.06511794
2160 -0.081045359
2158 -0.074894719
2156 -0.0418786
2154 0.016900837
2152 0.08057785
2150 0.12351745
2148 0.12827763
2146 0.086369462
2144 0.01376423
2142 -0.066620894
2140 -0.13805977
2138 -0.18903288
2136 -0.21934657
2134 -0.23187922
2132 -0.22565751
2130 -0.20194677
2128 -0.17747959
2126 -0.17232843
2124 -0.19714138
2122 -0.25053191
2120 -0.29634085
2118 -0.29552069
2116 -0.24938028
2114 -0.17925221
2112 -0.12572475
2110 -0.12535547
2108 -0.17053202
2106 -0.23653308
2104 -0.29769498
2102 -0.33541811
2100 -0.3594842
2098 -0.38826695
2096 -0.43091571
2094 -0.49029726
2092 -0.55974764
2090 -0.63077641
2088 -0.70197392
2086 -0.77388048
2084 -0.84307325
2082 -0.90480143
2080 -0.95584673
2078 -0.99439621
2076 -1.0216771
2074 -1.0384055
2072 -1.038952
2070 -1.018055
2068 -0.98271549
2066 -0.94654936
2064 -0.92938548
2062 -0.94875431
2060 -1.0028177
2058 -1.0808769
2056 -1.1691228
2054 -1.2537318
2052 -1.3245138
2050 -1.375059
2048 -1.4074098
2046 -1.4277965
2044 -1.4453681
2042 -1.4663448
2040 -1.480024
2038 -1.4711879
2036 -1.4366171
2034 -1.3832922
2032 -1.3369972
2030 -1.326756
2028 -1.3609877
2026 -1.43135
2024 -1.4988937
2022 -1.5185169
2020 -1.4740357
2018 -1.3726995
2016 -1.2644
2014 -1.2078427
2012 -1.2213998
2010 -1.2989529
2008 -1.4127142
2006 -1.5311158
2004 -1.6434486
2002 -1.746943
2000 -1.8309126
1998 -1.8827279
1996 -1.9014715
1994 -1.8945101
1992 -1.8797657
1990 -1.8734305
1988 -1.8648
1986 -1.8332479
1984 -1.7720543
1982 -1.6878614
1980 -1.6129256
1978 -1.5829113
1976 -1.5967743
1974 -1.631283
1972 -1.6468403
1970 -1.6084715
1968 -1.5285108
1966 -1.4437529
1964 -1.3941723
1962 -1.4094942
1960 -1.4765561
1958 -1.5623577
1956 -1.6420757
1954 -1.7001728
1952 -1.7371126
1950 -1.7609606
1948 -1.7800263
1946 -1.8018501
1944 -1.8329766
1942 -1.8772881
1940 -1.9281772
1938 -1.9748929
1936 -2.0123258
1934 -2.0391684
1932 -2.0559819
1930 -2.0616941
1928 -2.0450034
1926 -1.9899485
1924 -1.8842857
1922 -1.7266417
1920 -1.551264
1918 -1.4088731
1916 -1.3367158
1914 -1.3536582
1912 -1.4357394
1910 -1.5404055
1908 -1.643976
1906 -1.7369399
1904 -1.8184919
1902 -1.8863448
1900 -1.9164915
1898 -1.8790729
1896 -1.7747285
1894 -1.6301339
1892 -1.5072448
1890 -1.4753
1888 -1.5549434
1886 -1.7275021
1884 -1.9308478
1882 -2.0901704
1880 -2.1721549
1878 -2.1746402
1876 -2.11765
1874 -2.0286276
1872 -1.9215897
1870 -1.804423
1868 -1.6959331
1866 -1.6202729
1864 -1.5913966
1862 -1.612592
1860 -1.6692392
1858 -1.7395178
1856 -1.8141086
1854 -1.8911374
1852 -1.9646609
1850 -2.0250831
1848 -2.0611279
1846 -2.0630143
1844 -2.0290577
1842 -1.9643296
1840 -1.8800189
1838 -1.7894682
1836 -1.7013199
1834 -1.617257
1832 -1.5247811
1830 -1.4083732
1828 -1.2783926
1826 -1.163985
1824 -1.1008588
1822 -1.1180855
1820 -1.2037959
1818 -1.319453
1816 -1.4271057
1814 -1.497043
1812 -1.5225354
1810 -1.5098785
1808 -1.4572937
1806 -1.35996
1804 -1.2308269
1802 -1.0951651
1800 -0.97686201
1798 -0.89124262
1796 -0.82625645
1794 -0.75807697
1792 -0.69188321
1790 -0.64964586
1788 -0.62987846
1786 -0.61165357
1784 -0.57097471
1782 -0.48731428
1780 -0.35483527
1778 -0.1783507
1776 0.035214566
1774 0.27187473
1772 0.48619869
1770 0.61584133
1768 0.62239516
1766 0.50284827
1764 0.3255204
1762 0.18249373
1760 0.052662
1758 -0.14744511
1756 -0.38384557
1754 -0.53924221
1752 -0.55901515
1750 -0.46035469
1748 -0.32022792
1746 -0.24255821
1744 -0.29013473
1742 -0.47010726
1740 -0.69564599
1738 -0.8308171
1736 -0.81386399
1734 -0.66289204
1732 -0.46590865
1730 -0.33778507
1728 -0.31572983
1726 -0.36132321
1724 -0.38812888
1722 -0.28104401
1720 0.081716225
1718 0.78836215
1716 1.7644985
1714 2.8214235
1712 3.8281782
1710 4.748199
1708 5.68612
1706 6.851294
1704 8.4672909
1702 10.736604
1700 13.779828
1698 17.578588
1696 21.756714
1694 25.717339
1692 29.139647
1690 32.048225
1688 34.835285
1686 38.111767
1684 42.312855
1682 47.552582
1680 53.299438
1678 58.658379
1676 63.400299
1674 67.933388
1672 72.665565
1670 77.790512
1668 82.989799
1666 87.598045
1664 91.264885
1662 94.00222
1660 95.940689
1658 97.240692
1656 97.9972
1654 98.23996
1652 97.987961
1650 97.263283
1648 96.095192
1646 94.533607
1644 92.7005
1642 90.747879
1640 88.674644
1638 86.332169
1636 83.555717
1634 80.232178
1632 76.443542
1630 72.415527
1628 68.233879
1626 63.831322
1624 59.154598
1622 54.218067
1620 49.173496
1618 44.280651
1616 39.749714
1614 35.712963
1612 32.246635
1610 29.37212
1608 27.028879
1606 25.092865
1604 23.470015
1602 22.114216
1600 21.023273
1598 20.224575
1596 19.723499
1594 19.494644
1592 19.497692
1590 19.688322
1588 20.049429
1586 20.592922
1584 21.323919
1582 22.24527
1580 23.409472
1578 24.918425
1576 26.878742
1574 29.362988
1572 32.297516
1570 35.46505
1568 38.643799
1566 41.651806
1564 44.378304
1562 46.823708
1560 49.209538
1558 51.885853
1556 54.7892
1554 57.394478
1552 59.224922
1550 60.028439
1548 59.922253
1546 59.326355
1544 58.424171
1542 57.078796
1540 55.163681
1538 52.683674
1536 49.884888
1534 47.208549
1532 44.891552
1530 42.884346
1528 41.065842
1526 39.30505
1524 37.480511
1522 35.497341
1520 33.32935
1518 31.034039
1516 28.735128
1514 26.579603
1512 24.54888
1510 22.43667
1508 20.078341
1506 17.443407
1504 14.715195
1502 12.25861
1500 10.260309
1498 8.6395235
1496 7.2445002
1494 5.9232774
1492 4.6145496
1490 3.3657179
1488 2.2272651
1486 1.2283547
1484 0.41140422
1482 -0.16313346
1480 -0.4532747
1478 -0.43633434
1476 -0.047752559
1474 0.80907112
1472 2.0998657
1470 3.6198008
1468 5.159411
1466 6.5684762
1464 7.80512
1462 8.9484615
1460 10.086538
1458 11.266129
1456 12.425
1454 13.380508
1452 13.984957
1450 14.183631
1448 14.009451
1446 13.583393
1444 13.017531
1442 12.38238
1440 11.710166
1438 10.990546
1436 10.191895
1434 9.2761288
1432 8.2666359
1430 7.2703838
1428 6.3928461
1426 5.7051477
1424 5.2288108
1422 4.9291148
1420 4.7728024
1418 4.7467618
1416 4.8483057
1414 5.080524
1412 5.4330153
1410 5.8743606
1408 6.3683214
1406 6.8770266
1404 7.3566928
1402 7.7563848
1400 8.0280724
1398 8.1350508
1396 8.0683069
1394 7.8570476
1392 7.5470519
1390 7.1925483
1388 6.8290067
1386 6.4625249
1384 6.0967126
1382 5.7392001
1380 5.3890777
1378 5.0287943
1376 4.626646
1374 4.140522
1372 3.5584841
1370 2.9175074
1368 2.2621977
1366 1.6296272
1364 1.0409973
1362 0.49988467
1360 0.030679941
1358 -0.3077324
1356 -0.47147802
1354 -0.45118189
1352 -0.23788126
1350 0.18264744
1348 0.78938174
1346 1.5072787
1344 2.2727001
1342 3.0549538
1340 3.80285
1338 4.4229684
1336 4.8310714
1334 4.9811678
1332 4.8835845
1330 4.6238022
1328 4.2887783
1326 3.9385386
1324 3.6216509
1322 3.3754678
1320 3.2216368
1318 3.1565144
1316 3.1518102
1314 3.1506581
1312 3.1091795
1310 3.0190341
1308 2.894731
1306 2.7747343
1304 2.6913996
1302 2.6576109
1300 2.6827214
1298 2.7775438
1296 2.9544716
1294 3.2275872
1292 3.6058586
1290 4.0874019
1288 4.659812
1286 5.294096
1284 5.9454217
1282 6.5489898
1280 7.0460577
1278 7.4014859
1276 7.6117187
1274 7.7212548
1272 7.7891107
1270 7.8779511
1268 8.0371323
1266 8.2885952
1264 8.6409721
1262 9.0902252
1260 9.6316738
1258 10.264
1256 10.985628
1254 11.793471
1252 12.680029
1250 13.633099
1248 14.639737
1246 15.68475
1244 16.742504
1242 17.772448
1240 18.717154
1238 19.500969
1236 20.047173
1234 20.287481
1232 20.169321
1230 19.67153
1228 18.80677
1226 17.642256
1224 16.263617
1222 14.769427
1220 13.260345
1218 11.84391
1216 10.62416
1214 9.6896505
1212 9.0989428
1210 8.8435316
1208 8.8719063
1206 9.074337
1204 9.3221579
1202 9.4790049
1200 9.4300756
1198 9.1140499
1196 8.5216427
1194 7.7276907
1192 6.8327456
1190 5.9462051
1188 5.1516948
1186 4.4717207
1184 3.9038124
1182 3.4241011
1180 3.016536
1178 2.692086
1176 2.46664
1174 2.3512967
1172 2.3400838
1170 2.3926849
1168 2.4633212
1166 2.5139928
1164 2.5213716
1162 2.491482
1160 2.4357736
1158 2.3617747
1156 2.2699986
1154 2.1473906
1152 1.978932
1150 1.7540253
1148 1.471778
1146 1.1513785
1144 0.82156682
1142 0.52056873
1140 0.27088395
1138 0.055314802
1136 -0.13649601
1134 -0.27753511
1132 -0.34222582
1130 -0.33074668
1128 -0.26051536
1126 -0.17398849
1124 -0.10629123
1122 -0.059741154
1120 -0.02398872
1118 0.021694493
1116 0.087478146
1114 0.15216416
1112 0.19338399
1110 0.20516419
1108 0.19195688
1106 0.174309
1104 0.17525245
1102 0.21405847
1100 0.30596316
1098 0.45757639
1096 0.66664571
1094 0.9141109
1092 1.182714
1090 1.4704137
1088 1.7809857
1086 2.12236
1084 2.4908144
1082 2.8486633
1080 3.1510904
1078 3.35622
1076 3.4329472
1074 3.3782809
1072 3.2093995
1070 2.9810901
1068 2.7587867
1066 2.6108851
1064 2.5816679
1062 2.6469104
1060 2.7581151
1058 2.8472836
1056 2.8571913
1054 2.7746639
1052 2.6090679
1050 2.4031141
1048 2.2064056
1046 2.0648036
1044 2.0067854
1042 2.0134027
1040 2.0542417
1038 2.098511
1036 2.12661
1034 2.1506231
1032 2.183568
1030 2.2179918
1028 2.2367578
1026 2.2093992
1024 2.1081073
1022 1.9226921
1020 1.6574188
1018 1.3455923
1016 1.0272305
1014 0.74130619
1012 0.51287341
1010 0.32569531
1008 0.1577868
1006 0.00062774122
1004 -0.14983337
1002 -0.29445812
1000 -0.44144914
998 -0.6236009
996 -0.86524069
994 -1.1442701
992 -1.4209119
990 -1.6365274
988 -1.7427891
986 -1.7414999
984 -1.6552943
982 -1.5353518
980 -1.431016
978 -1.362178
976 -1.3341914
974 -1.3289496
972 -1.3259603
970 -1.3173592
968 -1.2990549
966 -1.270285
964 -1.2264329
962 -1.1484432
960 -1.0146396
958 -0.80668986
956 -0.52250296
954 -0.21303751
952 0.057206005
950 0.22327374
948 0.24699903
946 0.18458036
944 0.099256113
942 -0.0040486604
940 -0.12688802
938 -0.24222919
936 -0.31674972
934 -0.3204633
932 -0.22977725
930 -0.041976407
928 0.22961637
926 0.5316844
924 0.8085888
922 1.0334938
920 1.1935891
918 1.3031902
916 1.3852071
914 1.4699941
912 1.5865674
910 1.750159
908 1.9555248
906 2.132443
904 2.2076435
902 2.1623676
900 2.0150084
898 1.8784152
896 1.8891
