##TITLE=Methyl Ethyl Ketone
##JCAMP-DX=4.24
##DATA TYPE=INFRARED SPECTRUM
##XUNITS=cm-1
##YUNITS=Absorbance
##FIRSTX=900
##LASTX=2300
##XYDATA=(X++(Y..Y))
2296 0.00069194997
2294 0.00070643926
2292 0.00072075904
2290 0.00073518808
2288 0.0007495975
2286 0.00076399697
2284 0.00077831704
2282 0.00079271581
2280 0.00080709544
2278 0.00082146499
2276 0.00083591329
2274 0.00085030356
2272 0.00086467329
2270 0.00087908201
2268 0.0008934522
2266 0.00090786081
2264 0.00092228974
2262 0.00093671907
2260 0.00095101201
2258 0.00096543779
2256 0.00097988662
2254 0.00099421944
2252 0.0010086459
2250 0.0010230269
2248 0.0010374063
2246 0.0010517857
2244 0.011844677
2242 0.00047292429
2240 -0.03039936
2238 -0.1313996
2236 -0.24259415
2234 -0.39403436
2232 -0.54484123
2230 -0.61641997
2228 -0.67028356
2226 -0.61278248
2224 -0.54660642
2222 -0.46646196
2220 -0.40945643
2218 -0.42507964
2216 -0.454494
2214 -0.50507015
2212 -0.52724838
2210 -0.5010919
2208 -0.4601649
2206 -0.40452245
2204 -0.39561996
2202 -0.43270421
2200 -0.51904231
2198 -0.63997132
2196 -0.72537506
2194 -0.7889483
2192 -0.78772205
2190 -0.7586903
2188 -0.71742386
2186 -0.67277944
2184 -0.656232
2182 -0.64620823
2180 -0.67549312
2178 -0.7106629
2176 -0.75130945
2174 -0.79199326
2172 -0.82751292
2170 -0.8592031
2168 -0.87168813
2166 -0.87132651
2164 -0.83088571
2162 -0.79363835
2160 -0.77482754
2158 -0.7736578
2156 -0.80247402
2154 -0.82154775
2152 -0.82204813
2150 -0.81939203
2148 -0.81536192
2146 -0.83576822
2144 -0.87790293
2142 -0.92971307
2140 -0.98663068
2138 -1.0313292
2136 -1.06906
2134 -1.0634844
2132 -1.0400403
2130 -0.989829
2128 -0.93158519
2126 -0.92876232
2124 -0.93895471
2122 -0.98116082
2120 -1.0266001
2118 -1.0397192
2116 -1.0464643
2114 -1.041036
2112 -1.0378417
2110 -1.0527617
2108 -1.0770025
2106 -1.1214535
2104 -1.1602572
2102 -1.1796136
2100 -1.1776
2098 -1.144446
2096 -1.1100429
2094 -1.0797853
2092 -1.0724245
2090 -1.0882748
2088 -1.1206446
2086 -1.16422
2084 -1.1883109
2082 -1.1986855
2080 -1.1763201
2078 -1.1375531
2076 -1.1120671
2074 -1.0928495
2072 -1.0966201
2070 -1.1075436
2068 -1.0763329
2066 -1.0342985
2064 -0.99023265
2062 -0.95231247
2060 -0.98553985
2058 -1.0344224
2056 -1.0925143
2054 -1.1453151
2052 -1.1712923
2050 -1.1914682
2048 -1.2093177
2046 -1.2249678
2044 -1.2366381
2042 -1.2445756
2040 -1.2491685
2038 -1.2545495
2036 -1.2629286
2034 -1.2571217
2032 -1.2368994
2030 -1.2099199
2028 -1.1788067
2026 -1.1946543
2024 -1.2404275
2022 -1.3096367
2020 -1.3883286
2018 -1.4290243
2016 -1.45384
2014 -1.4496359
2012 -1.4370371
2010 -1.4017757
2008 -1.3617874
2006 -1.3348886
2004 -1.3191575
2002 -1.3558
2000 -1.4078578
1998 -1.4655988
1996 -1.5177214
1994 -1.5463033
1992 -1.572024
1990 -1.6080413
1988 -1.64224
1986 -1.6737136
1984 -1.6708857
1982 -1.6210141
1980 -1.5518837
1978 -1.4712436
1976 -1.4034686
1974 -1.348883
1972 -1.2448251
1970 -1.1001108
1968 -0.93930614
1966 -0.7732349
1964 -0.74824274
1962 -0.79937273
1960 -0.9305436
1958 -1.0929315
1956 -1.2139143
1954 -1.3184186
1952 -1.3869451
1950 -1.4414284
1948 -1.4549254
1946 -1.4493001
1944 -1.4141635
1942 -1.3678843
1940 -1.3292288
1938 -1.2993344
1936 -1.2896743
1934 -1.2948798
1932 -1.3129841
1930 -1.3463703
1928 -1.3930572
1926 -1.4156172
1924 -1.3985869
1922 -1.2891129
1920 -1.0937651
1918 -0.89767885
1916 -0.72477645
1914 -0.67095244
1912 -0.70344436
1910 -0.79020321
1908 -0.89979011
1906 -0.99668062
1904 -1.0855041
1902 -1.1220565
1900 -1.1361663
1898 -1.0670403
1896 -0.96515
1894 -0.84651357
1892 -0.72874397
1890 -0.66795677
1888 -0.64352602
1886 -0.68947977
1884 -0.77279639
1882 -0.89190334
1880 -1.0173258
1878 -1.123522
1876 -1.18932
1874 -1.1844715
1872 -1.1004086
1870 -0.92729098
1868 -0.74063087
1866 -0.5817039
1864 -0.54421842
1862 -0.63547748
1860 -0.79234356
1858 -0.97455174
1856 -1.1253915
1854 -1.2434188
1852 -1.3165717
1850 -1.3599217
1848 -1.3621759
1846 -1.3383286
1844 -1.3531032
1842 -1.3883526
1840 -1.5180696
1838 -1.694363
1836 -1.8630857
1834 -2.008822
1832 -2.0268228
1830 -1.9350774
1828 -1.6620014
1826 -1.3231601
1824 -1.0374326
1822 -0.87878937
1820 -0.94212723
1818 -1.1140717
1816 -1.3136486
1814 -1.4535567
1812 -1.4881914
1810 -1.4453907
1808 -1.3536228
1806 -1.25033
1804 -1.1514643
1802 -1.0805718
1800 -1.0301223
1798 -0.98639798
1796 -0.94308215
1794 -0.83488941
1792 -0.6860652
1790 -0.52818495
1788 -0.37481299
1786 -0.29743472
1784 -0.26801354
1782 -0.2514405
1780 -0.23534177
1778 -0.15741271
1776 -0.035954975
1774 0.13260478
1772 0.29843813
1770 0.35599199
1768 0.33107144
1766 0.21989399
1764 0.10653674
1762 0.081129059
1760 0.033044402
1758 -0.10491771
1756 -0.21812385
1754 -0.24647206
1752 -0.084852174
1750 0.2788268
1748 0.72315431
1746 1.1831592
1744 1.3702852
1742 1.283301
1740 1.0500381
1738 0.74411201
1736 0.65401399
1734 0.74539411
1732 0.84726161
1730 0.92964566
1728 0.735165
1726 0.35826981
1724 0.061432242
1722 -0.12497029
1720 0.097450569
1718 0.73559338
1716 1.76301
1714 2.9315689
1712 3.9029572
1710 4.7190518
1708 5.4439759
1706 6.3294373
1704 7.6253543
1702 9.6005297
1700 12.37286
1698 15.921987
1696 20.082857
1694 23.979361
1692 27.276669
1690 30.140375
1688 32.740875
1686 36.052792
1684 40.149269
1682 45.017258
1680 50.450802
1678 55.08997
1676 58.994244
1674 62.837833
1672 66.727997
1670 71.274719
1668 76.299721
1666 81.198601
1664 85.908821
1662 90.217285
1660 94.110069
1658 97.538406
1656 100.44251
1654 102.74661
1652 104.271
1650 104.84309
1648 104.28914
1646 102.51036
1644 100.03315
1642 97.367645
1640 94.489777
1638 91.434578
1636 87.698669
1634 83.146988
1632 78.325974
1630 73.454666
1628 68.827469
1626 64.489983
1624 60.005562
1622 55.328827
1620 50.786331
1618 46.404423
1616 42.366028
1614 38.682224
1612 35.43095
1610 32.625191
1608 30.260702
1606 28.3176
1604 26.653645
1602 25.282993
1600 24.18136
1598 23.357964
1596 22.7855
1594 22.438393
1592 22.247309
1590 22.187052
1588 22.212635
1586 22.368216
1584 22.679777
1582 23.17137
1580 23.847008
1578 24.725348
1576 25.8008
1574 27.046019
1572 28.432312
1570 29.822521
1568 31.182001
1566 32.481735
1564 33.724659
1562 35.141277
1560 36.814678
1558 39.199696
1556 42.312099
1554 45.408901
1552 48.303486
1550 50.416958
1548 51.786907
1546 52.933643
1544 53.819012
1542 54.440487
1540 54.57782
1538 53.908134
1536 52.557884
1534 50.817421
1532 48.928921
1530 47.214203
1528 45.639633
1526 44.170349
1524 42.644127
1522 40.947079
1520 39.000309
1518 36.724487
1516 34.483757
1514 32.405037
1512 30.402081
1510 28.496906
1508 26.089222
1506 23.022663
1504 19.930513
1502 16.874012
1500 14.423331
1498 12.656501
1496 10.990429
1494 9.427104
1492 7.8474965
1490 6.2759147
1488 4.7607131
1486 3.3492856
1484 2.1045599
1482 1.0885735
1480 0.38007492
1478 0.013291314
1476 0.016400978
1474 0.44391662
1472 1.2362559
1470 2.142365
1468 2.9799669
1466 3.6904972
1464 4.2461429
1462 4.8118725
1460 5.4735188
1458 6.1729975
1456 6.89502
1454 7.4044442
1452 7.5565405
1450 7.5150366
1448 7.1993647
1446 6.8204966
1444 6.3601985
1442 5.8962412
1440 5.4452457
1438 5.0481625
1436 4.7173772
1434 4.3780603
1432 4.0349197
1430 3.6864839
1428 3.3650219
1426 3.163353
1424 3.0904658
1422 3.1418583
1420 3.2955041
1418 3.4949369
1416 3.7318971
1414 3.9926379
1412 4.2659979
1410 4.5724802
1408 4.8924637
1406 5.227107
1404 5.5606213
1402 5.8728585
1400 6.1477122
1398 6.3527675
1396 6.4820142
1394 6.4736705
1392 6.4115219
1390 6.2417617
1388 6.0435381
1386 5.7944751
1384 5.5131311
1382 5.1871104
1380 4.8387303
1378 4.4632134
1376 4.060977
1374 3.6450996
1372 3.2345679
1370 2.8426545
1368 2.497211
1366 2.1658921
1364 1.8069125
1362 1.4199661
1360 0.99201667
1358 0.58845091
1356 0.28928772
1354 0.082085319
1352 0.01719024
1350 0.019492164
1348 0.086792782
1346 0.18038964
1344 0.29826838
1342 0.43762735
1340 0.6209178
1338 0.78989625
1336 0.91655374
1334 0.99375093
1332 0.96055686
1330 0.92117941
1328 0.87807786
1326 0.8802104
1324 0.96431726
1322 1.1041565
1320 1.3194126
1318 1.551949
1316 1.79179
1314 1.9878099
1312 2.1286452
1310 2.2222755
1308 2.2663913
1306 2.277662
1304 2.2597647
1302 2.2121251
1300 2.1554575
1298 2.102129
1296 2.0562143
1294 2.021102
1292 1.9953905
1290 1.9849737
1288 1.991672
1286 2.0354879
1284 2.0906858
1282 2.1659369
1280 2.2447336
1278 2.3296199
1276 2.4125371
1274 2.4954669
1272 2.5785239
1270 2.6691225
1268 2.7822859
1266 2.9337792
1264 3.1340873
1262 3.3979979
1260 3.7139699
1258 4.0797076
1256 4.4521227
1254 4.825294
1252 5.1836729
1250 5.5381355
1248 5.9124012
1246 6.3043752
1244 6.7196922
1242 7.1342793
1240 7.513988
1238 7.8453083
1236 8.0502787
1234 8.1748323
1232 8.1157045
1230 7.9764833
1228 7.6376257
1226 7.2355442
1224 6.667645
1222 6.0757756
1220 5.4310584
1218 4.811955
1216 4.24822
1214 3.7285404
1212 3.2829335
1210 2.8590829
1208 2.4658103
1206 2.0832286
1204 1.7147959
1202 1.3606923
1200 1.0155046
1198 0.65305716
1196 0.27486086
1194 -0.11946326
1192 -0.51168513
1190 -0.85660553
1188 -1.1632657
1186 -1.3977692
1184 -1.591796
1182 -1.7164693
1180 -1.799198
1178 -1.7738429
1176 -1.70516
1174 -1.5197963
1172 -1.315396
1170 -1.0651774
1168 -0.81687576
1166 -0.5767678
1164 -0.34299862
1162 -0.12587164
1160 0.079860911
1158 0.26035184
1156 0.41588157
1154 0.52564698
1152 0.59146088
1150 0.59337789
1148 0.5457142
1146 0.44345605
1144 0.32105085
1142 0.18756659
1140 0.086251371
1138 0.01946415
1136 0.023144657
1134 0.084373847
1132 0.28722668
1130 0.56549668
1128 0.95616502
1126 1.3730571
1124 1.7677423
1122 2.1391957
1120 2.4083159
1118 2.6507127
1116 2.8004014
1114 2.9343941
1112 3.0092635
1110 3.0825248
1108 3.1518388
1106 3.2330151
1104 3.3433738
1102 3.457319
1100 3.5794847
1098 3.7114246
1096 3.8662858
1094 4.0807476
1092 4.379652
1090 4.7700481
1088 5.2558713
1086 5.7966757
1084 6.3706746
1082 6.8841252
1080 7.3370671
1078 7.6112981
1076 7.7819371
1074 7.784287
1072 7.7273636
1070 7.6403046
1068 7.5592513
1066 7.5718994
1064 7.6049519
1062 7.699666
1060 7.789094
1058 7.8238707
1056 7.8418489
1054 7.7875876
1052 7.7380667
1050 7.7075219
1048 7.7202291
1046 7.839118
1044 7.9967136
1042 8.2226419
1040 8.4296045
1038 8.6045609
1036 8.7321997
1034 8.8027353
1032 8.8293829
1030 8.8077536
1028 8.6831141
1026 8.4775753
1024 8.1606684
1022 7.7849221
1020 7.4009428
1018 7.012116
1016 6.6074085
1014 6.1919851
1012 5.7037802
1010 5.2009859
1008 4.6708522
1006 4.1438251
1004 3.6795146
1002 3.2285872
1000 2.864289
998 2.4976599
996 2.1187143
994 1.7145829
992 1.2317247
990 0.74155343
988 0.23824015
986 -0.20169806
984 -0.52507782
982 -0.74212867
980 -0.81571859
978 -0.86170495
976 -0.87982857
974 -0.90329999
972 -0.92541063
970 -0.84542263
968 -0.69999766
966 -0.49385101
964 -0.26755995
962 -0.18746795
960 -0.16063416
958 -0.25653589
956 -0.37374184
954 -0.37575114
952 -0.35877159
950 -0.21716653
948 -0.076224543
946 -0.016417179
944 0.010945406
942 -0.00035991706
940 -0.0092980899
938 0.043453809
936 0.10113268
934 0.17314157
932 0.2301126
930 0.25497049
928 0.2758128
926 0.29107264
924 0.34003481
922 0.43147689
920 0.5943073
918 0.82294643
916 1.0437785
914 1.2571424
912 1.3294863
910 1.327441
908 1.2413989
906 1.1262364
904 1.215524
902 1.3608401
900 1.8130362
898 2.3149197
896 2.7479999
