Image.
>Pix99999.
  .
5555
5555
2300
900
5555
2
1
0
701
5555
-1.4950000e-002
-1.5267545e-002
-1.5585091e-002
-1.5902637e-002
-1.6220182e-002
-1.6538722e-002
-1.6856275e-002
-1.7173821e-002
-1.7491367e-002
-1.7808912e-002
-1.8126458e-002
-1.8444002e-002
-1.8761547e-002
-1.9079093e-002
-1.9396640e-002
-1.9714186e-002
-2.0032708e-002
-2.0350277e-002
-2.0667823e-002
-2.0985369e-002
-2.1302914e-002
-2.1620460e-002
-2.1938005e-002
-2.2255551e-002
-2.2573099e-002
-2.2890644e-002
-8.5064577e-004
1.6543303e-002
2.9639959e-002
4.7698900e-002
6.6547960e-002
9.0232067e-002
1.1652140e-001
1.9354884e-001
2.7520296e-001
3.7457898e-001
4.5550469e-001
4.4818798e-001
4.1560376e-001
3.2052177e-001
2.3743229e-001
1.8823808e-001
1.6773221e-001
1.9074945e-001
2.2363995e-001
2.6548916e-001
3.1486890e-001
3.7093106e-001
4.4470823e-001
5.3139311e-001
6.0118359e-001
6.6073507e-001
6.6091055e-001
6.3534701e-001
5.6671435e-001
4.8462537e-001
4.3524638e-001
3.9358300e-001
4.6473786e-001
5.5309677e-001
6.7526144e-001
7.9203838e-001
8.1272346e-001
8.1244868e-001
7.4429524e-001
6.6461551e-001
5.6702334e-001
4.7341484e-001
3.9460081e-001
3.4511852e-001
3.4839600e-001
3.6767274e-001
4.0221760e-001
4.2635334e-001
4.3698427e-001
4.7107607e-001
5.2717179e-001
6.0822660e-001
7.0508200e-001
7.7733612e-001
8.3531457e-001
8.8695049e-001
9.3642020e-001
1.0143889e+000
1.1013640e+000
1.1858757e+000
1.2696046e+000
1.3104625e+000
1.3420777e+000
1.3259243e+000
1.3040029e+000
1.2902380e+000
1.2876446e+000
1.3291229e+000
1.3646746e+000
1.3632364e+000
1.3211417e+000
1.2015806e+000
1.0884559e+000
1.0054820e+000
1.0057943e+000
1.1095300e+000
1.2595414e+000
1.4420254e+000
1.5781572e+000
1.6719850e+000
1.7137120e+000
1.7247300e+000
1.6921406e+000
1.6388888e+000
1.5311643e+000
1.4019680e+000
1.2958400e+000
1.1979231e+000
1.1760889e+000
1.1734793e+000
1.2018994e+000
1.2379160e+000
1.2889802e+000
1.3410110e+000
1.3821971e+000
1.4158648e+000
1.4307480e+000
1.4432509e+000
1.4599000e+000
1.4590571e+000
1.4231861e+000
1.3817749e+000
1.3415326e+000
1.3543481e+000
1.4299057e+000
1.5038941e+000
1.5652366e+000
1.5737270e+000
1.5427785e+000
1.5461736e+000
1.5760137e+000
1.6681761e+000
1.7908022e+000
1.8578750e+000
1.8995800e+000
1.8172413e+000
1.6934223e+000
1.5614721e+000
1.4322932e+000
1.3775157e+000
1.3465946e+000
1.3517760e+000
1.3707291e+000
1.4123893e+000
1.4687786e+000
1.5542601e+000
1.6475754e+000
1.7396351e+000
1.8112580e+000
1.8445636e+000
1.8413514e+000
1.7999592e+000
1.7279960e+000
1.6328597e+000
1.5342686e+000
1.4380341e+000
1.3920974e+000
1.3849000e+000
1.4205056e+000
1.4786328e+000
1.4904536e+000
1.4751328e+000
1.4289520e+000
1.3705132e+000
1.3585986e+000
1.3635564e+000
1.3691239e+000
1.3723822e+000
1.3643585e+000
1.3612000e+000
1.4010737e+000
1.4553688e+000
1.5031301e+000
1.5374751e+000
1.5398772e+000
1.5365913e+000
1.5443140e+000
1.5351613e+000
1.4972126e+000
1.4162636e+000
1.2917105e+000
1.1856854e+000
1.1102434e+000
1.1002949e+000
1.1393186e+000
1.1830218e+000
1.2222674e+000
1.2241086e+000
1.2033792e+000
1.1818386e+000
1.1612680e+000
1.1675720e+000
1.1854237e+000
1.2338291e+000
1.2962857e+000
1.3996577e+000
1.5131820e+000
1.5831430e+000
1.6105040e+000
1.5219157e+000
1.3894105e+000
1.2536016e+000
1.1335069e+000
1.0555698e+000
9.7075301e-001
8.5204595e-001
7.2469199e-001
6.0451096e-001
5.7202089e-001
6.3958246e-001
7.7498281e-001
9.4554329e-001
1.0695506e+000
1.1460202e+000
1.1176029e+000
1.0191785e+000
7.7974355e-001
4.5739001e-001
5.6576282e-002
-3.7984145e-001
-5.7807082e-001
-6.3907868e-001
-3.7686741e-001
3.4372866e-002
4.4793540e-001
8.3894944e-001
1.1246870e+000
1.3263539e+000
1.3898298e+000
1.3717693e+000
1.2810651e+000
1.1848030e+000
1.1414200e+000
1.1144356e+000
1.0872171e+000
1.0197365e+000
8.9758396e-001
7.8851813e-001
7.1609199e-001
7.0752901e-001
7.5378346e-001
6.9401240e-001
5.2676916e-001
2.2634941e-001
-1.6092001e-001
-3.5296166e-001
-3.9934000e-001
-1.9182262e-001
1.6014382e-001
4.6366373e-001
7.2094369e-001
8.3547431e-001
8.5072017e-001
7.4524671e-001
5.8170712e-001
4.4616589e-001
3.7448713e-001
4.4157255e-001
5.4094368e-001
5.4567730e-001
4.6263218e-001
3.0076599e-001
8.6732455e-002
-1.5260479e-001
-3.6170787e-001
-5.1359457e-001
-7.3401475e-001
-1.0586017e+000
-1.4516437e+000
-1.8866322e+000
-2.1952753e+000
-2.3805194e+000
-2.4152586e+000
-2.3413510e+000
-2.1403999e+000
-1.8496314e+000
-1.4627908e+000
-1.0217359e+000
-6.9548422e-001
-4.6231747e-001
-3.1474531e-001
-2.0308220e-001
6.8289265e-002
5.5568087e-001
1.3338203e+000
2.2364941e+000
3.0408771e+000
3.7244911e+000
4.2679644e+000
4.8453178e+000
5.6320524e+000
6.9177799e+000
8.8573103e+000
1.1837730e+001
1.5895572e+001
2.0241020e+001
2.4470295e+001
2.8220629e+001
3.1488092e+001
3.5117706e+001
3.9232880e+001
4.4059555e+001
4.9451958e+001
5.4191269e+001
5.8315269e+001
6.2328182e+001
6.6337845e+001
7.0978180e+001
7.6079178e+001
8.1071449e+001
8.5892914e+001
9.0330978e+001
9.4380836e+001
9.8012688e+001
1.0116366e+002
1.0374904e+002
1.0559460e+002
1.0653851e+002
1.0635178e+002
1.0490179e+002
1.0260894e+002
9.9913895e+001
9.6883400e+001
9.3616028e+001
8.9762802e+001
8.5246101e+001
8.0524536e+001
7.5779922e+001
7.1163139e+001
6.6698250e+001
6.2029758e+001
5.7132629e+001
5.2408932e+001
4.7890835e+001
4.3805515e+001
4.0162846e+001
3.7015244e+001
3.4354530e+001
3.2068417e+001
3.0135065e+001
2.8420097e+001
2.6965683e+001
2.5816793e+001
2.4974943e+001
2.4395500e+001
2.4039915e+001
2.3821915e+001
2.3724215e+001
2.3712839e+001
2.3781706e+001
2.3920069e+001
2.4115740e+001
2.4361448e+001
2.4743032e+001
2.5289028e+001
2.6071989e+001
2.7098141e+001
2.8244638e+001
2.9479160e+001
3.0677750e+001
3.1827282e+001
3.3064457e+001
3.4462303e+001
3.6555111e+001
3.9400387e+001
4.2525188e+001
4.5739456e+001
4.8232296e+001
4.9964172e+001
5.1222717e+001
5.1981937e+001
5.2350834e+001
5.2312401e+001
5.1895428e+001
5.1100430e+001
4.9995041e+001
4.8629379e+001
4.7119560e+001
4.5498440e+001
4.3796303e+001
4.1992474e+001
4.0064705e+001
3.8173702e+001
3.6376175e+001
3.4692471e+001
3.3143875e+001
3.1386162e+001
2.9336842e+001
2.6821354e+001
2.3745972e+001
2.0837914e+001
1.8182199e+001
1.5977689e+001
1.4268120e+001
1.2556714e+001
1.0850935e+001
9.1603642e+000
7.5242949e+000
6.0110850e+000
4.6517920e+000
3.4489522e+000
2.4163780e+000
1.5532743e+000
8.7257767e-001
3.6548501e-001
1.6791651e-001
4.0984708e-001
9.7975087e-001
1.7692683e+000
2.5299091e+000
3.1207607e+000
3.5596321e+000
3.8250678e+000
4.0674310e+000
4.3196998e+000
4.6371675e+000
5.0384264e+000
5.3640294e+000
5.5603352e+000
5.6589036e+000
5.6198144e+000
5.5132170e+000
5.3135295e+000
5.0330482e+000
4.6563368e+000
4.2089076e+000
3.7110960e+000
3.2525074e+000
2.8562720e+000
2.5669208e+000
2.4001229e+000
2.3614938e+000
2.4736757e+000
2.7480626e+000
3.1410913e+000
3.6108620e+000
4.0673385e+000
4.4489903e+000
4.7561960e+000
4.9677544e+000
5.1254106e+000
5.2133927e+000
5.2751122e+000
5.3030648e+000
5.3527861e+000
5.4442945e+000
5.5808110e+000
5.7694969e+000
5.8934617e+000
5.8986449e+000
5.7707243e+000
5.4597402e+000
5.0751185e+000
4.6072574e+000
4.1197314e+000
3.6384230e+000
3.2174382e+000
2.8700814e+000
2.5984452e+000
2.3489857e+000
2.0306273e+000
1.6540328e+000
1.2228980e+000
8.1069130e-001
5.0600529e-001
2.7635631e-001
1.4123857e-001
4.5747884e-002
-8.8475773e-004
-1.9734874e-003
4.1686196e-004
-4.7783805e-003
-2.3241404e-002
1.4671460e-003
1.1624166e-001
3.0570036e-001
6.0707623e-001
8.9463556e-001
1.1490234e+000
1.3487092e+000
1.4848797e+000
1.6231300e+000
1.7892423e+000
2.0316625e+000
2.3611398e+000
2.7342629e+000
3.1145468e+000
3.4167569e+000
3.6345901e+000
3.7673323e+000
3.8444703e+000
3.8954220e+000
3.9257927e+000
3.9248869e+000
3.9147716e+000
3.9022317e+000
3.9072187e+000
3.9584916e+000
4.0202560e+000
4.0908570e+000
4.1516685e+000
4.1832643e+000
4.2082705e+000
4.2174282e+000
4.2218385e+000
4.2230301e+000
4.2441564e+000
4.3108883e+000
4.4428067e+000
4.6738596e+000
4.9707890e+000
5.3446660e+000
5.7427859e+000
6.1614485e+000
6.5729027e+000
6.9738126e+000
7.3566198e+000
7.7293005e+000
8.1062937e+000
8.4943504e+000
8.9099894e+000
9.3240242e+000
9.6960049e+000
1.0011727e+001
1.0181972e+001
1.0289069e+001
1.0277240e+001
1.0235381e+001
1.0134389e+001
9.9952869e+000
9.7506733e+000
9.4578695e+000
9.0502701e+000
8.6188059e+000
8.1410942e+000
7.6598816e+000
7.1730809e+000
6.6835032e+000
6.1892948e+000
5.6902900e+000
5.1848202e+000
4.6756945e+000
4.1638746e+000
3.6537151e+000
3.1507001e+000
2.6721575e+000
2.2262127e+000
1.8590701e+000
1.5491548e+000
1.3328714e+000
1.1556126e+000
1.0129601e+000
8.9643717e-001
8.5538381e-001
8.5733598e-001
9.9218041e-001
1.1287560e+000
1.2392735e+000
1.3082452e+000
1.2490350e+000
1.1665488e+000
1.0274447e+000
8.8383508e-001
7.3187685e-001
5.7997602e-001
4.2986655e-001
2.8869611e-001
1.6256756e-001
5.6359299e-002
-2.3897965e-002
-7.3298447e-002
-8.5364744e-002
-3.6117658e-002
5.1106945e-002
2.2720970e-001
4.7351241e-001
7.9348898e-001
1.1366018e+000
1.4536211e+000
1.7569557e+000
2.0259805e+000
2.2953453e+000
2.5987198e+000
2.9036164e+000
3.1988442e+000
3.4753740e+000
3.6747787e+000
3.8678665e+000
4.0426903e+000
4.2298651e+000
4.4475317e+000
4.6726408e+000
4.9119153e+000
5.1521316e+000
5.3962860e+000
5.6584082e+000
5.9455223e+000
6.2559719e+000
6.5842390e+000
6.8807364e+000
7.1430006e+000
7.3327966e+000
7.4693351e+000
7.5298581e+000
7.5487056e+000
7.5127215e+000
7.4622941e+000
7.4376016e+000
7.4251966e+000
7.4626188e+000
7.5092483e+000
7.5770864e+000
7.6405034e+000
7.6670318e+000
7.6651917e+000
7.5380936e+000
7.3840461e+000
7.1437140e+000
6.8866434e+000
6.5871606e+000
6.2578316e+000
5.8730659e+000
5.4819236e+000
5.0855379e+000
4.7330599e+000
4.4350715e+000
4.1873412e+000
3.9832649e+000
3.7693911e+000
3.5450692e+000
3.2802057e+000
2.9967251e+000
2.7405849e+000
2.4997780e+000
2.3141258e+000
2.1369667e+000
1.8914808e+000
1.6243536e+000
1.2415729e+000
8.5096049e-001
4.8014766e-001
1.1680087e-001
-1.9666165e-001
-4.9972934e-001
-7.5579929e-001
-9.8499227e-001
-1.1312549e+000
-1.2707257e+000
-1.3950217e+000
-1.5269022e+000
-1.6678314e+000
-1.7506133e+000
-1.7487459e+000
-1.6305366e+000
-1.3889743e+000
-1.0868649e+000
-7.3837090e-001
-4.1929874e-001
-1.1977868e-001
1.4166550e-001
3.8194686e-001
5.4114097e-001
6.6572911e-001
6.1680037e-001
5.2798855e-001
3.7898558e-001
2.2680879e-001
1.7352036e-001
1.2455023e-001
8.0899999e-002
3.4816895e-002
-3.3205450e-003
-1.0313366e-001
-1.6851901e-001
-2.1621944e-001
-2.1031526e-001
-1.4031640e-001
6.7994088e-002
3.5822403e-001
7.7975750e-001
1.2314820e+000
1.7189157e+000
2.1544497e+000
2.5388069e+000
2.7342930e+000
2.7949731e+000
2.7221680e+000
2.5800662e+000
2.4869702e+000
2.4140821e+000
2.4116971e+000
2.4296029e+000
2.6633689e+000
2.9323311e+000
3.3735001e+000
