##TITLE=Methyl Ethyl Ketone
##JCAMP-DX=4.24
##DATA TYPE=INFRARED SPECTRUM
##XUNITS=cm-1
##YUNITS=Absorbance
##FIRSTX=900
##LASTX=2300
##XYDATA=(X++(Y..Y))
2296 0.074231997
2294 0.07580974
2292 0.077386484
2290 0.078964226
2288 0.080540977
2286 0.082117721
2284 0.083695456
2282 0.085272215
2280 0.086849943
2278 0.088426694
2276 0.090003438
2274 0.091581173
2272 0.093157932
2270 0.09473566
2268 0.096312419
2266 0.097890146
2264 0.099466912
2262 0.1010417
2260 0.10261937
2258 0.10419711
2256 0.10577486
2254 0.1073526
2252 0.10893034
2250 0.11050808
2248 0.11208583
2246 0.11366357
2244 0.06691166
2242 0.0025112312
2240 -0.083598718
2238 -0.13116479
2236 -0.17290628
2234 -0.14389689
2232 -0.11015788
2230 -0.084789522
2228 -0.067928605
2226 -0.1156464
2224 -0.17188914
2222 -0.25204897
2220 -0.32268295
2218 -0.3603332
2216 -0.38231856
2214 -0.37414396
2212 -0.38487759
2210 -0.42937499
2208 -0.50830787
2206 -0.62755775
2204 -0.71560842
2202 -0.77112055
2200 -0.78076428
2198 -0.7577275
2196 -0.78182995
2194 -0.83436781
2192 -0.94546366
2190 -1.0813711
2188 -1.1709812
2186 -1.2448642
2184 -1.209476
2182 -1.1491323
2180 -1.0254217
2178 -0.89297414
2176 -0.80276662
2174 -0.72377372
2172 -0.72795004
2170 -0.74386209
2168 -0.78189999
2166 -0.81129748
2164 -0.80129528
2162 -0.77758986
2160 -0.72884929
2158 -0.69390553
2156 -0.689973
2154 -0.72497123
2152 -0.81173629
2150 -0.90875924
2148 -1.0112849
2146 -1.0680929
2144 -1.0841188
2142 -1.055496
2140 -0.9987523
2138 -0.96327674
2136 -0.94096571
2134 -0.98173088
2132 -1.0485797
2130 -1.1255395
2128 -1.205024
2126 -1.2196078
2124 -1.219072
2122 -1.1858855
2120 -1.1496383
2118 -1.1528685
2116 -1.1605357
2114 -1.159325
2112 -1.1506617
2110 -1.1148877
2108 -1.0922856
2106 -1.1214921
2104 -1.1762006
2102 -1.270329
2100 -1.3552359
2098 -1.4147083
2096 -1.4507142
2094 -1.4608766
2092 -1.4636794
2090 -1.4626354
2088 -1.4750012
2086 -1.49896
2084 -1.5469258
2082 -1.6097796
2080 -1.6867652
2078 -1.7700889
2076 -1.8458242
2074 -1.9180828
2072 -1.92404
2070 -1.9086604
2068 -1.8040197
2066 -1.6789836
2064 -1.6064909
2062 -1.5574721
2060 -1.6456468
2058 -1.764617
2056 -1.9043971
2054 -2.022898
2052 -2.0498488
2050 -2.0317822
2048 -1.9438331
2046 -1.8460393
2044 -1.755392
2042 -1.675124
2040 -1.608848
2038 -1.5454837
2036 -1.4829072
2034 -1.4477271
2032 -1.438892
2030 -1.479491
2028 -1.5550177
2026 -1.6476822
2024 -1.7473966
2022 -1.7992519
2020 -1.8254855
2018 -1.8236687
2016 -1.81154
2014 -1.8566546
2012 -1.9217898
2010 -2.0146327
2008 -2.1124427
2006 -2.1735699
2004 -2.2214179
2002 -2.240206
2000 -2.2413383
1998 -2.1964478
1996 -2.1212287
1994 -1.9886316
1992 -1.8558332
1990 -1.7562993
1988 -1.716566
1986 -1.7688478
1984 -1.8616154
1982 -1.9802315
1980 -2.0877967
1978 -2.175611
1976 -2.2442029
1974 -2.2985549
1972 -2.3053274
1970 -2.2777171
1968 -2.2005794
1966 -2.0960929
1964 -2.0370631
1962 -2.0047708
1960 -2.024272
1958 -2.0650668
1956 -2.1100013
1954 -2.156014
1952 -2.2032039
1950 -2.2471976
1948 -2.2513378
1946 -2.2402
1944 -2.2159407
1942 -2.195725
1940 -2.2101665
1938 -2.2332721
1936 -2.2522228
1934 -2.2645109
1932 -2.26387
1930 -2.2691996
1928 -2.2883806
1926 -2.2813041
1924 -2.233938
1922 -2.1055667
1920 -1.9022423
1918 -1.714731
1916 -1.5597172
1914 -1.4980038
1912 -1.5016567
1910 -1.5484707
1908 -1.6144772
1906 -1.7312093
1904 -1.874452
1902 -2.0040281
1900 -2.1263349
1898 -2.1100128
1896 -2.0336571
1894 -1.8811035
1892 -1.7095357
1890 -1.612494
1888 -1.5700674
1886 -1.6421214
1884 -1.764226
1882 -1.9097713
1880 -2.0433977
1878 -2.1283672
1876 -2.15906
1874 -2.1176038
1872 -2.0064046
1870 -1.8242873
1868 -1.66966
1866 -1.5806386
1864 -1.6318691
1862 -1.814375
1860 -2.0255737
1858 -2.2308457
1856 -2.3750658
1854 -2.4716382
1852 -2.4608235
1850 -2.3827617
1848 -2.1478801
1846 -1.8256536
1844 -1.5766292
1842 -1.3770033
1840 -1.4351715
1838 -1.6136359
1836 -1.7750986
1834 -1.8964859
1832 -1.8399394
1830 -1.6783837
1828 -1.4282749
1826 -1.1875836
1824 -1.0822201
1822 -1.1144474
1820 -1.3199099
1818 -1.5940071
1816 -1.8660514
1814 -2.0575538
1812 -2.1323309
1810 -2.0848289
1808 -1.9365594
1806 -1.70884
1804 -1.4299631
1802 -1.1580015
1800 -0.90315747
1798 -0.70541584
1796 -0.55000073
1794 -0.42046887
1792 -0.30606562
1790 -0.27644968
1788 -0.30190736
1786 -0.37198606
1784 -0.45905828
1782 -0.44385889
1780 -0.3520287
1778 -0.12198021
1776 0.19090927
1774 0.54375279
1772 0.84118158
1770 0.89223218
1768 0.75989288
1766 0.46692914
1764 0.1862793
1762 0.080827437
1760 0.026502904
1758 -0.061227858
1756 -0.093961954
1754 -0.031097572
1752 0.25142121
1750 0.76379526
1748 1.3448479
1746 1.9223429
1744 2.1563079
1742 2.0603864
1740 1.8208169
1738 1.5185138
1736 1.43768
1734 1.5368927
1732 1.5355911
1730 1.4377693
1728 1.0261185
1726 0.42621201
1724 0.0031862855
1722 -0.21633729
1720 0.10638589
1718 0.92473233
1716 2.1677542
1714 3.5145392
1712 4.5194674
1710 5.2990179
1708 5.9892502
1706 6.9047451
1704 8.3394642
1702 10.529549
1700 13.564234
1698 17.241007
1696 21.331858
1694 24.99637
1692 27.944475
1690 30.492516
1688 32.840973
1686 35.924213
1684 39.799751
1682 44.45348
1680 49.684921
1678 54.214626
1676 58.088985
1674 61.865036
1672 65.643036
1670 70.00016
1668 74.776871
1666 79.441505
1664 83.936073
1662 88.048065
1660 91.803047
1658 95.233765
1656 98.378914
1654 101.30958
1652 103.7394
1650 105.33475
1648 105.43491
1646 103.54929
1644 100.49876
1642 97.063782
1640 93.547447
1638 90.146614
1636 86.275703
1634 81.735924
1632 76.907387
1630 71.960533
1628 67.313438
1626 63.02623
1624 58.77496
1622 54.504589
1620 50.367603
1618 46.364658
1616 42.477829
1614 38.730225
1612 35.292633
1610 32.211571
1608 29.635298
1606 27.547192
1604 25.807497
1602 24.414915
1600 23.303856
1598 22.481968
1596 21.916
1594 21.582365
1592 21.415222
1590 21.375999
1588 21.408623
1586 21.55092
1584 21.821732
1582 22.30254
1580 23.027254
1578 24.064543
1576 25.424314
1574 26.970978
1572 28.645857
1570 30.225479
1568 31.66016
1566 33.015312
1564 34.305946
1562 35.843994
1560 37.716961
1558 40.312725
1556 43.584
1554 46.50518
1552 48.918823
1550 50.534245
1548 51.488934
1546 52.527824
1544 53.609924
1542 54.624432
1540 55.125999
1538 54.460209
1536 52.825085
1534 50.652927
1532 48.417599
1530 46.636108
1528 45.227516
1526 44.10965
1524 43.030479
1522 41.828884
1520 40.227272
1518 38.06414
1516 35.735985
1514 33.356014
1512 31.13908
1510 29.165154
1508 26.793602
1506 23.875614
1504 20.8064
1502 17.62574
1500 15.011163
1498 13.05498
1496 11.287714
1494 9.7237148
1492 8.2108917
1490 6.7497339
1488 5.2982721
1486 3.868628
1484 2.4789701
1482 1.2519858
1480 0.37075371
1478 -0.075678982
1476 0.00773485
1474 0.62391192
1472 1.6642709
1470 2.7763
1468 3.7066479
1466 4.4714346
1464 5.065578
1462 5.7101536
1460 6.5204005
1458 7.3863811
1456 8.2881794
1454 8.863719
1452 8.9142427
1450 8.7066393
1448 8.150321
1446 7.584518
1444 7.0156131
1442 6.5011263
1440 6.0691915
1438 5.712626
1436 5.4297857
1434 5.107234
1432 4.7275419
1430 4.2762403
1428 3.8139699
1426 3.4999514
1424 3.3887458
1422 3.5342669
1420 3.8656168
1418 4.2638116
1416 4.6199312
1414 4.804996
1412 4.9092617
1410 4.9997272
1408 5.1520209
1406 5.4394999
1404 5.8024421
1402 6.2459426
1400 6.6865239
1398 7.0970521
1396 7.3974285
1394 7.4919195
1392 7.4412737
1390 7.1429496
1388 6.7768912
1386 6.308795
1384 5.8190584
1382 5.310564
1380 4.8391576
1378 4.4259467
1376 4.0731854
1374 3.7801688
1372 3.4813659
1370 3.1677296
1368 2.8250058
1366 2.4558022
1364 2.0771348
1362 1.6867267
1360 1.2765801
1358 0.87727988
1356 0.52640945
1354 0.24421577
1352 0.088014148
1350 0.012723329
1348 0.039452564
1346 0.11871928
1344 0.28703439
1342 0.51027501
1340 0.83216655
1338 1.1290927
1336 1.3564458
1334 1.4680462
1332 1.3637826
1330 1.217252
1328 1.019278
1326 0.89233273
1324 0.88891852
1322 1.0067945
1320 1.2760937
1318 1.5952957
1316 1.93696
1314 2.1861229
1312 2.3291211
1310 2.373462
1308 2.3430746
1306 2.292155
1304 2.229332
1302 2.1652269
1300 2.1033206
1298 2.0466657
1296 1.9977572
1294 1.9631156
1292 1.9401515
1290 1.9385066
1288 1.950776
1286 1.9908392
1284 2.0398469
1282 2.1062279
1280 2.1760476
1278 2.2529554
1276 2.3308129
1274 2.413012
1272 2.5037806
1270 2.6152081
1268 2.7589431
1266 2.9521742
1264 3.1806304
1262 3.4515719
1260 3.7414281
1258 4.0572176
1256 4.405797
1254 4.792532
1252 5.2277465
1250 5.6969013
1248 6.1804523
1246 6.6577749
1244 7.0880594
1242 7.4719782
1240 7.7593312
1238 7.9864669
1236 8.1036568
1234 8.1620836
1232 8.0960112
1230 7.960835
1228 7.6415448
1226 7.2585568
1224 6.7071404
1222 6.131052
1220 5.4984074
1218 4.8729329
1216 4.2653656
1214 3.6860785
1212 3.1630383
1210 2.7017248
1208 2.3345182
1206 2.0343478
1204 1.80611
1202 1.5766318
1200 1.3331417
1198 1.0317949
1196 0.68529999
1194 0.32187784
1192 -0.045018047
1190 -0.38611409
1188 -0.7096557
1186 -1.0075349
1184 -1.2828835
1182 -1.5003173
1180 -1.6733023
1178 -1.7186401
1176 -1.7096001
1174 -1.5504811
1172 -1.3687925
1170 -1.1345078
1168 -0.91223705
1166 -0.72794235
1164 -0.55785787
1162 -0.4221749
1160 -0.28928927
1158 -0.16048513
1156 -0.024022669
1154 0.12054301
1152 0.24025188
1150 0.31694141
1148 0.325991
1146 0.26116323
1144 0.17191938
1142 0.0711568
1140 0.018067453
1138 0.010563299
1136 0.079182006
1134 0.20166901
1132 0.41513517
1130 0.67799503
1128 1.0177643
1126 1.3866215
1124 1.7985326
1122 2.2128212
1120 2.599088
1118 2.9679174
1116 3.2569485
1114 3.5326447
1112 3.756063
1110 3.9547415
1108 4.0720978
1106 4.1526551
1104 4.1460156
1102 4.1534028
1100 4.1960392
1098 4.3069348
1096 4.5307999
1094 4.8277493
1092 5.2215219
1090 5.6778417
1088 6.1984091
1086 6.7496762
1084 7.3164601
1082 7.8288312
1080 8.280324
1078 8.5266371
1076 8.6450968
1074 8.5062599
1072 8.275281
1070 7.9841056
1068 7.7021852
1066 7.5838847
1064 7.5147681
1062 7.6525264
1060 7.8103175
1058 8.03055
1056 8.2239456
1054 8.2994404
1052 8.3516712
1050 8.3350801
1048 8.3671904
1046 8.5196362
1044 8.71943
1042 8.9989948
1040 9.2074747
1038 9.305644
1036 9.3191204
1034 9.2376633
1032 9.1585102
1030 9.0788116
1028 8.9716101
1026 8.8344917
1024 8.5820913
1022 8.2576237
1020 7.8071318
1018 7.3046651
1016 6.7659173
1014 6.2197113
1012 5.6989379
1010 5.1851945
1008 4.703424
1006 4.2329426
1004 3.8629277
1002 3.5069449
1000 3.2417343
998 2.9880953
996 2.7858715
994 2.5952291
992 2.4389234
990 2.262701
988 2.0381083
986 1.7650628
984 1.409596
982 1.0675676
980 0.74979597
978 0.53639793
976 0.43378487
974 0.39106798
972 0.3946524
970 0.37630448
968 0.34580174
966 0.33345401
964 0.33244362
962 0.39311686
960 0.47265497
958 0.53351808
956 0.58386445
954 0.49001443
952 0.37630638
950 0.20379339
948 0.038635019
946 0.012733393
944 0.0026287884
942 0.082523122
940 0.26387104
938 0.55413306
936 0.8270154
934 1.0492126
932 1.2742453
930 1.507099
928 1.8226377
926 2.2693279
924 2.689368
922 3.0746
920 3.3196714
918 3.4337041
916 3.49699
914 3.5238538
912 3.5200748
910 3.5010002
908 3.5411444
906 3.6060722
904 3.8820987
902 4.2137346
900 4.5013032
898 4.7817702
896 4.9007001
