Image.
>Pix99999.
  .
5555
5555
2300
900
5555
2
1
0
701
5555
8.0669997e-003
8.2347598e-003
8.4026195e-003
8.5703805e-003
8.7382402e-003
8.9060999e-003
9.0738600e-003
9.2417188e-003
9.4094798e-003
9.5772399e-003
9.7451974e-003
9.9132555e-003
1.0081119e-002
1.0247898e-002
1.0416620e-002
1.0588314e-002
1.0752251e-002
1.0906260e-002
1.1087320e-002
1.1307974e-002
1.1424744e-002
1.1395990e-002
1.1752403e-002
1.2654739e-002
1.2120057e-002
8.0551105e-003
2.9362543e-004
-7.6506641e-003
3.6800958e-004
4.1183963e-002
1.2006627e-001
2.3400058e-001
3.5998029e-001
4.6830696e-001
5.2549922e-001
5.0780153e-001
4.3507493e-001
3.4333301e-001
2.8228295e-001
2.9250664e-001
3.6186457e-001
4.5861891e-001
5.3554744e-001
5.5243224e-001
5.1540756e-001
4.4635007e-001
3.7355846e-001
3.2221976e-001
2.9782903e-001
3.0000928e-001
3.2928002e-001
3.8451478e-001
4.5625713e-001
5.3276682e-001
6.0375297e-001
6.6088295e-001
7.0170361e-001
7.2594208e-001
7.3444098e-001
7.3044312e-001
7.2562230e-001
7.3174608e-001
7.4977833e-001
7.7516639e-001
7.9565418e-001
7.9882252e-001
7.8180575e-001
7.4552149e-001
6.9329631e-001
6.3112676e-001
5.7302403e-001
5.3643900e-001
5.4155463e-001
6.0446072e-001
7.2068340e-001
8.7394500e-001
1.0287030e+000
1.1456250e+000
1.1965641e+000
1.1668015e+000
1.0804715e+000
9.7666979e-001
9.0009207e-001
8.8732797e-001
9.3494004e-001
1.0218905e+000
1.1146619e+000
1.1806570e+000
1.2084211e+000
1.1978580e+000
1.1624372e+000
1.1206990e+000
1.0933120e+000
1.0958966e+000
1.1210400e+000
1.1506422e+000
1.1581514e+000
1.1211418e+000
1.0471600e+000
9.5616704e-001
8.7370002e-001
8.2165760e-001
8.0008501e-001
8.0038440e-001
8.1354779e-001
8.3163798e-001
8.5040164e-001
8.6560982e-001
8.6709577e-001
8.4618211e-001
8.1059110e-001
7.7764332e-001
7.7687603e-001
8.3393461e-001
9.3883812e-001
1.0616544e+000
1.1503612e+000
1.1559879e+000
1.0757469e+000
9.3156505e-001
7.6711911e-001
6.2630326e-001
5.2025384e-001
4.4410613e-001
3.8537833e-001
3.3255142e-001
2.8865060e-001
2.6200366e-001
2.5635818e-001
2.7106544e-001
2.9651901e-001
3.2102606e-001
3.4005082e-001
3.5422730e-001
3.7192878e-001
4.0348750e-001
4.5375109e-001
5.2105063e-001
5.8719224e-001
6.2741679e-001
6.2000000e-001
5.5098313e-001
4.3179002e-001
2.8605619e-001
1.4055189e-001
2.0130465e-002
-6.1616704e-002
-9.9078663e-002
-9.8170936e-002
-6.8989277e-002
-1.7993050e-002
4.9530372e-002
1.2464855e-001
1.9440840e-001
2.3661120e-001
2.2980742e-001
1.7406218e-001
8.3821014e-002
-1.0364259e-002
-7.1646705e-002
-6.6536486e-002
3.0475060e-002
2.1977387e-001
4.8015469e-001
7.5015509e-001
9.5529008e-001
1.0470933e+000
1.0041162e+000
8.5979718e-001
6.7062521e-001
4.7844785e-001
3.1118104e-001
1.7705491e-001
7.4524149e-002
3.3286586e-004
-5.0687499e-002
-9.1145575e-002
-1.3633698e-001
-1.9651061e-001
-2.7563119e-001
-3.6300200e-001
-4.4204959e-001
-5.0322843e-001
-5.4287493e-001
-5.6416821e-001
-5.6946814e-001
-5.4341179e-001
-4.6748778e-001
-3.5221252e-001
-2.2471680e-001
-1.1245080e-001
-3.4632564e-002
2.0091657e-002
7.2516821e-002
1.1177460e-001
1.1113772e-001
5.7551920e-002
-4.2961765e-002
-1.4133871e-001
-1.7451380e-001
-1.2044571e-001
6.4405464e-003
1.4262785e-001
2.0841929e-001
1.6581440e-001
1.3721790e-002
-2.0217875e-001
-4.1864192e-001
-6.0335577e-001
-7.4638808e-001
-8.4685898e-001
-9.0358895e-001
-8.9908409e-001
-8.1398612e-001
-6.6476136e-001
-4.9324656e-001
-3.5490555e-001
-3.0026922e-001
-3.3146214e-001
-4.2066962e-001
-5.3944945e-001
-6.6354191e-001
-7.7557743e-001
-8.6295170e-001
-9.1673440e-001
-9.3225467e-001
-9.1576034e-001
-8.8064444e-001
-8.4291238e-001
-8.1806862e-001
-8.1506628e-001
-8.3300465e-001
-8.4568650e-001
-8.1658429e-001
-7.3272425e-001
-6.0701448e-001
-4.9317858e-001
-4.5826748e-001
-5.1963741e-001
-6.5445644e-001
-8.1636453e-001
-9.5292437e-001
-1.0354692e+000
-1.0526564e+000
-9.9530870e-001
-8.6199248e-001
-6.8980408e-001
-5.3837442e-001
-4.5275375e-001
-4.4871727e-001
-4.6746287e-001
-4.1598302e-001
-2.6778120e-001
-5.4518186e-002
1.6060716e-001
3.1199187e-001
3.9276445e-001
4.3788075e-001
4.7945762e-001
5.4130352e-001
6.4275289e-001
7.9104102e-001
9.4797593e-001
1.0443797e+000
1.0147588e+000
8.2343858e-001
5.4019082e-001
2.8619853e-001
7.6582916e-002
-1.4204529e-001
-3.4139428e-001
-4.3253386e-001
-3.7337273e-001
-1.8008611e-001
6.4235397e-002
2.4179536e-001
2.7391943e-001
1.4380747e-001
-4.0385954e-002
-1.0586315e-001
1.0670602e-002
2.5606644e-001
4.7567305e-001
4.8605353e-001
2.6385564e-001
-6.9863424e-002
-3.3098575e-001
-3.1781641e-001
1.1710703e-001
1.0259575e+000
2.2308471e+000
3.4090335e+000
4.3651881e+000
5.0719595e+000
5.7014599e+000
6.5567470e+000
7.9075375e+000
9.9520855e+000
1.2774892e+001
1.6312178e+001
2.0192286e+001
2.3862310e+001
2.7033306e+001
2.9742409e+001
3.2380310e+001
3.5550541e+001
3.9681896e+001
4.4881863e+001
5.0598522e+001
5.5911541e+001
6.0604900e+001
6.5127724e+001
6.9899269e+001
7.5093086e+001
8.0368713e+001
8.5045151e+001
8.8783775e+001
9.1623970e+001
9.3696823e+001
9.5143242e+001
9.6068710e+001
9.6544769e+001
9.6635040e+001
9.6382874e+001
9.5733521e+001
9.4579643e+001
9.2979851e+001
9.1131317e+001
8.9123375e+001
8.6901619e+001
8.4304733e+001
8.1138596e+001
7.7405869e+001
7.3285400e+001
6.8892159e+001
6.4250397e+001
5.9393921e+001
5.4400326e+001
4.9440586e+001
4.4749065e+001
4.0474998e+001
3.6670563e+001
3.3359402e+001
3.0545750e+001
2.8185486e+001
2.6194408e+001
2.4508154e+001
2.3094994e+001
2.1953133e+001
2.1101997e+001
2.0545000e+001
2.0262716e+001
2.0216331e+001
2.0356544e+001
2.0661772e+001
2.1140913e+001
2.1805470e+001
2.2673201e+001
2.3806189e+001
2.5306398e+001
2.7260942e+001
2.9705540e+001
3.2539845e+001
3.5536434e+001
3.8495922e+001
4.1290966e+001
4.3869545e+001
4.6285587e+001
4.8794189e+001
5.1742989e+001
5.4977642e+001
5.7818157e+001
5.9737103e+001
6.0560040e+001
6.0491455e+001
6.0009823e+001
5.9311111e+001
5.8217228e+001
5.6530079e+001
5.4173309e+001
5.1365059e+001
4.8588852e+001
4.6154213e+001
4.4093155e+001
4.2315212e+001
4.0648300e+001
3.8892723e+001
3.6858952e+001
3.4486549e+001
3.1880539e+001
2.9252501e+001
2.6853443e+001
2.4695879e+001
2.2522373e+001
2.0139339e+001
1.7533600e+001
1.4906600e+001
1.2627405e+001
1.0854998e+001
9.4496231e+000
8.2136288e+000
6.9775348e+000
5.6775007e+000
4.3696232e+000
3.1154509e+000
1.9560158e+000
9.5113158e-001
1.8572827e-001
-2.7107948e-001
-3.6992264e-001
-3.0139565e-002
8.4109217e-001
2.1676056e+000
3.6707089e+000
5.1203856e+000
6.4213572e+000
7.5908279e+000
8.7468643e+000
9.9855938e+000
1.1326796e+001
1.2676600e+001
1.3823251e+001
1.4588777e+001
1.4892166e+001
1.4747960e+001
1.4272285e+001
1.3594688e+001
1.2827070e+001
1.2039251e+001
1.1244124e+001
1.0415889e+001
9.5036926e+000
8.5142250e+000
7.5393066e+000
6.6747017e+000
5.9880843e+000
5.4972920e+000
5.1617155e+000
4.9409633e+000
4.8166561e+000
4.7965031e+000
4.9142079e+000
5.1885767e+000
5.6070590e+000
6.1397228e+000
6.7402415e+000
7.3528090e+000
7.9109349e+000
8.3343239e+000
8.5329380e+000
8.4555998e+000
8.1182823e+000
7.5941920e+000
7.0119066e+000
6.4727135e+000
6.0149350e+000
5.6398425e+000
5.3147593e+000
5.0029011e+000
4.6732230e+000
4.3009744e+000
3.8710408e+000
3.3829999e+000
2.8541613e+000
2.2993286e+000
1.7253085e+000
1.1454039e+000
5.8896661e-001
1.0416074e-001
-2.4178670e-001
-4.0561041e-001
-3.8837200e-001
-2.0089668e-001
1.4500436e-001
6.3025844e-001
1.2238393e+000
1.8878641e+000
2.5761020e+000
3.2299390e+000
3.7747989e+000
4.1384430e+000
4.2654877e+000
4.1488385e+000
3.8533351e+000
3.4559641e+000
3.0249257e+000
2.6166909e+000
2.2700918e+000
2.0108907e+000
1.8471792e+000
1.7628801e+000
1.7095231e+000
1.6372920e+000
1.5108951e+000
1.3242643e+000
1.1151955e+000
9.2799342e-001
7.9881370e-001
7.5195980e-001
7.9459858e-001
9.3370003e-001
1.1819808e+000
1.5494415e+000
2.0370772e+000
2.6316681e+000
3.2973070e+000
3.9852448e+000
4.6344714e+000
5.1892333e+000
5.6120224e+000
5.8913641e+000
6.0571580e+000
6.1559081e+000
6.2458076e+000
6.3778338e+000
6.5839200e+000
6.8844237e+000
7.2868514e+000
7.7976460e+000
8.4270678e+000
9.1901054e+000
1.0106976e+001
1.1184345e+001
1.2399714e+001
1.3705903e+001
1.5024000e+001
1.6278326e+001
1.7408615e+001
1.8371469e+001
1.9143236e+001
1.9695671e+001
1.9982279e+001
1.9950081e+001
1.9547329e+001
1.8756207e+001
1.7624079e+001
1.6234119e+001
1.4710072e+001
1.3184734e+001
1.1781880e+001
1.0601395e+001
9.6985044e+000
9.1006527e+000
8.8008528e+000
8.7679319e+000
8.9345398e+000
9.2067862e+000
9.4543867e+000
9.5500135e+000
9.3959064e+000
8.9407930e+000
8.2191677e+000
7.3086905e+000
6.3329158e+000
5.4069414e+000
4.6011324e+000
3.9490767e+000
3.4282024e+000
3.0075250e+000
2.6667116e+000
2.3973601e+000
2.2107415e+000
2.1139688e+000
2.0954390e+000
2.1355972e+000
2.2083879e+000
2.2914758e+000
2.3747911e+000
2.4512401e+000
2.5132658e+000
2.5467587e+000
2.5235984e+000
2.4170799e+000
2.2135208e+000
1.9146500e+000
1.5516071e+000
1.1606636e+000
7.7393508e-001
4.1499454e-001
9.1506302e-002
-1.7650914e-001
-3.3319151e-001
-3.3350918e-001
-1.8073460e-001
9.1320306e-002
4.0367058e-001
6.7097408e-001
8.2241380e-001
8.2527280e-001
7.3111194e-001
6.1105686e-001
5.3193915e-001
5.3400785e-001
5.9520674e-001
6.8813986e-001
8.0957049e-001
9.6429634e-001
1.1615845e+000
1.3996285e+000
1.6462559e+000
1.8705572e+000
2.0644965e+000
2.2401099e+000
2.4466944e+000
2.7301826e+000
3.1043494e+000
3.5562456e+000
4.0238237e+000
4.4333282e+000
4.7129688e+000
4.8098345e+000
4.7212596e+000
4.4754548e+000
4.1494870e+000
3.8257935e+000
3.5678308e+000
3.4118440e+000
3.3332622e+000
3.2929893e+000
3.2534182e+000
3.1910486e+000
3.1201591e+000
3.0613544e+000
3.0267739e+000
3.0232995e+000
3.0478964e+000
3.0955503e+000
3.1621454e+000
3.2481668e+000
3.3670590e+000
3.5321300e+000
3.7454515e+000
3.9837794e+000
4.1581702e+000
4.1753430e+000
3.9780896e+000
3.5540662e+000
2.9976821e+000
2.4253435e+000
1.9393585e+000
1.6153799e+000
1.4587890e+000
1.4460497e+000
1.5182426e+000
1.6047521e+000
1.6267614e+000
1.5240216e+000
1.3010361e+000
9.8961627e-001
6.5647894e-001
3.6101568e-001
1.1149656e-001
-1.0323048e-001
-3.1511921e-001
-5.4269785e-001
-7.4501097e-001
-8.7101734e-001
-8.8553578e-001
-7.7904058e-001
-6.1270213e-001
-4.5557457e-001
-3.4442371e-001
-2.9204628e-001
-2.5832248e-001
-1.9989091e-001
-1.0696453e-001
9.2045292e-003
9.4697572e-002
9.8894343e-002
1.9229949e-002
-1.2221014e-001
-2.5968760e-001
-3.2913038e-001
-3.1061199e-001
-2.0871195e-001
-7.5120322e-002
4.4862151e-002
1.7007801e-001
3.2092747e-001
4.6649373e-001
5.7425916e-001
6.5232259e-001
7.2436869e-001
8.3415133e-001
1.0211371e+000
1.2906849e+000
1.6254541e+000
1.9561819e+000
2.2055113e+000
2.3142183e+000
2.2570229e+000
2.1192629e+000
2.0172787e+000
2.0790451e+000
2.3841825e+000
2.8129401e+000
3.2091990e+000
3.4703095e+000
3.5421109e+000
3.5109820e+000
3.4984000e+000
