Image.
>Pix99999.
  .
5555
5555
2300
900
5555
2
1
0
701
5555
1.4907999e-001
1.5217558e-001
1.5528111e-001
1.5838668e-001
1.6148229e-001
1.6458778e-001
1.6768344e-001
1.7078890e-001
1.7388457e-001
1.7699002e-001
1.8009557e-001
1.8319128e-001
1.8629669e-001
1.8939242e-001
1.9249780e-001
1.9559357e-001
1.9869892e-001
2.0180446e-001
2.0490028e-001
2.0800559e-001
2.1110143e-001
2.1420671e-001
2.1731226e-001
2.2040814e-001
2.2351336e-001
2.2660929e-001
1.1147562e-001
4.1282997e-003
-9.7900800e-002
-1.0592932e-001
-1.0014944e-001
-4.5227613e-002
1.3480936e-002
7.8423105e-002
1.4144966e-001
1.8669951e-001
2.2493726e-001
2.3511119e-001
2.4885729e-001
2.7805245e-001
3.1570941e-001
3.6996043e-001
3.9117280e-001
3.5688892e-001
2.8857639e-001
1.8209164e-001
1.1789238e-001
9.6804313e-002
9.8076887e-002
1.1395847e-001
6.8498783e-002
-1.2910590e-002
-9.9057704e-002
-1.8623483e-001
-2.1707501e-001
-2.2957665e-001
-2.4070039e-001
-2.5176775e-001
-2.6787624e-001
-2.8414866e-001
-2.5293484e-001
-2.1281800e-001
-1.2116309e-001
-2.3769440e-002
7.8399882e-002
1.6585937e-001
1.9789670e-001
2.0247985e-001
1.5093017e-001
9.5864363e-002
4.5004703e-002
2.1349180e-002
3.6470555e-002
5.8664855e-002
8.4265061e-002
7.4146032e-002
3.2113314e-002
-2.2425711e-002
-8.3385408e-002
-9.9495269e-002
-9.0803139e-002
-5.9916154e-002
-2.0618122e-002
-2.9302493e-002
-5.3520121e-002
-9.7362921e-002
-1.4551511e-001
-1.4176708e-001
-1.2949640e-001
-1.1264627e-001
-1.0249871e-001
-1.4695279e-001
-2.0459011e-001
-2.8531945e-001
-3.5832199e-001
-3.9783159e-001
-4.2016679e-001
-4.1558757e-001
-4.1462362e-001
-4.2647395e-001
-4.3550858e-001
-4.3848699e-001
-4.2225957e-001
-3.8704848e-001
-3.7137908e-001
-3.7390399e-001
-4.1143709e-001
-4.7035342e-001
-5.0260043e-001
-5.1944965e-001
-4.9540856e-001
-4.5519206e-001
-4.5250481e-001
-4.6254298e-001
-4.8735979e-001
-5.1437920e-001
-4.7236532e-001
-4.1948995e-001
-3.9159051e-001
-3.8668910e-001
-4.8114428e-001
-5.9728241e-001
-7.2162390e-001
-8.3163548e-001
-9.0154880e-001
-9.6696317e-001
-1.0393963e+000
-1.1080354e+000
-1.1677760e+000
-1.1979771e+000
-1.1936057e+000
-1.1891614e+000
-1.1911154e+000
-1.2228850e+000
-1.2779057e+000
-1.3257636e+000
-1.3670509e+000
-1.3667767e+000
-1.3456919e+000
-1.3112670e+000
-1.2720599e+000
-1.2298412e+000
-1.1861256e+000
-1.1546813e+000
-1.1305521e+000
-1.1783664e+000
-1.2464712e+000
-1.3301620e+000
-1.3992263e+000
-1.3904451e+000
-1.3430715e+000
-1.2405092e+000
-1.1447080e+000
-1.0922800e+000
-1.0947220e+000
-1.1709521e+000
-1.2694143e+000
-1.3745463e+000
-1.4586620e+000
-1.5187844e+000
-1.5579914e+000
-1.5833790e+000
-1.5781475e+000
-1.5521392e+000
-1.5126572e+000
-1.4669313e+000
-1.4788619e+000
-1.5207211e+000
-1.5941479e+000
-1.6793647e+000
-1.7312428e+000
-1.7704461e+000
-1.8179159e+000
-1.8647056e+000
-1.8905778e+000
-1.8979501e+000
-1.8399622e+000
-1.7687218e+000
-1.7123737e+000
-1.6748363e+000
-1.6720715e+000
-1.6808212e+000
-1.6957060e+000
-1.7266885e+000
-1.7845303e+000
-1.8560957e+000
-1.9382346e+000
-2.0149848e+000
-2.0807068e+000
-2.1443930e+000
-2.2046857e+000
-2.2300074e+000
-2.2296536e+000
-2.1986492e+000
-2.1522691e+000
-2.1545272e+000
-2.1842160e+000
-2.2347896e+000
-2.2924509e+000
-2.2517576e+000
-2.1655285e+000
-2.0002375e+000
-1.8165543e+000
-1.7110820e+000
-1.6679137e+000
-1.7569271e+000
-1.8968352e+000
-2.0404215e+000
-2.1533749e+000
-2.1951346e+000
-2.1769199e+000
-2.1003962e+000
-1.9752852e+000
-1.8097715e+000
-1.6898123e+000
-1.6345407e+000
-1.6827776e+000
-1.8134830e+000
-1.9265095e+000
-2.0074174e+000
-2.0567944e+000
-2.0906286e+000
-2.1714439e+000
-2.2886608e+000
-2.4150040e+000
-2.5472357e+000
-2.5404592e+000
-2.4605832e+000
-2.2409892e+000
-1.9507529e+000
-1.6309114e+000
-1.2907530e+000
-9.3670815e-001
-6.1748058e-001
-4.3940866e-001
-3.9926299e-001
-5.5111820e-001
-7.6167589e-001
-9.3005079e-001
-1.0302992e+000
-1.0493886e+000
-1.0526916e+000
-1.0796543e+000
-1.1288558e+000
-1.1934137e+000
-1.2078800e+000
-1.1637857e+000
-1.1180438e+000
-1.0882634e+000
-1.1151223e+000
-1.1857500e+000
-1.1785290e+000
-1.1063480e+000
-1.0029981e+000
-8.7987697e-001
-8.0771917e-001
-7.6169950e-001
-7.0901674e-001
-6.5368152e-001
-6.1979288e-001
-5.7635140e-001
-4.4472590e-001
-2.3926425e-001
7.5626582e-002
3.5630333e-001
4.3391871e-001
3.6868781e-001
1.9314381e-001
4.1328508e-002
-2.1357535e-001
-4.6929884e-001
-6.0017622e-001
-6.3385308e-001
-6.0700279e-001
-6.2288678e-001
-7.0121890e-001
-8.7816215e-001
-1.1251860e+000
-1.2752272e+000
-1.3329021e+000
-1.2123200e+000
-9.7118211e-001
-7.8555733e-001
-6.5034950e-001
-6.5897739e-001
-7.3887295e-001
-6.8623215e-001
-4.7887969e-001
1.2553510e-001
1.0707903e+000
2.2051129e+000
3.2359481e+000
3.7708435e+000
4.0208173e+000
4.2070622e+000
4.6386881e+000
5.5806227e+000
7.2714648e+000
9.8082190e+000
1.3245083e+001
1.7494143e+001
2.1736401e+001
2.5608515e+001
2.9062336e+001
3.2158669e+001
3.5785343e+001
4.0034996e+001
4.4892063e+001
5.0211159e+001
5.4778980e+001
5.8667126e+001
6.2542618e+001
6.6482834e+001
7.1019417e+001
7.5973297e+001
8.0753845e+001
8.5341766e+001
8.9608208e+001
9.3578743e+001
9.7272522e+001
1.0065966e+002
1.0368683e+002
1.0601680e+002
1.0728239e+002
1.0697617e+002
1.0481214e+002
1.0162014e+002
9.8160362e+001
9.4719498e+001
9.1442101e+001
8.7807602e+001
8.3638000e+001
7.9169037e+001
7.4529297e+001
6.9975288e+001
6.5549889e+001
6.0911362e+001
5.6033813e+001
5.1263733e+001
4.6636978e+001
4.2425087e+001
3.8647606e+001
3.5377987e+001
3.2614571e+001
3.0243275e+001
2.8223364e+001
2.6369574e+001
2.4720785e+001
2.3329510e+001
2.2248150e+001
2.1512501e+001
2.1099426e+001
2.0932102e+001
2.0950186e+001
2.1071524e+001
2.1287622e+001
2.1577765e+001
2.1971769e+001
2.2473408e+001
2.3152763e+001
2.4031256e+001
2.5068802e+001
2.6253637e+001
2.7486712e+001
2.8748039e+001
3.0064686e+001
3.1441706e+001
3.3046692e+001
3.4956879e+001
3.7596947e+001
4.0928356e+001
4.4093628e+001
4.6925255e+001
4.8900864e+001
5.0119869e+001
5.1199642e+001
5.2144531e+001
5.3019066e+001
5.3520100e+001
5.3277500e+001
5.2297913e+001
5.0712055e+001
4.8892632e+001
4.7208485e+001
4.5666294e+001
4.4265549e+001
4.2917709e+001
4.1580040e+001
4.0131882e+001
3.8533924e+001
3.6797215e+001
3.4907845e+001
3.2950161e+001
3.0909174e+001
2.8450691e+001
2.5454144e+001
2.2379395e+001
1.9291100e+001
1.6697845e+001
1.4681180e+001
1.2830428e+001
1.1158641e+001
9.5561008e+000
8.0029383e+000
6.4241433e+000
4.8330402e+000
3.2645080e+000
1.8637772e+000
8.1418717e-001
1.8140452e-001
2.6221484e-002
3.4749538e-001
1.0821044e+000
1.9225610e+000
2.6693950e+000
3.2721472e+000
3.6545675e+000
4.0078888e+000
4.4054952e+000
4.9115562e+000
5.5856204e+000
6.1647539e+000
6.5757198e+000
6.7352920e+000
6.5374079e+000
6.2709537e+000
5.9175706e+000
5.6007247e+000
5.3270993e+000
5.0754824e+000
4.8201885e+000
4.4958444e+000
4.0889015e+000
3.6387916e+000
3.2017882e+000
2.8808379e+000
2.7218742e+000
2.7606838e+000
2.9752095e+000
3.3391318e+000
3.7462029e+000
4.0892968e+000
4.3766804e+000
4.5806189e+000
4.7916923e+000
5.0628629e+000
5.3781672e+000
5.7612319e+000
6.1314878e+000
6.4646435e+000
6.7262998e+000
6.8657732e+000
6.9424467e+000
6.9236794e+000
6.8322554e+000
6.6195402e+000
6.2850952e+000
5.7847691e+000
5.2293277e+000
4.6220698e+000
4.0610313e+000
3.5619841e+000
3.1497040e+000
2.8302567e+000
2.5739777e+000
2.3556588e+000
2.1033046e+000
1.7974755e+000
1.4108429e+000
1.0004849e+000
6.2780070e-001
3.2723868e-001
1.5255800e-001
3.8959660e-002
-4.7750575e-003
-1.3293108e-002
-7.7331923e-003
2.6403103e-002
1.1747670e-001
2.4083599e-001
4.2726687e-001
5.8638287e-001
7.1167099e-001
8.0353206e-001
8.5193932e-001
9.2493600e-001
1.0373782e+000
1.2194539e+000
1.4863783e+000
1.8080821e+000
2.1709900e+000
2.5054262e+000
2.7937794e+000
2.9915123e+000
3.1130702e+000
3.1662078e+000
3.1777754e+000
3.1720340e+000
3.1629179e+000
3.1705298e+000
3.1871572e+000
3.2190509e+000
3.2506149e+000
3.2746758e+000
3.2879839e+000
3.2772949e+000
3.2672012e+000
3.2671683e+000
3.2947469e+000
3.3869498e+000
3.5089285e+000
3.6848130e+000
3.8723080e+000
4.0761709e+000
4.2835627e+000
4.4997945e+000
4.7290940e+000
4.9827976e+000
5.2681260e+000
5.5898347e+000
5.9390998e+000
6.3167300e+000
6.7208052e+000
7.1533890e+000
7.6279068e+000
8.1215496e+000
8.6134233e+000
9.0753775e+000
9.4417639e+000
9.7357626e+000
9.8776560e+000
9.9508114e+000
9.8900642e+000
9.7875223e+000
9.5917625e+000
9.3700075e+000
9.0791302e+000
8.7671089e+000
8.4035912e+000
8.0146751e+000
7.5739832e+000
7.1091428e+000
6.6034122e+000
6.0836997e+000
5.5452900e+000
5.0041986e+000
4.4660783e+000
3.9528627e+000
3.4699907e+000
3.0247509e+000
2.6147070e+000
2.2421167e+000
1.9046891e+000
1.6257020e+000
1.3879700e+000
1.2152557e+000
1.0744705e+000
9.7795397e-001
9.0355158e-001
8.7714785e-001
8.7134200e-001
9.2168593e-001
9.7344452e-001
1.0185418e+000
1.0516891e+000
1.0508243e+000
1.0569646e+000
1.0796750e+000
1.1018034e+000
1.1171964e+000
1.0968556e+000
1.0179304e+000
9.2448413e-001
8.1272918e-001
7.0357203e-001
5.9125638e-001
4.4623673e-001
2.7915654e-001
1.3730861e-001
3.7235219e-002
7.3096745e-002
2.0243059e-001
4.4078285e-001
7.2693729e-001
1.0443972e+000
1.3635736e+000
1.6459811e+000
1.9138927e+000
2.1401320e+000
2.3587716e+000
2.5571628e+000
2.7465556e+000
2.8979783e+000
3.0298223e+000
3.0980678e+000
3.1425250e+000
3.1312463e+000
3.1303251e+000
3.1560547e+000
3.2333364e+000
3.3940144e+000
3.5950713e+000
3.8503439e+000
4.1457663e+000
4.4891176e+000
4.8982606e+000
5.3567014e+000
5.8122573e+000
6.2466407e+000
6.5447750e+000
6.7555656e+000
6.7790451e+000
6.7269144e+000
6.5688548e+000
6.3908954e+000
6.2360306e+000
6.0896196e+000
5.9836636e+000
5.8864331e+000
5.8339930e+000
5.7986455e+000
5.8374901e+000
5.8762569e+000
5.9117951e+000
5.9177294e+000
5.8506961e+000
5.7526460e+000
5.5972805e+000
5.4328427e+000
5.2560730e+000
5.0840902e+000
4.9153166e+000
4.7272277e+000
4.5163031e+000
4.2483072e+000
3.9361207e+000
3.5712051e+000
3.1814790e+000
2.8160331e+000
2.4684818e+000
2.2104001e+000
1.9803650e+000
1.7958177e+000
1.6134640e+000
1.3697641e+000
1.1170951e+000
8.2023239e-001
5.3984827e-001
3.7531480e-001
2.3240736e-001
1.8251072e-001
1.0533545e-001
-5.6620598e-002
-2.3675558e-001
-4.5252752e-001
-5.7794178e-001
-5.4282260e-001
-4.2599213e-001
-2.0466259e-001
-4.6474230e-002
4.3787055e-002
7.9686128e-002
7.7476531e-002
1.6514307e-001
3.1140518e-001
5.4283702e-001
8.0816138e-001
9.8545265e-001
1.1268034e+000
1.1034093e+000
1.0414494e+000
9.0006179e-001
7.4657762e-001
5.2977949e-001
3.1337404e-001
1.3930070e-001
1.2386739e-003
3.9735124e-002
1.5513492e-001
4.4803730e-001
7.3392510e-001
9.9966097e-001
1.2894814e+000
1.6318512e+000
2.0307932e+000
2.5188723e+000
2.9638622e+000
3.3542852e+000
3.6312521e+000
3.8028586e+000
3.9525185e+000
4.0874677e+000
4.2872696e+000
4.5207849e+000
4.7789860e+000
5.0448475e+000
5.2471571e+000
5.4312725e+000
5.4714470e+000
5.4879165e+000
5.4296999e+000
