Image.
>Pix99999.
  .
5555
5555
2300
900
5555
2
1
0
701
5555
1.5245999e-001
1.5562548e-001
1.5880091e-001
1.6197637e-001
1.6514188e-001
1.6831729e-001
1.7148283e-001
1.7465819e-001
1.7783366e-001
1.8099925e-001
1.8417457e-001
1.8735002e-001
1.9051565e-001
1.9367132e-001
1.9685619e-001
2.0009057e-001
2.0320868e-001
2.0617788e-001
2.0954308e-001
2.1347278e-001
2.1591142e-001
2.1626130e-001
2.2213955e-001
2.3581196e-001
2.2894989e-001
1.7473821e-001
8.6650938e-002
-6.8020057e-003
-6.2176399e-002
-4.2463191e-002
4.6810016e-002
1.8398680e-001
3.3137521e-001
4.4889057e-001
5.0496697e-001
4.8208052e-001
4.0908492e-001
3.2736382e-001
2.7408874e-001
2.7549151e-001
3.1931886e-001
3.8132647e-001
4.3518779e-001
4.6096265e-001
4.6671337e-001
4.6736494e-001
4.7126728e-001
4.8321006e-001
5.0228733e-001
5.2715904e-001
5.6170857e-001
6.0900170e-001
6.6199017e-001
7.1116680e-001
7.5024313e-001
7.7504706e-001
7.8569597e-001
7.8336442e-001
7.6826894e-001
7.4016368e-001
6.9847715e-001
6.4426422e-001
5.8545607e-001
5.3036928e-001
4.7948447e-001
4.3075472e-001
3.8255739e-001
3.3839324e-001
3.2197532e-001
3.5727602e-001
4.4153300e-001
5.6038123e-001
6.8996584e-001
8.0715060e-001
9.0390992e-001
9.7725928e-001
1.0229597e+000
1.0369450e+000
1.0180182e+000
9.6688455e-001
8.8894826e-001
7.9457748e-001
7.0861787e-001
6.5472436e-001
6.3058519e-001
6.2088692e-001
5.9611940e-001
5.3154254e-001
4.4230205e-001
3.5582885e-001
2.8914857e-001
2.5154009e-001
2.3813424e-001
2.4124445e-001
2.6278505e-001
3.0613148e-001
3.6515057e-001
4.2835993e-001
4.7758281e-001
4.9448001e-001
4.6990857e-001
4.0016198e-001
2.8891522e-001
1.4689349e-001
2.8526336e-003
-1.0916415e-001
-1.6216619e-001
-1.4192404e-001
-7.4585944e-002
-1.0692114e-003
4.2751029e-002
3.2631256e-002
-1.8443361e-002
-8.3325133e-002
-1.3821830e-001
-1.6502857e-001
-1.6096795e-001
-1.3094130e-001
-8.5978240e-002
-4.0540028e-002
-1.4058571e-002
-2.2113597e-002
-5.5859983e-002
-9.6766070e-002
-1.2930056e-001
-1.4428321e-001
-1.5190320e-001
-1.6657731e-001
-1.8615617e-001
-2.0220360e-001
-2.1165086e-001
-2.1844545e-001
-2.4444914e-001
-3.1354389e-001
-4.2571965e-001
-5.6066233e-001
-6.5873790e-001
-6.5438515e-001
-5.2864718e-001
-3.0081061e-001
-5.9710000e-002
9.2382774e-002
1.2423594e-001
5.0711673e-002
-6.2606789e-002
-1.4160620e-001
-1.6625562e-001
-1.4543220e-001
-9.9136598e-002
-4.9498465e-002
-1.2627658e-002
4.4392317e-004
-1.2703338e-002
-4.8060052e-002
-9.0754285e-002
-1.2536107e-001
-1.5520366e-001
-1.9183323e-001
-2.4206494e-001
-3.0377969e-001
-3.4899342e-001
-3.4246981e-001
-2.7112874e-001
-1.4361931e-001
-1.1544479e-002
6.0031265e-002
3.6084548e-002
-8.9774132e-002
-2.7149159e-001
-4.4393560e-001
-5.6834674e-001
-6.2868458e-001
-6.4118731e-001
-6.3413107e-001
-6.2136549e-001
-6.0538495e-001
-5.7660693e-001
-5.2379787e-001
-4.5285109e-001
-3.7922898e-001
-3.1931829e-001
-2.8688276e-001
-2.8543881e-001
-3.1049147e-001
-3.4626019e-001
-3.7014422e-001
-3.5425815e-001
-2.7889073e-001
-1.7036560e-001
-7.6005541e-002
-2.5164384e-002
-2.8342616e-002
-6.5745078e-002
-1.0824983e-001
-1.5425752e-001
-2.1479851e-001
-2.8370041e-001
-3.4272459e-001
-3.6923856e-001
-3.4529203e-001
-2.7988285e-001
-1.9787665e-001
-1.2622443e-001
-8.9653403e-002
-1.0409348e-001
-1.7703836e-001
-3.0092624e-001
-4.5826238e-001
-6.2389100e-001
-7.7038693e-001
-8.7659401e-001
-9.2802662e-001
-9.2192382e-001
-8.6780274e-001
-8.0049765e-001
-7.6376259e-001
-7.7709395e-001
-8.3757597e-001
-9.1368753e-001
-9.6552306e-001
-9.8545486e-001
-9.8715824e-001
-9.8475748e-001
-9.8650450e-001
-9.8306280e-001
-9.5699072e-001
-9.0225160e-001
-8.2311422e-001
-7.3323125e-001
-6.4753979e-001
-5.6443644e-001
-4.7096789e-001
-3.5249519e-001
-2.0398439e-001
-6.2908895e-002
1.1353293e-002
-1.7014952e-002
-1.5427622e-001
-3.5555220e-001
-5.4957640e-001
-6.8609172e-001
-7.4114156e-001
-7.3156160e-001
-6.9425535e-001
-6.4473420e-001
-5.8285904e-001
-5.1479912e-001
-4.5338106e-001
-4.1345799e-001
-4.0151674e-001
-3.8323358e-001
-3.0835065e-001
-1.7975241e-001
-3.8377192e-002
8.1614248e-002
1.6202092e-001
2.1392407e-001
2.6413724e-001
3.2438242e-001
3.9501610e-001
4.8334026e-001
5.9674603e-001
7.1328795e-001
7.8880179e-001
7.7591217e-001
6.4428544e-001
4.3932679e-001
2.4423653e-001
6.7264169e-002
-1.2990341e-001
-3.1854758e-001
-4.2302078e-001
-4.1316167e-001
-3.1032389e-001
-1.8501927e-001
-1.2919393e-001
-1.9283034e-001
-3.7179303e-001
-5.7457775e-001
-6.6748446e-001
-6.0016799e-001
-4.0866995e-001
-2.0051165e-001
-1.0579803e-001
-1.5553227e-001
-2.8773436e-001
-3.8772929e-001
-3.1395730e-001
6.7981347e-002
8.4306192e-001
1.9103558e+000
3.0392358e+000
4.0613184e+000
4.9163098e+000
5.7211981e+000
6.7200489e+000
8.1490669e+000
1.0198989e+001
1.2971840e+001
1.6437214e+001
2.0267570e+001
2.3952240e+001
2.7198320e+001
2.9998318e+001
3.2691280e+001
3.5837303e+001
3.9859409e+001
4.4894680e+001
5.0445278e+001
5.5642506e+001
6.0233273e+001
6.4564125e+001
6.9007095e+001
7.3767242e+001
7.8607178e+001
8.2983551e+001
8.6609215e+001
8.9489136e+001
9.1704506e+001
9.3350349e+001
9.4498489e+001
9.5187599e+001
9.5415939e+001
9.5151176e+001
9.4361908e+001
9.3056534e+001
9.1397385e+001
8.9643097e+001
8.7871490e+001
8.5961578e+001
8.3735329e+001
8.1032608e+001
7.7858246e+001
7.4349602e+001
7.0554802e+001
6.6418907e+001
6.1911678e+001
5.7072849e+001
5.2069771e+001
4.7169697e+001
4.2599514e+001
3.8514347e+001
3.5001110e+001
3.2074539e+001
2.9649988e+001
2.7569550e+001
2.5730091e+001
2.4109007e+001
2.2744011e+001
2.1708780e+001
2.1028500e+001
2.0665312e+001
2.0554508e+001
2.0625870e+001
2.0853724e+001
2.1258415e+001
2.1855034e+001
2.2649019e+001
2.3678141e+001
2.5014996e+001
2.6735285e+001
2.8891411e+001
3.1434025e+001
3.4210960e+001
3.7055202e+001
3.9815529e+001
4.2377274e+001
4.4712368e+001
4.7049641e+001
4.9783905e+001
5.2870171e+001
5.5761520e+001
5.7936138e+001
5.9091133e+001
5.9331718e+001
5.9105354e+001
5.8607571e+001
5.7681595e+001
5.6167938e+001
5.4033081e+001
5.1503571e+001
4.9026741e+001
4.6849068e+001
4.4928970e+001
4.3149708e+001
4.1379852e+001
3.9501419e+001
3.7433418e+001
3.5180702e+001
3.2846039e+001
3.0586987e+001
2.8560619e+001
2.6729321e+001
2.4840595e+001
2.2683277e+001
2.0190979e+001
1.7526142e+001
1.5050474e+001
1.2959914e+001
1.1194400e+001
9.6284428e+000
8.1370516e+000
6.6758513e+000
5.2910185e+000
4.0046377e+000
2.7953329e+000
1.6856440e+000
7.6245070e-001
1.1402433e-001
-1.8162642e-001
-2.1279693e-002
6.9904226e-001
1.9066925e+000
3.3187571e+000
4.6937137e+000
5.9179316e+000
6.9906330e+000
8.0172749e+000
9.1009550e+000
1.0293047e+001
1.1533200e+001
1.2634650e+001
1.3417060e+001
1.3764160e+001
1.3674194e+001
1.3274608e+001
1.2699311e+001
1.2045530e+001
1.1368829e+001
1.0677451e+001
9.9520855e+000
9.1561279e+000
8.2822857e+000
7.3725610e+000
6.4893661e+000
5.7061200e+000
5.0825968e+000
4.6524100e+000
4.4240398e+000
4.3773918e+000
4.4780345e+000
4.6825061e+000
4.9587946e+000
5.2937121e+000
5.6798759e+000
6.1097035e+000
6.5612130e+000
6.9911423e+000
7.3468919e+000
7.5732760e+000
7.6366572e+000
7.5390291e+000
7.3105278e+000
7.0080862e+000
6.6757083e+000
6.3287001e+000
5.9696980e+000
5.5913658e+000
5.1819959e+000
4.7274590e+000
4.2171974e+000
3.6490626e+000
3.0345058e+000
2.4019213e+000
1.7762222e+000
1.1722529e+000
6.0838211e-001
1.1293420e-001
-2.7633372e-001
-5.1464057e-001
-5.7979584e-001
-4.8521164e-001
-2.3885897e-001
1.6778219e-001
7.1956635e-001
1.3600179e+000
2.0367720e+000
2.7166464e+000
3.3571870e+000
3.8953459e+000
4.2714458e+000
4.4449019e+000
4.4157476e+000
4.2422762e+000
3.9891977e+000
3.7079229e+000
3.4361510e+000
3.1922004e+000
2.9830050e+000
2.8027642e+000
2.6390500e+000
2.4738693e+000
2.2952993e+000
2.1044922e+000
1.9124223e+000
1.7412064e+000
1.6112931e+000
1.5358809e+000
1.5255160e+000
1.5892591e+000
1.7363428e+000
1.9760275e+000
2.3143432e+000
2.7499430e+000
3.2720399e+000
3.8544731e+000
4.4587183e+000
5.0313053e+000
5.5239220e+000
5.9062376e+000
6.1719284e+000
6.3510981e+000
6.4859381e+000
6.6240783e+000
6.8045998e+000
7.0485592e+000
7.3709254e+000
7.7824960e+000
8.2910624e+000
8.8997078e+000
9.6035252e+000
1.0386266e+001
1.1233568e+001
1.2137709e+001
1.3100697e+001
1.4130000e+001
1.5221897e+001
1.6338835e+001
1.7417732e+001
1.8359543e+001
1.9066542e+001
1.9461971e+001
1.9489161e+001
1.9130497e+001
1.8391960e+001
1.7315392e+001
1.5964463e+001
1.4435497e+001
1.2846518e+001
1.1346650e+001
1.0076759e+001
9.1439857e+000
8.6027460e+000
8.4172592e+000
8.5072565e+000
8.7454176e+000
8.9987545e+000
9.1480026e+000
9.0969048e+000
8.7953234e+000
8.2369289e+000
7.4862456e+000
6.6285281e+000
5.7550087e+000
4.9319110e+000
4.1697683e+000
3.4689944e+000
2.8382947e+000
2.2982357e+000
1.8882540e+000
1.6335399e+000
1.5174960e+000
1.5035889e+000
1.5364022e+000
1.5722948e+000
1.6046486e+000
1.6402183e+000
1.6940030e+000
1.7646371e+000
1.8108579e+000
1.7897799e+000
1.6779803e+000
1.4755223e+000
1.2239927e+000
9.6444118e-001
7.1478105e-001
4.8829895e-001
2.9990351e-001
1.5360662e-001
2.7926549e-002
-9.8357312e-002
-2.3046169e-001
-3.6143371e-001
-4.6493408e-001
-5.1514059e-001
-5.0075650e-001
-4.3368202e-001
-3.7107533e-001
-3.5838240e-001
-3.8512090e-001
-4.1822714e-001
-4.0443942e-001
-3.0713439e-001
-1.4339262e-001
5.2627325e-002
2.3732251e-001
3.7415716e-001
4.5198998e-001
4.8347050e-001
5.2541757e-001
6.3774717e-001
8.5882348e-001
1.1992140e+000
1.6116104e+000
2.0379863e+000
2.4303658e+000
2.7508731e+000
2.9818251e+000
3.1094303e+000
3.1193471e+000
3.0090055e+000
2.8082340e+000
2.5645390e+000
2.3505588e+000
2.2304499e+000
2.2273886e+000
2.3363039e+000
2.5030978e+000
2.6673186e+000
2.7847047e+000
2.8243685e+000
2.7808087e+000
2.6570184e+000
2.4639459e+000
2.2214684e+000
1.9707822e+000
1.7566860e+000
1.6206685e+000
1.5955400e+000
1.6910640e+000
1.8954600e+000
2.1515191e+000
2.3878143e+000
2.5251651e+000
2.5090830e+000
2.3640420e+000
2.1350989e+000
1.8710021e+000
1.6097611e+000
1.3550578e+000
1.1079561e+000
8.8614261e-001
7.0634359e-001
5.6898588e-001
4.6692199e-001
3.8145408e-001
2.8675842e-001
1.4412740e-001
-8.0636263e-002
-3.9618471e-001
-7.8026569e-001
-1.1338691e+000
-1.3591360e+000
-1.4233607e+000
-1.3370225e+000
-1.1969564e+000
-1.0951291e+000
-1.0382562e+000
-1.0010695e+000
-9.2183053e-001
-7.4967313e-001
-4.9937341e-001
-2.0181862e-001
1.1243948e-001
4.1644681e-001
6.9494802e-001
9.3205976e-001
1.0999687e+000
1.1701479e+000
1.1217475e+000
9.4449800e-001
6.5982938e-001
3.1475249e-001
1.8394709e-002
-1.2410474e-001
-7.6284930e-002
1.7675251e-001
6.3268167e-001
1.2532828e+000
1.8873560e+000
2.3869998e+000
2.7182422e+000
2.8944690e+000
2.9983492e+000
3.1120045e+000
3.2523708e+000
3.4086821e+000
3.5260313e+000
3.5590556e+000
3.5389323e+000
3.5163028e+000
3.5456970e+000
3.6707914e+000
3.8892641e+000
4.1857085e+000
4.5364294e+000
4.9180775e+000
5.3160295e+000
5.7190466e+000
6.1197610e+000
6.5116000e+000
