##TITLE=Methyl Ethyl Ketone
##JCAMP-DX=4.24
##DATA TYPE=INFRARED SPECTRUM
##XUNITS=cm-1
##YUNITS=Absorbance
##FIRSTX=900
##LASTX=2300
##XYDATA=(X++(Y..Y))
2296 -0.0045973002
2294 -0.0046929633
2292 -0.0047885268
2290 -0.0048841895
2288 -0.0049798526
2286 -0.0050755157
2284 -0.0051710797
2282 -0.0052667423
2280 -0.0053624054
2278 -0.0054580681
2276 -0.005553633
2274 -0.0056492947
2272 -0.0057449578
2270 -0.0058406205
2268 -0.0059361863
2266 -0.0060319449
2264 -0.006127513
2262 -0.0062231733
2260 -0.0063187391
2258 -0.0064143999
2256 -0.0065100631
2254 -0.0066057257
2252 -0.0067013889
2250 -0.0067969556
2248 -0.006892615
2246 -0.0069882786
2244 0.01765619
2242 0.00071769854
2240 -0.035873279
2238 -0.098641805
2236 -0.16522714
2234 -0.25548053
2232 -0.34782052
2230 -0.44863161
2228 -0.54645967
2226 -0.61760551
2224 -0.68099278
2222 -0.71539152
2220 -0.74147266
2218 -0.74710983
2216 -0.73086947
2214 -0.66934556
2212 -0.5918088
2210 -0.49248263
2208 -0.43700564
2206 -0.43783587
2204 -0.49646613
2202 -0.60731685
2200 -0.71674925
2198 -0.822541
2196 -0.8790707
2194 -0.90736365
2192 -0.87635309
2190 -0.82018465
2188 -0.75886893
2186 -0.69640088
2184 -0.66752321
2182 -0.64637965
2180 -0.61550647
2178 -0.58278877
2176 -0.52353543
2174 -0.46450922
2172 -0.43581957
2170 -0.42097202
2168 -0.46913812
2166 -0.52276009
2164 -0.57400388
2162 -0.60297352
2160 -0.5754829
2158 -0.5406099
2156 -0.502554
2154 -0.49022749
2152 -0.51565492
2150 -0.5565418
2148 -0.61043084
2146 -0.66450322
2144 -0.71755356
2142 -0.78185415
2140 -0.85412455
2138 -0.93796217
2136 -1.0276674
2134 -1.0789424
2132 -1.1136109
2130 -1.1053363
2128 -1.083724
2126 -1.1009436
2124 -1.1275584
2122 -1.1408832
2120 -1.1461469
2118 -1.0405606
2116 -0.92037171
2114 -0.80941141
2112 -0.72760856
2110 -0.76867282
2108 -0.83302653
2106 -0.91344798
2104 -0.96100038
2102 -0.93099487
2100 -0.88647115
2098 -0.83691376
2096 -0.81233859
2094 -0.8216154
2092 -0.84389096
2090 -0.87452054
2088 -0.89367574
2086 -0.90199703
2084 -0.88370651
2082 -0.84870392
2080 -0.83908594
2078 -0.84417027
2076 -0.88460988
2074 -0.93908679
2072 -0.942132
2070 -0.92821503
2068 -0.88409376
2066 -0.8354913
2064 -0.89076889
2062 -0.97725439
2060 -1.1701071
2058 -1.37718
2056 -1.5468428
2054 -1.6705658
2052 -1.6572411
2050 -1.5797236
2048 -1.408604
2046 -1.2383143
2044 -1.106346
2042 -1.0288101
2040 -1.0208492
2038 -1.020658
2036 -1.0119314
2034 -0.99503529
2032 -0.97208327
2030 -0.99610251
2028 -1.0589957
2026 -1.1313828
2024 -1.2066537
2022 -1.1953411
2020 -1.1392229
2018 -1.0700985
2016 -0.99707997
2014 -1.0801351
2012 -1.214726
2010 -1.4324778
2008 -1.6639651
2006 -1.7836878
2004 -1.8587123
2002 -1.824283
2000 -1.7573406
1998 -1.6752844
1996 -1.5978357
1994 -1.5495442
1992 -1.5421875
1990 -1.6055832
1988 -1.715942
1986 -1.8713429
1984 -2.0181434
1982 -2.1382091
1980 -2.2264397
1978 -2.2884438
1976 -2.2716773
1974 -2.1889799
1972 -1.9375583
1970 -1.5685471
1968 -1.2145537
1966 -0.88356709
1964 -0.86968577
1962 -1.0194496
1960 -1.318372
1958 -1.6726823
1956 -1.9155471
1954 -2.1124353
1952 -2.2022154
1950 -2.2470176
1948 -2.2093341
1946 -2.1526251
1944 -2.1301668
1942 -2.1517808
1940 -2.2718825
1938 -2.4050453
1936 -2.4882886
1934 -2.512028
1932 -2.4532239
1930 -2.3568351
1928 -2.245676
1926 -2.0724034
1924 -1.8278829
1922 -1.5210673
1920 -1.1631937
1918 -0.95072961
1916 -0.87340015
1914 -0.91900676
1912 -1.0361686
1910 -1.1227275
1908 -1.1829859
1906 -1.3624642
1904 -1.608292
1902 -1.8728113
1900 -2.1404357
1898 -2.1058085
1896 -1.9395
1894 -1.6274557
1892 -1.2914951
1890 -1.1658241
1888 -1.1845566
1886 -1.4652829
1884 -1.8528811
1882 -2.2659311
1880 -2.6231239
1878 -2.8345106
1876 -2.8647101
1874 -2.6660106
1872 -2.2361441
1870 -1.5794157
1868 -1.0092381
1866 -0.62067372
1864 -0.67927462
1862 -1.1414051
1860 -1.7170798
1858 -2.3061881
1856 -2.6963801
1854 -2.9365373
1852 -2.9224985
1850 -2.7628286
1848 -2.351552
1846 -1.8127393
1844 -1.417986
1842 -1.1223701
1840 -1.2199069
1838 -1.4909856
1836 -1.7031186
1834 -1.822088
1832 -1.6347183
1830 -1.2874619
1828 -0.84643281
1826 -0.50368381
1824 -0.50573778
1822 -0.78207266
1820 -1.3411714
1818 -1.9447467
1816 -2.4497714
1814 -2.756644
1812 -2.8366604
1810 -2.7475612
1808 -2.540803
1806 -2.2402351
1804 -1.8766997
1802 -1.4389958
1800 -0.95466894
1798 -0.47416663
1796 -0.0070414245
1794 0.33219796
1792 0.59023881
1790 0.58595467
1788 0.43135205
1786 0.17616697
1784 -0.11481429
1782 -0.26823664
1780 -0.29900971
1778 -0.052445717
1776 0.39266253
1774 1.0520363
1772 1.6837815
1770 1.921664
1768 1.7916749
1766 1.2492181
1764 0.6515938
1762 0.29821339
1760 0.077352457
1758 -0.10674639
1756 -0.14210901
1754 0.010566384
1752 0.5422132
1750 1.4478513
1748 2.4340971
1746 3.389725
1744 3.7664738
1742 3.6152511
1740 3.2827206
1738 2.8842764
1736 2.83652
1734 3.0556002
1732 2.9793618
1730 2.6606593
1728 1.8055189
1726 0.65856528
1724 -0.10568035
1722 -0.4467712
1720 0.1729376
1718 1.5944858
1716 3.5982771
1714 5.587626
1712 6.7484441
1710 7.3836002
1708 7.7962961
1706 8.5020657
1704 9.9449654
1702 12.28485
1700 15.5484
1698 19.176325
1696 22.833427
1694 25.868639
1692 28.109396
1690 30.291071
1688 32.64719
1686 35.989979
1684 40.284969
1682 44.890064
1680 49.63612
1678 53.47739
1676 56.547386
1674 59.900017
1672 63.545544
1670 67.739441
1668 72.276711
1666 76.417496
1664 80.234795
1662 83.832832
1660 87.279716
1658 90.686142
1656 94.05217
1654 97.361549
1652 100.35132
1650 102.71869
1648 103.55257
1646 102.19035
1644 99.380287
1642 95.855019
1640 92.22641
1638 88.84623
1636 85.169846
1634 81.004959
1632 76.550873
1630 71.926735
1628 67.588333
1626 63.590183
1624 59.534882
1622 55.365112
1620 51.13625
1618 46.865742
1616 42.688541
1614 38.643929
1612 34.953697
1610 31.666569
1608 28.897194
1606 26.623878
1604 24.694883
1602 23.11212
1600 21.821863
1598 20.818195
1596 20.042
1594 19.443794
1592 18.935818
1590 18.511168
1588 18.156334
1586 17.984636
1584 18.05756
1582 18.483549
1580 19.288952
1578 20.523378
1576 22.1828
1574 23.997066
1572 25.884291
1570 27.471342
1568 28.686319
1566 29.741808
1564 30.669514
1562 32.00349
1560 33.86729
1558 36.735374
1556 40.518929
1554 43.88905
1552 46.679043
1550 48.502815
1548 49.5952
1546 50.926037
1544 52.551888
1542 54.508377
1540 56.164059
1538 56.612267
1536 55.770599
1534 53.743824
1532 51.341732
1530 49.368122
1528 47.906586
1526 47.002251
1524 46.369465
1522 45.853218
1520 44.801674
1518 42.928658
1516 40.577141
1514 37.800613
1512 35.298042
1510 33.212666
1508 30.843678
1506 28.043957
1504 24.961428
1502 21.63814
1500 18.870821
1498 16.75692
1496 14.855143
1494 13.169953
1492 11.536837
1490 9.9179821
1488 8.2193594
1486 6.3992395
1484 4.4157944
1482 2.5048602
1480 1.0144155
1478 0.12023044
1476 0.022967875
1474 0.6390546
1472 1.7971754
1470 2.929785
1468 3.6401594
1466 4.0819345
1464 4.2687745
1462 4.6225066
1460 5.3609533
1458 6.2803211
1456 7.38622
1454 8.0162268
1452 7.8971539
1450 7.4614763
1448 6.6250916
1446 5.8571215
1444 5.1950183
1442 4.6586351
1440 4.3081298
1438 4.1743293
1436 4.2596827
1434 4.368012
1432 4.4069214
1430 4.1758871
1428 3.7511861
1426 3.3637278
1424 3.1406903
1422 3.2596245
1420 3.6176662
1418 4.0816875
1416 4.4496427
1414 4.4985819
1412 4.3934097
1410 4.1979575
1408 4.0910826
1406 4.2052722
1404 4.4945874
1402 5.0398102
1400 5.682972
1398 6.4462538
1396 7.0805283
1394 7.4606357
1392 7.5843792
1390 7.3103018
1388 6.9349494
1386 6.42033
1384 5.8963971
1382 5.374929
1380 4.9227467
1378 4.5657568
1376 4.3046856
1374 4.1094637
1372 3.8782902
1370 3.606853
1368 3.2975264
1366 2.9899828
1364 2.7276697
1362 2.4502332
1360 2.0791907
1358 1.628878
1356 1.0958954
1354 0.60489833
1352 0.26273283
1350 0.039721865
1348 -0.015399639
1346 0.017467797
1344 0.2293184
1342 0.55164158
1340 1.0640806
1338 1.510234
1336 1.7988544
1334 1.8604306
1332 1.5584998
1330 1.2373031
1328 0.92296243
1326 0.77629423
1324 0.87191081
1322 1.1414633
1320 1.610696
1318 2.1508245
1316 2.71982
1314 3.1705759
1312 3.474889
1310 3.58234
1308 3.5426409
1306 3.4173265
1304 3.2587228
1302 3.13168
1300 3.0257666
1298 2.9517317
1296 2.8829999
1294 2.8105648
1292 2.7624269
1290 2.7865715
1288 2.852164
1286 3.002033
1284 3.13695
1282 3.2224503
1280 3.2823536
1278 3.2913845
1276 3.3254757
1274 3.4077101
1272 3.5348415
1270 3.7321062
1268 3.9534354
1266 4.2111635
1264 4.4774575
1262 4.7592516
1260 5.0478301
1258 5.3396239
1256 5.6188059
1254 5.8883104
1252 6.1564488
1250 6.4439402
1248 6.8008566
1246 7.207325
1244 7.6729288
1242 8.140379
1240 8.5440159
1238 8.8915262
1236 9.1112404
1234 9.2764893
1232 9.3386765
1230 9.3606787
1228 9.283453
1226 9.15695
1224 8.8930244
1222 8.5724039
1220 8.1191397
1218 7.6429768
1216 7.1246486
1214 6.6123066
1212 6.1074667
1210 5.5968184
1208 5.0798407
1206 4.5691886
1204 4.0740523
1202 3.6153045
1200 3.1929793
1198 2.7900283
1196 2.3946643
1194 1.9745498
1192 1.5446205
1190 1.1325521
1188 0.75415576
1186 0.48346636
1184 0.27015197
1182 0.14838597
1180 0.074188069
1178 0.10720059
1176 0.19486
1174 0.44324833
1172 0.69998264
1170 0.95195448
1168 1.1516428
1166 1.1933385
1164 1.2035997
1162 1.1384879
1160 1.0738372
1158 1.0081754
1156 0.93383086
1154 0.84266067
1152 0.73513317
1150 0.60373378
1148 0.4579078
1146 0.30064392
1144 0.16193984
1142 0.050915632
1140 0.0040609455
1138 0.010210846
1136 0.075611979
1134 0.1858404
1132 0.36946434
1130 0.59117216
1128 0.86412609
1126 1.1462393
1124 1.4014282
1122 1.6477828
1120 1.873076
1118 2.0965469
1116 2.3208058
1114 2.5397134
1112 2.7360017
1110 2.9318919
1108 3.1272252
1106 3.3296001
1104 3.5500581
1102 3.7771878
1100 4.0171404
1098 4.2554803
1096 4.4922571
1094 4.7359109
1092 4.9975281
1090 5.3279409
1088 5.7309365
1086 6.1792364
1084 6.6497102
1082 7.0370188
1080 7.3593903
1078 7.5739188
1076 7.7303643
1074 7.8185425
1072 7.8753815
1070 7.864418
1068 7.8342233
1066 7.7704306
1064 7.7133121
1062 7.7366505
1060 7.7766967
1058 7.8980908
1056 7.996326
1054 7.9909387
1052 7.9466023
1050 7.7793941
1048 7.6161909
1046 7.463593
1044 7.3226304
1042 7.200386
1040 7.0421414
1038 6.8289762
1036 6.5767002
1034 6.2794933
1032 5.9758177
1030 5.6643558
1028 5.3406029
1026 5.0116348
1024 4.7192941
1022 4.4552121
1020 4.2858462
1018 4.1522207
1016 4.0066113
1014 3.8418884
1012 3.503792
1010 3.1270714
1008 2.647712
1006 2.1697335
1004 1.8086145
1002 1.4642861
1000 1.2287223
998 1.0064441
996 0.84303004
994 0.68731987
992 0.55276906
990 0.36456639
988 0.052855998
986 -0.28658301
984 -0.66749358
982 -0.92917919
980 -1.0278801
978 -1.0403006
976 -0.96625829
974 -0.93832749
972 -0.94467199
970 -0.91120392
968 -0.84628594
966 -0.63159752
964 -0.34805939
962 -0.034848452
960 0.28359622
958 0.50052732
956 0.69235426
954 0.79825968
952 0.8854484
950 0.76850092
948 0.62972009
946 0.29670817
944 0.0051460015
942 0.00015561143
940 0.01602748
938 0.3744368
936 0.72041661
934 1.0295464
932 1.3364888
930 1.6412414
928 2.0412285
926 2.5929713
924 3.1462078
922 3.6985135
920 4.1274004
918 4.4404035
916 4.6556959
914 4.8010731
912 4.8605466
910 4.8727398
908 4.8265939
906 4.755991
904 4.6848831
902 4.6123133
900 4.5920644
898 4.5798073
896 4.7248001
