Image.
>Pix99999.
  .
5555
5555
2300
900
5555
2
1
0
701
5555
4.8000000e-002
4.8998572e-002
4.9997143e-002
5.0995715e-002
5.1994286e-002
5.2992858e-002
5.3991430e-002
5.4990001e-002
5.5988573e-002
5.6987144e-002
5.7985712e-002
5.8984287e-002
5.9982855e-002
6.0981430e-002
6.1979998e-002
6.2978573e-002
6.3977145e-002
6.4975709e-002
6.5974288e-002
6.6972859e-002
6.7971431e-002
6.8969995e-002
6.9968574e-002
7.0967145e-002
7.1965709e-002
7.2964281e-002
3.0823968e-002
1.1261700e-003
6.0096961e-003
6.1683647e-002
1.2464796e-001
2.0988593e-001
2.9321152e-001
2.9797286e-001
2.9023734e-001
2.1287100e-001
1.4090228e-001
1.0975286e-001
1.1511426e-001
2.2506602e-001
3.5108429e-001
4.9934658e-001
6.0228920e-001
6.2914562e-001
6.1576873e-001
5.5802894e-001
5.0730360e-001
4.6605203e-001
4.6330136e-001
4.8884711e-001
5.9308928e-001
7.4161685e-001
9.2659324e-001
1.1262852e+000
1.2239112e+000
1.2881129e+000
1.2489320e+000
1.1865870e+000
1.1548029e+000
1.1283166e+000
1.1481342e+000
1.1719260e+000
1.1918640e+000
1.2126189e+000
1.2404852e+000
1.2694979e+000
1.3002771e+000
1.3244507e+000
1.3311239e+000
1.3370086e+000
1.3449800e+000
1.3575712e+000
1.3767532e+000
1.3741423e+000
1.3464137e+000
1.3131107e+000
1.2773194e+000
1.2875509e+000
1.3299078e+000
1.3693324e+000
1.4053200e+000
1.3872929e+000
1.3466136e+000
1.3343723e+000
1.3318160e+000
1.4060150e+000
1.4977865e+000
1.5844239e+000
1.6664417e+000
1.6808023e+000
1.6786114e+000
1.6251301e+000
1.5573554e+000
1.4594178e+000
1.3580166e+000
1.2597001e+000
1.1941972e+000
1.1998552e+000
1.2521521e+000
1.3648740e+000
1.4570999e+000
1.5105888e+000
1.4952031e+000
1.4141312e+000
1.3256189e+000
1.2386351e+000
1.2218663e+000
1.2512736e+000
1.3360280e+000
1.4465797e+000
1.5475743e+000
1.6432881e+000
1.6941839e+000
1.7308532e+000
1.7139971e+000
1.6836094e+000
1.6157618e+000
1.5395031e+000
1.4514557e+000
1.3619980e+000
1.2771171e+000
1.2030630e+000
1.1645075e+000
1.1515814e+000
1.1867818e+000
1.2359357e+000
1.2936900e+000
1.3327225e+000
1.3407160e+000
1.3207071e+000
1.2741643e+000
1.2188362e+000
1.1596954e+000
1.1026350e+000
1.0476711e+000
1.0141157e+000
9.9395210e-001
1.0315833e+000
1.0982014e+000
1.1516906e+000
1.1980600e+000
1.1207945e+000
1.0021152e+000
8.7463784e-001
7.5302899e-001
7.5305957e-001
7.8598326e-001
8.3169371e-001
8.6659342e-001
8.4042913e-001
8.0451000e-001
7.8553826e-001
7.7982920e-001
7.9465699e-001
7.8956199e-001
7.4110442e-001
6.7010516e-001
5.8203673e-001
5.2406716e-001
5.0438714e-001
5.3200144e-001
5.9566623e-001
6.6348124e-001
7.2885966e-001
7.5259900e-001
7.5017804e-001
7.2487986e-001
6.8976873e-001
6.9988239e-001
7.3037493e-001
7.8557956e-001
8.4762675e-001
8.5857618e-001
8.5126996e-001
8.2634884e-001
8.0210751e-001
8.1143409e-001
8.3158201e-001
8.5351843e-001
8.6761576e-001
8.5991168e-001
8.4551412e-001
8.3053678e-001
8.0110186e-001
7.4850011e-001
6.5683568e-001
5.2239442e-001
3.8183880e-001
2.4687949e-001
1.7207751e-001
1.5057456e-001
1.9580963e-001
2.8289703e-001
3.8875663e-001
5.0147957e-001
5.9591085e-001
6.7975998e-001
7.2884887e-001
7.6233584e-001
7.7600604e-001
7.8235859e-001
7.9041326e-001
7.9087108e-001
7.3581022e-001
6.4718890e-001
5.0613433e-001
3.6031055e-001
2.5969827e-001
1.9237177e-001
1.6436644e-001
1.4457901e-001
1.1437020e-001
9.6539095e-002
1.0226850e-001
1.3882671e-001
2.0526206e-001
2.5659487e-001
2.8337950e-001
2.9082417e-001
2.8642443e-001
2.4983200e-001
1.9023097e-001
2.7973223e-002
-2.0027190e-001
-4.9391001e-001
-8.2032537e-001
-9.8632711e-001
-1.0614567e+000
-9.2023849e-001
-6.7572057e-001
-4.1162771e-001
-1.4722496e-001
7.0603997e-002
2.3553440e-001
2.8555617e-001
2.4603893e-001
9.9582419e-002
-7.1846843e-002
-2.0284741e-001
-2.8958935e-001
-3.2753372e-001
-3.5975778e-001
-4.0960458e-001
-4.5439142e-001
-4.8563582e-001
-4.7734550e-001
-4.3169996e-001
-4.5751470e-001
-5.5796647e-001
-7.3826337e-001
-9.6943212e-001
-1.0352874e+000
-9.7721356e-001
-7.8549469e-001
-5.1900858e-001
-3.4487092e-001
-2.3245531e-001
-2.0727800e-001
-2.3583680e-001
-3.0146539e-001
-3.6660141e-001
-3.4530213e-001
-2.4402352e-001
-2.9375494e-002
1.8612832e-001
2.6982191e-001
2.4761119e-001
1.3418044e-001
3.2055765e-002
-1.8115607e-001
-4.2983428e-001
-6.0404575e-001
-7.3103386e-001
-8.3247852e-001
-9.3381375e-001
-1.0432376e+000
-1.1851652e+000
-1.3555959e+000
-1.4993706e+000
-1.6155201e+000
-1.5852600e+000
-1.4460530e+000
-1.1953532e+000
-8.7828279e-001
-6.6511679e-001
-5.2443284e-001
-4.1082627e-001
-2.7842650e-001
8.5792854e-002
7.0955086e-001
1.6147871e+000
2.5927949e+000
3.3793068e+000
4.0083427e+000
4.5107322e+000
5.1009316e+000
5.9759555e+000
7.4223480e+000
9.5878286e+000
1.2741968e+001
1.6883286e+001
2.1202721e+001
2.5306871e+001
2.8916765e+001
3.2046761e+001
3.5514828e+001
3.9441998e+001
4.4017494e+001
4.9112961e+001
5.3648773e+001
5.7657772e+001
6.1655304e+001
6.5713127e+001
7.0323532e+001
7.5327286e+001
8.0190498e+001
8.4898827e+001
8.9365189e+001
9.3560982e+001
9.7402580e+001
1.0079486e+002
1.0358650e+002
1.0560100e+002
1.0667776e+002
1.0655251e+002
1.0509035e+002
1.0272552e+002
9.9895981e+001
9.6698593e+001
9.3249741e+001
8.9260872e+001
8.4681961e+001
8.0002571e+001
7.5404099e+001
7.0975807e+001
6.6714104e+001
6.2194241e+001
5.7385597e+001
5.2697865e+001
4.8173191e+001
4.4111801e+001
4.0521488e+001
3.7409496e+001
3.4764629e+001
3.2452396e+001
3.0455086e+001
2.8662596e+001
2.7113752e+001
2.5851435e+001
2.4881758e+001
2.4167999e+001
2.3693058e+001
2.3398565e+001
2.3279667e+001
2.3309429e+001
2.3479765e+001
2.3768612e+001
2.4154131e+001
2.4613956e+001
2.5198128e+001
2.5921629e+001
2.6799707e+001
2.7830311e+001
2.8921570e+001
3.0051281e+001
3.1161730e+001
3.2247131e+001
3.3421112e+001
3.4749630e+001
3.6720943e+001
3.9364902e+001
4.2201401e+001
4.5061989e+001
4.7229088e+001
4.8704372e+001
4.9819607e+001
5.0549881e+001
5.0975746e+001
5.1016941e+001
5.0636974e+001
4.9874542e+001
4.8844994e+001
4.7614975e+001
4.6273262e+001
4.4806221e+001
4.3208500e+001
4.1500298e+001
3.9693256e+001
3.7911152e+001
3.6213600e+001
3.4595345e+001
3.3062588e+001
3.1399441e+001
2.9540802e+001
2.7218410e+001
2.4317507e+001
2.1446972e+001
1.8682480e+001
1.6412493e+001
1.4704160e+001
1.3083714e+001
1.1543075e+001
9.9735813e+000
8.3692484e+000
6.7379293e+000
5.1214366e+000
3.6079602e+000
2.2845922e+000
1.2504627e+000
5.3592134e-001
1.3704543e-001
1.5504436e-001
6.4307559e-001
1.3289540e+000
2.0847845e+000
2.7562642e+000
3.2325852e+000
3.6189826e+000
3.9419484e+000
4.3072395e+000
4.7603397e+000
5.2219810e+000
5.6778951e+000
5.9801822e+000
6.0486970e+000
6.0075321e+000
5.8182063e+000
5.6073141e+000
5.3669114e+000
5.1093001e+000
4.8110800e+000
4.4291291e+000
3.9581127e+000
3.4538944e+000
2.9608779e+000
2.5768027e+000
2.3379653e+000
2.2746551e+000
2.3902297e+000
2.6805637e+000
3.0832114e+000
3.5408440e+000
3.9901018e+000
4.3739300e+000
4.7044888e+000
4.9697080e+000
5.1943407e+000
5.3707538e+000
5.5376239e+000
5.7004676e+000
5.8950572e+000
6.1458817e+000
6.3723831e+000
6.5442762e+000
6.5843592e+000
6.4167852e+000
6.1354570e+000
5.7054405e+000
5.2496939e+000
4.7633247e+000
4.2690086e+000
3.7759824e+000
3.3142219e+000
2.8985279e+000
2.5444798e+000
2.2216079e+000
1.8657088e+000
1.4792616e+000
1.0634128e+000
6.7682952e-001
3.9674100e-001
1.9858097e-001
1.0098723e-001
3.6270991e-002
-6.7189801e-003
-3.0817073e-002
-6.2264200e-002
-8.7781422e-002
-9.8072283e-002
-8.4994152e-002
-2.3495430e-002
6.3637868e-002
1.9757918e-001
3.3949891e-001
4.9618405e-001
6.6665971e-001
8.6171973e-001
1.0884229e+000
1.3563480e+000
1.6487817e+000
1.9623001e+000
2.2684700e+000
2.5556090e+000
2.7990081e+000
2.9963791e+000
3.1400492e+000
3.2412336e+000
3.3025181e+000
3.3380842e+000
3.3493190e+000
3.3483429e+000
3.3359072e+000
3.3226674e+000
3.3143330e+000
3.3149600e+000
3.3374579e+000
3.3645663e+000
3.3999224e+000
3.4324136e+000
3.4605861e+000
3.5048044e+000
3.5842311e+000
3.7004776e+000
3.8813491e+000
4.1006756e+000
4.3792467e+000
4.6968231e+000
5.0646820e+000
5.4613400e+000
5.8846049e+000
6.3074484e+000
6.7310643e+000
7.1580667e+000
7.5936003e+000
8.0518713e+000
8.5113249e+000
8.9369345e+000
9.3188009e+000
9.5976496e+000
9.8206110e+000
9.9530954e+000
1.0046554e+001
1.0067120e+001
1.0048562e+001
9.9268293e+000
9.7551661e+000
9.4454565e+000
9.0861092e+000
8.6104126e+000
8.1203136e+000
7.6058717e+000
7.1104059e+000
6.6464295e+000
6.1910377e+000
5.7448006e+000
5.2880945e+000
4.8178520e+000
4.3376217e+000
3.8512444e+000
3.3774850e+000
2.9189498e+000
2.4876661e+000
2.0783520e+000
1.6963949e+000
1.3432143e+000
1.0595218e+000
8.1985289e-001
6.6819245e-001
5.5150342e-001
4.9609274e-001
4.6928599e-001
5.2457917e-001
5.9761345e-001
7.1917909e-001
8.1635839e-001
8.3692485e-001
8.2384783e-001
7.3182249e-001
6.5231371e-001
6.0201639e-001
5.8594614e-001
6.2298977e-001
6.5747613e-001
6.8010265e-001
6.5275598e-001
5.6507927e-001
4.2718512e-001
2.5472969e-001
1.1971319e-001
2.8295131e-002
3.7721027e-002
1.1217633e-001
2.8363457e-001
5.0178170e-001
7.7013934e-001
1.0502886e+000
1.3203435e+000
1.5811663e+000
1.8029600e+000
2.0225909e+000
2.2494886e+000
2.4672508e+000
2.6437325e+000
2.7854290e+000
2.8159347e+000
2.8235149e+000
2.7767382e+000
2.7390277e+000
2.7271624e+000
2.7806036e+000
2.9440000e+000
3.1905465e+000
3.5375919e+000
3.8849227e+000
4.2288461e+000
4.5472465e+000
4.8406515e+000
5.0939703e+000
5.3094420e+000
5.4237962e+000
5.4840388e+000
5.4813504e+000
5.4539342e+000
5.3960710e+000
5.3274107e+000
5.2286291e+000
5.1244321e+000
5.0080676e+000
4.8877835e+000
4.7457385e+000
4.6115828e+000
4.5134730e+000
4.4367523e+000
4.4265409e+000
4.4069180e+000
4.3617144e+000
4.2839537e+000
4.1471033e+000
4.0158973e+000
3.8953123e+000
3.8024099e+000
3.7384200e+000
3.6524417e+000
3.5385795e+000
3.3392553e+000
3.0727701e+000
2.7172000e+000
2.3136911e+000
1.8935622e+000
1.4726543e+000
1.1127092e+000
7.7432591e-001
4.9306455e-001
2.2408894e-001
-1.5209094e-002
-2.4534658e-001
-3.9655891e-001
-5.3532606e-001
-5.9377515e-001
-6.5113449e-001
-7.0430571e-001
-7.6789391e-001
-8.6331934e-001
-9.5537359e-001
-1.0368942e+000
-1.0723714e+000
-1.0255272e+000
-9.3127745e-001
-7.7445579e-001
-6.2454373e-001
-4.8214087e-001
-3.4670213e-001
-2.1637583e-001
-7.8450903e-002
6.2029019e-002
1.6434100e-001
2.4708596e-001
2.8305718e-001
3.0364770e-001
3.1751135e-001
3.2856870e-001
3.0880600e-001
2.8232279e-001
1.8372899e-001
8.5651129e-002
3.6625497e-002
4.2956602e-004
1.3414862e-002
4.0630039e-002
7.8056782e-002
1.5803885e-001
3.6447936e-001
6.4763582e-001
1.0933830e+000
1.5110418e+000
1.8820479e+000
2.1520581e+000
2.2972674e+000
2.3094935e+000
2.1973338e+000
2.0144701e+000
1.7840006e+000
1.7307606e+000
1.7725799e+000
1.9708149e+000
2.2280014e+000
2.3678234e+000
2.4762335e+000
2.4606981e+000
2.4252453e+000
2.4568999e+000
