Image.
>Pix99999.
  .
5555
5555
2300
900
5555
2
1
0
701
5555
8.1152000e-002
8.2840584e-002
8.4528171e-002
8.6216748e-002
8.7905340e-002
8.9592934e-002
9.1281511e-002
9.2970088e-002
9.4657689e-002
9.6346259e-002
9.8034844e-002
9.9722445e-002
1.0141101e-001
1.0309861e-001
1.0478619e-001
1.0647378e-001
1.0816137e-001
1.0984895e-001
1.1153654e-001
1.1322413e-001
1.1492143e-001
1.1660930e-001
1.1829688e-001
1.1998447e-001
1.2167206e-001
1.2335964e-001
5.1209569e-002
1.8677829e-003
-1.9110719e-002
2.7760839e-002
8.4566697e-002
1.5327959e-001
2.2240566e-001
2.8202677e-001
3.3745304e-001
3.6348149e-001
3.7837890e-001
3.4956914e-001
3.2108063e-001
3.0089980e-001
3.0348659e-001
3.5482016e-001
4.2500320e-001
5.2120370e-001
6.1050391e-001
6.8920672e-001
7.6466578e-001
8.3758795e-001
9.3828672e-001
1.0597858e+000
1.1707286e+000
1.2748375e+000
1.3066536e+000
1.3071212e+000
1.2653791e+000
1.2106686e+000
1.1505480e+000
1.0894834e+000
1.0456131e+000
1.0051051e+000
1.0211743e+000
1.0431741e+000
1.0743569e+000
1.1018610e+000
1.1026646e+000
1.1089407e+000
1.1449229e+000
1.1989688e+000
1.2914257e+000
1.3721030e+000
1.4229200e+000
1.4392017e+000
1.4100869e+000
1.3798182e+000
1.3537169e+000
1.3494822e+000
1.3642759e+000
1.3967160e+000
1.4400414e+000
1.5230685e+000
1.6270628e+000
1.7567215e+000
1.8961414e+000
2.0015361e+000
2.0956919e+000
2.1419551e+000
2.1773248e+000
2.1672382e+000
2.1478891e+000
2.0897992e+000
2.0263643e+000
1.9632161e+000
1.9076629e+000
1.8850648e+000
1.8748220e+000
1.8872557e+000
1.8944908e+000
1.8833262e+000
1.8654040e+000
1.8409064e+000
1.8395286e+000
1.8698500e+000
1.9119760e+000
1.9615399e+000
2.0062926e+000
2.0458651e+000
2.1031234e+000
2.1722777e+000
2.2387478e+000
2.3032720e+000
2.3285556e+000
2.3377109e+000
2.3169761e+000
2.2873073e+000
2.2744472e+000
2.2671337e+000
2.2954504e+000
2.3305333e+000
2.3566036e+000
2.3763871e+000
2.3716457e+000
2.3588336e+000
2.3362701e+000
2.3054578e+000
2.2605498e+000
2.2071679e+000
2.1441000e+000
2.1027677e+000
2.0951376e+000
2.1259787e+000
2.1929314e+000
2.2378950e+000
2.2554862e+000
2.2157800e+000
2.1361203e+000
2.0726242e+000
2.0247400e+000
2.0656047e+000
2.1519644e+000
2.2734241e+000
2.4061201e+000
2.4596519e+000
2.4845750e+000
2.4291236e+000
2.3514280e+000
2.2648151e+000
2.1792870e+000
2.1218631e+000
2.0804670e+000
2.0844796e+000
2.1037500e+000
2.1386871e+000
2.1704290e+000
2.1799476e+000
2.1808782e+000
2.1679757e+000
2.1530316e+000
2.1401811e+000
2.1236176e+000
2.1059206e+000
2.0896342e+000
2.0769138e+000
2.0854981e+000
2.1114540e+000
2.1205206e+000
2.1166143e+000
2.0452459e+000
1.9371539e+000
1.8597879e+000
1.7971720e+000
1.8211415e+000
1.8740307e+000
1.8931342e+000
1.8909593e+000
1.8209946e+000
1.7344000e+000
1.6685600e+000
1.6291684e+000
1.6355159e+000
1.6486871e+000
1.6372372e+000
1.5977495e+000
1.5252420e+000
1.4429202e+000
1.3691103e+000
1.3151121e+000
1.2894766e+000
1.3015091e+000
1.3413188e+000
1.3944340e+000
1.4445443e+000
1.4775964e+000
1.4989611e+000
1.5078938e+000
1.5129143e+000
1.4740443e+000
1.4099721e+000
1.3330394e+000
1.2488408e+000
1.2757735e+000
1.3515286e+000
1.5122794e+000
1.6952323e+000
1.7920980e+000
1.8282435e+000
1.7311257e+000
1.5853597e+000
1.4396334e+000
1.3114948e+000
1.2310593e+000
1.1565900e+000
1.0776827e+000
1.0006871e+000
9.3757337e-001
9.2714089e-001
9.5937771e-001
1.0048631e+000
1.0354770e+000
1.0259677e+000
9.9037141e-001
9.2265683e-001
8.4203601e-001
7.1652383e-001
5.6947660e-001
4.0245759e-001
2.3381858e-001
1.5800250e-001
1.3976389e-001
2.1953496e-001
3.3985999e-001
4.6340340e-001
5.8021849e-001
7.0065063e-001
8.2618016e-001
9.4999963e-001
1.0646927e+000
1.1215205e+000
1.1183376e+000
1.0405840e+000
9.0092695e-001
7.2291541e-001
5.2488214e-001
3.2662642e-001
1.8581669e-001
1.1069113e-001
1.3593170e-001
2.4397351e-001
3.2186303e-001
3.5949194e-001
2.8568777e-001
1.3197128e-001
6.4720914e-002
5.9072480e-002
1.9808087e-001
4.1156530e-001
5.6267297e-001
6.6227645e-001
6.7679942e-001
6.3489377e-001
5.6436151e-001
4.8724371e-001
4.5047185e-001
4.5886093e-001
5.0116116e-001
5.3651744e-001
4.9142355e-001
3.7426019e-001
2.1186149e-001
5.4955311e-002
-1.1803243e-001
-2.6917371e-001
-3.5557812e-001
-4.2074424e-001
-4.7687170e-001
-5.8869195e-001
-7.7077252e-001
-9.7726059e-001
-1.2082103e+000
-1.3667517e+000
-1.4533093e+000
-1.3706400e+000
-1.1536379e+000
-8.5497278e-001
-5.2014601e-001
-3.4303892e-001
-2.8906536e-001
-2.5189668e-001
-2.0203109e-001
7.9833716e-003
3.5634732e-001
9.0355271e-001
1.5574541e+000
2.0926230e+000
2.5215230e+000
2.8928640e+000
3.3731506e+000
4.1494412e+000
5.5143147e+000
7.6100516e+000
1.0752290e+001
1.4903143e+001
1.9183529e+001
2.3183250e+001
2.6660904e+001
2.9682846e+001
3.3145123e+001
3.7167793e+001
4.1936169e+001
4.7276039e+001
5.1884701e+001
5.5806042e+001
5.9551910e+001
6.3247028e+001
6.7491417e+001
7.2126907e+001
7.6568100e+001
8.0772339e+001
8.4597229e+001
8.8056511e+001
9.1181755e+001
9.3912140e+001
9.6175270e+001
9.7877838e+001
9.8927544e+001
9.9229073e+001
9.8694466e+001
9.7566513e+001
9.6136147e+001
9.4271400e+001
9.1989990e+001
8.8848068e+001
8.4757492e+001
8.0270508e+001
7.5623474e+001
7.1109818e+001
6.6797806e+001
6.2296642e+001
5.7577084e+001
5.2991028e+001
4.8568890e+001
4.4543858e+001
4.0923100e+001
3.7766830e+001
3.5065071e+001
3.2729462e+001
3.0735071e+001
2.8934010e+001
2.7362623e+001
2.6055765e+001
2.5036200e+001
2.4299999e+001
2.3828043e+001
2.3551989e+001
2.3446667e+001
2.3459129e+001
2.3592543e+001
2.3844410e+001
2.4215069e+001
2.4705317e+001
2.5348331e+001
2.6147343e+001
2.7113356e+001
2.8223078e+001
2.9412712e+001
3.0659161e+001
3.1882158e+001
3.3077847e+001
3.4348351e+001
3.5765469e+001
3.7850922e+001
4.0674728e+001
4.3741020e+001
4.6836010e+001
4.9156120e+001
5.0682549e+001
5.1835217e+001
5.2653587e+001
5.3326859e+001
5.3844120e+001
5.4107769e+001
5.3994114e+001
5.3411617e+001
5.2441830e+001
5.1305836e+001
5.0058823e+001
4.8748051e+001
4.7307045e+001
4.5669010e+001
4.3914764e+001
4.2023754e+001
4.0168430e+001
3.8417671e+001
3.6536682e+001
3.4508507e+001
3.1899822e+001
2.8564121e+001
2.5263239e+001
2.2053755e+001
1.9416986e+001
1.7410980e+001
1.5426858e+001
1.3463695e+001
1.1453712e+001
9.4243126e+000
7.4334254e+000
5.5358014e+000
3.8164802e+000
2.3407197e+000
1.2142977e+000
4.5204949e-001
6.7931145e-002
1.4077191e-001
5.7819152e-001
1.1825945e+000
1.8157618e+000
2.3527472e+000
2.7507064e+000
3.1152263e+000
3.5015564e+000
3.9991760e+000
4.6535602e+000
5.3283215e+000
5.9674048e+000
6.4177113e+000
6.5728612e+000
6.6286283e+000
6.5524921e+000
6.4411402e+000
6.2837448e+000
6.0547514e+000
5.7405701e+000
5.3130369e+000
4.7859020e+000
4.2473488e+000
3.7138660e+000
3.2745843e+000
2.9499559e+000
2.7683289e+000
2.7655952e+000
2.9497440e+000
3.2721200e+000
3.6780529e+000
4.0629549e+000
4.3802662e+000
4.6550322e+000
4.9025030e+000
5.1735950e+000
5.4798884e+000
5.7998919e+000
6.1238461e+000
6.4008074e+000
6.5764542e+000
6.6907291e+000
6.6666675e+000
6.5747252e+000
6.3652000e+000
6.0835953e+000
5.7006302e+000
5.2626371e+000
4.7610807e+000
4.2189517e+000
3.6681108e+000
3.1573060e+000
2.7073145e+000
2.3479195e+000
2.0241606e+000
1.6651108e+000
1.2753785e+000
8.4203279e-001
4.4536608e-001
1.8370658e-001
1.8615402e-002
-8.0961483e-003
1.8944770e-002
7.3933288e-002
1.2329358e-001
1.7525160e-001
2.4426122e-001
3.5654184e-001
4.8740482e-001
6.4141828e-001
7.9234344e-001
8.9255553e-001
9.6640056e-001
9.9507403e-001
1.0225507e+000
1.0750129e+000
1.1628867e+000
1.3165754e+000
1.5118811e+000
1.7536399e+000
1.9989629e+000
2.2241366e+000
2.4070437e+000
2.5317144e+000
2.6042929e+000
2.6272395e+000
2.5939622e+000
2.5302072e+000
2.4357719e+000
2.3501000e+000
2.3036785e+000
2.2920792e+000
2.3435330e+000
2.4141440e+000
2.5076773e+000
2.5948720e+000
2.6560256e+000
2.7095196e+000
2.7457049e+000
2.7936101e+000
2.8726089e+000
2.9737685e+000
3.1186812e+000
3.2824039e+000
3.4699531e+000
3.6682382e+000
3.8711059e+000
4.0653119e+000
4.2492037e+000
4.4249601e+000
4.5994368e+000
4.7933574e+000
5.0020733e+000
5.2227025e+000
5.4442000e+000
5.6413789e+000
5.8198109e+000
5.9609656e+000
6.0777216e+000
6.1497002e+000
6.1858115e+000
6.1349764e+000
6.0244088e+000
5.7491450e+000
5.4129386e+000
4.9161353e+000
4.4031763e+000
3.8540130e+000
3.3261991e+000
2.8417857e+000
2.3806143e+000
1.9629850e+000
1.5765297e+000
1.2398839e+000
9.4880867e-001
7.1266901e-001
5.0903964e-001
3.3393005e-001
1.5703161e-001
-2.1894574e-002
-2.0688550e-001
-3.8739663e-001
-5.3467488e-001
-6.5565598e-001
-7.2891837e-001
-7.7545315e-001
-7.7669215e-001
-7.5262672e-001
-6.6479236e-001
-5.5345798e-001
-3.8062370e-001
-1.9729315e-001
9.6562803e-003
2.0365383e-001
3.5356635e-001
4.7932482e-001
5.4744810e-001
6.1731070e-001
6.9036794e-001
7.5708526e-001
8.0465078e-001
7.9104400e-001
6.9201636e-001
5.4346240e-001
3.4935641e-001
1.8541178e-001
5.9065618e-002
5.2048899e-003
9.4454326e-003
6.8397917e-002
1.6183521e-001
3.2556972e-001
5.2312303e-001
7.5860423e-001
9.9622834e-001
1.1926614e+000
1.3669586e+000
1.4624760e+000
1.5428940e+000
1.5808443e+000
1.6255254e+000
1.7008874e+000
1.7784469e+000
1.8606638e+000
1.9197350e+000
1.9213234e+000
1.9117092e+000
1.8800000e+000
1.8439535e+000
1.8005428e+000
1.7505689e+000
1.7024060e+000
1.7264287e+000
1.8369440e+000
2.0712500e+000
2.4014049e+000
2.7431602e+000
3.0718315e+000
3.2553701e+000
3.3562772e+000
3.3297908e+000
3.2626204e+000
3.2042031e+000
3.1487083e+000
3.1042542e+000
3.0530400e+000
2.9421999e+000
2.8225212e+000
2.6647146e+000
2.5166628e+000
2.4128942e+000
2.3389065e+000
2.3601930e+000
2.3884857e+000
2.4293180e+000
2.4263778e+000
2.3394182e+000
2.2248468e+000
2.0721796e+000
1.9419199e+000
1.8361756e+000
1.7194988e+000
1.5886896e+000
1.4032121e+000
1.1832142e+000
9.8670310e-001
8.0849224e-001
6.9667226e-001
6.0816622e-001
5.0120574e-001
3.8321769e-001
1.9806996e-001
-1.6407669e-003
-2.3977320e-001
-4.7546342e-001
-6.4577579e-001
-7.9196715e-001
-7.7757972e-001
-7.4619538e-001
-6.4230430e-001
-5.6737256e-001
-5.8471286e-001
-6.3747972e-001
-7.6940882e-001
-8.7274075e-001
-9.2222619e-001
-9.1720158e-001
-8.3832639e-001
-7.5033271e-001
-6.5579659e-001
-6.0318863e-001
-5.8683825e-001
-6.2179685e-001
-6.8512499e-001
-7.1111900e-001
-7.1597993e-001
-6.3925505e-001
-5.3708065e-001
-4.3996099e-001
-3.4590855e-001
-2.8617990e-001
-2.3099840e-001
-1.8199259e-001
-1.3055243e-001
-4.0959965e-002
2.2857934e-003
7.1053818e-002
2.0437668e-001
3.3996940e-001
4.8781085e-001
6.7270672e-001
8.8336664e-001
1.1480318e+000
1.3783183e+000
1.5522064e+000
1.6484540e+000
1.6502383e+000
1.6031057e+000
1.5110762e+000
1.4719671e+000
1.4710281e+000
1.5748342e+000
1.7344720e+000
1.8313489e+000
1.9065814e+000
1.9318812e+000
1.9467646e+000
2.1249871e+000
2.3302228e+000
2.5559001e+000
