##TITLE=Methyl Ethyl Ketone
##JCAMP-DX=4.24
##DATA TYPE=INFRARED SPECTRUM
##XUNITS=cm-1
##YUNITS=Absorbance
##FIRSTX=900
##LASTX=2300
##XYDATA=(X++(Y..Y))
2296 -0.061685
2294 -0.062968165
2292 -0.064251326
2290 -0.065535486
2288 -0.066818655
2286 -0.068101823
2284 -0.069384985
2282 -0.070668146
2280 -0.071951315
2278 -0.073234484
2276 -0.074517645
2274 -0.075800806
2272 -0.077084951
2270 -0.078368135
2268 -0.079651304
2266 -0.080934465
2264 -0.082217626
2262 -0.083500788
2260 -0.084783956
2258 -0.086067125
2256 -0.087350287
2254 -0.088634424
2252 -0.089917615
2250 -0.091200776
2248 -0.092483945
2246 -0.093767107
2244 -0.0034844829
2242 0.13611905
2240 0.28049201
2238 0.25991929
2236 0.21500985
2234 0.035858661
2232 -0.14893112
2230 -0.24417622
2228 -0.31717265
2226 -0.24680799
2224 -0.15065245
2222 0.030181389
2220 0.22214425
2218 0.43424276
2216 0.62026685
2214 0.74684161
2212 0.81583679
2210 0.79660666
2208 0.71473938
2206 0.56155396
2204 0.3965328
2202 0.22444229
2200 0.15503556
2198 0.16269331
2196 0.26202786
2194 0.41126743
2192 0.46654731
2190 0.47915724
2188 0.33187371
2186 0.13352807
2184 0.02031284
2182 -0.072589926
2180 0.089472614
2178 0.28958112
2176 0.49974197
2174 0.70067704
2172 0.78757173
2170 0.85961246
2168 0.90860933
2166 0.93937856
2164 0.91198409
2162 0.85221457
2160 0.72438842
2158 0.58755893
2156 0.44676098
2154 0.34070513
2152 0.28559846
2150 0.28802085
2148 0.34928218
2146 0.38918784
2144 0.40476206
2142 0.34559768
2140 0.23624417
2138 0.17866041
2136 0.15203944
2134 0.24581556
2132 0.38896161
2130 0.52203798
2128 0.65045244
2126 0.70635092
2124 0.74549198
2122 0.76500708
2120 0.77889538
2118 0.74230647
2116 0.69301039
2114 0.60231793
2112 0.51795125
2110 0.48792613
2108 0.47937152
2106 0.51164538
2104 0.54293418
2102 0.55888158
2100 0.57564938
2098 0.5976969
2096 0.6130414
2094 0.61873102
2092 0.56652951
2090 0.4558509
2088 0.30566594
2086 0.12957101
2084 -0.00049766712
2082 -0.097894847
2080 -0.15020715
2078 -0.18095885
2076 -0.22752656
2074 -0.28169382
2072 -0.32134041
2070 -0.35597622
2068 -0.31437886
2066 -0.25253493
2064 -0.1175227
2062 0.031783454
2060 0.17915763
2058 0.30482331
2056 0.31294373
2054 0.2776117
2052 0.17041269
2050 0.05979912
2048 -0.022191353
2046 -0.10518321
2044 -0.2005416
2042 -0.29956692
2040 -0.40130997
2038 -0.46782455
2036 -0.49226743
2034 -0.48830813
2032 -0.46417096
2030 -0.41696578
2028 -0.35387558
2026 -0.27638379
2024 -0.19096817
2022 -0.124003
2020 -0.067018598
2018 -0.025290824
2016 0.0101726
2014 0.038461648
2012 0.063924216
2010 0.068270318
2008 0.067236826
2006 0.074304774
2004 0.089231752
2002 0.14701284
2000 0.22122583
1998 0.32219845
1996 0.42904499
1994 0.53500724
1992 0.61481285
1990 0.63358724
1988 0.58579481
1986 0.44420743
1984 0.277008
1982 0.10525885
1980 -0.0029690377
1978 -0.036887664
1976 -0.018201999
1974 0.035070959
1972 0.064731255
1970 0.071581811
1968 0.063757561
1966 0.049151134
1964 0.059014704
1962 0.081458554
1960 0.12330776
1958 0.17261823
1956 0.22406657
1954 0.27411541
1952 0.27123743
1950 0.24689865
1948 0.19145674
1946 0.1408575
1944 0.16663395
1942 0.22846638
1940 0.32316917
1938 0.39895985
1936 0.3964417
1934 0.36433348
1932 0.3235268
1930 0.30012098
1928 0.31246945
1926 0.29579413
1924 0.23060131
1922 0.11974921
1920 -0.028716464
1918 -0.11311255
1916 -0.13512157
1914 -0.079660155
1912 0.024593035
1910 0.15498009
1908 0.29730129
1906 0.44416144
1904 0.591842
1902 0.65355402
1900 0.6740098
1898 0.63119471
1896 0.56699431
1894 0.55076057
1892 0.55685991
1890 0.58206952
1888 0.6137929
1886 0.6362431
1884 0.65528971
1882 0.67317343
1880 0.67239195
1878 0.6319918
1876 0.553819
1874 0.43749851
1872 0.33578616
1870 0.27863649
1868 0.28702176
1866 0.35266843
1864 0.41617864
1862 0.45348591
1860 0.47052497
1858 0.47811481
1856 0.47422856
1854 0.46618676
1852 0.31643552
1850 0.075225264
1848 -0.3586536
1846 -0.89367467
1844 -1.2160171
1842 -1.4062042
1840 -1.1451809
1838 -0.67559528
1836 -0.21199474
1834 0.20763071
1832 0.43164566
1830 0.53634548
1828 0.52064127
1826 0.45159951
1824 0.36401868
1822 0.29168445
1820 0.26892459
1818 0.26907277
1816 0.28306773
1814 0.27541348
1812 0.23278843
1810 0.1862959
1808 0.14746651
1806 0.13020751
1804 0.13242134
1802 0.014546894
1800 -0.2148679
1798 -0.58207566
1796 -1.0390143
1794 -1.2938797
1792 -1.398128
1790 -1.1961106
1788 -0.81717277
1786 -0.47023088
1784 -0.16625984
1782 -0.066235207
1780 -0.10322858
1778 -0.28554702
1776 -0.5193994
1774 -0.64117986
1772 -0.61876464
1770 -0.34180766
1768 0.017891079
1766 0.26813281
1764 0.36142701
1762 0.25291118
1760 0.068577372
1758 -0.27135146
1756 -0.67384988
1754 -1.0200069
1752 -1.3689433
1750 -1.7408971
1748 -2.13954
1746 -2.5624535
1744 -2.9077022
1742 -3.1807833
1740 -3.3261573
1738 -3.3730261
1736 -3.25684
1734 -3.0215762
1732 -2.5694244
1730 -1.9769733
1728 -1.4132246
1726 -0.89488339
1724 -0.52347755
1722 -0.24991938
1720 0.047301039
1718 0.45256707
1716 1.1142554
1714 1.9261413
1712 2.7439194
1710 3.464273
1708 3.9722681
1706 4.3996644
1704 4.8879495
1702 5.8177528
1700 7.4165244
1698 10.225917
1696 14.342
1694 18.87014
1692 23.335573
1690 27.23773
1688 30.545446
1686 34.111862
1684 38.087761
1682 42.735268
1680 47.924038
1678 52.439331
1676 56.324001
1674 60.112373
1672 63.916435
1670 68.424057
1668 73.448273
1666 78.370697
1664 83.124512
1662 87.479004
1660 91.436729
1658 94.98632
1656 98.057602
1654 100.55307
1652 102.387
1650 103.50393
1648 103.78017
1646 103.14679
1644 101.80048
1642 99.990555
1640 97.723366
1638 95.085556
1636 91.817596
1634 87.889641
1632 83.69252
1630 79.39489
1628 75.095032
1626 70.823502
1624 66.212242
1622 61.25433
1620 56.358337
1618 51.57365
1616 47.268997
1614 43.456223
1612 40.182724
1610 37.43008
1608 35.036388
1606 32.985744
1604 31.165043
1602 29.602171
1600 28.311327
1598 27.281139
1596 26.4515
1594 25.825279
1592 25.375017
1590 25.121147
1588 25.055874
1586 25.149307
1584 25.363245
1582 25.618521
1580 25.86812
1578 26.128529
1576 26.406401
1574 26.818905
1572 27.39168
1570 28.163246
1568 29.13516
1566 30.213799
1564 31.391459
1562 32.69265
1560 34.173977
1558 36.221359
1556 38.8801
1554 41.738449
1552 44.621513
1550 46.82938
1548 48.313278
1546 49.317463
1544 49.829628
1542 49.986084
1540 49.849621
1538 49.551987
1536 49.073086
1534 48.421204
1532 47.517281
1530 46.344814
1528 44.90678
1526 43.21735
1524 41.339268
1522 39.300152
1520 37.365772
1518 35.642601
1516 34.129169
1514 32.851124
1512 31.379
1510 29.61615
1508 27.31044
1506 24.339235
1504 21.43771
1502 18.674183
1500 16.388254
1498 14.63622
1496 12.938143
1494 11.300913
1492 9.6716623
1490 8.0671015
1488 6.5039067
1486 5.0241394
1484 3.6878238
1482 2.537755
1480 1.6215514
1478 0.92648482
1476 0.40294713
1474 0.15442336
1472 0.27844143
1470 0.68459052
1468 1.2719901
1466 1.8382078
1464 2.2739131
1462 2.5984724
1460 2.8012385
1458 3.0751343
1456 3.49418
1454 4.0828695
1452 4.8901567
1450 5.5638928
1448 6.0069008
1446 6.2603393
1444 6.2481599
1442 6.1233101
1440 5.8443804
1438 5.4473696
1436 4.9132915
1434 4.3013797
1432 3.6511579
1430 3.1004677
1428 2.663892
1426 2.3419237
1424 2.1260903
1422 1.9822072
1420 1.9687874
1418 2.1487069
1416 2.5248029
1414 3.1145861
1412 3.7611237
1410 4.3644304
1408 4.8846269
1406 5.2724366
1404 5.5492935
1402 5.6628299
1400 5.6526518
1398 5.453896
1396 5.2571926
1394 5.0911217
1392 5.0410647
1390 5.1635365
1388 5.2813649
1386 5.3723803
1384 5.3675513
1382 5.2160745
1380 4.944664
1378 4.5200925
1376 4.0023799
1374 3.4258211
1372 2.9244819
1370 2.518743
1368 2.218312
1366 1.9513358
1364 1.5911077
1362 1.1673839
1360 0.71126908
1358 0.31289297
1356 0.092021093
1354 -0.020810723
1352 -0.020966239
1350 0.009786943
1348 0.029710243
1346 0.017238654
1344 -0.019872604
1342 -0.066308141
1340 -0.12323963
1338 -0.14237632
1336 -0.081823573
1334 0.063036472
1332 0.34038156
1330 0.63963711
1328 0.96249717
1326 1.2467279
1324 1.4780937
1322 1.6639086
1320 1.8041915
1318 1.9396995
1316 2.0853801
1314 2.2742379
1312 2.4892759
1310 2.6906986
1308 2.8520346
1306 2.9348142
1304 2.9597194
1302 2.941524
1300 2.9119923
1298 2.8969879
1296 2.8987999
1294 2.9290459
1292 2.9653211
1290 2.9979589
1288 3.03546
1286 3.0857251
1284 3.1598227
1282 3.2909701
1280 3.430171
1278 3.5834644
1276 3.716517
1274 3.8132591
1272 3.8998058
1270 3.9798076
1268 4.0960054
1266 4.267385
1264 4.4789181
1262 4.7367549
1260 5.0112262
1258 5.3129354
1256 5.6613712
1254 6.0572386
1252 6.497004
1250 6.9595613
1248 7.4070559
1246 7.8399501
1244 8.2451591
1242 8.6336498
1240 8.998538
1238 9.3321257
1236 9.5848513
1234 9.7763681
1232 9.8190241
1230 9.8067675
1228 9.6656027
1226 9.4955158
1224 9.2504978
1222 8.9745493
1220 8.6223116
1218 8.2369461
1216 7.7844973
1214 7.3114657
1212 6.8055568
1210 6.2960482
1208 5.7817845
1206 5.2683301
1204 4.753746
1202 4.2320414
1200 3.708396
1198 3.2041273
1196 2.7248073
1194 2.2921097
1192 1.8955531
1190 1.539736
1188 1.2180046
1186 0.96331292
1184 0.75481021
1182 0.64556223
1180 0.57858413
1178 0.59330285
1176 0.63499999
1174 0.74149728
1172 0.86017025
1170 1.0089619
1168 1.1359543
1166 1.1912186
1164 1.1967155
1162 1.0803211
1160 0.94283187
1158 0.77169478
1156 0.64498985
1154 0.59371823
1152 0.57723367
1150 0.59558702
1148 0.55791801
1146 0.45375249
1144 0.29978731
1142 0.12052042
1140 0.028632469
1138 0.027624294
1136 0.20463686
1134 0.48969609
1132 0.90125203
1130 1.3552861
1128 1.7788875
1126 2.1890321
1124 2.5730858
1122 2.9530435
1120 3.33566
1118 3.7051494
1116 4.0019398
1114 4.2711453
1112 4.4281697
1110 4.5481267
1108 4.552978
1106 4.5651097
1104 4.6028771
1102 4.7122235
1100 4.9601412
1098 5.2297897
1096 5.5298429
1094 5.8125963
1092 6.0786657
1090 6.374805
1088 6.698647
1086 7.0140038
1084 7.3117142
1082 7.5291786
1080 7.6877928
1078 7.7626882
1076 7.7970071
1074 7.8083577
1072 7.8241596
1070 7.9274373
1068 8.0429945
1066 8.1087008
1064 8.1329002
1062 7.8990011
1060 7.6496181
1058 7.3825674
1056 7.1531229
1054 7.0877528
1052 7.0333495
1050 7.0115361
1048 6.9608369
1046 6.8382001
1044 6.6793189
1042 6.4547849
1040 6.240901
1038 6.0423517
1036 5.8485403
1034 5.6533294
1032 5.3887606
1030 5.0625401
1028 4.7263503
1026 4.3863406
1024 4.0730805
1022 3.7658961
1020 3.3777912
1018 2.9543612
1016 2.4887629
1014 2.020653
1012 1.6495692
1010 1.3066592
1008 1.0974327
1006 0.90648925
1004 0.79836655
1002 0.67675096
1000 0.45696497
998 0.20570411
996 -0.18260717
994 -0.55840421
992 -0.8948251
990 -1.2125046
988 -1.4861665
986 -1.7349107
984 -1.9315245
982 -1.9880021
980 -1.85242
978 -1.6237936
976 -1.3030601
974 -1.0394198
972 -0.82071465
970 -0.59483683
968 -0.36123627
966 -0.069896907
964 0.24424459
962 0.49265605
960 0.70918095
958 0.7054832
956 0.64767241
954 0.43465361
952 0.20752475
950 0.092377245
948 -0.010591082
946 -0.0034906177
944 0.00030503981
942 0.0085302703
940 -0.001076445
938 0.036700521
936 0.075744852
934 0.11856239
932 0.15508606
930 0.17875072
928 0.22399536
926 0.30431277
924 0.41135699
922 0.5512141
920 0.70216531
918 0.86322415
916 1.02297
914 1.1817921
912 1.3521252
910 1.529508
908 1.7501469
906 1.9892457
904 2.3173161
902 2.6698332
900 3.0736799
898 3.4858623
896 3.7391
