##TITLE=Methyl Ethyl Ketone
##JCAMP-DX=4.24
##DATA TYPE=INFRARED SPECTRUM
##XUNITS=cm-1
##YUNITS=Absorbance
##FIRSTX=900
##LASTX=2300
##XYDATA=(X++(Y..Y))
2296 0.12476
2294 0.12735629
2292 0.12995256
2290 0.13254885
2288 0.1351352
2286 0.13773143
2284 0.14032771
2282 0.142924
2280 0.14552028
2278 0.14811657
2276 0.15071285
2274 0.15330914
2272 0.15590543
2270 0.15850171
2268 0.16109799
2266 0.16366492
2264 0.16628011
2262 0.16896467
2260 0.17147547
2258 0.17374839
2256 0.17665629
2254 0.1804648
2252 0.18189727
2250 0.1799767
2248 0.18689212
2246 0.20374499
2244 0.17235464
2242 0.040121514
2240 -0.15625657
2238 -0.36353576
2236 -0.56392312
2234 -0.74822766
2232 -0.90024769
2230 -1.0042933
2228 -1.0556248
2226 -1.052775
2224 -0.99569005
2222 -0.88804543
2220 -0.74623525
2218 -0.59618282
2216 -0.4867346
2214 -0.46077412
2212 -0.50968897
2210 -0.60626853
2208 -0.71118295
2206 -0.7902717
2204 -0.84454292
2202 -0.88252574
2200 -0.89934468
2198 -0.88668245
2196 -0.83981574
2194 -0.75821531
2192 -0.65375984
2190 -0.54043669
2188 -0.42507157
2186 -0.31444272
2184 -0.2248008
2182 -0.17301638
2180 -0.16601425
2178 -0.19985951
2176 -0.23973601
2174 -0.24585468
2172 -0.19907117
2170 -0.098037265
2168 0.01451592
2166 0.085388429
2164 0.077676564
2162 -0.024603378
2160 -0.17552042
2158 -0.30943632
2156 -0.36494601
2154 -0.30227712
2152 -0.16215304
2150 -0.011057033
2148 0.091962412
2146 0.10927892
2144 0.077619404
2142 0.053729448
2140 0.070414715
2138 0.14114729
2136 0.23765858
2134 0.32273057
2132 0.38229674
2130 0.41193411
2128 0.41092041
2126 0.37993509
2124 0.32111031
2122 0.23969859
2120 0.15198687
2118 0.074837886
2116 0.010950397
2114 -0.042539641
2112 -0.089153051
2110 -0.12953594
2108 -0.15220952
2106 -0.14136665
2104 -0.082236201
2102 0.033328444
2100 0.18837833
2098 0.35404831
2096 0.49179426
2094 0.56497812
2092 0.55880976
2090 0.47348139
2088 0.33538675
2086 0.1800155
2084 0.039324962
2082 -0.062358472
2080 -0.12505206
2078 -0.15898971
2076 -0.17690501
2074 -0.18943506
2072 -0.196034
2070 -0.19057362
2068 -0.16277908
2066 -0.10500346
2064 -0.027048983
2062 0.051617868
2060 0.10132612
2058 0.092978343
2056 0.016123015
2054 -0.1252906
2052 -0.30047023
2050 -0.46772227
2048 -0.58535105
2046 -0.62180501
2044 -0.58568698
2042 -0.50487936
2040 -0.41616794
2038 -0.3519994
2036 -0.31415388
2034 -0.29129392
2032 -0.27363947
2030 -0.25655472
2028 -0.25118965
2026 -0.27234563
2024 -0.3211897
2022 -0.39241943
2020 -0.4807879
2018 -0.58192807
2016 -0.69378197
2014 -0.81049603
2012 -0.90602648
2010 -0.95083117
2008 -0.93991947
2006 -0.88240677
2004 -0.79709023
2002 -0.70277339
2000 -0.60240978
1998 -0.49140546
1996 -0.36557785
1994 -0.22809136
1992 -0.11058246
1990 -0.053063985
1988 -0.074002296
1986 -0.17054082
1984 -0.2963421
1982 -0.39472073
1980 -0.45091495
1978 -0.4753978
1976 -0.49401829
1974 -0.53104502
1972 -0.5779497
1970 -0.61424625
1968 -0.63916749
1966 -0.66296339
1964 -0.69634646
1962 -0.74441487
1960 -0.79052401
1958 -0.81354475
1956 -0.81994069
1954 -0.82898992
1952 -0.85166365
1950 -0.89072597
1948 -0.93663698
1946 -0.9796775
1944 -1.0348747
1942 -1.1248385
1940 -1.2476648
1938 -1.3845789
1936 -1.5045142
1934 -1.576777
1932 -1.596388
1930 -1.5717807
1928 -1.5096469
1926 -1.4146535
1924 -1.290668
1922 -1.1462111
1920 -1.0106364
1918 -0.91578138
1916 -0.85562938
1914 -0.80435848
1912 -0.74425554
1910 -0.67166013
1908 -0.61684752
1906 -0.616606
1904 -0.65649039
1902 -0.6926316
1900 -0.68438482
1898 -0.60542011
1896 -0.47262287
1894 -0.32773691
1892 -0.21608852
1890 -0.1782767
1888 -0.23476069
1886 -0.38459283
1884 -0.58325732
1882 -0.76697826
1880 -0.89321208
1878 -0.94133759
1876 -0.92286599
1874 -0.86367571
1872 -0.77603585
1870 -0.666655
1868 -0.5607692
1866 -0.49228191
1864 -0.4804801
1862 -0.52834702
1860 -0.61070621
1858 -0.69148755
1856 -0.75745767
1854 -0.80879039
1852 -0.8362565
1850 -0.82463771
1848 -0.76477325
1846 -0.65807819
1844 -0.53320503
1842 -0.43036783
1840 -0.36813247
1838 -0.34532809
1836 -0.34087285
1834 -0.32610899
1832 -0.28724933
1830 -0.22759868
1828 -0.17950082
1826 -0.1871587
1824 -0.26997784
1822 -0.42240077
1820 -0.60699338
1818 -0.76843292
1816 -0.85484201
1814 -0.82878077
1812 -0.69821739
1810 -0.50085258
1808 -0.27630731
1806 -0.058171302
1804 0.13741323
1802 0.30570155
1800 0.44203144
1798 0.54286939
1796 0.61576998
1794 0.6669389
1792 0.6616956
1790 0.55412787
1788 0.37794811
1786 0.22080593
1784 0.15136018
1782 0.20629068
1780 0.36914822
1778 0.59547919
1776 0.86993426
1774 1.1900218
1772 1.4988091
1770 1.6978601
1768 1.6886046
1766 1.4110879
1764 0.95823264
1762 0.50828767
1760 0.13280931
1758 -0.17411785
1756 -0.35503
1754 -0.3116115
1752 -0.025626749
1750 0.43663079
1748 0.92487371
1746 1.2562536
1744 1.3409394
1742 1.1951956
1740 0.97450489
1738 0.88999838
1736 0.978104
1734 1.1195415
1732 1.1415018
1730 0.89318645
1728 0.41923761
1726 -0.082419425
1724 -0.40551788
1722 -0.37435901
1720 0.11726713
1718 1.0786496
1716 2.3053958
1714 3.4719186
1712 4.4268055
1710 5.2121735
1708 6.0272341
1706 7.1614394
1704 8.8619423
1702 11.283451
1700 14.373135
1698 17.891792
1696 21.458143
1694 24.668579
1692 27.430305
1690 29.958918
1688 32.673309
1686 36.058922
1684 40.323227
1682 45.336815
1680 50.545319
1678 55.224148
1676 59.334942
1674 63.430004
1672 67.906929
1670 72.835052
1668 77.825035
1666 82.216797
1664 85.721603
1662 88.444069
1660 90.580589
1658 92.326752
1656 93.817284
1654 95.101471
1652 96.090721
1650 96.576866
1648 96.298759
1646 95.046387
1644 92.990372
1642 90.597038
1640 88.111679
1638 85.499062
1636 82.610405
1634 79.285736
1632 75.571793
1630 71.685226
1628 67.709267
1626 63.566883
1624 59.1712
1622 54.484707
1620 49.615242
1618 44.796997
1616 40.248428
1614 36.136753
1612 32.577072
1610 29.6255
1608 27.232553
1606 25.261635
1604 23.600258
1602 22.186916
1600 21.015514
1598 20.121935
1596 19.519001
1594 19.184298
1592 19.076519
1590 19.148844
1588 19.383677
1586 19.7934
1584 20.393982
1582 21.21209
1580 22.339846
1578 23.920189
1576 26.026485
1574 28.617655
1572 31.497429
1570 34.360409
1568 37.045158
1566 39.569328
1564 41.971333
1562 44.300278
1560 46.750462
1558 49.584965
1556 52.643543
1554 55.328228
1552 57.190662
1550 58.106529
1548 58.295662
1546 58.228107
1544 58.108925
1542 57.771442
1540 56.910999
1538 55.233562
1536 52.831257
1534 50.206432
1532 47.801933
1530 45.854881
1528 44.375427
1526 43.1549
1524 41.914223
1522 40.366695
1520 38.339615
1518 35.833439
1516 33.068314
1514 30.4335
1512 28.09436
1510 25.904669
1508 23.645224
1506 21.135185
1504 18.443296
1502 15.896756
1500 13.702751
1498 11.85146
1496 10.262129
1494 8.8295689
1492 7.477972
1490 6.1686106
1488 4.8434153
1486 3.4357049
1484 2.0070901
1482 0.77378905
1480 -0.061019897
1478 -0.3598811
1476 -0.038262427
1474 0.90342349
1472 2.2644994
1470 3.6492682
1468 4.821722
1466 5.8117242
1464 6.7374477
1462 7.7444954
1460 8.9143286
1458 10.214748
1456 11.4734
1454 12.393325
1452 12.799728
1450 12.724436
1448 12.289371
1446 11.668393
1444 10.999134
1442 10.350824
1440 9.7483454
1438 9.1716795
1436 8.5759354
1434 7.904335
1432 7.1513677
1430 6.3857183
1428 5.6940117
1426 5.1575093
1424 4.8151789
1422 4.6460834
1420 4.600347
1418 4.6110044
1416 4.6349974
1414 4.671526
1412 4.747571
1410 4.9120307
1408 5.193831
1406 5.5846124
1404 6.0564408
1402 6.5630612
1400 7.0412078
1398 7.4112763
1396 7.6034284
1394 7.5746665
1392 7.33112
1390 6.9398737
1388 6.4678745
1386 5.9616351
1384 5.4605751
1382 4.9994364
1380 4.6047015
1378 4.2856202
1376 4.0111313
1374 3.6994421
1372 3.2853041
1370 2.7530808
1368 2.1371188
1366 1.5263815
1364 0.98953509
1362 0.5441556
1360 0.19150166
1358 -0.07219997
1356 -0.23676029
1354 -0.27064854
1352 -0.15132993
1350 0.12039107
1348 0.52948552
1346 1.0465479
1344 1.6388121
1342 2.2710273
1340 2.8936701
1338 3.4361343
1336 3.8298972
1334 4.0236831
1332 4.0080605
1330 3.834408
1328 3.5610497
1326 3.2359092
1324 2.9085908
1322 2.6324396
1320 2.4458144
1318 2.3557613
1316 2.33582
1314 2.3175354
1312 2.2394943
1310 2.0731254
1308 1.8250291
1306 1.5480485
1304 1.2989491
1302 1.120597
1300 1.0389123
1298 1.056023
1296 1.1688572
1294 1.3748541
1292 1.672758
1290 2.0618153
1288 2.5318239
1286 3.0547428
1284 3.5926447
1282 4.0993524
1280 4.5389514
1278 4.8989754
1276 5.1822457
1274 5.4089332
1272 5.6005344
1270 5.7750888
1268 5.9564309
1266 6.1806598
1264 6.4858789
1262 6.9052415
1260 7.450932
1258 8.0988426
1256 8.8211346
1254 9.6008024
1252 10.435805
1250 11.345547
1248 12.342257
1246 13.407
1244 14.502197
1242 15.567132
1240 16.531612
1238 17.32468
1236 17.880787
1234 18.146345
1232 18.079359
1230 17.656761
1228 16.877083
1226 15.775801
1224 14.421149
1222 12.92403
1220 11.417289
1218 10.04553
1216 8.9287882
1214 8.1268377
1212 7.6526871
1210 7.4542336
1208 7.4580474
1206 7.5780864
1204 7.7263598
1202 7.8177223
1200 7.7739124
1198 7.5334959
1196 7.0670285
1194 6.4062161
1192 5.6150742
1190 4.7924037
1188 4.0251384
1186 3.3542671
1184 2.7921298
1182 2.3136775
1180 1.8979425
1178 1.5517374
1176 1.29064
1174 1.1326588
1172 1.0778309
1170 1.0864671
1168 1.1188217
1166 1.1568129
1164 1.1969926
1162 1.253754
1160 1.3275291
1158 1.3784492
1156 1.3655614
1154 1.2698164
1152 1.0963296
1150 0.89289081
1148 0.70560038
1146 0.55199391
1144 0.43325967
1142 0.32793292
1140 0.20691122
1138 0.038418904
1136 -0.18825771
1134 -0.43359572
1132 -0.65573877
1130 -0.83580476
1128 -0.96080768
1126 -1.0191592
1124 -1.0030522
1122 -0.91404516
1120 -0.76962841
1118 -0.6181612
1116 -0.50164199
1114 -0.42672536
1112 -0.37914079
1110 -0.31582364
1108 -0.2062304
1106 -0.068373702
1104 0.068674766
1102 0.17968296
1100 0.26276833
1098 0.37201339
1096 0.56548285
1094 0.87491214
1092 1.3053241
1090 1.8094084
1088 2.3291759
1086 2.8122606
1084 3.2158163
1082 3.5184357
1080 3.7080021
1078 3.7832961
1076 3.7507613
1074 3.6301668
1072 3.4476497
1070 3.237973
1068 3.0346348
1066 2.8609135
1064 2.734416
1062 2.6629441
1060 2.6446526
1058 2.6579258
1056 2.675277
1054 2.6664248
1052 2.614176
1050 2.539047
1048 2.4702485
1046 2.4349537
1044 2.4520495
1042 2.5200427
1040 2.6398566
1038 2.8328292
1036 3.1107399
1034 3.4418538
1032 3.7629914
1030 3.9539504
1028 3.9204195
1026 3.6875107
1024 3.328892
1022 2.9730501
1020 2.7126179
1018 2.491569
1016 2.2222972
1014 1.8343225
1012 1.3031895
1010 0.73123968
1008 0.22960877
1006 -0.16056085
1004 -0.43611789
1002 -0.6572051
1000 -0.87758297
998 -1.0821737
996 -1.2375286
994 -1.307132
992 -1.2692102
990 -1.1535771
988 -1.0102223
986 -0.91232169
984 -0.91590703
982 -1.0026698
980 -1.124032
978 -1.1940111
976 -1.1440572
974 -0.99527049
972 -0.79658413
970 -0.61552495
968 -0.50856674
966 -0.47922298
964 -0.51549387
962 -0.59702563
960 -0.6997636
958 -0.79403305
956 -0.84858739
954 -0.8320815
952 -0.72310197
950 -0.53558278
948 -0.30335021
946 -0.098706961
944 0.0268986
942 0.12991144
940 0.28084731
938 0.50444841
936 0.81295031
934 1.2139584
932 1.6942786
930 2.1684904
928 2.5333641
926 2.6876965
924 2.5773981
922 2.3229151
920 2.084491
918 2.006453
916 2.1839514
914 2.5379848
912 2.9643984
910 3.427655
908 3.923126
906 4.4977722
904 5.1789346
902 5.8659916
900 6.4460592
898 6.8859091
896 7.1718001
