Image.
>Pix99999.
  .
5555
5555
2300
900
5555
2
1
0
701
5555
-2.5988000e-005
-2.6493279e-005
-2.6999553e-005
-2.7564574e-005
-2.8071103e-005
-2.8695529e-005
-2.9171921e-005
-2.9737330e-005
-3.0184892e-005
-3.0836578e-005
-3.1227457e-005
-3.1877709e-005
-3.2298834e-005
-3.2978278e-005
-3.3356537e-005
-3.3976587e-005
-3.4455119e-005
-3.5019231e-005
-3.5555215e-005
-3.6134228e-005
-3.6598802e-005
-3.7168782e-005
-3.7763268e-005
-3.8337141e-005
-3.8812781e-005
-3.9367071e-005
-1.4629456e-006
4.3605592e-002
9.4540596e-002
1.4168119e-001
1.8824242e-001
1.8577681e-001
1.8010195e-001
1.8193629e-001
1.8827187e-001
2.2764450e-001
2.6039577e-001
2.5525951e-001
2.3462279e-001
1.7298795e-001
1.2082514e-001
9.4389476e-002
9.1385461e-002
1.2413043e-001
1.5898629e-001
1.9370542e-001
2.0814177e-001
2.0301107e-001
1.7254142e-001
1.2407180e-001
8.1885286e-002
4.4012196e-002
5.2826621e-002
8.1998326e-002
1.3223413e-001
1.8889043e-001
2.2091560e-001
2.4718368e-001
2.4324685e-001
2.3485233e-001
2.2707172e-001
2.2301418e-001
2.6050517e-001
3.0429280e-001
3.6166584e-001
4.1065544e-001
4.2426774e-001
4.2473167e-001
4.0054661e-001
3.7439567e-001
3.4927499e-001
3.3467522e-001
3.3519399e-001
3.5278687e-001
3.8785386e-001
4.2494750e-001
4.6221593e-001
4.8719391e-001
5.0362396e-001
5.2248186e-001
5.4313600e-001
5.7239342e-001
6.0515022e-001
6.1505014e-001
6.1754960e-001
5.8923525e-001
5.5389702e-001
5.3791434e-001
5.2674907e-001
5.4713160e-001
5.7072628e-001
5.8451933e-001
5.9491992e-001
5.9645814e-001
6.0370141e-001
6.3214868e-001
6.6881436e-001
7.1675581e-001
7.5814319e-001
7.8573942e-001
8.0579138e-001
8.1868732e-001
8.3519620e-001
8.5651696e-001
8.7772512e-001
8.9817446e-001
9.1023338e-001
9.1677886e-001
9.0557629e-001
8.8545424e-001
8.4798902e-001
8.0377251e-001
7.8255320e-001
7.6901889e-001
7.8505415e-001
8.0776799e-001
8.0553317e-001
7.9710245e-001
7.7436543e-001
7.5256187e-001
7.5144088e-001
7.5793028e-001
7.7748609e-001
8.0107516e-001
8.2885486e-001
8.5416180e-001
8.7330359e-001
8.8544607e-001
8.8841689e-001
8.9279199e-001
9.0046418e-001
9.1772068e-001
9.4375163e-001
9.7679162e-001
1.0144339e+000
1.0485971e+000
1.0802189e+000
1.0920104e+000
1.0938014e+000
1.0732231e+000
1.0435400e+000
1.0302128e+000
1.0224215e+000
1.0448509e+000
1.0743520e+000
1.0922135e+000
1.1047971e+000
1.1021650e+000
1.0981977e+000
1.1067883e+000
1.1235214e+000
1.1560265e+000
1.1885600e+000
1.2108723e+000
1.2199579e+000
1.2083757e+000
1.1903229e+000
1.1702203e+000
1.1525919e+000
1.1389848e+000
1.1296972e+000
1.1240270e+000
1.1280495e+000
1.1392660e+000
1.1510057e+000
1.1620307e+000
1.1640661e+000
1.1609304e+000
1.1607600e+000
1.1620620e+000
1.1647472e+000
1.1674649e+000
1.1655354e+000
1.1611615e+000
1.1546649e+000
1.1470500e+000
1.1364166e+000
1.1267010e+000
1.1185834e+000
1.1113900e+000
1.1039543e+000
1.0960685e+000
1.0891900e+000
1.0784894e+000
1.0629160e+000
1.0336329e+000
9.8919731e-001
9.4949812e-001
9.1819870e-001
9.2336702e-001
9.5780188e-001
1.0075649e+000
1.0642639e+000
1.1030151e+000
1.1298437e+000
1.1344914e+000
1.1277679e+000
1.1169490e+000
1.1042771e+000
1.1149858e+000
1.1354856e+000
1.1659936e+000
1.1975986e+000
1.2084590e+000
1.2071035e+000
1.1847736e+000
1.1519057e+000
1.1098551e+000
1.0639280e+000
1.0180746e+000
9.7015601e-001
9.2135477e-001
8.7411523e-001
8.3147967e-001
8.0649894e-001
7.9815620e-001
7.9589051e-001
7.9171401e-001
7.7926385e-001
7.6114190e-001
7.4044257e-001
7.2025323e-001
6.6429383e-001
5.8573532e-001
4.4940519e-001
2.8298858e-001
1.7086075e-001
9.3466751e-002
1.3424237e-001
2.2762509e-001
3.0600828e-001
3.6519718e-001
3.6985663e-001
3.5288244e-001
3.4289342e-001
3.5020864e-001
3.8882616e-001
4.3421638e-001
4.6711698e-001
4.7690320e-001
4.5892602e-001
4.1539907e-001
3.5136977e-001
2.8533119e-001
2.2428320e-001
1.8357350e-001
1.6228829e-001
1.2340687e-001
6.5231144e-002
-2.6076458e-002
-1.4005607e-001
-2.0473036e-001
-2.3356840e-001
-1.6695820e-001
-4.5209613e-002
8.0658779e-002
2.0023023e-001
2.5087866e-001
2.5243342e-001
1.8882820e-001
8.6534515e-002
-3.2033954e-002
-1.3454179e-001
-1.6951528e-001
-1.5284137e-001
-9.4857417e-002
-3.5673860e-002
-6.4907698e-003
3.0944778e-003
-6.6916123e-002
-1.7672157e-001
-2.7524793e-001
-3.5234496e-001
-4.0585619e-001
-4.3630740e-001
-4.5132428e-001
-4.7552869e-001
-5.1611650e-001
-5.7475388e-001
-6.4463663e-001
-6.4542997e-001
-5.8923179e-001
-4.3529376e-001
-2.2133861e-001
-8.5243404e-002
-1.2430315e-002
-3.3858716e-003
-2.6453149e-002
-4.3921303e-003
8.9116864e-002
3.7275243e-001
8.0823767e-001
1.3394486e+000
1.9126072e+000
2.4732060e+000
3.1148400e+000
3.9292624e+000
5.1713262e+000
6.9797320e+000
9.6917534e+000
1.3346572e+001
1.7262331e+001
2.1087709e+001
2.4508263e+001
2.7513794e+001
3.0918335e+001
3.4828621e+001
3.9619328e+001
4.5131920e+001
5.0067329e+001
5.4434887e+001
5.8547180e+001
6.2553280e+001
6.7372437e+001
7.2830795e+001
7.8454948e+001
8.4040497e+001
8.8956467e+001
9.3130928e+001
9.6353195e+001
9.8630486e+001
9.9988014e+001
1.0060760e+002
1.0076691e+002
1.0043995e+002
9.9639290e+001
9.8296455e+001
9.6434723e+001
9.3955803e+001
9.0896606e+001
8.7068474e+001
8.2498039e+001
7.7807831e+001
7.3224068e+001
6.8811081e+001
6.4562920e+001
6.0105881e+001
5.5411861e+001
5.0858883e+001
4.6480484e+001
4.2525799e+001
3.9009491e+001
3.6001469e+001
3.3492050e+001
3.1354158e+001
2.9563570e+001
2.7983839e+001
2.6636549e+001
2.5525772e+001
2.4656878e+001
2.4000999e+001
2.3560505e+001
2.3305445e+001
2.3224026e+001
2.3281797e+001
2.3441586e+001
2.3663383e+001
2.3912479e+001
2.4167540e+001
2.4479755e+001
2.4868629e+001
2.5405441e+001
2.6104004e+001
2.6936913e+001
2.7893600e+001
2.8882793e+001
2.9896254e+001
3.1040245e+001
3.2411724e+001
3.4751995e+001
3.8168388e+001
4.2223560e+001
4.6650784e+001
5.0114529e+001
5.2598007e+001
5.4537964e+001
5.5949844e+001
5.7048748e+001
5.7785061e+001
5.8140736e+001
5.8080486e+001
5.7630127e+001
5.6832611e+001
5.5789402e+001
5.4497108e+001
5.2964100e+001
5.1127308e+001
4.8940701e+001
4.6538658e+001
4.3961304e+001
4.1550743e+001
3.9436272e+001
3.7336479e+001
3.5205212e+001
3.2545067e+001
2.9215250e+001
2.6030931e+001
2.3085566e+001
2.0647051e+001
1.8748819e+001
1.6755714e+001
1.4644070e+001
1.2429174e+001
1.0138744e+001
7.9014144e+000
5.7978191e+000
3.9529440e+000
2.4402993e+000
1.3086697e+000
5.5968833e-001
1.4066514e-001
2.1262971e-001
8.5180724e-001
1.7251500e+000
2.6993775e+000
3.5573399e+000
4.1554632e+000
4.5767121e+000
4.8206339e+000
5.0184679e+000
5.1931200e+000
5.4302711e+000
5.7592926e+000
6.0313387e+000
6.2027326e+000
6.2723250e+000
6.1995454e+000
6.0685258e+000
5.8496695e+000
5.5314775e+000
5.0803399e+000
4.5072880e+000
3.8371634e+000
3.2166550e+000
2.6776779e+000
2.2665272e+000
1.9750413e+000
1.7624841e+000
1.6476631e+000
1.6452224e+000
1.7621000e+000
2.0155280e+000
2.3223679e+000
2.6348562e+000
2.9301388e+000
3.1906571e+000
3.4526415e+000
3.7280638e+000
4.0143323e+000
4.3146133e+000
4.6274071e+000
4.9573393e+000
5.2715149e+000
5.5416265e+000
5.7134891e+000
5.7235999e+000
5.6187453e+000
5.3516502e+000
5.0032034e+000
4.5527430e+000
4.0481944e+000
3.5060720e+000
2.9984579e+000
2.5482492e+000
2.1876178e+000
1.8746650e+000
1.5298549e+000
1.1515094e+000
7.3019886e-001
3.4252000e-001
8.6493403e-002
-5.6380607e-002
-4.0341839e-002
4.5448638e-002
1.8563735e-001
3.3162001e-001
4.8925120e-001
6.4420050e-001
7.9253763e-001
9.5751214e-001
1.1559886e+000
1.3759953e+000
1.6238492e+000
1.8639040e+000
2.0883985e+000
2.2986536e+000
2.4945977e+000
2.6921699e+000
2.8989382e+000
3.1221731e+000
3.3640602e+000
3.6117430e+000
3.8558292e+000
4.0801158e+000
4.2776875e+000
4.4416986e+000
4.5716114e+000
4.6559978e+000
4.7047024e+000
4.7046504e+000
4.6792145e+000
4.6247439e+000
4.5650640e+000
4.5080557e+000
4.4627838e+000
4.4466114e+000
4.4438396e+000
4.4693136e+000
4.4957075e+000
4.5224576e+000
4.5397258e+000
4.5394387e+000
4.5306334e+000
4.5111394e+000
4.4992828e+000
4.5029030e+000
4.5349545e+000
4.6044192e+000
4.7029300e+000
4.8297505e+000
4.9623032e+000
5.0967059e+000
5.2225666e+000
5.3406935e+000
5.4509029e+000
5.5517502e+000
5.6322203e+000
5.6944427e+000
5.7199349e+000
5.7177935e+000
5.6587729e+000
5.5600319e+000
5.3668799e+000
5.1296964e+000
4.7808433e+000
4.4047422e+000
3.9588821e+000
3.5042300e+000
3.0299964e+000
2.5617521e+000
2.1092401e+000
1.6849084e+000
1.3131351e+000
9.8318458e-001
7.1342832e-001
4.7100282e-001
2.6210099e-001
7.3457405e-002
-9.0370171e-002
-2.2338076e-001
-3.2971999e-001
-4.1645753e-001
-4.8815373e-001
-5.4333156e-001
-5.8205843e-001
-5.8283299e-001
-5.6134713e-001
-4.9946186e-001
-4.1332418e-001
-2.6517004e-001
-8.5932001e-002
1.8527988e-001
4.6710220e-001
7.6712924e-001
1.0386789e+000
1.2199671e+000
1.3610568e+000
1.4015510e+000
1.4100302e+000
1.3531508e+000
1.2722557e+000
1.1517904e+000
1.0193956e+000
8.7111205e-001
7.1807224e-001
5.6031501e-001
4.0378875e-001
2.5297180e-001
1.2841305e-001
2.9317727e-002
-2.6978344e-002
-5.1760100e-002
4.5279413e-003
1.0066107e-001
2.4347337e-001
3.9487350e-001
5.2478051e-001
6.4363605e-001
7.2410119e-001
7.9218900e-001
8.1249315e-001
8.1727123e-001
7.6083452e-001
7.0503491e-001
6.5308756e-001
6.1982751e-001
6.3224298e-001
6.4961785e-001
6.7548275e-001
6.9406945e-001
7.0326430e-001
7.2430807e-001
7.6385361e-001
8.3426100e-001
9.3261480e-001
1.0195671e+000
1.0913405e+000
1.1156349e+000
1.1113120e+000
1.1011360e+000
1.0864000e+000
1.0577534e+000
1.0140862e+000
8.9646089e-001
7.5640678e-001
5.7305205e-001
3.9103681e-001
2.6043242e-001
1.4381412e-001
1.0104348e-001
6.3981198e-002
5.1821839e-002
4.0732034e-002
3.3075638e-002
2.4552194e-002
1.3266720e-002
-4.8181228e-003
-3.7379671e-002
-8.8342085e-002
-1.6689846e-001
-2.5668600e-001
-3.5713366e-001
-4.3873456e-001
-5.0391036e-001
-5.7281858e-001
-6.4669085e-001
-7.4635065e-001
-8.5671157e-001
-9.3774557e-001
-1.0042363e+000
-1.0346829e+000
-1.0564646e+000
-1.0893835e+000
-1.1239301e+000
-1.1561600e+000
-1.1870850e+000
-1.2059811e+000
-1.2256535e+000
-1.2509784e+000
-1.2679938e+000
-1.2475001e+000
-1.2063991e+000
-1.1020560e+000
-9.9459404e-001
-8.8157564e-001
-7.9411584e-001
-7.5154126e-001
-7.2498643e-001
-7.1865523e-001
-6.9713527e-001
-6.6072285e-001
-6.3579917e-001
-6.2226731e-001
-6.4933640e-001
-6.9976264e-001
-7.2981203e-001
-7.4841905e-001
-7.2324109e-001
-6.8430841e-001
-6.5024990e-001
-6.1606359e-001
-5.5355692e-001
-4.8480439e-001
-3.4700030e-001
-2.0640264e-001
-6.7611858e-002
1.2303442e-003
3.8739137e-002
1.2781975e-001
2.8937298e-001
4.6766430e-001
6.9430178e-001
8.9487779e-001
1.0385691e+000
1.1213777e+000
1.1064814e+000
1.0534176e+000
9.5472354e-001
8.7127912e-001
8.0227321e-001
7.5632399e-001
7.2637820e-001
6.8344361e-001
6.3401240e-001
5.9033859e-001
5.5014801e-001
6.1433631e-001
7.0663172e-001
8.7482655e-001
1.0551350e+000
1.0796000e+000
