Image.
>Pix99999.
  .
5555
5555
2300
900
5555
2
1
0
701
5555
1.1340000e-002
1.1575663e-002
1.1811325e-002
1.2047984e-002
1.2283651e-002
1.2519314e-002
1.2754977e-002
1.2991630e-002
1.3227303e-002
1.3462965e-002
1.3698628e-002
1.3936260e-002
1.4170971e-002
1.4400729e-002
1.4642159e-002
1.4900451e-002
1.5115108e-002
1.5269284e-002
1.5583797e-002
1.6123181e-002
1.6067086e-002
1.5173570e-002
1.6493283e-002
2.0933630e-002
1.7149646e-002
-3.7906069e-004
-3.8000857e-005
4.5574598e-002
1.0498092e-001
1.4004812e-001
1.5300314e-001
1.5576594e-001
1.5217692e-001
1.4076582e-001
1.0834666e-001
4.7042899e-002
-1.5965188e-002
-4.6590056e-002
-2.4410835e-002
5.7269998e-002
1.6645966e-001
2.6488054e-001
3.3519739e-001
3.7170073e-001
3.8945156e-001
4.0651008e-001
4.2785597e-001
4.5387945e-001
4.8297811e-001
5.1345730e-001
5.4544425e-001
5.7681519e-001
5.9403175e-001
5.8235472e-001
5.3678137e-001
4.6173221e-001
3.8713759e-001
3.4451982e-001
3.3865616e-001
3.5949975e-001
3.7215543e-001
3.4551871e-001
2.9608727e-001
2.5896198e-001
2.8063485e-001
3.9597952e-001
5.7867378e-001
7.8002381e-001
9.4415092e-001
1.0254161e+000
1.0280100e+000
9.7588605e-001
9.0371627e-001
8.4535885e-001
8.1761152e-001
8.2783359e-001
8.6937732e-001
9.2764997e-001
9.7491992e-001
9.8253953e-001
9.3662572e-001
8.3602375e-001
7.0990151e-001
5.9772062e-001
5.3730720e-001
5.5698746e-001
6.4965630e-001
7.8962523e-001
9.2766327e-001
1.0156900e+000
1.0443871e+000
1.0219570e+000
9.6884775e-001
9.0505910e-001
8.3148414e-001
7.4563807e-001
6.6100979e-001
5.9542120e-001
5.5815220e-001
5.5003995e-001
5.5128717e-001
5.3702575e-001
4.9382055e-001
4.1820648e-001
3.2838616e-001
2.5218600e-001
2.2282782e-001
2.6629686e-001
3.7076929e-001
5.0546843e-001
6.2370515e-001
6.8268919e-001
6.7991841e-001
6.3323247e-001
5.7617617e-001
5.4177886e-001
5.3713697e-001
5.5607086e-001
5.8277416e-001
5.9999448e-001
5.9911484e-001
5.7532275e-001
5.2393800e-001
4.4113597e-001
3.2725680e-001
1.8867500e-001
4.9740721e-002
-5.9994020e-002
-1.2103775e-001
-1.2480447e-001
-8.8624597e-002
-3.8645349e-002
8.3222566e-003
4.3571580e-002
7.2832689e-002
1.0803206e-001
1.6143635e-001
2.3929136e-001
3.2336143e-001
3.8453135e-001
3.9420798e-001
3.3491945e-001
2.3259544e-001
1.2849283e-001
4.5203235e-002
-9.3240710e-003
-4.7950316e-002
-8.8813730e-002
-1.3405532e-001
-1.7779882e-001
-2.1417572e-001
-2.3992659e-001
-2.6065844e-001
-2.8378773e-001
-3.0655101e-001
-3.2151023e-001
-3.2324868e-001
-3.0937052e-001
-2.8484625e-001
-2.5434816e-001
-2.0628743e-001
-1.2411769e-001
-5.0726347e-003
1.3977203e-001
2.7135721e-001
3.4457365e-001
3.4565881e-001
2.8346935e-001
1.9276200e-001
1.1364421e-001
5.8265943e-002
2.2372741e-002
-4.2614862e-003
-3.1724587e-002
-6.1144888e-002
-8.8433750e-002
-1.0749302e-001
-1.1258899e-001
-1.0256962e-001
-8.1307694e-002
-6.3933454e-002
-6.9982678e-002
-1.1326304e-001
-1.9800514e-001
-3.0196851e-001
-3.8601694e-001
-3.9768508e-001
-2.9477358e-001
-1.0616338e-001
9.9531949e-002
2.5033915e-001
2.9255518e-001
2.4584931e-001
1.6422990e-001
7.5995348e-002
-9.2821699e-003
-8.6663999e-002
-1.4727922e-001
-1.6051231e-001
-9.3140900e-002
4.5588858e-002
2.1691671e-001
3.6284131e-001
4.2544898e-001
3.8539657e-001
2.5323629e-001
7.0183173e-002
-1.1235963e-001
-2.6681668e-001
-3.8224846e-001
-4.5345300e-001
-4.7555220e-001
-4.3692780e-001
-3.3090124e-001
-1.9098455e-001
-7.2795406e-002
-2.2053499e-002
-6.4963832e-002
-1.7819837e-001
-3.1427428e-001
-4.4740373e-001
-5.7030165e-001
-6.8626177e-001
-8.0130500e-001
-9.1225398e-001
-1.0080519e+000
-1.0700123e+000
-1.0797186e+000
-1.0374217e+000
-9.5732474e-001
-8.6086315e-001
-7.6540434e-001
-6.5517408e-001
-4.9986386e-001
-2.9994655e-001
-8.5357487e-002
8.0325246e-002
1.2853727e-001
5.4483980e-002
-9.9849992e-002
-2.7752972e-001
-4.2408317e-001
-5.1779020e-001
-5.5782044e-001
-5.3805518e-001
-4.5462799e-001
-3.4142771e-001
-2.5628078e-001
-2.4829268e-001
-3.3842617e-001
-4.6051571e-001
-5.0507981e-001
-4.2844921e-001
-2.4789390e-001
-2.2055939e-002
1.7927319e-001
3.3553743e-001
4.6135908e-001
5.6429523e-001
6.4437473e-001
7.1095252e-001
7.7441221e-001
8.1441367e-001
7.9227030e-001
6.8892443e-001
5.1248872e-001
3.1828341e-001
1.7279692e-001
4.8848744e-002
-1.3166434e-001
-3.5161200e-001
-5.2050638e-001
-5.7215869e-001
-4.8579630e-001
-3.1923753e-001
-1.7871249e-001
-1.4530486e-001
-2.4907465e-001
-4.0434027e-001
-4.5903790e-001
-3.3639598e-001
-5.2658111e-002
2.6041737e-001
4.1899669e-001
3.5771781e-001
1.3173631e-001
-1.1417431e-001
-1.8851930e-001
6.6899136e-002
7.3498392e-001
1.7032214e+000
2.7256622e+000
3.6186604e+000
4.3110991e+000
4.9287620e+000
5.7391295e+000
6.9980392e+000
8.9109583e+000
1.1594277e+001
1.5024341e+001
1.8830143e+001
2.2431271e+001
2.5529232e+001
2.8171812e+001
3.0765205e+001
3.3925495e+001
3.8086353e+001
4.3354019e+001
4.9174160e+001
5.4622211e+001
5.9469486e+001
6.4141083e+001
6.9019615e+001
7.4245216e+001
7.9495651e+001
8.4155251e+001
8.7958954e+001
9.1010643e+001
9.3458206e+001
9.5413132e+001
9.6917717e+001
9.7953270e+001
9.8480362e+001
9.8457504e+001
9.7865669e+001
9.6735069e+001
9.5222771e+001
9.3559006e+001
9.1808640e+001
8.9855949e+001
8.7518631e+001
8.4620613e+001
8.1163963e+001
7.7301277e+001
7.3112572e+001
6.8584724e+001
6.3721001e+001
5.8583908e+001
5.3359688e+001
4.8326286e+001
4.3686798e+001
3.9544525e+001
3.5946411e+001
3.2891529e+001
3.0319754e+001
2.8129499e+001
2.6249563e+001
2.4652229e+001
2.3338154e+001
2.2324270e+001
2.1608501e+001
2.1163952e+001
2.0954788e+001
2.0945641e+001
2.1123434e+001
2.1496599e+001
2.2074139e+001
2.2867411e+001
2.3918262e+001
2.5296354e+001
2.7057829e+001
2.9222664e+001
3.1731434e+001
3.4449184e+001
3.7234238e+001
3.9963699e+001
4.2562786e+001
4.5039459e+001
4.7588406e+001
5.0492863e+001
5.3575943e+001
5.6191189e+001
5.7886669e+001
5.8583218e+001
5.8514000e+001
5.8120392e+001
5.7589012e+001
5.6771423e+001
5.5466961e+001
5.3539413e+001
5.1101742e+001
4.8509270e+001
4.6027531e+001
4.3744205e+001
4.1632572e+001
3.9583248e+001
3.7493504e+001
3.5301666e+001
3.3011040e+001
3.0693588e+001
2.8452656e+001
2.6384007e+001
2.4448080e+001
2.2460018e+001
2.0275393e+001
1.7866642e+001
1.5378039e+001
1.3099986e+001
1.1182217e+001
9.5618153e+000
8.1204424e+000
6.7418814e+000
5.3908868e+000
4.1268940e+000
2.9947126e+000
1.9988335e+000
1.1477851e+000
4.6797267e-001
1.0588765e-004
-1.9387077e-001
-5.7801604e-003
6.9363558e-001
1.8719863e+000
3.2948751e+000
4.7430534e+000
6.0900111e+000
7.3208041e+000
8.5337954e+000
9.8186932e+000
1.1200049e+001
1.2571400e+001
1.3690743e+001
1.4385609e+001
1.4625525e+001
1.4472365e+001
1.4062857e+001
1.3515968e+001
1.2898230e+001
1.2246822e+001
1.1568774e+001
1.0833971e+001
9.9843864e+000
9.0247002e+000
8.0509386e+000
7.1795139e+000
6.5144110e+000
6.0969973e+000
5.8835826e+000
5.8032455e+000
5.7788358e+000
5.7646227e+000
5.7646160e+000
5.8119097e+000
5.9599037e+000
6.2351122e+000
6.6155171e+000
7.0474806e+000
7.4486074e+000
7.7384357e+000
7.8544345e+000
7.7714071e+000
7.5156646e+000
7.1398830e+000
6.7147241e+000
6.2937875e+000
5.8980150e+000
5.5333157e+000
5.1932945e+000
4.8645797e+000
4.5268950e+000
4.1580601e+000
3.7382405e+000
3.2645562e+000
2.7575784e+000
2.2340004e+000
1.6969329e+000
1.1502863e+000
6.0825175e-001
1.1396034e-001
-2.5307077e-001
-4.3441784e-001
-4.1914833e-001
-2.1605463e-001
1.5036803e-001
6.4488065e-001
1.2223536e+000
1.8453441e+000
2.4899936e+000
3.1205366e+000
3.6765065e+000
4.0903001e+000
4.2982779e+000
4.2797976e+000
4.0834718e+000
3.7747805e+000
3.4195814e+000
3.0724404e+000
2.7673686e+000
2.5210690e+000
2.3279479e+000
2.1712101e+000
2.0254440e+000
1.8740349e+000
1.7187643e+000
1.5672523e+000
1.4295907e+000
1.3130531e+000
1.2202690e+000
1.1598065e+000
1.1522748e+000
1.2217286e+000
1.3918381e+000
1.6792148e+000
2.0861814e+000
2.6003358e+000
3.1873293e+000
3.7976398e+000
4.3662562e+000
4.8387761e+000
5.1899061e+000
5.4214602e+000
5.5722551e+000
5.6866012e+000
5.8028116e+000
5.9515119e+000
6.1521277e+000
6.4232626e+000
6.7856331e+000
7.2532239e+000
7.8261385e+000
8.4956541e+000
9.2431002e+000
1.0052682e+001
1.0918089e+001
1.1833858e+001
1.2789500e+001
1.3764362e+001
1.4721372e+001
1.5614011e+001
1.6386053e+001
1.6976757e+001
1.7324903e+001
1.7371120e+001
1.7069958e+001
1.6402695e+001
1.5408315e+001
1.4160794e+001
1.2785932e+001
1.1413448e+001
1.0157344e+001
9.1042519e+000
8.2841406e+000
7.7108836e+000
7.3852348e+000
7.2885547e+000
7.3654785e+000
7.5274663e+000
7.6380458e+000
7.5763679e+000
7.2833900e+000
6.7529144e+000
6.0594153e+000
5.2940693e+000
4.5406890e+000
3.8625479e+000
3.2813871e+000
2.7996137e+000
2.3997924e+000
2.0661914e+000
1.7971518e+000
1.5974000e+000
1.4765382e+000
1.4323255e+000
1.4335986e+000
1.4451388e+000
1.4390900e+000
1.4050791e+000
1.3666210e+000
1.3470246e+000
1.3496381e+000
1.3613043e+000
1.3443187e+000
1.2651840e+000
1.1150060e+000
9.0234119e-001
6.6206396e-001
4.3423533e-001
2.5337911e-001
1.2968430e-001
2.1320589e-002
-1.0971569e-001
-2.6243520e-001
-4.2034072e-001
-5.5268747e-001
-6.2998766e-001
-6.3535899e-001
-5.6749547e-001
-4.5570436e-001
-3.3829281e-001
-2.5603762e-001
-2.3564129e-001
-2.6663524e-001
-3.1989527e-001
-3.4358203e-001
-2.9396829e-001
-1.6263716e-001
3.7041724e-002
2.5950462e-001
4.6412140e-001
6.4294696e-001
8.0055285e-001
9.5331097e-001
1.1188940e+000
1.3110201e+000
1.5435138e+000
1.8313158e+000
2.1727386e+000
2.5219648e+000
2.8185833e+000
2.9940438e+000
3.0040956e+000
2.8752804e+000
2.6592932e+000
2.4276028e+000
2.2375050e+000
2.0943279e+000
1.9873439e+000
1.8959017e+000
1.8012406e+000
1.6961424e+000
1.5794942e+000
1.4597020e+000
1.3495283e+000
1.2681290e+000
1.2237126e+000
1.1911857e+000
1.1456206e+000
1.0864826e+000
1.0363429e+000
1.0652679e+000
1.2299600e+000
1.5135182e+000
1.8604281e+000
2.1581502e+000
2.3078716e+000
2.2935693e+000
2.1347311e+000
1.8947841e+000
1.6313505e+000
1.3518360e+000
1.0544965e+000
7.4731803e-001
4.4856301e-001
1.9881886e-001
2.5638483e-002
-1.0062015e-001
-2.2258645e-001
-3.7828052e-001
-5.8335340e-001
-7.8756952e-001
-9.3715286e-001
-1.0191290e+000
-1.0429229e+000
-1.0572894e+000
-1.1072515e+000
-1.1947165e+000
-1.3045605e+000
-1.4008793e+000
-1.4442221e+000
-1.4015661e+000
-1.2502000e+000
-9.9777895e-001
-6.7283070e-001
-3.4900442e-001
-1.0217968e-001
2.2570901e-002
8.3870217e-003
-9.1507472e-002
-2.0747016e-001
-2.7371401e-001
-2.4343914e-001
-1.3259001e-001
1.8358000e-002
1.3840830e-001
1.6912940e-001
1.2366006e-001
4.2763762e-002
2.2568554e-003
7.5449884e-002
2.9474771e-001
6.5851545e-001
1.0787984e+000
1.4590807e+000
1.7508657e+000
1.9374908e+000
2.0774765e+000
2.2460599e+000
2.5112619e+000
2.9139383e+000
3.3997078e+000
3.8883228e+000
4.2934380e+000
4.5513320e+000
4.6932440e+000
4.7671494e+000
4.7959194e+000
4.7841644e+000
4.6901212e+000
4.4851990e+000
4.2402291e+000
4.0509000e+000
