Image.
>Pix99999.
  .
5555
5555
2300
900
5555
2
1
0
701
5555
-1.3906000e-002
-1.4195586e-002
-1.4485171e-002
-1.4773761e-002
-1.5063344e-002
-1.5352929e-002
-1.5641524e-002
-1.5931100e-002
-1.6220687e-002
-1.6509283e-002
-1.6798858e-002
-1.7088441e-002
-1.7378028e-002
-1.7666634e-002
-1.7956199e-002
-1.8245786e-002
-1.8535370e-002
-1.8823981e-002
-1.9113543e-002
-1.9403128e-002
-1.9691743e-002
-1.9981300e-002
-2.0270886e-002
-2.0559505e-002
-2.0849057e-002
-2.1138644e-002
-7.8553427e-004
3.7337080e-002
7.2753720e-002
9.8015301e-002
1.2181069e-001
1.1769781e-001
1.1113308e-001
9.4526611e-002
7.8045212e-002
6.6474847e-002
5.0234754e-002
1.1589075e-002
-3.3205774e-002
-9.3034573e-002
-1.4429829e-001
-1.7499097e-001
-1.9608399e-001
-2.0350517e-001
-2.0378816e-001
-1.9622879e-001
-1.6947526e-001
-1.2471857e-001
-8.3096802e-002
-4.4712611e-002
-3.7552927e-002
-4.8266031e-002
-6.3195676e-002
-7.9442546e-002
-7.9575419e-002
-7.4446477e-002
-8.0128558e-002
-8.8376001e-002
-1.2702054e-001
-1.7015538e-001
-2.1148771e-001
-2.4982724e-001
-2.5616685e-001
-2.5530431e-001
-2.3052227e-001
-1.9994579e-001
-1.5673853e-001
-1.2251772e-001
-1.1451875e-001
-1.2738621e-001
-1.7479500e-001
-2.0417042e-001
-2.0227177e-001
-1.6545461e-001
-9.2971854e-002
-3.0043179e-002
2.1139953e-002
5.8777541e-002
8.7865472e-002
1.1964743e-001
1.5336886e-001
1.6928513e-001
1.7757854e-001
1.5325232e-001
1.1873440e-001
7.7095367e-002
3.4005482e-002
2.4745405e-002
2.2138298e-002
4.3183610e-002
6.7375347e-002
8.9815661e-002
1.0840429e-001
1.1096210e-001
1.0327649e-001
7.1765177e-002
3.9413415e-002
1.2994983e-002
5.7770382e-003
2.9348645e-002
6.6647999e-002
1.1602128e-001
1.5319040e-001
1.7589003e-001
1.8018159e-001
1.7089701e-001
1.6133678e-001
1.5279706e-001
1.5540874e-001
1.6386209e-001
1.8941258e-001
2.2178653e-001
2.5970760e-001
2.9921290e-001
3.1237575e-001
3.1888813e-001
3.1119174e-001
3.0316359e-001
3.1877801e-001
3.4046000e-001
3.6982772e-001
3.9651993e-001
4.0852052e-001
4.1611904e-001
4.2030469e-001
4.2277822e-001
4.2346701e-001
4.2521626e-001
4.2870331e-001
4.3428612e-001
4.4152972e-001
4.3445191e-001
4.1327724e-001
3.8459909e-001
3.5226139e-001
3.4705579e-001
3.5981664e-001
3.9645717e-001
4.4423690e-001
4.7025305e-001
4.8630601e-001
4.7259590e-001
4.4887391e-001
4.4097382e-001
4.3839315e-001
4.5369786e-001
4.7092605e-001
4.7059590e-001
4.6176738e-001
4.3680352e-001
4.0946856e-001
3.8810840e-001
3.7175617e-001
3.6204135e-001
3.5579839e-001
3.5103643e-001
3.4586674e-001
3.3968216e-001
3.2993966e-001
3.1717145e-001
3.1445402e-001
3.2206520e-001
3.5701272e-001
4.1159210e-001
4.5952758e-001
5.0089425e-001
4.8866096e-001
4.4823724e-001
3.8769719e-001
3.1978098e-001
2.7163228e-001
2.3116052e-001
2.0864029e-001
1.9222090e-001
1.8594323e-001
1.8191500e-001
1.7170240e-001
1.6063063e-001
1.4812876e-001
1.3777883e-001
1.3300028e-001
1.2663412e-001
1.1553880e-001
9.5515281e-002
6.5230966e-002
3.3731144e-002
5.4996298e-003
1.4638519e-003
2.1620041e-002
6.5972835e-002
1.2502944e-001
1.7643383e-001
2.1969858e-001
2.2148803e-001
1.9809046e-001
1.3451107e-001
5.0759837e-002
2.7889023e-003
-2.7915172e-002
1.3659241e-002
8.3199143e-002
1.5233555e-001
2.1210538e-001
2.0725560e-001
1.6895668e-001
9.0239577e-002
6.7492649e-003
-4.5952827e-002
-7.1566895e-002
-5.8575206e-002
-3.5317298e-002
-1.4743231e-002
-6.2587857e-004
6.9260215e-003
1.2574515e-002
1.4686936e-002
1.2957463e-003
-3.0702055e-002
-7.6485358e-002
-1.2898479e-001
-1.8674228e-001
-2.4585286e-001
-3.1661615e-001
-3.9357257e-001
-4.7907639e-001
-5.6732929e-001
-6.1552542e-001
-6.3935167e-001
-5.9552717e-001
-5.2077758e-001
-4.4249141e-001
-3.6963528e-001
-3.2392505e-001
-2.9464051e-001
-2.8373945e-001
-2.8063765e-001
-2.8452480e-001
-2.9445139e-001
-3.1057540e-001
-3.2729593e-001
-3.3704001e-001
-3.3806759e-001
-3.2844627e-001
-3.1303579e-001
-2.9587531e-001
-2.6859850e-001
-2.3162088e-001
-2.1025608e-001
-2.0400040e-001
-2.2700937e-001
-2.7032071e-001
-2.6797372e-001
-2.3271361e-001
-1.5192133e-001
-4.7493041e-002
2.9271629e-002
8.6515613e-002
1.2390004e-001
1.5029451e-001
1.8340680e-001
2.2234771e-001
2.7156997e-001
3.1588727e-001
3.1945100e-001
2.8674656e-001
2.0893086e-001
1.1928377e-001
5.2219223e-002
1.4749032e-002
-6.4169414e-002
-1.5552686e-001
-2.1586902e-001
-2.2969732e-001
-1.9769120e-001
-1.6561890e-001
-1.5015179e-001
-2.1118839e-001
-3.4480399e-001
-4.8850638e-001
-6.2669671e-001
-6.4276600e-001
-5.6300062e-001
-4.0910941e-001
-2.1554306e-001
-1.3098234e-001
-1.2440478e-001
-1.3419101e-001
-1.2883720e-001
-5.3087026e-003
2.2076440e-001
6.4257395e-001
1.1701461e+000
1.6359949e+000
2.0397828e+000
2.3857141e+000
2.8376143e+000
3.5524685e+000
4.8077383e+000
6.7463398e+000
9.5968952e+000
1.3334571e+001
1.7222609e+001
2.0906639e+001
2.4218935e+001
2.7191875e+001
3.0673286e+001
3.4752876e+001
3.9621960e+001
4.5111759e+001
4.9920174e+001
5.4085670e+001
5.8103291e+001
6.2098518e+001
6.6854492e+001
7.2190140e+001
7.7563850e+001
8.2855057e+001
8.7683372e+001
9.2029915e+001
9.5820328e+001
9.8987373e+001
1.0143452e+002
1.0299640e+002
1.0354077e+002
1.0301823e+002
1.0146714e+002
9.9317856e+001
9.6987411e+001
9.4306976e+001
9.1229988e+001
8.7364799e+001
8.2648735e+001
7.7752869e+001
7.2929039e+001
6.8405396e+001
6.4196251e+001
5.9916561e+001
5.5517544e+001
5.1218414e+001
4.7037987e+001
4.3130028e+001
3.9518692e+001
3.6363274e+001
3.3667229e+001
3.1372520e+001
2.9447601e+001
2.7728018e+001
2.6235418e+001
2.4975840e+001
2.3972208e+001
2.3221500e+001
2.2709110e+001
2.2380161e+001
2.2204514e+001
2.2131147e+001
2.2158907e+001
2.2278154e+001
2.2480989e+001
2.2756548e+001
2.3129726e+001
2.3604801e+001
2.4222372e+001
2.4986423e+001
2.5879835e+001
2.6894440e+001
2.7958300e+001
2.9066538e+001
3.0345922e+001
3.1891830e+001
3.4374008e+001
3.7870544e+001
4.1816608e+001
4.5970955e+001
4.9211975e+001
5.1558025e+001
5.3512714e+001
5.5125908e+001
5.6622612e+001
5.7869698e+001
5.8677959e+001
5.8899258e+001
5.8439934e+001
5.7490829e+001
5.6322231e+001
5.4960884e+001
5.3436649e+001
5.1650017e+001
4.9533131e+001
4.7198170e+001
4.4672188e+001
4.2297043e+001
4.0201332e+001
3.8121922e+001
3.6017056e+001
3.3343216e+001
2.9943571e+001
2.6630074e+001
2.3490189e+001
2.0898026e+001
1.8901270e+001
1.6867428e+001
1.4778884e+001
1.2609271e+001
1.0378170e+001
8.1780748e+000
6.0758839e+000
4.1817760e+000
2.5836856e+000
1.3663371e+000
5.5561507e-001
1.2866971e-001
2.3637721e-001
9.4157493e-001
1.8627720e+000
2.8270979e+000
3.6595263e+000
4.2404776e+000
4.7075524e+000
5.0998540e+000
5.4825282e+000
5.8693199e+000
6.2111397e+000
6.4727702e+000
6.6325774e+000
6.6396255e+000
6.5782857e+000
6.4222531e+000
6.2311120e+000
5.9881344e+000
5.6865058e+000
5.3012228e+000
4.8169899e+000
4.2395811e+000
3.6537964e+000
3.0889180e+000
2.6147070e+000
2.2495890e+000
2.0044909e+000
1.8901781e+000
1.9077709e+000
2.0292485e+000
2.2312000e+000
2.4667318e+000
2.7140794e+000
2.9702263e+000
3.2397792e+000
3.5240846e+000
3.8262031e+000
4.1343160e+000
4.4460859e+000
4.7670212e+000
5.0998864e+000
5.4092503e+000
5.6615276e+000
5.8110623e+000
5.7923946e+000
5.6602564e+000
5.3734956e+000
5.0314031e+000
4.6251540e+000
4.1999712e+000
3.7691486e+000
3.3674359e+000
3.0054421e+000
2.6927605e+000
2.3893721e+000
2.0251873e+000
1.6018261e+000
1.1121733e+000
6.4244324e-001
2.9729822e-001
6.7577563e-002
8.3429376e-003
2.8959688e-002
1.2027049e-001
2.3077285e-001
3.7383920e-001
5.4085559e-001
7.5405133e-001
9.8260421e-001
1.2359514e+000
1.4826872e+000
1.7080486e+000
1.9248711e+000
2.1281240e+000
2.3330529e+000
2.5482187e+000
2.7824099e+000
3.0492475e+000
3.3485935e+000
3.6781101e+000
4.0009995e+000
4.2992306e+000
4.5407867e+000
4.7264605e+000
4.8640242e+000
4.9615970e+000
5.0195088e+000
5.0442343e+000
5.0204735e+000
4.9776144e+000
4.9226103e+000
4.8744435e+000
4.8506994e+000
4.8324242e+000
4.8184948e+000
4.8023038e+000
4.7788963e+000
4.7603235e+000
4.7528539e+000
4.7541299e+000
4.7749200e+000
4.8086982e+000
4.8670321e+000
4.9421682e+000
5.0409031e+000
5.1494222e+000
5.2671041e+000
5.3825102e+000
5.4946842e+000
5.6022687e+000
5.7089047e+000
5.8254008e+000
5.9514151e+000
6.0899577e+000
6.2275753e+000
6.3393536e+000
6.4234920e+000
6.4470954e+000
6.4354930e+000
6.3631973e+000
6.2593884e+000
6.0896921e+000
5.8878603e+000
5.6035047e+000
5.2920389e+000
4.9086099e+000
4.5087223e+000
4.0702019e+000
3.6290131e+000
3.1855628e+000
2.7599654e+000
2.3687472e+000
2.0101361e+000
1.6993806e+000
1.4146487e+000
1.1619916e+000
9.2897511e-001
7.1912223e-001
5.3533459e-001
3.7712285e-001
2.4850425e-001
1.4459270e-001
7.4032143e-002
2.4813140e-002
3.2047783e-003
-1.8256176e-003
2.4076978e-002
7.8789383e-002
2.2269320e-001
4.0827999e-001
7.1365106e-001
1.0279866e+000
1.3473953e+000
1.6273383e+000
1.7838372e+000
1.8962400e+000
1.8998671e+000
1.8776793e+000
1.8033495e+000
1.7106543e+000
1.5868661e+000
1.4473343e+000
1.2832906e+000
1.0914650e+000
8.6853391e-001
6.3161492e-001
3.9157429e-001
1.9819167e-001
4.8298314e-002
-3.3170398e-002
-6.6851690e-002
-1.7855473e-002
7.6707438e-002
2.4481560e-001
4.3103051e-001
6.0732901e-001
7.6547527e-001
8.3699042e-001
8.9042658e-001
8.8995641e-001
8.9074111e-001
9.0150595e-001
9.2657250e-001
9.9774039e-001
1.0830400e+000
1.1994085e+000
1.2896152e+000
1.3237396e+000
1.3104925e+000
1.2248714e+000
1.1359471e+000
1.0466038e+000
9.8283106e-001
9.4830823e-001
9.4710749e-001
9.7378385e-001
1.0186001e+000
1.0649418e+000
1.0456821e+000
9.8638868e-001
8.5062891e-001
6.9297236e-001
5.5711633e-001
4.3470645e-001
3.7574172e-001
3.2796440e-001
3.0239472e-001
2.7164412e-001
2.0035782e-001
1.2511754e-001
3.3812951e-002
-4.3534007e-002
-7.6481350e-002
-1.0633263e-001
-1.3055857e-001
-1.7254905e-001
-2.4737185e-001
-3.2241803e-001
-3.9628792e-001
-4.5354301e-001
-4.9216187e-001
-5.3220934e-001
-5.7526833e-001
-6.3810062e-001
-7.1588343e-001
-8.0934107e-001
-9.1170973e-001
-1.0211554e+000
-1.1319221e+000
-1.2269000e+000
-1.3159410e+000
-1.3848271e+000
-1.4514794e+000
-1.5322599e+000
-1.6125950e+000
-1.6743817e+000
-1.7250509e+000
-1.7015977e+000
-1.6708173e+000
-1.6084213e+000
-1.5530831e+000
-1.5204897e+000
-1.4953763e+000
-1.4874758e+000
-1.4777515e+000
-1.4636526e+000
-1.4345593e+000
-1.3835580e+000
-1.3062735e+000
-1.2017143e+000
-1.0952767e+000
-9.8916632e-001
-9.1626644e-001
-8.6377430e-001
-8.2018703e-001
-7.7915078e-001
-7.0964128e-001
-6.3053417e-001
-5.3986305e-001
-4.4702387e-001
-3.5906667e-001
-2.7191800e-001
-1.8925442e-001
-1.0735734e-001
-3.4964036e-002
1.0659769e-003
3.3930808e-002
1.2399021e-001
3.2966000e-001
5.3865141e-001
7.5668818e-001
9.4438028e-001
1.0669116e+000
1.1651577e+000
1.2240314e+000
1.2622659e+000
1.2749583e+000
1.2560685e+000
1.2070754e+000
1.1225300e+000
1.0128975e+000
9.1179669e-001
8.1610239e-001
7.9061627e-001
7.9280901e-001
8.3607149e-001
8.9032465e-001
9.0304762e-001
9.0925550e-001
9.4104999e-001
