Image.
>Pix99999.
  .
5555
5555
2300
900
5555
2
1
0
701
5555
5.0942998e-002
5.2002482e-002
5.3062964e-002
5.4122452e-002
5.5181939e-002
5.6242414e-002
5.7301905e-002
5.8361389e-002
5.9421863e-002
6.0480371e-002
6.1540827e-002
6.2603280e-002
6.3660845e-002
6.4713426e-002
6.5779641e-002
6.6867642e-002
6.7900389e-002
6.8857759e-002
7.0017017e-002
7.1459584e-002
7.2150826e-002
7.1782976e-002
7.4212767e-002
8.0587134e-002
7.6565377e-002
5.1263534e-002
2.5019448e-002
1.9755028e-002
2.8492760e-002
3.5983309e-002
2.6759772e-002
-3.6501465e-003
-1.5425470e-002
3.1535957e-002
1.2710117e-001
2.4108151e-001
3.2178614e-001
3.2401255e-001
2.5372854e-001
1.3689563e-001
1.8952684e-002
-5.8830313e-002
-9.4743758e-002
-1.0044821e-001
-9.3221910e-002
-8.6762369e-002
-7.3954090e-002
-4.5058973e-002
-5.6325686e-003
3.2626573e-002
5.2717142e-002
4.0835015e-002
2.5664375e-003
-5.0551493e-002
-1.0772413e-001
-1.5981629e-001
-2.0294321e-001
-2.3616602e-001
-2.6352701e-001
-2.9043850e-001
-3.2131800e-001
-3.5657987e-001
-3.8173744e-001
-3.7957570e-001
-3.4173501e-001
-2.6877314e-001
-1.8536547e-001
-1.2215006e-001
-1.0151120e-001
-1.3509375e-001
-2.0292100e-001
-2.7456540e-001
-3.2058862e-001
-3.1933326e-001
-2.7840033e-001
-2.1662214e-001
-1.5740858e-001
-1.2211390e-001
-1.1839783e-001
-1.4712344e-001
-2.0128343e-001
-2.7022171e-001
-3.3925417e-001
-3.9487424e-001
-4.3398842e-001
-4.5864835e-001
-4.7637773e-001
-4.9277917e-001
-4.9779132e-001
-4.7951469e-001
-4.4251671e-001
-3.9965850e-001
-3.7205252e-001
-3.7709793e-001
-4.0486220e-001
-4.3566778e-001
-4.5245770e-001
-4.4398502e-001
-4.1726542e-001
-3.8610205e-001
-3.6352855e-001
-3.5916653e-001
-3.7090001e-001
-3.9167729e-001
-4.1292626e-001
-4.2819950e-001
-4.4154963e-001
-4.5975584e-001
-4.8348460e-001
-5.0956070e-001
-5.2970111e-001
-5.3608096e-001
-5.3086519e-001
-5.2195966e-001
-5.2381694e-001
-5.4974198e-001
-5.9780085e-001
-6.5638137e-001
-7.0010948e-001
-7.0425081e-001
-6.6957110e-001
-6.1013532e-001
-5.5015081e-001
-5.1208752e-001
-4.9557337e-001
-4.9121177e-001
-4.9334303e-001
-5.0031942e-001
-5.1840973e-001
-5.5318606e-001
-5.9324372e-001
-6.2019104e-001
-6.1794138e-001
-5.7749999e-001
-5.1378524e-001
-4.5145479e-001
-4.1198981e-001
-4.0908405e-001
-4.3186983e-001
-4.5914304e-001
-4.7196198e-001
-4.5894858e-001
-4.3378076e-001
-4.1970447e-001
-4.3266085e-001
-4.8040327e-001
-5.5305910e-001
-6.3346440e-001
-7.0715362e-001
-7.6322210e-001
-7.9853499e-001
-8.1348693e-001
-8.0850726e-001
-7.8319561e-001
-7.3447418e-001
-6.6115630e-001
-5.7534808e-001
-4.9528310e-001
-4.3780041e-001
-4.1363516e-001
-4.1220486e-001
-4.1417128e-001
-4.0673593e-001
-3.8468745e-001
-3.5838795e-001
-3.4293744e-001
-3.4176829e-001
-3.5119870e-001
-3.6417401e-001
-3.7414888e-001
-3.8212243e-001
-3.9118442e-001
-3.9680621e-001
-3.9181197e-001
-3.7573823e-001
-3.5263750e-001
-3.2983428e-001
-3.1341389e-001
-2.9796770e-001
-2.7467299e-001
-2.4638085e-001
-2.2233874e-001
-2.1088681e-001
-2.1564794e-001
-2.2418778e-001
-2.1891251e-001
-1.9676410e-001
-1.6590947e-001
-1.4629515e-001
-1.5747860e-001
-1.9261444e-001
-2.3006345e-001
-2.4857520e-001
-2.3355351e-001
-1.9298714e-001
-1.4726058e-001
-1.1671680e-001
-1.1646708e-001
-1.4360195e-001
-1.8493320e-001
-2.2621715e-001
-2.5644815e-001
-2.7738908e-001
-2.9635969e-001
-3.1326967e-001
-3.2310507e-001
-3.2073048e-001
-3.0232042e-001
-2.6803887e-001
-2.2018810e-001
-1.6036700e-001
-9.1648743e-002
-2.6274843e-002
1.8518336e-002
2.7657926e-002
-6.7651793e-003
-6.9030792e-002
-1.3110761e-001
-1.7231615e-001
-1.8229643e-001
-1.7053771e-001
-1.5735756e-001
-1.6023080e-001
-1.9066387e-001
-2.4640840e-001
-3.1571820e-001
-3.8092223e-001
-4.2367131e-001
-4.3516988e-001
-4.1424155e-001
-3.6573917e-001
-2.9929909e-001
-2.3215571e-001
-1.8418452e-001
-1.6703241e-001
-1.8173343e-001
-2.0742755e-001
-2.1334924e-001
-1.8452640e-001
-1.2093309e-001
-3.6952477e-002
4.5319740e-002
1.0536586e-001
1.2831151e-001
1.1588372e-001
8.0809951e-002
3.6846515e-002
-4.2639086e-003
-3.7285231e-002
-6.2423445e-002
-8.5065931e-002
-1.1343882e-001
-1.5510240e-001
-2.1185721e-001
-2.6295957e-001
-2.7700683e-001
-2.4400839e-001
-1.7225358e-001
-7.7306703e-002
2.3889259e-002
1.2154468e-001
2.1021155e-001
2.7971202e-001
3.1605563e-001
3.0631056e-001
2.4582757e-001
1.6225900e-001
9.4522253e-002
2.7916795e-002
-8.1249662e-002
-2.1849445e-001
-3.2935381e-001
-3.9522788e-001
-4.3163249e-001
-4.6094367e-001
-5.0375324e-001
-5.6975925e-001
-6.5679127e-001
-7.4545890e-001
-8.0690378e-001
-8.2263404e-001
-7.8773516e-001
-7.1648651e-001
-6.3360637e-001
-5.5121118e-001
-4.6707207e-001
-3.6554018e-001
-2.2192320e-001
-9.5504150e-003
2.9586452e-001
7.0626569e-001
1.2167788e+000
1.7888696e+000
2.3736634e+000
2.9912460e+000
3.7281022e+000
4.7110682e+000
6.1054001e+000
8.1477909e+000
1.1045351e+001
1.4613571e+001
1.8360100e+001
2.1867577e+001
2.4917015e+001
2.7686399e+001
3.0644421e+001
3.4187317e+001
3.8485519e+001
4.3152637e+001
4.7469601e+001
5.1227970e+001
5.4736553e+001
5.8402481e+001
6.2547970e+001
6.7092110e+001
7.1639954e+001
7.5909470e+001
7.9786407e+001
8.3227295e+001
8.6232620e+001
8.8841743e+001
9.1118195e+001
9.3102783e+001
9.4788017e+001
9.6057556e+001
9.6738358e+001
9.6816368e+001
9.6410088e+001
9.5528076e+001
9.4053421e+001
9.1871956e+001
8.8935959e+001
8.5389328e+001
8.1515587e+001
7.7464981e+001
7.3231087e+001
6.8787918e+001
6.4139824e+001
5.9394985e+001
5.4752499e+001
5.0395172e+001
4.6459839e+001
4.3021523e+001
4.0087040e+001
3.7581028e+001
3.5372520e+001
3.3382187e+001
3.1596270e+001
3.0025326e+001
2.8685753e+001
2.7572500e+001
2.6658676e+001
2.5921864e+001
2.5351101e+001
2.4947805e+001
2.4723436e+001
2.4676165e+001
2.4793018e+001
2.5075260e+001
2.5539261e+001
2.6204914e+001
2.7087801e+001
2.8177601e+001
2.9434263e+001
3.0790760e+001
3.2159508e+001
3.3456657e+001
3.4651119e+001
3.5951145e+001
3.7750626e+001
4.0158371e+001
4.2904690e+001
4.5543972e+001
4.7598042e+001
4.8963314e+001
4.9932426e+001
5.0712223e+001
5.1314331e+001
5.1679062e+001
5.1721004e+001
5.1405602e+001
5.0773808e+001
4.9925331e+001
4.8993862e+001
4.8039761e+001
4.7025848e+001
4.5874695e+001
4.4499107e+001
4.2876446e+001
4.1069077e+001
3.9194630e+001
3.7383823e+001
3.5603680e+001
3.3637512e+001
3.1304047e+001
2.8549778e+001
2.5552195e+001
2.2695034e+001
2.0196440e+001
1.8015091e+001
1.6020857e+001
1.4056568e+001
1.2040563e+001
9.9935598e+000
7.9642439e+000
6.0166202e+000
4.2439079e+000
2.7591774e+000
1.6084726e+000
7.6292425e-001
2.5537044e-001
1.9293538e-001
5.7161522e-001
1.2280571e+000
1.9835325e+000
2.6974614e+000
3.3110766e+000
3.8601949e+000
4.3942652e+000
4.9474192e+000
5.5167398e+000
6.0532522e+000
6.4887309e+000
6.7505260e+000
6.8076062e+000
6.6869855e+000
6.4357224e+000
6.1074700e+000
5.7377295e+000
5.3325157e+000
4.8772445e+000
4.3442483e+000
3.7390194e+000
3.1157470e+000
2.5344238e+000
2.0456064e+000
1.6823000e+000
1.4555629e+000
1.3702095e+000
1.4267405e+000
1.6129428e+000
1.9003040e+000
2.2590330e+000
2.6639028e+000
3.0992417e+000
3.5600271e+000
4.0358367e+000
4.5047221e+000
4.9423881e+000
5.3266540e+000
5.6465640e+000
5.9053264e+000
6.1024828e+000
6.2264409e+000
6.2598405e+000
6.1833601e+000
5.9952993e+000
5.7209044e+000
5.3885045e+000
5.0215616e+000
4.6389427e+000
4.2542157e+000
3.8811381e+000
3.5310187e+000
3.1913562e+000
2.8160300e+000
2.3658147e+000
1.8309134e+000
1.2489030e+000
7.1646488e-001
3.1550142e-001
7.9076514e-002
-1.1739988e-003
2.0760447e-002
9.6027382e-002
2.0181179e-001
3.3059081e-001
4.8768315e-001
6.6749012e-001
8.4223932e-001
9.8015714e-001
1.0543952e+000
1.0594146e+000
1.0222365e+000
9.7254533e-001
9.3200934e-001
9.1588497e-001
9.3164313e-001
9.8401439e-001
1.0744658e+000
1.1943800e+000
1.3194954e+000
1.4222589e+000
1.4786061e+000
1.4813309e+000
1.4506342e+000
1.4120286e+000
1.3874050e+000
1.3895600e+000
1.4169046e+000
1.4669000e+000
1.5421062e+000
1.6483331e+000
1.7940943e+000
1.9823961e+000
2.2047243e+000
2.4457843e+000
2.6843045e+000
2.9053869e+000
3.1085343e+000
3.3009958e+000
3.4969089e+000
3.7092223e+000
3.9449954e+000
4.2099309e+000
4.5096970e+000
4.8493037e+000
5.2322111e+000
5.6590838e+000
6.1263704e+000
6.6293969e+000
7.1641583e+000
7.7271504e+000
8.3155327e+000
8.9254160e+000
9.5507250e+000
1.0182849e+001
1.0808498e+001
1.1409566e+001
1.1957456e+001
1.2417829e+001
1.2755563e+001
1.2942360e+001
1.2966427e+001
1.2827291e+001
1.2539600e+001
1.2119343e+001
1.1579698e+001
1.0938306e+001
1.0226190e+001
9.4810572e+000
8.7498627e+000
8.0744600e+000
7.4805799e+000
6.9784994e+000
6.5537014e+000
6.1772380e+000
5.8030782e+000
5.3870211e+000
4.8985667e+000
4.3263645e+000
3.6929100e+000
3.0347674e+000
2.3997779e+000
1.8302928e+000
1.3493907e+000
9.6789795e-001
6.7947859e-001
4.7418413e-001
3.4316576e-001
2.7808201e-001
2.7082670e-001
3.1054899e-001
3.8053668e-001
4.6464828e-001
5.5143768e-001
6.3326728e-001
7.0801079e-001
7.7110678e-001
8.0974972e-001
8.1072187e-001
7.6502764e-001
6.7082596e-001
5.4060698e-001
3.9198738e-001
2.4628644e-001
1.2392940e-001
4.0385038e-002
3.2149185e-003
5.0904695e-003
4.2398885e-002
1.2787199e-001
2.7123421e-001
4.6562415e-001
6.9884515e-001
9.5565653e-001
1.2227505e+000
1.4928983e+000
1.7566440e+000
1.9960243e+000
2.1961601e+000
2.3552070e+000
2.4792473e+000
2.5872226e+000
2.6991010e+000
2.8305199e+000
2.9962099e+000
3.2115755e+000
3.4879003e+000
3.8255799e+000
4.2147427e+000
4.6265130e+000
5.0360422e+000
5.4405971e+000
5.8459024e+000
6.2650528e+000
6.6993237e+000
7.1159887e+000
7.4803724e+000
7.7748532e+000
7.9952860e+000
8.1613245e+000
8.2898035e+000
8.3755455e+000
8.4086428e+000
8.3809366e+000
8.2917757e+000
8.1587982e+000
8.0032339e+000
7.8447094e+000
7.6998258e+000
7.5782757e+000
7.4837198e+000
7.4064813e+000
7.3321433e+000
7.2419643e+000
7.1222134e+000
6.9757447e+000
6.8106365e+000
6.6381836e+000
6.4647799e+000
6.2802577e+000
6.0669584e+000
5.7981009e+000
5.4533620e+000
5.0393186e+000
4.5777941e+000
4.1163478e+000
3.6994662e+000
3.3426745e+000
3.0468342e+000
2.7898765e+000
2.5466249e+000
2.3012648e+000
2.0437000e+000
1.7762129e+000
1.5047798e+000
1.2388155e+000
9.8530322e-001
7.4273491e-001
5.1024568e-001
2.9597068e-001
1.0668401e-001
-6.2397718e-002
-2.2047584e-001
-3.8127878e-001
-5.4867470e-001
-6.9099498e-001
-7.7073282e-001
-7.6046753e-001
-6.4688176e-001
-4.5496941e-001
-2.2018477e-001
1.8876672e-002
2.2562863e-001
3.7319350e-001
4.4410759e-001
4.4505924e-001
3.9515001e-001
3.3509022e-001
2.9970458e-001
2.8486702e-001
2.7377641e-001
2.3967235e-001
1.6631651e-001
8.3203427e-002
2.4484720e-002
5.5334717e-004
1.9332878e-002
1.0079756e-001
2.5772113e-001
4.6574843e-001
6.8644857e-001
8.6398989e-001
9.5115149e-001
9.4887567e-001
8.7948316e-001
7.9999268e-001
7.5973791e-001
7.4627048e-001
7.3608446e-001
7.2243381e-001
7.1073401e-001
7.3704880e-001
8.2486212e-001
9.1911745e-001
9.6329159e-001
9.7231686e-001
9.8577136e-001
1.0703276e+000
1.2993000e+000
