Image.
>Pix99999.
  .
5555
5555
2300
900
5555
2
1
0
701
5555
-2.1159999e-002
-2.1600371e-002
-2.2040742e-002
-2.2481110e-002
-2.2921480e-002
-2.3361851e-002
-2.3801228e-002
-2.4241589e-002
-2.4681959e-002
-2.5122330e-002
-2.5562700e-002
-2.6003068e-002
-2.6442457e-002
-2.6882811e-002
-2.7323181e-002
-2.7763551e-002
-2.8203920e-002
-2.8644290e-002
-2.9083686e-002
-2.9524030e-002
-2.9964399e-002
-3.0404769e-002
-3.0845139e-002
-3.1285509e-002
-3.1725880e-002
-3.2165285e-002
4.5602448e-002
1.8746870e-003
-5.6245439e-002
-1.7332137e-001
-2.9918629e-001
-3.6393073e-001
-4.2178047e-001
-4.2408651e-001
-4.1963634e-001
-3.8307250e-001
-3.4197453e-001
-2.8809813e-001
-2.4878109e-001
-2.5618008e-001
-2.7846342e-001
-3.2748219e-001
-3.6675280e-001
-3.8750353e-001
-4.2574587e-001
-4.8717999e-001
-5.7446551e-001
-6.8514520e-001
-7.5516093e-001
-7.9358411e-001
-7.8531212e-001
-7.5138098e-001
-7.2099936e-001
-6.9296396e-001
-6.6196460e-001
-6.2994450e-001
-5.6798804e-001
-4.9914461e-001
-4.4853246e-001
-4.0154132e-001
-4.2440599e-001
-4.5380363e-001
-4.8462430e-001
-5.1000172e-001
-5.0372672e-001
-4.9474201e-001
-4.8737076e-001
-4.7840676e-001
-4.6489900e-001
-4.5037013e-001
-4.3462899e-001
-4.1485292e-001
-3.8942945e-001
-3.5492527e-001
-3.1089666e-001
-2.9304069e-001
-2.9925215e-001
-3.4866050e-001
-4.2647323e-001
-5.0709015e-001
-5.8757973e-001
-6.2123168e-001
-6.3483888e-001
-6.2400341e-001
-6.0588640e-001
-6.3943297e-001
-6.8527240e-001
-7.3181701e-001
-7.7463597e-001
-7.4650341e-001
-7.0769656e-001
-6.6383576e-001
-6.2871569e-001
-6.3463366e-001
-6.4755219e-001
-6.6363126e-001
-6.6258389e-001
-6.2309760e-001
-5.6468821e-001
-4.8426890e-001
-4.0872571e-001
-3.4421712e-001
-2.8457338e-001
-2.2830087e-001
-1.6660178e-001
-9.9297449e-002
-5.8971565e-002
-3.6706433e-002
-7.2108395e-002
-1.3700469e-001
-2.1895200e-001
-3.0668119e-001
-3.2386842e-001
-3.1833166e-001
-2.0076203e-001
-5.7557348e-002
6.6033691e-002
1.6893168e-001
1.1020855e-001
-3.4544114e-003
-2.4378525e-001
-5.1857436e-001
-8.3034521e-001
-1.1170543e+000
-1.3242062e+000
-1.4361535e+000
-1.3953719e+000
-1.2915930e+000
-1.1339566e+000
-1.0151517e+000
-9.5154101e-001
-9.2230529e-001
-9.1718841e-001
-8.8260502e-001
-8.2369512e-001
-7.4653971e-001
-6.6184163e-001
-5.9281099e-001
-5.3349626e-001
-5.1973581e-001
-5.2307200e-001
-6.2533277e-001
-7.5786453e-001
-9.1207802e-001
-1.0639181e+000
-1.1127979e+000
-1.1272346e+000
-1.0917220e+000
-1.0462720e+000
-1.0236547e+000
-1.0118500e+000
-1.0225408e+000
-1.0578057e+000
-1.1253635e+000
-1.2155100e+000
-1.3178164e+000
-1.4027052e+000
-1.4598063e+000
-1.4876922e+000
-1.4955142e+000
-1.4698628e+000
-1.4206511e+000
-1.2781039e+000
-1.0702053e+000
-8.6408836e-001
-6.6618687e-001
-6.7443633e-001
-7.8723294e-001
-9.6252400e-001
-1.1579144e+000
-1.2703872e+000
-1.3502969e+000
-1.4203898e+000
-1.4789342e+000
-1.5004398e+000
-1.5115499e+000
-1.5212868e+000
-1.5528880e+000
-1.6227555e+000
-1.6987982e+000
-1.7503629e+000
-1.7804322e+000
-1.7965460e+000
-1.8028543e+000
-1.8148834e+000
-1.7553813e+000
-1.6096805e+000
-1.3433641e+000
-9.6321404e-001
-6.4234269e-001
-3.8535827e-001
-3.0467066e-001
-3.4855539e-001
-4.8683995e-001
-6.7495745e-001
-9.1046494e-001
-1.1651961e+000
-1.3517121e+000
-1.5010877e+000
-1.4783866e+000
-1.3799286e+000
-1.1984338e+000
-1.0001428e+000
-8.8538307e-001
-8.4585941e-001
-9.6828538e-001
-1.1744577e+000
-1.4466685e+000
-1.7127960e+000
-1.9205192e+000
-2.0117300e+000
-1.9497174e+000
-1.7107731e+000
-1.2961535e+000
-9.3499172e-001
-6.7946458e-001
-7.3039019e-001
-1.0462480e+000
-1.4149909e+000
-1.7803004e+000
-2.0007741e+000
-2.1219711e+000
-2.0782688e+000
-1.9480221e+000
-1.6605281e+000
-1.3022572e+000
-1.1196275e+000
-1.0507060e+000
-1.2545704e+000
-1.5642645e+000
-1.7587471e+000
-1.8471060e+000
-1.7356577e+000
-1.5254632e+000
-1.2580125e+000
-1.0542457e+000
-1.0305623e+000
-1.1703131e+000
-1.5037100e+000
-1.8557796e+000
-2.1399829e+000
-2.2591236e+000
-2.1898935e+000
-2.0062761e+000
-1.7523755e+000
-1.4923650e+000
-1.2451054e+000
-1.0126652e+000
-8.0280566e-001
-6.1491668e-001
-4.4460571e-001
-2.8983286e-001
-1.2796888e-001
-6.2760368e-002
-4.0210497e-002
-1.2281956e-001
-2.4961846e-001
-3.3836752e-001
-3.6780629e-001
-2.0175380e-001
9.9762000e-002
5.2959466e-001
9.1801816e-001
1.0422601e+000
9.3146664e-001
5.9811842e-001
2.6305521e-001
8.5600264e-002
4.1083694e-002
-6.8589680e-002
-1.4511515e-001
-9.2346974e-002
2.8579992e-001
9.8868060e-001
1.7487909e+000
2.4756498e+000
2.6987526e+000
2.4812753e+000
2.2104700e+000
1.9623116e+000
2.0840399e+000
2.4666152e+000
2.4882557e+000
2.2284043e+000
1.4779634e+000
4.7777554e-001
-1.5986955e-001
-4.0597621e-001
1.1455598e-001
1.2447643e+000
2.8560872e+000
4.4694309e+000
5.4738908e+000
6.1150503e+000
6.6032362e+000
7.3618870e+000
8.7202311e+000
1.0837958e+001
1.3763003e+001
1.7079821e+001
2.0576429e+001
2.3672960e+001
2.6181574e+001
2.8632708e+001
3.1161823e+001
3.4515324e+001
3.8678539e+001
4.3093166e+001
4.7635681e+001
5.1278797e+001
5.4163330e+001
5.7324093e+001
6.0779324e+001
6.4981339e+001
6.9693375e+001
7.4171501e+001
7.8430038e+001
8.2374580e+001
8.6068771e+001
8.9577324e+001
9.2913147e+001
9.6064529e+001
9.8817497e+001
1.0095974e+002
1.0173554e+002
1.0068410e+002
9.8424377e+001
9.5532234e+001
9.2465462e+001
8.9462296e+001
8.6061577e+001
8.2138260e+001
7.7950005e+001
7.3640274e+001
6.9567047e+001
6.5755310e+001
6.1805321e+001
5.7664852e+001
5.3442249e+001
4.9165039e+001
4.5003143e+001
4.1001495e+001
3.7382820e+001
3.4198650e+001
3.1535595e+001
2.9355465e+001
2.7469412e+001
2.5865417e+001
2.4475430e+001
2.3323990e+001
2.2403500e+001
2.1696400e+001
2.1158281e+001
2.0754543e+001
2.0440037e+001
2.0279850e+001
2.0292839e+001
2.0581900e+001
2.1168854e+001
2.2113596e+001
2.3423143e+001
2.4882347e+001
2.6444191e+001
2.7811050e+001
2.8929760e+001
2.9942064e+001
3.0865900e+001
3.2157772e+001
3.3933399e+001
3.6723858e+001
4.0426029e+001
4.3788940e+001
4.6661594e+001
4.8573997e+001
4.9740692e+001
5.0996143e+001
5.2378284e+001
5.3955967e+001
5.5207058e+001
5.5514362e+001
5.4800457e+001
5.3124596e+001
5.1184719e+001
4.9578053e+001
4.8369999e+001
4.7597050e+001
4.6953259e+001
4.6290340e+001
4.5090233e+001
4.3169769e+001
4.0908813e+001
3.8379158e+001
3.6058441e+001
3.3993103e+001
3.1550798e+001
2.8574043e+001
2.5405405e+001
2.2127186e+001
1.9382233e+001
1.7255030e+001
1.5267285e+001
1.3405077e+001
1.1554578e+001
9.6874027e+000
7.7896814e+000
5.8669834e+000
3.9378159e+000
2.2136791e+000
9.1417289e-001
1.4791071e-001
-2.6728362e-003
3.8483289e-001
1.2323551e+000
1.9988060e+000
2.3836865e+000
2.6199422e+000
2.7479007e+000
3.1103442e+000
3.8924284e+000
4.8523750e+000
5.9964199e+000
6.7037082e+000
6.7510386e+000
6.4867463e+000
5.8317161e+000
5.2195034e+000
4.6756735e+000
4.2582169e+000
4.0082936e+000
3.9266255e+000
3.9815872e+000
4.0034966e+000
3.9125326e+000
3.6092539e+000
3.1840019e+000
2.8222558e+000
2.6155446e+000
2.6627147e+000
2.8787374e+000
3.1876693e+000
3.4561057e+000
3.5558369e+000
3.6052337e+000
3.6145673e+000
3.6832228e+000
3.8706329e+000
4.1309195e+000
4.5146389e+000
4.9433403e+000
5.4403672e+000
5.8692784e+000
6.1756563e+000
6.3053966e+000
6.1916356e+000
5.9819551e+000
5.6430001e+000
5.2707238e+000
4.8624139e+000
4.4909816e+000
4.1632919e+000
3.8954971e+000
3.6482508e+000
3.3780642e+000
3.0945773e+000
2.8171713e+000
2.5834966e+000
2.3938334e+000
2.1856313e+000
1.8903068e+000
1.5196080e+000
1.0733649e+000
6.5719783e-001
3.3307052e-001
8.8086121e-002
-4.4867456e-002
-1.2785500e-001
-8.6304881e-002
3.8953915e-002
3.0592567e-001
5.6606495e-001
8.0816001e-001
9.1308868e-001
8.4323907e-001
7.4177170e-001
6.2294149e-001
6.1973470e-001
7.7333897e-001
1.0902697e+000
1.5751474e+000
2.1030550e+000
2.6048801e+000
2.9048624e+000
2.9925313e+000
2.8595424e+000
2.5996199e+000
2.3315115e+000
2.1015110e+000
1.9848990e+000
1.9292901e+000
1.9299586e+000
1.9202572e+000
1.8519799e+000
1.7595555e+000
1.6481729e+000
1.5708480e+000
1.5961671e+000
1.6475905e+000
1.7562159e+000
1.8354274e+000
1.8540391e+000
1.8682429e+000
1.8729969e+000
1.9324673e+000
2.0784416e+000
2.2777231e+000
2.5572522e+000
2.8568320e+000
3.1878772e+000
3.5209339e+000
3.8533030e+000
4.1741629e+000
4.4827704e+000
4.7760458e+000
5.0650907e+000
5.3686891e+000
5.6811500e+000
6.0114465e+000
6.3239961e+000
6.5638027e+000
6.7600098e+000
6.8763628e+000
6.9802608e+000
7.0871682e+000
7.1635075e+000
7.1348825e+000
7.0242887e+000
6.6852098e+000
6.3007822e+000
5.8160381e+000
5.3483343e+000
4.9163771e+000
4.4939532e+000
4.0816813e+000
3.6494651e+000
3.1885893e+000
2.7132001e+000
2.2260342e+000
1.7487152e+000
1.2903197e+000
8.7960374e-001
5.1261926e-001
1.9263683e-001
-9.8242998e-002
-3.7856612e-001
-6.5312749e-001
-9.2170405e-001
-1.1732645e+000
-1.3623866e+000
-1.4991134e+000
-1.4844285e+000
-1.4222801e+000
-1.2547464e+000
-1.0856452e+000
-9.2966020e-001
-7.7429175e-001
-6.1565959e-001
-4.5030126e-001
-2.7077511e-001
-1.0645755e-001
2.3488544e-002
1.2823656e-001
1.8723616e-001
2.1417166e-001
1.9382006e-001
1.4242968e-001
6.2919922e-002
3.7766360e-003
-2.8852254e-002
-1.5267575e-002
2.6170794e-002
6.7715257e-002
1.0681249e-001
1.8483156e-001
2.8506058e-001
4.2120022e-001
5.7817453e-001
7.8993100e-001
1.0080247e+000
1.2095160e+000
1.3935840e+000
1.4944285e+000
1.6039284e+000
1.7558000e+000
1.9203358e+000
2.1231501e+000
2.3077250e+000
2.4491267e+000
2.5914769e+000
2.7393672e+000
2.9146955e+000
3.1378000e+000
3.4096975e+000
3.7514219e+000
4.1701264e+000
4.6666908e+000
5.1879268e+000
5.7152748e+000
6.1562743e+000
6.5200129e+000
6.7040677e+000
6.7838755e+000
6.6958585e+000
6.5550284e+000
6.4205570e+000
6.3010263e+000
6.2728329e+000
6.2548084e+000
6.2229333e+000
6.1796856e+000
6.0691724e+000
5.9660053e+000
5.8978953e+000
5.8748708e+000
5.9966969e+000
6.1618056e+000
6.4324465e+000
6.7248716e+000
7.0558548e+000
7.3547359e+000
7.5938263e+000
7.6847401e+000
7.5955634e+000
7.3782387e+000
7.0490541e+000
6.7445984e+000
6.4614229e+000
6.2288752e+000
6.0091748e+000
5.6417365e+000
5.1974502e+000
4.5300660e+000
3.8113961e+000
3.1884313e+000
2.5987113e+000
2.2053759e+000
1.8236214e+000
1.3894665e+000
9.6213222e-001
5.8744055e-001
2.5222999e-001
8.8793635e-002
-9.4082475e-002
-3.3932987e-001
-6.4895856e-001
-1.1032237e+000
-1.5374300e+000
-1.9320183e+000
-2.2184579e+000
-2.3557501e+000
-2.3809760e+000
-2.2879200e+000
-2.1553349e+000
-1.9908583e+000
-1.8226354e+000
-1.6494874e+000
-1.4048550e+000
-1.1236062e+000
-7.4800932e-001
-3.4170192e-001
5.1787883e-002
4.3184757e-001
5.5535245e-001
6.3575923e-001
4.1746622e-001
1.9514324e-001
8.5016251e-002
2.1161847e-003
6.5537959e-002
1.8030483e-001
2.5897282e-001
3.7255341e-001
5.8974254e-001
9.0083593e-001
1.4117246e+000
1.9225892e+000
2.4327979e+000
2.9214480e+000
3.3826766e+000
3.8165252e+000
4.2225637e+000
4.4279256e+000
4.4898210e+000
4.3347917e+000
4.0634818e+000
3.8220909e+000
3.5894208e+000
3.5506508e+000
3.5600836e+000
3.6961441e+000
3.8514872e+000
4.0521002e+000
