Image.
>Pix99999.
  .
5555
5555
2300
900
5555
2
1
0
701
5555
3.2958001e-002
3.3643018e-002
3.4329038e-002
3.5015058e-002
3.5700083e-002
3.6386095e-002
3.7072111e-002
3.7757143e-002
3.8443148e-002
3.9128177e-002
3.9814185e-002
4.0500205e-002
4.1185237e-002
4.1871242e-002
4.2557262e-002
4.3242302e-002
4.3928299e-002
4.4613339e-002
4.5299336e-002
4.5985352e-002
4.6670400e-002
4.7356393e-002
4.8042409e-002
4.8727456e-002
4.9413446e-002
5.0098497e-002
1.9582134e-002
7.0986856e-004
-2.3172479e-002
-1.3576460e-002
1.0364300e-003
4.3614402e-002
8.8284239e-002
1.3490470e-001
1.8045709e-001
2.1697450e-001
2.4846080e-001
2.5920048e-001
2.6198918e-001
2.4401805e-001
2.2661029e-001
2.1293895e-001
2.0550421e-001
2.0784879e-001
2.0945445e-001
2.0937222e-001
2.0652911e-001
2.0109667e-001
2.0104599e-001
2.0514339e-001
2.1371429e-001
2.2473399e-001
2.2674417e-001
2.2473262e-001
2.2024103e-001
2.1502407e-001
2.2169401e-001
2.3109154e-001
2.3138392e-001
2.3008546e-001
2.1354942e-001
1.9712131e-001
1.9795123e-001
2.0215580e-001
2.1638754e-001
2.2712357e-001
2.2160414e-001
2.1189618e-001
1.9560045e-001
1.8474641e-001
1.8545000e-001
1.9095056e-001
2.0165183e-001
2.0301601e-001
1.9325651e-001
1.7551072e-001
1.5174240e-001
1.4642000e-001
1.5438926e-001
1.8702115e-001
2.3232315e-001
2.6967883e-001
3.0307493e-001
3.1307593e-001
3.1570402e-001
3.2412952e-001
3.3409283e-001
3.5548896e-001
3.7727827e-001
3.7208319e-001
3.5995001e-001
3.2451311e-001
2.8730550e-001
2.5696334e-001
2.3244734e-001
2.2250858e-001
2.1767068e-001
2.1945617e-001
2.1512720e-001
1.9894864e-001
1.7779285e-001
1.5252700e-001
1.4582562e-001
1.5898277e-001
1.8626133e-001
2.2262099e-001
2.5124085e-001
2.7385008e-001
2.9336005e-001
3.1177732e-001
3.2862145e-001
3.4491163e-001
3.4365958e-001
3.3684197e-001
3.1099939e-001
2.8101993e-001
2.5713170e-001
2.3714595e-001
2.4144769e-001
2.5176969e-001
2.6874945e-001
2.8234509e-001
2.8000507e-001
2.6979327e-001
2.4850754e-001
2.2903858e-001
2.1788719e-001
2.2257122e-001
2.4780971e-001
2.8176340e-001
3.2033730e-001
3.4394151e-001
3.5241249e-001
3.4660879e-001
3.3236820e-001
3.1593299e-001
2.9946601e-001
2.8509849e-001
2.7212751e-001
2.6345500e-001
2.5603399e-001
2.4532852e-001
2.3269294e-001
2.1928807e-001
2.0628166e-001
2.0896593e-001
2.1643026e-001
2.3180760e-001
2.4517731e-001
2.4452123e-001
2.3574358e-001
2.1522203e-001
1.9828622e-001
1.9275512e-001
2.0148219e-001
2.2598228e-001
2.5294971e-001
2.7826181e-001
2.9253975e-001
2.9654616e-001
2.9309201e-001
2.8581080e-001
2.8385705e-001
2.8734121e-001
2.8798118e-001
2.8602335e-001
2.6017889e-001
2.2082731e-001
1.8376720e-001
1.4806865e-001
1.4776857e-001
1.5989399e-001
1.7882772e-001
1.9526275e-001
1.8281180e-001
1.5852499e-001
1.1746880e-001
7.9464711e-002
5.8190294e-002
4.6983179e-002
4.5678943e-002
3.9265290e-002
2.1133261e-002
-4.4165924e-003
-3.1786907e-002
-4.5133315e-002
-3.6678184e-002
-5.9892628e-003
4.0065899e-002
8.1814848e-002
1.1178286e-001
1.2430906e-001
1.2588359e-001
1.1690820e-001
1.0384203e-001
8.6099759e-002
6.5378800e-002
5.4960795e-002
4.8202757e-002
5.2944694e-002
6.0952999e-002
6.2657006e-002
6.0020745e-002
3.8246691e-002
7.2123441e-003
-3.9410368e-002
-9.0447411e-002
-1.3881809e-001
-1.8298931e-001
-2.1609351e-001
-2.4624601e-001
-2.7039942e-001
-2.9079285e-001
-3.0403671e-001
-3.0359748e-001
-2.9793215e-001
-2.9187462e-001
-2.9516882e-001
-3.1295153e-001
-3.3827296e-001
-3.7347943e-001
-4.1123858e-001
-4.5725942e-001
-5.0496179e-001
-5.5688000e-001
-6.0691178e-001
-6.4047706e-001
-6.6133016e-001
-6.5505284e-001
-6.3785911e-001
-6.1179084e-001
-5.8516759e-001
-5.5315536e-001
-5.1301646e-001
-4.5959955e-001
-3.9985344e-001
-3.5648966e-001
-3.4284154e-001
-3.7670821e-001
-4.3900481e-001
-5.0897914e-001
-5.6909531e-001
-6.0662687e-001
-6.2359822e-001
-6.2707597e-001
-6.2099898e-001
-6.1014038e-001
-6.1896521e-001
-6.4318371e-001
-6.7635125e-001
-7.1274143e-001
-6.7252123e-001
-5.8245802e-001
-4.3453777e-001
-2.6026303e-001
-1.4619358e-001
-7.5094134e-002
-5.9453543e-002
-7.7696599e-002
-1.0029646e-001
-1.1981914e-001
-1.1454006e-001
-8.6866967e-002
-5.0735030e-002
-1.2267632e-002
9.9594984e-003
2.2054100e-002
4.1465249e-002
1.9376399e-002
-6.8565942e-002
-1.6933015e-001
-2.5132042e-001
-3.0784217e-001
-3.3574459e-001
-3.5676748e-001
-3.8369143e-001
-4.3516800e-001
-5.1809520e-001
-5.9528339e-001
-6.5893465e-001
-6.2866199e-001
-5.2132267e-001
-3.5456115e-001
-1.5860024e-001
-6.7644536e-002
-5.8187548e-002
-7.6560736e-002
-9.3923420e-002
2.9434673e-002
3.2372731e-001
8.7694752e-001
1.5884722e+000
2.3062925e+000
2.9908104e+000
3.6122918e+000
4.3288169e+000
5.3031449e+000
6.8278084e+000
9.0528822e+000
1.2215075e+001
1.6273285e+001
2.0438969e+001
2.4345060e+001
2.7816395e+001
3.0906103e+001
3.4515980e+001
3.8746807e+001
4.3878090e+001
4.9723160e+001
5.4871471e+001
5.9350830e+001
6.3610878e+001
6.7801376e+001
7.2812904e+001
7.8445816e+001
8.4073402e+001
8.9546349e+001
9.4392578e+001
9.8637886e+001
1.0231247e+002
1.0532829e+002
1.0756457e+002
1.0864380e+002
1.0815986e+002
1.0616343e+002
1.0283321e+002
9.8988029e+001
9.5332703e+001
9.1618904e+001
8.7723259e+001
8.3216446e+001
7.7987289e+001
7.2742844e+001
6.7719963e+001
6.3070389e+001
5.8784836e+001
5.4509438e+001
5.0189697e+001
4.6106140e+001
4.2265942e+001
3.8730202e+001
3.5508625e+001
3.2680405e+001
3.0252871e+001
2.8206017e+001
2.6522387e+001
2.5077732e+001
2.3888739e+001
2.2944765e+001
2.2255142e+001
2.1798000e+001
2.1561226e+001
2.1494429e+001
2.1567476e+001
2.1728846e+001
2.1958157e+001
2.2235445e+001
2.2557520e+001
2.2923590e+001
2.3400620e+001
2.4011200e+001
2.4815758e+001
2.5816240e+001
2.6941750e+001
2.8170280e+001
2.9412649e+001
3.0662905e+001
3.2071007e+001
3.3728680e+001
3.6249878e+001
3.9709743e+001
4.3541962e+001
4.7506268e+001
5.0567692e+001
5.2735332e+001
5.4514179e+001
5.5923584e+001
5.7127499e+001
5.7980698e+001
5.8263020e+001
5.7910255e+001
5.6950840e+001
5.5572201e+001
5.4061279e+001
5.2421322e+001
5.0660801e+001
4.8682106e+001
4.6411427e+001
4.3935989e+001
4.1257324e+001
3.8749416e+001
3.6556747e+001
3.4501438e+001
3.2592468e+001
3.0223127e+001
2.7243700e+001
2.4215149e+001
2.1179010e+001
1.8623493e+001
1.6601971e+001
1.4616000e+001
1.2658257e+001
1.0649668e+001
8.6100025e+000
6.5989885e+000
4.6967778e+000
3.0379961e+000
1.6962098e+000
7.4257541e-001
1.9016588e-001
4.0514670e-002
3.9022607e-001
1.1991800e+000
2.2000630e+000
3.2168937e+000
4.0769329e+000
4.6734896e+000
5.1501145e+000
5.5517788e+000
5.9515357e+000
6.3630600e+000
6.7246199e+000
6.9858713e+000
7.1279659e+000
7.0894604e+000
6.9824071e+000
6.7818866e+000
6.5466700e+000
6.2617884e+000
5.9106069e+000
5.4720297e+000
4.9279194e+000
4.2944074e+000
3.6755297e+000
3.1028919e+000
2.6555386e+000
2.3459754e+000
2.1728401e+000
2.1414349e+000
2.2342436e+000
2.4186714e+000
2.6604581e+000
2.9153757e+000
3.1733229e+000
3.4403896e+000
3.7313614e+000
4.0446339e+000
4.3785977e+000
4.7128801e+000
5.0361137e+000
5.3593283e+000
5.6759090e+000
5.9676924e+000
6.1891189e+000
6.2944493e+000
6.2059150e+000
5.9792643e+000
5.5658770e+000
5.0900946e+000
4.5501399e+000
4.0120997e+000
3.5033042e+000
3.0551541e+000
2.6758354e+000
2.3576899e+000
2.0531023e+000
1.6888564e+000
1.2760435e+000
8.1758559e-001
3.9661950e-001
1.1800258e-001
-4.3146331e-002
-3.6128901e-002
4.8182368e-002
2.0436971e-001
3.8115609e-001
5.6710041e-001
7.5093496e-001
9.3163151e-001
1.1216587e+000
1.3259114e+000
1.5402815e+000
1.7498525e+000
1.9518551e+000
2.1410029e+000
2.3360898e+000
2.5540195e+000
2.7970088e+000
3.0807309e+000
3.3830504e+000
3.7024901e+000
4.0093842e+000
4.2894201e+000
4.5309224e+000
4.7261038e+000
4.8779855e+000
4.9885793e+000
5.0498409e+000
5.0762024e+000
5.0571127e+000
5.0193715e+000
4.9643683e+000
4.9082346e+000
4.8567004e+000
4.8123283e+000
4.7833624e+000
4.7662892e+000
4.7748122e+000
4.7910047e+000
4.8222675e+000
4.8508830e+000
4.8770990e+000
4.8995299e+000
4.9210334e+000
4.9539495e+000
5.0061679e+000
5.0852156e+000
5.1953940e+000
5.3227062e+000
5.4635329e+000
5.5962029e+000
5.7197118e+000
5.8331342e+000
5.9401822e+000
6.0480065e+000
6.1503501e+000
6.2293735e+000
6.2832203e+000
6.2796841e+000
6.2425480e+000
6.1476569e+000
6.0248117e+000
5.8468399e+000
5.6360250e+000
5.3367448e+000
4.9992924e+000
4.5593681e+000
4.0984797e+000
3.5897129e+000
3.0901101e+000
2.6123028e+000
2.1632478e+000
1.7663057e+000
1.4023371e+000
1.0883020e+000
8.0825830e-001
5.7235098e-001
3.7402886e-001
2.1629445e-001
9.1331102e-002
-5.7249293e-003
-8.4704570e-002
-1.5076342e-001
-2.0564950e-001
-2.5006565e-001
-2.7185076e-001
-2.7179554e-001
-2.1280713e-001
-1.1298557e-001
9.9959314e-002
3.5361800e-001
7.1023750e-001
1.0658613e+000
1.3911130e+000
1.6738783e+000
1.8234065e+000
1.9289383e+000
1.9254141e+000
1.8932943e+000
1.8026196e+000
1.6864100e+000
1.5260732e+000
1.3383143e+000
1.1138062e+000
8.7577140e-001
6.2785643e-001
4.0217137e-001
2.0734844e-001
8.2330637e-002
1.9858647e-002
4.6339452e-002
1.3043781e-001
2.9475504e-001
4.9466395e-001
7.2108400e-001
9.4516271e-001
1.1198832e+000
1.2682853e+000
1.3234880e+000
1.3621023e+000
1.3577557e+000
1.3567759e+000
1.3733166e+000
1.3981193e+000
1.4495012e+000
1.5100900e+000
1.5922600e+000
1.6717768e+000
1.7436765e+000
1.7952300e+000
1.8144572e+000
1.8206564e+000
1.8116040e+000
1.8056982e+000
1.8021028e+000
1.7935443e+000
1.7793071e+000
1.7505842e+000
1.7120337e+000
1.6621630e+000
1.6065571e+000
1.5453265e+000
1.4804463e+000
1.4049809e+000
1.3231578e+000
1.2142150e+000
1.1006944e+000
9.8000246e-001
8.6173040e-001
7.6084059e-001
6.6056055e-001
5.6305414e-001
4.6786883e-001
3.8108182e-001
3.0311537e-001
2.4680680e-001
1.9944471e-001
1.6843827e-001
1.4250262e-001
1.2355459e-001
1.0518870e-001
8.6936004e-002
6.1022468e-002
2.5904413e-002
-3.8716905e-002
-1.2589128e-001
-2.3981115e-001
-3.6587411e-001
-4.7147152e-001
-5.6616122e-001
-6.2544113e-001
-6.7449027e-001
-7.1571267e-001
-7.5647414e-001
-8.0810398e-001
-8.5994643e-001
-9.0416610e-001
-9.4267106e-001
-9.4290960e-001
-9.3991417e-001
-9.2291069e-001
-9.0717340e-001
-8.9562178e-001
-8.8103586e-001
-8.5988307e-001
-8.4153420e-001
-8.2829469e-001
-8.2856649e-001
-8.4739238e-001
-8.8296956e-001
-9.3555230e-001
-9.8068011e-001
-1.0179520e+000
-1.0195163e+000
-9.9836636e-001
-9.6439803e-001
-9.2397082e-001
-8.7075764e-001
-8.1108057e-001
-6.9565380e-001
-5.6759661e-001
-4.1782132e-001
-2.6790601e-001
-1.7531867e-001
-8.7039620e-002
-2.7652821e-002
1.1570416e-003
3.6388151e-002
1.1867079e-001
2.6315591e-001
4.1512227e-001
5.8893448e-001
7.5066280e-001
8.8612235e-001
9.9800283e-001
1.0718950e+000
1.1223459e+000
1.1438508e+000
1.1244125e+000
1.0662129e+000
9.6491241e-001
8.3285654e-001
6.9196254e-001
5.4736292e-001
4.2491299e-001
3.1277856e-001
2.7355063e-001
2.5484607e-001
3.3086208e-001
4.2249653e-001
5.3890002e-001
