Image.
>Pix99999.
  .
5555
5555
2300
900
5555
2
1
0
701
5555
7.0202000e-002
7.1662903e-002
7.3122822e-002
7.4583724e-002
7.6043651e-002
7.7504545e-002
7.8964472e-002
8.0425367e-002
8.1886284e-002
8.3346203e-002
8.4807098e-002
8.6267024e-002
8.7727919e-002
8.9187853e-002
9.0648741e-002
9.2108667e-002
9.3569562e-002
9.5029496e-002
9.6490383e-002
9.7951286e-002
9.9411234e-002
1.0087599e-001
1.0233411e-001
1.0379203e-001
1.0524994e-001
1.0671750e-001
7.3799841e-002
2.7975084e-003
-7.7903040e-002
-1.2036511e-001
-1.5718713e-001
-1.1596312e-001
-7.0586719e-002
-5.8208566e-002
-5.4430842e-002
-1.0687120e-001
-1.6846092e-001
-2.5898603e-001
-3.4510633e-001
-4.1321656e-001
-4.4842315e-001
-4.1393438e-001
-3.6486739e-001
-2.9870474e-001
-2.4832201e-001
-2.1891707e-001
-1.8798831e-001
-1.5428816e-001
-1.2223223e-001
-9.1516897e-002
-8.0903284e-002
-8.1850395e-002
-1.4303981e-001
-2.3032159e-001
-4.0741098e-001
-6.1311364e-001
-8.0905163e-001
-1.0023493e+000
-1.0716612e+000
-1.1213700e+000
-1.0845400e+000
-1.0394390e+000
-9.9079442e-001
-9.4105917e-001
-8.8716185e-001
-8.4135950e-001
-8.2661933e-001
-8.3600968e-001
-8.9923662e-001
-9.5526421e-001
-9.8720098e-001
-1.0140970e+000
-1.0373446e+000
-1.1127902e+000
-1.2474837e+000
-1.3683822e+000
-1.4716692e+000
-1.4324150e+000
-1.2952245e+000
-1.0733377e+000
-8.1061685e-001
-7.0371425e-001
-6.6404718e-001
-8.3028740e-001
-1.0602616e+000
-1.2511235e+000
-1.4318366e+000
-1.4385874e+000
-1.4135811e+000
-1.3076520e+000
-1.1904814e+000
-1.0750890e+000
-9.7275645e-001
-9.2692679e-001
-9.1241580e-001
-9.6754205e-001
-1.0395652e+000
-1.1263533e+000
-1.2159280e+000
-1.3065441e+000
-1.3891714e+000
-1.4612135e+000
-1.4735357e+000
-1.4256283e+000
-1.3439920e+000
-1.2413549e+000
-1.1840048e+000
-1.1583865e+000
-1.1575526e+000
-1.1677938e+000
-1.1659757e+000
-1.1586528e+000
-1.1316121e+000
-1.0984402e+000
-1.0775129e+000
-1.0618807e+000
-1.1375725e+000
-1.2344701e+000
-1.3615463e+000
-1.4825209e+000
-1.5363400e+000
-1.5744005e+000
-1.6045154e+000
-1.6408229e+000
-1.6982703e+000
-1.7459999e+000
-1.7673661e+000
-1.7689903e+000
-1.7473725e+000
-1.6920258e+000
-1.6000671e+000
-1.4920418e+000
-1.3751646e+000
-1.3476970e+000
-1.3925885e+000
-1.5012450e+000
-1.6437652e+000
-1.6909986e+000
-1.6863475e+000
-1.5945804e+000
-1.4684000e+000
-1.4133320e+000
-1.3824843e+000
-1.4453293e+000
-1.5310702e+000
-1.5983329e+000
-1.6566489e+000
-1.6879550e+000
-1.7184919e+000
-1.7789044e+000
-1.8624643e+000
-1.9957273e+000
-2.1386788e+000
-2.2718108e+000
-2.3434560e+000
-2.3067837e+000
-2.2008088e+000
-2.0343060e+000
-1.8977112e+000
-1.8125086e+000
-1.7829714e+000
-1.7957549e+000
-1.7626556e+000
-1.6887546e+000
-1.5508080e+000
-1.3768287e+000
-1.2944262e+000
-1.2619745e+000
-1.3475840e+000
-1.4816622e+000
-1.5787758e+000
-1.6579190e+000
-1.6501983e+000
-1.6160535e+000
-1.6113068e+000
-1.6320000e+000
-1.7352154e+000
-1.8581042e+000
-1.9438083e+000
-1.9966882e+000
-1.9899029e+000
-1.9799411e+000
-2.0050440e+000
-2.0491607e+000
-2.1129525e+000
-2.0905414e+000
-1.9518058e+000
-1.6534780e+000
-1.2127937e+000
-8.3810157e-001
-5.4878700e-001
-4.7411561e-001
-5.4888415e-001
-6.9233000e-001
-8.6320829e-001
-1.0572040e+000
-1.2605400e+000
-1.4161006e+000
-1.5473266e+000
-1.5261419e+000
-1.4411286e+000
-1.3145753e+000
-1.1850271e+000
-1.1366750e+000
-1.1438583e+000
-1.2470515e+000
-1.3960978e+000
-1.5738466e+000
-1.7464554e+000
-1.8871559e+000
-1.9708000e+000
-1.9784735e+000
-1.8543583e+000
-1.5751015e+000
-1.2287120e+000
-8.4774178e-001
-6.4282709e-001
-6.2434608e-001
-7.3872209e-001
-9.3307573e-001
-1.0942166e+000
-1.2200934e+000
-1.2549906e+000
-1.2376227e+000
-1.1286759e+000
-9.7575533e-001
-8.9480817e-001
-8.6279684e-001
-1.0003002e+000
-1.2165082e+000
-1.4554586e+000
-1.6755190e+000
-1.7705441e+000
-1.7377670e+000
-1.4381622e+000
-1.0337318e+000
-6.3526535e-001
-3.9169121e-001
-4.7319561e-001
-7.2058570e-001
-1.0468485e+000
-1.2841156e+000
-1.3567660e+000
-1.2743808e+000
-1.0671222e+000
-8.0998504e-001
-5.3890616e-001
-3.3282581e-001
-1.9407606e-001
-1.6000435e-001
-1.9943786e-001
-2.1614803e-001
-2.0175560e-001
-6.9336578e-002
1.4227518e-001
3.2416248e-001
4.8434067e-001
5.6461084e-001
6.1732465e-001
7.5821048e-001
9.5654511e-001
1.1974995e+000
1.3676951e+000
1.2742190e+000
1.0069363e+000
6.4176381e-001
3.2797301e-001
1.8991099e-001
6.3202053e-002
-1.7800915e-001
-3.8738957e-001
-4.8954856e-001
-3.1507725e-001
1.4519762e-001
7.4175823e-001
1.3949057e+000
1.7193800e+000
1.7282794e+000
1.5438626e+000
1.2470115e+000
1.1460800e+000
1.2011071e+000
1.2380680e+000
1.2428384e+000
9.5898068e-001
5.0439048e-001
1.3021186e-001
-1.1107328e-001
9.4564050e-002
7.5339198e-001
1.9008743e+000
3.2093434e+000
4.2999983e+000
5.2182941e+000
5.9848380e+000
6.9195709e+000
8.2949991e+000
1.0372869e+001
1.3272814e+001
1.6772436e+001
2.0681856e+001
2.4209391e+001
2.7074928e+001
2.9621336e+001
3.2013428e+001
3.5168694e+001
3.9132595e+001
4.3830780e+001
4.9080238e+001
5.3597282e+001
5.7440056e+001
6.1117790e+001
6.4727921e+001
6.8819847e+001
7.3270508e+001
7.7732002e+001
8.2177628e+001
8.6492508e+001
9.0623512e+001
9.4422615e+001
9.7834602e+001
1.0076433e+002
1.0306540e+002
1.0462013e+002
1.0498274e+002
1.0388178e+002
1.0175100e+002
9.9034874e+001
9.5977341e+001
9.2750526e+001
8.8946693e+001
8.4476295e+001
7.9791832e+001
7.5085518e+001
7.0715500e+001
6.6709145e+001
6.2587883e+001
5.8289661e+001
5.3950188e+001
4.9598095e+001
4.5470913e+001
4.1595654e+001
3.8101704e+001
3.5012859e+001
3.2340858e+001
3.0078402e+001
2.8132172e+001
2.6509937e+001
2.5174725e+001
2.4116106e+001
2.3269001e+001
2.2626308e+001
2.2151600e+001
2.1846960e+001
2.1695446e+001
2.1720072e+001
2.1914263e+001
2.2285631e+001
2.2816395e+001
2.3538250e+001
2.4454256e+001
2.5537407e+001
2.6782539e+001
2.8028492e+001
2.9242119e+001
3.0376106e+001
3.1426294e+001
3.2721161e+001
3.4358513e+001
3.6863419e+001
4.0191113e+001
4.3349281e+001
4.6175438e+001
4.8152069e+001
4.9390308e+001
5.0514500e+001
5.1508194e+001
5.2391453e+001
5.2912300e+001
5.2801968e+001
5.2104427e+001
5.0973064e+001
4.9646793e+001
4.8337040e+001
4.6979584e+001
4.5526852e+001
4.3864105e+001
4.1933983e+001
3.9791195e+001
3.7480148e+001
3.5325073e+001
3.3441395e+001
3.1656841e+001
2.9919447e+001
2.7735924e+001
2.4966923e+001
2.2183817e+001
1.9463795e+001
1.7193195e+001
1.5414170e+001
1.3612143e+001
1.1771077e+001
9.8925648e+000
8.0070353e+000
6.2300205e+000
4.5933604e+000
3.1041441e+000
1.8515756e+000
8.9161170e-001
2.7827689e-001
3.6846116e-002
2.2300890e-001
8.6512280e-001
1.6038390e+000
2.2631037e+000
2.8383572e+000
3.2834241e+000
3.7747443e+000
4.3941460e+000
5.0377469e+000
5.6907597e+000
6.1150565e+000
6.2019892e+000
6.1861668e+000
6.0463858e+000
5.8894787e+000
5.6982365e+000
5.4491777e+000
5.1222196e+000
4.7816768e+000
4.4040442e+000
3.9863508e+000
3.5212498e+000
3.0440254e+000
2.6293581e+000
2.3911757e+000
2.3636761e+000
2.5462780e+000
2.8627677e+000
3.2166486e+000
3.5391915e+000
3.7597690e+000
3.9499857e+000
4.1346116e+000
4.3531685e+000
4.6337953e+000
4.9427276e+000
5.2918830e+000
5.6381559e+000
5.9751415e+000
6.2435498e+000
6.3896770e+000
6.4169307e+000
6.2636733e+000
6.0380154e+000
5.7096047e+000
5.3555269e+000
4.9741988e+000
4.6190624e+000
4.2944632e+000
3.9939229e+000
3.6985865e+000
3.3806760e+000
3.0464354e+000
2.7149389e+000
2.3892386e+000
2.0500989e+000
1.6804943e+000
1.2617059e+000
8.4537172e-001
4.9575114e-001
2.3023137e-001
8.9302748e-002
1.1401327e-002
7.3401574e-003
6.4625181e-002
1.9892241e-001
3.8750416e-001
6.7081726e-001
9.2314053e-001
1.1038257e+000
1.1781194e+000
1.0944792e+000
1.0242240e+000
9.9709713e-001
1.0749507e+000
1.2930241e+000
1.5765785e+000
1.9235640e+000
2.2696106e+000
2.5935001e+000
2.8551259e+000
3.0457001e+000
3.1464083e+000
3.1926184e+000
3.2296643e+000
3.2789080e+000
3.3744380e+000
3.4727416e+000
3.5308461e+000
3.5511143e+000
3.5104232e+000
3.4727740e+000
3.4842532e+000
3.5209520e+000
3.6073699e+000
3.6798408e+000
3.7114470e+000
3.7410588e+000
3.7732062e+000
3.8522086e+000
4.0191832e+000
4.2203798e+000
4.4712453e+000
4.7197504e+000
4.9707141e+000
5.2379923e+000
5.5300512e+000
5.8363519e+000
6.1577234e+000
6.4855571e+000
6.8363276e+000
7.2525864e+000
7.7196460e+000
8.2215405e+000
8.7188997e+000
9.1464272e+000
9.5272789e+000
9.8434687e+000
1.0135201e+001
1.0404600e+001
1.0645595e+001
1.0806960e+001
1.0890361e+001
1.0744583e+001
1.0514458e+001
1.0060924e+001
9.5844717e+000
9.0556812e+000
8.5246353e+000
7.9883685e+000
7.4421501e+000
6.8822961e+000
6.3370690e+000
5.8148208e+000
5.3114500e+000
4.8302841e+000
4.3544564e+000
3.8865526e+000
3.4333875e+000
2.9961500e+000
2.5840976e+000
2.1937304e+000
1.8348030e+000
1.5065536e+000
1.2485179e+000
1.0305376e+000
8.8297868e-001
7.6301950e-001
6.8899739e-001
6.4516199e-001
6.9750619e-001
7.7601200e-001
9.3470275e-001
1.0847217e+000
1.2067707e+000
1.2952505e+000
1.2988549e+000
1.2676125e+000
1.1679617e+000
1.0634998e+000
9.5279378e-001
8.5227746e-001
7.6134324e-001
6.5360838e-001
5.2292788e-001
3.6028594e-001
1.8266821e-001
6.4949855e-002
1.7250106e-002
1.3185216e-001
3.4340999e-001
6.8616652e-001
1.0788194e+000
1.4689783e+000
1.8621542e+000
2.2733696e+000
2.6680307e+000
2.9589720e+000
3.1904464e+000
3.1566730e+000
3.1068311e+000
3.0127463e+000
2.9749553e+000
3.1160197e+000
3.2850800e+000
3.5156567e+000
3.6926947e+000
3.7654951e+000
3.8186908e+000
3.8552144e+000
3.9893966e+000
4.2595382e+000
4.6610351e+000
5.1963229e+000
5.7853541e+000
6.4034801e+000
6.9410262e+000
7.4023480e+000
7.6643772e+000
7.8070598e+000
7.7368765e+000
7.5890512e+000
7.3794470e+000
7.1746979e+000
7.1022730e+000
7.0771561e+000
7.2748356e+000
7.4937963e+000
7.7764030e+000
7.9930654e+000
7.9174829e+000
7.7718167e+000
7.4123302e+000
7.1414528e+000
7.0927358e+000
7.1663084e+000
7.4613981e+000
7.7208071e+000
7.9200544e+000
8.0227003e+000
8.0064669e+000
7.8868542e+000
7.6578250e+000
7.2476664e+000
6.7033072e+000
6.0537243e+000
5.3581543e+000
4.7530346e+000
4.1907754e+000
3.7124715e+000
3.2529318e+000
2.7527087e+000
2.2464194e+000
1.7513080e+000
1.2745342e+000
1.0029488e+000
7.6225519e-001
7.1983802e-001
6.7709339e-001
6.3065857e-001
5.4458141e-001
3.3476251e-001
9.0305910e-002
-2.3103386e-001
-5.2426696e-001
-7.6572484e-001
-9.4327819e-001
-1.0369680e+000
-1.1402245e+000
-1.2523115e+000
-1.3496692e+000
-1.4239857e+000
-1.2973809e+000
-1.0428985e+000
-6.6321647e-001
-2.3703440e-001
-6.8931431e-003
1.5272547e-001
1.4949866e-001
1.1835514e-001
2.3387988e-001
3.6644238e-001
4.8114759e-001
5.7226354e-001
3.3637142e-001
1.0637343e-001
-5.3015053e-003
-1.5742239e-001
-3.1870455e-002
1.2057257e-001
3.5045815e-001
5.4718953e-001
6.7294067e-001
7.8042108e-001
8.6037159e-001
1.0199220e+000
1.2775820e+000
1.6385411e+000
2.0940902e+000
2.4739757e+000
2.7992294e+000
3.0026841e+000
3.1424949e+000
3.4220448e+000
3.7547657e+000
4.2674966e+000
4.8250284e+000
5.1344695e+000
5.4027123e+000
5.1318002e+000
