Image.
>Pix99999.
  .
5555
5555
2300
900
5555
2
1
0
701
5555
-2.5215000e-002
-2.5739249e-002
-2.6264496e-002
-2.6788751e-002
-2.7313000e-002
-2.7838243e-002
-2.8362500e-002
-2.8886748e-002
-2.9411988e-002
-2.9936250e-002
-3.0460499e-002
-3.0985733e-002
-3.1509999e-002
-3.2034252e-002
-3.2559481e-002
-3.3083748e-002
-3.3608001e-002
-3.4132250e-002
-3.4657475e-002
-3.5181750e-002
-3.5705999e-002
-3.6231220e-002
-3.6755502e-002
-3.7279751e-002
-3.7804965e-002
-3.8329251e-002
-1.4243543e-003
2.6815206e-002
5.2258678e-002
4.6308063e-002
3.5753127e-002
2.0006394e-002
3.7088841e-003
-1.6776431e-002
-3.7563648e-002
-5.9085499e-002
-7.5649485e-002
-6.9340914e-002
-6.0176175e-002
-4.6019573e-002
-4.5041457e-002
-7.3476262e-002
-1.1460756e-001
-1.7364077e-001
-2.1811509e-001
-2.4308257e-001
-2.3982646e-001
-2.1059008e-001
-1.6835611e-001
-1.1768170e-001
-7.3322929e-002
-3.2922346e-002
-1.2851623e-002
-1.5786006e-003
-1.8814148e-003
-5.7631377e-003
1.4719679e-003
1.1311974e-002
2.1468936e-002
3.1261362e-002
8.9751482e-003
-1.7917596e-002
-6.3574500e-002
-1.0691018e-001
-1.2667091e-001
-1.3737771e-001
-1.2335666e-001
-1.0876020e-001
-9.9005997e-002
-9.6733026e-002
-1.0773130e-001
-1.2276307e-001
-1.4165279e-001
-1.5941352e-001
-1.7544231e-001
-1.9026285e-001
-2.0418628e-001
-2.1623650e-001
-2.2702995e-001
-2.3727772e-001
-2.4729599e-001
-2.5885689e-001
-2.7111447e-001
-2.7645594e-001
-2.7957600e-001
-2.7431592e-001
-2.6712808e-001
-2.6386556e-001
-2.6153663e-001
-2.6495090e-001
-2.6866201e-001
-2.6861671e-001
-2.6660308e-001
-2.5837564e-001
-2.4773237e-001
-2.3251057e-001
-2.1747617e-001
-2.0430034e-001
-2.0372261e-001
-2.2380452e-001
-2.6013142e-001
-3.1367978e-001
-3.5648108e-001
-3.8552949e-001
-3.8878778e-001
-3.7245050e-001
-3.5165969e-001
-3.2973814e-001
-3.1691337e-001
-3.0890849e-001
-3.1102872e-001
-3.1709245e-001
-3.2904002e-001
-3.4271744e-001
-3.4695077e-001
-3.4863538e-001
-3.4530258e-001
-3.4037575e-001
-3.3021802e-001
-3.1752339e-001
-2.9654285e-001
-2.7859858e-001
-2.7706370e-001
-2.8474560e-001
-3.0739337e-001
-3.2593536e-001
-3.3060360e-001
-3.2631052e-001
-3.1288394e-001
-3.0941665e-001
-3.2046458e-001
-3.3974046e-001
-3.6432201e-001
-3.7894100e-001
-3.8473302e-001
-3.8610077e-001
-3.8540012e-001
-3.8596407e-001
-3.8723385e-001
-4.0140480e-001
-4.2114601e-001
-4.6907756e-001
-5.2660543e-001
-5.8327645e-001
-6.3795942e-001
-6.6416460e-001
-6.8055499e-001
-6.7803353e-001
-6.7034703e-001
-6.5986824e-001
-6.5126497e-001
-6.4964056e-001
-6.5282273e-001
-6.6413206e-001
-6.7597318e-001
-6.8688303e-001
-6.9756985e-001
-7.0821136e-001
-7.2521853e-001
-7.4876279e-001
-7.7370799e-001
-7.9824650e-001
-8.1315434e-001
-8.2046849e-001
-8.1831771e-001
-8.1109512e-001
-7.9805464e-001
-7.8278023e-001
-7.6133400e-001
-7.3745596e-001
-7.1533114e-001
-6.9458520e-001
-6.9062603e-001
-6.9392872e-001
-7.0985341e-001
-7.2860003e-001
-7.4197328e-001
-7.5122589e-001
-7.5659639e-001
-7.6317048e-001
-7.7712888e-001
-7.9251295e-001
-8.0462658e-001
-8.1290156e-001
-8.1479526e-001
-8.1228858e-001
-8.0527341e-001
-7.8693712e-001
-7.5856858e-001
-7.2196412e-001
-6.8181986e-001
-6.4372027e-001
-6.0764027e-001
-5.8533156e-001
-5.7113671e-001
-5.8449525e-001
-6.1254919e-001
-6.4186352e-001
-6.7146957e-001
-6.6534525e-001
-6.4466715e-001
-6.1502177e-001
-5.8677655e-001
-5.9392250e-001
-6.1916357e-001
-6.6671246e-001
-7.1749830e-001
-7.5338823e-001
-7.7530932e-001
-7.7591711e-001
-7.6158899e-001
-7.3048985e-001
-6.8372995e-001
-6.2006789e-001
-5.6054044e-001
-5.1615202e-001
-5.0852960e-001
-5.3818065e-001
-5.8371025e-001
-6.3360375e-001
-6.7662001e-001
-7.1215147e-001
-7.4015456e-001
-7.6274490e-001
-7.7642840e-001
-7.8380251e-001
-7.8947073e-001
-7.9313201e-001
-7.9294091e-001
-7.8983295e-001
-7.6749712e-001
-7.3277187e-001
-6.7075419e-001
-5.9528047e-001
-5.1803100e-001
-4.5338485e-001
-4.3152034e-001
-4.4170642e-001
-4.8207119e-001
-5.3081942e-001
-5.7018542e-001
-5.9900516e-001
-6.1592859e-001
-6.2416065e-001
-6.2753636e-001
-6.1140800e-001
-5.7667303e-001
-5.3216308e-001
-4.8179308e-001
-4.3766099e-001
-3.9911643e-001
-3.4917533e-001
-2.9230520e-001
-2.3488250e-001
-1.7999294e-001
-1.4080478e-001
-1.1231794e-001
-9.0715051e-002
-7.3568307e-002
-5.4368041e-002
-3.1445429e-002
3.3426918e-003
4.2684771e-002
6.9055878e-002
8.1607826e-002
7.1314797e-002
5.4720059e-002
5.1097509e-002
1.9917760e-002
-6.3012198e-002
-1.4457829e-001
-1.9551010e-001
-1.9882983e-001
-1.5497920e-001
-1.0509747e-001
-6.5742716e-002
-9.0959452e-002
-1.7860302e-001
-2.6938814e-001
-3.5064036e-001
-3.3529401e-001
-2.4439974e-001
-1.4655757e-001
-5.4148845e-002
-6.2656567e-002
-1.3655737e-001
-1.7377469e-001
-1.5775619e-001
1.7192110e-002
3.3987510e-001
8.7363428e-001
1.5241407e+000
2.1411572e+000
2.7309427e+000
3.3072219e+000
4.0265779e+000
5.0371323e+000
6.5924282e+000
8.8173714e+000
1.1905776e+001
1.5821857e+001
1.9830620e+001
2.3589323e+001
2.6940979e+001
2.9927834e+001
3.3425262e+001
3.7529507e+001
4.2519436e+001
4.8218517e+001
5.3270515e+001
5.7698200e+001
6.1890087e+001
6.5982513e+001
7.0748535e+001
7.6012825e+001
8.1217949e+001
8.6261078e+001
9.0794998e+001
9.4804550e+001
9.8219070e+001
1.0098840e+002
1.0304336e+002
1.0424820e+002
1.0448997e+002
1.0349983e+002
1.0114232e+002
9.8036079e+001
9.4748337e+001
9.1259735e+001
8.7595161e+001
8.3309029e+001
7.8288353e+001
7.3200249e+001
6.8277618e+001
6.3723198e+001
5.9535374e+001
5.5337681e+001
5.1073109e+001
4.6980045e+001
4.3070263e+001
3.9447285e+001
3.6126339e+001
3.3203377e+001
3.0690050e+001
2.8568436e+001
2.6824001e+001
2.5344641e+001
2.4142696e+001
2.3194771e+001
2.2500126e+001
2.2017500e+001
2.1736795e+001
2.1614605e+001
2.1635658e+001
2.1765467e+001
2.1983171e+001
2.2264360e+001
2.2599360e+001
2.2978962e+001
2.3477209e+001
2.4119257e+001
2.4951864e+001
2.5978760e+001
2.7113455e+001
2.8331959e+001
2.9580179e+001
3.0856220e+001
3.2325676e+001
3.4083008e+001
3.6733589e+001
4.0344154e+001
4.4331390e+001
4.8464458e+001
5.1704914e+001
5.4075390e+001
5.6078823e+001
5.7714489e+001
5.9106560e+001
6.0042240e+001
6.0249733e+001
5.9715084e+001
5.8547680e+001
5.6996960e+001
5.5381500e+001
5.3704639e+001
5.1972050e+001
5.0073727e+001
4.7934921e+001
4.5546906e+001
4.2882435e+001
4.0313313e+001
3.7970768e+001
3.5790279e+001
3.3792435e+001
3.1375751e+001
2.8397085e+001
2.5363411e+001
2.2317654e+001
1.9705038e+001
1.7573669e+001
1.5462856e+001
1.3369291e+001
1.1254674e+001
9.1374245e+000
7.0676823e+000
5.1122885e+000
3.3743620e+000
1.9415150e+000
8.9437789e-001
2.5702536e-001
5.8353443e-002
3.9546698e-001
1.2138706e+000
2.2111690e+000
3.2063491e+000
4.0532413e+000
4.6472301e+000
5.1367302e+000
5.5677533e+000
5.9926295e+000
6.4222999e+000
6.7810507e+000
7.0192442e+000
7.1346483e+000
7.0692401e+000
6.9351892e+000
6.7090144e+000
6.4668193e+000
6.2010112e+000
5.9036655e+000
5.5476799e+000
5.0796890e+000
4.4977894e+000
3.8804517e+000
3.2701821e+000
2.7740386e+000
2.4145520e+000
2.2028766e+000
2.1316428e+000
2.1760433e+000
2.3019686e+000
2.4771330e+000
2.6799970e+000
2.9081457e+000
3.1627524e+000
3.4570630e+000
3.7798984e+000
4.1354623e+000
4.5087161e+000
4.9034777e+000
5.2949572e+000
5.6709967e+000
5.9798856e+000
6.1604576e+000
6.2235541e+000
6.0991750e+000
5.8692126e+000
5.4977798e+000
5.0860076e+000
4.6308451e+000
4.1736517e+000
3.7247372e+000
3.2981999e+000
2.9017191e+000
2.5422504e+000
2.1905558e+000
1.7970029e+000
1.3658197e+000
8.9610040e-001
4.6274507e-001
1.6260734e-001
-1.8005449e-002
-2.6345691e-002
3.8525142e-002
1.6492659e-001
3.2255179e-001
5.1327521e-001
7.1885157e-001
9.5003432e-001
1.1783993e+000
1.3959399e+000
1.5980723e+000
1.7659183e+000
1.9380349e+000
2.1196434e+000
2.3234851e+000
2.5659490e+000
2.8354290e+000
3.1432142e+000
3.4714081e+000
3.8152299e+000
4.1420455e+000
4.4370928e+000
4.6788850e+000
4.8657541e+000
4.9999547e+000
5.0917192e+000
5.1434240e+000
5.1681519e+000
5.1626654e+000
5.1413713e+000
5.1012917e+000
5.0573826e+000
5.0136857e+000
4.9762282e+000
4.9544730e+000
4.9393735e+000
4.9376416e+000
4.9378247e+000
4.9421101e+000
4.9495902e+000
4.9661322e+000
4.9953823e+000
5.0495181e+000
5.1242170e+000
5.2283583e+000
5.3456345e+000
5.4768915e+000
5.6099482e+000
5.7452021e+000
5.8828716e+000
6.0218396e+000
6.1595116e+000
6.2910075e+000
6.4042249e+000
6.4997501e+000
6.5644984e+000
6.6080861e+000
6.6187930e+000
6.6059289e+000
6.5455699e+000
6.4480977e+000
6.2590361e+000
6.0235262e+000
5.6674461e+000
5.2804804e+000
4.8145666e+000
4.3408942e+000
3.8502481e+000
3.3693330e+000
2.9113686e+000
2.4804778e+000
2.0998328e+000
1.7589141e+000
1.4751754e+000
1.2173051e+000
9.8861438e-001
7.6600915e-001
5.5466700e-001
3.6898434e-001
2.1197714e-001
9.9187098e-002
1.8487399e-002
-3.2716326e-002
-6.6376321e-002
-8.1157438e-002
-8.1835799e-002
-5.0066546e-002
9.7284093e-003
1.5411502e-001
3.3762002e-001
6.3308954e-001
9.4061112e-001
1.2673154e+000
1.5618103e+000
1.7541364e+000
1.8972623e+000
1.9180280e+000
1.9033297e+000
1.8176348e+000
1.7136743e+000
1.5776517e+000
1.4193240e+000
1.2281190e+000
1.0103244e+000
7.6683891e-001
5.3216445e-001
3.1462693e-001
1.5148684e-001
3.7037451e-002
-8.2276855e-003
-5.4303966e-003
7.6803908e-002
1.9719595e-001
3.5866374e-001
5.2550203e-001
6.6202617e-001
7.8053832e-001
8.3212638e-001
8.7334526e-001
8.9238471e-001
9.2106760e-001
9.9245566e-001
1.0778339e+000
1.2068857e+000
1.3371650e+000
1.4670143e+000
1.5707310e+000
1.6200370e+000
1.6337854e+000
1.5933572e+000
1.5514913e+000
1.5117420e+000
1.5016636e+000
1.5234013e+000
1.5684229e+000
1.6308645e+000
1.6914316e+000
1.7457234e+000
1.7624130e+000
1.7543358e+000
1.6881547e+000
1.6009400e+000
1.4991127e+000
1.3979560e+000
1.3257700e+000
1.2595600e+000
1.2102966e+000
1.1646434e+000
1.1371378e+000
1.1141114e+000
1.1104454e+000
1.1033165e+000
1.0844309e+000
1.0529152e+000
9.9028575e-001
9.1544181e-001
8.1787193e-001
7.1824116e-001
6.1676943e-001
5.2775604e-001
4.5433727e-001
3.9621133e-001
3.5113111e-001
3.0012956e-001
2.4243844e-001
1.5674381e-001
5.5236325e-002
-5.8624841e-002
-1.7514488e-001
-2.6823029e-001
-3.5430801e-001
-4.3247086e-001
-5.1099199e-001
-6.0926241e-001
-7.0700371e-001
-7.7937376e-001
-8.4537834e-001
-8.6943942e-001
-8.9000398e-001
-8.9458930e-001
-8.8774419e-001
-8.4506595e-001
-7.8944480e-001
-7.0538020e-001
-6.3634384e-001
-5.9462845e-001
-5.7838440e-001
-5.9578097e-001
-6.1204028e-001
-6.2625170e-001
-6.2375247e-001
-6.0742515e-001
-5.8028919e-001
-5.4616398e-001
-5.0649649e-001
-4.6407172e-001
-4.1737574e-001
-3.6894622e-001
-3.1066602e-001
-2.5080729e-001
-2.0070124e-001
-1.5286240e-001
-1.3043556e-001
-1.0569102e-001
-3.4449108e-002
2.0826496e-003
6.5047503e-002
1.9731082e-001
3.7477183e-001
5.4605746e-001
6.9886577e-001
8.3149016e-001
9.2066145e-001
9.8731607e-001
1.0174508e+000
1.0143340e+000
9.7040164e-001
8.8923264e-001
7.7397156e-001
6.9051552e-001
6.3056839e-001
6.6129172e-001
7.4021608e-001
8.3274329e-001
9.3021446e-001
9.2088860e-001
8.8376153e-001
8.0487543e-001
7.1962678e-001
7.8728998e-001
