##TITLE=Methyl Ethyl Ketone
##JCAMP-DX=4.24
##DATA TYPE=INFRARED SPECTRUM
##XUNITS=cm-1
##YUNITS=Absorbance
##FIRSTX=900
##LASTX=2300
##XYDATA=(X++(Y..Y))
2296 -0.037843999
2294 -0.038647849
2292 -0.039452698
2290 -0.040256549
2288 -0.041060399
2286 -0.04186425
2284 -0.0426681
2282 -0.043472938
2280 -0.0442768
2278 -0.045080651
2276 -0.045884501
2274 -0.046690319
2272 -0.047493216
2270 -0.048293125
2268 -0.04910082
2266 -0.049919426
2264 -0.050708942
2262 -0.051458787
2260 -0.052315861
2258 -0.053324476
2256 -0.053930972
2254 -0.053972252
2252 -0.055509154
2250 -0.059154838
2248 -0.057241276
2246 -0.040376931
2244 -0.0014766144
2242 0.061928503
2240 0.13636212
2238 0.20550144
2236 0.259615
2234 0.2905241
2232 0.28857678
2230 0.24915275
2228 0.19001962
2226 0.13447
2224 0.10223737
2222 0.10661647
2220 0.13968118
2218 0.18669686
2216 0.23093057
2214 0.2584261
2212 0.268581
2210 0.26677421
2208 0.26612332
2206 0.27823555
2204 0.29932529
2202 0.31971499
2200 0.32528076
2198 0.3052974
2196 0.26805714
2194 0.22749184
2192 0.1962024
2190 0.18453002
2188 0.19572946
2186 0.23005806
2184 0.284558
2182 0.3521283
2180 0.41268438
2178 0.44592726
2176 0.44758826
2174 0.42430431
2172 0.40547466
2170 0.42025819
2168 0.46665439
2166 0.52746636
2164 0.56617081
2162 0.54910892
2160 0.47980353
2158 0.3776145
2156 0.274728
2154 0.2020442
2152 0.1684984
2150 0.17278694
2148 0.20293681
2146 0.2440875
2144 0.28380358
2142 0.31343722
2140 0.33584312
2138 0.35774165
2136 0.38504657
2134 0.41885513
2132 0.44203565
2130 0.43405572
2128 0.38718799
2126 0.30516049
2124 0.21883346
2122 0.1618672
2120 0.13920313
2118 0.14069566
2116 0.13864443
2114 0.1067486
2112 0.049832776
2110 -0.013847698
2108 -0.059456959
2106 -0.067517094
2104 -0.049283702
2102 -0.02887718
2100 -0.0350613
2098 -0.090926662
2096 -0.19043829
2094 -0.31450522
2092 -0.43670133
2090 -0.53179824
2088 -0.58963716
2086 -0.60831398
2084 -0.59527117
2082 -0.56206894
2080 -0.52307814
2078 -0.4924604
2076 -0.47962099
2074 -0.48970696
2072 -0.518444
2070 -0.55810785
2068 -0.60219866
2066 -0.64578342
2064 -0.68751782
2062 -0.72802913
2060 -0.76994109
2058 -0.81688505
2056 -0.87341201
2054 -0.94127041
2052 -1.0089636
2050 -1.0619143
2048 -1.0960441
2046 -1.1149714
2044 -1.134546
2042 -1.1704518
2040 -1.2169863
2038 -1.2599784
2036 -1.2896857
2034 -1.3016906
2032 -1.3037057
2030 -1.306797
2028 -1.3132409
2026 -1.321945
2024 -1.33498
2022 -1.3559573
2020 -1.3885802
2018 -1.4334075
2016 -1.4784
2014 -1.5083823
2012 -1.5195192
2010 -1.5168623
2008 -1.5192949
2006 -1.5473157
2004 -1.6021231
2002 -1.676083
2000 -1.7626617
1998 -1.8592697
1996 -1.9757644
1994 -2.1210897
1992 -2.2769651
1990 -2.4110446
1988 -2.488764
1986 -2.4855936
1984 -2.4223366
1982 -2.3389661
1980 -2.2644935
1978 -2.2155535
1976 -2.1851485
1974 -2.158287
1972 -2.1342692
1970 -2.1213052
1968 -2.1321702
1966 -2.1778536
1964 -2.2559242
1962 -2.3552363
1960 -2.4580522
1958 -2.5452821
1956 -2.6041172
1954 -2.6281624
1952 -2.6235275
1950 -2.6043878
1948 -2.5916359
1946 -2.604125
1944 -2.6384439
1942 -2.6784844
1940 -2.7042854
1938 -2.7009664
1936 -2.6801715
1934 -2.6655478
1932 -2.6726639
1930 -2.7060382
1928 -2.7474124
1926 -2.7684057
1924 -2.7467406
1922 -2.6723025
1920 -2.5686281
1918 -2.4733808
1916 -2.4081271
1914 -2.3792298
1912 -2.3727937
1910 -2.3688958
1908 -2.3665159
1906 -2.3737471
1904 -2.3885081
1902 -2.4017229
1900 -2.4025183
1898 -2.3831778
1896 -2.3526144
1894 -2.3275459
1892 -2.3160777
1890 -2.3191829
1888 -2.3301573
1886 -2.3405886
1884 -2.3508101
1882 -2.3647459
1880 -2.3781559
1878 -2.3811285
1876 -2.36169
1874 -2.3102584
1872 -2.2308092
1870 -2.1359417
1868 -2.0398345
1866 -1.9551328
1864 -1.8859029
1862 -1.830465
1860 -1.7844094
1858 -1.7425584
1856 -1.7006257
1854 -1.6544542
1852 -1.5966214
1850 -1.5215361
1848 -1.4417759
1846 -1.3819286
1844 -1.3707464
1842 -1.4305681
1840 -1.5503423
1838 -1.6992601
1836 -1.8526614
1834 -1.9908041
1832 -2.0887222
1830 -2.1180017
1828 -2.0523288
1826 -1.8798314
1824 -1.6446811
1822 -1.4211062
1820 -1.256936
1818 -1.1696198
1816 -1.1343143
1814 -1.1066008
1812 -1.0670497
1810 -1.0179081
1808 -0.97252786
1806 -0.94491202
1804 -0.92869788
1802 -0.90450221
1800 -0.85820287
1798 -0.78714532
1796 -0.71695215
1794 -0.68277723
1792 -0.67909837
1790 -0.67030394
1788 -0.62003922
1786 -0.50515604
1784 -0.34815264
1782 -0.19405976
1780 -0.048805151
1778 0.10484232
1776 0.24779972
1774 0.33256882
1772 0.31596094
1770 0.18030329
1768 -0.0064432099
1766 -0.12958303
1764 -0.13477281
1762 -0.038023748
1760 0.055680692
1758 0.015897345
1756 -0.14145297
1754 -0.29779822
1752 -0.38575038
1750 -0.39781299
1748 -0.35926479
1746 -0.31031856
1744 -0.28239155
1742 -0.29065287
1740 -0.31577608
1738 -0.31837773
1736 -0.27955401
1734 -0.20504217
1732 -0.12763821
1730 -0.090206362
1728 -0.099850953
1726 -0.13230714
1724 -0.15587755
1722 -0.1357438
1720 -0.028808683
1718 0.21349762
1716 0.63642156
1714 1.2628003
1712 2.0265017
1710 2.8120468
1708 3.595506
1706 4.4543314
1704 5.5540032
1702 7.1119494
1700 9.3221359
1698 12.273826
1696 15.688857
1694 19.04167
1692 22.009354
1690 24.543755
1688 26.907005
1686 29.556934
1684 32.834972
1682 36.846039
1680 41.191719
1678 45.181068
1676 48.604874
1674 51.743156
1672 54.994476
1670 58.706478
1668 62.879646
1666 67.221245
1664 71.467445
1662 75.443466
1660 79.045525
1658 82.237671
1656 85.072632
1654 87.665527
1652 90.090858
1650 92.334473
1648 94.179451
1646 95.289001
1644 95.580872
1642 95.214172
1640 94.288788
1638 92.796425
1636 90.680573
1634 87.894531
1632 84.571434
1630 80.98526
1628 77.281059
1626 73.45134
1624 69.460876
1622 65.294441
1620 61.023354
1618 56.794861
1616 52.737999
1614 48.948662
1612 45.508789
1610 42.480309
1608 39.856049
1606 37.565655
1604 35.548672
1602 33.772362
1600 32.22892
1598 30.925308
1596 29.852501
1594 28.981115
1592 28.275806
1590 27.705185
1588 27.263632
1586 26.96805
1584 26.827532
1582 26.840099
1580 27.014982
1578 27.375547
1576 27.951057
1574 28.76326
1572 29.771383
1570 30.8722
1568 31.968519
1566 32.993607
1564 33.934292
1562 34.860405
1560 36.013988
1558 37.740566
1556 40.066158
1554 42.637482
1552 45.02005
1550 46.840282
1548 48.059605
1546 48.975109
1544 49.807304
1542 50.599762
1540 51.30204
1538 51.800877
1536 51.984688
1534 51.778675
1532 51.209099
1530 50.394543
1528 49.409264
1526 48.252899
1524 46.897114
1522 45.308784
1520 43.494217
1518 41.517323
1516 39.50293
1514 37.599339
1512 35.793159
1510 33.879929
1508 31.666742
1506 29.063749
1504 26.208481
1502 23.450602
1500 20.988146
1498 18.77198
1496 16.673428
1494 14.549547
1492 12.346677
1490 10.127172
1488 7.976789
1486 5.97896
1484 4.215692
1482 2.7551746
1480 1.6008829
1478 0.70578408
1476 0.1556243
1474 0.17337111
1472 0.77395195
1470 1.6852341
1468 2.6643186
1466 3.5967486
1464 4.4560919
1462 5.2825422
1460 6.0650578
1458 6.7094479
1456 7.11796
1454 7.2311263
1452 7.1001215
1450 6.8935766
1448 6.7067976
1446 6.5082498
1444 6.2647357
1442 5.977571
1440 5.6537037
1438 5.2934175
1436 4.8742328
1434 4.3536968
1432 3.7346861
1430 3.0882277
1428 2.4999619
1426 2.0481422
1424 1.7710823
1422 1.6535296
1420 1.6689618
1418 1.7923719
1416 2.0055001
1414 2.29813
1412 2.6540053
1410 3.0465662
1408 3.450017
1406 3.8439021
1404 4.2156587
1402 4.5613127
1400 4.8731561
1398 5.1358714
1396 5.3343215
1394 5.4576402
1392 5.5041127
1390 5.4837165
1388 5.4057479
1386 5.275465
1384 5.1024771
1382 4.9036164
1380 4.692522
1378 4.473949
1376 4.2409716
1374 3.9738858
1372 3.6624439
1370 3.3143024
1368 2.9355755
1366 2.523895
1364 2.0750799
1362 1.5897077
1360 1.0955093
1358 0.65720201
1356 0.32642886
1354 0.11852698
1352 0.023416596
1350 0.0058802729
1348 0.037830189
1346 0.1110335
1344 0.2190192
1342 0.34963453
1340 0.48138547
1338 0.58164519
1336 0.62647831
1334 0.61203724
1332 0.54993713
1330 0.46902901
1328 0.39774394
1326 0.35699901
1324 0.36333302
1322 0.42694646
1320 0.5453248
1318 0.69666266
1316 0.85247803
1314 0.98251826
1312 1.0690966
1310 1.1168998
1308 1.1376486
1306 1.1453471
1304 1.1483085
1302 1.144613
1300 1.131846
1298 1.1113076
1296 1.0864143
1294 1.0623722
1292 1.0445321
1290 1.0375413
1288 1.048432
1286 1.0873728
1284 1.1591742
1282 1.2571146
1280 1.3683555
1278 1.4754215
1276 1.5684257
1274 1.653585
1272 1.7436897
1270 1.8554581
1268 2.0008762
1266 2.1818335
1264 2.3981531
1262 2.6514845
1260 2.9475482
1258 3.2981856
1256 3.7116399
1254 4.1860557
1252 4.7126369
1250 5.274303
1248 5.8543901
1246 6.440825
1244 7.0219345
1242 7.5843549
1240 8.111949
1238 8.5836649
1236 8.9774942
1234 9.2721415
1232 9.4486485
1230 9.4931946
1228 9.4038591
1226 9.1999893
1224 8.9065323
1222 8.5489473
1220 8.1476011
1218 7.7122293
1216 7.2509084
1214 6.7733493
1212 6.2906022
1210 5.8151884
1208 5.3573642
1206 4.9209008
1204 4.5012622
1202 4.0800028
1200 3.6373515
1198 3.1598935
1196 2.6475
1194 2.1246831
1192 1.6209846
1190 1.162787
1188 0.76759529
1186 0.43522513
1184 0.16114984
1182 -0.059008226
1180 -0.22609949
1178 -0.33385864
1176 -0.37795401
1174 -0.36288831
1172 -0.30219474
1170 -0.22437096
1168 -0.15793274
1166 -0.12248585
1164 -0.126414
1162 -0.1576855
1160 -0.19951668
1158 -0.23599717
1156 -0.25723299
1154 -0.26646289
1152 -0.26919258
1150 -0.26857468
1148 -0.26401079
1146 -0.24746071
1144 -0.20862217
1142 -0.13731383
1140 -0.034008153
1138 0.078039005
1136 0.18771514
1134 0.32441002
1132 0.51813775
1130 0.77699125
1128 1.0998812
1126 1.4756751
1124 1.8862836
1122 2.3028233
1120 2.7013199
1118 3.0766149
1116 3.4298184
1114 3.7665472
1112 4.0881705
1110 4.3832998
1108 4.6414986
1106 4.8628302
1104 5.0548363
1102 5.2377162
1100 5.4383793
1098 5.6926641
1096 6.0301857
1094 6.4585276
1092 6.9619303
1090 7.480124
1088 7.9545336
1086 8.3601704
1084 8.693881
1082 8.9871531
1080 9.2654428
1078 9.5165176
1076 9.7179871
1074 9.8465242
1072 9.8895111
1070 9.8641834
1068 9.7991247
1066 9.7330666
1064 9.6976557
1062 9.6970444
1060 9.7167587
1058 9.709054
1056 9.628583
1054 9.4592533
1052 9.2041035
1050 8.8988523
1048 8.5832033
1046 8.284193
1044 8.0174627
1042 7.774497
1040 7.539844
1038 7.2938533
1036 7.0204701
1034 6.7155757
1032 6.3808947
1030 6.0250158
1028 5.6573462
1026 5.2836833
1024 4.9063087
1022 4.51969
1020 4.1211181
1018 3.722363
1016 3.3399827
1014 2.9946911
1012 2.7008376
1010 2.4491994
1008 2.222532
1006 1.9966735
1004 1.7502248
1002 1.4767674
1000 1.1793578
998 0.88063473
996 0.60508287
994 0.36852229
992 0.17796454
990 0.019435234
988 -0.12206199
986 -0.24807335
984 -0.35467944
982 -0.43093833
980 -0.46579361
978 -0.45329794
976 -0.38812
974 -0.26299006
972 -0.076127768
970 0.15423559
968 0.40495247
966 0.65302849
964 0.87905091
962 1.075471
960 1.2329342
958 1.3258365
956 1.32917
954 1.233541
952 1.0413588
950 0.78215629
948 0.49844456
946 0.25466642
944 0.098261431
942 -0.002829954
940 -0.088221863
938 -0.15395211
936 -0.19511515
934 -0.24230778
932 -0.32114786
930 -0.40663642
928 -0.46551824
926 -0.48053741
924 -0.44634917
922 -0.38691676
920 -0.32884288
918 -0.28089577
916 -0.24789186
914 -0.23654984
912 -0.25736219
910 -0.33342868
908 -0.48258734
906 -0.68987846
904 -0.92866683
902 -1.1585633
900 -1.3361403
898 -1.419927
896 -1.3688999
