##TITLE=Methyl Ethyl Ketone
##JCAMP-DX=4.24
##DATA TYPE=INFRARED SPECTRUM
##XUNITS=cm-1
##YUNITS=Absorbance
##FIRSTX=900
##LASTX=2300
##XYDATA=(X++(Y..Y))
2296 -0.01417
2294 -0.014464578
2292 -0.014760154
2290 -0.015054735
2288 -0.015349315
2286 -0.015643893
2284 -0.01593847
2282 -0.01623404
2280 -0.016528629
2278 -0.016823208
2276 -0.017117785
2274 -0.01741335
2272 -0.017707942
2270 -0.018002521
2268 -0.018297099
2266 -0.018591678
2264 -0.018887235
2262 -0.019181836
2260 -0.019476414
2258 -0.019770993
2256 -0.020065572
2254 -0.02036112
2252 -0.020655727
2250 -0.020950306
2248 -0.021244885
2246 -0.021540429
2244 -0.0008004657
2242 0.051075894
2240 0.1069186
2238 0.16804504
2236 0.22997114
2234 0.24377362
2232 0.25315532
2230 0.2412786
2228 0.22751175
2226 0.20689
2224 0.1766904
2222 0.10442473
2220 0.026604582
2218 -0.061167516
2216 -0.13470206
2214 -0.17591463
2212 -0.19206619
2210 -0.17047122
2208 -0.12511361
2206 -0.053045042
2204 0.017011505
2202 0.08346276
2200 0.10301811
2198 0.087685741
2196 0.034613285
2194 -0.038858723
2192 -0.066787936
2190 -0.074128397
2188 -0.039663855
2186 0.0079442859
2184 0.0025350361
2182 -0.015262384
2180 -0.078431271
2178 -0.14798112
2176 -0.192846
2174 -0.23180932
2172 -0.22968408
2170 -0.21742921
2168 -0.16931503
2166 -0.1176
2164 -0.065374047
2162 -0.031022489
2160 -0.042604804
2158 -0.068382144
2156 -0.11226781
2154 -0.13793048
2152 -0.13448754
2150 -0.11690892
2148 -0.086828128
2146 -0.06057464
2144 -0.038853399
2142 -0.011073425
2140 0.02128051
2138 0.048146222
2136 0.071752861
2134 0.056274224
2132 0.024375491
2130 -0.036590699
2128 -0.1063798
2126 -0.15347201
2124 -0.19508862
2122 -0.19251625
2120 -0.18268713
2118 -0.16791818
2116 -0.15574557
2114 -0.1684645
2112 -0.18691915
2110 -0.21504009
2108 -0.24437006
2106 -0.27299401
2104 -0.30706137
2102 -0.35323444
2100 -0.40259761
2098 -0.4542644
2096 -0.48557857
2094 -0.4896898
2092 -0.47627211
2090 -0.44880366
2088 -0.44774652
2086 -0.47036901
2084 -0.51593339
2082 -0.57454592
2080 -0.609828
2078 -0.63182032
2076 -0.62728786
2074 -0.6123535
2072 -0.58162796
2070 -0.54607141
2068 -0.52356738
2066 -0.50523531
2064 -0.54407609
2062 -0.59453088
2060 -0.65275931
2058 -0.70655781
2056 -0.72764027
2054 -0.7451213
2052 -0.77197278
2050 -0.80687684
2048 -0.85670513
2046 -0.89839143
2044 -0.91803157
2042 -0.91847527
2040 -0.89722908
2038 -0.87718928
2036 -0.86465514
2034 -0.87614846
2032 -0.90941459
2030 -0.95408499
2028 -1.0040601
2026 -1.0252614
2024 -1.0269526
2022 -1.012062
2020 -0.98978537
2018 -1.01437
2016 -1.05944
2014 -1.1390945
2012 -1.230456
2010 -1.3036269
2008 -1.3711349
2006 -1.4215508
2004 -1.4653689
2002 -1.4909899
2000 -1.5079383
1998 -1.5039008
1996 -1.4929428
1994 -1.4749712
1992 -1.4558257
1990 -1.4409944
1988 -1.4292639
1986 -1.4250871
1984 -1.4286412
1982 -1.4401946
1980 -1.4557434
1978 -1.4719976
1976 -1.4715343
1974 -1.454438
1972 -1.4176506
1970 -1.3675715
1968 -1.3454988
1966 -1.3428822
1964 -1.3854148
1962 -1.4511386
1960 -1.495948
1958 -1.5306914
1956 -1.5361743
1954 -1.5322771
1952 -1.5405022
1950 -1.5528353
1948 -1.5513915
1946 -1.543
1944 -1.5230337
1942 -1.5013353
1940 -1.4983863
1938 -1.498679
1936 -1.49538
1934 -1.4925947
1932 -1.488892
1930 -1.5023499
1928 -1.539492
1926 -1.5734129
1924 -1.5920004
1922 -1.5617222
1920 -1.4852269
1918 -1.3908169
1916 -1.2946571
1914 -1.2190815
1912 -1.1591343
1910 -1.1113417
1908 -1.0681617
1906 -1.0662557
1904 -1.0873079
1902 -1.1393418
1900 -1.2059375
1898 -1.2128181
1896 -1.1919714
1894 -1.1078273
1892 -1.0043683
1890 -0.94258493
1888 -0.91488767
1886 -0.97176135
1884 -1.0602469
1882 -1.1504605
1880 -1.2208365
1878 -1.240182
1876 -1.23157
1874 -1.1967533
1872 -1.1508435
1870 -1.0970443
1868 -1.0414449
1866 -0.99529213
1864 -0.97123021
1862 -0.9753083
1860 -0.99852985
1858 -1.029326
1856 -1.0581886
1854 -1.0808278
1852 -1.0871634
1850 -1.0801494
1848 -1.0531
1846 -1.0115882
1844 -0.97889972
1842 -0.94876009
1840 -0.93569171
1838 -0.93206573
1836 -0.91818273
1834 -0.90064722
1832 -0.86637485
1830 -0.81862277
1828 -0.75616544
1826 -0.68729788
1824 -0.63516629
1822 -0.60978115
1820 -0.62537396
1818 -0.6617133
1816 -0.69742399
1814 -0.72056288
1812 -0.72183913
1810 -0.71124804
1808 -0.69736397
1806 -0.6814695
1804 -0.66542906
1802 -0.65461874
1800 -0.64506686
1798 -0.62502867
1796 -0.5952
1794 -0.53622919
1792 -0.46244961
1790 -0.3929033
1788 -0.33290362
1786 -0.27851844
1784 -0.22947401
1782 -0.16978911
1780 -0.10674638
1778 -0.044218898
1776 0.016407657
1774 0.071660899
1772 0.1203458
1770 0.13635144
1768 0.13273485
1766 0.10873981
1764 0.080507323
1762 0.074277543
1760 0.029089868
1758 -0.088761374
1756 -0.20192128
1754 -0.2678155
1752 -0.25296256
1750 -0.1544162
1748 -0.030250482
1746 0.090195
1744 0.12162092
1742 0.060278349
1740 -0.015487168
1738 -0.084215291
1736 -0.0300336
1734 0.1238617
1732 0.2568137
1730 0.35896793
1728 0.29612783
1726 0.12135631
1724 -0.015813116
1722 -0.096556425
1720 0.011099257
1718 0.29621431
1716 0.83453834
1714 1.5210627
1712 2.1710439
1710 2.7754242
1708 3.339654
1706 4.0329986
1704 5.0264192
1702 6.5694685
1700 8.7812357
1698 11.823891
1696 15.633286
1694 19.48715
1692 23.059177
1690 26.263159
1688 29.167194
1686 32.620899
1684 36.705193
1682 41.584454
1680 47.079441
1678 51.883587
1676 56.034641
1674 60.04707
1672 64.043411
1670 68.74321
1668 73.949776
1666 78.985352
1664 83.738434
1662 87.816772
1660 91.260132
1658 94.120979
1656 96.438286
1654 98.292664
1652 99.567703
1650 100.1431
1648 99.698021
1646 97.991356
1644 95.594643
1642 93.050179
1640 90.385574
1638 87.650261
1636 84.307899
1634 80.199944
1632 75.832024
1630 71.409073
1628 67.278343
1626 63.487335
1624 59.640919
1622 55.687382
1620 51.710945
1618 47.732098
1616 43.939571
1614 40.364639
1612 37.226784
1610 34.532249
1608 32.242588
1606 30.331743
1604 28.650337
1602 27.219709
1600 26.0396
1598 25.129345
1596 24.4795
1594 24.078444
1592 23.873285
1590 23.825975
1588 23.875463
1586 23.999886
1584 24.177778
1582 24.40642
1580 24.68457
1578 25.072315
1576 25.588572
1574 26.278379
1572 27.139708
1570 28.086761
1568 29.09576
1566 30.125458
1564 31.176908
1562 32.435387
1560 33.991879
1558 36.374653
1556 39.654057
1554 43.281269
1552 47.049358
1550 50.053654
1548 52.290657
1546 54.165501
1544 55.665352
1542 56.883041
1540 57.68618
1538 57.895123
1536 57.477882
1534 56.504673
1532 55.136017
1530 53.625465
1528 52.010406
1526 50.32465
1524 48.507454
1522 46.509251
1520 44.363892
1518 42.054153
1516 39.848202
1514 37.847439
1512 35.907162
1510 34.030872
1508 31.680937
1506 28.711185
1504 25.675423
1502 22.605831
1500 19.965231
1498 17.80019
1496 15.657715
1494 13.54502
1492 11.443405
1490 9.3734446
1488 7.3586149
1486 5.450284
1484 3.718596
1482 2.2427917
1480 1.1193171
1478 0.38010252
1476 0.065421462
1474 0.30017209
1472 1.0497057
1470 2.0318439
1468 3.0740311
1466 3.990205
1464 4.6686578
1462 5.2654281
1460 5.8396797
1458 6.427598
1456 7.0367398
1454 7.5161438
1452 7.7703304
1450 7.8665338
1448 7.7349563
1446 7.553957
1444 7.3086162
1442 7.0539088
1440 6.7858353
1438 6.482378
1436 6.1233783
1434 5.6577783
1432 5.0920157
1430 4.5095396
1428 3.9474261
1426 3.5084887
1424 3.2100639
1422 3.0583594
1420 3.0488381
1418 3.1510742
1416 3.3294742
1414 3.545089
1412 3.7638855
1410 3.9805725
1408 4.1970477
1406 4.4216428
1404 4.6636906
1402 4.9248686
1400 5.2113442
1398 5.5336308
1396 5.8621287
1394 6.186976
1392 6.447
1390 6.5727563
1388 6.5771894
1386 6.3868103
1384 6.0940046
1382 5.6671977
1380 5.2132411
1378 4.7358069
1376 4.2685118
1374 3.8314533
1372 3.434114
1370 3.0832956
1368 2.7775965
1366 2.4724228
1364 2.100812
1362 1.6681975
1360 1.1682507
1358 0.68850058
1356 0.33367929
1354 0.090886392
1352 0.017745178
1350 0.02107922
1348 0.084356636
1346 0.16667143
1344 0.298574
1342 0.45499057
1340 0.65611374
1338 0.85952473
1336 1.0572989
1334 1.2333423
1332 1.3501717
1330 1.4566549
1328 1.5494325
1326 1.6659594
1324 1.8322712
1322 2.0427182
1320 2.316747
1318 2.6173687
1316 2.9402199
1314 3.2426493
1312 3.5052469
1310 3.7067471
1308 3.8413029
1306 3.9140921
1304 3.9425619
1302 3.941797
1300 3.9206948
1298 3.8711762
1296 3.8059001
1294 3.7168479
1292 3.6311901
1290 3.5662484
1288 3.514416
1286 3.4877422
1284 3.4644582
1282 3.442965
1280 3.4238405
1278 3.4097984
1276 3.4058857
1274 3.4262629
1272 3.4640017
1270 3.5348051
1268 3.6227098
1266 3.7354243
1264 3.8653088
1262 4.0134292
1260 4.1691022
1258 4.3294492
1256 4.4814911
1254 4.6266742
1252 4.7702613
1250 4.9132643
1248 5.0588617
1246 5.200325
1244 5.3197155
1242 5.4208775
1240 5.4866352
1238 5.5285559
1236 5.5247402
1234 5.4802895
1232 5.3325601
1230 5.1287909
1228 4.7773623
1226 4.3838243
1224 3.8811235
1222 3.3642492
1220 2.8159657
1218 2.2837329
1216 1.7872885
1214 1.3271842
1212 0.93300122
1210 0.58368266
1208 0.29965901
1206 0.048829556
1204 -0.1651904
1202 -0.37186298
1200 -0.56781971
1198 -0.74522436
1196 -0.89929003
1194 -1.0110495
1192 -1.0928645
1190 -1.14976
1188 -1.1903131
1186 -1.20862
1184 -1.2056303
1182 -1.1447647
1180 -1.0479553
1178 -0.85646975
1176 -0.62346601
1174 -0.27377981
1172 0.092416346
1170 0.4929252
1168 0.85828447
1166 1.111855
1164 1.3174008
1162 1.4051501
1160 1.4697468
1158 1.4860941
1156 1.4755057
1154 1.4165432
1152 1.3155035
1150 1.1573327
1148 0.97474921
1146 0.76771677
1144 0.56468654
1142 0.36890617
1140 0.19620275
1138 0.055628479
1136 0.0085132224
1134 0.041034132
1132 0.17846346
1130 0.37469316
1128 0.66973805
1126 0.99757886
1124 1.3570569
1122 1.7166328
1120 2.046648
1118 2.3594387
1116 2.5944471
1114 2.816401
1112 2.9906023
1110 3.1778359
1108 3.407258
1106 3.654635
1104 3.9435594
1102 4.2191739
1100 4.4651613
1098 4.6777034
1096 4.8373718
1094 4.9798265
1092 5.1031041
1090 5.2383423
1088 5.3869348
1086 5.5498686
1084 5.725564
1082 5.9122343
1080 6.1022668
1078 6.2683277
1076 6.4057441
1074 6.4155316
1072 6.3696227
1070 6.2236452
1068 6.0667858
1066 5.9933619
1064 5.9507718
1062 6.0572648
1060 6.1739025
1058 6.3071175
1056 6.4144626
1054 6.408133
1052 6.3806143
1050 6.2872648
1048 6.2009544
1046 6.1316071
1044 6.062727
1042 5.992878
1040 5.9112277
1038 5.8129153
1036 5.7191401
1034 5.6312876
1032 5.549746
1030 5.4709768
1028 5.3599505
1026 5.2231593
1024 5.0463972
1022 4.8479147
1020 4.6413908
1018 4.4302845
1016 4.2051458
1014 3.9736533
1012 3.7144008
1010 3.4506738
1008 3.1891799
1006 2.9311337
1004 2.7090971
1002 2.4852042
1000 2.245959
998 1.9955574
996 1.6970643
994 1.413398
992 1.1772028
990 0.97447622
988 0.8472594
986 0.71286476
984 0.56664979
982 0.42104805
980 0.2799184
978 0.19316018
976 0.16199172
974 0.12835005
972 0.091302454
970 0.029400114
968 -0.042830803
966 -0.03255095
964 0.016164489
962 0.087574027
960 0.15979281
958 0.10109852
956 0.012620389
954 -0.11247578
952 -0.236522
950 -0.22772074
948 -0.20528874
946 -0.066689998
944 0.0012971312
942 0.040135525
940 0.10927211
938 0.15207951
936 0.17826685
934 0.15604948
932 0.13045621
930 0.098002449
928 0.078609698
926 0.080550432
924 0.102364
922 0.14817524
920 0.17667016
918 0.18789768
916 0.13498406
914 0.036480054
912 -0.079649635
910 -0.20427801
908 -0.31786805
906 -0.42565787
904 -0.48819453
902 -0.53743911
900 -0.47659433
898 -0.39767569
896 -0.28281999
