Image.
>Pix99999.
  .
5555
5555
2300
900
5555
2
1
0
701
5555
1.7723000e-001
1.8091473e-001
1.8459944e-001
1.8828419e-001
1.9197886e-001
1.9566365e-001
1.9934836e-001
2.0303310e-001
2.0672771e-001
2.1041256e-001
2.1409728e-001
2.1779186e-001
2.2146691e-001
2.2513184e-001
2.2884560e-001
2.3262879e-001
2.3621795e-001
2.3952961e-001
2.4358508e-001
2.4868077e-001
2.5100571e-001
2.4945010e-001
2.5817525e-001
2.8139096e-001
2.6639989e-001
1.7165822e-001
6.4079367e-002
2.5117034e-002
7.2338037e-002
1.8681018e-001
2.7620485e-001
2.5403279e-001
1.4114040e-001
-6.4858641e-003
-1.1615084e-001
-1.2916100e-001
-6.1642800e-002
4.5061678e-002
1.3629317e-001
1.6699789e-001
1.4575000e-001
1.0049190e-001
7.2480701e-002
9.9224061e-002
1.8757829e-001
3.2763630e-001
4.7925448e-001
6.0251886e-001
6.9531822e-001
7.7115124e-001
8.5884714e-001
9.8080468e-001
1.1146855e+000
1.2306231e+000
1.3261409e+000
1.4117215e+000
1.5155520e+000
1.6568254e+000
1.7948906e+000
1.8744291e+000
1.8594885e+000
1.7405630e+000
1.5887666e+000
1.4934729e+000
1.5111126e+000
1.6641042e+000
1.8828329e+000
2.0741866e+000
2.1728251e+000
2.1452625e+000
2.0491400e+000
1.9649475e+000
1.9424251e+000
2.0041268e+000
2.1087089e+000
2.2016287e+000
2.2655990e+000
2.2977431e+000
2.3005445e+000
2.2760150e+000
2.2201114e+000
2.1342449e+000
2.0534480e+000
2.0171282e+000
2.0337400e+000
2.0943980e+000
2.1662560e+000
2.2153955e+000
2.2384109e+000
2.2465737e+000
2.2649157e+000
2.3163939e+000
2.3968339e+000
2.4875038e+000
2.5515563e+000
2.5548465e+000
2.4996536e+000
2.4052017e+000
2.3025620e+000
2.2219901e+000
2.1751001e+000
2.1648214e+000
2.1875930e+000
2.2366309e+000
2.3002536e+000
2.3666101e+000
2.4306540e+000
2.4923146e+000
2.5591240e+000
2.6386626e+000
2.7263300e+000
2.8115690e+000
2.8796000e+000
2.9161634e+000
2.9165120e+000
2.8815029e+000
2.8204880e+000
2.7461531e+000
2.6703777e+000
2.6027369e+000
2.5431113e+000
2.4884343e+000
2.4384749e+000
2.3943734e+000
2.3560252e+000
2.3219643e+000
2.2860701e+000
2.2409453e+000
2.1823909e+000
2.1094503e+000
2.0288100e+000
1.9532859e+000
1.9075921e+000
1.9189110e+000
2.0030251e+000
2.1646836e+000
2.3848393e+000
2.6295650e+000
2.8472013e+000
2.9820664e+000
2.9941599e+000
2.8652258e+000
2.6370637e+000
2.3763154e+000
2.1395936e+000
1.9679800e+000
1.8622137e+000
1.8052961e+000
1.7827617e+000
1.7815253e+000
1.7847714e+000
1.7745200e+000
1.7355669e+000
1.6596473e+000
1.5609380e+000
1.4626229e+000
1.3791617e+000
1.3195114e+000
1.2895914e+000
1.2945244e+000
1.3407772e+000
1.4310620e+000
1.5489649e+000
1.6659516e+000
1.7428012e+000
1.7415915e+000
1.6506023e+000
1.4801422e+000
1.2775520e+000
1.1017255e+000
9.8664284e-001
9.4394141e-001
9.4931477e-001
9.6351731e-001
9.5737177e-001
9.1232753e-001
8.2768238e-001
7.1357310e-001
5.8920151e-001
4.7654688e-001
3.9210543e-001
3.4749869e-001
3.4712979e-001
3.9302272e-001
4.9228641e-001
6.4920014e-001
8.4264845e-001
1.0300796e+000
1.1360245e+000
1.0896209e+000
9.1302598e-001
6.8279105e-001
4.8575222e-001
3.8925427e-001
3.7012380e-001
3.6242899e-001
3.3259520e-001
2.7824432e-001
2.3539911e-001
2.4955419e-001
3.2188573e-001
4.2285079e-001
5.0581670e-001
5.2559322e-001
4.7543961e-001
3.7545693e-001
2.6388049e-001
1.8000406e-001
1.3095583e-001
1.0646789e-001
1.0553200e-001
1.3646071e-001
2.1646041e-001
3.5566807e-001
5.1275373e-001
6.1956280e-001
6.2654656e-001
5.1100409e-001
3.0626312e-001
7.6451115e-002
-1.2134497e-001
-2.3935509e-001
-2.3763034e-001
-9.1447525e-002
1.7386033e-001
4.9558499e-001
7.8007853e-001
9.3487996e-001
9.4433618e-001
8.4892654e-001
7.1762741e-001
6.2567312e-001
6.1996388e-001
7.1716976e-001
8.8512945e-001
1.0607667e+000
1.1725205e+000
1.1615064e+000
1.0359151e+000
8.4990984e-001
6.6841227e-001
5.4813808e-001
4.9954200e-001
5.0435722e-001
5.5296785e-001
6.4563549e-001
7.8528953e-001
9.6969563e-001
1.1701823e+000
1.3407199e+000
1.4372857e+000
1.4236178e+000
1.2822961e+000
1.0210725e+000
7.0648366e-001
4.3609592e-001
2.7246508e-001
2.4478534e-001
3.6214951e-001
6.1296225e-001
9.3823427e-001
1.2411509e+000
1.3980097e+000
1.3013839e+000
9.8683608e-001
5.9372258e-001
2.6344639e-001
9.1791198e-002
2.0435384e-002
-8.8299587e-002
-2.3424444e-001
-3.0983120e-001
-2.4070081e-001
-1.3084285e-002
2.9073051e-001
5.3455818e-001
6.3405871e-001
5.7453763e-001
4.4446525e-001
3.7896678e-001
4.0378800e-001
4.4539228e-001
3.9633885e-001
1.6646899e-001
-1.9577038e-001
-5.3322977e-001
-6.8179590e-001
-5.0533009e-001
4.9812555e-002
9.4528198e-001
2.0027943e+000
2.9673996e+000
3.6921246e+000
4.1652217e+000
4.5447841e+000
5.1027794e+000
6.0889769e+000
7.6892509e+000
9.9564285e+000
1.2797235e+001
1.5904857e+001
1.8861971e+001
2.1477098e+001
2.3814804e+001
2.6169607e+001
2.8949816e+001
3.2366325e+001
3.6362156e+001
4.0492962e+001
4.4137573e+001
4.7221943e+001
5.0174030e+001
5.3412743e+001
5.7184517e+001
6.1340778e+001
6.5452850e+001
6.9273643e+001
7.2780602e+001
7.6026360e+001
7.9099739e+001
8.2117599e+001
8.5192505e+001
8.8327538e+001
9.1366859e+001
9.3870964e+001
9.5272858e+001
9.5497154e+001
9.4925133e+001
9.3861526e+001
9.2422348e+001
9.0551659e+001
8.8111099e+001
8.5164261e+001
8.1956398e+001
7.8623993e+001
7.5155449e+001
7.1484123e+001
6.7545158e+001
6.3390453e+001
5.9177391e+001
5.5045830e+001
5.1092987e+001
4.7406029e+001
4.4059811e+001
4.1075882e+001
3.8428692e+001
3.6087933e+001
3.4031258e+001
3.2243256e+001
3.0709982e+001
2.9403000e+001
2.8279491e+001
2.7304594e+001
2.6460352e+001
2.5762014e+001
2.5252378e+001
2.4958559e+001
2.4886089e+001
2.5047709e+001
2.5464878e+001
2.6138544e+001
2.7032381e+001
2.8033651e+001
2.8975361e+001
2.9782160e+001
3.0494864e+001
3.1201700e+001
3.2041260e+001
3.3280514e+001
3.5233803e+001
3.7814342e+001
4.0505772e+001
4.2841446e+001
4.4570648e+001
4.5793053e+001
4.6908394e+001
4.8145416e+001
4.9450165e+001
5.0612080e+001
5.1341309e+001
5.1501087e+001
5.1166523e+001
5.0531460e+001
4.9849079e+001
4.9247200e+001
4.8684849e+001
4.8050030e+001
4.7193336e+001
4.5982723e+001
4.4346966e+001
4.2379299e+001
4.0321369e+001
3.8269558e+001
3.6105301e+001
3.3641403e+001
3.0719179e+001
2.7464041e+001
2.4295788e+001
2.1484444e+001
1.9029890e+001
1.6814001e+001
1.4660537e+001
1.2477854e+001
1.0292009e+001
8.1406059e+000
6.0559082e+000
4.1158900e+000
2.4512835e+000
1.1699780e+000
3.4331438e-001
6.7064658e-002
4.3557021e-001
1.3224239e+000
2.3517361e+000
3.2683649e+000
4.0509286e+000
4.7751651e+000
5.5553746e+000
6.3942060e+000
7.1367426e+000
7.5921597e+000
7.6045952e+000
7.2231855e+000
6.7300062e+000
6.3010006e+000
5.9087143e+000
5.5117540e+000
5.1120210e+000
4.7392569e+000
4.4373531e+000
4.1948013e+000
3.9265437e+000
3.5635784e+000
3.0921934e+000
2.5719621e+000
2.1389022e+000
1.9010960e+000
1.8939492e+000
2.0787377e+000
2.3394072e+000
2.5679772e+000
2.7018151e+000
2.7451603e+000
2.7785134e+000
2.8749468e+000
3.0698373e+000
3.3752997e+000
3.7782476e+000
4.2407880e+000
4.6981230e+000
5.0860000e+000
5.3555236e+000
5.4927907e+000
5.5273895e+000
5.4810328e+000
5.3517852e+000
5.1459208e+000
4.8916550e+000
4.6304879e+000
4.4101548e+000
4.2411399e+000
4.0776114e+000
3.8733699e+000
3.6045036e+000
3.2736342e+000
2.9119871e+000
2.5325179e+000
2.1142831e+000
1.6519486e+000
1.1778474e+000
7.4079645e-001
3.9609295e-001
1.6550481e-001
1.8453129e-002
-7.0175081e-002
-9.7847179e-002
-5.4349396e-002
6.6676930e-002
2.3402211e-001
3.6268744e-001
3.8853085e-001
3.0683336e-001
1.6108607e-001
4.5852639e-002
3.0910961e-002
1.2478397e-001
3.1390834e-001
5.7031387e-001
8.5895038e-001
1.1389232e+000
1.3712800e+000
1.5253743e+000
1.5889423e+000
1.5783073e+000
1.5215880e+000
1.4545950e+000
1.4085548e+000
1.4023069e+000
1.4411283e+000
1.5114775e+000
1.5964999e+000
1.6815723e+000
1.7598689e+000
1.8368987e+000
1.9200240e+000
2.0149286e+000
2.1249897e+000
2.2499592e+000
2.3892703e+000
2.5430031e+000
2.7097101e+000
2.8854620e+000
3.0669587e+000
3.2533846e+000
3.4509287e+000
3.6763248e+000
3.9438143e+000
4.2589016e+000
4.6236982e+000
5.0394120e+000
5.5146770e+000
6.0707140e+000
6.7208023e+000
7.4564619e+000
8.2566366e+000
9.0861750e+000
9.9116430e+000
1.0709064e+001
1.1454788e+001
1.2120373e+001
1.2681871e+001
1.3122810e+001
1.3433881e+001
1.3615040e+001
1.3671648e+001
1.3616650e+001
1.3462521e+001
1.3219746e+001
1.2891966e+001
1.2465700e+001
1.1934029e+001
1.1309180e+001
1.0618292e+001
9.9128933e+000
9.2365360e+000
8.6047840e+000
8.0154161e+000
7.4425468e+000
6.8584027e+000
6.2443995e+000
5.5957141e+000
4.9326267e+000
4.2823915e+000
3.6743209e+000
3.1281941e+000
2.6430120e+000
2.2143383e+000
1.8412943e+000
1.5279223e+000
1.2862055e+000
1.1226600e+000
1.0274180e+000
9.7926444e-001
9.4229209e-001
8.8715112e-001
8.0841345e-001
7.1629524e-001
6.4165699e-001
6.0608667e-001
5.9864324e-001
5.9581482e-001
5.6466681e-001
4.8277345e-001
3.5763448e-001
2.0909941e-001
6.8871140e-002
-3.1480532e-002
-6.8484038e-002
-3.0942231e-002
6.9052048e-002
2.2225600e-001
4.3967628e-001
7.4061763e-001
1.1510123e+000
1.6830447e+000
2.3103499e+000
2.9861813e+000
3.6369448e+000
4.1975760e+000
4.6406603e+000
4.9653139e+000
5.2142334e+000
5.4416871e+000
5.7034135e+000
6.0477834e+000
6.5013800e+000
7.0670633e+000
7.6998372e+000
8.3402977e+000
8.9237957e+000
9.4075003e+000
9.8092022e+000
1.0167540e+001
1.0534676e+001
1.0946932e+001
1.1381815e+001
1.1801028e+001
1.2170522e+001
1.2466806e+001
1.2702610e+001
1.2895599e+001
1.3060690e+001
1.3204211e+001
1.3320689e+001
1.3402143e+001
1.3447822e+001
1.3458840e+001
1.3436716e+001
1.3376411e+001
1.3250163e+001
1.3033257e+001
1.2719872e+001
1.2324974e+001
1.1895690e+001
1.1478874e+001
1.1095500e+001
1.0746634e+001
1.0399893e+001
1.0019041e+001
9.5740347e+000
9.0464191e+000
8.4498739e+000
7.8109398e+000
7.1716213e+000
6.5747910e+000
6.0546942e+000
5.6380091e+000
5.3331261e+000
5.1292882e+000
4.9699283e+000
4.7894425e+000
4.5283651e+000
4.1529636e+000
3.7036774e+000
3.2374439e+000
2.8051894e+000
2.4385974e+000
2.1133029e+000
1.8002543e+000
1.4984993e+000
1.2156929e+000
9.6517789e-001
7.4954152e-001
5.3256404e-001
2.7816957e-001
-1.7998189e-002
-3.3848816e-001
-6.2080586e-001
-8.0142760e-001
-8.5040754e-001
-7.5811082e-001
-5.5443823e-001
-2.7508205e-001
5.7581723e-002
4.2683193e-001
8.2330751e-001
1.2274594e+000
1.5789934e+000
1.8155835e+000
1.9018114e+000
1.8245270e+000
1.6238575e+000
1.3457960e+000
1.0125062e+000
6.5171176e-001
3.3311355e-001
1.1762400e-001
-1.3633743e-003
-3.9962668e-002
1.1304200e-002
1.4704715e-001
2.8525776e-001
3.4258199e-001
3.0099106e-001
1.7683005e-001
5.3421266e-002
2.3043416e-002
1.4844269e-001
4.5212224e-001
8.3231854e-001
1.1540829e+000
1.2749001e+000
1.1018920e+000
7.4275571e-001
3.6550164e-001
1.7941073e-001
3.3454755e-001
7.0825136e-001
1.1207025e+000
1.4358327e+000
1.5286000e+000
