Image.
>Pix99999.
  .
5555
5555
2300
900
5555
2
1
0
701
5555
-6.1992998e-003
-6.3282158e-003
-6.4571314e-003
-6.5861465e-003
-6.7151617e-003
-6.8440782e-003
-6.9729937e-003
-7.1020080e-003
-7.2309249e-003
-7.3599392e-003
-7.4889543e-003
-7.6179695e-003
-7.7468869e-003
-7.8756064e-003
-8.0047138e-003
-8.1342207e-003
-8.2627581e-003
-8.3897132e-003
-8.5205287e-003
-8.6567923e-003
-8.7787220e-003
-8.8805584e-003
-9.0355687e-003
-9.2657469e-003
-9.2979288e-003
-7.8981742e-003
-2.9143397e-004
1.2669706e-002
3.4699999e-003
-5.4060087e-002
-1.5032996e-001
-2.6191404e-001
-3.5091487e-001
-3.8667014e-001
-3.8402519e-001
-3.6933202e-001
-3.6176875e-001
-3.7214059e-001
-3.8642448e-001
-3.8625628e-001
-3.6504227e-001
-3.2147104e-001
-2.6088899e-001
-1.9321698e-001
-1.3889286e-001
-1.1893978e-001
-1.4370774e-001
-2.1334872e-001
-2.9986039e-001
-3.7158379e-001
-4.1710857e-001
-4.3440601e-001
-4.3333533e-001
-4.2437005e-001
-4.0578347e-001
-3.7485036e-001
-3.4094039e-001
-3.1638473e-001
-3.0952495e-001
-3.2395121e-001
-3.4947544e-001
-3.7177724e-001
-3.7777323e-001
-3.5745841e-001
-3.1109896e-001
-2.4466400e-001
-1.7367011e-001
-1.1351480e-001
-6.6516370e-002
-3.0678455e-002
-4.8642596e-003
9.1615152e-003
-6.1356125e-004
-4.4312153e-002
-1.0990067e-001
-1.7758787e-001
-2.2753160e-001
-2.4573289e-001
-2.4119997e-001
-2.2914554e-001
-2.1695744e-001
-2.0769101e-001
-1.9915570e-001
-1.8912536e-001
-1.8256840e-001
-1.8607472e-001
-2.0195737e-001
-2.2965334e-001
-2.6340789e-001
-2.9665777e-001
-3.2722199e-001
-3.5652271e-001
-3.9382079e-001
-4.4780552e-001
-5.1280940e-001
-5.7681096e-001
-6.2438351e-001
-6.4369816e-001
-6.4232701e-001
-6.3298541e-001
-6.1864859e-001
-5.9798235e-001
-5.6867611e-001
-5.3113621e-001
-4.9816725e-001
-4.8349050e-001
-4.8459119e-001
-4.9233460e-001
-4.9754718e-001
-4.9413145e-001
-4.8747000e-001
-4.8338294e-001
-4.7027880e-001
-4.3169725e-001
-3.6126620e-001
-2.6439586e-001
-1.7729953e-001
-1.4301160e-001
-1.8086895e-001
-2.9194969e-001
-4.4457027e-001
-5.9605342e-001
-7.1303022e-001
-7.7241570e-001
-7.7507192e-001
-7.3447001e-001
-6.7526859e-001
-6.2400723e-001
-5.9698576e-001
-6.0194367e-001
-6.3009411e-001
-6.6602004e-001
-6.9581038e-001
-7.0815271e-001
-6.9848001e-001
-6.6643614e-001
-6.1708778e-001
-5.6093919e-001
-5.2185267e-001
-5.2400804e-001
-5.6790400e-001
-6.3923508e-001
-7.0777744e-001
-7.4471992e-001
-7.5550365e-001
-7.5761211e-001
-7.5120783e-001
-7.2665268e-001
-6.7098093e-001
-5.7825726e-001
-4.7686499e-001
-4.0655407e-001
-3.8650873e-001
-4.1816548e-001
-4.7316220e-001
-5.1571697e-001
-5.3595704e-001
-5.3814542e-001
-5.2987909e-001
-5.1601577e-001
-4.8677713e-001
-4.3009409e-001
-3.5499418e-001
-2.8419468e-001
-2.5258645e-001
-2.9115030e-001
-3.9153150e-001
-5.2345157e-001
-6.4852840e-001
-7.3386770e-001
-7.8168982e-001
-8.0997127e-001
-8.2709044e-001
-8.3350813e-001
-8.2240713e-001
-7.8745502e-001
-7.3863846e-001
-6.9228286e-001
-6.5451205e-001
-6.2458301e-001
-5.9794456e-001
-5.7176232e-001
-5.5731362e-001
-5.6823188e-001
-5.9537071e-001
-6.1313707e-001
-5.7997507e-001
-4.6080947e-001
-2.8163674e-001
-1.0092680e-001
2.8161358e-002
6.8505391e-002
2.8011687e-002
-6.3419104e-002
-1.8574359e-001
-3.2359129e-001
-4.4908237e-001
-5.2977854e-001
-5.4687589e-001
-4.9664509e-001
-4.0505999e-001
-3.1240523e-001
-2.5136602e-001
-2.4515110e-001
-3.0075967e-001
-4.1257921e-001
-5.5806720e-001
-7.0836735e-001
-8.4631819e-001
-9.6388167e-001
-1.0595250e+000
-1.1314278e+000
-1.1635183e+000
-1.1372755e+000
-1.0634831e+000
-9.7272664e-001
-9.0232402e-001
-8.8439900e-001
-9.1857636e-001
-9.8563558e-001
-1.0705029e+000
-1.1592277e+000
-1.2218208e+000
-1.2238626e+000
-1.1570520e+000
-1.0387011e+000
-9.2432672e-001
-8.7993699e-001
-9.2015296e-001
-1.0194935e+000
-1.1274986e+000
-1.1862880e+000
-1.1592554e+000
-1.0348717e+000
-8.4748310e-001
-6.6060019e-001
-5.4384178e-001
-5.5112451e-001
-6.6221100e-001
-8.0863011e-001
-9.2138082e-001
-9.5043468e-001
-9.0811038e-001
-8.4238851e-001
-7.7990502e-001
-7.2398901e-001
-6.5763462e-001
-5.5798686e-001
-4.2706046e-001
-2.8478834e-001
-1.5063286e-001
-4.2533897e-002
1.7124288e-002
9.3992995e-003
-5.3827256e-002
-1.3749342e-001
-1.9904737e-001
-1.9624388e-001
-9.9669993e-002
1.0126495e-001
3.7328658e-001
6.4732164e-001
8.2550460e-001
8.1703669e-001
6.3907367e-001
3.8858771e-001
1.6741827e-001
4.9076982e-002
8.4710969e-003
-3.2969654e-002
-7.7539153e-002
-6.7177169e-002
3.6188439e-002
2.3313549e-001
4.5895061e-001
6.1367393e-001
6.4138043e-001
5.4372156e-001
4.0952060e-001
3.6943543e-001
4.7199601e-001
6.7784262e-001
8.6454898e-001
8.8156885e-001
6.9298232e-001
3.7110978e-001
5.0911538e-002
-1.0188901e-001
6.2720060e-002
6.4204901e-001
1.5668783e+000
2.6482348e+000
3.7304356e+000
4.7380600e+000
5.7621899e+000
7.0220723e+000
8.7545223e+000
1.1159524e+001
1.4285226e+001
1.8000338e+001
2.1887714e+001
2.5391651e+001
2.8302242e+001
3.0781950e+001
3.3278042e+001
3.6374203e+001
4.0445747e+001
4.5541630e+001
5.1103199e+001
5.6248375e+001
6.0789787e+001
6.5190262e+001
6.9895424e+001
7.5118317e+001
8.0548820e+001
8.5515747e+001
8.9628906e+001
9.2836830e+001
9.5225624e+001
9.6939774e+001
9.8093262e+001
9.8749687e+001
9.8913742e+001
9.8543236e+001
9.7583183e+001
9.6015999e+001
9.4015694e+001
9.1883949e+001
8.9727364e+001
8.7429886e+001
8.4786171e+001
8.1595741e+001
7.7879990e+001
7.3849602e+001
6.9630531e+001
6.5224922e+001
6.0599560e+001
5.5736439e+001
5.0736805e+001
4.5812424e+001
4.1165543e+001
3.6958549e+001
3.3308578e+001
3.0276251e+001
2.7822142e+001
2.5822058e+001
2.4167395e+001
2.2789618e+001
2.1664143e+001
2.0800957e+001
2.0208500e+001
1.9883776e+001
1.9809870e+001
1.9962381e+001
2.0330763e+001
2.0919477e+001
2.1728113e+001
2.2757050e+001
2.4051382e+001
2.5701086e+001
2.7784773e+001
3.0334095e+001
3.3253510e+001
3.6329910e+001
3.9376080e+001
4.2267776e+001
4.4943916e+001
4.7434753e+001
4.9958908e+001
5.2820641e+001
5.5846413e+001
5.8370670e+001
5.9913300e+001
6.0373081e+001
6.0004833e+001
5.9304962e+001
5.8466900e+001
5.7290081e+001
5.5526840e+001
5.3034016e+001
5.0013058e+001
4.6986732e+001
4.4304092e+001
4.2020775e+001
4.0061691e+001
3.8272049e+001
3.6478245e+001
3.4523365e+001
3.2339401e+001
2.9976276e+001
2.7599886e+001
2.5444386e+001
2.3556841e+001
2.1745836e+001
1.9790251e+001
1.7534578e+001
1.5054337e+001
1.2660101e+001
1.0568933e+001
8.8130236e+000
7.3323283e+000
6.0134497e+000
4.7883453e+000
3.6557624e+000
2.6104825e+000
1.6344465e+000
7.5670660e-001
6.6217542e-002
-3.4853989e-001
-4.1220909e-001
-3.4521729e-002
8.6688042e-001
2.2142520e+000
3.7428260e+000
5.2328143e+000
6.5888038e+000
7.8194275e+000
9.0259647e+000
1.0285281e+001
1.1596900e+001
1.2837800e+001
1.3766861e+001
1.4232692e+001
1.4240280e+001
1.3872326e+001
1.3265214e+001
1.2534077e+001
1.1746830e+001
1.0943034e+001
1.0133711e+001
9.3058939e+000
8.4323158e+000
7.5243783e+000
6.6515422e+000
5.8872700e+000
5.2887807e+000
4.8846912e+000
4.6667342e+000
4.6074452e+000
4.6639361e+000
4.7925229e+000
4.9577971e+000
5.1522284e+000
5.4033899e+000
5.7349219e+000
6.1487551e+000
6.6148582e+000
7.0644798e+000
7.4248676e+000
7.6342940e+000
7.6563854e+000
7.4916711e+000
7.1671705e+000
6.7362695e+000
6.2540374e+000
5.7685800e+000
5.3214178e+000
4.9433298e+000
4.6431513e+000
4.3964682e+000
4.1517229e+000
3.8334455e+000
3.3959260e+000
2.8507690e+000
2.2414298e+000
1.6365014e+000
1.0846262e+000
5.9608519e-001
1.8124139e-001
-1.3616493e-001
-3.2609043e-001
-3.5488680e-001
-1.9653405e-001
1.5690887e-001
6.8188119e-001
1.3145500e+000
2.0023279e+000
2.7207520e+000
3.4265633e+000
4.0356359e+000
4.4518170e+000
4.5856795e+000
4.4148769e+000
4.0241489e+000
3.5181875e+000
2.9924042e+000
2.5258870e+000
2.1706161e+000
1.9492171e+000
1.8430496e+000
1.8067200e+000
1.7694626e+000
1.6778269e+000
1.5204362e+000
1.3112972e+000
1.0900481e+000
8.9536029e-001
7.5333244e-001
6.8464392e-001
7.0515656e-001
8.2844853e-001
1.0653596e+000
1.4219491e+000
1.8951582e+000
2.4687760e+000
3.1055734e+000
3.7542708e+000
4.3489332e+000
4.8333664e+000
5.1786399e+000
5.3851004e+000
5.4955840e+000
5.5657597e+000
5.6547499e+000
5.8100052e+000
6.0544224e+000
6.3971338e+000
6.8317175e+000
7.3493862e+000
7.9442368e+000
8.6177597e+000
9.3831205e+000
1.0253589e+001
1.1234293e+001
1.2315622e+001
1.3454750e+001
1.4593185e+001
1.5652268e+001
1.6558006e+001
1.7252609e+001
1.7690372e+001
1.7846100e+001
1.7698679e+001
1.7225365e+001
1.6418762e+001
1.5303736e+001
1.3934229e+001
1.2411948e+001
1.0861010e+001
9.4227400e+000
8.2227516e+000
7.3416600e+000
6.8170147e+000
6.6180100e+000
6.6804762e+000
6.9040976e+000
7.1766920e+000
7.3807883e+000
7.4125066e+000
7.2027173e+000
6.7249355e+000
6.0270329e+000
5.1876626e+000
4.3108549e+000
3.4868960e+000
2.7616072e+000
2.1585412e+000
1.6752952e+000
1.3053145e+000
1.0455797e+000
8.9201003e-001
8.3616191e-001
8.6551625e-001
9.6113431e-001
1.1020463e+000
1.2660422e+000
1.4291379e+000
1.5645020e+000
1.6473045e+000
1.6599686e+000
1.5952471e+000
1.4651028e+000
1.2881737e+000
1.0868227e+000
8.7945479e-001
6.7320251e-001
4.7547841e-001
2.9949930e-001
1.5302739e-001
2.8776355e-002
-7.5441256e-002
-1.4191251e-001
-1.5251552e-001
-1.0032550e-001
1.1021070e-002
1.5824342e-001
3.0679718e-001
4.0876171e-001
4.3541759e-001
4.1274545e-001
3.8048455e-001
3.7787589e-001
4.2476708e-001
4.9396348e-001
5.5386734e-001
5.9081197e-001
6.0177314e-001
6.0019869e-001
6.0732579e-001
6.5395850e-001
7.7094001e-001
9.8228121e-001
1.3007480e+000
1.7138342e+000
2.1967599e+000
2.7092764e+000
3.2060659e+000
3.6390827e+000
3.9663413e+000
4.1639981e+000
4.2222528e+000
4.1580648e+000
4.0011549e+000
3.7976735e+000
3.5939665e+000
3.4241195e+000
3.3096321e+000
3.2453480e+000
3.2163608e+000
3.1997113e+000
3.1728230e+000
3.1201990e+000
3.0340762e+000
2.9231029e+000
2.8009801e+000
2.6841965e+000
2.5872512e+000
2.5177891e+000
2.4865553e+000
2.5177703e+000
2.6305399e+000
2.8180711e+000
3.0538223e+000
3.2726562e+000
3.4092379e+000
3.4260721e+000
3.3011782e+000
3.0387580e+000
2.6587961e+000
2.2085567e+000
1.7479314e+000
1.3520629e+000
1.0778804e+000
9.1394627e-001
8.2024395e-001
7.2157991e-001
5.5512512e-001
3.2354224e-001
5.1609367e-002
-2.1750100e-001
-4.4521785e-001
-6.2193888e-001
-7.4820322e-001
-8.3430248e-001
-8.9297360e-001
-9.3704581e-001
-9.7537929e-001
-1.0038433e+000
-1.0142244e+000
-9.9597043e-001
-9.4428629e-001
-8.7509596e-001
-8.0399829e-001
-7.2822642e-001
-6.3865674e-001
-5.2023703e-001
-3.6601537e-001
-2.0137218e-001
-5.8020439e-002
3.8310353e-002
7.2007842e-002
5.7407320e-002
1.7913237e-002
-1.7574472e-002
-2.6648913e-002
-1.4453251e-002
1.2915924e-002
7.0279248e-002
1.7637731e-001
3.4502691e-001
5.7649773e-001
8.2648319e-001
1.0433314e+000
1.1899281e+000
1.2474074e+000
1.2518735e+000
1.2461360e+000
1.2482715e+000
1.2686372e+000
1.3120000e+000
1.3823714e+000
1.4855752e+000
1.6154034e+000
1.7197490e+000
1.7437623e+000
1.6688807e+000
1.5126531e+000
1.4003627e+000
1.4622031e+000
1.7432497e+000
2.2672999e+000
