Image.
>Pix99999.
  .
5555
5555
2300
900
5555
2
1
0
701
5555
4.5067000e-001
4.6004659e-001
4.6942317e-001
4.7879976e-001
4.8817635e-001
4.9755290e-001
5.0691962e-001
5.1629615e-001
5.2567273e-001
5.3504932e-001
5.4442585e-001
5.5381233e-001
5.6317919e-001
5.7252622e-001
5.8193159e-001
5.9141648e-001
6.0067809e-001
6.0963237e-001
6.1941749e-001
6.3036168e-001
6.3822746e-001
6.4175773e-001
6.5674698e-001
6.8789810e-001
6.7645335e-001
5.5895537e-001
3.2394832e-001
-4.9374159e-004
-2.8600129e-001
-4.0795082e-001
-3.7048170e-001
-2.2032048e-001
-2.7263131e-002
1.4047252e-001
2.4620345e-001
2.7019048e-001
2.2373296e-001
1.2594374e-001
-8.8732764e-003
-1.6477042e-001
-3.1293142e-001
-4.2402396e-001
-4.8236382e-001
-4.8065862e-001
-4.2891833e-001
-3.3853278e-001
-2.0531029e-001
-2.7154641e-002
1.6995542e-001
3.4983540e-001
4.7033358e-001
4.9992722e-001
4.5713794e-001
3.7546784e-001
2.8509921e-001
2.0864114e-001
1.4349960e-001
8.2399815e-002
3.1913944e-002
1.6010497e-003
-5.7331049e-003
7.2861095e-003
2.5252143e-002
3.3666153e-002
3.8703687e-002
5.1670644e-002
7.6391079e-002
1.1051627e-001
1.3738039e-001
1.3957648e-001
1.1622100e-001
7.2810598e-002
1.7401390e-002
-4.3790683e-002
-1.1502174e-001
-2.0055501e-001
-2.8965610e-001
-3.6539021e-001
-4.0708467e-001
-4.0141612e-001
-3.6996600e-001
-3.4281328e-001
-3.3381954e-001
-3.4574902e-001
-3.6098561e-001
-3.6124858e-001
-3.5498649e-001
-3.5621545e-001
-3.6061040e-001
-3.5864252e-001
-3.4851870e-001
-3.3558729e-001
-3.4195641e-001
-3.8329402e-001
-4.2309895e-001
-4.0925387e-001
-3.0709183e-001
-1.0752439e-001
1.2319441e-001
2.9915830e-001
3.7148714e-001
3.2341522e-001
2.0760705e-001
9.6668914e-002
3.6231309e-002
4.8436999e-002
1.0605627e-001
1.6492054e-001
1.8968251e-001
1.5682450e-001
7.4260756e-002
-3.4769021e-002
-1.3502832e-001
-1.9348714e-001
-2.0434862e-001
-1.7978022e-001
-1.5978280e-001
-1.8569846e-001
-2.5872102e-001
-3.5731712e-001
-4.3682143e-001
-4.5404556e-001
-4.0931451e-001
-3.2612896e-001
-2.4648932e-001
-2.1060714e-001
-2.2203600e-001
-2.6573455e-001
-3.1581399e-001
-3.5015401e-001
-3.7858930e-001
-4.2145592e-001
-4.8386279e-001
-5.5864710e-001
-6.1842680e-001
-6.3313150e-001
-5.9744608e-001
-5.1948160e-001
-4.1547775e-001
-3.0350056e-001
-1.9666800e-001
-1.0670759e-001
-4.9846746e-002
-3.9867818e-002
-7.0967197e-002
-1.2683660e-001
-1.8532783e-001
-2.2798350e-001
-2.6136583e-001
-3.0311275e-001
-3.6790785e-001
-4.6472257e-001
-5.8728832e-001
-7.2170717e-001
-8.5163742e-001
-9.6105164e-001
-1.0381980e+000
-1.0764284e+000
-1.0822257e+000
-1.0674703e+000
-1.0402886e+000
-1.0046327e+000
-9.5585215e-001
-8.8983750e-001
-8.2252705e-001
-7.7800411e-001
-7.7146775e-001
-8.0541587e-001
-8.4983003e-001
-8.6439323e-001
-8.3312100e-001
-7.6015711e-001
-6.7828470e-001
-6.2733287e-001
-6.1898839e-001
-6.4568746e-001
-6.8365914e-001
-7.0788741e-001
-7.1921039e-001
-7.2975343e-001
-7.3955083e-001
-7.4220949e-001
-7.3569924e-001
-7.2364563e-001
-7.2149736e-001
-7.3986727e-001
-7.4182820e-001
-6.7445070e-001
-5.2838266e-001
-3.2876810e-001
-1.3873640e-001
-2.7551457e-002
-1.0290771e-002
-6.9264166e-002
-1.8058242e-001
-3.1569141e-001
-4.2878318e-001
-4.6972638e-001
-4.1120800e-001
-2.5133353e-001
-3.9628573e-002
1.5260322e-001
2.8088206e-001
3.2224861e-001
2.7014023e-001
1.3084078e-001
-6.6924646e-002
-2.8008533e-001
-4.5635724e-001
-5.4857653e-001
-5.5086100e-001
-4.8181564e-001
-3.5949382e-001
-2.0174789e-001
-3.7272371e-002
9.9176213e-002
1.7584737e-001
1.7260119e-001
1.0983783e-001
2.6992245e-002
-5.9455354e-002
-1.4868174e-001
-2.3653664e-001
-3.1555828e-001
-3.8014799e-001
-4.2865643e-001
-4.7003782e-001
-5.1511508e-001
-5.5424529e-001
-5.6785619e-001
-5.5213112e-001
-5.1417530e-001
-4.5899120e-001
-3.8966486e-001
-3.1221566e-001
-2.3819679e-001
-1.9447674e-001
-2.1024233e-001
-2.8189960e-001
-3.8403136e-001
-4.9339285e-001
-5.9196454e-001
-6.6739535e-001
-7.0505196e-001
-6.6522801e-001
-5.0248897e-001
-2.2205892e-001
1.2893692e-001
4.7554326e-001
7.3734385e-001
8.7439144e-001
8.8439453e-001
8.0389321e-001
6.9353724e-001
6.1968869e-001
6.3218164e-001
7.0062548e-001
7.4612468e-001
7.2155178e-001
6.2025768e-001
4.8773742e-001
3.9098296e-001
3.4531832e-001
3.2328546e-001
2.8750092e-001
2.1076892e-001
1.2081093e-001
6.7501701e-002
2.1057142e-002
-8.7770075e-002
-2.2179286e-001
-2.6950306e-001
-1.7110902e-001
6.8634599e-002
3.7479290e-001
6.3465786e-001
7.6799476e-001
7.4364644e-001
6.1780453e-001
4.9847236e-001
4.5179802e-001
4.8797828e-001
5.4313546e-001
5.1631933e-001
3.6784869e-001
1.2755312e-001
-1.0154161e-001
-1.6810161e-001
7.9669937e-002
7.4186409e-001
1.7075642e+000
2.7211666e+000
3.6117916e+000
4.3373890e+000
5.0359998e+000
5.9711018e+000
7.3945756e+000
9.5085125e+000
1.2416597e+001
1.6073660e+001
2.0082571e+001
2.3837801e+001
2.7032169e+001
2.9719425e+001
3.2312458e+001
3.5430073e+001
3.9492306e+001
4.4581627e+001
5.0150478e+001
5.5304729e+001
5.9833187e+001
6.4172356e+001
6.8749184e+001
7.3778137e+001
7.8997879e+001
8.3813248e+001
8.7865387e+001
9.1085716e+001
9.3526459e+001
9.5297073e+001
9.6506287e+001
9.7240044e+001
9.7527740e+001
9.7349037e+001
9.6668755e+001
9.5475388e+001
9.3905380e+001
9.2185097e+001
9.0348129e+001
8.8231651e+001
8.5652390e+001
8.2488503e+001
7.8830681e+001
7.4921867e+001
7.0838226e+001
6.6473282e+001
6.1737362e+001
5.6628311e+001
5.1331799e+001
4.6182365e+001
4.1446259e+001
3.7275703e+001
3.3730438e+001
3.0787361e+001
2.8352972e+001
2.6293356e+001
2.4525156e+001
2.3031172e+001
2.1825480e+001
2.0934959e+001
2.0358000e+001
2.0058744e+001
1.9993879e+001
2.0126040e+001
2.0442152e+001
2.0952122e+001
2.1663513e+001
2.2580740e+001
2.3740608e+001
2.5210785e+001
2.7046885e+001
2.9271330e+001
3.1825783e+001
3.4575222e+001
3.7380440e+001
4.0119137e+001
4.2707378e+001
4.5145248e+001
4.7668301e+001
5.0646740e+001
5.3963158e+001
5.6969212e+001
5.9112686e+001
6.0144196e+001
6.0222614e+001
5.9831928e+001
5.9210766e+001
5.8250591e+001
5.6798779e+001
5.4774193e+001
5.2302628e+001
4.9705269e+001
4.7228523e+001
4.4968414e+001
4.2916397e+001
4.0973652e+001
3.8989700e+001
3.6797085e+001
3.4336479e+001
3.1697872e+001
2.9073143e+001
2.6694363e+001
2.4577400e+001
2.2484615e+001
2.0220606e+001
1.7738272e+001
1.5198183e+001
1.2932390e+001
1.1101851e+001
9.6144562e+000
8.3238287e+000
7.0947776e+000
5.8595161e+000
4.6279287e+000
3.4134228e+000
2.2243657e+000
1.1259302e+000
2.4964494e-001
-2.9140881e-001
-4.2054659e-001
-4.4177860e-002
9.2654300e-001
2.3921440e+000
4.0303917e+000
5.5631084e+000
6.8531189e+000
7.9115167e+000
8.8939285e+000
9.9387827e+000
1.1099363e+001
1.2297200e+001
1.3319205e+001
1.3995154e+001
1.4265123e+001
1.4157320e+001
1.3777786e+001
1.3223660e+001
1.2552860e+001
1.1805360e+001
1.1004672e+001
1.0146003e+001
9.2035847e+000
8.1994400e+000
7.2261930e+000
6.3833323e+000
5.7496963e+000
5.3514209e+000
5.1474628e+000
5.0806026e+000
5.0952144e+000
5.1537514e+000
5.2467980e+000
5.3873539e+000
5.6091537e+000
5.9372029e+000
6.3708849e+000
6.8664570e+000
7.3274341e+000
7.6532922e+000
7.7644849e+000
7.6436501e+000
7.3569560e+000
6.9859533e+000
6.6019135e+000
6.2414732e+000
5.8954301e+000
5.5540919e+000
5.2205758e+000
4.8904362e+000
4.5432553e+000
4.1537056e+000
3.6985738e+000
3.1807082e+000
2.6387682e+000
2.1012669e+000
1.5679935e+000
1.0279768e+000
4.7133246e-001
-6.5435350e-002
-4.7860900e-001
-6.7743325e-001
-6.2058932e-001
-3.1027931e-001
2.0008752e-001
8.4646136e-001
1.5680323e+000
2.3158159e+000
3.0557847e+000
3.7418261e+000
4.3032246e+000
4.6660142e+000
4.7686028e+000
4.6034970e+000
4.2471151e+000
3.7956085e+000
3.3428421e+000
2.9614255e+000
2.6863599e+000
2.5260336e+000
2.4568083e+000
2.4379101e+000
2.4137876e+000
2.3400726e+000
2.2000282e+000
2.0043111e+000
1.7981207e+000
1.6243868e+000
1.5072639e+000
1.4582959e+000
1.4759356e+000
1.5661143e+000
1.7520033e+000
2.0552156e+000
2.4849370e+000
3.0299242e+000
3.6472721e+000
4.2842660e+000
4.8852739e+000
5.4051156e+000
5.8213162e+000
6.1327586e+000
6.3675060e+000
6.5613708e+000
6.7496624e+000
6.9530377e+000
7.1663766e+000
7.3886862e+000
7.6399360e+000
7.9595637e+000
8.4106588e+000
9.0354023e+000
9.8236408e+000
1.0737420e+001
1.1712317e+001
1.2692886e+001
1.3653500e+001
1.4580714e+001
1.5468060e+001
1.6304623e+001
1.7066336e+001
1.7704700e+001
1.8131458e+001
1.8245840e+001
1.7952360e+001
1.7216084e+001
1.6114328e+001
1.4767755e+001
1.3327644e+001
1.1939309e+001
1.0713328e+001
9.7294292e+000
9.0135975e+000
8.5660362e+000
8.3560305e+000
8.3403320e+000
8.4622602e+000
8.6482782e+000
8.7974215e+000
8.8149319e+000
8.6360979e+000
8.2294359e+000
7.6199622e+000
6.8568616e+000
6.0118232e+000
5.1592641e+000
4.3665805e+000
3.6880720e+000
3.1523728e+000
2.7689607e+000
2.5190299e+000
2.3722401e+000
2.2883041e+000
2.2313809e+000
2.1819360e+000
2.1344252e+000
2.1054807e+000
2.1160436e+000
2.1828690e+000
2.2982194e+000
2.4026823e+000
2.4290528e+000
2.3250167e+000
2.0737052e+000
1.7316808e+000
1.3639060e+000
1.0139840e+000
7.0754492e-001
4.4162288e-001
2.1503326e-001
4.7083020e-002
-3.4775488e-002
7.5463206e-004
1.5256797e-001
3.4221816e-001
4.9013710e-001
5.6164348e-001
5.6201595e-001
5.6402725e-001
6.2718844e-001
7.3818582e-001
8.5523486e-001
9.1238618e-001
8.6519283e-001
7.3769301e-001
5.7879484e-001
4.5631200e-001
4.2258638e-001
4.7927704e-001
6.1401522e-001
8.1023294e-001
1.0566857e+000
1.3572030e+000
1.7075740e+000
2.0746086e+000
2.4313977e+000
2.7847843e+000
3.1456649e+000
3.5142908e+000
3.8783474e+000
4.2010942e+000
4.4589629e+000
4.6773276e+000
4.8789639e+000
5.0484657e+000
5.1522055e+000
5.1363273e+000
4.9667201e+000
4.6767764e+000
4.3199081e+000
3.9593458e+000
3.6549487e+000
3.4504962e+000
3.3725643e+000
3.4098811e+000
3.5290720e+000
3.6617072e+000
3.7444077e+000
3.7535784e+000
3.6925039e+000
3.6139677e+000
3.5795400e+000
3.6394629e+000
3.8093736e+000
4.0125690e+000
4.1536088e+000
4.1522212e+000
3.9716737e+000
3.6925581e+000
3.3985932e+000
3.0959470e+000
2.7563457e+000
2.3087444e+000
1.7251017e+000
1.1389475e+000
7.0155036e-001
4.9241272e-001
5.1180077e-001
5.7137424e-001
4.9512750e-001
2.9201919e-001
3.6763579e-002
-1.3475829e-001
-1.2417897e-001
-3.9061904e-004
1.3291073e-001
1.9458985e-001
1.4516872e-001
6.1530396e-002
3.0031737e-002
7.2814107e-002
1.7132457e-001
2.2579652e-001
1.3909957e-001
-1.0913637e-001
-4.9581835e-001
-9.1561353e-001
-1.2503134e+000
-1.4079283e+000
-1.3290411e+000
-1.0437851e+000
-6.1529589e-001
-1.4497817e-001
2.6062080e-001
5.1107478e-001
5.5175436e-001
4.3975711e-001
2.4573566e-001
-9.1129243e-003
-2.8155389e-001
-4.0647650e-001
-2.4601260e-001
1.2849385e-001
5.8632010e-001
9.7069669e-001
1.1614799e+000
1.1985236e+000
1.1730419e+000
1.2182205e+000
1.4304949e+000
1.7266794e+000
1.9838943e+000
2.0996146e+000
2.0056572e+000
1.7477000e+000
1.4084823e+000
1.1047345e+000
9.7172409e-001
1.1823719e+000
1.8524024e+000
2.8320351e+000
3.9052000e+000
