Image.
>Pix99999.
  .
5555
5555
2300
900
5555
2
1
0
701
5555
2.8809000e-002
2.9408144e-002
3.0007286e-002
3.0606428e-002
3.1205570e-002
3.1805709e-002
3.2404855e-002
3.3003997e-002
3.3603143e-002
3.4202285e-002
3.4801427e-002
3.5404507e-002
3.6000766e-002
3.6589064e-002
3.7198782e-002
3.7838265e-002
3.8399201e-002
3.8848143e-002
3.9592635e-002
4.0750243e-002
4.0811144e-002
3.9331779e-002
4.1927297e-002
5.0269496e-002
4.3464553e-002
9.8734964e-003
3.2086598e-004
6.2900506e-002
1.6420417e-001
2.5172529e-001
2.8928941e-001
2.5378564e-001
1.5527679e-001
1.6076276e-002
-1.3031638e-001
-2.5176349e-001
-3.3415896e-001
-3.7448087e-001
-3.9291760e-001
-4.0845865e-001
-4.0773600e-001
-3.6840126e-001
-2.7121741e-001
-1.1301818e-001
4.8625942e-002
1.4781450e-001
1.5971322e-001
8.7400988e-002
-4.9625547e-003
-5.0248209e-002
-4.5156714e-002
-1.3099658e-002
-3.8449955e-003
-5.9686095e-002
-1.6022216e-001
-2.6514664e-001
-3.3482918e-001
-3.4186018e-001
-3.0623227e-001
-2.6147234e-001
-2.3389687e-001
-2.4082595e-001
-2.7383697e-001
-3.1722748e-001
-3.5996965e-001
-3.9546579e-001
-4.2802703e-001
-4.6604872e-001
-5.1967800e-001
-5.9646118e-001
-6.9133598e-001
-7.9321241e-001
-8.8410264e-001
-9.4607866e-001
-9.7087479e-001
-9.5673180e-001
-9.1459328e-001
-8.6202270e-001
-8.2585639e-001
-8.3112657e-001
-8.8251770e-001
-9.7110593e-001
-1.0623224e+000
-1.1178647e+000
-1.1211721e+000
-1.0710729e+000
-9.9627405e-001
-9.3243945e-001
-8.9942813e-001
-9.0578419e-001
-9.3868983e-001
-9.7868681e-001
-1.0108349e+000
-1.0247854e+000
-1.0211058e+000
-1.0048293e+000
-9.8183811e-001
-9.5703429e-001
-9.3038440e-001
-9.0095592e-001
-8.7199283e-001
-8.4835112e-001
-8.3462065e-001
-8.3313853e-001
-8.3761740e-001
-8.3930802e-001
-8.3333480e-001
-8.1842309e-001
-8.0152750e-001
-7.9301536e-001
-8.0420202e-001
-8.4274715e-001
-8.9990437e-001
-9.5870578e-001
-9.9557132e-001
-9.9130601e-001
-9.5544791e-001
-9.1013873e-001
-8.8060826e-001
-8.8692188e-001
-9.2436743e-001
-9.7687167e-001
-1.0242864e+000
-1.0491979e+000
-1.0508251e+000
-1.0375036e+000
-1.0253520e+000
-1.0285389e+000
-1.0415485e+000
-1.0502362e+000
-1.0409328e+000
-1.0058312e+000
-9.5913428e-001
-9.2250621e-001
-9.0917712e-001
-9.2401570e-001
-9.5463526e-001
-9.8412085e-001
-1.0080913e+000
-1.0280676e+000
-1.0449400e+000
-1.0571439e+000
-1.0554142e+000
-1.0318017e+000
-9.9871629e-001
-9.7610998e-001
-9.7532648e-001
-1.0008459e+000
-1.0473806e+000
-1.1045414e+000
-1.1596857e+000
-1.2000833e+000
-1.2155154e+000
-1.2004868e+000
-1.1624720e+000
-1.1133928e+000
-1.0565594e+000
-9.9016964e-001
-9.0984160e-001
-8.1348741e-001
-7.1257657e-001
-6.2564856e-001
-5.7309794e-001
-5.7093459e-001
-6.1452776e-001
-6.8636978e-001
-7.5762808e-001
-8.0031598e-001
-8.1120521e-001
-8.0154377e-001
-7.8986388e-001
-7.9339445e-001
-8.1196409e-001
-8.3645999e-001
-8.5851753e-001
-8.7228251e-001
-8.7805694e-001
-8.7942106e-001
-8.8072079e-001
-8.8601744e-001
-8.9757258e-001
-9.1555905e-001
-9.3532157e-001
-9.4974905e-001
-9.5193166e-001
-9.3556029e-001
-8.9569038e-001
-8.3042037e-001
-7.4808818e-001
-6.6251767e-001
-5.8748287e-001
-5.3353983e-001
-4.9934739e-001
-4.7788000e-001
-4.6561816e-001
-4.6215856e-001
-4.6984321e-001
-4.9116296e-001
-5.2352190e-001
-5.6023771e-001
-5.8969140e-001
-5.9985048e-001
-5.8801180e-001
-5.5791581e-001
-5.1727724e-001
-4.7350550e-001
-4.2482558e-001
-3.6540917e-001
-2.9572773e-001
-2.2226429e-001
-1.5959099e-001
-1.2448423e-001
-1.2426457e-001
-1.5735006e-001
-2.0933166e-001
-2.5943613e-001
-2.8993210e-001
-2.8876758e-001
-2.5799912e-001
-2.0887417e-001
-1.5677942e-001
-1.1743692e-001
-1.0062204e-001
-1.1127783e-001
-1.4981520e-001
-2.1254785e-001
-2.8820863e-001
-3.6031970e-001
-4.0884462e-001
-4.1513532e-001
-3.7454388e-001
-2.9399732e-001
-1.9195989e-001
-9.2270114e-002
-1.4394321e-002
2.9222697e-002
4.2010065e-002
3.7264451e-002
2.8481621e-002
2.5439069e-002
2.5580628e-002
1.9128069e-002
-4.7735311e-004
-3.4917329e-002
-7.7530004e-002
-1.2011805e-001
-1.7091084e-001
-2.4675320e-001
-3.5111538e-001
-4.7162181e-001
-5.7088429e-001
-6.0206652e-001
-5.4654080e-001
-4.1383621e-001
-2.4560255e-001
-9.7683385e-002
-2.1030102e-003
3.2758031e-002
2.0369444e-002
-1.3959091e-002
-4.9337856e-002
-7.1039617e-002
-7.0908047e-002
-4.7924053e-002
-1.5349732e-002
8.4950142e-003
2.6205137e-002
4.5162335e-002
2.0196481e-002
-1.1430120e-001
-3.3397770e-001
-5.5484557e-001
-7.4347162e-001
-9.1081679e-001
-1.0582676e+000
-1.1760072e+000
-1.2643458e+000
-1.3317802e+000
-1.3813611e+000
-1.4071012e+000
-1.3865399e+000
-1.2926420e+000
-1.1321034e+000
-9.3897247e-001
-7.4800557e-001
-5.8335704e-001
-4.3524119e-001
-2.6500919e-001
-1.8251717e-002
3.6239350e-001
9.0881038e-001
1.6142404e+000
2.3898275e+000
3.1105831e+000
3.7693541e+000
4.4759436e+000
5.4110775e+000
6.8084593e+000
8.9606018e+000
1.2097130e+001
1.5953285e+001
1.9894060e+001
2.3440088e+001
2.6391943e+001
2.8984388e+001
3.1745821e+001
3.5073296e+001
3.9090302e+001
4.3378639e+001
4.7217026e+001
5.0447456e+001
5.3457813e+001
5.6678909e+001
6.0406086e+001
6.4529099e+001
6.8636902e+001
7.2477455e+001
7.6003723e+001
7.9233536e+001
8.2208183e+001
8.4973480e+001
8.7566025e+001
8.9987144e+001
9.2177773e+001
9.3940941e+001
9.5009789e+001
9.5330933e+001
9.5044922e+001
9.4233810e+001
9.2887817e+001
9.0977013e+001
8.8494774e+001
8.5552773e+001
8.2340233e+001
7.8906624e+001
7.5161392e+001
7.1048042e+001
6.6595421e+001
6.1957291e+001
5.7379349e+001
5.3049713e+001
4.9074810e+001
4.5513645e+001
4.2383270e+001
3.9656685e+001
3.7275578e+001
3.5200462e+001
3.3414936e+001
3.1895006e+001
3.0604303e+001
2.9494499e+001
2.8514326e+001
2.7643827e+001
2.6897905e+001
2.6305397e+001
2.5895721e+001
2.5664778e+001
2.5578711e+001
2.5625652e+001
2.5827272e+001
2.6226143e+001
2.6866806e+001
2.7727646e+001
2.8717354e+001
2.9745920e+001
3.0748085e+001
3.1702652e+001
3.2658154e+001
3.3811863e+001
3.5453419e+001
3.7631557e+001
4.0097511e+001
4.2493347e+001
4.4461121e+001
4.5914429e+001
4.7051929e+001
4.8037071e+001
4.8921677e+001
4.9700981e+001
5.0323082e+001
5.0675686e+001
5.0617996e+001
5.0148895e+001
4.9419750e+001
4.8537983e+001
4.7514851e+001
4.6308952e+001
4.4855995e+001
4.3166943e+001
4.1347408e+001
3.9528156e+001
3.7817471e+001
3.6164722e+001
3.4348999e+001
3.2193165e+001
2.9648685e+001
2.6861275e+001
2.4146959e+001
2.1684654e+001
1.9440500e+001
1.7319714e+001
1.5220884e+001
1.3098100e+001
1.0977097e+001
8.8960276e+000
6.8950071e+000
5.0498099e+000
3.4658720e+000
2.1855521e+000
1.1791449e+000
4.8353586e-001
2.1541952e-001
3.8132766e-001
8.3003938e-001
1.4043674e+000
1.9933944e+000
2.5508926e+000
3.1000297e+000
3.6686368e+000
4.2651358e+000
4.8626399e+000
5.3955698e+000
5.8024821e+000
6.0445695e+000
6.1197953e+000
6.0664253e+000
5.9191890e+000
5.6941562e+000
5.3917184e+000
4.9965143e+000
4.4883013e+000
3.8537507e+000
3.1275103e+000
2.4044988e+000
1.7727060e+000
1.2865508e+000
9.6060938e-001
7.6671326e-001
6.8096983e-001
6.9987798e-001
8.2911944e-001
1.0781262e+000
1.4406480e+000
1.8874087e+000
2.3868127e+000
2.9115722e+000
3.4366522e+000
3.9399724e+000
4.4054880e+000
4.8257709e+000
5.1978712e+000
5.5214329e+000
5.7888246e+000
5.9815297e+000
6.0829434e+000
6.0834703e+000
5.9810491e+000
5.7821250e+000
5.4943471e+000
5.1259985e+000
4.6938257e+000
4.2282724e+000
3.7694421e+000
3.3617544e+000
3.0181990e+000
2.7018051e+000
2.3647785e+000
1.9665483e+000
1.5088663e+000
1.0537277e+000
6.6050786e-001
3.5997367e-001
1.5830076e-001
3.4264740e-002
-3.0841783e-002
-4.2474106e-002
-6.2154010e-003
6.7310542e-002
1.6585009e-001
2.7603897e-001
3.8249943e-001
4.6812543e-001
5.2233028e-001
5.4730910e-001
5.5690348e-001
5.7849675e-001
6.3669145e-001
7.4519211e-001
9.0778375e-001
1.1152424e+000
1.3526499e+000
1.6006590e+000
1.8389360e+000
2.0487199e+000
2.2182765e+000
2.3477521e+000
2.4434440e+000
2.5171180e+000
2.5786004e+000
2.6315830e+000
2.6767144e+000
2.7117326e+000
2.7379885e+000
2.7642620e+000
2.8031080e+000
2.8694906e+000
2.9723020e+000
3.1075253e+000
3.2645104e+000
3.4270115e+000
3.5856943e+000
3.7465951e+000
3.9230726e+000
4.1346574e+000
4.3926306e+000
4.6908116e+000
5.0196166e+000
5.3723764e+000
5.7526202e+000
6.1810970e+000
6.6800141e+000
7.2654529e+000
7.9428020e+000
8.6992006e+000
9.5090332e+000
1.0331249e+001
1.1125422e+001
1.1857339e+001
1.2501549e+001
1.3047814e+001
1.3490914e+001
1.3825599e+001
1.4047680e+001
1.4149193e+001
1.4121222e+001
1.3953236e+001
1.3643943e+001
1.3209147e+001
1.2671217e+001
1.2054280e+001
1.1382543e+001
1.0678366e+001
9.9688053e+000
9.2910042e+000
8.6710443e+000
8.1015301e+000
7.5576921e+000
6.9961729e+000
6.3844838e+000
5.7238393e+000
5.0307784e+000
4.3372769e+000
3.6745458e+000
3.0625861e+000
2.5127971e+000
2.0236320e+000
1.5940961e+000
1.2313708e+000
9.4781166e-001
7.6071501e-001
6.7388803e-001
6.5899897e-001
6.7752737e-001
6.8721920e-001
6.6081929e-001
6.0659033e-001
5.4324126e-001
4.9335408e-001
4.7420907e-001
4.8863560e-001
5.3276455e-001
5.9450829e-001
6.5402102e-001
6.7901039e-001
6.4180440e-001
5.3413928e-001
3.6892474e-001
1.9653103e-001
6.7327559e-002
1.0479705e-002
4.7634207e-002
1.9281380e-001
4.4323286e-001
7.6125634e-001
1.1083103e+000
1.4642050e+000
1.8187120e+000
2.1739817e+000
2.5265720e+000
2.8528101e+000
3.1313071e+000
3.3594480e+000
3.5473080e+000
3.7255542e+000
3.9251981e+000
4.1655402e+000
4.4543362e+000
4.7780023e+000
5.1185546e+000
5.4615564e+000
5.8020430e+000
6.1569538e+000
6.5438299e+000
6.9670682e+000
7.4157429e+000
7.8476911e+000
8.2231617e+000
8.5298882e+000
8.7734175e+000
8.9877329e+000
9.2007551e+000
9.4057999e+000
9.5869293e+000
9.7267208e+000
9.8149033e+000
9.8628387e+000
9.8848076e+000
9.8892412e+000
9.8813744e+000
9.8601913e+000
9.8170023e+000
9.7261209e+000
9.5652504e+000
9.3338423e+000
9.0424137e+000
8.7162714e+000
8.3743258e+000
8.0086946e+000
7.6158404e+000
7.2242193e+000
6.8649797e+000
6.5540123e+000
6.2860050e+000
6.0056634e+000
5.6636968e+000
5.2639236e+000
4.8284726e+000
4.3939257e+000
3.9877076e+000
3.6001978e+000
3.2144198e+000
2.8198800e+000
2.4152308e+000
2.0221426e+000
1.6688280e+000
1.3852108e+000
1.1862675e+000
1.0393846e+000
9.0513080e-001
7.5844812e-001
5.8644927e-001
4.0265641e-001
2.2137792e-001
3.9022565e-002
-1.4664263e-001
-3.1922889e-001
-4.5577812e-001
-5.2740383e-001
-5.1512682e-001
-4.3714985e-001
-3.2036543e-001
-1.8978325e-001
-6.2592715e-002
6.8390980e-002
2.1386983e-001
3.7585300e-001
5.4945511e-001
7.1354485e-001
8.4484100e-001
9.2634302e-001
9.4345611e-001
8.8482809e-001
7.4725324e-001
5.5341417e-001
3.3700669e-001
1.4780906e-001
3.1119177e-002
1.8929318e-003
6.1622515e-002
1.9034040e-001
3.5987574e-001
5.3181911e-001
6.6985971e-001
7.5486481e-001
7.7493399e-001
7.2930920e-001
6.2673938e-001
5.0124466e-001
3.9573291e-001
3.6264917e-001
4.3661401e-001
5.7535100e-001
7.1769822e-001
8.0398279e-001
7.9793066e-001
7.5271875e-001
7.2745925e-001
7.1683240e-001
7.0339870e-001
6.8546116e-001
6.6529000e-001
