##TITLE=Methyl Ethyl Ketone
##JCAMP-DX=4.24
##DATA TYPE=INFRARED SPECTRUM
##XUNITS=cm-1
##YUNITS=Absorbance
##FIRSTX=900
##LASTX=2300
##XYDATA=(X++(Y..Y))
2296 -0.014051
2294 -0.014342583
2292 -0.014635162
2290 -0.014927745
2288 -0.015219331
2286 -0.015511908
2284 -0.01580449
2282 -0.016097071
2280 -0.016388662
2278 -0.016681233
2276 -0.016973814
2274 -0.017266396
2272 -0.017557995
2270 -0.017849578
2268 -0.018143119
2266 -0.018439636
2264 -0.018727418
2262 -0.019003296
2260 -0.019311054
2258 -0.01966631
2256 -0.019898457
2254 -0.019958349
2252 -0.020473342
2250 -0.02163123
2248 -0.021096366
2246 -0.015555465
2244 -0.00057018001
2242 0.023851121
2240 0.03852544
2238 0.021988418
2236 -0.0346223
2234 -0.12953775
2232 -0.23276988
2230 -0.31112775
2228 -0.35099089
2226 -0.34972399
2224 -0.32569394
2222 -0.29873243
2220 -0.27003506
2218 -0.2360149
2216 -0.19616885
2214 -0.15309674
2212 -0.1178292
2210 -0.10059991
2208 -0.09825483
2206 -0.10420498
2204 -0.11460751
2202 -0.12833269
2200 -0.15174538
2198 -0.19156721
2196 -0.2468207
2194 -0.31323743
2192 -0.38315293
2190 -0.44715458
2188 -0.49286181
2186 -0.50904179
2184 -0.49315599
2182 -0.449637
2180 -0.39991528
2178 -0.36722633
2176 -0.35990971
2174 -0.37819269
2172 -0.40942827
2170 -0.44081849
2168 -0.47584885
2166 -0.52230626
2164 -0.58331901
2162 -0.65647078
2160 -0.72379255
2158 -0.76557899
2156 -0.77628899
2154 -0.75835973
2152 -0.72651869
2150 -0.69817334
2148 -0.68485153
2146 -0.69591469
2144 -0.74051732
2142 -0.823111
2140 -0.92861795
2138 -1.0324249
2136 -1.0985714
2134 -1.0984373
2132 -1.0484132
2130 -0.98279136
2128 -0.9418928
2126 -0.95700973
2124 -1.0151379
2122 -1.0863017
2120 -1.1377903
2118 -1.1430272
2116 -1.1040343
2114 -1.0371389
2112 -0.97423542
2110 -0.94732636
2108 -0.96541762
2106 -1.0228866
2104 -1.0904194
2102 -1.135377
2100 -1.14884
2098 -1.1352468
2096 -1.1157429
2094 -1.112301
2092 -1.1239038
2090 -1.1396309
2088 -1.1445543
2086 -1.127915
2084 -1.1013947
2082 -1.084154
2080 -1.0883119
2078 -1.1188811
2076 -1.1647571
2074 -1.2092386
2072 -1.240392
2070 -1.2501991
2068 -1.2398986
2066 -1.2158043
2064 -1.1911435
2062 -1.1803539
2060 -1.191721
2058 -1.2275831
2056 -1.2765743
2054 -1.3226869
2052 -1.3548586
2050 -1.3669239
2048 -1.3625576
2046 -1.3487321
2044 -1.329108
2042 -1.3050176
2040 -1.2753321
2038 -1.2387844
2036 -1.1981701
2034 -1.1588799
2032 -1.1307464
2030 -1.123875
2028 -1.1415929
2026 -1.1818986
2024 -1.2332028
2022 -1.280658
2020 -1.314428
2018 -1.3288348
2016 -1.32722
2014 -1.3166373
2012 -1.3040763
2010 -1.294816
2008 -1.2880961
2006 -1.2810122
2004 -1.2734852
2002 -1.2663699
2000 -1.2584337
1998 -1.2476479
1996 -1.2329428
1994 -1.2146986
1992 -1.1970565
1990 -1.1843135
1988 -1.173376
1986 -1.1594772
1984 -1.1452423
1982 -1.1363597
1980 -1.1371777
1978 -1.1484108
1976 -1.1605257
1974 -1.160351
1972 -1.1405932
1970 -1.0981538
1968 -1.0347784
1966 -0.95517319
1964 -0.86773199
1962 -0.78329915
1960 -0.71541804
1958 -0.6759454
1956 -0.66431075
1954 -0.67184895
1952 -0.68264019
1950 -0.68041176
1948 -0.66131425
1946 -0.62873751
1944 -0.58861703
1942 -0.5469169
1940 -0.50622314
1938 -0.46772668
1936 -0.43466714
1934 -0.41009805
1932 -0.39100042
1930 -0.3711102
1928 -0.34446344
1926 -0.307834
1924 -0.26800653
1922 -0.23621975
1920 -0.21974017
1918 -0.22038169
1916 -0.22742
1914 -0.22500899
1912 -0.20383458
1910 -0.16130593
1908 -0.10614319
1906 -0.053241521
1904 -0.01877204
1902 -0.015048564
1900 -0.036634106
1898 -0.067791618
1896 -0.091392145
1894 -0.093919441
1892 -0.077236086
1890 -0.051221918
1888 -0.022538617
1886 0.0044252505
1884 0.023611253
1882 0.028197855
1880 0.01333783
1878 -0.023091741
1876 -0.076776199
1874 -0.13839388
1872 -0.19264965
1870 -0.22253913
1868 -0.21757537
1866 -0.17601794
1864 -0.11640212
1862 -0.066029683
1860 -0.039179578
1858 -0.038087968
1856 -0.051613599
1854 -0.063240968
1852 -0.064618088
1850 -0.054926667
1848 -0.04136144
1846 -0.033396356
1844 -0.031307038
1842 -0.028784489
1840 -0.017652508
1838 0.0081350803
1836 0.042812698
1834 0.073982105
1832 0.093089186
1830 0.09646599
1828 0.087754786
1826 0.073605634
1824 0.054810271
1822 0.028647438
1820 -0.0043037999
1818 -0.039605141
1816 -0.06721954
1814 -0.07526394
1812 -0.05864381
1810 -0.018378824
1808 0.038797263
1806 0.10060685
1804 0.14423305
1802 0.14458556
1800 0.096307285
1798 0.014355492
1796 -0.057820357
1794 -0.067429505
1792 0.00099707767
1790 0.12945747
1788 0.27293685
1786 0.37814599
1784 0.42290428
1782 0.41158456
1780 0.36313993
1778 0.3024419
1776 0.24863686
1774 0.21361274
1772 0.19853792
1770 0.19541757
1768 0.18601224
1766 0.15245029
1764 0.10781358
1762 0.076071531
1760 0.025631137
1758 -0.10121112
1756 -0.28415343
1754 -0.45017931
1752 -0.57049656
1750 -0.6585741
1748 -0.7349894
1746 -0.81897038
1744 -0.92521703
1742 -1.0590135
1740 -1.1971828
1738 -1.2965897
1736 -1.31688
1734 -1.2324251
1732 -1.0631391
1730 -0.8611818
1728 -0.6723243
1726 -0.52320892
1724 -0.39638466
1722 -0.23673099
1720 0.035786062
1718 0.49910241
1716 1.1535965
1714 1.933539
1712 2.7559149
1710 3.5543468
1708 4.3597322
1706 5.2868805
1704 6.4821482
1702 8.117547
1700 10.423135
1698 13.590809
1696 17.421429
1694 21.413189
1692 25.144251
1690 28.390368
1688 31.324257
1686 34.407803
1684 38.03278
1682 42.370308
1680 47.045521
1678 51.355457
1676 55.103958
1674 58.610775
1672 62.304531
1670 66.532333
1668 71.195587
1666 75.841202
1664 80.125816
1662 83.891113
1660 87.115868
1658 89.878082
1656 92.305458
1654 94.530487
1652 96.57238
1650 98.307098
1648 99.414894
1646 99.510002
1644 98.618652
1642 97.119278
1640 95.207817
1638 92.832397
1636 89.869926
1634 86.225861
1632 82.060928
1630 77.729172
1628 73.393143
1626 68.998123
1624 64.48484
1622 59.857567
1620 55.246346
1618 50.87178
1616 46.866943
1614 43.257515
1612 40.04137
1610 37.205929
1608 34.719028
1606 32.536892
1604 30.637932
1602 29.0257
1600 27.706646
1598 26.678232
1596 25.908501
1594 25.339193
1592 24.913549
1590 24.584747
1588 24.336672
1586 24.183714
1584 24.137915
1582 24.20866
1580 24.427481
1578 24.850492
1576 25.539457
1574 26.53816
1572 27.806826
1570 29.222923
1568 30.661079
1566 32.020229
1564 33.249008
1562 34.383041
1560 35.666943
1558 37.48954
1556 39.942413
1554 42.734962
1552 45.402531
1550 47.452362
1548 48.767525
1546 49.630356
1544 50.254299
1542 50.678272
1540 50.900982
1538 50.912476
1536 50.684856
1534 50.183231
1532 49.422413
1530 48.47084
1528 47.37899
1526 46.159153
1524 44.788601
1522 43.225456
1520 41.473103
1518 39.597969
1516 37.702854
1514 35.887177
1512 34.09576
1510 32.105915
1508 29.744991
1506 26.979523
1504 23.994183
1502 21.163885
1500 18.698109
1498 16.55286
1496 14.610857
1494 12.740815
1492 10.868998
1490 8.9963007
1488 7.1406546
1486 5.3314447
1484 3.6521258
1482 2.2371359
1480 1.1602676
1478 0.41769052
1476 0.056558326
1474 0.17774326
1472 0.72661692
1470 1.453395
1468 2.1664662
1466 2.8100014
1464 3.393091
1462 3.966254
1460 4.5589857
1458 5.1569247
1456 5.7104001
1454 6.1421256
1452 6.4043899
1450 6.4990439
1448 6.4519348
1446 6.305325
1444 6.0979404
1442 5.8552413
1440 5.5792856
1438 5.2435174
1436 4.8119512
1434 4.2540579
1432 3.593348
1430 2.92313
1428 2.3362119
1426 1.8977829
1424 1.6358657
1422 1.5349429
1420 1.571668
1418 1.7247828
1416 1.9707372
1414 2.2831759
1412 2.6408627
1410 3.0315514
1408 3.4507852
1406 3.9006238
1404 4.3748603
1402 4.853158
1400 5.310956
1398 5.723134
1396 6.0710073
1394 6.3451734
1392 6.5362425
1390 6.631927
1388 6.6205935
1386 6.494525
1384 6.2585378
1382 5.9349532
1380 5.5496249
1378 5.1273785
1376 4.6873059
1374 4.2405791
1372 3.7989161
1370 3.374789
1368 2.9669514
1366 2.5535121
1364 2.1122546
1362 1.632674
1360 1.1362817
1358 0.68725145
1356 0.34044757
1354 0.11846932
1352 0.01924816
1350 0.014274733
1348 0.075530179
1346 0.18493892
1344 0.32508761
1342 0.47639075
1340 0.62081873
1338 0.74384755
1336 0.83315969
1334 0.88031757
1332 0.88708097
1330 0.87080306
1328 0.8541581
1326 0.86159772
1324 0.91072655
1322 1.0062112
1320 1.1444749
1318 1.3126093
1316 1.4930999
1314 1.664798
1312 1.808744
1310 1.9125435
1308 1.9729058
1306 1.9996529
1304 2.0059211
1302 2.0050581
1300 2.0071623
1298 2.0171685
1296 2.0410285
1294 2.0881588
1292 2.1670434
1290 2.2821064
1288 2.4296679
1286 2.5936773
1284 2.7594464
1282 2.9202113
1280 3.0773051
1278 3.2424593
1276 3.4245827
1274 3.6235001
1272 3.8359931
1270 4.0585628
1268 4.2940993
1266 4.5571566
1264 4.8629756
1262 5.2220559
1260 5.6379738
1258 6.1032133
1256 6.6090317
1254 7.1487904
1252 7.7174249
1250 8.3114223
1248 8.9250154
1246 9.5471992
1244 10.164634
1242 10.761366
1240 11.316086
1238 11.796424
1236 12.170057
1234 12.402316
1232 12.47036
1230 12.369844
1228 12.109257
1226 11.711736
1224 11.201646
1222 10.605108
1220 9.9479904
1218 9.2524948
1216 8.5392599
1214 7.826982
1212 7.1348906
1210 6.4830818
1208 5.8820953
1206 5.3217287
1204 4.7816858
1202 4.2320089
1200 3.6515417
1198 3.042908
1196 2.4220572
1194 1.8206377
1192 1.2688932
1190 0.78492558
1188 0.37614167
1186 0.032992825
1184 -0.25485587
1182 -0.49040219
1180 -0.67073697
1178 -0.78479886
1176 -0.82716399
1174 -0.80948979
1172 -0.75194371
1170 -0.68360347
1168 -0.62717944
1166 -0.58600831
1164 -0.55447143
1162 -0.51803672
1160 -0.46713033
1158 -0.40790951
1156 -0.34925741
1154 -0.2970961
1152 -0.25189018
1150 -0.20406979
1148 -0.1491778
1146 -0.099290892
1144 -0.064856812
1142 -0.042528041
1140 -0.019015634
1138 0.034339815
1136 0.14736114
1134 0.34206581
1132 0.62209165
1130 0.95284843
1128 1.299948
1126 1.6512657
1124 1.9994389
1122 2.3350406
1120 2.64358
1118 2.9006047
1116 3.0951371
1114 3.2551963
1112 3.4198492
1110 3.6299617
1108 3.9098322
1106 4.2399149
1104 4.5866323
1102 4.9088407
1100 5.1773024
1098 5.3981481
1096 5.5918145
1094 5.7918429
1092 6.02846
1090 6.3146276
1088 6.6540051
1086 7.0366669
1084 7.44485
1082 7.8490939
1080 8.2157612
1078 8.5097218
1076 8.706995
1074 8.8145514
1072 8.8493176
1070 8.835391
1068 8.7917213
1066 8.7199879
1064 8.6186199
1062 8.4893847
1060 8.3367777
1058 8.1706829
1056 8.0003777
1054 7.8284144
1052 7.6494021
1050 7.4404049
1048 7.1804385
1046 6.8679218
1044 6.5152225
1042 6.1607714
1040 5.8388257
1038 5.5539327
1036 5.29846
1034 5.0525432
1032 4.7970548
1030 4.5240884
1028 4.2277818
1026 3.8988628
1024 3.5321584
1022 3.1358032
1020 2.7232351
1018 2.3138139
1016 1.9241229
1014 1.5584321
1012 1.2190074
1010 0.91115701
1008 0.6402424
1006 0.40920779
1004 0.21645893
1002 0.048233896
1000 -0.10922635
998 -0.26023501
996 -0.40613428
994 -0.54633904
992 -0.68208039
990 -0.82178307
988 -0.97285092
986 -1.1334529
984 -1.2943873
982 -1.4308426
980 -1.5147561
978 -1.5218616
976 -1.4362372
974 -1.2671742
972 -1.0334684
970 -0.76395392
968 -0.48873669
966 -0.23228146
964 -0.017743617
962 0.13193095
960 0.20164137
958 0.20299721
956 0.15678847
954 0.092575803
952 0.037595179
950 0.003283245
948 -0.0073877675
946 -0.0071292184
944 -0.0011758506
942 0.045313768
940 0.16290246
938 0.3310219
936 0.51835859
934 0.70069969
932 0.85494214
930 0.95582908
928 0.98662984
926 0.96428961
924 0.92015678
922 0.90793926
920 0.97191864
918 1.0999378
916 1.2609857
914 1.4060134
912 1.4917858
910 1.516216
908 1.4874846
906 1.4156351
904 1.3229365
902 1.2774065
900 1.3492395
898 1.5729738
896 1.9741
