Image.
>Pix99999.
  .
5555
5555
2300
900
5555
2
1
0
701
5555
1.5544000e-002
1.5874527e-002
1.6205054e-002
1.6534586e-002
1.6865110e-002
1.7195636e-002
1.7526163e-002
1.7855700e-002
1.8186217e-002
1.8516744e-002
1.8846286e-002
1.9176800e-002
1.9507326e-002
1.9837853e-002
2.0167401e-002
2.0497907e-002
2.0828433e-002
2.1158962e-002
2.1488514e-002
2.1819016e-002
2.2149544e-002
2.2479100e-002
2.2809597e-002
2.3140123e-002
2.3470651e-002
2.3800215e-002
8.8444568e-004
7.7280588e-002
1.7440245e-001
2.4600473e-001
3.1374770e-001
2.6870182e-001
2.1444280e-001
1.3544510e-001
6.0874667e-002
3.1043850e-002
8.5990746e-003
9.4933575e-003
1.2023300e-002
1.5724789e-002
1.7206915e-002
1.3706571e-002
1.2644580e-002
1.6041188e-002
4.1807890e-002
9.5131256e-002
1.6076310e-001
2.3655887e-001
2.8219852e-001
3.0477512e-001
3.0662143e-001
2.9738784e-001
3.1043464e-001
3.3357495e-001
3.7305102e-001
4.1760898e-001
4.6031359e-001
5.0251126e-001
5.2733779e-001
5.4889375e-001
5.1370800e-001
4.7183609e-001
4.1333845e-001
3.6350191e-001
3.7237424e-001
3.9795792e-001
4.6357733e-001
5.2818704e-001
5.7998753e-001
6.1558461e-001
6.2290901e-001
6.1108452e-001
5.7574314e-001
5.2993953e-001
4.7512311e-001
4.2617536e-001
3.8325799e-001
3.5871509e-001
3.4652013e-001
3.5090673e-001
3.6363026e-001
3.8708377e-001
4.1471416e-001
4.4145483e-001
4.6778038e-001
4.6397293e-001
4.5315969e-001
4.2810944e-001
4.0194863e-001
3.9617363e-001
3.9337000e-001
3.9085239e-001
3.8858438e-001
3.8715404e-001
3.9158562e-001
4.1334537e-001
4.3709973e-001
4.5958570e-001
4.6887201e-001
4.5628881e-001
4.3020430e-001
3.9068362e-001
3.5378194e-001
3.2163647e-001
2.9620811e-001
2.7573299e-001
2.6583567e-001
2.6246521e-001
2.8458446e-001
3.1967530e-001
3.6497056e-001
4.1386607e-001
4.6283320e-001
5.1171809e-001
5.6833333e-001
6.2627310e-001
6.5403748e-001
6.7196846e-001
6.4895761e-001
6.1637813e-001
5.7549113e-001
5.3327632e-001
4.9233213e-001
4.5286030e-001
4.1666630e-001
3.8410714e-001
3.5743260e-001
3.3357719e-001
3.1212547e-001
2.9385817e-001
2.7872771e-001
2.7287424e-001
2.7550119e-001
2.8603241e-001
3.0170187e-001
3.1370014e-001
3.2286805e-001
3.2641181e-001
3.2728550e-001
3.2042557e-001
3.1039599e-001
2.9012054e-001
2.6639858e-001
2.2365400e-001
1.7471611e-001
1.0718727e-001
3.7657492e-002
-1.2176730e-002
-4.8960119e-002
-5.0412681e-002
-4.1594215e-002
-2.8359089e-002
-2.5475504e-002
-4.8823915e-002
-8.1518702e-002
-1.1995789e-001
-1.4345469e-001
-1.4422359e-001
-1.4106974e-001
-1.3909522e-001
-1.4713942e-001
-1.6406980e-001
-1.5878054e-001
-1.3500069e-001
-9.3989223e-002
-4.4209063e-002
-3.6380168e-002
-5.1580559e-002
-1.0227457e-001
-1.6727155e-001
-2.2356486e-001
-2.7615499e-001
-3.2273430e-001
-3.6637390e-001
-3.9788952e-001
-4.2457750e-001
-4.4638351e-001
-4.7433016e-001
-5.3142625e-001
-5.9704047e-001
-6.6193718e-001
-7.1122283e-001
-7.2885299e-001
-7.3582119e-001
-7.3972142e-001
-7.3449188e-001
-7.1804816e-001
-6.6722298e-001
-5.8279121e-001
-5.0539112e-001
-4.4233584e-001
-4.1296232e-001
-4.0677726e-001
-4.0498903e-001
-4.0298647e-001
-4.4132385e-001
-5.0189000e-001
-5.9700447e-001
-7.0722407e-001
-7.5615335e-001
-7.7448428e-001
-7.0740074e-001
-6.0872751e-001
-5.2218288e-001
-4.6385714e-001
-5.0739527e-001
-6.0309523e-001
-7.4238443e-001
-8.7887716e-001
-9.7172010e-001
-1.0142320e+000
-9.9081981e-001
-9.1099817e-001
-7.7843857e-001
-6.4821607e-001
-5.4265130e-001
-5.0996232e-001
-5.4779977e-001
-6.2018979e-001
-7.0678037e-001
-7.8711027e-001
-8.5959691e-001
-9.1342509e-001
-9.5527035e-001
-9.5968002e-001
-9.4270426e-001
-9.1597551e-001
-8.8575315e-001
-8.8122290e-001
-8.8634032e-001
-8.6514413e-001
-8.2002354e-001
-7.1015823e-001
-5.7121044e-001
-4.3277848e-001
-3.2766429e-001
-3.1419978e-001
-3.6219215e-001
-4.6034059e-001
-5.6222373e-001
-6.3546288e-001
-6.7458558e-001
-6.7895901e-001
-6.6052866e-001
-6.2879843e-001
-5.6816500e-001
-4.8147833e-001
-3.8699082e-001
-2.9115376e-001
-2.2828062e-001
-1.9196786e-001
-1.5850279e-001
-1.2445400e-001
-9.4670765e-002
-6.8471305e-002
-4.4401042e-002
-1.9344537e-002
3.8858637e-002
1.1921185e-001
2.2694099e-001
3.4977999e-001
4.7504914e-001
5.7214558e-001
5.7404447e-001
4.9989110e-001
3.5117137e-001
1.9804239e-001
1.0555500e-001
3.0687150e-002
-5.6562595e-002
-1.0999565e-001
-1.0880417e-001
-1.4518335e-002
1.7097047e-001
3.5034826e-001
4.9257180e-001
4.9449235e-001
3.7074414e-001
2.4798483e-001
1.4874104e-001
1.7356600e-001
2.9188392e-001
3.4719416e-001
3.4547448e-001
1.9125937e-001
-5.1962852e-002
-1.9382377e-001
-2.1812710e-001
1.4238060e-002
4.3868124e-001
1.0751700e+000
1.7705148e+000
2.2593949e+000
2.6160486e+000
2.9254861e+000
3.4028208e+000
4.2458873e+000
5.6823845e+000
7.8140764e+000
1.0715055e+001
1.4301857e+001
1.7886419e+001
2.1165312e+001
2.4131134e+001
2.6852194e+001
3.0152592e+001
3.4098389e+001
3.8780025e+001
4.4028999e+001
4.8628071e+001
5.2616726e+001
5.6521725e+001
6.0436970e+001
6.4931458e+001
6.9832176e+001
7.4541451e+001
7.9028328e+001
8.3146271e+001
8.6953888e+001
9.0556114e+001
9.3960030e+001
9.7180794e+001
9.9917717e+001
1.0182170e+002
1.0226903e+002
1.0079929e+002
9.8179558e+001
9.5147133e+001
9.1952682e+001
8.8771072e+001
8.5213516e+001
8.1158417e+001
7.6957214e+001
7.2750137e+001
6.8700630e+001
6.4825417e+001
6.0795959e+001
5.6583889e+001
5.2397270e+001
4.8261101e+001
4.4351460e+001
4.0696072e+001
3.7465107e+001
3.4670780e+001
3.2290359e+001
3.0297678e+001
2.8543959e+001
2.7048435e+001
2.5805925e+001
2.4834757e+001
2.4123501e+001
2.3650061e+001
2.3350092e+001
2.3178583e+001
2.3072929e+001
2.3035000e+001
2.3060062e+001
2.3186939e+001
2.3430754e+001
2.3852697e+001
2.4467972e+001
2.5250248e+001
2.6181543e+001
2.7160391e+001
2.8162399e+001
2.9206642e+001
3.0301765e+001
3.1654413e+001
3.3358917e+001
3.5921009e+001
3.9370872e+001
4.2991070e+001
4.6586266e+001
4.9370598e+001
5.1405922e+001
5.3240856e+001
5.4916435e+001
5.6577202e+001
5.8037479e+001
5.9023788e+001
5.9323112e+001
5.8771362e+001
5.7630791e+001
5.6241451e+001
5.4719189e+001
5.3165298e+001
5.1518551e+001
4.9738754e+001
4.7720673e+001
4.5398048e+001
4.3023071e+001
4.0672760e+001
3.8404202e+001
3.6244316e+001
3.3656689e+001
3.0503836e+001
2.7320601e+001
2.4164934e+001
2.1490292e+001
1.9348799e+001
1.7229856e+001
1.5121185e+001
1.2958894e+001
1.0741079e+001
8.4958487e+000
6.2868252e+000
4.2424116e+000
2.4919989e+000
1.1858332e+000
3.6322445e-001
7.1477860e-002
3.9562273e-001
1.2530047e+000
2.2931221e+000
3.3084636e+000
4.1685905e+000
4.7713728e+000
5.2929025e+000
5.7952909e+000
6.3086424e+000
6.8443799e+000
7.2458835e+000
7.4290390e+000
7.4485474e+000
7.2372093e+000
6.9814825e+000
6.6707706e+000
6.3815470e+000
6.1196499e+000
5.8627982e+000
5.5847759e+000
5.1992297e+000
4.6906514e+000
4.1071396e+000
3.4913781e+000
2.9630692e+000
2.5558481e+000
2.3028486e+000
2.1990209e+000
2.2265623e+000
2.3364944e+000
2.4819081e+000
2.6409295e+000
2.8015468e+000
2.9923687e+000
3.2435822e+000
3.5709155e+000
4.0158305e+000
4.5310240e+000
5.1430011e+000
5.7374144e+000
6.2785239e+000
6.6924143e+000
6.8825393e+000
6.9331369e+000
6.7652054e+000
6.4889097e+000
6.0642023e+000
5.5843763e+000
5.0455055e+000
4.5106797e+000
3.9979777e+000
3.5421662e+000
3.1527970e+000
2.8233647e+000
2.5166178e+000
2.1604667e+000
1.7473246e+000
1.2588724e+000
7.7544451e-001
3.9112628e-001
1.1894842e-001
2.7918801e-002
3.3336572e-002
1.4091006e-001
2.9376572e-001
5.2421278e-001
7.8592175e-001
1.0971277e+000
1.3906283e+000
1.6395400e+000
1.8342661e+000
1.9308611e+000
2.0208311e+000
2.1089320e+000
2.2416248e+000
2.4473014e+000
2.7136183e+000
3.0589755e+000
3.4444563e+000
3.8592901e+000
4.2415318e+000
4.5729923e+000
4.8259020e+000
5.0082173e+000
5.1362343e+000
5.2238188e+000
5.2790513e+000
5.3099256e+000
5.3099432e+000
5.2947860e+000
5.2644196e+000
5.2391686e+000
5.2364969e+000
5.2500482e+000
5.2974725e+000
5.3465085e+000
5.3931623e+000
5.4308372e+000
5.4485931e+000
5.4651175e+000
5.4817052e+000
5.5099421e+000
5.5619183e+000
5.6416492e+000
5.7631073e+000
5.9097161e+000
6.0818324e+000
6.2458682e+000
6.3980999e+000
6.5334001e+000
6.6591516e+000
6.7975531e+000
6.9455628e+000
7.0997252e+000
7.2464752e+000
7.3568864e+000
7.4392395e+000
7.4734354e+000
7.4809189e+000
7.4444442e+000
7.3803492e+000
7.2532358e+000
7.0877151e+000
6.8174558e+000
6.5037842e+000
6.0723739e+000
5.6121216e+000
5.0854530e+000
4.5608549e+000
4.0451512e+000
3.5613654e+000
3.1341891e+000
2.7401533e+000
2.3923628e+000
2.0586200e+000
1.7459259e+000
1.4616588e+000
1.2128526e+000
1.0107292e+000
8.4418929e-001
6.8754107e-001
5.3503466e-001
3.7640449e-001
2.2674443e-001
1.2536439e-001
6.2511355e-002
9.2896178e-002
1.7016751e-001
3.5256949e-001
5.7266402e-001
8.8737345e-001
1.2139943e+000
1.5635930e+000
1.8846349e+000
2.1139321e+000
2.2873230e+000
2.3202209e+000
2.3040121e+000
2.1877995e+000
2.0373957e+000
1.8294224e+000
1.5957869e+000
1.3282254e+000
1.0517380e+000
7.7040541e-001
5.1230150e-001
2.8609964e-001
1.2918073e-001
3.1616621e-002
8.2438057e-003
2.9587850e-002
9.8924749e-002
1.9413325e-001
3.2892781e-001
4.7963351e-001
6.5734053e-001
8.3154303e-001
9.6206361e-001
1.0743037e+000
1.1104743e+000
1.1418070e+000
1.1591029e+000
1.1915979e+000
1.2727529e+000
1.3682001e+000
1.4953400e+000
1.5997052e+000
1.6548872e+000
1.6634254e+000
1.5997715e+000
1.5245563e+000
1.4399040e+000
1.3887671e+000
1.3735247e+000
1.3848885e+000
1.4162285e+000
1.4460661e+000
1.4726669e+000
1.4818950e+000
1.4774014e+000
1.4303442e+000
1.3627309e+000
1.2470902e+000
1.1211042e+000
9.9682093e-001
8.8230437e-001
8.3792657e-001
8.0835342e-001
8.5206866e-001
9.0096718e-001
9.7215647e-001
1.0399848e+000
1.0966419e+000
1.1469543e+000
1.1811178e+000
1.2016138e+000
1.1930991e+000
1.1443251e+000
1.0360268e+000
9.1002899e-001
7.6656342e-001
6.4767706e-001
5.4901671e-001
4.3523312e-001
3.1035227e-001
1.7735286e-001
4.5412347e-002
-3.0779153e-002
-8.2750343e-002
-1.0431029e-001
-1.1952579e-001
-1.5473160e-001
-1.9444582e-001
-2.4697439e-001
-3.0085978e-001
-3.5819146e-001
-4.1936454e-001
-5.0663114e-001
-5.9695768e-001
-6.9995356e-001
-7.9068214e-001
-8.4198856e-001
-8.6656207e-001
-8.2900870e-001
-7.7058280e-001
-6.7626506e-001
-5.8580601e-001
-5.0170863e-001
-4.3951413e-001
-4.0187687e-001
-3.9908674e-001
-4.2574507e-001
-4.8487672e-001
-5.6124943e-001
-5.9339046e-001
-6.0108149e-001
-5.1930034e-001
-4.0914080e-001
-3.0745187e-001
-2.1009386e-001
-1.6853538e-001
-1.3395201e-001
-1.0502662e-001
-7.4874878e-002
-2.4677999e-002
8.3832070e-004
2.6480753e-002
9.0067014e-002
2.1192360e-001
3.2732341e-001
4.2335805e-001
4.9864098e-001
5.2937031e-001
5.4442215e-001
5.3399688e-001
5.0161839e-001
4.4225270e-001
3.6303359e-001
2.6557469e-001
1.8021029e-001
1.0299290e-001
-1.0176972e-003
-1.1926529e-001
-2.5966614e-001
-4.0707210e-001
-3.7913626e-001
-3.0408815e-001
4.0145814e-003
3.4961626e-001
6.6154999e-001
