Image.
>Pix99999.
  .
5555
5555
2300
900
5555
2
1
0
701
5555
-5.3769000e-002
-5.4887403e-002
-5.6005798e-002
-5.7124201e-002
-5.8242600e-002
-5.9361994e-002
-6.0480401e-002
-6.1598800e-002
-6.2717199e-002
-6.3835599e-002
-6.4954989e-002
-6.6073403e-002
-6.7191802e-002
-6.8310201e-002
-6.9428600e-002
-7.0547000e-002
-7.1666375e-002
-7.2784796e-002
-7.3903203e-002
-7.5021602e-002
-7.6140001e-002
-7.7259369e-002
-7.8377806e-002
-7.9496205e-002
-8.0614597e-002
-8.1732996e-002
-3.0372827e-003
7.5714424e-002
1.5361087e-001
2.1041960e-001
2.6419601e-001
2.7946904e-001
2.9070073e-001
2.7338204e-001
2.5554556e-001
2.4483800e-001
2.4117073e-001
2.6833454e-001
3.0481359e-001
3.6485580e-001
4.2777428e-001
4.9407914e-001
5.5657959e-001
6.1250460e-001
6.5172821e-001
6.7061728e-001
6.5825891e-001
6.1699194e-001
5.7676768e-001
5.3871715e-001
5.4847503e-001
5.8576477e-001
6.5080947e-001
7.2725654e-001
7.9521829e-001
8.6017388e-001
9.1817915e-001
9.7460580e-001
1.0149686e+000
1.0526308e+000
1.0637542e+000
1.0718942e+000
1.0732380e+000
1.0764850e+000
1.0946081e+000
1.1222535e+000
1.1797863e+000
1.2441881e+000
1.3185657e+000
1.3816984e+000
1.4213700e+000
1.4452280e+000
1.4495634e+000
1.4480982e+000
1.4421766e+000
1.4437321e+000
1.4522011e+000
1.4745600e+000
1.5060785e+000
1.5265557e+000
1.5405685e+000
1.5283936e+000
1.5051466e+000
1.4841425e+000
1.4641000e+000
1.4766357e+000
1.4968569e+000
1.5453750e+000
1.5982372e+000
1.6466225e+000
1.6922628e+000
1.7212420e+000
1.7468486e+000
1.7678030e+000
1.7874680e+000
1.8054843e+000
1.8192897e+000
1.8246318e+000
1.8233080e+000
1.8129548e+000
1.8080429e+000
1.8123776e+000
1.8332757e+000
1.8700467e+000
1.9002360e+000
1.9226049e+000
1.9206238e+000
1.9030960e+000
1.8760817e+000
1.8454428e+000
1.8174214e+000
1.7907180e+000
1.7802000e+000
1.7749748e+000
1.7940402e+000
1.8197957e+000
1.8610588e+000
1.9069613e+000
1.9626734e+000
2.0187140e+000
2.0661485e+000
2.1026189e+000
2.1079395e+000
2.0989802e+000
2.0710979e+000
2.0464427e+000
2.0363140e+000
2.0472786e+000
2.0840750e+000
2.1311805e+000
2.1825242e+000
2.2180488e+000
2.2377131e+000
2.2452741e+000
2.2469471e+000
2.2622743e+000
2.2878156e+000
2.3275235e+000
2.3743570e+000
2.4078429e+000
2.4343600e+000
2.4266429e+000
2.4061019e+000
2.3662906e+000
2.3216953e+000
2.2910929e+000
2.2660308e+000
2.2599521e+000
2.2579651e+000
2.2597039e+000
2.2578642e+000
2.2462201e+000
2.2352149e+000
2.2248731e+000
2.2329741e+000
2.2645514e+000
2.3087595e+000
2.3628502e+000
2.4042261e+000
2.4322305e+000
2.4548943e+000
2.4773788e+000
2.5189536e+000
2.5766957e+000
2.6265824e+000
2.6693707e+000
2.6596708e+000
2.6207063e+000
2.5623679e+000
2.4963758e+000
2.4626343e+000
2.4401476e+000
2.4309285e+000
2.4212680e+000
2.3970091e+000
2.3697250e+000
2.3458576e+000
2.3350196e+000
2.3415029e+000
2.3515196e+000
2.3510284e+000
2.3359129e+000
2.3065801e+000
2.2720022e+000
2.2447400e+000
2.2338121e+000
2.2471793e+000
2.2934933e+000
2.3636227e+000
2.4324450e+000
2.4860272e+000
2.5005362e+000
2.4886627e+000
2.4633577e+000
2.4353323e+000
2.4082656e+000
2.3804240e+000
2.3616495e+000
2.3446350e+000
2.3542721e+000
2.3730285e+000
2.3926711e+000
2.4091716e+000
2.3895020e+000
2.3510737e+000
2.2770715e+000
2.1935728e+000
2.1184392e+000
2.0535636e+000
2.0123334e+000
1.9704000e+000
1.9269805e+000
1.8742536e+000
1.8172443e+000
1.7788632e+000
1.7475672e+000
1.7322686e+000
1.7155861e+000
1.6882675e+000
1.6581857e+000
1.6125257e+000
1.5627122e+000
1.4955028e+000
1.4241769e+000
1.3584440e+000
1.3045821e+000
1.2764760e+000
1.2674241e+000
1.2531559e+000
1.2293038e+000
1.1921643e+000
1.1428909e+000
1.1088525e+000
1.0956631e+000
1.1184306e+000
1.1628529e+000
1.1885778e+000
1.1755092e+000
1.0989140e+000
9.8035729e-001
8.5076487e-001
7.2667873e-001
6.2482756e-001
5.5641001e-001
5.1506901e-001
5.0524801e-001
5.1806104e-001
5.0407791e-001
4.6752885e-001
3.9234999e-001
2.9259285e-001
2.5723928e-001
2.6089120e-001
3.4044570e-001
4.5281622e-001
5.2746528e-001
5.6948763e-001
5.7104015e-001
5.4522252e-001
5.1984400e-001
4.9526829e-001
4.7646251e-001
4.6393439e-001
4.1853085e-001
3.5882396e-001
2.7973422e-001
1.8507500e-001
1.0207570e-001
2.8075678e-002
-1.0053998e-001
-2.3377314e-001
-3.1697708e-001
-3.3644402e-001
-2.8852800e-001
-2.2850469e-001
-1.8527965e-001
-1.9187047e-001
-2.6049161e-001
-3.3342806e-001
-3.9298734e-001
-3.5051599e-001
-2.1846458e-001
-7.1122460e-002
7.0079684e-002
7.9822198e-002
-1.0767199e-002
-7.6697275e-002
-1.0820763e-001
-1.3251156e-003
2.3062523e-001
6.5673983e-001
1.2260628e+000
1.7878485e+000
2.3197777e+000
2.8331919e+000
3.4707978e+000
4.3970237e+000
5.8920064e+000
8.0909739e+000
1.1204248e+001
1.5154428e+001
1.9142410e+001
2.2811232e+001
2.6063772e+001
2.8992336e+001
3.2480602e+001
3.6617527e+001
4.1546471e+001
4.7073997e+001
5.1853836e+001
5.5930397e+001
5.9868282e+001
6.3801155e+001
6.8471443e+001
7.3696175e+001
7.8860550e+001
8.3844772e+001
8.8282890e+001
9.2186707e+001
9.5572769e+001
9.8447227e+001
1.0084728e+002
1.0258601e+002
1.0346159e+002
1.0314434e+002
1.0136071e+002
9.8693848e+001
9.5735001e+001
9.2534569e+001
8.9190422e+001
8.5332481e+001
8.0853989e+001
7.6289543e+001
7.1823265e+001
6.7622032e+001
6.3704552e+001
5.9671120e+001
5.5480518e+001
5.1312855e+001
4.7189415e+001
4.3262714e+001
3.9556427e+001
3.6267353e+001
3.3407120e+001
3.0985207e+001
2.8985708e+001
2.7275429e+001
2.5868847e+001
2.4739799e+001
2.3887911e+001
2.3272499e+001
2.2886433e+001
2.2681807e+001
2.2637419e+001
2.2706314e+001
2.2852264e+001
2.3047132e+001
2.3274130e+001
2.3530334e+001
2.3874651e+001
2.4325998e+001
2.4947510e+001
2.5733080e+001
2.6635391e+001
2.7633560e+001
2.8663593e+001
2.9729156e+001
3.1053802e+001
3.2743755e+001
3.5374664e+001
3.9017300e+001
4.2898190e+001
4.6776779e+001
4.9762524e+001
5.1888607e+001
5.3761608e+001
5.5400761e+001
5.6912533e+001
5.8105701e+001
5.8617432e+001
5.8379913e+001
5.7438683e+001
5.6022568e+001
5.4517128e+001
5.2927017e+001
5.1257801e+001
4.9416874e+001
4.7322067e+001
4.5053493e+001
4.2586182e+001
4.0245655e+001
3.8159504e+001
3.6174519e+001
3.4325100e+001
3.2045773e+001
2.9195957e+001
2.6238937e+001
2.3179996e+001
2.0527563e+001
1.8324270e+001
1.6144714e+001
1.3993809e+001
1.1818131e+001
9.6427069e+000
7.5073762e+000
5.4850645e+000
3.6945939e+000
2.1986408e+000
1.0845881e+000
3.6791313e-001
5.9953928e-002
2.8345072e-001
9.8269773e-001
1.9049761e+000
2.8806338e+000
3.7217770e+000
4.3406219e+000
4.8766322e+000
5.3891935e+000
5.9311433e+000
6.5116401e+000
6.9926081e+000
7.2741814e+000
7.4040914e+000
7.3076978e+000
7.1641607e+000
6.9603333e+000
6.7385011e+000
6.4921451e+000
6.1791835e+000
5.7760386e+000
5.2194996e+000
4.5264301e+000
3.8242955e+000
3.1522100e+000
2.6406822e+000
2.2930641e+000
2.0939691e+000
2.0476491e+000
2.1176529e+000
2.2857742e+000
2.5271120e+000
2.7827249e+000
3.0539970e+000
3.3340423e+000
3.6368101e+000
3.9702346e+000
4.3301635e+000
4.7088919e+000
5.1032839e+000
5.5014644e+000
5.8889837e+000
6.2312822e+000
6.4543009e+000
6.5568562e+000
6.4573450e+000
6.2323008e+000
5.8375354e+000
5.3824892e+000
4.8665972e+000
4.3419771e+000
3.8407018e+000
3.3840921e+000
2.9818285e+000
2.6397047e+000
2.3072507e+000
1.9262161e+000
1.5041531e+000
1.0313442e+000
5.8885050e-001
2.7349347e-001
6.0471684e-002
6.4890562e-003
2.9947460e-002
1.2588125e-001
2.4826536e-001
4.1160959e-001
5.8895528e-001
7.9345644e-001
9.9800199e-001
1.1896257e+000
1.3779503e+000
1.5183934e+000
1.6567260e+000
1.7915349e+000
1.9515049e+000
2.1730070e+000
2.4390750e+000
2.7763999e+000
3.1371131e+000
3.5174599e+000
3.8675513e+000
4.1634231e+000
4.3934879e+000
4.5473003e+000
4.6416054e+000
4.6830845e+000
4.6705842e+000
4.6231732e+000
4.5297523e+000
4.4269571e+000
4.3270240e+000
4.2463140e+000
4.2095947e+000
4.1886759e+000
4.1892700e+000
4.1888356e+000
4.1765189e+000
4.1641970e+000
4.1505256e+000
4.1434841e+000
4.1572680e+000
4.1861162e+000
4.2479753e+000
4.3307452e+000
4.4397478e+000
4.5587568e+000
4.6824803e+000
4.8014698e+000
4.9162459e+000
5.0325112e+000
5.1504416e+000
5.2719297e+000
5.3896637e+000
5.4882059e+000
5.5689502e+000
5.6139526e+000
5.6385784e+000
5.6345286e+000
5.6119089e+000
5.5557518e+000
5.4706478e+000
5.3141680e+000
5.1180625e+000
4.8177309e+000
4.4833636e+000
4.0599551e+000
3.6208572e+000
3.1447482e+000
2.6718450e+000
2.2063000e+000
1.7556782e+000
1.3352531e+000
9.4599509e-001
6.0632050e-001
3.1118506e-001
7.0554286e-002
-1.3422377e-001
-3.0113336e-001
-4.4113043e-001
-5.5251145e-001
-6.2604558e-001
-6.6761506e-001
-6.6512948e-001
-6.3535011e-001
-5.7341349e-001
-4.9411190e-001
-3.8710067e-001
-2.6257408e-001
-8.9757621e-002
1.0906480e-001
3.8818038e-001
6.8294227e-001
1.0161251e+000
1.3238525e+000
1.5473886e+000
1.7231346e+000
1.7797680e+000
1.8013577e+000
1.7512567e+000
1.6686558e+000
1.5313540e+000
1.3647069e+000
1.1608064e+000
9.5227039e-001
7.4074137e-001
5.3957403e-001
3.5051060e-001
1.8435545e-001
4.7161315e-002
-1.5619943e-002
-1.7664656e-002
9.2180625e-002
2.5554401e-001
4.7669607e-001
7.0498079e-001
8.8980711e-001
1.0552210e+000
1.1581841e+000
1.2498473e+000
1.3117170e+000
1.3720511e+000
1.4295902e+000
1.5048937e+000
1.6387020e+000
1.8035251e+000
2.0408111e+000
2.2620161e+000
2.4429786e+000
2.5518856e+000
2.5460572e+000
2.4973440e+000
2.3995719e+000
2.3226738e+000
2.2713704e+000
2.2615857e+000
2.2847226e+000
2.3162556e+000
2.3443418e+000
2.3076980e+000
2.2344069e+000
2.1043177e+000
1.9618685e+000
1.8669233e+000
1.7892303e+000
1.7644143e+000
1.7446160e+000
1.7113804e+000
1.6766620e+000
1.6355484e+000
1.5965029e+000
1.5654386e+000
1.5279597e+000
1.4697440e+000
1.3956509e+000
1.2836535e+000
1.1687980e+000
1.0498233e+000
9.5077497e-001
8.8108069e-001
8.2775801e-001
7.9208374e-001
7.4437428e-001
6.8321496e-001
5.8410221e-001
4.5840636e-001
3.2171845e-001
1.8351445e-001
9.3101822e-002
2.3699746e-002
-1.2029281e-002
-4.2249262e-002
-1.1160886e-001
-1.9122431e-001
-3.1421122e-001
-4.3854809e-001
-5.3779507e-001
-6.3092589e-001
-6.8415987e-001
-7.3002249e-001
-7.4281430e-001
-7.3965573e-001
-6.8795884e-001
-6.3174379e-001
-5.6703979e-001
-5.2514857e-001
-5.2215528e-001
-5.2891284e-001
-5.4653239e-001
-5.4272991e-001
-5.1693314e-001
-4.8434955e-001
-4.4732058e-001
-4.2459613e-001
-4.0911308e-001
-3.8089949e-001
-3.4538224e-001
-2.8294078e-001
-2.1248293e-001
-1.4333650e-001
-7.6789089e-002
-5.1780485e-002
-3.3763882e-002
-5.9647202e-002
-8.1772335e-002
-2.4916178e-002
2.8995052e-003
9.0307862e-002
2.6561880e-001
4.6781731e-001
6.4208627e-001
7.3502707e-001
8.1864184e-001
8.8311249e-001
9.7725093e-001
1.1189886e+000
1.2677600e+000
1.4244888e+000
1.5251280e+000
1.5722291e+000
1.5479257e+000
1.4727263e+000
1.3893137e+000
1.3037770e+000
1.2817429e+000
1.2871950e+000
1.3565034e+000
1.4446465e+000
1.5719839e+000
1.7062141e+000
1.8559000e+000
