Image.
>Pix99999.
  .
5555
5555
2300
900
5555
2
1
0
701
5555
-4.5386001e-002
-4.6330649e-002
-4.7275294e-002
-4.8218951e-002
-4.9163595e-002
-5.0107248e-002
-5.1051889e-002
-5.1995549e-002
-5.2940190e-002
-5.3883851e-002
-5.4828484e-002
-5.5773135e-002
-5.6716800e-002
-5.7658486e-002
-5.8605038e-002
-5.9559513e-002
-6.0493629e-002
-6.1401922e-002
-6.2380750e-002
-6.3459605e-002
-6.4273909e-002
-6.4718947e-002
-6.6143207e-002
-6.8948254e-002
-6.8112984e-002
-5.3691890e-002
-1.9744772e-003
1.0041160e-001
2.0972320e-001
2.7662802e-001
2.9420400e-001
2.7221003e-001
2.3825623e-001
2.2274922e-001
2.4710160e-001
3.2187200e-001
4.2459062e-001
5.2411497e-001
5.9317738e-001
6.1311007e-001
5.9480745e-001
5.5755508e-001
5.1895082e-001
4.9540889e-001
5.0117040e-001
5.4716313e-001
6.3353485e-001
7.5090379e-001
8.6448878e-001
9.3768555e-001
9.5810783e-001
9.2822218e-001
8.7970722e-001
8.4731090e-001
8.4137934e-001
8.6078018e-001
8.8985759e-001
9.1355085e-001
9.3760735e-001
9.7365630e-001
1.0293705e+000
1.1058680e+000
1.1825154e+000
1.2355280e+000
1.2569085e+000
1.2478957e+000
1.2250628e+000
1.2070655e+000
1.2009760e+000
1.2094241e+000
1.2318200e+000
1.2652906e+000
1.3016354e+000
1.3302113e+000
1.3391812e+000
1.3202571e+000
1.2809057e+000
1.2358160e+000
1.2067196e+000
1.2139908e+000
1.2636600e+000
1.3518733e+000
1.4553883e+000
1.5454420e+000
1.5984040e+000
1.5984893e+000
1.5537552e+000
1.4842858e+000
1.4242418e+000
1.4064257e+000
1.4382757e+000
1.5119300e+000
1.5981131e+000
1.6661377e+000
1.7109003e+000
1.7393172e+000
1.7663697e+000
1.8042126e+000
1.8438420e+000
1.8699198e+000
1.8764714e+000
1.8649344e+000
1.8515379e+000
1.8538642e+000
1.8726503e+000
1.8990051e+000
1.9121797e+000
1.8930449e+000
1.8472680e+000
1.7921512e+000
1.7532257e+000
1.7542472e+000
1.7990960e+000
1.8807750e+000
1.9800375e+000
2.0723994e+000
2.1295984e+000
2.1274226e+000
2.0638573e+000
1.9508870e+000
1.8209286e+000
1.7114500e+000
1.6463994e+000
1.6373243e+000
1.6697561e+000
1.7176071e+000
1.7520020e+000
1.7494142e+000
1.7119726e+000
1.6546493e+000
1.5992029e+000
1.5660149e+000
1.5592394e+000
1.5733180e+000
1.5911734e+000
1.5943578e+000
1.5764936e+000
1.5401090e+000
1.5003462e+000
1.4746281e+000
1.4674000e+000
1.4744462e+000
1.4826177e+000
1.4761633e+000
1.4447908e+000
1.3843164e+000
1.3039408e+000
1.2193290e+000
1.1467731e+000
1.0995123e+000
1.0782071e+000
1.0759765e+000
1.0778657e+000
1.0664222e+000
1.0275320e+000
9.5344692e-001
8.5549515e-001
7.5529128e-001
6.7927974e-001
6.5050918e-001
6.7000890e-001
7.2594815e-001
7.9791003e-001
8.6301666e-001
9.0280092e-001
9.0365905e-001
8.6258090e-001
7.8511655e-001
6.9171804e-001
6.0760224e-001
5.4779673e-001
5.1947874e-001
5.2042359e-001
5.4180384e-001
5.6527752e-001
5.6986499e-001
5.4297316e-001
4.8241001e-001
4.1058233e-001
3.5784262e-001
3.3493972e-001
3.3939883e-001
3.6040038e-001
3.8748431e-001
4.2712161e-001
4.9350959e-001
5.9408689e-001
7.2536373e-001
8.5541946e-001
9.4235742e-001
9.6619856e-001
9.2612022e-001
8.4724855e-001
7.6232892e-001
6.7993414e-001
5.9500515e-001
5.0632840e-001
4.1884676e-001
3.4959424e-001
3.1730944e-001
3.1990999e-001
3.4185418e-001
3.6295673e-001
3.6465311e-001
3.4232888e-001
3.0017951e-001
2.4535680e-001
1.8515547e-001
1.2331526e-001
6.1887842e-002
5.0865998e-003
-4.0559717e-002
-6.4833544e-002
-5.8786962e-002
-2.8086711e-002
1.0969028e-002
3.4389976e-002
1.9382909e-002
-3.4999400e-002
-1.1340961e-001
-1.8832915e-001
-2.2791612e-001
-2.0776945e-001
-1.1772719e-001
1.2094598e-002
1.2710740e-001
1.7191057e-001
1.0641392e-001
-5.0317071e-002
-2.4333709e-001
-4.2177102e-001
-5.4614604e-001
-5.9887022e-001
-5.7990980e-001
-5.0887477e-001
-4.1801322e-001
-3.4660286e-001
-3.2904816e-001
-3.6301121e-001
-4.2062458e-001
-4.6794772e-001
-4.7684264e-001
-4.5076302e-001
-4.1232282e-001
-3.7620509e-001
-3.4519899e-001
-3.0313703e-001
-2.2659937e-001
-1.1238021e-001
2.2638049e-002
1.3834321e-001
1.8917198e-001
1.6794799e-001
9.9408083e-002
2.7005836e-002
-6.0048318e-003
-1.0987278e-004
1.8634165e-002
5.0563440e-002
1.1264025e-001
1.9592285e-001
2.6788050e-001
2.8402552e-001
2.0889726e-001
7.4647129e-002
-4.1336801e-002
-7.7711880e-002
-1.4599215e-002
5.9381030e-002
1.2702838e-002
-1.3510327e-001
-2.5731641e-001
-2.8466687e-001
-2.1576992e-001
-9.4221368e-002
1.5288927e-002
6.6413775e-002
4.0849701e-002
-2.8679894e-002
-8.2204409e-002
-9.8679803e-002
-9.5393173e-002
-1.0864293e-001
-1.7380340e-001
-2.7779239e-001
-3.6826622e-001
-3.8804364e-001
-2.7888480e-001
3.1198502e-002
6.0596907e-001
1.4195553e+000
2.3711350e+000
3.3427343e+000
4.2415681e+000
5.1064243e+000
6.0917821e+000
7.4062519e+000
9.2681923e+000
1.1814159e+001
1.5043592e+001
1.8632429e+001
2.2056200e+001
2.5030100e+001
2.7567129e+001
2.9981264e+001
3.2764122e+001
3.6251934e+001
4.0511326e+001
4.5095718e+001
4.9270641e+001
5.2833630e+001
5.6107624e+001
5.9488987e+001
6.3279911e+001
6.7440010e+001
7.1664055e+001
7.5746483e+001
7.9620560e+001
8.3245911e+001
8.6593681e+001
8.9697624e+001
9.2623482e+001
9.5335762e+001
9.7664848e+001
9.9253563e+001
9.9694534e+001
9.9042107e+001
9.7740646e+001
9.6031944e+001
9.3877296e+001
9.1120186e+001
8.7606087e+001
8.3476776e+001
7.9121201e+001
7.4780258e+001
7.0488853e+001
6.6190399e+001
6.1801765e+001
5.7351578e+001
5.2979366e+001
4.8813686e+001
4.4949917e+001
4.1470024e+001
3.8434898e+001
3.5841496e+001
3.3626358e+001
3.1726955e+001
3.0097538e+001
2.8705841e+001
2.7530466e+001
2.6543499e+001
2.5710094e+001
2.5007830e+001
2.4430212e+001
2.3995024e+001
2.3740101e+001
2.3688538e+001
2.3848299e+001
2.4234194e+001
2.4865690e+001
2.5740286e+001
2.6820553e+001
2.8023294e+001
2.9235901e+001
3.0389641e+001
3.1473501e+001
3.2499096e+001
3.3520123e+001
3.4762829e+001
3.6563831e+001
3.8936829e+001
4.1517838e+001
4.3887024e+001
4.5714699e+001
4.7013081e+001
4.8121212e+001
4.9252602e+001
5.0379189e+001
5.1315922e+001
5.1787575e+001
5.1666599e+001
5.1034073e+001
5.0091633e+001
4.9100597e+001
4.8188450e+001
4.7304001e+001
4.6315121e+001
4.5053383e+001
4.3409176e+001
4.1378464e+001
3.9122856e+001
3.6927505e+001
3.4876080e+001
3.2786842e+001
3.0440788e+001
2.7692114e+001
2.4668520e+001
2.1768419e+001
1.9235086e+001
1.7042671e+001
1.5058286e+001
1.3104705e+001
1.1087391e+001
9.0270805e+000
6.9821429e+000
5.0310020e+000
3.2779920e+000
1.8454053e+000
8.1018329e-001
1.9488284e-001
5.0406747e-002
4.4498003e-001
1.2767849e+000
2.2455611e+000
3.1361425e+000
3.9070029e+000
4.6005974e+000
5.3013926e+000
6.0028067e+000
6.5709987e+000
6.8669000e+000
6.8070912e+000
6.4593763e+000
6.0516057e+000
5.7145863e+000
5.4086752e+000
5.0873756e+000
4.7461538e+000
4.3980145e+000
4.0621433e+000
3.7305129e+000
3.3623800e+000
2.9436748e+000
2.5089445e+000
2.1157620e+000
1.8322142e+000
1.6934395e+000
1.6838428e+000
1.7684975e+000
1.9040370e+000
2.0646713e+000
2.2525558e+000
2.4782701e+000
2.7538917e+000
3.0803263e+000
3.4423542e+000
3.8205760e+000
4.1938925e+000
4.5374799e+000
4.8235703e+000
5.0363216e+000
5.1797385e+000
5.2683139e+000
5.3222089e+000
5.3418798e+000
5.2992001e+000
5.1751380e+000
4.9750233e+000
4.7175632e+000
4.4302506e+000
4.1258831e+000
3.7942953e+000
3.4345939e+000
3.0665600e+000
2.7097890e+000
2.3736000e+000
2.0487840e+000
1.7049426e+000
1.3312315e+000
9.5475614e-001
6.1153746e-001
3.3542731e-001
1.4143954e-001
1.7385527e-002
-4.4145256e-002
-3.4195133e-002
5.4546170e-002
2.1648689e-001
4.1736352e-001
5.8546156e-001
6.6569942e-001
6.4891267e-001
5.6709522e-001
4.9833962e-001
5.0445032e-001
6.0128629e-001
7.8282225e-001
1.0239502e+000
1.2958908e+000
1.5715404e+000
1.8281500e+000
2.0506840e+000
2.2311873e+000
2.3712523e+000
2.4758551e+000
2.5521007e+000
2.6074519e+000
2.6487341e+000
2.6818995e+000
2.7116857e+000
2.7434287e+000
2.7834585e+000
2.8369575e+000
2.9064646e+000
2.9917560e+000
3.0898008e+000
3.1992631e+000
3.3227766e+000
3.4614041e+000
3.6120203e+000
3.7704799e+000
3.9341331e+000
4.1076212e+000
4.3076363e+000
4.5504065e+000
4.8452058e+000
5.1937160e+000
5.5874538e+000
6.0188918e+000
6.4873133e+000
6.9954972e+000
7.5493016e+000
8.1496811e+000
8.7870302e+000
9.4452705e+000
1.0101425e+001
1.0733634e+001
1.1325670e+001
1.1861908e+001
1.2331134e+001
1.2725114e+001
1.3038357e+001
1.3267600e+001
1.3411369e+001
1.3462886e+001
1.3402757e+001
1.3213822e+001
1.2893899e+001
1.2458055e+001
1.1949260e+001
1.1409286e+001
1.0860298e+001
1.0311134e+001
9.7555408e+000
9.1874800e+000
8.6146984e+000
8.0429201e+000
7.4676638e+000
6.8803720e+000
6.2708488e+000
5.6410928e+000
5.0182838e+000
4.4319139e+000
3.9018149e+000
3.4348233e+000
3.0162692e+000
2.6344178e+000
2.2951412e+000
2.0116513e+000
1.8020368e+000
1.6725401e+000
1.5999061e+000
1.5541849e+000
1.5065743e+000
1.4399457e+000
1.3616328e+000
1.2821218e+000
1.2056400e+000
1.1300297e+000
1.0432420e+000
9.3702281e-001
8.1655383e-001
6.8926454e-001
5.6002837e-001
4.3089199e-001
2.9969180e-001
1.7038846e-001
6.3515559e-002
3.5801323e-003
1.3806097e-002
1.0539400e-001
2.6238430e-001
4.6679473e-001
7.1167719e-001
9.9669039e-001
1.3298029e+000
1.7104454e+000
2.1128583e+000
2.5063720e+000
2.8646829e+000
3.1770713e+000
3.4667816e+000
3.7587399e+000
4.0610065e+000
4.3721309e+000
4.6773801e+000
4.9624228e+000
5.2224703e+000
5.4607058e+000
5.6942644e+000
5.9440856e+000
6.2316389e+000
6.5699382e+000
6.9498272e+000
7.3527961e+000
7.7514977e+000
8.1186295e+000
8.4344034e+000
8.6844139e+000
8.8637791e+000
8.9745169e+000
9.0302973e+000
9.0508585e+000
9.0633078e+000
9.0897713e+000
9.1342611e+000
9.1890602e+000
9.2270784e+000
9.2224255e+000
9.1647635e+000
9.0490799e+000
8.8753490e+000
8.6415958e+000
8.3384447e+000
7.9622970e+000
7.5324426e+000
7.0788069e+000
6.6454859e+000
6.2683096e+000
5.9475465e+000
5.6652198e+000
5.3760462e+000
5.0367622e+000
4.6310439e+000
4.1610007e+000
3.6619329e+000
3.1747029e+000
2.7319109e+000
2.3564153e+000
2.0487142e+000
1.8042058e+000
1.6189202e+000
1.4859060e+000
1.3869343e+000
1.2970520e+000
1.1796507e+000
1.0058709e+000
7.7995992e-001
5.1803684e-001
2.4753761e-001
-5.4172873e-003
-2.2783950e-001
-4.1155216e-001
-5.5346668e-001
-6.5301001e-001
-7.1371371e-001
-7.4061912e-001
-7.4028814e-001
-7.1632397e-001
-6.6144049e-001
-5.6587231e-001
-4.2068112e-001
-2.2296570e-001
1.0480762e-002
2.5480551e-001
4.7465551e-001
6.3881958e-001
7.3928559e-001
7.7850848e-001
7.7514249e-001
7.4570900e-001
6.8560022e-001
5.8685958e-001
4.4839543e-001
2.8209755e-001
1.3883893e-001
5.7131659e-002
-2.5311187e-003
-7.8986213e-002
-1.3932370e-001
-1.4344811e-001
-9.0066269e-002
8.1518963e-003
1.2262041e-001
2.1730417e-001
2.4369928e-001
1.6923398e-001
3.2410234e-002
-1.1557223e-001
-2.4267381e-001
-3.3231929e-001
-4.0866607e-001
-5.0108451e-001
-6.1974460e-001
-7.6927125e-001
-9.5130813e-001
-1.1535087e+000
-1.3118014e+000
-1.3583235e+000
-1.2614243e+000
-9.9873000e-001
