Image.
>Pix99999.
  .
5555
5555
2300
900
5555
2
1
0
701
5555
8.7281004e-002
8.9097403e-002
9.0912804e-002
9.2729203e-002
9.4544612e-002
9.6360013e-002
9.8176405e-002
9.9991821e-002
1.0180920e-001
1.0362660e-001
1.0544400e-001
1.0726140e-001
1.0906897e-001
1.1087638e-001
1.1270341e-001
1.1454057e-001
1.1633886e-001
1.1805823e-001
1.1996089e-001
1.2210164e-001
1.2360743e-001
1.2420290e-001
1.2719351e-001
1.3354743e-001
1.3101737e-001
1.0646571e-001
5.7876427e-002
-4.8295045e-003
-3.6282219e-002
1.9686886e-003
8.0298074e-002
1.5573347e-001
2.1001931e-001
2.3828243e-001
2.6031065e-001
2.9759347e-001
3.5012525e-001
4.1018161e-001
4.6464717e-001
5.0118768e-001
5.1697344e-001
5.1523989e-001
5.1235396e-001
5.2761012e-001
5.7635802e-001
6.6553342e-001
7.7303421e-001
8.6870813e-001
9.2575902e-001
9.2585373e-001
8.8011712e-001
8.0908692e-001
7.3441625e-001
6.7413229e-001
6.3083464e-001
6.0258240e-001
5.8876604e-001
5.9057921e-001
6.1435473e-001
6.6580951e-001
7.4149972e-001
8.3215290e-001
9.1727686e-001
9.7658539e-001
1.0056872e+000
1.0105493e+000
1.0185891e+000
1.0583748e+000
1.1360829e+000
1.2455910e+000
1.3612800e+000
1.4546700e+000
1.5096543e+000
1.5176767e+000
1.4819603e+000
1.4122536e+000
1.3278264e+000
1.2498810e+000
1.1934171e+000
1.1691248e+000
1.1784029e+000
1.2195160e+000
1.2926800e+000
1.3953959e+000
1.5112240e+000
1.6189557e+000
1.6986505e+000
1.7369860e+000
1.7471325e+000
1.7484365e+000
1.7468443e+000
1.7413800e+000
1.7264423e+000
1.6981122e+000
1.6670032e+000
1.6473292e+000
1.6465394e+000
1.6668713e+000
1.7026939e+000
1.7443177e+000
1.7775571e+000
1.7887745e+000
1.7737540e+000
1.7357770e+000
1.6939400e+000
1.6701900e+000
1.6728703e+000
1.7021099e+000
1.7461029e+000
1.7905174e+000
1.8292600e+000
1.8605270e+000
1.8850400e+000
1.9047328e+000
1.9206083e+000
1.9335464e+000
1.9443600e+000
1.9532626e+000
1.9571943e+000
1.9538820e+000
1.9477971e+000
1.9458729e+000
1.9529662e+000
1.9695020e+000
1.9818338e+000
1.9735322e+000
1.9423540e+000
1.8949077e+000
1.8491920e+000
1.8243594e+000
1.8256485e+000
1.8503729e+000
1.8903668e+000
1.9353360e+000
1.9768280e+000
2.0091372e+000
2.0341761e+000
2.0577812e+000
2.0872886e+000
2.1279414e+000
2.1726599e+000
2.2094903e+000
2.2299719e+000
2.2300580e+000
2.2155383e+000
2.1972528e+000
2.1867518e+000
2.1955860e+000
2.2342012e+000
2.3077161e+000
2.4034929e+000
2.4994855e+000
2.5708075e+000
2.5967777e+000
2.5798979e+000
2.5351157e+000
2.4851427e+000
2.4523575e+000
2.4457903e+000
2.4644804e+000
2.4924486e+000
2.5093410e+000
2.5054829e+000
2.4799254e+000
2.4455407e+000
2.4196215e+000
2.4113011e+000
2.4226592e+000
2.4448159e+000
2.4633441e+000
2.4627056e+000
2.4311981e+000
2.3749607e+000
2.3096597e+000
2.2535996e+000
2.2221251e+000
2.2145777e+000
2.2214966e+000
2.2315319e+000
2.2332814e+000
2.2185142e+000
2.1825082e+000
2.1282620e+000
2.0648451e+000
2.0088050e+000
1.9787879e+000
1.9848220e+000
2.0282345e+000
2.0938463e+000
2.1599312e+000
2.2126629e+000
2.2465963e+000
2.2716720e+000
2.3031154e+000
2.3441164e+000
2.3890250e+000
2.4251001e+000
2.4390862e+000
2.4305296e+000
2.4059305e+000
2.3706572e+000
2.3285768e+000
2.2839146e+000
2.2420740e+000
2.2133651e+000
2.2083800e+000
2.2271957e+000
2.2620969e+000
2.2986219e+000
2.3204229e+000
2.3164501e+000
2.2823820e+000
2.2285869e+000
2.1730533e+000
2.1315057e+000
2.1139872e+000
2.1162167e+000
2.1268489e+000
2.1393449e+000
2.1512022e+000
2.1603541e+000
2.1637211e+000
2.1539938e+000
2.1234739e+000
2.0733881e+000
2.0123429e+000
1.9567564e+000
1.9233775e+000
1.9122308e+000
1.9115075e+000
1.9049171e+000
1.8777820e+000
1.8303983e+000
1.7730050e+000
1.7181169e+000
1.6759878e+000
1.6452389e+000
1.6166524e+000
1.5801361e+000
1.5272808e+000
1.4571228e+000
1.3751676e+000
1.2945695e+000
1.2322457e+000
1.2015789e+000
1.2072899e+000
1.2292360e+000
1.2343643e+000
1.2050925e+000
1.1413565e+000
1.0672500e+000
1.0156636e+000
9.9221361e-001
9.8168987e-001
9.6655244e-001
9.3291456e-001
8.7942868e-001
8.1350607e-001
7.4365956e-001
6.7750931e-001
6.1988944e-001
5.7279265e-001
5.3384137e-001
4.9654576e-001
4.4842544e-001
3.7711930e-001
2.8864160e-001
1.9349228e-001
5.9943944e-002
-1.5938996e-001
-4.3568602e-001
-6.8854970e-001
-8.7445611e-001
-9.8973036e-001
-1.0530854e+000
-1.0943071e+000
-1.1400732e+000
-1.2050776e+000
-1.2673160e+000
-1.2820836e+000
-1.2242200e+000
-1.0949038e+000
-9.3086791e-001
-7.8539968e-001
-6.7616630e-001
-5.8539236e-001
-4.7262096e-001
-2.8569192e-001
2.1938503e-002
4.8051310e-001
1.0732026e+000
1.7457213e+000
2.4355812e+000
3.0983262e+000
3.7796240e+000
4.6024165e+000
5.7171903e+000
7.2969823e+000
9.5706282e+000
1.2722507e+001
1.6521572e+001
2.0422510e+001
2.3998478e+001
2.7057909e+001
2.9809256e+001
3.2744007e+001
3.6264935e+001
4.0535557e+001
4.5170162e+001
4.9455845e+001
5.3182030e+001
5.6647766e+001
6.0254345e+001
6.4327400e+001
6.8802917e+001
7.3309196e+001
7.7566917e+001
8.1443413e+001
8.4875565e+001
8.7848587e+001
9.0393311e+001
9.2573097e+001
9.4452240e+001
9.6056549e+001
9.7262177e+001
9.7846924e+001
9.7742340e+001
9.7028336e+001
9.5725502e+001
9.3773193e+001
9.1114647e+001
8.7750206e+001
8.3867546e+001
7.9782516e+001
7.5627998e+001
7.1341187e+001
6.6865440e+001
6.2209972e+001
5.7509842e+001
5.2995232e+001
4.8830170e+001
4.5090691e+001
4.1809029e+001
3.8980350e+001
3.6551662e+001
3.4434292e+001
3.2565460e+001
3.0919392e+001
2.9486704e+001
2.8263397e+001
2.7237499e+001
2.6390589e+001
2.5712200e+001
2.5203312e+001
2.4867910e+001
2.4706530e+001
2.4701925e+001
2.4825670e+001
2.5079741e+001
2.5497904e+001
2.6114599e+001
2.6946650e+001
2.7951139e+001
2.9033127e+001
3.0119440e+001
3.1177713e+001
3.2209072e+001
3.3270664e+001
3.4583244e+001
3.6467022e+001
3.8927258e+001
4.1600491e+001
4.4051418e+001
4.5917503e+001
4.7175301e+001
4.8129215e+001
4.8981838e+001
4.9732693e+001
5.0291817e+001
5.0527546e+001
5.0367657e+001
4.9833515e+001
4.9029778e+001
4.8114483e+001
4.7163406e+001
4.6144699e+001
4.5001808e+001
4.3685822e+001
4.2191986e+001
4.0568043e+001
3.8890556e+001
3.7230495e+001
3.5528721e+001
3.3584633e+001
3.1239117e+001
2.8456400e+001
2.5421520e+001
2.2516226e+001
1.9958828e+001
1.7714430e+001
1.5664714e+001
1.3667589e+001
1.1653780e+001
9.6487741e+000
7.6954627e+000
5.8377542e+000
4.1490140e+000
2.7260876e+000
1.6107166e+000
7.8157490e-001
2.7297229e-001
1.8439540e-001
5.1059246e-001
1.0992949e+000
1.7935932e+000
2.4819970e+000
3.1197953e+000
3.7320952e+000
4.3360252e+000
4.9160357e+000
5.4349799e+000
5.8407431e+000
6.1002774e+000
6.2119136e+000
6.1884179e+000
6.0539503e+000
5.8403082e+000
5.5823789e+000
5.2958140e+000
4.9669185e+000
4.5644655e+000
4.0509338e+000
3.4375257e+000
2.8027647e+000
2.2315319e+000
1.7920620e+000
1.5193497e+000
1.4067614e+000
1.4360714e+000
1.5849897e+000
1.8265228e+000
2.1296589e+000
2.4711280e+000
2.8412476e+000
3.2407973e+000
3.6796222e+000
4.1594996e+000
4.6660247e+000
5.1713681e+000
5.6348715e+000
6.0201497e+000
6.3028440e+000
6.4700236e+000
6.5211492e+000
6.4581594e+000
6.2839952e+000
6.0109730e+000
5.6643362e+000
5.2695990e+000
4.8473210e+000
4.4118285e+000
3.9713688e+000
3.5412521e+000
3.1459939e+000
2.7904017e+000
2.4453888e+000
2.0735788e+000
1.6436273e+000
1.1661739e+000
7.1266061e-001
3.5158116e-001
1.2050258e-001
2.0429509e-002
7.8256633e-003
4.3002032e-002
1.0933182e-001
2.0151880e-001
3.2225484e-001
4.6475974e-001
6.0446167e-001
7.1532029e-001
7.7788830e-001
7.8900284e-001
7.7000964e-001
7.4890107e-001
7.5416636e-001
8.0624992e-001
9.1070169e-001
1.0615486e+000
1.2396575e+000
1.4262400e+000
1.6078334e+000
1.7740657e+000
1.9174503e+000
2.0288963e+000
2.0969472e+000
2.1166193e+000
2.0958431e+000
2.0501232e+000
2.0026619e+000
1.9748143e+000
1.9809480e+000
2.0298264e+000
2.1222875e+000
2.2540278e+000
2.4145057e+000
2.5916727e+000
2.7742250e+000
2.9561491e+000
3.1413248e+000
3.3374999e+000
3.5546520e+000
3.7990565e+000
4.0692105e+000
4.3625183e+000
4.6782451e+000
5.0222611e+000
5.4109588e+000
5.8591504e+000
6.3733411e+000
6.9502172e+000
7.5716548e+000
8.2179403e+000
8.8738766e+000
9.5281296e+000
1.0174750e+001
1.0806623e+001
1.1409366e+001
1.1964823e+001
1.2450600e+001
1.2844743e+001
1.3131561e+001
1.3294681e+001
1.3314143e+001
1.3176343e+001
1.2879943e+001
1.2434315e+001
1.1866574e+001
1.1204140e+001
1.0472440e+001
9.6982517e+000
8.9182224e+000
8.1687880e+000
7.4813318e+000
6.8732500e+000
6.3342729e+000
5.8412542e+000
5.3587265e+000
4.8531384e+000
4.3027282e+000
3.6993072e+000
3.0582528e+000
2.4061451e+000
1.7808950e+000
1.2199165e+000
7.5316763e-001
3.9897734e-001
1.5444374e-001
7.6199956e-003
-6.1655678e-002
-7.1982600e-002
-3.4726087e-002
3.7034616e-002
1.2296260e-001
2.0319983e-001
2.6358593e-001
2.9763216e-001
3.1251481e-001
3.1475571e-001
3.0220649e-001
2.7200043e-001
2.2475557e-001
1.6595250e-001
1.0959271e-001
6.5879680e-002
3.1856857e-002
4.1667903e-003
-1.3789440e-002
-1.3035581e-002
2.5123805e-002
1.2527823e-001
3.1818098e-001
6.1635011e-001
9.8527205e-001
1.3780725e+000
1.7468357e+000
2.0581105e+000
2.3150373e+000
2.5345280e+000
2.7444017e+000
2.9658215e+000
3.1963348e+000
3.4279001e+000
3.6536229e+000
3.8713870e+000
4.0914049e+000
4.3246574e+000
4.5779319e+000
4.8552685e+000
5.1574197e+000
5.4842143e+000
5.8351536e+000
6.2106180e+000
6.6123791e+000
7.0385923e+000
7.4762273e+000
7.9049187e+000
8.2932758e+000
8.6136045e+000
8.8564367e+000
9.0235920e+000
9.1355877e+000
9.2148447e+000
9.2768612e+000
9.3287630e+000
9.3591270e+000
9.3526602e+000
9.2966022e+000
9.1865273e+000
9.0376253e+000
8.8686285e+000
8.6918955e+000
8.5076542e+000
8.2867107e+000
7.9984159e+000
7.6298141e+000
7.1912961e+000
6.7454047e+000
6.3575048e+000
6.0623012e+000
5.8653102e+000
5.7096386e+000
5.5291138e+000
5.2772422e+000
4.9298353e+000
4.5156054e+000
4.0777454e+000
3.6642449e+000
3.3097847e+000
3.0042129e+000
2.7228000e+000
2.4292593e+000
2.0951340e+000
1.7252953e+000
1.3412920e+000
9.9021912e-001
7.1684504e-001
5.3716666e-001
4.4685417e-001
3.9975578e-001
3.4515500e-001
2.5090009e-001
9.8029144e-002
-1.0484889e-001
-3.4113055e-001
-5.9005952e-001
-8.2471359e-001
-1.0016726e+000
-1.0776820e+000
-1.0241998e+000
-8.3297086e-001
-5.5107880e-001
-2.4098635e-001
2.9947937e-002
2.0900321e-001
2.9706597e-001
3.1440467e-001
3.0171910e-001
2.9764450e-001
3.1598726e-001
3.5513014e-001
3.8166744e-001
3.6246359e-001
2.9307884e-001
1.8455994e-001
7.7359967e-002
1.8751035e-002
5.3598002e-002
2.0570800e-001
4.2543697e-001
6.5226686e-001
8.5240787e-001
1.0002052e+000
1.0756470e+000
1.0678302e+000
9.9419528e-001
8.8996881e-001
8.2889599e-001
8.6903858e-001
9.7268975e-001
1.0786101e+000
1.1271435e+000
1.0918589e+000
1.0719990e+000
1.1728517e+000
1.4009064e+000
1.7233801e+000
2.0515983e+000
2.3073792e+000
2.5098760e+000
2.7028000e+000
