##TITLE=Methyl Ethyl Ketone
##JCAMP-DX=4.24
##DATA TYPE=INFRARED SPECTRUM
##XUNITS=cm-1
##YUNITS=Absorbance
##FIRSTX=900
##LASTX=2300
##XYDATA=(X++(Y..Y))
2296 -0.030122999
2294 -0.030749105
2292 -0.031376205
2290 -0.032002315
2288 -0.032629412
2286 -0.033256516
2284 -0.033882625
2282 -0.034509718
2280 -0.035135832
2278 -0.035762928
2276 -0.036389045
2274 -0.037016131
2272 -0.037642252
2270 -0.038269337
2268 -0.038896438
2266 -0.039522562
2264 -0.040149648
2262 -0.040775772
2260 -0.04140285
2258 -0.042028982
2256 -0.042656057
2254 -0.043282192
2252 -0.043909263
2250 -0.044536367
2248 -0.045162503
2246 -0.04578957
2244 -0.0017015885
2242 0.029864855
2240 0.057438999
2238 0.039411623
2236 0.014687057
2234 -0.024310522
2232 -0.063412063
2230 -0.082035132
2228 -0.098132722
2226 -0.1018361
2224 -0.10190462
2222 -0.08818537
2220 -0.074057057
2218 -0.060903806
2216 -0.055816054
2214 -0.068233043
2212 -0.0792915
2210 -0.086453177
2208 -0.088575229
2206 -0.084712215
2204 -0.09369871
2202 -0.11545123
2200 -0.1373776
2198 -0.1588099
2196 -0.16198143
2194 -0.15463722
2192 -0.14508909
2190 -0.13488683
2188 -0.117637
2186 -0.09812168
2184 -0.071807683
2182 -0.043965232
2180 -0.047051452
2178 -0.055004563
2176 -0.082118511
2174 -0.10850738
2172 -0.10668857
2170 -0.099163786
2168 -0.074225582
2166 -0.054068688
2164 -0.057513576
2162 -0.070259817
2160 -0.1008117
2158 -0.12221393
2156 -0.122833
2154 -0.1085275
2152 -0.07570225
2150 -0.054539129
2148 -0.048687711
2146 -0.059546039
2144 -0.083752096
2142 -0.094449766
2140 -0.094773121
2138 -0.0819126
2136 -0.06245403
2134 -0.0553867
2132 -0.053845711
2130 -0.066793822
2128 -0.084208965
2126 -0.10667942
2124 -0.13023442
2122 -0.14463814
2120 -0.15713738
2118 -0.1615106
2116 -0.16578914
2114 -0.17813981
2112 -0.19071372
2110 -0.19912238
2108 -0.20453186
2106 -0.20272951
2104 -0.20640406
2102 -0.2244681
2100 -0.24804761
2098 -0.27729017
2096 -0.29608712
2094 -0.30005026
2092 -0.29516721
2090 -0.28335637
2088 -0.28006515
2086 -0.28470749
2084 -0.30261782
2082 -0.32860065
2080 -0.36553681
2078 -0.40763012
2076 -0.45668572
2074 -0.50836116
2072 -0.5403316
2070 -0.56582266
2068 -0.56338054
2066 -0.55456519
2064 -0.56726283
2062 -0.58832788
2060 -0.65326631
2058 -0.72736728
2056 -0.80436343
2054 -0.86996371
2052 -0.89220232
2050 -0.89229846
2048 -0.8570196
2046 -0.82006538
2044 -0.79312718
2042 -0.78308648
2040 -0.79606193
2038 -0.81825429
2036 -0.84670985
2034 -0.87182611
2032 -0.89250368
2030 -0.911488
2028 -0.92950106
2026 -0.94966012
2024 -0.97111982
2022 -0.97489566
2020 -0.96925831
2018 -0.95174319
2016 -0.92991596
2014 -0.94214213
2012 -0.96627855
2010 -1.0128465
2008 -1.0642469
2006 -1.0973171
2004 -1.1239355
2002 -1.1371419
2000 -1.1455085
1998 -1.1467277
1996 -1.1451857
1994 -1.1402512
1992 -1.1405658
1990 -1.155769
1988 -1.179244
1986 -1.2124171
1984 -1.2411274
1982 -1.2605199
1980 -1.2704394
1978 -1.2713499
1976 -1.2636172
1974 -1.249388
1972 -1.230198
1970 -1.2080091
1968 -1.2002497
1966 -1.2020986
1964 -1.2205982
1962 -1.2474961
1960 -1.268032
1958 -1.2854475
1956 -1.3120872
1954 -1.3428783
1952 -1.390628
1950 -1.4411923
1948 -1.4614651
1946 -1.4665749
1944 -1.4433708
1942 -1.4173685
1940 -1.4181606
1938 -1.4338971
1936 -1.4683629
1934 -1.498422
1932 -1.5065579
1930 -1.5001312
1928 -1.4789029
1926 -1.4479949
1924 -1.4086803
1922 -1.3626428
1920 -1.312524
1918 -1.285733
1916 -1.2826486
1914 -1.295007
1912 -1.3150754
1910 -1.3198411
1908 -1.3132557
1906 -1.3197736
1904 -1.33472
1902 -1.3583859
1900 -1.3861952
1898 -1.3748757
1896 -1.3470571
1894 -1.3034284
1892 -1.2585086
1890 -1.2493659
1888 -1.2621788
1886 -1.3130057
1884 -1.3788888
1882 -1.4483339
1880 -1.5100657
1878 -1.5496756
1876 -1.5650101
1874 -1.5468922
1872 -1.49652
1870 -1.4125463
1868 -1.3276712
1866 -1.2581028
1864 -1.2387531
1862 -1.2707399
1860 -1.3245928
1858 -1.3848966
1856 -1.4280628
1854 -1.4554229
1852 -1.4666191
1850 -1.4676867
1848 -1.4645439
1846 -1.4581107
1844 -1.4560386
1842 -1.4547135
1840 -1.4463806
1838 -1.4340202
1836 -1.4063672
1834 -1.368837
1832 -1.3078629
1830 -1.2332305
1828 -1.1497166
1826 -1.0753286
1824 -1.0426234
1822 -1.0430899
1820 -1.0769861
1818 -1.1162475
1816 -1.1387485
1814 -1.1392821
1812 -1.1153703
1810 -1.0738075
1808 -1.0216109
1806 -0.952887
1804 -0.8704704
1802 -0.79101479
1800 -0.71619695
1798 -0.66114128
1796 -0.62068433
1794 -0.56403148
1792 -0.49591041
1790 -0.41927078
1788 -0.34054506
1786 -0.29587236
1784 -0.27317148
1782 -0.26634741
1780 -0.26651323
1778 -0.2488638
1776 -0.21301086
1774 -0.13932741
1772 -0.0475237
1770 0.032403424
1768 0.086835518
1766 0.088657945
1764 0.069162935
1762 0.059776746
1760 0.02221873
1758 -0.066023044
1756 -0.14708486
1754 -0.18993188
1752 -0.15977183
1750 -0.054664843
1748 0.073976807
1746 0.20173679
1744 0.22679584
1742 0.1508147
1740 0.036269166
1738 -0.092101634
1736 -0.1268
1734 -0.085514203
1732 -0.029427543
1730 0.027015669
1728 -0.0099210441
1726 -0.10678001
1724 -0.16234408
1722 -0.1588825
1720 0.026628852
1718 0.38921142
1716 0.99145758
1714 1.7157059
1712 2.3851125
1710 3.0050666
1708 3.5867779
1706 4.2991123
1704 5.3021307
1702 6.841578
1700 9.0374012
1698 12.06794
1696 15.893
1694 19.79492
1692 23.442074
1690 26.715487
1688 29.662863
1686 33.190716
1684 37.385921
1682 42.521496
1680 48.405918
1678 53.604076
1676 58.139698
1674 62.41032
1672 66.566208
1670 71.465363
1668 76.929726
1666 82.424652
1664 87.81633
1662 92.677254
1660 97.004265
1658 100.75285
1656 103.85258
1654 106.21037
1652 107.5266
1650 107.49684
1648 106.02663
1646 103.15357
1644 99.601532
1642 96.019714
1640 92.273933
1638 88.313332
1636 83.752586
1634 78.504021
1632 73.302162
1630 68.385918
1628 63.891117
1626 59.792389
1624 55.59444
1622 51.235214
1620 46.937901
1618 42.729061
1616 38.832714
1614 35.275459
1612 32.223431
1610 29.68034
1608 27.581491
1606 25.89385
1604 24.440662
1602 23.235653
1600 22.263662
1598 21.546616
1596 21.078501
1594 20.843218
1592 20.785892
1590 20.865477
1588 21.021408
1586 21.240723
1584 21.508532
1582 21.835321
1580 22.224781
1578 22.735106
1576 23.384171
1574 24.197588
1572 25.172754
1570 26.246643
1568 27.401241
1566 28.581244
1564 29.784866
1562 31.177191
1560 32.856857
1558 35.483776
1556 39.125244
1554 43.150539
1552 47.308861
1550 50.487385
1548 52.714603
1546 54.548141
1544 56.02409
1542 57.344944
1540 58.374138
1538 58.928394
1536 58.890545
1534 58.208881
1532 57.073055
1530 55.745209
1528 54.284378
1526 52.7444
1524 51.000557
1522 48.970844
1520 46.564144
1518 43.706917
1516 40.869255
1514 38.206982
1512 35.760559
1510 33.580246
1508 31.042894
1506 28.016043
1504 24.957279
1502 21.917847
1500 19.34008
1498 17.27878
1496 15.266286
1494 13.296976
1492 11.298078
1490 9.2713003
1488 7.2324901
1486 5.2483029
1484 3.4465082
1482 1.939361
1480 0.85342813
1478 0.21572649
1476 0.051924311
1474 0.43589282
1472 1.2919472
1470 2.2954421
1468 3.2430201
1466 4.0180292
1464 4.5301661
1462 4.9637108
1460 5.3868966
1458 5.830574
1456 6.3074198
1454 6.674788
1452 6.8568144
1450 6.8994679
1448 6.7443047
1446 6.5557857
1444 6.3246975
1442 6.0968661
1440 5.8675661
1438 5.6029382
1436 5.2758584
1434 4.8379402
1432 4.2893171
1430 3.7126026
1428 3.1503201
1426 2.7057571
1424 2.3979793
1422 2.2317064
1420 2.1963987
1418 2.2634091
1416 2.4009285
1414 2.5779929
1412 2.7753215
1410 2.9904916
1408 3.2317686
1406 3.5168028
1404 3.8358586
1402 4.1965117
1400 4.5699563
1398 4.9532313
1396 5.3291497
1394 5.6845961
1392 5.9836783
1390 6.1711335
1388 6.2355347
1386 6.1014152
1384 5.8438144
1382 5.4229817
1380 4.9650455
1378 4.4740267
1376 4.0065856
1374 3.5748243
1372 3.175808
1370 2.8093812
1368 2.4617481
1366 2.1096222
1364 1.7160697
1362 1.2925522
1360 0.84994143
1358 0.4488011
1356 0.17107876
1354 0.00099308044
1352 -0.016510559
1350 0.041142128
1348 0.17596042
1346 0.34738749
1344 0.56219882
1342 0.79073918
1340 1.0395423
1338 1.2714275
1336 1.4630057
1334 1.6220901
1332 1.7177266
1330 1.8190379
1328 1.9359018
1326 2.0953565
1324 2.3243093
1322 2.6000404
1320 2.9346919
1318 3.2843516
1316 3.6387901
1314 3.9559422
1312 4.2263255
1310 4.4470549
1308 4.6237855
1306 4.7741871
1304 4.8984189
1302 4.9886012
1300 5.0447292
1298 5.042872
1296 5.0111856
1294 4.9464598
1292 4.882215
1290 4.8383741
1288 4.80934
1286 4.8108144
1284 4.8184671
1282 4.8360558
1280 4.8590355
1278 4.8940139
1276 4.9360628
1274 4.9927983
1272 5.0517273
1270 5.1167202
1268 5.1900935
1266 5.2767277
1264 5.3759713
1262 5.4883366
1260 5.6008019
1258 5.7127719
1256 5.8224459
1254 5.9316235
1252 6.0460038
1250 6.163259
1248 6.2800169
1246 6.3873501
1244 6.4623098
1242 6.5081191
1240 6.49612
1238 6.4528675
1236 6.3594098
1234 6.2394428
1232 6.0636921
1230 5.8581796
1228 5.5743237
1226 5.2627444
1224 4.8767962
1222 4.4699402
1220 4.0142288
1218 3.5547521
1216 3.0906086
1214 2.6441727
1212 2.2313879
1210 1.8484335
1208 1.5120474
1206 1.2138157
1204 0.96261221
1202 0.74069571
1200 0.54633856
1198 0.35965022
1196 0.18214899
1194 0.020175673
1192 -0.12232503
1190 -0.21990949
1188 -0.2839866
1186 -0.29107374
1184 -0.2656166
1182 -0.18309706
1180 -0.066981763
1178 0.13375445
1176 0.37089401
1174 0.70888609
1172 1.0525193
1170 1.3924899
1168 1.6904588
1166 1.8568028
1164 1.9736363
1162 1.9681671
1160 1.9352583
1158 1.8470296
1156 1.7402614
1154 1.6024179
1152 1.4513618
1150 1.2826673
1148 1.1091232
1146 0.92707032
1144 0.72516358
1142 0.5058288
1140 0.28151238
1138 0.069368273
1136 -0.060897745
1134 -0.12519789
1132 -0.05067293
1130 0.088766247
1128 0.29044652
1126 0.50203699
1124 0.67678303
1122 0.83124375
1120 0.91282481
1118 0.97885174
1116 0.99781597
1114 1.0206244
1112 1.0634365
1110 1.1185074
1108 1.2114438
1106 1.299135
1104 1.3703029
1102 1.4105779
1100 1.3886362
1098 1.339471
1096 1.2508714
1094 1.1739758
1092 1.115656
1090 1.0913639
1088 1.1016172
1086 1.1251736
1084 1.1574019
1082 1.1795655
1080 1.1905457
1078 1.1640841
1076 1.1110715
1074 0.98790157
1072 0.8376807
1070 0.65769976
1068 0.47913092
1066 0.35915715
1064 0.25688079
1062 0.22959523
1060 0.21042123
1058 0.21970862
1056 0.23022029
1054 0.24600041
1052 0.26132557
1050 0.2744447
1048 0.27719578
1046 0.25276965
1044 0.20177752
1042 0.099591047
1040 -0.02641575
1038 -0.18570484
1036 -0.33536699
1034 -0.47151944
1032 -0.58123118
1030 -0.66648853
1028 -0.74158931
1026 -0.80839396
1024 -0.8619498
1022 -0.90733927
1020 -0.93854308
1018 -0.96538347
1016 -1.0028177
1014 -1.0437542
1012 -1.0918932
1010 -1.1409295
1008 -1.1866319
1006 -1.2323207
1004 -1.2819952
1002 -1.3275174
1000 -1.3440754
998 -1.3451477
996 -1.2782643
994 -1.2049761
992 -1.1133628
990 -1.045313
988 -1.031508
986 -1.0317621
984 -1.054456
982 -1.0515332
980 -1.0135549
978 -0.95668918
976 -0.88160825
974 -0.82330066
972 -0.78024775
970 -0.77180439
968 -0.78581035
966 -0.83082151
964 -0.8880837
962 -0.91188997
960 -0.91895533
958 -0.79832572
956 -0.64782691
954 -0.43657336
952 -0.2229628
950 -0.12768435
948 -0.041249644
946 -0.013595465
944 0.0015926734
942 0.050153926
940 0.16543952
938 0.36690399
936 0.55859053
934 0.72109473
932 0.85582787
930 0.93059754
928 0.96902406
926 0.9492113
924 0.91394001
922 0.86005485
920 0.80819046
918 0.75714469
916 0.64433259
914 0.48735029
912 0.28516638
910 0.060407601
908 -0.066623442
906 -0.15488221
904 -0.11585358
902 -0.042752482
900 0.10722485
898 0.26972699
896 0.45636001
