##TITLE=Methyl Ethyl Ketone
##JCAMP-DX=4.24
##DATA TYPE=INFRARED SPECTRUM
##XUNITS=cm-1
##YUNITS=Absorbance
##FIRSTX=900
##LASTX=2300
##XYDATA=(X++(Y..Y))
2296 0.020466
2294 0.020901378
2292 0.021335758
2290 0.021771131
2288 0.022205513
2286 0.022639893
2284 0.023075264
2282 0.023509651
2280 0.023945017
2278 0.024379406
2276 0.024814771
2274 0.025249165
2272 0.025684524
2270 0.026118921
2268 0.026554279
2266 0.02698868
2264 0.027423058
2262 0.02785841
2260 0.028292814
2258 0.028728167
2256 0.029162571
2254 0.029597921
2252 0.030032327
2250 0.030467674
2248 0.030902086
2246 0.031337429
2244 0.0011645401
2242 0.080149494
2240 0.18430421
2238 0.28331271
2236 0.38143972
2234 0.37861595
2232 0.36679086
2230 0.31609112
2228 0.26992992
2226 0.27487248
2224 0.29315904
2222 0.36057207
2220 0.4217416
2218 0.45588037
2216 0.45722857
2214 0.39025503
2212 0.302571
2210 0.18766178
2208 0.098414093
2206 0.043251581
2204 0.029497458
2202 0.053566277
2200 0.080945723
2198 0.1089537
2196 0.13089357
2194 0.14932254
2192 0.19824097
2190 0.26064122
2188 0.33264247
2186 0.40748695
2184 0.44423762
2182 0.47219908
2180 0.48798621
2178 0.50212157
2176 0.52425629
2174 0.54501569
2172 0.54158753
2170 0.52977782
2168 0.48308608
2166 0.43168235
2164 0.3754907
2162 0.34169117
2160 0.36646992
2158 0.43471441
2156 0.57411402
2154 0.71964198
2152 0.86339223
2150 0.96153516
2148 1.0084959
2146 1.0079893
2144 0.97008479
2142 0.92375451
2140 0.87425029
2138 0.84526056
2136 0.82761258
2134 0.81323391
2132 0.79976088
2130 0.78882039
2128 0.77866322
2126 0.80029285
2124 0.82931691
2122 0.88028115
2120 0.93331963
2118 0.96068418
2116 0.97950774
2114 0.9619692
2112 0.94505942
2110 0.95428354
2108 0.98297834
2106 1.0589303
2104 1.1308588
2102 1.1785752
2100 1.193472
2098 1.1593552
2096 1.1253858
2094 1.1010185
2092 1.1129062
2090 1.160872
2088 1.2106755
2086 1.257865
2084 1.2680397
2082 1.2541139
2080 1.2237606
2078 1.1864483
2076 1.1676043
2074 1.1567857
2072 1.190312
2070 1.2379223
2068 1.3074137
2066 1.3810757
2064 1.4099692
2062 1.4281249
2060 1.4254463
2058 1.4220589
2056 1.4371772
2054 1.4526417
2052 1.4564385
2050 1.4506826
2048 1.4265245
2046 1.4035286
2044 1.38976
2042 1.3903831
2040 1.409876
2038 1.4342481
2036 1.4602971
2034 1.4780431
2032 1.4874102
2030 1.4907629
2028 1.4903915
2026 1.4851956
2024 1.477232
2022 1.4846079
2020 1.5002077
2018 1.520891
2016 1.5432
2014 1.5289335
2012 1.5022786
2010 1.4871514
2008 1.4761217
2006 1.4799258
2004 1.4818957
2002 1.444159
2000 1.4012954
1998 1.3799057
1996 1.3840429
1994 1.4489998
1992 1.5191429
1990 1.5667763
1988 1.583254
1986 1.5548579
1984 1.5143372
1982 1.4717667
1980 1.4185077
1978 1.3535548
1976 1.29338
1974 1.2399831
1972 1.2567446
1970 1.3260809
1968 1.4147925
1966 1.5096714
1964 1.4986579
1962 1.431169
1960 1.336692
1958 1.2334569
1956 1.1975486
1954 1.1860139
1952 1.1665795
1950 1.1436337
1948 1.1145306
1946 1.084375
1944 1.0588595
1942 1.0229143
1940 0.94417191
1938 0.85542911
1936 0.77488112
1934 0.72129452
1932 0.71718282
1930 0.73494375
1928 0.76491058
1926 0.80611295
1924 0.85760236
1922 0.93130815
1920 1.0260482
1918 1.093269
1916 1.1310043
1914 1.110996
1912 1.0519674
1910 0.97672045
1908 0.89587134
1906 0.79560035
1904 0.68514401
1902 0.57394922
1900 0.46294239
1898 0.44053948
1896 0.45952287
1894 0.56718373
1892 0.70433342
1890 0.80738652
1888 0.87237388
1886 0.83013093
1884 0.73685998
1882 0.60979325
1880 0.48358864
1878 0.38783816
1876 0.33643502
1874 0.34749964
1872 0.4236123
1870 0.56664497
1868 0.68332249
1866 0.74094701
1864 0.69118994
1862 0.54592061
1860 0.40142229
1858 0.27989474
1856 0.19067743
1854 0.12247674
1852 0.04151658
1850 -0.050579175
1848 -0.1216696
1846 -0.179535
1844 -0.18571362
1842 -0.16513807
1840 -0.11615562
1838 -0.049549595
1836 0.058634657
1834 0.19649741
1832 0.38952863
1830 0.5916627
1828 0.73775035
1826 0.79408109
1824 0.673392
1822 0.45186993
1820 0.17110068
1818 -0.082837671
1816 -0.25032657
1814 -0.32637289
1812 -0.3159588
1810 -0.25201389
1808 -0.15807514
1806 -0.049117137
1804 0.066093057
1802 0.15391783
1800 0.21523005
1798 0.2570312
1796 0.28791857
1794 0.36614031
1792 0.4792572
1790 0.53944278
1788 0.56297547
1786 0.500211
1784 0.3924835
1782 0.32277822
1780 0.28721261
1778 0.33756268
1776 0.4553757
1774 0.66586202
1772 0.89227861
1770 1.0199916
1768 1.015257
1766 0.80369002
1764 0.51173222
1762 0.24808711
1760 0.058190458
1758 -0.10384022
1756 -0.20187671
1754 -0.20050554
1752 -0.071334302
1750 0.17159289
1748 0.38768283
1746 0.53741574
1744 0.49850115
1742 0.29630226
1740 0.12393069
1738 0.0059201419
1736 0.081728794
1734 0.3002528
1732 0.41335413
1730 0.43375647
1728 0.22760537
1726 -0.10892272
1724 -0.29373842
1722 -0.30949619
1720 0.028765023
1718 0.61719012
1716 1.4173515
1714 2.2277834
1712 2.6997612
1710 2.9852464
1708 3.2579439
1706 3.7806699
1704 4.7906094
1702 6.4987531
1700 8.9836378
1698 12.24616
1696 16.163286
1694 19.96693
1692 23.339151
1690 26.320059
1688 29.009302
1686 32.246578
1684 36.10886
1682 40.627949
1680 45.64616
1678 49.990929
1676 53.714085
1674 57.406696
1672 61.152851
1670 65.50943
1668 70.281425
1666 74.767944
1664 78.923553
1662 82.52829
1660 85.669708
1658 88.50209
1656 91.115173
1654 93.658905
1652 96.039658
1650 98.151138
1648 99.311768
1646 98.959679
1644 97.476364
1642 95.298508
1640 92.763161
1638 90.12101
1636 86.932297
1634 83.078072
1632 78.855118
1630 74.418961
1628 70.113663
1626 66.003441
1624 61.77924
1622 57.409508
1620 53.097591
1618 48.86459
1616 44.875542
1614 41.152149
1612 37.824738
1610 34.904972
1608 32.369835
1606 30.196365
1604 28.250818
1602 26.572725
1600 25.199652
1598 24.1607
1596 23.448502
1594 23.023478
1592 22.793858
1590 22.711172
1588 22.7083
1586 22.800915
1584 22.990538
1582 23.33387
1580 23.851906
1578 24.626835
1576 25.679399
1574 26.937969
1572 28.367903
1570 29.80574
1568 31.214359
1566 32.588722
1564 33.931232
1562 35.394714
1560 37.042553
1558 39.284389
1556 42.109074
1554 44.853779
1552 47.369331
1550 49.190521
1548 50.400269
1546 51.53968
1544 52.641788
1542 53.792255
1540 54.764961
1538 55.217533
1536 55.039856
1534 54.193497
1532 52.977226
1530 51.741287
1528 50.534889
1526 49.397598
1524 48.240536
1522 47.007942
1520 45.55484
1518 43.801178
1516 41.885784
1514 39.837799
1512 37.779881
1510 35.735683
1508 33.229671
1506 30.117344
1504 26.876469
1502 23.551514
1500 20.733244
1498 18.494839
1496 16.378143
1494 14.388268
1492 12.416451
1490 10.441264
1488 8.3994493
1486 6.3211107
1484 4.29175
1482 2.4819028
1480 1.1315663
1478 0.3017371
1476 0.056717284
1474 0.39881372
1472 1.1788962
1470 2.038362
1468 2.7491302
1466 3.3195677
1464 3.7337096
1462 4.2086062
1460 4.8568692
1458 5.6407595
1456 6.58986
1454 7.3416104
1452 7.7515574
1450 7.896668
1448 7.6723142
1446 7.4116464
1444 7.1083155
1442 6.8387561
1440 6.6123595
1438 6.3999233
1436 6.1743641
1434 5.8409204
1432 5.3794804
1430 4.8304515
1428 4.2492023
1426 3.7824335
1424 3.4792531
1422 3.3894529
1420 3.4842031
1418 3.711781
1416 3.9663913
1414 4.1328588
1412 4.2411475
1410 4.3029294
1408 4.4059429
1406 4.6204839
1404 4.9203119
1402 5.3340201
1400 5.7742357
1398 6.2319713
1396 6.6177926
1394 6.8633566
1392 6.9761944
1390 6.8632059
1388 6.6478534
1386 6.2774
1384 5.8549924
1382 5.3723197
1380 4.9121032
1378 4.4888415
1376 4.1113858
1374 3.7741413
1372 3.424464
1370 3.0577059
1368 2.6702001
1366 2.2724042
1364 1.8861381
1362 1.5057489
1360 1.1231585
1358 0.75737673
1356 0.43574029
1354 0.18413803
1352 0.060128078
1350 0.023649834
1348 0.10309064
1346 0.23528357
1344 0.45379561
1342 0.69302154
1340 0.9554435
1338 1.1709489
1336 1.2839372
1334 1.3218104
1332 1.2291732
1330 1.140277
1328 1.0702103
1326 1.0700729
1324 1.1808163
1322 1.3782338
1320 1.683676
1318 2.0318763
1316 2.4007699
1314 2.6991737
1312 2.9061348
1310 2.9982314
1308 3.0013483
1306 2.9648144
1304 2.9119389
1302 2.8738492
1300 2.843322
1298 2.8165491
1296 2.7946715
1294 2.7828991
1292 2.7963808
1290 2.8714962
1288 2.9775839
1286 3.1415999
1284 3.3008795
1282 3.4367597
1280 3.5534263
1278 3.6286554
1276 3.705333
1274 3.7871871
1272 3.8834064
1270 4.005723
1268 4.1473804
1266 4.319272
1264 4.5129027
1262 4.7304087
1260 4.9471121
1258 5.1587887
1256 5.3541088
1254 5.5420589
1252 5.7485104
1250 5.9766383
1248 6.240603
1246 6.519475
1244 6.7890191
1242 7.0386038
1240 7.2332792
1238 7.3831415
1236 7.4356513
1234 7.4244337
1232 7.2643518
1230 7.0438352
1228 6.6757154
1226 6.2722459
1224 5.7786021
1222 5.2724352
1220 4.7391596
1218 4.2195568
1216 3.7314427
1214 3.2766523
1212 2.8800671
1210 2.5135465
1208 2.1904142
1206 1.8868799
1204 1.609192
1202 1.3536297
1200 1.1205357
1198 0.90072113
1196 0.68782502
1194 0.46408391
1192 0.23443441
1190 0.005845502
1188 -0.20969294
1186 -0.37312165
1184 -0.49438006
1182 -0.51252204
1180 -0.4781068
1178 -0.32467923
1176 -0.1416032
1174 0.095510423
1172 0.32508576
1170 0.5123769
1168 0.6769644
1166 0.77134115
1164 0.84624892
1162 0.87412381
1160 0.89857733
1158 0.91656655
1156 0.93526828
1154 0.95043194
1152 0.93676865
1150 0.87945753
1148 0.78104877
1146 0.63801718
1144 0.48161846
1142 0.31713122
1140 0.16864598
1138 0.041298509
1136 -0.029647429
1134 -0.053531703
1132 0.029376537
1130 0.16729598
1128 0.37957817
1126 0.61325788
1124 0.85269088
1122 1.0857301
1120 1.279464
1118 1.4611243
1116 1.5976458
1114 1.7304258
1112 1.8503509
1110 1.9603063
1108 2.0372882
1106 2.093765
1104 2.1005726
1102 2.1049411
1100 2.1075726
1098 2.1340179
1096 2.2023287
1094 2.3147771
1092 2.481926
1090 2.659085
1088 2.8389943
1086 2.9716642
1084 3.0675993
1082 3.1569991
1080 3.244096
1078 3.341234
1076 3.4357657
1074 3.4796965
1072 3.5032852
1070 3.49912
1068 3.488945
1066 3.4795706
1064 3.4593401
1062 3.3581891
1060 3.2400372
1058 3.0390432
1056 2.8505287
1054 2.7177444
1052 2.6047506
1050 2.5542221
1048 2.5048733
1046 2.4597857
1044 2.4268794
1042 2.4159608
1040 2.4016149
1038 2.3789749
1036 2.3222899
1034 2.2252164
1032 2.1068816
1030 1.9677857
1028 1.8064208
1026 1.6275635
1024 1.4259617
1022 1.214988
1020 1.0294034
1018 0.85910559
1016 0.74825454
1014 0.65445352
1012 0.57269466
1010 0.48778906
1008 0.34411842
1006 0.19119062
1004 -0.012646973
1002 -0.20888218
1000 -0.34934029
998 -0.46420348
996 -0.46611428
994 -0.45086738
992 -0.38330594
990 -0.32420033
988 -0.2863135
986 -0.28010237
984 -0.33008766
982 -0.404284
980 -0.50872982
978 -0.58088428
976 -0.61657029
974 -0.59593463
972 -0.53164309
970 -0.48616546
968 -0.45597458
966 -0.49936402
964 -0.57488483
962 -0.62954378
960 -0.67260146
958 -0.61263591
956 -0.52947986
954 -0.41912583
952 -0.30730879
950 -0.23888865
948 -0.16900814
946 -0.055687502
944 0.0035293698
942 0.11034435
940 0.33837855
938 0.65894043
936 0.98022223
934 1.3026389
932 1.5890026
930 1.7974521
928 1.9496263
926 2.0119843
924 2.0765462
922 2.1437776
920 2.2125051
918 2.2811742
916 2.2531199
914 2.1558211
912 1.9939566
910 1.798635
908 1.6725446
906 1.5735494
904 1.5665977
902 1.5840856
900 1.697268
898 1.826144
896 2.1364999
