Image.
>Pix99999.
  .
5555
5555
2300
900
5555
2
1
0
701
5555
1.7856000e-002
1.8227469e-002
1.8598936e-002
1.8970406e-002
1.9341875e-002
1.9713342e-002
2.0084811e-002
2.0456281e-002
2.0827750e-002
2.1199217e-002
2.1570686e-002
2.1942155e-002
2.2313623e-002
2.2685092e-002
2.3056561e-002
2.3428028e-002
2.3799498e-002
2.4170967e-002
2.4541460e-002
2.4913877e-002
2.5285373e-002
2.5656842e-002
2.6028309e-002
2.6398811e-002
2.6771212e-002
2.7141750e-002
6.7129652e-003
3.0681880e-003
2.5738625e-002
3.9380442e-002
5.1563069e-002
6.1198648e-002
7.2385348e-002
1.2253438e-001
1.7505416e-001
2.3175049e-001
2.7974251e-001
2.8710568e-001
2.8799471e-001
2.7583927e-001
2.6418287e-001
2.5522602e-001
2.4650380e-001
2.3788951e-001
2.4339519e-001
2.6647234e-001
2.9643229e-001
3.3191025e-001
3.5143965e-001
3.5876361e-001
3.6988926e-001
3.8369927e-001
4.0941805e-001
4.4029316e-001
4.6702343e-001
4.9228922e-001
5.2455640e-001
5.5844897e-001
5.9025675e-001
6.2152356e-001
6.3623768e-001
6.4952016e-001
6.6397774e-001
6.7882901e-001
6.9540673e-001
7.0716351e-001
7.0075601e-001
6.8397415e-001
6.4522672e-001
6.0733730e-001
5.7528001e-001
5.5819315e-001
5.6194007e-001
5.7171315e-001
5.8582759e-001
5.8645928e-001
5.7477039e-001
5.4889393e-001
5.1406801e-001
4.9828100e-001
4.9335229e-001
5.2571696e-001
5.7328761e-001
6.2164706e-001
6.6981357e-001
6.9082564e-001
7.0554334e-001
7.0380718e-001
6.9896477e-001
6.8376333e-001
6.6653812e-001
6.4491767e-001
6.2520444e-001
6.1661601e-001
6.1446065e-001
6.2681943e-001
6.4595222e-001
6.7536706e-001
7.0441079e-001
7.3034215e-001
7.3766142e-001
7.2129405e-001
6.7949164e-001
6.1494952e-001
5.4712242e-001
4.7914499e-001
4.3234807e-001
3.9950776e-001
3.8726696e-001
3.8497972e-001
3.9511815e-001
4.0995592e-001
4.4091642e-001
4.7696623e-001
5.1228559e-001
5.4670841e-001
5.4218841e-001
5.2823514e-001
4.9355564e-001
4.5819241e-001
4.4147715e-001
4.3205214e-001
4.3613183e-001
4.4111821e-001
4.4225913e-001
4.3713859e-001
4.2166001e-001
3.9982203e-001
3.7078983e-001
3.4541446e-001
3.2538712e-001
3.1046814e-001
2.9966268e-001
2.7537161e-001
2.4029988e-001
2.0234257e-001
1.6396417e-001
1.6072054e-001
1.7596860e-001
2.0391960e-001
2.3591600e-001
2.4476378e-001
2.4520057e-001
2.3464066e-001
2.1994628e-001
1.8684621e-001
1.4640315e-001
8.8717028e-002
3.0728681e-002
-7.5342190e-003
-3.2478355e-002
-3.0934112e-002
-2.4904994e-002
-2.5548980e-002
-3.5409860e-002
-6.1105169e-002
-9.4681926e-002
-1.3393176e-001
-1.8227306e-001
-2.3836568e-001
-2.8759286e-001
-3.2830459e-001
-3.3100614e-001
-3.0549198e-001
-2.6411554e-001
-2.1605478e-001
-2.0428453e-001
-2.1289505e-001
-2.3556000e-001
-2.6347172e-001
-2.7636927e-001
-2.8439862e-001
-3.0709022e-001
-3.3693013e-001
-3.8072133e-001
-4.2726001e-001
-4.6636486e-001
-4.9874657e-001
-5.2316213e-001
-5.4640746e-001
-5.7477283e-001
-6.1033320e-001
-6.5458316e-001
-6.9868535e-001
-7.3573363e-001
-7.5223774e-001
-7.4276161e-001
-7.1637964e-001
-6.8055844e-001
-6.6692632e-001
-6.7810398e-001
-6.9787908e-001
-7.1983778e-001
-7.1649462e-001
-6.9574833e-001
-6.8605620e-001
-6.8439639e-001
-7.0378667e-001
-7.3335153e-001
-7.3894107e-001
-7.3406571e-001
-7.1307480e-001
-6.8943763e-001
-6.9412309e-001
-7.1544313e-001
-7.6598781e-001
-8.2430691e-001
-8.7407172e-001
-9.1233724e-001
-9.2890269e-001
-9.3286198e-001
-9.2285758e-001
-9.0020913e-001
-8.6279607e-001
-8.2019621e-001
-7.8231186e-001
-7.6594448e-001
-7.7575606e-001
-7.9891562e-001
-8.2599878e-001
-8.5242945e-001
-8.7541580e-001
-8.9842635e-001
-9.1978341e-001
-9.2500877e-001
-9.1845536e-001
-8.9459795e-001
-8.6074430e-001
-8.3523768e-001
-8.1537986e-001
-7.9483598e-001
-7.7156210e-001
-7.2142005e-001
-6.5208209e-001
-5.6127530e-001
-4.6778849e-001
-4.0278256e-001
-3.6901775e-001
-3.7592021e-001
-4.0422475e-001
-4.3646342e-001
-4.6839499e-001
-4.9521112e-001
-5.1311642e-001
-5.2364802e-001
-5.0631648e-001
-4.6260825e-001
-4.1168687e-001
-3.5828298e-001
-3.2607228e-001
-3.1058142e-001
-2.7958575e-001
-2.3848279e-001
-1.7829505e-001
-1.1056902e-001
-6.2680356e-002
-2.9313561e-002
-7.2103227e-003
8.9070722e-003
3.6654629e-002
7.4917659e-002
1.3264494e-001
1.9467054e-001
2.2584689e-001
2.2644091e-001
1.8175322e-001
1.2323720e-001
8.5959494e-002
2.8903799e-002
-7.1188882e-002
-1.6470757e-001
-2.2483683e-001
-2.3687497e-001
-2.0110710e-001
-1.5653932e-001
-1.2059928e-001
-1.4334041e-001
-2.2550513e-001
-3.1411743e-001
-3.9584774e-001
-3.8608000e-001
-3.0292952e-001
-2.0268479e-001
-1.0131571e-001
-1.0195735e-001
-1.7038636e-001
-1.9938585e-001
-1.7333300e-001
1.8874452e-002
3.5418725e-001
8.6529112e-001
1.4626746e+000
1.9884194e+000
2.4709392e+000
2.9545479e+000
3.5878000e+000
4.5151572e+000
5.9864717e+000
8.1229858e+000
1.1153427e+001
1.5050858e+001
1.9065741e+001
2.2845537e+001
2.6215351e+001
2.9215189e+001
3.2736320e+001
3.6877026e+001
4.1903526e+001
4.7634319e+001
5.2681084e+001
5.7071358e+001
6.1267315e+001
6.5412437e+001
7.0396164e+001
7.6022263e+001
8.1703300e+001
8.7273552e+001
9.2211731e+001
9.6490334e+001
1.0000326e+002
1.0273629e+002
1.0467673e+002
1.0568400e+002
1.0564224e+002
1.0438166e+002
1.0184785e+002
9.8708069e+001
9.5556572e+001
9.2284897e+001
8.8857010e+001
8.4779587e+001
7.9921425e+001
7.4926857e+001
7.0030388e+001
6.5433098e+001
6.1144535e+001
5.6781319e+001
5.2295948e+001
4.7966274e+001
4.3811459e+001
3.9994144e+001
3.6531105e+001
3.3524990e+001
3.0976181e+001
2.8816092e+001
2.7021065e+001
2.5453989e+001
2.4139215e+001
2.3081966e+001
2.2294012e+001
2.1751999e+001
2.1433847e+001
2.1276703e+001
2.1255871e+001
2.1326855e+001
2.1482079e+001
2.1709789e+001
2.2012011e+001
2.2386894e+001
2.2901361e+001
2.3575228e+001
2.4417179e+001
2.5417343e+001
2.6472832e+001
2.7556799e+001
2.8649822e+001
2.9755152e+001
3.1078541e+001
3.2723259e+001
3.5323734e+001
3.8952000e+001
4.2969719e+001
4.7138451e+001
5.0396385e+001
5.2772514e+001
5.4805962e+001
5.6500957e+001
5.7979393e+001
5.9037640e+001
5.9398232e+001
5.9022743e+001
5.7987633e+001
5.6540298e+001
5.5011185e+001
5.3436420e+001
5.1846500e+001
5.0125095e+001
4.8191502e+001
4.5969704e+001
4.3392757e+001
4.0848358e+001
3.8468254e+001
3.6238159e+001
3.4193699e+001
3.1715031e+001
2.8654663e+001
2.5550354e+001
2.2449444e+001
1.9822412e+001
1.7723289e+001
1.5658857e+001
1.3624784e+001
1.1558702e+001
9.4704485e+000
7.3919678e+000
5.3903942e+000
3.5859017e+000
2.0753639e+000
9.6581602e-001
2.8400427e-001
5.5455957e-002
3.7469584e-001
1.1875757e+000
2.1907740e+000
3.1950090e+000
4.0448608e+000
4.6346555e+000
5.1216221e+000
5.5578790e+000
5.9959979e+000
6.4477201e+000
6.8176460e+000
7.0444989e+000
7.1362057e+000
7.0293984e+000
6.8589716e+000
6.6047721e+000
6.3418579e+000
6.0658145e+000
5.7611303e+000
5.4035945e+000
4.9357958e+000
4.3594775e+000
3.7563372e+000
3.1668880e+000
2.6963415e+000
2.3628983e+000
2.1718154e+000
2.1193671e+000
2.1820548e+000
2.3303742e+000
2.5356181e+000
2.7662845e+000
3.0164518e+000
3.2828846e+000
3.5740778e+000
3.8871217e+000
4.2242761e+000
4.5828719e+000
4.9708562e+000
5.3697572e+000
5.7771111e+000
6.1292825e+000
6.3679409e+000
6.4827790e+000
6.3965650e+000
6.1849909e+000
5.8034616e+000
5.3640084e+000
4.8621783e+000
4.3563542e+000
3.8636580e+000
3.4090281e+000
3.0014081e+000
2.6436183e+000
2.2999363e+000
1.9118406e+000
1.4822551e+000
1.0062828e+000
5.5953276e-001
2.3681961e-001
2.8747328e-002
-7.4886172e-003
4.0853515e-002
1.7134789e-001
3.3023608e-001
5.3017879e-001
7.4869323e-001
9.9985290e-001
1.2515500e+000
1.4966400e+000
1.7181913e+000
1.8849611e+000
2.0440249e+000
2.1941223e+000
2.3661015e+000
2.5783718e+000
2.8179307e+000
3.0966108e+000
3.3901620e+000
3.6956100e+000
3.9861968e+000
4.2480292e+000
4.4646864e+000
4.6297264e+000
4.7402334e+000
4.8052559e+000
4.8252964e+000
4.8174486e+000
4.7812657e+000
4.7312713e+000
4.6649990e+000
4.5949211e+000
4.5227094e+000
4.4564242e+000
4.4055500e+000
4.3660707e+000
4.3518810e+000
4.3470416e+000
4.3622837e+000
4.3813815e+000
4.4097490e+000
4.4401269e+000
4.4774208e+000
4.5256681e+000
4.5919638e+000
4.6793041e+000
4.7919817e+000
4.9197941e+000
5.0609999e+000
5.2002344e+000
5.3353314e+000
5.4611907e+000
5.5793209e+000
5.6907058e+000
5.7957249e+000
5.8878245e+000
5.9652925e+000
6.0085807e+000
6.0227141e+000
5.9727430e+000
5.8821254e+000
5.6985083e+000
5.4733486e+000
5.1438961e+000
4.7845163e+000
4.3470693e+000
3.8965793e+000
3.4166465e+000
2.9434700e+000
2.4867401e+000
2.0530334e+000
1.6618892e+000
1.3020631e+000
9.9003243e-001
7.1259332e-001
4.7835979e-001
2.7355790e-001
9.9870868e-002
-5.1132992e-002
-1.7896643e-001
-2.7752706e-001
-3.5131714e-001
-3.9071879e-001
-4.0825021e-001
-3.9797351e-001
-3.6850035e-001
-2.9771101e-001
-1.9495645e-001
5.6049228e-004
2.3591202e-001
5.8176380e-001
9.3560719e-001
1.2925541e+000
1.6094023e+000
1.7991107e+000
1.9345337e+000
1.9350810e+000
1.8983588e+000
1.7869509e+000
1.6542528e+000
1.4859023e+000
1.3022435e+000
1.0978441e+000
8.8478142e-001
6.6458607e-001
4.5415306e-001
2.6105964e-001
1.1953544e-001
2.7724573e-002
1.9749057e-002
6.6555768e-002
2.0549043e-001
3.8313311e-001
5.7937974e-001
7.7279973e-001
9.2529571e-001
1.0597882e+000
1.1372840e+000
1.2033169e+000
1.2363428e+000
1.2752928e+000
1.3427023e+000
1.4277763e+000
1.5677729e+000
1.7048301e+000
1.8296738e+000
1.9104439e+000
1.9027582e+000
1.8589735e+000
1.7619429e+000
1.6755626e+000
1.6048220e+000
1.5554953e+000
1.5292149e+000
1.5213279e+000
1.5291514e+000
1.5492669e+000
1.5717674e+000
1.5585170e+000
1.5231972e+000
1.4433596e+000
1.3486565e+000
1.2529188e+000
1.1577991e+000
1.0709705e+000
9.8879957e-001
9.3320727e-001
8.8238281e-001
8.5323989e-001
8.1793141e-001
7.5571078e-001
6.9210958e-001
6.2543893e-001
5.7106638e-001
5.4534608e-001
5.1440519e-001
4.7088397e-001
3.9993811e-001
2.8776407e-001
1.5769140e-001
7.3551238e-003
-1.4562045e-001
-2.9912737e-001
-4.3727124e-001
-5.6088209e-001
-6.4418888e-001
-7.0445979e-001
-7.4178201e-001
-7.7347529e-001
-8.3772486e-001
-9.1383410e-001
-1.0243529e+000
-1.1374129e+000
-1.2133400e+000
-1.2817415e+000
-1.2974650e+000
-1.3122481e+000
-1.3231869e+000
-1.3294508e+000
-1.3144857e+000
-1.2896290e+000
-1.2350250e+000
-1.1904296e+000
-1.1694808e+000
-1.1633343e+000
-1.1815515e+000
-1.1841698e+000
-1.1649381e+000
-1.1313710e+000
-1.0837286e+000
-1.0462508e+000
-1.0165179e+000
-9.8361367e-001
-9.4730800e-001
-8.8768452e-001
-8.1694162e-001
-7.3560703e-001
-6.5150982e-001
-5.7756203e-001
-5.0563711e-001
-4.2771873e-001
-3.4816119e-001
-2.4580789e-001
-1.4289692e-001
-4.6476644e-002
9.1676600e-004
2.8761260e-002
9.1480836e-002
1.9322920e-001
3.0344802e-001
4.3813464e-001
5.5386114e-001
6.2876731e-001
6.8383831e-001
7.0774418e-001
7.4986959e-001
8.1401807e-001
8.6532456e-001
9.0338695e-001
8.6363554e-001
7.6919305e-001
6.9265723e-001
6.2758243e-001
7.1821594e-001
8.6953419e-001
1.0687155e+000
1.2806869e+000
1.3940800e+000
1.4918894e+000
1.5544000e+000
