Image.
>Pix99999.
  .
5555
5555
2300
900
5555
2
1
0
701
5555
7.5055003e-002
7.6616764e-002
7.8177534e-002
7.9739295e-002
8.1300065e-002
8.2861833e-002
8.4423594e-002
8.5984372e-002
8.7546125e-002
8.9107893e-002
9.0668671e-002
9.2230417e-002
9.3791209e-002
9.5352955e-002
9.6914724e-002
9.8475508e-002
1.0003432e-001
1.0160187e-001
1.0315989e-001
1.0471766e-001
1.0628514e-001
1.0784321e-001
1.0940097e-001
1.1096841e-001
1.1252651e-001
1.1409393e-001
6.3461348e-002
2.3723743e-003
1.6128000e-002
-1.8839685e-002
-6.1565857e-002
-1.2018898e-001
-1.7761509e-001
-1.8260309e-001
-1.8169245e-001
-1.5428001e-001
-1.3340376e-001
-1.4901972e-001
-1.7834035e-001
-2.4369983e-001
-2.9231170e-001
-2.9985952e-001
-2.5304720e-001
-1.2146510e-001
3.4307279e-002
2.1374150e-001
3.5200441e-001
4.4918627e-001
4.9883279e-001
5.1501215e-001
5.0495857e-001
4.8101488e-001
4.4196779e-001
3.9665696e-001
3.8070375e-001
3.7445393e-001
4.4070080e-001
5.2351302e-001
6.6224349e-001
8.0900812e-001
9.3939942e-001
1.0617738e+000
1.1098597e+000
1.1484441e+000
1.1726154e+000
1.2114393e+000
1.3082168e+000
1.4178236e+000
1.5457715e+000
1.6594502e+000
1.7429501e+000
1.7983547e+000
1.8174263e+000
1.8210602e+000
1.8113734e+000
1.8333250e+000
1.8845046e+000
1.9787769e+000
2.1006825e+000
2.1880555e+000
2.2550600e+000
2.2177551e+000
2.1376517e+000
2.0122447e+000
1.8737640e+000
1.7900529e+000
1.7193123e+000
1.7144656e+000
1.7227811e+000
1.7832543e+000
1.8530743e+000
1.9378771e+000
2.0176435e+000
2.0669348e+000
2.1087406e+000
2.1411793e+000
2.1665399e+000
2.1790311e+000
2.1660521e+000
2.1133876e+000
2.0583000e+000
2.0071154e+000
1.9943326e+000
2.0206914e+000
2.0700150e+000
2.1342402e+000
2.1793308e+000
2.2106755e+000
2.1978629e+000
2.1623638e+000
2.1198199e+000
2.0753040e+000
2.0986080e+000
2.1436453e+000
2.2255383e+000
2.3139608e+000
2.3370931e+000
2.3414652e+000
2.2938604e+000
2.2390311e+000
2.2009656e+000
2.1796980e+000
2.2040787e+000
2.2512791e+000
2.3310301e+000
2.4030607e+000
2.4461501e+000
2.4468424e+000
2.3945103e+000
2.3282840e+000
2.2606914e+000
2.2256651e+000
2.2218792e+000
2.2423692e+000
2.2757235e+000
2.2975936e+000
2.3093376e+000
2.3061526e+000
2.2951052e+000
2.2594407e+000
2.2151201e+000
2.1369436e+000
2.0497501e+000
1.9731171e+000
1.9016851e+000
1.8506285e+000
1.8096012e+000
1.7961650e+000
1.8001623e+000
1.8396190e+000
1.8895786e+000
1.9385947e+000
1.9703938e+000
1.9729398e+000
1.9402541e+000
1.8702600e+000
1.7760406e+000
1.6602937e+000
1.5594106e+000
1.4760715e+000
1.4408514e+000
1.4437310e+000
1.4847591e+000
1.5471082e+000
1.5850120e+000
1.6053514e+000
1.5535827e+000
1.4682045e+000
1.3601841e+000
1.2451850e+000
1.1606658e+000
1.0901290e+000
1.0656571e+000
1.0622213e+000
1.0800095e+000
1.0948501e+000
1.0646384e+000
1.0052196e+000
9.2775381e-001
8.5853887e-001
8.3368170e-001
8.3415157e-001
8.4635079e-001
8.7548172e-001
9.1353714e-001
1.0060110e+000
1.1586397e+000
1.3378258e+000
1.5355994e+000
1.6307880e+000
1.6417201e+000
1.5731574e+000
1.4571406e+000
1.3505162e+000
1.2520154e+000
1.1285615e+000
9.9286079e-001
8.7508756e-001
7.6998240e-001
7.6203525e-001
7.9620576e-001
8.5437548e-001
9.1307312e-001
9.3032378e-001
9.1970128e-001
8.7761313e-001
8.1486064e-001
7.2927707e-001
6.4675200e-001
5.8079392e-001
5.7172501e-001
6.3598263e-001
7.7462250e-001
9.7643018e-001
1.1174498e+000
1.1831493e+000
1.0848206e+000
8.5882258e-001
6.1218333e-001
3.6754772e-001
2.2302315e-001
1.4513327e-001
2.2589077e-001
3.9471385e-001
6.9181716e-001
1.0447233e+000
1.2220192e+000
1.2874695e+000
1.0672212e+000
7.2423136e-001
4.1015702e-001
1.5622555e-001
8.0779985e-002
1.0980914e-001
2.4760336e-001
3.7395272e-001
3.9290133e-001
3.1160915e-001
1.0796372e-001
-9.9896051e-002
-2.5865343e-001
-3.2852602e-001
-3.0803180e-001
-2.6455212e-001
-2.2343537e-001
-1.8420900e-001
-1.4350460e-001
-4.1098148e-004
2.2559333e-001
5.2161437e-001
8.5568929e-001
1.0157168e+000
1.0611800e+000
8.8804990e-001
6.0248893e-001
3.4768099e-001
1.3247696e-001
2.7718758e-002
1.1662995e-002
1.2976025e-001
3.2347029e-001
5.3014374e-001
6.5875667e-001
5.8285582e-001
3.8404655e-001
1.6036549e-001
8.8761207e-003
-1.1836872e-002
2.5768183e-002
-3.0090004e-002
-1.1082885e-001
-1.5216632e-001
-1.4992058e-002
3.0835187e-001
6.9132125e-001
1.0875617e+000
1.2226251e+000
1.1321435e+000
9.5223820e-001
7.2756833e-001
6.1527401e-001
5.7670975e-001
4.1640076e-001
1.7065334e-001
-1.4841777e-001
-4.6429342e-001
-5.5004185e-001
-4.0957561e-001
1.4695093e-002
6.2657034e-001
1.4852554e+000
2.4123993e+000
3.1915076e+000
3.9264505e+000
4.6840701e+000
5.7132459e+000
7.1874962e+000
9.2574062e+000
1.1979817e+001
1.5032013e+001
1.8253143e+001
2.1132200e+001
2.3501484e+001
2.5729862e+001
2.7925297e+001
3.0718727e+001
3.4121502e+001
3.7932152e+001
4.2043961e+001
4.5623653e+001
4.8732258e+001
5.1865391e+001
5.5060127e+001
5.8703899e+001
6.2666695e+001
6.6589500e+001
7.0461548e+001
7.4166977e+001
7.7710999e+001
8.1048805e+001
8.4232658e+001
8.7319572e+001
9.0269997e+001
9.3065140e+001
9.5125397e+001
9.6072182e+001
9.6085968e+001
9.5383598e+001
9.4161461e+001
9.2560905e+001
9.0259644e+001
8.7236694e+001
8.3786568e+001
8.0087402e+001
7.6451042e+001
7.2920357e+001
6.9204041e+001
6.5274788e+001
6.1209583e+001
5.7036644e+001
5.2916428e+001
4.8901344e+001
4.5276821e+001
4.2083981e+001
3.9375469e+001
3.7108242e+001
3.5081890e+001
3.3282509e+001
3.1648138e+001
3.0194019e+001
2.8907501e+001
2.7800964e+001
2.6868902e+001
2.6121307e+001
2.5551765e+001
2.5181814e+001
2.4994520e+001
2.5020731e+001
2.5245358e+001
2.5731873e+001
2.6495256e+001
2.7428436e+001
2.8515215e+001
2.9537025e+001
3.0455959e+001
3.1334257e+001
3.2176342e+001
3.3228729e+001
3.4560795e+001
3.6544140e+001
3.9115643e+001
4.1557491e+001
4.3774445e+001
4.5373318e+001
4.6476860e+001
4.7552105e+001
4.8618713e+001
4.9746723e+001
5.0663902e+001
5.1124802e+001
5.1072201e+001
5.0506985e+001
4.9745373e+001
4.9000565e+001
4.8270061e+001
4.7553947e+001
4.6735146e+001
4.5775337e+001
4.4416748e+001
4.2592079e+001
4.0579773e+001
3.8438057e+001
3.6442760e+001
3.4600273e+001
3.2320454e+001
2.9440922e+001
2.6392075e+001
2.3252623e+001
2.0620472e+001
1.8567259e+001
1.6607857e+001
1.4718710e+001
1.2795471e+001
1.0817028e+001
8.8091908e+000
6.7899284e+000
4.8006978e+000
3.0107965e+000
1.5806140e+000
6.0172087e-001
1.3711572e-001
2.8149426e-001
1.0858757e+000
1.9903010e+000
2.7861626e+000
3.5492036e+000
4.2508359e+000
5.0342069e+000
5.9619694e+000
6.7657099e+000
7.3480201e+000
7.5094481e+000
7.1047721e+000
6.5992937e+000
6.0027847e+000
5.4579964e+000
4.9885378e+000
4.6075568e+000
4.3321514e+000
4.1319189e+000
3.9521744e+000
3.6543131e+000
3.1986320e+000
2.6362650e+000
2.0680001e+000
1.6600842e+000
1.4583702e+000
1.4696110e+000
1.6054968e+000
1.7799546e+000
1.9243942e+000
1.9804320e+000
2.0603082e+000
2.1980429e+000
2.4201686e+000
2.7526371e+000
3.1340232e+000
3.5918221e+000
4.0618520e+000
4.5501609e+000
4.9517288e+000
5.2029243e+000
5.3068857e+000
5.2135034e+000
5.0738792e+000
4.8795099e+000
4.6836777e+000
4.4878182e+000
4.3093433e+000
4.1436100e+000
3.9949143e+000
3.8186173e+000
3.5808280e+000
3.2770338e+000
2.9169462e+000
2.5377042e+000
2.1571279e+000
1.7581319e+000
1.3368891e+000
9.1953629e-001
5.4592544e-001
2.5665474e-001
9.0467587e-002
5.1101865e-003
-1.2929063e-002
-4.8759203e-002
2.9647477e-002
1.6781579e-001
3.9859688e-001
5.9168369e-001
7.0772660e-001
7.0770764e-001
5.6445760e-001
4.2074910e-001
3.0129001e-001
2.7539408e-001
3.6679560e-001
5.5445874e-001
8.3392262e-001
1.1374395e+000
1.4270800e+000
1.6167080e+000
1.7049897e+000
1.6773460e+000
1.5879480e+000
1.4870499e+000
1.4010553e+000
1.3668740e+000
1.3617572e+000
1.3938391e+000
1.4316143e+000
1.4690373e+000
1.5017009e+000
1.5302045e+000
1.5653440e+000
1.6245292e+000
1.6974787e+000
1.8099282e+000
1.9283172e+000
2.0632908e+000
2.2008729e+000
2.3359320e+000
2.4796395e+000
2.6324832e+000
2.8043401e+000
3.0136836e+000
3.2580702e+000
3.5618687e+000
3.9198921e+000
4.3394966e+000
4.8020968e+000
5.3067589e+000
5.8439441e+000
6.4164877e+000
7.0397978e+000
7.6939001e+000
8.3783579e+000
9.0597563e+000
9.7006683e+000
1.0297921e+001
1.0785900e+001
1.1204495e+001
1.1462080e+001
1.1645761e+001
1.1641443e+001
1.1579085e+001
1.1358239e+001
1.1081693e+001
1.0671022e+001
1.0213098e+001
9.6658173e+000
9.1138725e+000
8.5552311e+000
8.0053997e+000
7.4652739e+000
6.9143238e+000
6.3503242e+000
5.7715869e+000
5.1756992e+000
4.5627904e+000
3.9375286e+000
3.3150241e+000
2.7073114e+000
2.1555991e+000
1.6513631e+000
1.2428269e+000
8.9127684e-001
6.4546341e-001
4.5499393e-001
3.8878626e-001
3.6820999e-001
4.6150261e-001
5.5928439e-001
6.5028000e-001
7.0677412e-001
6.6143745e-001
5.9693611e-001
4.8775899e-001
3.8794482e-001
3.0488622e-001
2.2040686e-001
1.3290316e-001
4.6370149e-002
-3.5139807e-002
-8.8392913e-002
-1.0823750e-001
-1.0428990e-001
-7.5341210e-002
-2.2497959e-002
5.1515058e-002
1.5587057e-001
2.8827620e-001
5.5099380e-001
8.8856089e-001
1.3553040e+000
1.8585093e+000
2.3649499e+000
2.8565829e+000
3.2682681e+000
3.6649258e+000
4.0210285e+000
4.3677025e+000
4.6771507e+000
4.9827857e+000
5.2783918e+000
5.5911698e+000
5.9466696e+000
6.3040361e+000
6.6643720e+000
7.0172453e+000
7.3620286e+000
7.7313571e+000
8.1298466e+000
8.5223522e+000
8.9016056e+000
9.2231150e+000
9.4969921e+000
9.7450762e+000
9.9726753e+000
1.0168660e+001
1.0339857e+001
1.0436281e+001
1.0508046e+001
1.0571706e+001
1.0640497e+001
1.0759058e+001
1.0876400e+001
1.0945470e+001
1.0992214e+001
1.0916742e+001
1.0830114e+001
1.0689845e+001
1.0530151e+001
1.0302959e+001
1.0024876e+001
9.6256714e+000
9.1993647e+000
8.7266998e+000
8.2732239e+000
7.8507171e+000
7.4532404e+000
7.0825286e+000
6.7051902e+000
6.3160462e+000
5.8801608e+000
5.4119101e+000
4.9465771e+000
4.4937072e+000
4.1506929e+000
3.8589833e+000
3.6559057e+000
3.4747248e+000
3.2732811e+000
3.0647953e+000
2.8179522e+000
2.5672228e+000
2.3107202e+000
2.0525632e+000
1.7842131e+000
1.5133470e+000
1.2314899e+000
9.4705778e-001
6.5613759e-001
3.6726066e-001
8.5598961e-002
-1.6247836e-001
-3.4988442e-001
-4.6807009e-001
-4.9065721e-001
-4.3424845e-001
-2.9074830e-001
-5.7212055e-002
2.4993291e-001
5.9215289e-001
9.4936484e-001
1.2086551e+000
1.4165894e+000
1.4882530e+000
1.5127840e+000
1.4504395e+000
1.3661001e+000
1.1908860e+000
1.0005568e+000
7.0482218e-001
4.0979189e-001
1.8422678e-001
1.4682189e-003
4.7483355e-002
1.9772959e-001
6.1284566e-001
1.0229914e+000
1.4153551e+000
1.7215602e+000
1.8426576e+000
1.8959428e+000
1.8411350e+000
1.7916260e+000
1.7479291e+000
1.7010531e+000
1.6514833e+000
1.5867243e+000
1.5119909e+000
1.4726394e+000
1.4501410e+000
1.4542917e+000
1.4650065e+000
1.4798754e+000
1.4937351e+000
1.6650600e+000
1.8612163e+000
2.3619001e+000
