##TITLE=Methyl Ethyl Ketone
##JCAMP-DX=4.24
##DATA TYPE=INFRARED SPECTRUM
##XUNITS=cm-1
##YUNITS=Absorbance
##FIRSTX=900
##LASTX=2300
##XYDATA=(X++(Y..Y))
2296 -0.026711
2294 -0.027267205
2292 -0.027822411
2290 -0.028378611
2288 -0.028933823
2286 -0.029490022
2284 -0.030046226
2282 -0.03060144
2280 -0.031156646
2278 -0.031712841
2276 -0.032268059
2274 -0.032823265
2272 -0.03337945
2270 -0.033938598
2268 -0.034490939
2266 -0.035036299
2264 -0.035602041
2262 -0.036198478
2260 -0.036714755
2258 -0.037120063
2256 -0.037820715
2254 -0.038936131
2252 -0.038954504
2250 -0.037425917
2248 -0.039974667
2246 -0.043329179
2244 -0.0016138572
2242 0.11845762
2240 0.25143719
2238 0.32306522
2236 0.33613312
2234 0.31505775
2232 0.28170016
2230 0.2569384
2228 0.26128927
2226 0.3100675
2224 0.39775428
2222 0.51069474
2220 0.62706703
2218 0.7260533
2216 0.80042398
2214 0.85013688
2212 0.88767481
2210 0.92942262
2208 0.99243695
2206 1.0899773
2204 1.2190717
2202 1.366789
2200 1.4990966
2198 1.580826
2196 1.5977215
2194 1.5510375
2192 1.4772235
2190 1.4191006
2188 1.4006803
2186 1.4338692
2184 1.506168
2182 1.5986376
2180 1.6969137
2178 1.7918181
2176 1.8889428
2174 1.9975318
2172 2.1217577
2170 2.257843
2168 2.3784111
2166 2.454433
2164 2.4839239
2162 2.4794273
2160 2.4759912
2158 2.5063486
2156 2.56496
2154 2.6331911
2152 2.6930418
2150 2.7334058
2148 2.7675374
2146 2.8117251
2144 2.8575165
2142 2.887954
2140 2.8877234
2138 2.850306
2136 2.8015802
2134 2.7752078
2132 2.7892745
2130 2.8489692
2128 2.9315
2126 3.0083835
2124 3.0701408
2122 3.1182208
2120 3.1686761
2118 3.2361126
2116 3.30844
2114 3.365128
2112 3.3932195
2110 3.3884225
2108 3.3695395
2106 3.3611822
2104 3.3763492
2102 3.4193871
2100 3.4779298
2098 3.5351667
2096 3.5832286
2094 3.6201923
2092 3.6551147
2090 3.6990049
2088 3.7533798
2086 3.8148248
2084 3.8750293
2082 3.9248476
2080 3.9596012
2078 3.9775176
2076 3.9811642
2074 3.974921
2072 3.9637041
2070 3.9517372
2068 3.9405077
2066 3.9298415
2064 3.919173
2062 3.9082384
2060 3.8980856
2058 3.8919179
2056 3.8991201
2054 3.9293365
2052 3.9822831
2050 4.0503945
2048 4.1125007
2046 4.1467748
2044 4.1500139
2042 4.1303635
2040 4.1063251
2038 4.0975766
2036 4.1098728
2034 4.140862
2032 4.1799192
2030 4.2139869
2028 4.2327328
2026 4.2304535
2024 4.2139721
2022 4.1944556
2020 4.1773529
2018 4.1624789
2016 4.1364799
2014 4.0843029
2012 4.0073142
2010 3.9161417
2008 3.8278971
2006 3.7581472
2004 3.7051077
2002 3.6587551
2000 3.6075635
1998 3.542402
1996 3.4651
1994 3.3844728
1992 3.3167405
1990 3.2791228
1988 3.2788961
1986 3.3142564
1984 3.3643668
1982 3.4026845
1980 3.4157426
1978 3.3999882
1976 3.3656631
1974 3.326123
1972 3.2818532
1970 3.2269592
1968 3.1572201
1966 3.0725901
1964 2.9854314
1962 2.9130228
1960 2.8664761
1958 2.8503006
1956 2.8554685
1954 2.8652816
1952 2.8597801
1950 2.8211381
1948 2.7465558
1946 2.6447251
1944 2.5402229
1942 2.4602561
1940 2.4103069
1938 2.3808928
1936 2.3476086
1934 2.2851396
1932 2.192822
1930 2.0855093
1928 1.9864503
1926 1.9179193
1924 1.8835024
1922 1.8747213
1920 1.8772182
1918 1.875991
1916 1.8642443
1914 1.8391856
1912 1.7950143
1910 1.7262542
1908 1.6383634
1906 1.5443085
1904 1.461884
1902 1.4069738
1900 1.377434
1898 1.3602358
1896 1.3389286
1894 1.2974551
1892 1.2255898
1890 1.120805
1888 1.0004811
1886 0.89277601
1884 0.82346886
1882 0.80907172
1880 0.83564645
1878 0.87100387
1876 0.87950498
1874 0.83202243
1872 0.72962022
1870 0.59487289
1868 0.4664714
1866 0.38410285
1864 0.35711285
1862 0.37286291
1860 0.40522587
1858 0.42509028
1856 0.41774115
1854 0.3779304
1852 0.30075821
1850 0.18337995
1848 0.035446644
1846 -0.12144171
1844 -0.24707067
1842 -0.29891524
1840 -0.27212679
1838 -0.19076478
1836 -0.097732611
1834 -0.03865299
1832 -0.030216582
1830 -0.065581843
1828 -0.11912225
1826 -0.15867543
1824 -0.16696943
1822 -0.14189628
1820 -0.10148176
1818 -0.073680103
1816 -0.07780531
1814 -0.12160248
1812 -0.19215629
1810 -0.26431885
1808 -0.31528628
1806 -0.33156699
1804 -0.32804406
1802 -0.33537421
1800 -0.37161097
1798 -0.43842128
1796 -0.51136786
1794 -0.55371332
1792 -0.5470112
1790 -0.49247032
1788 -0.41506949
1786 -0.35026157
1784 -0.31514505
1782 -0.30906081
1780 -0.31641018
1778 -0.31616822
1776 -0.30153543
1774 -0.2753118
1772 -0.23367152
1770 -0.17025298
1768 -0.094950445
1766 -0.027458102
1764 0.024189178
1762 0.054509711
1760 0.023936994
1758 -0.11579123
1756 -0.33390987
1754 -0.55060476
1752 -0.74007624
1750 -0.91955984
1748 -1.0850222
1746 -1.2138929
1744 -1.3008085
1742 -1.3580056
1740 -1.4063591
1738 -1.4623872
1736 -1.50398
1734 -1.4831173
1732 -1.3692609
1730 -1.158231
1728 -0.88620025
1726 -0.61321843
1724 -0.3785795
1722 -0.19266409
1720 -0.024535205
1718 0.18748221
1716 0.51364142
1714 1.0076694
1712 1.634707
1710 2.3046432
1708 2.9947939
1706 3.7588956
1704 4.7095203
1702 6.0178289
1700 7.9580216
1698 10.793874
1696 14.377286
1694 18.222481
1692 21.871157
1690 25.029385
1688 27.824348
1686 30.715607
1684 34.161659
1682 38.43961
1680 43.205643
1678 47.708138
1676 51.657356
1674 55.264225
1672 58.910343
1670 62.965706
1668 67.430229
1666 71.992004
1664 76.400993
1662 80.520157
1660 84.237823
1658 87.451981
1656 90.091576
1654 92.130081
1652 93.618858
1650 94.66494
1648 95.344315
1646 95.686783
1644 95.687912
1642 95.309334
1640 94.451988
1638 92.980774
1636 90.82444
1634 88.002571
1632 84.660919
1630 81.017029
1628 77.148277
1626 72.992996
1624 68.528244
1622 63.814487
1620 59.00861
1618 54.335312
1616 49.971142
1614 46.023045
1612 42.548973
1610 39.560947
1608 37.007721
1606 34.792171
1604 32.855175
1602 31.184895
1600 29.777344
1598 28.624027
1596 27.7005
1594 26.969919
1592 26.413343
1590 26.033243
1588 25.830156
1586 25.791714
1584 25.882275
1582 26.051531
1580 26.286846
1578 26.62578
1576 27.1332
1574 27.883921
1572 28.907564
1570 30.17626
1568 31.614521
1566 33.107552
1564 34.535824
1562 35.833652
1560 37.197964
1558 39.041958
1556 41.529415
1554 44.459541
1552 47.362358
1550 49.639118
1548 51.102562
1546 52.024002
1544 52.612564
1542 52.904831
1540 52.917202
1538 52.682373
1536 52.229256
1534 51.575657
1532 50.725883
1530 49.673061
1528 48.420509
1526 46.9865
1524 45.38467
1522 43.625469
1520 41.74577
1518 39.814529
1516 37.905758
1514 36.066311
1512 34.207958
1510 32.105705
1508 29.616972
1506 26.763172
1504 23.762342
1502 20.987707
1500 18.618977
1498 16.560381
1496 14.655286
1494 12.759333
1492 10.819729
1490 8.8907719
1488 7.0448332
1486 5.3475013
1484 3.860728
1482 2.6329169
1480 1.6559348
1478 0.87463665
1476 0.33256727
1474 0.19022249
1472 0.52139497
1470 1.2455707
1468 2.1915007
1466 3.1307395
1464 3.91436
1462 4.5184684
1460 4.9753828
1458 5.358408
1456 5.7613001
1454 6.2727232
1452 6.8712883
1450 7.4026761
1448 7.7468405
1446 7.8736253
1444 7.8040009
1442 7.5957761
1440 7.2832975
1438 6.8585739
1436 6.3065472
1434 5.6227436
1432 4.848599
1430 4.0804543
1428 3.39958
1426 2.8463807
1424 2.4354532
1422 2.1603494
1420 2.0259888
1418 2.0558457
1416 2.2589657
1414 2.6148
1412 3.0773177
1410 3.5778942
1408 4.0679092
1406 4.5333447
1404 4.9630966
1402 5.3385386
1400 5.6352921
1398 5.8286004
1396 5.9226642
1394 5.9623775
1392 5.9900894
1390 6.0267434
1388 6.0653343
1386 6.06634
1384 5.9960771
1382 5.8403864
1380 5.5907731
1378 5.2431545
1376 4.8085313
1374 4.3204007
1372 3.8247201
1370 3.3714583
1368 2.9705932
1366 2.5717564
1364 2.1257324
1362 1.6134984
1360 1.0662341
1358 0.57721615
1356 0.22150847
1354 0.021044776
1352 -0.028228298
1350 0.046755515
1348 0.21126972
1346 0.42623323
1344 0.65103161
1342 0.84678578
1340 0.99044019
1338 1.0847478
1336 1.14358
1334 1.1871583
1332 1.2227808
1330 1.2360309
1328 1.2176903
1326 1.1767886
1324 1.1335286
1322 1.1179032
1320 1.1492131
1318 1.2243141
1316 1.3286101
1314 1.4370885
1312 1.5279051
1310 1.5893893
1308 1.6191255
1306 1.6265435
1304 1.6257828
1302 1.633261
1300 1.6600757
1298 1.7067999
1296 1.7708715
1294 1.8498857
1292 1.9489217
1290 2.0853026
1288 2.27352
1286 2.5167899
1284 2.8041623
1282 3.1050394
1280 3.3875623
1278 3.6280715
1276 3.8166158
1274 3.965651
1272 4.1001744
1270 4.2573791
1268 4.4696894
1266 4.753274
1264 5.1105208
1262 5.5259123
1260 5.985846
1258 6.4889045
1256 7.0392742
1254 7.6454535
1252 8.3098373
1250 9.0204821
1248 9.7604485
1246 10.5085
1244 11.241237
1242 11.935137
1240 12.567532
1238 13.120723
1236 13.584171
1234 13.95667
1232 14.22604
1230 14.356238
1228 14.308386
1226 14.050407
1224 13.576914
1222 12.934152
1220 12.186791
1218 11.41112
1216 10.669001
1214 9.9857635
1212 9.370059
1210 8.8138895
1208 8.3091936
1206 7.8547978
1204 7.444716
1202 7.0587907
1200 6.666688
1198 6.2259445
1196 5.7049003
1194 5.1025419
1192 4.4394326
1190 3.7656841
1188 3.1305065
1186 2.5645878
1184 2.08606
1182 1.6943254
1180 1.3868766
1178 1.1655225
1176 1.0287681
1174 0.96539247
1172 0.95826864
1170 0.98280036
1168 1.0171446
1166 1.0496179
1164 1.0724397
1162 1.080551
1160 1.0684074
1158 1.0284157
1156 0.95649886
1154 0.85737777
1152 0.73774958
1150 0.6035856
1148 0.45985579
1146 0.31050822
1144 0.16691723
1142 0.057204291
1140 0.0041237823
1138 0.0079031996
1136 0.058775119
1134 0.13658011
1132 0.22364223
1130 0.31498605
1128 0.41665697
1126 0.55282897
1124 0.74291003
1122 0.98318994
1120 1.2543679
1118 1.5142455
1116 1.7302586
1114 1.9074094
1112 2.0667753
1110 2.2451158
1108 2.4670722
1106 2.71842
1104 2.9781492
1102 3.2325883
1100 3.4831634
1098 3.7637327
1096 4.1057572
1094 4.5139127
1092 4.979156
1090 5.4744582
1088 5.97124
1086 6.4488001
1084 6.8893247
1082 7.2774611
1080 7.6025252
1078 7.8642879
1076 8.0629129
1074 8.1938114
1072 8.2552052
1070 8.2566776
1068 8.2165575
1066 8.168972
1064 8.1401758
1062 8.1251516
1060 8.1088228
1058 8.0695601
1056 7.9919572
1054 7.8811431
1052 7.7438593
1050 7.5775518
1048 7.3767228
1046 7.1361146
1044 6.8559003
1042 6.5533509
1040 6.2508044
1038 5.9737802
1036 5.7402401
1034 5.54425
1032 5.3684311
1030 5.1785049
1028 4.9442716
1026 4.6598592
1024 4.3280096
1022 3.9600999
1020 3.5698423
1018 3.171814
1016 2.7825856
1014 2.4243102
1012 2.1164217
1010 1.8659503
1008 1.672772
1006 1.5233686
1004 1.3963314
1002 1.2563471
1000 1.0745184
998 0.85225749
996 0.6040079
994 0.35957271
992 0.14453435
990 -0.041243881
988 -0.20394495
986 -0.34879941
984 -0.4787485
982 -0.59009582
980 -0.67475897
978 -0.71567923
976 -0.69293118
974 -0.58510822
972 -0.38130608
970 -0.10739464
968 0.19732007
966 0.47901249
964 0.68922251
962 0.81036711
960 0.84161484
958 0.8135125
956 0.76122427
954 0.70856678
952 0.66318196
950 0.58665299
948 0.44857019
946 0.28649142
944 0.13981611
942 -0.0050209016
940 -0.15600064
938 -0.25420132
936 -0.24787313
934 -0.17146891
932 -0.070564456
930 0.047065869
928 0.18497527
926 0.35376143
924 0.55924356
922 0.78293157
920 0.99668026
918 1.159043
916 1.2369614
914 1.240624
912 1.1957943
910 1.1431489
908 1.1183231
906 1.1211051
904 1.1356159
902 1.1206833
900 1.0468431
898 0.95713657
896 0.91280001
