Image.
>Pix99999.
  .
5555
5555
2300
900
5555
2
1
0
701
5555
7.0387997e-002
7.1852908e-002
7.3316813e-002
7.4781708e-002
7.6245628e-002
7.7709533e-002
7.9174422e-002
8.0639333e-002
8.2103245e-002
8.3567150e-002
8.5032038e-002
8.6497933e-002
8.7959908e-002
8.9417890e-002
9.0888537e-002
9.2377052e-002
9.3818039e-002
9.5193587e-002
9.6743964e-002
9.8538063e-002
9.9684715e-002
9.9921666e-002
1.0256445e-001
1.0859793e-001
1.0569040e-001
8.1801683e-002
4.0930655e-002
-5.2098832e-003
-3.2040603e-002
-2.0878511e-002
8.7088142e-003
3.0884711e-002
3.8592122e-002
3.4088779e-002
3.5032623e-002
5.5525601e-002
7.7506565e-002
7.4092768e-002
2.0996269e-002
-9.5023617e-002
-2.4604143e-001
-3.9317060e-001
-5.0258559e-001
-5.5045795e-001
-5.4635698e-001
-5.1066101e-001
-4.6657085e-001
-4.3389118e-001
-4.1579464e-001
-4.0854710e-001
-4.0112573e-001
-3.8355839e-001
-3.5878092e-001
-3.3667663e-001
-3.3865604e-001
-3.8297662e-001
-4.6046799e-001
-5.4987293e-001
-6.1663330e-001
-6.2900519e-001
-5.8345115e-001
-4.8852807e-001
-3.6426529e-001
-2.3456620e-001
-1.2442446e-001
-5.5679992e-002
-3.5824932e-002
-6.1744165e-002
-1.0646034e-001
-1.3886823e-001
-1.4345899e-001
-1.1442643e-001
-6.3016228e-002
-5.7804366e-003
4.2410161e-002
6.9086075e-002
6.8581484e-002
4.0090572e-002
-6.8982309e-003
-6.0314834e-002
-1.1209583e-001
-1.5764137e-001
-2.0022783e-001
-2.4540959e-001
-2.9657999e-001
-3.5400558e-001
-4.0862992e-001
-4.5084399e-001
-4.8263440e-001
-5.1106840e-001
-5.4614341e-001
-5.9402895e-001
-6.4129549e-001
-6.7044926e-001
-6.7779648e-001
-6.6651475e-001
-6.4583111e-001
-6.2251890e-001
-5.8448881e-001
-5.1564777e-001
-4.1344002e-001
-2.8587887e-001
-1.6194975e-001
-7.3988870e-002
-3.5344388e-002
-4.7772050e-002
-9.7197309e-002
-1.6596600e-001
-2.4628776e-001
-3.3350888e-001
-4.1864157e-001
-4.9041244e-001
-5.3617239e-001
-5.4689062e-001
-5.3071946e-001
-5.0329292e-001
-4.8210621e-001
-4.8131359e-001
-4.9926168e-001
-5.2770829e-001
-5.5835485e-001
-5.8544344e-001
-6.1260808e-001
-6.4511722e-001
-6.7845583e-001
-7.0308036e-001
-7.0650220e-001
-6.8020666e-001
-6.3680512e-001
-5.9762943e-001
-5.8214629e-001
-6.0300064e-001
-6.4954358e-001
-7.0178652e-001
-7.4287152e-001
-7.6161075e-001
-7.6242852e-001
-7.5719255e-001
-7.6041359e-001
-7.8514820e-001
-8.3508998e-001
-9.0787148e-001
-9.9355870e-001
-1.0794336e+000
-1.1539297e+000
-1.2069157e+000
-1.2302752e+000
-1.2199750e+000
-1.1849148e+000
-1.1404488e+000
-1.1033572e+000
-1.0885278e+000
-1.0991040e+000
-1.1316690e+000
-1.1768500e+000
-1.2246714e+000
-1.2724475e+000
-1.3213427e+000
-1.3719660e+000
-1.4204426e+000
-1.4458028e+000
-1.4219179e+000
-1.3366429e+000
-1.1939025e+000
-1.0354840e+000
-9.1631848e-001
-8.7095821e-001
-9.1289842e-001
-1.0145640e+000
-1.1317148e+000
-1.2332128e+000
-1.3000536e+000
-1.3300909e+000
-1.3301053e+000
-1.3106663e+000
-1.2849250e+000
-1.2701406e+000
-1.2817452e+000
-1.3194114e+000
-1.3711636e+000
-1.4117686e+000
-1.4153652e+000
-1.3799520e+000
-1.3183464e+000
-1.2501320e+000
-1.1915622e+000
-1.1331632e+000
-1.0568393e+000
-9.6818882e-001
-8.8572419e-001
-8.2371771e-001
-7.9048961e-001
-7.8378433e-001
-8.0072486e-001
-8.5987073e-001
-9.8102224e-001
-1.1356320e+000
-1.2681220e+000
-1.3274282e+000
-1.2829057e+000
-1.1719428e+000
-1.0659837e+000
-1.0191318e+000
-1.0634300e+000
-1.1940743e+000
-1.3839228e+000
-1.5964754e+000
-1.7941256e+000
-1.9486594e+000
-2.0405626e+000
-2.0625601e+000
-2.0129220e+000
-1.8848069e+000
-1.6760508e+000
-1.4203200e+000
-1.1754165e+000
-1.0102693e+000
-9.8283350e-001
-1.0824640e+000
-1.2551885e+000
-1.4404286e+000
-1.5821303e+000
-1.6439806e+000
-1.6084310e+000
-1.4886760e+000
-1.3213750e+000
-1.1692677e+000
-1.0986931e+000
-1.1274966e+000
-1.2351078e+000
-1.3713971e+000
-1.4760931e+000
-1.5113846e+000
-1.4633301e+000
-1.3536538e+000
-1.2262386e+000
-1.1301051e+000
-1.1046213e+000
-1.1405120e+000
-1.1963362e+000
-1.2292399e+000
-1.2091846e+000
-1.1528640e+000
-1.1027230e+000
-1.0803435e+000
-1.0846200e+000
-1.0902026e+000
-1.0603195e+000
-9.7151560e-001
-8.1538451e-001
-6.0368145e-001
-3.6546177e-001
-1.5212719e-001
-1.7167209e-002
3.8683735e-002
5.1720243e-002
5.4563068e-002
6.9328882e-002
1.0329886e-001
1.5566519e-001
2.3152316e-001
3.3352321e-001
4.2866981e-001
4.6428710e-001
4.1570091e-001
2.9159036e-001
1.4694652e-001
5.2165747e-002
1.0295029e-002
-1.8335972e-002
-2.8483242e-002
2.1514624e-002
1.5865219e-001
3.8118911e-001
6.2886751e-001
8.0931926e-001
8.7035531e-001
8.1140387e-001
7.0734406e-001
6.6497970e-001
7.0141196e-001
7.5289410e-001
7.2639269e-001
5.4113305e-001
2.2677824e-001
-9.9131092e-002
-3.0875176e-001
-2.8305650e-001
7.7245548e-002
8.2315642e-001
1.8477200e+000
2.9367690e+000
3.9394972e+000
4.8091340e+000
5.6689320e+000
6.7684460e+000
8.3692322e+000
1.0689703e+001
1.3787503e+001
1.7531700e+001
2.1489143e+001
2.5077671e+001
2.8067886e+001
3.0612278e+001
3.3160759e+001
3.6311493e+001
4.0456589e+001
4.5657001e+001
5.1349041e+001
5.6633018e+001
6.1311558e+001
6.5847282e+001
7.0690575e+001
7.6056480e+001
8.1603096e+001
8.6600197e+001
9.0619972e+001
9.3603439e+001
9.5674263e+001
9.7044624e+001
9.7870712e+001
9.8229462e+001
9.8119019e+001
9.7486824e+001
9.6314720e+001
9.4654144e+001
9.2704674e+001
9.0743111e+001
8.8828125e+001
8.6787437e+001
8.4376869e+001
8.1372032e+001
7.7755699e+001
7.3689934e+001
6.9283638e+001
6.4565125e+001
5.9582001e+001
5.4431725e+001
4.9297981e+001
4.4420563e+001
3.9953201e+001
3.5953041e+001
3.2458950e+001
2.9498510e+001
2.7046463e+001
2.5030985e+001
2.3390612e+001
2.2086081e+001
2.1090075e+001
2.0383188e+001
1.9937000e+001
1.9714170e+001
1.9687805e+001
1.9846920e+001
2.0198900e+001
2.0761679e+001
2.1542355e+001
2.2546270e+001
2.3838665e+001
2.5541927e+001
2.7751429e+001
3.0492605e+001
3.3631287e+001
3.6892605e+001
4.0058357e+001
4.3012486e+001
4.5706009e+001
4.8173820e+001
5.0625584e+001
5.3352257e+001
5.6204029e+001
5.8577271e+001
6.0037086e+001
6.0492836e+001
6.0187214e+001
5.9587502e+001
5.8860737e+001
5.7788380e+001
5.6100300e+001
5.3628597e+001
5.0574913e+001
4.7491390e+001
4.4757015e+001
4.2449867e+001
4.0508198e+001
3.8776150e+001
3.7061131e+001
3.5165119e+001
3.2974442e+001
3.0505636e+001
2.7937572e+001
2.5565245e+001
2.3479321e+001
2.1496979e+001
1.9389866e+001
1.6992451e+001
1.4392212e+001
1.1933146e+001
9.8489075e+000
8.1606903e+000
6.7876287e+000
5.5936532e+000
4.4915390e+000
3.4669089e+000
2.5060439e+000
1.5872250e+000
7.4200976e-001
6.7628846e-002
-3.4198195e-001
-4.0960446e-001
-3.6855578e-002
8.7318587e-001
2.2458708e+000
3.8018639e+000
5.2965021e+000
6.6053042e+000
7.7284174e+000
8.7894545e+000
9.9114895e+000
1.1155892e+001
1.2433400e+001
1.3488422e+001
1.4108703e+001
1.4205798e+001
1.3824091e+001
1.3144036e+001
1.2336592e+001
1.1513220e+001
1.0729074e+001
9.9768496e+000
9.2102394e+000
8.3635635e+000
7.4406161e+000
6.5439925e+000
5.7847838e+000
5.2458110e+000
4.9482961e+000
4.8361950e+000
4.8379674e+000
4.8891697e+000
4.9575343e+000
5.0557270e+000
5.2154851e+000
5.4773059e+000
5.8596635e+000
6.3430200e+000
6.8781447e+000
7.3841658e+000
7.7700362e+000
7.9474540e+000
7.8726354e+000
7.5706987e+000
7.1100359e+000
6.5945959e+000
6.1015048e+000
5.6556549e+000
5.2652707e+000
4.9301791e+000
4.6441565e+000
4.3912172e+000
4.1337204e+000
3.8098478e+000
3.3825359e+000
2.8634527e+000
2.2897365e+000
1.7176950e+000
1.1848526e+000
6.9590873e-001
2.6348516e-001
-7.6639295e-002
-2.8602216e-001
-3.3142039e-001
-1.8777508e-001
1.5543339e-001
6.8574166e-001
1.3602214e+000
2.1352520e+000
2.9710784e+000
3.7931111e+000
4.4732132e+000
4.8940201e+000
4.9871154e+000
4.7642150e+000
4.3468781e+000
3.8590894e+000
3.3854523e+000
2.9844551e+000
2.6834574e+000
2.4865263e+000
2.3690569e+000
2.2891700e+000
2.1905868e+000
2.0348091e+000
1.8219951e+000
1.5765294e+000
1.3476764e+000
1.1813920e+000
1.1059420e+000
1.1365906e+000
1.2730871e+000
1.5144143e+000
1.8636870e+000
2.3233166e+000
2.8897486e+000
3.5426559e+000
4.2338095e+000
4.9057021e+000
5.4985075e+000
5.9684715e+000
6.3037672e+000
6.5140042e+000
6.6349840e+000
6.7132115e+000
6.8021927e+000
6.9489622e+000
7.1836720e+000
7.5195251e+000
7.9467292e+000
8.4549274e+000
9.0435333e+000
9.7200003e+000
1.0500960e+001
1.1391114e+001
1.2365420e+001
1.3391491e+001
1.4430250e+001
1.5447588e+001
1.6416630e+001
1.7297674e+001
1.8018822e+001
1.8501900e+001
1.8673374e+001
1.8483200e+001
1.7930849e+001
1.7046194e+001
1.5894507e+001
1.4555268e+001
1.3118494e+001
1.1682017e+001
1.0353588e+001
9.2333708e+000
8.3991747e+000
7.8933597e+000
7.6949363e+000
7.7444029e+000
7.9344745e+000
8.1484461e+000
8.2767096e+000
8.2307615e+000
7.9664989e+000
7.4735575e+000
6.7925935e+000
5.9840584e+000
5.1243649e+000
4.2858081e+000
3.5218949e+000
2.8694143e+000
2.3375518e+000
1.9251163e+000
1.6228440e+000
1.4209601e+000
1.3121564e+000
1.2865326e+000
1.3271878e+000
1.4160898e+000
1.5361922e+000
1.6651421e+000
1.7685150e+000
1.8095452e+000
1.7542596e+000
1.5888300e+000
1.3436682e+000
1.0638801e+000
8.0124855e-001
5.9444278e-001
4.4631177e-001
3.4473765e-001
2.6230606e-001
1.6733982e-001
2.9476508e-002
-1.5747543e-001
-3.4463200e-001
-4.8040721e-001
-5.3938329e-001
-5.1367825e-001
-4.2269027e-001
-2.9272231e-001
-1.5060177e-001
-1.8652119e-002
9.2287645e-002
1.7659444e-001
2.3442835e-001
2.6523560e-001
2.6403347e-001
2.3159678e-001
1.8611601e-001
1.5347691e-001
1.6724426e-001
2.5264913e-001
4.0912855e-001
6.3052428e-001
9.1304779e-001
1.2612340e+000
1.6983489e+000
2.2376177e+000
2.8536649e+000
3.4931109e+000
4.0556602e+000
4.4457541e+000
4.6130228e+000
4.5471826e+000
4.3135448e+000
3.9941721e+000
3.6635087e+000
3.3800712e+000
3.1635699e+000
3.0189760e+000
2.9374604e+000
2.9043801e+000
2.8984430e+000
2.9004600e+000
2.9010341e+000
2.8937387e+000
2.8736260e+000
2.8394160e+000
2.7989357e+000
2.7694042e+000
2.7871919e+000
2.8855247e+000
3.0742118e+000
3.3458200e+000
3.6586740e+000
3.9544594e+000
4.1520038e+000
4.1829882e+000
4.0353422e+000
3.7335184e+000
3.3687861e+000
3.0295675e+000
2.7461841e+000
2.5250485e+000
2.3440158e+000
2.1772044e+000
2.0098915e+000
1.8281400e+000
1.6129621e+000
1.3555857e+000
1.0821347e+000
8.2623744e-001
6.1865985e-001
4.8329070e-001
4.2451888e-001
4.3153405e-001
4.6072805e-001
4.6379450e-001
4.0421006e-001
2.6559842e-001
8.7216876e-002
-8.3449781e-002
-2.1720240e-001
-2.9545286e-001
-3.1963414e-001
-2.9388157e-001
-2.1528667e-001
-8.8464797e-002
5.0789393e-002
1.6066924e-001
2.0566867e-001
1.6451669e-001
5.9441403e-002
-7.7306703e-002
-2.1586709e-001
-3.2284400e-001
-3.5107359e-001
-2.6879966e-001
-1.1055242e-001
8.1735924e-002
2.9803857e-001
5.3408360e-001
7.7798688e-001
1.0258657e+000
1.3092091e+000
1.6438154e+000
1.9564778e+000
2.1663995e+000
2.2466145e+000
2.1992981e+000
2.0842416e+000
1.9629201e+000
1.8476982e+000
1.7396971e+000
1.6419344e+000
1.5678012e+000
1.5690960e+000
1.6893326e+000
1.9031414e+000
2.1603630e+000
2.3806324e+000
2.5045321e+000
2.5856724e+000
2.7061999e+000
