Image.
>Pix99999.
  .
5555
5555
2300
900
5555
2
1
0
701
5555
7.3022999e-002
7.4542828e-002
7.6061659e-002
7.7580482e-002
7.9100303e-002
8.0619134e-002
8.2137965e-002
8.3657779e-002
8.5176617e-002
8.6694457e-002
8.8215247e-002
8.9738041e-002
9.1252998e-002
9.2758015e-002
9.4291285e-002
9.5865205e-002
9.7331494e-002
9.8645136e-002
1.0036544e-001
1.0264757e-001
1.0342886e-001
1.0210170e-001
1.0635077e-001
1.1846323e-001
1.0985988e-001
5.9215855e-002
9.0783872e-003
8.1013879e-003
5.7532836e-002
1.4021549e-001
2.1933343e-001
2.6308936e-001
2.8206080e-001
2.9891658e-001
3.3559787e-001
4.0750200e-001
5.0470966e-001
6.0642642e-001
6.7770791e-001
6.8842107e-001
6.4444029e-001
5.6851631e-001
5.0815219e-001
5.0642020e-001
5.5894506e-001
6.4203310e-001
7.1240485e-001
7.3280060e-001
7.1374661e-001
6.8014711e-001
6.5498930e-001
6.5330487e-001
6.6117853e-001
6.6108906e-001
6.5767080e-001
6.6270667e-001
6.8777919e-001
7.3913705e-001
8.0236226e-001
8.5890502e-001
9.0081310e-001
9.2547828e-001
9.3766242e-001
9.4495630e-001
9.5720059e-001
9.8392421e-001
1.0307026e+000
1.0979669e+000
1.1699669e+000
1.2259476e+000
1.2448900e+000
1.2123442e+000
1.1400480e+000
1.0513170e+000
9.8050725e-001
9.5705360e-001
9.7415984e-001
1.0103178e+000
1.0354702e+000
1.0276316e+000
1.0092943e+000
1.0147048e+000
1.0640806e+000
1.1612871e+000
1.2666039e+000
1.3318386e+000
1.3375211e+000
1.2820424e+000
1.1935909e+000
1.1082436e+000
1.0514886e+000
1.0426990e+000
1.0929508e+000
1.2052641e+000
1.3616322e+000
1.5343907e+000
1.6895994e+000
1.7920773e+000
1.8117360e+000
1.7288318e+000
1.5596000e+000
1.3402231e+000
1.1333257e+000
9.9917614e-001
9.4717097e-001
9.5908999e-001
9.8586422e-001
9.7703403e-001
9.2360735e-001
8.4043187e-001
7.7075154e-001
7.6057768e-001
8.2298321e-001
9.4945920e-001
1.0990839e+000
1.2251886e+000
1.3098406e+000
1.3524330e+000
1.3738645e+000
1.3979990e+000
1.4266599e+000
1.4507242e+000
1.4570946e+000
1.4341903e+000
1.3817211e+000
1.3058679e+000
1.2192760e+000
1.1374232e+000
1.0772035e+000
1.0536224e+000
1.0717714e+000
1.1305737e+000
1.2210594e+000
1.3316209e+000
1.4508946e+000
1.5687586e+000
1.6793840e+000
1.7783744e+000
1.8592806e+000
1.9136097e+000
1.9283400e+000
1.8923067e+000
1.8106788e+000
1.7002358e+000
1.5954239e+000
1.5335678e+000
1.5299437e+000
1.5835451e+000
1.6684291e+000
1.7497630e+000
1.8010929e+000
1.8079119e+000
1.7871588e+000
1.7704256e+000
1.7886720e+000
1.8610343e+000
1.9607228e+000
2.0419235e+000
2.0715532e+000
2.0361934e+000
1.9739400e+000
1.9427299e+000
1.9807863e+000
2.1002562e+000
2.2512090e+000
2.3598778e+000
2.3788433e+000
2.2899311e+000
2.1351759e+000
1.9787110e+000
1.8545529e+000
1.7747580e+000
1.7317508e+000
1.7126600e+000
1.7177663e+000
1.7515750e+000
1.8050926e+000
1.8620377e+000
1.9093606e+000
1.9392072e+000
1.9576343e+000
1.9747750e+000
1.9872180e+000
1.9858640e+000
1.9705417e+000
1.9524307e+000
1.9687005e+000
2.0577204e+000
2.2047942e+000
2.3642621e+000
2.4843099e+000
2.5243435e+000
2.4969587e+000
2.4397321e+000
2.3713939e+000
2.2982700e+000
2.2285681e+000
2.1737871e+000
2.1512661e+000
2.1760275e+000
2.2404857e+000
2.3231769e+000
2.3990517e+000
2.4421649e+000
2.4276338e+000
2.3367908e+000
2.1748307e+000
1.9636104e+000
1.7380623e+000
1.5385509e+000
1.4012400e+000
1.3551831e+000
1.4122063e+000
1.5618240e+000
1.7399160e+000
1.8601056e+000
1.8747182e+000
1.7757710e+000
1.6149395e+000
1.4665866e+000
1.3568799e+000
1.2795633e+000
1.2294565e+000
1.2061149e+000
1.2130960e+000
1.2487286e+000
1.2791837e+000
1.2585200e+000
1.1765274e+000
1.0554903e+000
9.5486987e-001
9.4492131e-001
1.0522667e+000
1.2599134e+000
1.4887860e+000
1.6355100e+000
1.6506212e+000
1.5355927e+000
1.3470980e+000
1.1640940e+000
1.0238734e+000
9.2954922e-001
8.6775100e-001
8.2428622e-001
8.1438816e-001
8.6471099e-001
9.6168888e-001
1.0620316e+000
1.1202726e+000
1.1076709e+000
1.0633428e+000
1.0588871e+000
1.1072360e+000
1.1733204e+000
1.2114534e+000
1.1844357e+000
1.1019229e+000
1.0044116e+000
9.2357391e-001
8.8173091e-001
9.0486687e-001
1.0078155e+000
1.1367903e+000
1.1960238e+000
1.1211697e+000
8.9582211e-001
5.9228480e-001
3.2025290e-001
8.6824343e-002
-1.6406323e-001
-4.0280688e-001
-5.3324437e-001
-4.8925856e-001
-2.5792491e-001
7.5017959e-002
3.6511642e-001
5.1141721e-001
4.7986746e-001
3.5361820e-001
2.7948925e-001
3.2156000e-001
4.5203853e-001
5.5821514e-001
4.9983978e-001
2.5819212e-001
-7.0832357e-002
-3.2403952e-001
-3.1303701e-001
9.5848218e-002
9.4365990e-001
2.0608702e+000
3.1474738e+000
4.0256128e+000
4.6803842e+000
5.3022022e+000
6.2163391e+000
7.7066679e+000
9.9697170e+000
1.3051077e+001
1.6815750e+001
2.0809286e+001
2.4415951e+001
2.7393671e+001
2.9907427e+001
3.2432838e+001
3.5591599e+001
3.9759411e+001
4.4951595e+001
5.0572357e+001
5.5711594e+001
6.0194000e+001
6.4513474e+001
6.9081764e+001
7.4030708e+001
7.9023140e+001
8.3432304e+001
8.6985718e+001
8.9787399e+001
9.2008698e+001
9.3797287e+001
9.5220543e+001
9.6263710e+001
9.6836121e+001
9.6801727e+001
9.6063423e+001
9.4612572e+001
9.2670273e+001
9.0610039e+001
8.8591949e+001
8.6528931e+001
8.4217911e+001
8.1428780e+001
7.8113235e+001
7.4392097e+001
7.0356415e+001
6.6036469e+001
6.1455360e+001
5.6658112e+001
5.1782997e+001
4.7043243e+001
4.2596256e+001
3.8528217e+001
3.4905701e+001
3.1778202e+001
2.9134731e+001
2.6908415e+001
2.5030655e+001
2.3446274e+001
2.2130617e+001
2.1087706e+001
2.0320000e+001
1.9821024e+001
1.9575354e+001
1.9564058e+001
1.9780102e+001
2.0226957e+001
2.0899771e+001
2.1790960e+001
2.2940586e+001
2.4436630e+001
2.6368343e+001
2.8792244e+001
3.1639160e+001
3.4718056e+001
3.7835121e+001
4.0838558e+001
4.3668236e+001
4.6381767e+001
4.9196259e+001
5.2366970e+001
5.5612228e+001
5.8134640e+001
5.9477875e+001
5.9724468e+001
5.9271626e+001
5.8669678e+001
5.8125576e+001
5.7417328e+001
5.6198780e+001
5.4164394e+001
5.1416027e+001
4.8478275e+001
4.5776470e+001
4.3487984e+001
4.1595737e+001
3.9920101e+001
3.8275295e+001
3.6516525e+001
3.4548218e+001
3.2344593e+001
2.9996101e+001
2.7692263e+001
2.5518082e+001
2.3402229e+001
2.1217501e+001
1.8842485e+001
1.6338417e+001
1.3962923e+001
1.1890032e+001
1.0128473e+001
8.5986710e+000
7.1705470e+000
5.7779989e+000
4.4461927e+000
3.2061176e+000
2.0763750e+000
1.0944895e+000
3.2437253e-001
-1.6880049e-001
-3.1858528e-001
-2.4888009e-002
8.2243389e-001
2.1667182e+000
3.7460489e+000
5.3147926e+000
6.7264228e+000
7.9683571e+000
9.1678457e+000
1.0446155e+001
1.1849712e+001
1.3263400e+001
1.4401562e+001
1.5056837e+001
1.5189959e+001
1.4876394e+001
1.4288321e+001
1.3571732e+001
1.2806530e+001
1.2043571e+001
1.1305870e+001
1.0570857e+001
9.7727079e+000
8.8849621e+000
7.9526973e+000
7.0604000e+000
6.3185773e+000
5.8025408e+000
5.5255189e+000
5.4586592e+000
5.5342460e+000
5.6837459e+000
5.8561621e+000
6.0433321e+000
6.2884669e+000
6.6245885e+000
7.0487070e+000
7.5191808e+000
7.9525824e+000
8.2712679e+000
8.4240160e+000
8.3940792e+000
8.2077522e+000
7.9090896e+000
7.5511966e+000
7.1717162e+000
6.7825098e+000
6.3906131e+000
6.0039425e+000
5.6279354e+000
5.2603817e+000
4.8767600e+000
4.4262862e+000
3.8785281e+000
3.2453067e+000
2.5614858e+000
1.8794301e+000
1.2373955e+000
6.4912373e-001
1.4223665e-001
-2.2861931e-001
-4.2038888e-001
-4.1868246e-001
-2.2105783e-001
1.6216880e-001
6.9467247e-001
1.3097036e+000
1.9719081e+000
2.6989398e+000
3.4708776e+000
4.1876688e+000
4.7293572e+000
4.9860578e+000
4.9250360e+000
4.6352839e+000
4.2282062e+000
3.8038621e+000
3.4410086e+000
3.1834977e+000
3.0439754e+000
2.9940584e+000
2.9815900e+000
2.9346783e+000
2.8052537e+000
2.5954127e+000
2.3353021e+000
2.0805879e+000
1.8748388e+000
1.7310699e+000
1.6543797e+000
1.6500602e+000
1.7343714e+000
1.9409119e+000
2.2959528e+000
2.8024812e+000
3.4371240e+000
4.1393571e+000
4.8396735e+000
5.4707804e+000
5.9856052e+000
6.3746572e+000
6.6498270e+000
6.8460188e+000
7.0011940e+000
7.1489091e+000
7.3195009e+000
7.5385962e+000
7.8260069e+000
8.1921740e+000
8.6414776e+000
9.1723814e+000
9.7916689e+000
1.0524010e+001
1.1392946e+001
1.2407970e+001
1.3559258e+001
1.4799000e+001
1.6069201e+001
1.7306889e+001
1.8441664e+001
1.9390902e+001
2.0068727e+001
2.0391655e+001
2.0301121e+001
1.9793087e+001
1.8900183e+001
1.7706543e+001
1.6313787e+001
1.4833905e+001
1.3379942e+001
1.2059740e+001
1.0958143e+001
1.0117377e+001
9.5485182e+000
9.2282696e+000
9.1159105e+000
9.1536322e+000
9.2658482e+000
9.3496132e+000
9.3020468e+000
9.0390129e+000
8.5181856e+000
7.7783608e+000
6.8954420e+000
5.9814997e+000
5.1381884e+000
4.4246068e+000
3.8681715e+000
3.4491427e+000
3.1329124e+000
2.8780317e+000
2.6544001e+000
2.4613321e+000
2.3121545e+000
2.2337081e+000
2.2416697e+000
2.3190329e+000
2.4358733e+000
2.5517759e+000
2.6335423e+000
2.6686532e+000
2.6465313e+000
2.5495346e+000
2.3615115e+000
2.0754242e+000
1.7008179e+000
1.2809589e+000
8.6746126e-001
5.1135361e-001
2.4385318e-001
5.1666602e-002
-7.9127342e-002
-1.3943079e-001
-1.1894171e-001
-1.8562257e-002
1.4961159e-001
3.5296321e-001
5.5328202e-001
7.1238786e-001
8.0680716e-001
8.4894788e-001
8.6036915e-001
8.6362040e-001
8.7724948e-001
9.0966052e-001
9.6974146e-001
1.0724450e+000
1.2227851e+000
1.3974353e+000
1.5692294e+000
1.7200944e+000
1.8451713e+000
1.9683677e+000
2.1161962e+000
2.3045566e+000
2.5465686e+000
2.8527200e+000
3.2144113e+000
3.5735900e+000
3.8525004e+000
3.9579690e+000
3.8370388e+000
3.5552180e+000
3.2142234e+000
2.9334204e+000
2.7994661e+000
2.7975144e+000
2.8803160e+000
2.9797122e+000
3.0365343e+000
3.0305009e+000
2.9564428e+000
2.8255076e+000
2.6574442e+000
2.4852309e+000
2.3442302e+000
2.2666893e+000
2.2653105e+000
2.2997034e+000
2.3259525e+000
2.3278208e+000
2.3087702e+000
2.3069739e+000
2.3466647e+000
2.3857450e+000
2.3718352e+000
2.2702515e+000
2.0658665e+000
1.7879031e+000
1.4745811e+000
1.1587404e+000
8.7202060e-001
6.4541906e-001
4.9481171e-001
3.9045548e-001
2.8942442e-001
1.4362082e-001
-7.9082698e-002
-3.5777023e-001
-6.6575354e-001
-9.9882722e-001
-1.3560642e+000
-1.7285371e+000
-2.0923989e+000
-2.3837688e+000
-2.5477333e+000
-2.5908008e+000
-2.5435336e+000
-2.4638903e+000
-2.3966658e+000
-2.3205228e+000
-2.2036116e+000
-2.0331428e+000
-1.8129957e+000
-1.5867409e+000
-1.3970269e+000
-1.2497499e+000
-1.1350600e+000
-1.0219165e+000
-8.8093686e-001
-7.0681447e-001
-5.0504422e-001
-2.9767528e-001
-1.1152881e-001
2.4573810e-002
9.0598993e-002
9.9219456e-002
6.7121968e-002
-2.9651597e-003
-9.0717509e-002
-1.0106122e-001
4.3293834e-002
2.8761747e-001
5.4640484e-001
7.4233204e-001
8.2881194e-001
8.6517918e-001
9.2329383e-001
1.0230405e+000
1.1594360e+000
1.2830299e+000
1.3546872e+000
1.4172834e+000
1.5255046e+000
1.7013770e+000
1.9490436e+000
2.2337685e+000
2.5230503e+000
2.8289928e+000
3.1533380e+000
3.4110212e+000
3.4956000e+000
