Image.
>Pix99999.
  .
5555
5555
2300
900
5555
2
1
0
701
5555
9.0241000e-002
9.2118315e-002
9.3995631e-002
9.5872946e-002
9.7750254e-002
9.9627577e-002
1.0150389e-001
1.0338120e-001
1.0525851e-001
1.0713583e-001
1.0901314e-001
1.1089046e-001
1.1276777e-001
1.1464509e-001
1.1652239e-001
1.1839972e-001
1.2027702e-001
1.2215434e-001
1.2403166e-001
1.2590899e-001
1.2778628e-001
1.2966360e-001
1.3154092e-001
1.3341823e-001
1.3529554e-001
1.3717285e-001
8.9944452e-002
3.3989141e-003
-7.4512318e-002
-1.5734425e-001
-2.4109429e-001
-2.4117297e-001
-2.3325165e-001
-1.8130183e-001
-1.3553612e-001
-1.5651950e-001
-1.9498090e-001
-2.9834428e-001
-3.9479801e-001
-4.5987770e-001
-4.9149773e-001
-4.5384830e-001
-4.0869582e-001
-3.5791513e-001
-3.3171630e-001
-3.3657029e-001
-3.5798472e-001
-3.9337867e-001
-4.3004069e-001
-4.6692348e-001
-4.7484002e-001
-4.6609911e-001
-4.0546778e-001
-3.2258558e-001
-2.6540515e-001
-2.1705122e-001
-2.5969478e-001
-3.2311562e-001
-3.4359539e-001
-3.5622412e-001
-2.6604173e-001
-1.7277686e-001
-1.5226723e-001
-1.5439059e-001
-2.4709447e-001
-3.4127137e-001
-4.0890387e-001
-4.6470338e-001
-4.9692836e-001
-5.2547568e-001
-5.5145502e-001
-5.3577101e-001
-4.6014428e-001
-3.3505216e-001
-1.6132131e-001
-2.2734642e-002
8.0239132e-002
9.6550003e-002
5.5053290e-002
-4.0108893e-002
-1.6121823e-001
-2.7404743e-001
-3.8201725e-001
-4.4778016e-001
-5.0015318e-001
-5.0734788e-001
-5.0440246e-001
-4.2804557e-001
-3.3906513e-001
-2.2974578e-001
-1.2774199e-001
-1.0095743e-001
-1.0082678e-001
-1.6960694e-001
-2.6265451e-001
-3.9866394e-001
-5.4212338e-001
-6.8841106e-001
-7.8080362e-001
-7.8224432e-001
-7.0894426e-001
-5.5579144e-001
-4.1882986e-001
-3.1071347e-001
-2.5258869e-001
-2.3160501e-001
-2.0844698e-001
-1.8019827e-001
-1.8064131e-001
-1.9694665e-001
-2.8516299e-001
-4.0264043e-001
-5.2153003e-001
-6.4015228e-001
-6.6846323e-001
-6.7415118e-001
-6.0691738e-001
-5.2888858e-001
-4.7410253e-001
-4.3668619e-001
-4.6924713e-001
-5.2348864e-001
-6.0904318e-001
-6.9804227e-001
-7.8363335e-001
-8.5892892e-001
-9.1735780e-001
-9.4393516e-001
-9.2398822e-001
-8.7934178e-001
-8.1177253e-001
-7.6248610e-001
-7.3565453e-001
-7.4558789e-001
-7.8356111e-001
-8.1883967e-001
-8.5100424e-001
-8.0026460e-001
-7.0761758e-001
-5.9819746e-001
-4.8245600e-001
-4.8512545e-001
-5.2541709e-001
-6.3827038e-001
-7.6907551e-001
-9.0975535e-001
-1.0467323e+000
-1.1482331e+000
-1.2102040e+000
-1.1511507e+000
-1.0309786e+000
-8.2542205e-001
-6.4462900e-001
-5.5700147e-001
-5.7886523e-001
-7.3847562e-001
-9.2662990e-001
-1.1094248e+000
-1.2349843e+000
-1.3032118e+000
-1.3345143e+000
-1.3465450e+000
-1.3225992e+000
-1.2767497e+000
-1.2328103e+000
-1.1920993e+000
-1.2585043e+000
-1.3775070e+000
-1.5179800e+000
-1.6636515e+000
-1.6969315e+000
-1.6865513e+000
-1.6323348e+000
-1.5619459e+000
-1.5138671e+000
-1.4810750e+000
-1.4842794e+000
-1.5222685e+000
-1.6019838e+000
-1.6843708e+000
-1.7305515e+000
-1.7242266e+000
-1.6486000e+000
-1.5462762e+000
-1.4481817e+000
-1.3810643e+000
-1.3621083e+000
-1.4025462e+000
-1.4853840e+000
-1.6110131e+000
-1.7512472e+000
-1.8314835e+000
-1.8647623e+000
-1.8482952e+000
-1.8099351e+000
-1.8384950e+000
-1.9031479e+000
-1.9768397e+000
-2.0484717e+000
-1.9958698e+000
-1.8838857e+000
-1.6634749e+000
-1.4127328e+000
-1.2209710e+000
-1.1021892e+000
-1.1755700e+000
-1.3386889e+000
-1.5517900e+000
-1.7251772e+000
-1.7755622e+000
-1.7090800e+000
-1.5303550e+000
-1.2688479e+000
-9.5307857e-001
-7.2720170e-001
-6.0515773e-001
-6.9420445e-001
-9.4784582e-001
-1.2378923e+000
-1.5332060e+000
-1.7761228e+000
-1.9898369e+000
-2.1713834e+000
-2.3465075e+000
-2.4408321e+000
-2.5022357e+000
-2.3900769e+000
-2.1989901e+000
-1.9135674e+000
-1.5813059e+000
-1.2976943e+000
-1.0210692e+000
-7.4176913e-001
-4.8115951e-001
-2.6819417e-001
-1.6516757e-001
-2.4448270e-001
-4.3171155e-001
-6.9264936e-001
-9.3290168e-001
-1.1184114e+000
-1.2201427e+000
-1.2439469e+000
-1.2041534e+000
-1.1108475e+000
-9.7597897e-001
-8.1116319e-001
-6.6000479e-001
-5.4088646e-001
-4.4674504e-001
-3.7094501e-001
-2.3900028e-001
-4.8790321e-002
8.2090467e-002
1.9036444e-001
2.2121435e-001
2.2170897e-001
2.4235873e-001
2.8490686e-001
3.4283268e-001
4.3162316e-001
6.1181599e-001
8.1565070e-001
1.0189332e+000
1.0992835e+000
9.1864854e-001
6.2241179e-001
2.9220229e-001
6.7787968e-002
-1.5730068e-001
-3.1164372e-001
-3.1087109e-001
-1.4911237e-001
1.2505609e-001
3.8262233e-001
5.9785360e-001
5.6031930e-001
3.2370734e-001
1.2995030e-001
-2.0904094e-003
1.4524080e-001
4.7903493e-001
6.3716555e-001
6.5608978e-001
3.6946937e-001
-6.7848086e-002
-3.2212651e-001
-3.5404491e-001
8.4223062e-002
8.8916284e-001
1.9678514e+000
2.9851556e+000
3.5403342e+000
3.8523378e+000
4.1057639e+000
4.6036735e+000
5.5626874e+000
7.1694398e+000
9.5036907e+000
1.2551956e+001
1.6282429e+001
2.0025070e+001
2.3472635e+001
2.6627459e+001
2.9499081e+001
3.2892784e+001
3.6879959e+001
4.1361294e+001
4.6230721e+001
5.0394867e+001
5.3935158e+001
5.7532471e+001
6.1224823e+001
6.5418091e+001
6.9927025e+001
7.4141098e+001
7.8116760e+001
8.1887863e+001
8.5496933e+001
8.8969055e+001
9.2297256e+001
9.5436409e+001
9.8254318e+001
1.0063116e+002
1.0182949e+002
1.0138322e+002
9.9689682e+001
9.7164093e+001
9.4282547e+001
9.1319992e+001
8.8018173e+001
8.4335381e+001
8.0495026e+001
7.6613098e+001
7.2788643e+001
6.9009789e+001
6.4905403e+001
6.0454834e+001
5.5952652e+001
5.1446064e+001
4.7238342e+001
4.3366295e+001
3.9964134e+001
3.7042519e+001
3.4501190e+001
3.2293503e+001
3.0233305e+001
2.8355772e+001
2.6713749e+001
2.5366770e+001
2.4355000e+001
2.3655834e+001
2.3203915e+001
2.2943857e+001
2.2802469e+001
2.2797470e+001
2.2913628e+001
2.3184631e+001
2.3599903e+001
2.4200665e+001
2.4996628e+001
2.5921362e+001
2.6978764e+001
2.8051426e+001
2.9124081e+001
3.0186930e+001
3.1231203e+001
3.2387352e+001
3.3729126e+001
3.5862797e+001
3.8765312e+001
4.1847878e+001
4.4960670e+001
4.7284195e+001
4.8902775e+001
5.0245605e+001
5.1333050e+001
5.2327286e+001
5.2970600e+001
5.3106762e+001
5.2678684e+001
5.1694206e+001
5.0505116e+001
4.9340363e+001
4.8231544e+001
4.7202198e+001
4.6109451e+001
4.4904129e+001
4.3413975e+001
4.1630730e+001
3.9742058e+001
3.7782898e+001
3.5805481e+001
3.3734192e+001
3.1197174e+001
2.8062042e+001
2.4988119e+001
2.2105000e+001
1.9713680e+001
1.7870680e+001
1.6044571e+001
1.4215611e+001
1.2381002e+001
1.0510159e+001
8.5934458e+000
6.6371326e+000
4.6680942e+000
2.8851027e+000
1.4896412e+000
5.5872536e-001
1.3364269e-001
1.7109138e-001
7.2184551e-001
1.4204700e+000
1.9866600e+000
2.4544437e+000
2.7461727e+000
3.0621746e+000
3.4740119e+000
4.0050478e+000
4.7249398e+000
5.3557291e+000
5.8654275e+000
6.1269493e+000
6.0445013e+000
5.8558431e+000
5.5249276e+000
5.2309861e+000
4.9774661e+000
4.7926579e+000
4.6311512e+000
4.4083633e+000
4.0744653e+000
3.6205614e+000
3.1210959e+000
2.6862471e+000
2.3858178e+000
2.2835710e+000
2.3611207e+000
2.6381977e+000
3.0051401e+000
3.3739781e+000
3.7270651e+000
3.9665759e+000
4.1805029e+000
4.3898921e+000
4.6343808e+000
4.9846830e+000
5.3578119e+000
5.7635179e+000
6.0978427e+000
6.3144989e+000
6.4426508e+000
6.4722290e+000
6.4267025e+000
6.2686501e+000
6.0032344e+000
5.5945411e+000
5.1587062e+000
4.6963921e+000
4.2954373e+000
3.9434280e+000
3.6597061e+000
3.4378719e+000
3.2236509e+000
3.0038915e+000
2.6873350e+000
2.2657380e+000
1.7434851e+000
1.1990288e+000
7.2617984e-001
3.6400086e-001
1.5626320e-001
2.9510470e-002
-2.2069544e-002
-5.5501141e-002
-1.0880681e-002
9.1105431e-002
2.8872514e-001
4.8795855e-001
6.9376516e-001
8.0994314e-001
8.3499491e-001
8.2975262e-001
7.9876679e-001
8.2777399e-001
9.2478728e-001
1.1140487e+000
1.3948754e+000
1.7315184e+000
2.0943201e+000
2.3978043e+000
2.6318874e+000
2.7400465e+000
2.7752068e+000
2.7739699e+000
2.7751470e+000
2.8289039e+000
2.9099126e+000
3.0253839e+000
3.1356857e+000
3.2215910e+000
3.2766242e+000
3.2737601e+000
3.2510440e+000
3.2039027e+000
3.1684556e+000
3.1774123e+000
3.1980753e+000
3.2477434e+000
3.2952671e+000
3.3300860e+000
3.3738675e+000
3.4277918e+000
3.5104520e+000
3.6439865e+000
3.8119457e+000
4.0392160e+000
4.3172598e+000
4.6560850e+000
5.0469346e+000
5.4833083e+000
5.9390345e+000
6.4074926e+000
6.8752384e+000
7.3336248e+000
7.7730603e+000
8.1833448e+000
8.5291872e+000
8.8219910e+000
8.9961004e+000
9.1124105e+000
9.1076603e+000
9.0765333e+000
8.9963884e+000
8.9025869e+000
8.7677402e+000
8.5835276e+000
8.2805071e+000
7.9224710e+000
7.4584317e+000
6.9785385e+000
6.4746556e+000
5.9842801e+000
5.5152416e+000
5.0620451e+000
4.6249299e+000
4.1733770e+000
3.7017584e+000
3.1989186e+000
2.6813715e+000
2.2014134e+000
1.7664977e+000
1.4319060e+000
1.1495676e+000
9.0300304e-001
6.7182732e-001
4.5656410e-001
2.8275168e-001
2.5858751e-001
2.9503199e-001
4.9142599e-001
6.8959594e-001
8.6041611e-001
9.8660135e-001
9.7956353e-001
9.3719602e-001
8.0870861e-001
6.6806746e-001
5.0609380e-001
3.6709213e-001
2.7191901e-001
2.3272458e-001
2.6134595e-001
2.7847540e-001
2.7285999e-001
2.0530966e-001
9.5828682e-002
3.0393718e-002
8.8779442e-003
6.8005711e-002
1.8151650e-001
3.8260013e-001
6.4527905e-001
1.0530810e+000
1.5132557e+000
2.0372427e+000
2.5358720e+000
2.8428359e+000
3.0955033e+000
3.1543572e+000
3.2150283e+000
3.2965217e+000
3.3846073e+000
3.4887996e+000
3.5447402e+000
3.4802365e+000
3.3800063e+000
3.2238996e+000
3.1633055e+000
3.2656000e+000
3.5064445e+000
3.9187799e+000
4.3596730e+000
4.8206892e+000
5.2252011e+000
5.5707192e+000
5.8045006e+000
5.9567995e+000
6.0060511e+000
6.0090427e+000
6.0142646e+000
6.0285220e+000
6.0964174e+000
6.1800966e+000
6.2869692e+000
6.3856678e+000
6.4009776e+000
6.3868122e+000
6.2102447e+000
6.0300231e+000
5.8383393e+000
5.6962485e+000
5.7134647e+000
5.7789083e+000
5.9575248e+000
6.1180902e+000
6.2395730e+000
6.2808428e+000
6.1982427e+000
6.0123997e+000
5.7008429e+000
5.2984343e+000
4.8154020e+000
4.3401728e+000
3.8866663e+000
3.6084211e+000
3.4319589e+000
3.3611960e+000
3.3125010e+000
3.0563316e+000
2.7264068e+000
2.1973934e+000
1.6489522e+000
1.2644680e+000
9.2223257e-001
9.1888571e-001
9.3086207e-001
1.0268502e+000
1.0718315e+000
8.9207208e-001
6.7842352e-001
3.6673862e-001
1.3317464e-001
8.1911042e-002
9.4818234e-002
2.1626498e-001
3.3083084e-001
4.3558699e-001
5.5217260e-001
6.8094200e-001
7.9804885e-001
9.0327269e-001
9.5744759e-001
9.7817564e-001
9.7378647e-001
9.5680350e-001
9.2126691e-001
8.8136524e-001
8.5455859e-001
8.3165288e-001
8.1662661e-001
7.9581600e-001
6.0718417e-001
4.0991563e-001
1.8443893e-001
1.6250387e-003
5.1592633e-002
1.8410620e-001
4.7049510e-001
7.5398171e-001
1.0292423e+000
1.3497409e+000
1.7673761e+000
2.2071710e+000
2.6816542e+000
3.1356781e+000
3.5636885e+000
3.9768641e+000
4.3740959e+000
4.6072898e+000
4.7226105e+000
4.6211004e+000
4.4030123e+000
4.2145429e+000
4.0342927e+000
4.0195446e+000
4.0452352e+000
4.1698985e+000
4.3094316e+000
4.5411000e+000
