Image.
>Pix99999.
  .
5555
5555
2300
900
5555
2
1
0
701
5555
2.6667999e-002
2.7222207e-002
2.7777411e-002
2.8331621e-002
2.8886823e-002
2.9441036e-002
2.9996233e-002
3.0551439e-002
3.1105658e-002
3.1660851e-002
3.2215074e-002
3.2771245e-002
3.3325486e-002
3.3877730e-002
3.4434840e-002
3.4998894e-002
3.5544522e-002
3.6065347e-002
3.6652826e-002
3.7334409e-002
3.7766829e-002
3.7850779e-002
3.8857408e-002
4.1165687e-002
4.0044550e-002
3.0064072e-002
8.6885756e-003
-2.2626197e-002
-4.9619280e-002
-5.6360073e-002
-3.4687385e-002
1.2927123e-002
5.0182808e-002
4.0538341e-002
-1.4368551e-002
-9.5554098e-002
-1.5911753e-001
-1.6754928e-001
-1.3816349e-001
-1.0331557e-001
-9.0447374e-002
-1.1452110e-001
-1.4684500e-001
-1.5458222e-001
-1.4118400e-001
-1.2263115e-001
-1.2010266e-001
-1.4997336e-001
-2.0333995e-001
-2.6541170e-001
-3.2940501e-001
-3.8908082e-001
-4.2958692e-001
-4.3568805e-001
-4.0187812e-001
-3.3170122e-001
-2.5290281e-001
-1.9449456e-001
-1.5925659e-001
-1.3988809e-001
-1.2310057e-001
-9.8581105e-002
-7.5254641e-002
-6.3384011e-002
-5.2641314e-002
-2.7591500e-002
1.9549981e-002
8.8380873e-002
1.5614033e-001
1.9835150e-001
2.1404900e-001
2.1415591e-001
2.2460629e-001
2.7017576e-001
3.5075513e-001
4.5499143e-001
5.6158108e-001
6.5213966e-001
7.3369658e-001
8.1782323e-001
8.9752853e-001
9.5585239e-001
9.6296215e-001
8.9556783e-001
7.7529317e-001
6.4103967e-001
5.3533953e-001
4.9389765e-001
5.2070475e-001
6.0589802e-001
7.3060584e-001
8.7252390e-001
1.0072464e+000
1.1124681e+000
1.1779294e+000
1.2018164e+000
1.1992092e+000
1.1896135e+000
1.1871680e+000
1.2015098e+000
1.2356143e+000
1.2892479e+000
1.3595921e+000
1.4409019e+000
1.5196817e+000
1.5820450e+000
1.6248580e+000
1.6497914e+000
1.6581898e+000
1.6504039e+000
1.6232615e+000
1.5765969e+000
1.5277920e+000
1.4994550e+000
1.5069689e+000
1.5565014e+000
1.6296228e+000
1.6999338e+000
1.7475840e+000
1.7613740e+000
1.7527572e+000
1.7404433e+000
1.7353274e+000
1.7421186e+000
1.7555492e+000
1.7678750e+000
1.7773800e+000
1.7835840e+000
1.7803508e+000
1.7626779e+000
1.7426957e+000
1.7416011e+000
1.7859360e+000
1.8934621e+000
2.0349984e+000
2.1610065e+000
2.2240410e+000
2.1910534e+000
2.0829923e+000
1.9442354e+000
1.8178800e+000
1.7374201e+000
1.7052846e+000
1.7103282e+000
1.7424269e+000
1.7923594e+000
1.8485906e+000
1.8984200e+000
1.9277411e+000
1.9277049e+000
1.9136500e+000
1.9114549e+000
1.9423314e+000
2.0180809e+000
2.1233242e+000
2.2299950e+000
2.3121519e+000
2.3507202e+000
2.3505735e+000
2.3299968e+000
2.3164001e+000
2.3364069e+000
2.3974380e+000
2.4924321e+000
2.5928714e+000
2.6649086e+000
2.6932499e+000
2.6779835e+000
2.6417279e+000
2.6136150e+000
2.6047473e+000
2.6150601e+000
2.6392920e+000
2.6696398e+000
2.6963360e+000
2.7086000e+000
2.6947303e+000
2.6479335e+000
2.5845337e+000
2.5307834e+000
2.5025742e+000
2.5069869e+000
2.5404441e+000
2.5969391e+000
2.6835234e+000
2.8102021e+000
2.9665356e+000
3.1256914e+000
3.2387023e+000
3.2591522e+000
3.1992514e+000
3.1048403e+000
3.0258291e+000
3.0008678e+000
3.0211363e+000
3.0558157e+000
3.0935481e+000
3.1385040e+000
3.2053270e+000
3.3064170e+000
3.4240572e+000
3.5242682e+000
3.5787592e+000
3.5702200e+000
3.5080359e+000
3.4160757e+000
3.3156407e+000
3.2245975e+000
3.1579938e+000
3.1291265e+000
3.1502402e+000
3.2288818e+000
3.3532994e+000
3.4959264e+000
3.6088650e+000
3.6411786e+000
3.5776589e+000
3.4305649e+000
3.2344525e+000
3.0323715e+000
2.8543258e+000
2.7238705e+000
2.6749210e+000
2.7376926e+000
2.8937280e+000
3.0864251e+000
3.2270234e+000
3.2289007e+000
3.0910983e+000
2.8711143e+000
2.6403871e+000
2.4636581e+000
2.3636250e+000
2.3289928e+000
2.3183415e+000
2.2771044e+000
2.1662920e+000
1.9703171e+000
1.7266880e+000
1.5044733e+000
1.3664771e+000
1.3527418e+000
1.4371492e+000
1.5523801e+000
1.6373320e+000
1.6525500e+000
1.6164795e+000
1.5824449e+000
1.5932171e+000
1.6666957e+000
1.7618858e+000
1.8044517e+000
1.7432240e+000
1.5644287e+000
1.3317680e+000
1.1442664e+000
1.0322417e+000
9.7433269e-001
9.5961457e-001
9.8917639e-001
1.0547000e+000
1.1312765e+000
1.1560458e+000
1.0574602e+000
8.4152967e-001
5.7435089e-001
3.3007720e-001
1.6279569e-001
4.3059941e-002
-9.8181799e-002
-2.3665728e-001
-2.8033131e-001
-1.7369342e-001
8.3470397e-002
4.0639341e-001
6.6324782e-001
7.7001292e-001
7.0658714e-001
5.4843795e-001
4.1734907e-001
3.4760001e-001
2.9367805e-001
1.8714540e-001
-2.6361123e-002
-3.0481827e-001
-5.3326845e-001
-6.0296643e-001
-4.3014920e-001
2.5060862e-002
7.5125647e-001
1.6447071e+000
2.5473297e+000
3.3607178e+000
4.0704989e+000
4.7894959e+000
5.7177820e+000
7.0354710e+000
8.8679953e+000
1.1224148e+001
1.3996325e+001
1.6937286e+001
1.9741150e+001
2.2277081e+001
2.4616787e+001
2.7041914e+001
2.9933222e+001
3.3451168e+001
3.7475174e+001
4.1523922e+001
4.4973286e+001
4.7777229e+001
5.0408646e+001
5.3322266e+001
5.6797932e+001
6.0765156e+001
6.4895905e+001
6.8961617e+001
7.2872200e+001
7.6573120e+001
8.0030724e+001
8.3271431e+001
8.6364655e+001
8.9335098e+001
9.2112373e+001
9.4399025e+001
9.5778816e+001
9.6175316e+001
9.5832436e+001
9.4926201e+001
9.3495132e+001
9.1487114e+001
8.8831749e+001
8.5663857e+001
8.2285088e+001
7.8869690e+001
7.5427727e+001
7.1903755e+001
6.8223869e+001
6.4372589e+001
6.0395672e+001
5.6357544e+001
5.2342239e+001
4.8492886e+001
4.4987492e+001
4.1909889e+001
3.9236214e+001
3.6904015e+001
3.4839634e+001
3.3001556e+001
3.1383341e+001
2.9978001e+001
2.8767599e+001
2.7719297e+001
2.6794241e+001
2.5986252e+001
2.5325129e+001
2.4845749e+001
2.4582439e+001
2.4577888e+001
2.4877983e+001
2.5494913e+001
2.6387003e+001
2.7416586e+001
2.8376806e+001
2.9160681e+001
2.9790392e+001
3.0350769e+001
3.0989271e+001
3.1981457e+001
3.3655205e+001
3.5975803e+001
3.8509701e+001
4.0823063e+001
4.2636379e+001
4.4008621e+001
4.5303215e+001
4.6749649e+001
4.8322361e+001
4.9782021e+001
5.0743431e+001
5.0979370e+001
5.0514595e+001
4.9596725e+001
4.8629845e+001
4.7838062e+001
4.7182701e+001
4.6504986e+001
4.5587097e+001
4.4280819e+001
4.2567970e+001
4.0614269e+001
3.8725880e+001
3.6996841e+001
3.5233063e+001
3.3184505e+001
3.0658443e+001
2.7754578e+001
2.4873270e+001
2.2279963e+001
1.9987371e+001
1.7897858e+001
1.5854815e+001
1.3754565e+001
1.1574419e+001
9.3173018e+000
7.0142193e+000
4.7834663e+000
2.8348267e+000
1.3372865e+000
3.8654426e-001
7.8797929e-002
4.8550916e-001
1.4383616e+000
2.5089641e+000
3.4257545e+000
4.1968451e+000
4.9190474e+000
5.6980572e+000
6.4900908e+000
7.0662904e+000
7.2269001e+000
6.8990293e+000
6.2281933e+000
5.5739117e+000
5.1290679e+000
4.8113213e+000
4.5277524e+000
4.2511530e+000
3.9711015e+000
3.6759663e+000
3.3304827e+000
2.8784997e+000
2.3170481e+000
1.7233725e+000
1.1952040e+000
8.2546049e-001
6.5750420e-001
6.6395563e-001
7.8503835e-001
9.4255686e-001
1.0841143e+000
1.2035151e+000
1.3269380e+000
1.5080572e+000
1.7824898e+000
2.1497471e+000
2.5931883e+000
3.0829105e+000
3.5792041e+000
4.0332384e+000
4.3978715e+000
4.6356297e+000
4.7350836e+000
4.7200828e+000
4.6224380e+000
4.4743400e+000
4.3073630e+000
4.1500225e+000
4.0181704e+000
3.9068975e+000
3.7927172e+000
3.6349924e+000
3.4145279e+000
3.1503243e+000
2.8685884e+000
2.5890143e+000
2.3035052e+000
1.9688505e+000
1.5669954e+000
1.1326655e+000
7.2095954e-001
3.9368382e-001
1.7420298e-001
2.5782555e-002
-8.3570309e-002
-1.5511893e-001
-1.7278279e-001
-1.1057588e-001
1.9058377e-002
1.4099784e-001
1.8376029e-001
1.1245961e-001
-5.3494036e-002
-2.2409579e-001
-3.2276297e-001
-3.2314110e-001
-2.2107005e-001
-3.1264991e-002
2.2254995e-001
5.0779212e-001
7.8459597e-001
1.0070255e+000
1.1452583e+000
1.2007463e+000
1.1919348e+000
1.1527486e+000
1.1134280e+000
1.0904760e+000
1.0916655e+000
1.1150243e+000
1.1556572e+000
1.2070779e+000
1.2614520e+000
1.3096038e+000
1.3440840e+000
1.3625336e+000
1.3693798e+000
1.3788764e+000
1.4044926e+000
1.4536453e+000
1.5286529e+000
1.6259511e+000
1.7418727e+000
1.8757570e+000
2.0291979e+000
2.2068777e+000
2.4182789e+000
2.6793587e+000
3.0038080e+000
3.3975332e+000
3.8603201e+000
4.3841600e+000
4.9653950e+000
5.6107941e+000
6.3222795e+000
7.0850749e+000
7.8658872e+000
8.6045256e+000
9.2480927e+000
9.7718573e+000
1.0174415e+001
1.0484529e+001
1.0728280e+001
1.0908298e+001
1.1015434e+001
1.1036036e+001
1.0957452e+001
1.0778854e+001
1.0501611e+001
1.0123143e+001
9.6497917e+000
9.1034403e+000
8.5120363e+000
7.9083462e+000
7.3143601e+000
6.7268014e+000
6.1331801e+000
5.5150094e+000
4.8614254e+000
4.1801572e+000
3.4879358e+000
2.8101726e+000
2.1726074e+000
1.5970449e+000
1.1002436e+000
6.9030631e-001
3.7055874e-001
1.3854182e-001
-9.0219006e-003
-7.5003318e-002
-6.7372993e-002
-6.1900839e-003
7.9801187e-002
1.5026163e-001
1.7192274e-001
1.3453323e-001
4.3296196e-002
-7.4654274e-002
-1.9120966e-001
-2.8824359e-001
-3.5414574e-001
-3.8705766e-001
-3.8991493e-001
-3.7104470e-001
-3.3868819e-001
-2.9724073e-001
-2.4523108e-001
-1.7022333e-001
-6.2259696e-002
7.7576444e-002
2.5222600e-001
4.7958958e-001
7.7439380e-001
1.1351963e+000
1.5554743e+000
2.0262437e+000
2.5373986e+000
3.0775185e+000
3.6254041e+000
4.1377487e+000
4.5770645e+000
4.9344826e+000
5.2281575e+000
5.5242653e+000
5.8809156e+000
6.3057599e+000
6.7800322e+000
7.2503271e+000
7.6719966e+000
8.0451193e+000
8.3883286e+000
8.7400913e+000
9.1307058e+000
9.5561886e+000
1.0001425e+001
1.0443271e+001
1.0859834e+001
1.1238375e+001
1.1561909e+001
1.1806931e+001
1.1955999e+001
1.2016746e+001
1.2010600e+001
1.1976520e+001
1.1951139e+001
1.1947429e+001
1.1968840e+001
1.1999372e+001
1.2014541e+001
1.1985702e+001
1.1887571e+001
1.1707883e+001
1.1442006e+001
1.1103880e+001
1.0708097e+001
1.0274410e+001
9.8209667e+000
9.3633776e+000
8.9147062e+000
8.4818668e+000
8.0691299e+000
7.6767979e+000
7.3015089e+000
6.9308581e+000
6.5524774e+000
6.1600723e+000
5.7547092e+000
5.3548460e+000
4.9764547e+000
4.6161389e+000
4.2664714e+000
3.9228005e+000
3.5837069e+000
3.2559500e+000
2.9409120e+000
2.6182120e+000
2.2699656e+000
1.9042538e+000
1.5370777e+000
1.1902027e+000
8.8430715e-001
6.3214028e-001
4.3751732e-001
2.8194654e-001
1.3927890e-001
-2.2678688e-002
-2.2200069e-001
-4.2613453e-001
-5.9156162e-001
-6.8006170e-001
-6.6233772e-001
-5.3446281e-001
-3.0279192e-001
1.2375236e-002
3.7824422e-001
7.3196501e-001
1.0117089e+000
1.1850531e+000
1.2391732e+000
1.2033275e+000
1.1119916e+000
9.7994447e-001
8.1474996e-001
6.1497164e-001
3.8973141e-001
1.9268918e-001
6.9509216e-002
-1.6506426e-003
-5.1163767e-002
-8.0048069e-002
-9.1313884e-002
-1.2142766e-001
-2.0507777e-001
-3.3988276e-001
-5.1179326e-001
-6.9781178e-001
-8.7234801e-001
-1.0085655e+000
-1.0924298e+000
-1.1586049e+000
-1.2484986e+000
-1.3817500e+000
-1.5562383e+000
-1.7072500e+000
-1.7714423e+000
-1.7526293e+000
-1.6726457e+000
-1.5582591e+000
-1.4322118e+000
-1.2964875e+000
-1.1479000e+000
