##TITLE=Methyl Ethyl Ketone
##JCAMP-DX=4.24
##DATA TYPE=INFRARED SPECTRUM
##XUNITS=cm-1
##YUNITS=Absorbance
##FIRSTX=900
##LASTX=2300
##XYDATA=(X++(Y..Y))
2296 0.016512999
2294 0.016856508
2292 0.017200017
2290 0.017543526
2288 0.017887035
2286 0.018230543
2284 0.018574052
2282 0.01891855
2280 0.019261079
2278 0.019605566
2276 0.019949086
2274 0.020292595
2272 0.020636102
2270 0.020979611
2268 0.02132312
2266 0.021666629
2264 0.022010138
2262 0.022353645
2260 0.022697154
2258 0.023040663
2256 0.023384171
2254 0.02372768
2252 0.024071189
2250 0.024414698
2248 0.024758205
2246 0.025101714
2244 0.00093280571
2242 0.010836261
2240 0.01219644
2238 0.050172381
2236 0.093619041
2234 0.12661766
2232 0.15736611
2230 0.15457742
2228 0.14979364
2226 0.141846
2224 0.13458183
2222 0.13115072
2220 0.12658243
2218 0.11789753
2216 0.11586314
2214 0.12887469
2212 0.14123319
2210 0.15107414
2208 0.14221422
2206 0.11022422
2204 0.084166296
2202 0.065240197
2200 0.072366953
2198 0.09862031
2196 0.13591929
2194 0.17885017
2192 0.21671504
2190 0.25217351
2188 0.2613377
2186 0.26200899
2184 0.24440201
2182 0.22270736
2180 0.22236907
2178 0.22546692
2176 0.24584514
2174 0.26665354
2172 0.27437517
2170 0.27999142
2168 0.2806899
2166 0.28183484
2164 0.28633368
2162 0.28631073
2160 0.27387279
2158 0.25925297
2156 0.24289599
2154 0.24610126
2152 0.27790645
2150 0.32889122
2148 0.39813679
2146 0.44570571
2144 0.47243914
2142 0.46167991
2140 0.42636979
2138 0.39127743
2136 0.35766971
2134 0.34565151
2132 0.34264654
2130 0.34107667
2128 0.33969438
2126 0.3353568
2124 0.33033291
2122 0.33962309
2120 0.35172254
2118 0.37351027
2116 0.39657259
2114 0.41888011
2112 0.44079173
2110 0.46142909
2108 0.48095351
2106 0.49770835
2104 0.50854993
2102 0.5072754
2100 0.4942252
2098 0.46442097
2096 0.4307757
2094 0.3953639
2092 0.3641372
2090 0.33751571
2088 0.31072697
2086 0.28321749
2084 0.2623786
2082 0.24600667
2080 0.24822451
2078 0.25992751
2076 0.28327116
2074 0.3109867
2072 0.32721999
2070 0.33961508
2068 0.33829677
2066 0.33378229
2064 0.33102605
2062 0.32825637
2060 0.32100385
2058 0.31310618
2056 0.30650857
2054 0.30764502
2052 0.33580446
2050 0.37697065
2048 0.43805978
2046 0.49033287
2044 0.51795983
2042 0.51283014
2040 0.46519977
2038 0.40497223
2036 0.33912101
2034 0.30275762
2032 0.29604098
2030 0.31435761
2028 0.34836224
2026 0.37291923
2024 0.38984028
2022 0.40857747
2020 0.42890477
2018 0.4574196
2016 0.489216
2014 0.48685774
2012 0.4727546
2010 0.43990663
2008 0.40381458
2006 0.39359573
2004 0.39143333
2002 0.39987642
2000 0.41386721
1998 0.44074598
1996 0.47792286
1994 0.53671604
1992 0.59177399
1990 0.62582237
1988 0.6352154
1986 0.60981101
1984 0.57026732
1982 0.52253252
1980 0.47765437
1978 0.43838188
1976 0.43243
1974 0.45636082
1972 0.53397858
1970 0.64817101
1968 0.74590456
1966 0.82889611
1964 0.83255845
1962 0.7954421
1960 0.75579917
1958 0.71729016
1956 0.70987767
1954 0.71312499
1952 0.69979942
1950 0.6809811
1948 0.66399658
1946 0.64882749
1944 0.63987499
1942 0.63183403
1940 0.61814398
1938 0.6046657
1936 0.59584087
1934 0.58475596
1932 0.56698203
1930 0.54532343
1928 0.52123308
1926 0.52280813
1924 0.5592081
1922 0.63455355
1920 0.74175084
1918 0.83399922
1916 0.90510356
1914 0.92966974
1912 0.92241722
1910 0.88113064
1908 0.82202899
1906 0.73928934
1904 0.64500839
1902 0.57555717
1900 0.5181191
1898 0.52261245
1896 0.55244428
1894 0.59848511
1892 0.64454406
1890 0.64725101
1888 0.62548447
1886 0.56880313
1884 0.50259149
1882 0.44680262
1880 0.40370443
1878 0.38191345
1876 0.38170099
1874 0.40881512
1872 0.464412
1870 0.54996544
1868 0.61410028
1866 0.63843393
1864 0.58614379
1862 0.46383899
1860 0.32402855
1858 0.1852639
1856 0.082728915
1854 0.0085966215
1852 -0.0094960649
1850 0.0068746689
1848 0.080109924
1846 0.18421857
1844 0.25420874
1842 0.30283803
1840 0.26765716
1838 0.19422507
1836 0.134076
1834 0.091937363
1832 0.1153703
1830 0.17343557
1828 0.24946013
1826 0.30491835
1824 0.28139487
1822 0.19736817
1820 0.054145414
1818 -0.090765834
1816 -0.19726972
1814 -0.24934615
1812 -0.24246934
1810 -0.21106121
1808 -0.17418092
1806 -0.142462
1804 -0.11805309
1802 -0.089082561
1800 -0.053599134
1798 -0.0072018094
1796 0.04698436
1794 0.10528093
1792 0.1647816
1790 0.18093733
1788 0.1685594
1786 0.13036536
1784 0.080723718
1782 0.067209125
1780 0.080661178
1778 0.14242847
1776 0.2339063
1774 0.3425898
1772 0.43501416
1770 0.44564232
1768 0.39102605
1766 0.27219763
1764 0.1445514
1762 0.059564583
1760 0.015849151
1758 -0.080559865
1756 -0.17161056
1754 -0.1957832
1752 -0.10235727
1750 0.10705295
1748 0.33662966
1746 0.54902679
1744 0.61844945
1742 0.55461025
1740 0.4677676
1738 0.38538504
1736 0.41379401
1734 0.52780902
1732 0.55347645
1730 0.50462931
1728 0.29706651
1726 -0.0005197078
1724 -0.17191957
1722 -0.2093973
1720 0.031377032
1718 0.49434847
1716 1.1732135
1714 1.9248395
1712 2.5223713
1710 3.0397172
1708 3.5649581
1706 4.2905521
1704 5.3922377
1702 7.0946913
1700 9.4963818
1698 12.691829
1696 16.606144
1694 20.513689
1692 24.094608
1690 27.323114
1688 30.270521
1686 33.802151
1684 37.993542
1682 42.933365
1680 48.449081
1678 53.186737
1676 57.202316
1674 60.928452
1672 64.497757
1670 68.528725
1668 72.893227
1666 77.170547
1664 81.305977
1662 85.096565
1660 88.513496
1658 91.467239
1656 93.967308
1654 96.035568
1652 97.630157
1650 98.731636
1648 98.852356
1646 97.618217
1644 95.410545
1642 92.648155
1640 89.578125
1638 86.392632
1636 82.753311
1634 78.573204
1632 74.229942
1630 69.874489
1628 65.713364
1626 61.769608
1624 57.7458
1622 53.607376
1620 49.543049
1618 45.569675
1616 41.82637
1614 38.339745
1612 35.277027
1610 32.648418
1608 30.426172
1606 28.584749
1604 26.975254
1602 25.617521
1600 24.51232
1598 23.675945
1596 23.091499
1594 22.730913
1592 22.523857
1590 22.43671
1588 22.419909
1586 22.488129
1584 22.644846
1582 22.914499
1580 23.302597
1578 23.85618
1576 24.584429
1574 25.468739
1572 26.494932
1570 27.562351
1568 28.646759
1566 29.727421
1564 30.807177
1562 32.128056
1560 33.796539
1558 36.444363
1556 40.113716
1554 44.02486
1552 47.949841
1550 50.944519
1548 53.077507
1546 54.972248
1544 56.633423
1542 58.15115
1540 59.272579
1538 59.65744
1536 59.310886
1534 58.36533
1532 57.062439
1530 55.69817
1528 54.248928
1526 52.698952
1524 50.981239
1522 49.051502
1520 46.887646
1518 44.462727
1516 42.066628
1514 39.797134
1512 37.642479
1510 35.621159
1508 33.141979
1506 30.052544
1504 26.889572
1502 23.704382
1500 21.006821
1498 18.85465
1496 16.746143
1494 14.670563
1492 12.548477
1490 10.377275
1488 8.1799574
1486 6.0199542
1484 4.026
1482 2.3272064
1480 1.0736046
1478 0.30447322
1476 0.058625758
1474 0.39890659
1472 1.2391783
1470 2.232913
1468 3.1641464
1466 3.9318023
1464 4.45117
1462 4.9160528
1460 5.4029694
1458 5.9219184
1456 6.4844398
1454 6.8974457
1452 7.064548
1450 7.0692368
1448 6.8480916
1446 6.6002965
1444 6.3203959
1442 6.0577102
1440 5.8101764
1438 5.5331082
1436 5.1911159
1434 4.7136302
1432 4.1003361
1430 3.4560418
1428 2.841332
1426 2.3885157
1424 2.12398
1422 2.0509436
1420 2.1344674
1418 2.3133385
1416 2.5239315
1414 2.6973789
1412 2.8549609
1410 3.0146897
1408 3.2082868
1406 3.4693079
1404 3.7838407
1402 4.1693316
1400 4.5991039
1398 5.0903535
1396 5.5679717
1394 6.0053968
1392 6.3394761
1390 6.4901071
1388 6.5179238
1386 6.3513699
1384 6.0782619
1382 5.6646314
1380 5.2207637
1378 4.7518058
1376 4.3115082
1374 3.9088061
1372 3.5352302
1370 3.1935935
1368 2.8764179
1366 2.5581608
1364 2.1927929
1362 1.7737923
1360 1.2842833
1358 0.80067134
1356 0.41261071
1354 0.13420704
1352 0.034350134
1350 0.027941108
1348 0.11375596
1346 0.22634035
1344 0.3993248
1342 0.61358857
1340 0.90343451
1338 1.1859224
1336 1.4418743
1334 1.6342531
1332 1.7124112
1330 1.7868279
1328 1.8647251
1326 1.9931921
1324 2.2007678
1322 2.4607019
1320 2.7860382
1318 3.1337984
1316 3.4897599
1314 3.7977755
1312 4.0470982
1310 4.2320142
1308 4.3628826
1306 4.4618559
1304 4.5279474
1302 4.5484056
1300 4.5321722
1298 4.4662404
1296 4.3856001
1294 4.3076243
1292 4.2424564
1290 4.2095356
1288 4.1820598
1286 4.1566801
1284 4.1271095
1282 4.0863442
1280 4.0496473
1278 4.0226059
1276 4.0032244
1274 4.0000701
1272 4.0068965
1270 4.0333042
1268 4.0791454
1266 4.154942
1264 4.2515588
1262 4.3705316
1260 4.4888282
1258 4.6022453
1256 4.6993055
1254 4.7828851
1252 4.862431
1250 4.93856
1248 5.0113521
1246 5.0780001
1244 5.1287856
1242 5.1677651
1240 5.1868415
1238 5.1840062
1236 5.1273255
1234 5.0305939
1232 4.8359962
1230 4.6019621
1228 4.271596
1226 3.9169073
1224 3.4993081
1222 3.0684733
1220 2.607466
1218 2.150661
1216 1.70662
1214 1.2916707
1212 0.9299531
1210 0.60815817
1208 0.34465176
1206 0.11235107
1204 -0.08403118
1202 -0.26933175
1200 -0.44406936
1198 -0.61542374
1196 -0.77796501
1194 -0.91306323
1192 -1.0208949
1190 -1.079307
1188 -1.1046083
1186 -1.0828943
1184 -1.0325797
1182 -0.92840499
1180 -0.78989804
1178 -0.56102693
1176 -0.29873082
1174 0.048980683
1172 0.39735791
1170 0.72723675
1168 1.0242932
1166 1.2189564
1164 1.3782423
1162 1.4493251
1160 1.4955606
1158 1.4893839
1156 1.4536899
1154 1.3660098
1152 1.2419412
1150 1.0679202
1148 0.87144864
1146 0.65392178
1144 0.44693768
1142 0.25809819
1140 0.12082476
1138 0.027661623
1136 -0.011532386
1134 -0.015710331
1132 0.048680328
1130 0.14990847
1128 0.30700731
1126 0.48070586
1124 0.66163814
1122 0.83535826
1120 0.96422523
1118 1.0800304
1116 1.1480443
1114 1.2144099
1112 1.2781069
1110 1.3515666
1108 1.4558846
1106 1.566705
1104 1.6921394
1102 1.8083525
1100 1.9030749
1098 1.9660931
1096 1.9767429
1094 1.9534779
1092 1.8911281
1090 1.8436995
1088 1.8161285
1086 1.8283678
1084 1.8721769
1082 1.9256917
1080 1.9836794
1078 2.032285
1076 2.0704858
1074 2.0643809
1072 2.0333886
1070 1.9276874
1068 1.80072
1066 1.6393429
1064 1.47628
1062 1.333317
1060 1.2007369
1058 1.1285628
1056 1.0706457
1054 1.074574
1052 1.0789239
1050 1.083207
1048 1.0725732
1046 1.0263692
1044 0.98045623
1042 0.93631595
1040 0.90679234
1038 0.89680338
1036 0.87295502
1034 0.82889503
1032 0.73777014
1030 0.60264421
1028 0.44085783
1026 0.26362437
1024 0.11448009
1022 -0.015134417
1020 -0.092922613
1018 -0.1486409
1016 -0.18083085
1014 -0.20815271
1012 -0.25143474
1010 -0.29873219
1008 -0.36104199
1006 -0.4219265
1004 -0.45126584
1002 -0.47476062
1000 -0.46039137
998 -0.44849205
996 -0.44778141
994 -0.453127
992 -0.47689909
990 -0.49591324
988 -0.50386089
986 -0.50728011
984 -0.50301975
982 -0.50272161
980 -0.50721961
978 -0.50494939
976 -0.49464399
974 -0.46552187
972 -0.42164788
970 -0.38106388
968 -0.34310246
966 -0.31821901
964 -0.29871133
962 -0.26897287
960 -0.23607783
958 -0.20503308
956 -0.17498928
954 -0.15733011
952 -0.1409288
950 -0.11837309
948 -0.092903823
946 -0.030462747
944 0.0021610968
942 0.067639157
940 0.20984623
938 0.41932529
936 0.62523371
934 0.82025492
932 0.99710757
930 1.1343164
928 1.2322046
926 1.2668378
924 1.2773219
922 1.258787
920 1.2583829
918 1.2742465
916 1.2513828
914 1.2002337
912 1.0703393
910 0.89954031
908 0.77991301
906 0.68127728
904 0.74965274
902 0.86247867
900 1.0952214
898 1.3473564
896 1.5965
