Image.
>Pix99999.
  .
5555
5555
2300
900
5555
2
1
0
701
5555
2.7530999e-003
2.8104181e-003
2.8676363e-003
2.9249538e-003
2.9821726e-003
3.0394900e-003
3.0968080e-003
3.1540270e-003
3.2113441e-003
3.2689583e-003
3.3258859e-003
3.3818199e-003
3.4403936e-003
3.5024448e-003
3.5550499e-003
3.5943619e-003
3.6690719e-003
3.7934473e-003
3.7857830e-003
3.5933608e-003
3.8913772e-003
4.8784479e-003
4.0429910e-003
6.3721160e-004
4.0060231e-003
2.0474633e-002
3.2942399e-002
1.8729560e-002
-4.0884599e-002
-1.5136158e-001
-2.6947057e-001
-3.4363857e-001
-3.4459743e-001
-2.6275390e-001
-1.4162719e-001
-3.5198901e-002
2.2005212e-002
7.6753884e-003
-7.4924536e-002
-2.0863725e-001
-3.5034314e-001
-4.5362020e-001
-4.8961061e-001
-4.4673198e-001
-3.6157510e-001
-2.8012678e-001
-2.2726144e-001
-2.1519712e-001
-2.3184800e-001
-2.6041549e-001
-2.9484928e-001
-3.3197805e-001
-3.6590582e-001
-3.8965935e-001
-3.9556208e-001
-3.7975734e-001
-3.5486481e-001
-3.3778301e-001
-3.4142092e-001
-3.7127358e-001
-4.0817428e-001
-4.2729110e-001
-4.1313344e-001
-3.5951251e-001
-2.8491789e-001
-2.1477471e-001
-1.6970846e-001
-1.6175635e-001
-1.7501828e-001
-1.8483722e-001
-1.6924401e-001
-1.1535576e-001
-4.2858172e-002
1.9263612e-002
4.9656130e-002
3.6341857e-002
-6.2470343e-003
-5.6126088e-002
-9.7853631e-002
-1.2234184e-001
-1.3604000e-001
-1.5022255e-001
-1.7351116e-001
-2.1251857e-001
-2.7027678e-001
-3.4624699e-001
-4.3039486e-001
-5.0842887e-001
-5.6247741e-001
-5.7755494e-001
-5.5580556e-001
-5.0768328e-001
-4.5180410e-001
-4.0826082e-001
-3.9164886e-001
-4.0992957e-001
-4.5252845e-001
-5.0179392e-001
-5.3960979e-001
-5.5141413e-001
-5.3719574e-001
-5.0440758e-001
-4.6819690e-001
-4.4553435e-001
-4.4941953e-001
-4.8639649e-001
-5.4308969e-001
-5.9918118e-001
-6.3795656e-001
-6.4913672e-001
-6.4209700e-001
-6.3126695e-001
-6.1973238e-001
-6.0474634e-001
-5.7984316e-001
-5.4193610e-001
-5.0744152e-001
-4.9850193e-001
-5.2719438e-001
-5.9699357e-001
-6.9417000e-001
-7.9846138e-001
-8.9153707e-001
-9.5825791e-001
-9.9205947e-001
-9.9208790e-001
-9.6635443e-001
-9.2664188e-001
-8.8530833e-001
-8.5283172e-001
-8.3138657e-001
-8.1845653e-001
-8.0684060e-001
-7.8888547e-001
-7.6288962e-001
-7.2867393e-001
-6.8103921e-001
-6.1510503e-001
-5.3747028e-001
-4.6202955e-001
-4.1115800e-001
-4.0243545e-001
-4.1820574e-001
-4.2685494e-001
-4.0676314e-001
-3.4946057e-001
-2.7889174e-001
-2.3118560e-001
-2.3199441e-001
-2.9444158e-001
-4.0295357e-001
-5.2908325e-001
-6.4528155e-001
-7.2937828e-001
-7.7663159e-001
-7.9174548e-001
-7.8456736e-001
-7.6599252e-001
-7.4325949e-001
-7.1807897e-001
-6.7673659e-001
-6.0046202e-001
-4.8055989e-001
-3.2311633e-001
-1.7428839e-001
-9.2807494e-002
-1.0792226e-001
-2.2150050e-001
-3.8683802e-001
-5.4171920e-001
-6.5723300e-001
-7.2708774e-001
-7.6249474e-001
-7.7941817e-001
-7.8178823e-001
-7.6855004e-001
-7.4631172e-001
-7.2517526e-001
-7.1087283e-001
-7.0490432e-001
-7.0194656e-001
-6.9627017e-001
-6.9512200e-001
-7.0948106e-001
-7.3549861e-001
-7.5528377e-001
-7.2679669e-001
-6.0985690e-001
-4.2573047e-001
-2.2995411e-001
-7.8123674e-002
-1.1525347e-002
-2.1448141e-002
-7.7229202e-002
-1.7120154e-001
-3.0524671e-001
-4.5716679e-001
-5.8641392e-001
-6.3667905e-001
-5.5807430e-001
-3.6182141e-001
-1.0112081e-001
1.4122051e-001
2.7991030e-001
2.7865422e-001
1.4230354e-001
-7.2581016e-002
-2.8976530e-001
-4.6583956e-001
-5.8387768e-001
-6.4805299e-001
-6.6822886e-001
-6.3401490e-001
-5.2975345e-001
-3.7382820e-001
-2.1016885e-001
-1.0041794e-001
-1.0068940e-001
-2.0494954e-001
-3.6941305e-001
-5.5289346e-001
-7.2200215e-001
-8.5369545e-001
-9.3061155e-001
-9.3505883e-001
-8.5719287e-001
-7.2569793e-001
-5.9091932e-001
-4.9262080e-001
-4.5029268e-001
-4.3383601e-001
-3.8622510e-001
-2.6533285e-001
-5.7660349e-002
1.7921245e-001
3.5029766e-001
3.9026031e-001
2.7409738e-001
5.0324623e-002
-1.9358063e-001
-3.9694285e-001
-5.2960736e-001
-5.9714818e-001
-6.2051332e-001
-5.9599316e-001
-5.0730699e-001
-3.6619154e-001
-2.0895143e-001
-8.8586599e-002
-4.9997330e-002
-6.1775930e-002
-4.5516431e-002
5.1680043e-002
2.4534275e-001
4.8913771e-001
7.0646977e-001
8.6251116e-001
9.6113557e-001
1.0287356e+000
1.0995210e+000
1.1918256e+000
1.3009689e+000
1.3745606e+000
1.3377010e+000
1.1596103e+000
8.5921663e-001
5.2182180e-001
2.5413233e-001
6.4163029e-002
-1.0188224e-001
-2.2930044e-001
-2.5019145e-001
-1.2778664e-001
1.2934430e-001
4.4574809e-001
7.0807892e-001
8.3538437e-001
8.0079043e-001
6.8818343e-001
6.4077985e-001
7.1377599e-001
8.6803520e-001
9.8429561e-001
9.2003375e-001
6.5519607e-001
2.8193972e-001
-5.1912032e-002
-1.7546040e-001
5.9095383e-002
7.3537898e-001
1.7392986e+000
2.8189406e+000
3.7812760e+000
4.5445247e+000
5.2266264e+000
6.0907636e+000
7.3934402e+000
9.3387871e+000
1.2016708e+001
1.5364451e+001
1.9013000e+001
2.2420700e+001
2.5333868e+001
2.7839994e+001
3.0356789e+001
3.3482079e+001
3.7605209e+001
4.2773544e+001
4.8389801e+001
5.3510719e+001
5.7916599e+001
6.2073105e+001
6.6453758e+001
7.1315865e+001
7.6401497e+001
8.1088646e+001
8.5005135e+001
8.8087212e+001
9.0404884e+001
9.2091873e+001
9.3265144e+001
9.4007744e+001
9.4368683e+001
9.4360596e+001
9.3934769e+001
9.3024002e+001
9.1708801e+001
9.0183487e+001
8.8521439e+001
8.6646942e+001
8.4405716e+001
8.1634529e+001
7.8349525e+001
7.4718689e+001
7.0823929e+001
6.6639526e+001
6.2145000e+001
5.7368889e+001
5.2463173e+001
4.7678585e+001
4.3210228e+001
3.9170448e+001
3.5625309e+001
3.2598240e+001
3.0045908e+001
2.7875149e+001
2.6017195e+001
2.4442326e+001
2.3151726e+001
2.2165815e+001
2.1487499e+001
2.1097361e+001
2.0961554e+001
2.1035776e+001
2.1286585e+001
2.1697006e+001
2.2260988e+001
2.2990290e+001
2.3953758e+001
2.5272251e+001
2.7059599e+001
2.9382954e+001
3.2163120e+001
3.5179356e+001
3.8209240e+001
4.1078114e+001
4.3714832e+001
4.6190937e+001
4.8798267e+001
5.1924801e+001
5.5398914e+001
5.8465748e+001
6.0548141e+001
6.1467472e+001
6.1457603e+001
6.1048466e+001
6.0458889e+001
5.9495060e+001
5.7924240e+001
5.5629398e+001
5.2819344e+001
5.0002243e+001
4.7510956e+001
4.5389080e+001
4.3551933e+001
4.1836750e+001
4.0065552e+001
3.8082771e+001
3.5834080e+001
3.3394066e+001
3.0939014e+001
2.8693802e+001
2.6678120e+001
2.4665754e+001
2.2449038e+001
1.9941851e+001
1.7284224e+001
1.4823400e+001
1.2750543e+001
1.1007580e+001
9.4624424e+000
7.9704657e+000
6.4696116e+000
5.0004864e+000
3.6096709e+000
2.3298943e+000
1.2188873e+000
3.6484885e-001
-1.6241702e-001
-3.1679535e-001
-1.7063588e-002
8.3491576e-001
2.1633663e+000
3.6810889e+000
5.1404457e+000
6.4206772e+000
7.5202208e+000
8.5512466e+000
9.6191711e+000
1.0772933e+001
1.1961400e+001
1.3023280e+001
1.3802989e+001
1.4194443e+001
1.4178371e+001
1.3833428e+001
1.3264700e+001
1.2577640e+001
1.1850788e+001
1.1121322e+001
1.0380385e+001
9.5769377e+000
8.6955729e+000
7.7841349e+000
6.9167781e+000
6.1783028e+000
5.6196599e+000
5.2388401e+000
5.0099573e+000
4.8935795e+000
4.8675113e+000
4.9380050e+000
5.1178017e+000
5.4161787e+000
5.8188763e+000
6.2785172e+000
6.7397571e+000
7.1477928e+000
7.4577479e+000
7.6402583e+000
7.6751785e+000
7.5544448e+000
7.2915907e+000
6.9281464e+000
6.5123210e+000
6.0903502e+000
5.6936116e+000
5.3304157e+000
4.9944553e+000
4.6646757e+000
4.3142715e+000
3.9149470e+000
3.4510579e+000
2.9278755e+000
2.3597867e+000
1.7684114e+000
1.1783491e+000
6.1845350e-001
1.3217400e-001
-2.1986850e-001
-3.9505699e-001
-3.8628110e-001
-2.0077533e-001
1.4386287e-001
6.2664801e-001
1.2252464e+000
1.9193039e+000
2.6866765e+000
3.4726815e+000
4.1721454e+000
4.6763797e+000
4.8993187e+000
4.8201051e+000
4.5151882e+000
4.0780864e+000
3.5925264e+000
3.1307116e+000
2.7459888e+000
2.4694800e+000
2.2989309e+000
2.2064102e+000
2.1351721e+000
2.0340457e+000
1.8756350e+000
1.6581295e+000
1.4144285e+000
1.1864130e+000
1.0173339e+000
9.4614232e-001
1.0020920e+000
1.2049857e+000
1.5594547e+000
2.0527692e+000
2.6470244e+000
3.2942119e+000
3.9401965e+000
4.5373321e+000
5.0540791e+000
5.4723849e+000
5.7930331e+000
6.0286655e+000
6.2057543e+000
6.3538055e+000
6.5024519e+000
6.6800299e+000
6.9124389e+000
7.2223077e+000
7.6267042e+000
8.1327057e+000
8.7322950e+000
9.4176283e+000
1.0188842e+001
1.1052792e+001
1.2023522e+001
1.3102892e+001
1.4263250e+001
1.5459302e+001
1.6625092e+001
1.7694361e+001
1.8612078e+001
1.9325714e+001
1.9782770e+001
1.9926559e+001
1.9698648e+001
1.9069643e+001
1.8067707e+001
1.6762133e+001
1.5272675e+001
1.3733015e+001
1.2284770e+001
1.1050314e+001
1.0111202e+001
9.5078163e+000
9.2156277e+000
9.1806946e+000
9.3158340e+000
9.5205746e+000
9.6845474e+000
9.7055397e+000
9.5079374e+000
9.0537853e+000
8.3732309e+000
7.5290637e+000
6.6177602e+000
5.7316747e+000
4.9352942e+000
4.2678304e+000
3.7269716e+000
3.2951007e+000
2.9433622e+000
2.6462400e+000
2.3925583e+000
2.1794803e+000
2.0159817e+000
1.9111921e+000
1.8683765e+000
1.8820100e+000
1.9295729e+000
1.9814589e+000
2.0018601e+000
1.9593956e+000
1.8378199e+000
1.6360383e+000
1.3791460e+000
1.0985242e+000
8.2474893e-001
5.8094108e-001
3.7294552e-001
1.9790161e-001
4.3281168e-002
-9.7109005e-002
-2.0973250e-001
-2.8219724e-001
-3.1624636e-001
-3.1912896e-001
-3.0289292e-001
-2.7738276e-001
-2.4456792e-001
-2.0587319e-001
-1.6602029e-001
-1.3072300e-001
-1.0534018e-001
-8.7415010e-002
-5.6320712e-002
3.4002960e-003
8.3216801e-002
1.6667372e-001
2.3375118e-001
2.8164640e-001
3.5222951e-001
4.8618284e-001
6.9236219e-001
9.5818019e-001
1.2375009e+000
1.4956955e+000
1.7483221e+000
2.0184801e+000
2.3148367e+000
2.6239245e+000
2.8838139e+000
3.0342615e+000
3.0513408e+000
2.9358823e+000
2.7309115e+000
2.4879897e+000
2.2532084e+000
2.0610080e+000
1.9173619e+000
1.8149428e+000
1.7293584e+000
1.6362971e+000
1.5244577e+000
1.3909988e+000
1.2481430e+000
1.1122577e+000
1.0024682e+000
9.3786997e-001
9.3652332e-001
1.0133963e+000
1.1751096e+000
1.4183100e+000
1.7160668e+000
2.0290737e+000
2.2981200e+000
2.4677536e+000
2.5079057e+000
2.4064257e+000
2.1854229e+000
1.8748198e+000
1.5021287e+000
1.0970057e+000
6.9714129e-001
3.3573028e-001
2.4731562e-002
-2.3768359e-001
-4.7912937e-001
-7.2071600e-001
-9.4414943e-001
-1.1296144e+000
-1.2830596e+000
-1.4202143e+000
-1.5677661e+000
-1.7414618e+000
-1.9150625e+000
-2.0573831e+000
-2.1559358e+000
-2.2090595e+000
-2.2348688e+000
-2.2519259e+000
-2.2635283e+000
-2.2661028e+000
-2.2449079e+000
-2.1877174e+000
-2.0987020e+000
-1.9917606e+000
-1.8999300e+000
-1.8501917e+000
-1.8318390e+000
-1.8179584e+000
-1.7585981e+000
-1.6133599e+000
-1.3959882e+000
-1.1288515e+000
-8.1941891e-001
-4.8180822e-001
-1.6691527e-001
8.1654549e-002
2.7813059e-001
4.3253088e-001
4.8911631e-001
4.1110599e-001
2.8958812e-001
2.2956739e-001
2.6998860e-001
4.0959993e-001
5.5948889e-001
6.2983561e-001
6.0942423e-001
5.2524173e-001
4.7424895e-001
5.4436600e-001
7.2241861e-001
9.6047574e-001
1.1741970e+000
1.3035797e+000
1.4182814e+000
1.6122177e+000
1.9480176e+000
2.4414697e+000
2.9549115e+000
3.3124001e+000
