Image.
>Pix99999.
  .
5555
5555
2300
900
5555
2
1
0
701
5555
-1.1831000e-001
-1.2076648e-001
-1.2323295e-001
-1.2568945e-001
-1.2815589e-001
-1.3061243e-001
-1.3307883e-001
-1.3553540e-001
-1.3800177e-001
-1.4045836e-001
-1.4292471e-001
-1.4539118e-001
-1.4784783e-001
-1.5028469e-001
-1.5277021e-001
-1.5529579e-001
-1.5769514e-001
-1.5989657e-001
-1.6260006e-001
-1.6603610e-001
-1.6755800e-001
-1.6642630e-001
-1.7233703e-001
-1.8819772e-001
-1.7784640e-001
-1.0845571e-001
-3.9334283e-003
8.9577265e-002
1.0076364e-001
-2.4039453e-002
-2.3917902e-001
-4.7733933e-001
-6.9796872e-001
-8.7362707e-001
-9.9739951e-001
-1.0665700e+000
-1.0719869e+000
-1.0050423e+000
-8.6847442e-001
-6.7542058e-001
-4.6820542e-001
-2.9474202e-001
-1.9056781e-001
-1.7518367e-001
-2.1847515e-001
-2.7824593e-001
-3.2415548e-001
-3.3582288e-001
-3.1771898e-001
-2.8057221e-001
-2.2960357e-001
-1.6837932e-001
-1.0130856e-001
-3.1594545e-002
4.3518219e-002
1.2431775e-001
1.9326080e-001
2.2722165e-001
2.0368481e-001
1.1122371e-001
-1.7798685e-002
-1.3659042e-001
-1.9778974e-001
-1.6607609e-001
-5.4807909e-002
1.0104530e-001
2.4417537e-001
3.2065821e-001
3.1946710e-001
2.5140047e-001
1.5668701e-001
7.8950956e-002
3.6210760e-002
3.3328559e-002
5.8252390e-002
9.5524967e-002
1.3874762e-001
1.8343541e-001
2.1937226e-001
2.3400329e-001
2.1387371e-001
1.5186170e-001
6.8150736e-002
-9.4225127e-003
-6.1846402e-002
-7.8151383e-002
-6.6144913e-002
-3.8437188e-002
3.2480108e-004
4.7414836e-002
9.5046014e-002
1.3435180e-001
1.6022520e-001
1.7322341e-001
1.9124784e-001
2.3348936e-001
2.9776439e-001
3.6788440e-001
4.0434000e-001
3.6885086e-001
2.6407859e-001
1.1556033e-001
-2.3004808e-002
-9.7815022e-002
-9.7491540e-002
-3.4258701e-002
5.2430585e-002
1.2123653e-001
1.6492862e-001
1.9450893e-001
2.3858757e-001
3.2527941e-001
4.5360321e-001
6.0533792e-001
7.4065006e-001
8.1676406e-001
8.1326038e-001
7.2806042e-001
5.9591156e-001
4.6300131e-001
3.6140171e-001
3.0900618e-001
2.9195127e-001
2.8528276e-001
2.7247378e-001
2.4620715e-001
2.2009081e-001
2.1363184e-001
2.3428594e-001
2.8118059e-001
3.4203443e-001
4.0295038e-001
4.6282777e-001
5.2585280e-001
5.9404826e-001
6.6759741e-001
7.4455565e-001
8.2072550e-001
8.8622618e-001
9.2917043e-001
9.3981802e-001
9.1371012e-001
8.6418718e-001
8.1106555e-001
7.6750338e-001
7.4290329e-001
7.4560714e-001
7.8158957e-001
8.4798336e-001
9.3539721e-001
1.0241171e+000
1.0924100e+000
1.1292509e+000
1.1306207e+000
1.1000279e+000
1.0427500e+000
9.5712411e-001
8.4302664e-001
7.2099066e-001
6.2482488e-001
6.0121310e-001
6.9197166e-001
8.9399403e-001
1.1725932e+000
1.4536858e+000
1.6542078e+000
1.7294132e+000
1.6673882e+000
1.5113200e+000
1.3260577e+000
1.1584486e+000
1.0377585e+000
9.6420437e-001
9.2343611e-001
8.9826047e-001
8.7362498e-001
8.4553897e-001
8.1675220e-001
7.9423016e-001
7.8367859e-001
7.7779144e-001
7.6266617e-001
7.2603780e-001
6.6092688e-001
5.7697141e-001
4.9683684e-001
4.6157148e-001
5.1214433e-001
6.4928794e-001
8.4561330e-001
1.0495633e+000
1.2070726e+000
1.3032217e+000
1.3436142e+000
1.3271348e+000
1.2502857e+000
1.1253160e+000
9.8142093e-001
8.8059431e-001
8.8812470e-001
1.0058399e+000
1.1877199e+000
1.3425329e+000
1.3728440e+000
1.2508520e+000
1.0010684e+000
6.9164032e-001
4.0297714e-001
1.7560852e-001
2.3486076e-002
-4.5193300e-002
-2.3453256e-002
9.4566777e-002
3.0203277e-001
5.3850639e-001
7.1881068e-001
7.8923184e-001
7.3096269e-001
5.8251560e-001
4.0771756e-001
2.3917228e-001
8.6652100e-002
-4.2514972e-002
-1.4244574e-001
-2.1724281e-001
-2.7701858e-001
-3.3093828e-001
-3.8366365e-001
-4.2525005e-001
-4.3949556e-001
-4.2249444e-001
-3.7571150e-001
-2.8548613e-001
-1.3444218e-001
6.4177670e-002
2.7093264e-001
4.2176473e-001
4.5139942e-001
3.4997180e-001
1.5000375e-001
-9.3457833e-002
-3.1919599e-001
-4.8523769e-001
-5.6839788e-001
-5.6791264e-001
-5.0228697e-001
-4.1732115e-001
-3.6817691e-001
-3.7696269e-001
-4.3082088e-001
-4.6781430e-001
-4.0963578e-001
-2.4090560e-001
3.2978803e-003
2.6987225e-001
5.0575727e-001
6.8817210e-001
8.1662595e-001
8.9321762e-001
9.2231572e-001
9.2301542e-001
9.1883856e-001
9.0591282e-001
8.5956997e-001
7.5441670e-001
5.7871735e-001
3.7349060e-001
2.0169841e-001
5.5223316e-002
-1.1139503e-001
-2.5703615e-001
-2.8081211e-001
-1.3044581e-001
1.7933467e-001
5.3223455e-001
7.5661641e-001
7.4148721e-001
4.6322560e-001
5.1183283e-002
-2.7932876e-001
-4.0764800e-001
-3.2594192e-001
-1.5090527e-001
-5.8073420e-002
-1.1626992e-001
-2.8210315e-001
-4.2233053e-001
-3.5294169e-001
8.9247495e-002
9.8971450e-001
2.1832914e+000
3.3380208e+000
4.2356505e+000
4.8256269e+000
5.2913198e+000
5.9761515e+000
7.1946750e+000
9.1747894e+000
1.1966663e+001
1.5427591e+001
1.9143143e+001
2.2569700e+001
2.5470360e+001
2.7949413e+001
3.0401875e+001
3.3376915e+001
3.7254356e+001
4.2125626e+001
4.7510479e+001
5.2613811e+001
5.7261715e+001
6.1858631e+001
6.6754990e+001
7.2058952e+001
7.7401627e+001
8.2110703e+001
8.5860420e+001
8.8703613e+001
9.0790375e+001
9.2283165e+001
9.3304947e+001
9.3931511e+001
9.4200317e+001
9.4109970e+001
9.3590904e+001
9.2553253e+001
9.1078979e+001
8.9386566e+001
8.7581009e+001
8.5619850e+001
8.3375916e+001
8.0699905e+001
7.7583466e+001
7.4137535e+001
7.0396423e+001
6.6306854e+001
6.1848763e+001
5.7071110e+001
5.2133350e+001
4.7280201e+001
4.2709572e+001
3.8551392e+001
3.4902302e+001
3.1821020e+001
2.9278761e+001
2.7172272e+001
2.5405743e+001
2.3913624e+001
2.2673817e+001
2.1698801e+001
2.0997002e+001
2.0561935e+001
2.0370720e+001
2.0389008e+001
2.0595285e+001
2.0986036e+001
2.1562241e+001
2.2335690e+001
2.3373728e+001
2.4793299e+001
2.6681343e+001
2.9055765e+001
3.1795282e+001
3.4658329e+001
3.7451481e+001
4.0073086e+001
4.2487198e+001
4.4752037e+001
4.7155361e+001
5.0105450e+001
5.3494671e+001
5.6651218e+001
5.8974152e+001
6.0154316e+001
6.0342651e+001
6.0071857e+001
5.9617950e+001
5.8871567e+001
5.7623520e+001
5.5698444e+001
5.3215141e+001
5.0594093e+001
4.8178131e+001
4.6122005e+001
4.4404289e+001
4.2842648e+001
4.1222008e+001
3.9355015e+001
3.7191292e+001
3.4843937e+001
3.2511570e+001
3.0405602e+001
2.8503319e+001
2.6519966e+001
2.4217028e+001
2.1521585e+001
1.8625126e+001
1.5952083e+001
1.3738263e+001
1.1924530e+001
1.0360643e+001
8.8776979e+000
7.3991575e+000
5.9604759e+000
4.5818167e+000
3.2465265e+000
1.9907081e+000
9.2449790e-001
1.6346386e-001
-1.8726453e-001
-1.1745155e-002
7.8350163e-001
2.0842011e+000
3.5405560e+000
4.8820066e+000
6.0225835e+000
7.0071998e+000
7.9913192e+000
9.1098976e+000
1.0415490e+001
1.1813600e+001
1.3053500e+001
1.3925669e+001
1.4335320e+001
1.4299303e+001
1.3947500e+001
1.3406922e+001
1.2765360e+001
1.2087605e+001
1.1409840e+001
1.0717200e+001
9.9435883e+000
9.0620546e+000
8.1222391e+000
7.2200756e+000
6.4808421e+000
5.9786177e+000
5.7029696e+000
5.6035514e+000
5.6048737e+000
5.6531258e+000
5.7358131e+000
5.8651838e+000
6.0718842e+000
6.3698487e+000
6.7412467e+000
7.1510310e+000
7.5487781e+000
7.8769240e+000
8.0756111e+000
8.1020927e+000
7.9446425e+000
7.6269608e+000
7.2127080e+000
6.7611294e+000
6.3103051e+000
5.8865805e+000
5.5033031e+000
5.1582327e+000
4.8292379e+000
4.4831200e+000
4.0820136e+000
3.6156840e+000
3.1160829e+000
2.6116486e+000
2.1095057e+000
1.6027722e+000
1.0771976e+000
5.5583620e-001
1.1911920e-001
-1.6212915e-001
-2.5500044e-001
-1.5261108e-001
1.2383500e-001
5.4496455e-001
1.0774989e+000
1.6822879e+000
2.3121707e+000
2.9184639e+000
3.4528074e+000
3.8670659e+000
4.1167302e+000
4.1773543e+000
4.0587730e+000
3.7955904e+000
3.4513478e+000
3.0981014e+000
2.8067093e+000
2.6169302e+000
2.5141473e+000
2.4551601e+000
2.3730559e+000
2.2191327e+000
1.9873607e+000
1.6972009e+000
1.3945671e+000
1.1274447e+000
9.3541962e-001
8.4571779e-001
8.6733890e-001
1.0028000e+000
1.2511722e+000
1.6141726e+000
2.0969017e+000
2.6886201e+000
3.3476579e+000
4.0178862e+000
4.6321445e+000
5.1381106e+000
5.5168548e+000
5.7715588e+000
5.9325991e+000
6.0435586e+000
6.1595044e+000
6.3287249e+000
6.5797262e+000
6.9239459e+000
7.3502378e+000
7.8490181e+000
8.4231339e+000
9.0783424e+000
9.8197660e+000
1.0644517e+001
1.1536927e+001
1.2487423e+001
1.3498250e+001
1.4570412e+001
1.5685024e+001
1.6790051e+001
1.7774292e+001
1.8517942e+001
1.8916487e+001
1.8907919e+001
1.8503817e+001
1.7752260e+001
1.6733507e+001
1.5531257e+001
1.4214149e+001
1.2858737e+001
1.1557850e+001
1.0403874e+001
9.4815865e+000
8.8505011e+000
8.5178595e+000
8.4525928e+000
8.5689564e+000
8.7564278e+000
8.8832741e+000
8.8307648e+000
8.5227795e+000
7.9301496e+000
7.1035371e+000
6.1231990e+000
5.0908589e+000
4.0996437e+000
3.2121336e+000
2.4759502e+000
1.9201837e+000
1.5576829e+000
1.3738171e+000
1.3366799e+000
1.3917480e+000
1.4846666e+000
1.5744954e+000
1.6346223e+000
1.6642743e+000
1.6710874e+000
1.6669040e+000
1.6530474e+000
1.6048279e+000
1.4947186e+000
1.3043305e+000
1.0372233e+000
7.4114835e-001
4.6976280e-001
2.6409894e-001
1.4512928e-001
9.2824943e-002
6.6823363e-002
4.6670809e-003
-1.3819087e-001
-3.5096771e-001
-6.0463536e-001
-8.5767162e-001
-1.0614835e+000
-1.1602650e+000
-1.1199577e+000
-9.6459293e-001
-7.4835759e-001
-5.6213945e-001
-4.8240274e-001
-5.2617049e-001
-6.7420298e-001
-8.5306263e-001
-9.8130000e-001
-9.9285454e-001
-8.5425848e-001
-6.0461247e-001
-3.0100784e-001
3.3147633e-004
2.6324999e-001
5.0326222e-001
7.5547040e-001
1.0724666e+000
1.5007943e+000
2.0573885e+000
2.7205410e+000
3.3860984e+000
3.9348817e+000
4.2638302e+000
4.3133688e+000
4.1295052e+000
3.7909646e+000
3.3949060e+000
3.0292394e+000
2.7442949e+000
2.5637281e+000
2.4634960e+000
2.3992429e+000
2.3047831e+000
2.1278400e+000
1.8719544e+000
1.5674617e+000
1.2805561e+000
1.0703064e+000
9.5017999e-001
9.1611826e-001
9.4637275e-001
1.0239629e+000
1.1571004e+000
1.3496600e+000
1.5736434e+000
1.7897588e+000
1.9489498e+000
2.0156515e+000
2.0011857e+000
1.9308051e+000
1.8362280e+000
1.7478340e+000
1.6861036e+000
1.6602200e+000
1.6501806e+000
1.6253437e+000
1.5440248e+000
1.3766320e+000
1.1387961e+000
8.5795814e-001
5.6358820e-001
2.7777863e-001
-1.4223158e-003
-2.8323072e-001
-5.8059049e-001
-8.9811325e-001
-1.2106113e+000
-1.4795563e+000
-1.6489822e+000
-1.6764674e+000
-1.5797094e+000
-1.3931780e+000
-1.1591259e+000
-9.1410768e-001
-6.7050433e-001
-4.4220930e-001
-2.6794079e-001
-1.8299893e-001
-1.9009350e-001
-2.7498293e-001
-3.9343205e-001
-5.0180042e-001
-5.8397430e-001
-6.3238055e-001
-6.4514875e-001
-6.1618477e-001
-5.2023947e-001
-3.4316444e-001
-1.2619020e-001
9.5772147e-002
3.5851383e-001
6.9310534e-001
1.0506500e+000
1.3737258e+000
1.6456411e+000
1.8587209e+000
2.0013514e+000
2.0679994e+000
2.0805237e+000
2.0677319e+000
2.0600014e+000
2.0881131e+000
2.1835511e+000
2.3725102e+000
2.6608276e+000
3.0277302e+000
3.3698251e+000
3.5805609e+000
3.6214714e+000
3.5055799e+000
3.3803644e+000
3.3958209e+000
3.5780926e+000
3.9224000e+000
