Image.
>Pix99999.
  .
5555
5555
2300
900
5555
2
1
0
701
5555
7.4231997e-002
7.5809740e-002
7.7386484e-002
7.8964226e-002
8.0540977e-002
8.2117721e-002
8.3695456e-002
8.5272215e-002
8.6849943e-002
8.8426694e-002
9.0003438e-002
9.1581173e-002
9.3157932e-002
9.4735660e-002
9.6312419e-002
9.7890146e-002
9.9466912e-002
1.0104170e-001
1.0261937e-001
1.0419711e-001
1.0577486e-001
1.0735260e-001
1.0893034e-001
1.1050808e-001
1.1208583e-001
1.1366357e-001
6.6911660e-002
2.5112312e-003
-8.3598718e-002
-1.3116479e-001
-1.7290628e-001
-1.4389689e-001
-1.1015788e-001
-8.4789522e-002
-6.7928605e-002
-1.1564640e-001
-1.7188914e-001
-2.5204897e-001
-3.2268295e-001
-3.6033320e-001
-3.8231856e-001
-3.7414396e-001
-3.8487759e-001
-4.2937499e-001
-5.0830787e-001
-6.2755775e-001
-7.1560842e-001
-7.7112055e-001
-7.8076428e-001
-7.5772750e-001
-7.8182995e-001
-8.3436781e-001
-9.4546366e-001
-1.0813711e+000
-1.1709812e+000
-1.2448642e+000
-1.2094760e+000
-1.1491323e+000
-1.0254217e+000
-8.9297414e-001
-8.0276662e-001
-7.2377372e-001
-7.2795004e-001
-7.4386209e-001
-7.8189999e-001
-8.1129748e-001
-8.0129528e-001
-7.7758986e-001
-7.2884929e-001
-6.9390553e-001
-6.8997300e-001
-7.2497123e-001
-8.1173629e-001
-9.0875924e-001
-1.0112849e+000
-1.0680929e+000
-1.0841188e+000
-1.0554960e+000
-9.9875230e-001
-9.6327674e-001
-9.4096571e-001
-9.8173088e-001
-1.0485797e+000
-1.1255395e+000
-1.2050240e+000
-1.2196078e+000
-1.2190720e+000
-1.1858855e+000
-1.1496383e+000
-1.1528685e+000
-1.1605357e+000
-1.1593250e+000
-1.1506617e+000
-1.1148877e+000
-1.0922856e+000
-1.1214921e+000
-1.1762006e+000
-1.2703290e+000
-1.3552359e+000
-1.4147083e+000
-1.4507142e+000
-1.4608766e+000
-1.4636794e+000
-1.4626354e+000
-1.4750012e+000
-1.4989600e+000
-1.5469258e+000
-1.6097796e+000
-1.6867652e+000
-1.7700889e+000
-1.8458242e+000
-1.9180828e+000
-1.9240400e+000
-1.9086604e+000
-1.8040197e+000
-1.6789836e+000
-1.6064909e+000
-1.5574721e+000
-1.6456468e+000
-1.7646170e+000
-1.9043971e+000
-2.0228980e+000
-2.0498488e+000
-2.0317822e+000
-1.9438331e+000
-1.8460393e+000
-1.7553920e+000
-1.6751240e+000
-1.6088480e+000
-1.5454837e+000
-1.4829072e+000
-1.4477271e+000
-1.4388920e+000
-1.4794910e+000
-1.5550177e+000
-1.6476822e+000
-1.7473966e+000
-1.7992519e+000
-1.8254855e+000
-1.8236687e+000
-1.8115400e+000
-1.8566546e+000
-1.9217898e+000
-2.0146327e+000
-2.1124427e+000
-2.1735699e+000
-2.2214179e+000
-2.2402060e+000
-2.2413383e+000
-2.1964478e+000
-2.1212287e+000
-1.9886316e+000
-1.8558332e+000
-1.7562993e+000
-1.7165660e+000
-1.7688478e+000
-1.8616154e+000
-1.9802315e+000
-2.0877967e+000
-2.1756110e+000
-2.2442029e+000
-2.2985549e+000
-2.3053274e+000
-2.2777171e+000
-2.2005794e+000
-2.0960929e+000
-2.0370631e+000
-2.0047708e+000
-2.0242720e+000
-2.0650668e+000
-2.1100013e+000
-2.1560140e+000
-2.2032039e+000
-2.2471976e+000
-2.2513378e+000
-2.2402000e+000
-2.2159407e+000
-2.1957250e+000
-2.2101665e+000
-2.2332721e+000
-2.2522228e+000
-2.2645109e+000
-2.2638700e+000
-2.2691996e+000
-2.2883806e+000
-2.2813041e+000
-2.2339380e+000
-2.1055667e+000
-1.9022423e+000
-1.7147310e+000
-1.5597172e+000
-1.4980038e+000
-1.5016567e+000
-1.5484707e+000
-1.6144772e+000
-1.7312093e+000
-1.8744520e+000
-2.0040281e+000
-2.1263349e+000
-2.1100128e+000
-2.0336571e+000
-1.8811035e+000
-1.7095357e+000
-1.6124940e+000
-1.5700674e+000
-1.6421214e+000
-1.7642260e+000
-1.9097713e+000
-2.0433977e+000
-2.1283672e+000
-2.1590600e+000
-2.1176038e+000
-2.0064046e+000
-1.8242873e+000
-1.6696600e+000
-1.5806386e+000
-1.6318691e+000
-1.8143750e+000
-2.0255737e+000
-2.2308457e+000
-2.3750658e+000
-2.4716382e+000
-2.4608235e+000
-2.3827617e+000
-2.1478801e+000
-1.8256536e+000
-1.5766292e+000
-1.3770033e+000
-1.4351715e+000
-1.6136359e+000
-1.7750986e+000
-1.8964859e+000
-1.8399394e+000
-1.6783837e+000
-1.4282749e+000
-1.1875836e+000
-1.0822201e+000
-1.1144474e+000
-1.3199099e+000
-1.5940071e+000
-1.8660514e+000
-2.0575538e+000
-2.1323309e+000
-2.0848289e+000
-1.9365594e+000
-1.7088400e+000
-1.4299631e+000
-1.1580015e+000
-9.0315747e-001
-7.0541584e-001
-5.5000073e-001
-4.2046887e-001
-3.0606562e-001
-2.7644968e-001
-3.0190736e-001
-3.7198606e-001
-4.5905828e-001
-4.4385889e-001
-3.5202870e-001
-1.2198021e-001
1.9090927e-001
5.4375279e-001
8.4118158e-001
8.9223218e-001
7.5989288e-001
4.6692914e-001
1.8627930e-001
8.0827437e-002
2.6502904e-002
-6.1227858e-002
-9.3961954e-002
-3.1097572e-002
2.5142121e-001
7.6379526e-001
1.3448479e+000
1.9223429e+000
2.1563079e+000
2.0603864e+000
1.8208169e+000
1.5185138e+000
1.4376800e+000
1.5368927e+000
1.5355911e+000
1.4377693e+000
1.0261185e+000
4.2621201e-001
3.1862855e-003
-2.1633729e-001
1.0638589e-001
9.2473233e-001
2.1677542e+000
3.5145392e+000
4.5194674e+000
5.2990179e+000
5.9892502e+000
6.9047451e+000
8.3394642e+000
1.0529549e+001
1.3564234e+001
1.7241007e+001
2.1331858e+001
2.4996370e+001
2.7944475e+001
3.0492516e+001
3.2840973e+001
3.5924213e+001
3.9799751e+001
4.4453480e+001
4.9684921e+001
5.4214626e+001
5.8088985e+001
6.1865036e+001
6.5643036e+001
7.0000160e+001
7.4776871e+001
7.9441505e+001
8.3936073e+001
8.8048065e+001
9.1803047e+001
9.5233765e+001
9.8378914e+001
1.0130958e+002
1.0373940e+002
1.0533475e+002
1.0543491e+002
1.0354929e+002
1.0049876e+002
9.7063782e+001
9.3547447e+001
9.0146614e+001
8.6275703e+001
8.1735924e+001
7.6907387e+001
7.1960533e+001
6.7313438e+001
6.3026230e+001
5.8774960e+001
5.4504589e+001
5.0367603e+001
4.6364658e+001
4.2477829e+001
3.8730225e+001
3.5292633e+001
3.2211571e+001
2.9635298e+001
2.7547192e+001
2.5807497e+001
2.4414915e+001
2.3303856e+001
2.2481968e+001
2.1916000e+001
2.1582365e+001
2.1415222e+001
2.1375999e+001
2.1408623e+001
2.1550920e+001
2.1821732e+001
2.2302540e+001
2.3027254e+001
2.4064543e+001
2.5424314e+001
2.6970978e+001
2.8645857e+001
3.0225479e+001
3.1660160e+001
3.3015312e+001
3.4305946e+001
3.5843994e+001
3.7716961e+001
4.0312725e+001
4.3584000e+001
4.6505180e+001
4.8918823e+001
5.0534245e+001
5.1488934e+001
5.2527824e+001
5.3609924e+001
5.4624432e+001
5.5125999e+001
5.4460209e+001
5.2825085e+001
5.0652927e+001
4.8417599e+001
4.6636108e+001
4.5227516e+001
4.4109650e+001
4.3030479e+001
4.1828884e+001
4.0227272e+001
3.8064140e+001
3.5735985e+001
3.3356014e+001
3.1139080e+001
2.9165154e+001
2.6793602e+001
2.3875614e+001
2.0806400e+001
1.7625740e+001
1.5011163e+001
1.3054980e+001
1.1287714e+001
9.7237148e+000
8.2108917e+000
6.7497339e+000
5.2982721e+000
3.8686280e+000
2.4789701e+000
1.2519858e+000
3.7075371e-001
-7.5678982e-002
7.7348500e-003
6.2391192e-001
1.6642709e+000
2.7763000e+000
3.7066479e+000
4.4714346e+000
5.0655780e+000
5.7101536e+000
6.5204005e+000
7.3863811e+000
8.2881794e+000
8.8637190e+000
8.9142427e+000
8.7066393e+000
8.1503210e+000
7.5845180e+000
7.0156131e+000
6.5011263e+000
6.0691915e+000
5.7126260e+000
5.4297857e+000
5.1072340e+000
4.7275419e+000
4.2762403e+000
3.8139699e+000
3.4999514e+000
3.3887458e+000
3.5342669e+000
3.8656168e+000
4.2638116e+000
4.6199312e+000
4.8049960e+000
4.9092617e+000
4.9997272e+000
5.1520209e+000
5.4394999e+000
5.8024421e+000
6.2459426e+000
6.6865239e+000
7.0970521e+000
7.3974285e+000
7.4919195e+000
7.4412737e+000
7.1429496e+000
6.7768912e+000
6.3087950e+000
5.8190584e+000
5.3105640e+000
4.8391576e+000
4.4259467e+000
4.0731854e+000
3.7801688e+000
3.4813659e+000
3.1677296e+000
2.8250058e+000
2.4558022e+000
2.0771348e+000
1.6867267e+000
1.2765801e+000
8.7727988e-001
5.2640945e-001
2.4421577e-001
8.8014148e-002
1.2723329e-002
3.9452564e-002
1.1871928e-001
2.8703439e-001
5.1027501e-001
8.3216655e-001
1.1290927e+000
1.3564458e+000
1.4680462e+000
1.3637826e+000
1.2172520e+000
1.0192780e+000
8.9233273e-001
8.8891852e-001
1.0067945e+000
1.2760937e+000
1.5952957e+000
1.9369600e+000
2.1861229e+000
2.3291211e+000
2.3734620e+000
2.3430746e+000
2.2921550e+000
2.2293320e+000
2.1652269e+000
2.1033206e+000
2.0466657e+000
1.9977572e+000
1.9631156e+000
1.9401515e+000
1.9385066e+000
1.9507760e+000
1.9908392e+000
2.0398469e+000
2.1062279e+000
2.1760476e+000
2.2529554e+000
2.3308129e+000
2.4130120e+000
2.5037806e+000
2.6152081e+000
2.7589431e+000
2.9521742e+000
3.1806304e+000
3.4515719e+000
3.7414281e+000
4.0572176e+000
4.4057970e+000
4.7925320e+000
5.2277465e+000
5.6969013e+000
6.1804523e+000
6.6577749e+000
7.0880594e+000
7.4719782e+000
7.7593312e+000
7.9864669e+000
8.1036568e+000
8.1620836e+000
8.0960112e+000
7.9608350e+000
7.6415448e+000
7.2585568e+000
6.7071404e+000
6.1310520e+000
5.4984074e+000
4.8729329e+000
4.2653656e+000
3.6860785e+000
3.1630383e+000
2.7017248e+000
2.3345182e+000
2.0343478e+000
1.8061100e+000
1.5766318e+000
1.3331417e+000
1.0317949e+000
6.8529999e-001
3.2187784e-001
-4.5018047e-002
-3.8611409e-001
-7.0965570e-001
-1.0075349e+000
-1.2828835e+000
-1.5003173e+000
-1.6733023e+000
-1.7186401e+000
-1.7096001e+000
-1.5504811e+000
-1.3687925e+000
-1.1345078e+000
-9.1223705e-001
-7.2794235e-001
-5.5785787e-001
-4.2217490e-001
-2.8928927e-001
-1.6048513e-001
-2.4022669e-002
1.2054301e-001
2.4025188e-001
3.1694141e-001
3.2599100e-001
2.6116323e-001
1.7191938e-001
7.1156800e-002
1.8067453e-002
1.0563299e-002
7.9182006e-002
2.0166901e-001
4.1513517e-001
6.7799503e-001
1.0177643e+000
1.3866215e+000
1.7985326e+000
2.2128212e+000
2.5990880e+000
2.9679174e+000
3.2569485e+000
3.5326447e+000
3.7560630e+000
3.9547415e+000
4.0720978e+000
4.1526551e+000
4.1460156e+000
4.1534028e+000
4.1960392e+000
4.3069348e+000
4.5307999e+000
4.8277493e+000
5.2215219e+000
5.6778417e+000
6.1984091e+000
6.7496762e+000
7.3164601e+000
7.8288312e+000
8.2803240e+000
8.5266371e+000
8.6450968e+000
8.5062599e+000
8.2752810e+000
7.9841056e+000
7.7021852e+000
7.5838847e+000
7.5147681e+000
7.6525264e+000
7.8103175e+000
8.0305500e+000
8.2239456e+000
8.2994404e+000
8.3516712e+000
8.3350801e+000
8.3671904e+000
8.5196362e+000
8.7194300e+000
8.9989948e+000
9.2074747e+000
9.3056440e+000
9.3191204e+000
9.2376633e+000
9.1585102e+000
9.0788116e+000
8.9716101e+000
8.8344917e+000
8.5820913e+000
8.2576237e+000
7.8071318e+000
7.3046651e+000
6.7659173e+000
6.2197113e+000
5.6989379e+000
5.1851945e+000
4.7034240e+000
4.2329426e+000
3.8629277e+000
3.5069449e+000
3.2417343e+000
2.9880953e+000
2.7858715e+000
2.5952291e+000
2.4389234e+000
2.2627010e+000
2.0381083e+000
1.7650628e+000
1.4095960e+000
1.0675676e+000
7.4979597e-001
5.3639793e-001
4.3378487e-001
3.9106798e-001
3.9465240e-001
3.7630448e-001
3.4580174e-001
3.3345401e-001
3.3244362e-001
3.9311686e-001
4.7265497e-001
5.3351808e-001
5.8386445e-001
4.9001443e-001
3.7630638e-001
2.0379339e-001
3.8635019e-002
1.2733393e-002
2.6287884e-003
8.2523122e-002
2.6387104e-001
5.5413306e-001
8.2701540e-001
1.0492126e+000
1.2742453e+000
1.5070990e+000
1.8226377e+000
2.2693279e+000
2.6893680e+000
3.0746000e+000
3.3196714e+000
3.4337041e+000
3.4969900e+000
3.5238538e+000
3.5200748e+000
3.5010002e+000
3.5411444e+000
3.6060722e+000
3.8820987e+000
4.2137346e+000
4.5013032e+000
4.7817702e+000
4.9007001e+000
