Image.
>Pix99999.
  .
5555
5555
2300
900
5555
2
1
0
701
5555
-2.5432000e-002
-2.5961244e-002
-2.6490485e-002
-2.7019730e-002
-2.7547976e-002
-2.8077215e-002
-2.8606458e-002
-2.9135700e-002
-2.9664943e-002
-3.0194186e-002
-3.0722443e-002
-3.1251669e-002
-3.1780913e-002
-3.2310158e-002
-3.2839403e-002
-3.3368643e-002
-3.3896908e-002
-3.4426130e-002
-3.4955371e-002
-3.5484612e-002
-3.6013857e-002
-3.6543101e-002
-3.7071373e-002
-3.7600584e-002
-3.8129829e-002
-3.8659073e-002
-1.4366115e-003
2.9796593e-002
5.7385281e-002
5.3985465e-002
4.6062071e-002
5.2696537e-002
6.1297473e-002
9.0306394e-002
1.2090041e-001
1.5647601e-001
1.9463824e-001
2.4357881e-001
2.9297501e-001
3.4209996e-001
3.8107398e-001
3.9791861e-001
4.0383080e-001
3.9402279e-001
3.8866493e-001
3.9004365e-001
3.9712977e-001
4.0927139e-001
4.0694314e-001
3.9354119e-001
3.8456428e-001
3.7856331e-001
4.1196561e-001
4.6256724e-001
5.3192979e-001
6.0700470e-001
6.7125875e-001
7.3293239e-001
7.6847249e-001
7.9993767e-001
8.1533426e-001
8.3048761e-001
8.5965502e-001
8.9062458e-001
9.2435688e-001
9.5650762e-001
9.8195982e-001
1.0078114e+000
1.0363926e+000
1.0680457e+000
1.1049501e+000
1.1528199e+000
1.2156657e+000
1.2843730e+000
1.3578665e+000
1.4067714e+000
1.4334508e+000
1.4453559e+000
1.4486326e+000
1.4817244e+000
1.5314257e+000
1.5895613e+000
1.6504309e+000
1.6641226e+000
1.6626240e+000
1.6198649e+000
1.5678623e+000
1.5245324e+000
1.4852028e+000
1.4933929e+000
1.5129900e+000
1.5678000e+000
1.6248480e+000
1.6686333e+000
1.7033746e+000
1.7168021e+000
1.7275188e+000
1.7392510e+000
1.7468340e+000
1.7472849e+000
1.7355429e+000
1.7092122e+000
1.6933109e+000
1.6904471e+000
1.7233354e+000
1.7840099e+000
1.8605673e+000
1.9451001e+000
2.0124948e+000
2.0704398e+000
2.1105700e+000
2.1438305e+000
2.1851199e+000
2.2292325e+000
2.2744899e+000
2.3190894e+000
2.3129680e+000
2.2933097e+000
2.2328639e+000
2.1660221e+000
2.1082170e+000
2.0584009e+000
2.0314214e+000
2.0127451e+000
2.0047452e+000
2.0000858e+000
1.9982340e+000
2.0070043e+000
2.0303273e+000
2.0690336e+000
2.1219742e+000
2.1776576e+000
2.2337022e+000
2.2809119e+000
2.3218429e+000
2.3508086e+000
2.3731422e+000
2.3896055e+000
2.4037597e+000
2.4003289e+000
2.3893600e+000
2.3507447e+000
2.3025398e+000
2.2617261e+000
2.2244909e+000
2.2156315e+000
2.2158542e+000
2.2312469e+000
2.2510715e+000
2.2760019e+000
2.2997499e+000
2.3177974e+000
2.3289156e+000
2.3249049e+000
2.3175840e+000
2.3075914e+000
2.3057442e+000
2.3164496e+000
2.3401735e+000
2.3767278e+000
2.4204144e+000
2.4688151e+000
2.5115576e+000
2.5498445e+000
2.5564559e+000
2.5432658e+000
2.4836352e+000
2.4002843e+000
2.3223720e+000
2.2478621e+000
2.2150600e+000
2.1968484e+000
2.1822417e+000
2.1668544e+000
2.1465940e+000
2.1295002e+000
2.1351819e+000
2.1525958e+000
2.1764157e+000
2.1950319e+000
2.1925144e+000
2.1797459e+000
2.1626320e+000
2.1415038e+000
2.1195567e+000
2.1009250e+000
2.0890305e+000
2.1064804e+000
2.1519074e+000
2.2068529e+000
2.2607598e+000
2.2884340e+000
2.2965205e+000
2.3004522e+000
2.3051143e+000
2.3083756e+000
2.3101799e+000
2.2969472e+000
2.2758229e+000
2.2761846e+000
2.2863715e+000
2.3206232e+000
2.3563924e+000
2.3347020e+000
2.2762263e+000
2.1486413e+000
2.0038826e+000
1.8843356e+000
1.7954417e+000
1.7594951e+000
1.7473000e+000
1.7507967e+000
1.7620354e+000
1.7805883e+000
1.7919600e+000
1.7845386e+000
1.7399206e+000
1.6554530e+000
1.5664518e+000
1.4852096e+000
1.4176800e+000
1.3623804e+000
1.3002169e+000
1.2347071e+000
1.1891119e+000
1.1585357e+000
1.1547463e+000
1.1659167e+000
1.1614691e+000
1.1483511e+000
1.1454101e+000
1.1507900e+000
1.1934817e+000
1.2498593e+000
1.2898355e+000
1.2996707e+000
1.2334110e+000
1.1243987e+000
9.9200642e-001
8.7111270e-001
7.9322314e-001
7.4963409e-001
7.3627824e-001
7.2705507e-001
7.0862293e-001
6.8942750e-001
6.7158490e-001
6.5720540e-001
6.4861804e-001
6.3650817e-001
6.2148857e-001
6.2696809e-001
6.4349318e-001
6.6545647e-001
6.8505013e-001
6.5936506e-001
6.0249686e-001
5.0974566e-001
3.9727336e-001
2.9861879e-001
2.2004201e-001
1.9713421e-001
2.0947026e-001
2.2601296e-001
2.2968040e-001
1.8763365e-001
1.2255120e-001
6.3092165e-002
1.5970886e-002
-6.5906063e-002
-1.6104186e-001
-2.3645881e-001
-2.6700893e-001
-2.4684840e-001
-2.0424223e-001
-1.5726893e-001
-1.6295058e-001
-2.2724515e-001
-3.0129880e-001
-3.7089503e-001
-3.4266001e-001
-2.3472872e-001
-1.1219524e-001
7.8859292e-003
4.5315195e-003
-8.3238319e-002
-1.4045945e-001
-1.4811739e-001
1.0296687e-002
3.0703503e-001
7.8103185e-001
1.3387076e+000
1.8008314e+000
2.2028551e+000
2.6002278e+000
3.1636419e+000
4.0608354e+000
5.5418797e+000
7.7231984e+000
1.0787807e+001
1.4680429e+001
1.8644560e+001
2.2333975e+001
2.5599802e+001
2.8497051e+001
3.1865414e+001
3.5801006e+001
4.0569027e+001
4.6000519e+001
5.0880131e+001
5.5219284e+001
5.9434212e+001
6.3642582e+001
6.8597427e+001
7.4110336e+001
7.9580200e+001
8.4859535e+001
8.9465759e+001
9.3422531e+001
9.6740128e+001
9.9483253e+001
1.0176910e+002
1.0348840e+002
1.0452623e+002
1.0442640e+002
1.0283250e+002
1.0025973e+002
9.7244728e+001
9.3916702e+001
9.0411491e+001
8.6327888e+001
8.1564789e+001
7.6670914e+001
7.1848038e+001
6.7310806e+001
6.3075172e+001
5.8772678e+001
5.4356766e+001
5.0045761e+001
4.5856861e+001
4.1925488e+001
3.8275688e+001
3.5072636e+001
3.2328831e+001
3.0029776e+001
2.8149521e+001
2.6531334e+001
2.5189600e+001
2.4104383e+001
2.3285463e+001
2.2709499e+001
2.2352907e+001
2.2150343e+001
2.2075129e+001
2.2081749e+001
2.2171520e+001
2.2340269e+001
2.2569910e+001
2.2848082e+001
2.3212420e+001
2.3673485e+001
2.4299385e+001
2.5097288e+001
2.6035351e+001
2.7100960e+001
2.8242464e+001
2.9460022e+001
3.0899675e+001
3.2652264e+001
3.5255978e+001
3.8773956e+001
4.2605049e+001
4.6531429e+001
4.9624668e+001
5.1891163e+001
5.3786144e+001
5.5306164e+001
5.6568726e+001
5.7482841e+001
5.7932243e+001
5.7833427e+001
5.7172401e+001
5.6067055e+001
5.4726074e+001
5.3229515e+001
5.1649651e+001
4.9954742e+001
4.8113926e+001
4.6103680e+001
4.3882694e+001
4.1668499e+001
3.9536110e+001
3.7433079e+001
3.5373299e+001
3.2845936e+001
2.9709421e+001
2.6539902e+001
2.3387234e+001
2.0725077e+001
1.8607689e+001
1.6523285e+001
1.4461553e+001
1.2337517e+001
1.0157978e+001
7.9655433e+000
5.8342896e+000
3.9074900e+000
2.2865996e+000
1.0884306e+000
3.3878329e-001
5.9570685e-002
3.5208842e-001
1.1622084e+000
2.1813951e+000
3.2152834e+000
4.0803151e+000
4.6554456e+000
5.1042199e+000
5.4775710e+000
5.8495421e+000
6.2360601e+000
6.5618691e+000
6.7745318e+000
6.8798828e+000
6.8255925e+000
6.7185678e+000
6.5395937e+000
6.3340950e+000
6.0892243e+000
5.7858739e+000
5.4009271e+000
4.9093332e+000
4.3245978e+000
3.7491827e+000
3.2145181e+000
2.7959943e+000
2.4977221e+000
2.3051991e+000
2.2190049e+000
2.2205787e+000
2.2989428e+000
2.4441471e+000
2.6249266e+000
2.8424187e+000
3.0822053e+000
3.3494635e+000
3.6459818e+000
3.9776278e+000
4.3438044e+000
4.7594571e+000
5.1947141e+000
5.6496987e+000
6.0418978e+000
6.3024750e+000
6.4163599e+000
6.2951899e+000
6.0445538e+000
5.6230102e+000
5.1626234e+000
4.6644359e+000
4.1730027e+000
3.7057886e+000
3.2742319e+000
2.8860652e+000
2.5434942e+000
2.2104928e+000
1.8321166e+000
1.4143809e+000
9.5564842e-001
5.2904308e-001
2.2676086e-001
3.2230511e-002
-4.5572273e-003
3.1628557e-002
1.2738341e-001
2.4374571e-001
4.1325882e-001
6.0057712e-001
8.1650364e-001
1.0294894e+000
1.2295429e+000
1.4204191e+000
1.5786991e+000
1.7359360e+000
1.8931344e+000
2.0691464e+000
2.2862039e+000
2.5437069e+000
2.8615565e+000
3.2144146e+000
3.5969300e+000
3.9581845e+000
4.2764721e+000
4.5224729e+000
4.6931257e+000
4.7954359e+000
4.8443437e+000
4.8472948e+000
4.8236966e+000
4.7751646e+000
4.7182145e+000
4.6555614e+000
4.5962009e+000
4.5468884e+000
4.5076642e+000
4.4899659e+000
4.4828801e+000
4.4971085e+000
4.5139346e+000
4.5347843e+000
4.5495915e+000
4.5565867e+000
4.5679522e+000
4.5928712e+000
4.6411195e+000
4.7227578e+000
4.8222332e+000
4.9398885e+000
5.0596681e+000
5.1806216e+000
5.2989316e+000
5.4129148e+000
5.5185809e+000
5.6148143e+000
5.6964574e+000
5.7660751e+000
5.8165126e+000
5.8523917e+000
5.8615932e+000
5.8485336e+000
5.7872543e+000
5.6874456e+000
5.4926720e+000
5.2546496e+000
4.9078360e+000
4.5379086e+000
4.1097245e+000
3.6680257e+000
3.1940548e+000
2.7147851e+000
2.2285514e+000
1.7649148e+000
1.3439980e+000
9.6031845e-001
6.3192284e-001
3.3736551e-001
8.7608039e-002
-1.2072086e-001
-2.8143722e-001
-3.9305487e-001
-4.6269286e-001
-5.0347012e-001
-5.2493691e-001
-5.3403813e-001
-5.3250790e-001
-5.0970507e-001
-4.7157332e-001
-3.9928779e-001
-3.0034536e-001
-1.2340260e-001
8.9072794e-002
4.0289024e-001
7.2510213e-001
1.0542841e+000
1.3513377e+000
1.5461500e+000
1.6945785e+000
1.7263820e+000
1.7147292e+000
1.6143066e+000
1.4784729e+000
1.2858061e+000
1.0830504e+000
8.7087703e-001
6.7764199e-001
5.0727463e-001
3.5630310e-001
2.2482750e-001
1.1369742e-001
2.7681891e-002
3.8999142e-003
2.7996004e-002
1.4874899e-001
3.1252101e-001
5.0859642e-001
7.0553160e-001
8.6144429e-001
9.9951535e-001
1.0814040e+000
1.1559583e+000
1.2190300e+000
1.2908573e+000
1.3996326e+000
1.5087754e+000
1.6165192e+000
1.6998301e+000
1.7205931e+000
1.7123270e+000
1.6479748e+000
1.5777438e+000
1.4997286e+000
1.4312103e+000
1.3756180e+000
1.3310887e+000
1.3002366e+000
1.2915128e+000
1.3016483e+000
1.3256311e+000
1.3534532e+000
1.3478349e+000
1.3184286e+000
1.2255311e+000
1.1101463e+000
9.8220861e-001
8.5885930e-001
7.9025149e-001
7.3308557e-001
7.0840287e-001
6.8187815e-001
6.3295096e-001
5.8284998e-001
5.2854198e-001
4.8614296e-001
4.8187590e-001
4.8175663e-001
4.8894858e-001
4.7020724e-001
4.0105447e-001
3.0684200e-001
1.7779565e-001
6.2088296e-002
-3.5351213e-002
-1.0154299e-001
-1.4031997e-001
-1.8349846e-001
-2.3250450e-001
-3.1191325e-001
-4.0557420e-001
-4.8118877e-001
-5.4553926e-001
-5.6138086e-001
-5.6408656e-001
-5.6568104e-001
-5.7076812e-001
-6.1838520e-001
-6.7185217e-001
-7.5258017e-001
-8.2617259e-001
-8.4905028e-001
-8.5242355e-001
-7.7006358e-001
-6.8017423e-001
-5.6815737e-001
-4.6851128e-001
-3.9758107e-001
-3.3366528e-001
-2.8149182e-001
-2.3079139e-001
-1.8330321e-001
-1.6226076e-001
-1.7008571e-001
-2.0391200e-001
-2.5743625e-001
-2.9298022e-001
-3.1578887e-001
-3.0904102e-001
-2.8808451e-001
-2.5113329e-001
-2.0946023e-001
-1.7194401e-001
-1.3676357e-001
-1.2977335e-001
-1.2621120e-001
-1.2191121e-001
-1.1281334e-001
-3.6375750e-002
2.2452325e-003
7.0099935e-002
2.1180128e-001
3.9899129e-001
5.8646488e-001
7.7501190e-001
9.6343482e-001
1.1511650e+000
1.3217801e+000
1.4638858e+000
1.5503839e+000
1.5686744e+000
1.5396434e+000
1.4661087e+000
1.3711228e+000
1.2602313e+000
1.0992615e+000
9.1227502e-001
7.1202672e-001
5.0854975e-001
4.1361409e-001
3.4860215e-001
4.4004440e-001
5.5707872e-001
7.8683001e-001
