Image.
>Pix99999.
  .
5555
5555
2300
900
5555
2
1
0
701
5555
7.0621997e-002
7.2090901e-002
7.3559798e-002
7.5029686e-002
7.6498598e-002
7.7967495e-002
7.9437383e-002
8.0906294e-002
8.2375191e-002
8.3845079e-002
8.5313991e-002
8.6782880e-002
8.8251777e-002
8.9721665e-002
9.1190577e-002
9.2659473e-002
9.4129354e-002
9.5598273e-002
9.7067170e-002
9.8536074e-002
1.0000789e-001
1.0147590e-001
1.0294380e-001
1.0441170e-001
1.0587960e-001
1.0734750e-001
7.6656930e-002
2.9110243e-003
-5.7575040e-002
-1.1873060e-001
-1.8003857e-001
-1.6204569e-001
-1.3689886e-001
-7.9202227e-002
-2.7942082e-002
-4.0242400e-002
-6.6058487e-002
-1.3873017e-001
-2.0246023e-001
-2.3124407e-001
-2.2975114e-001
-1.6641897e-001
-8.5811377e-002
1.6999464e-002
8.1528664e-002
9.6610658e-002
1.9340917e-002
-1.4393331e-001
-3.3542830e-001
-5.4380399e-001
-6.3363004e-001
-6.5443897e-001
-5.4247922e-001
-3.7430272e-001
-2.2060812e-001
-7.2843455e-002
-4.6472639e-002
-4.7943715e-002
-1.0518109e-001
-1.6964081e-001
-1.6082801e-001
-1.3770923e-001
-2.8629197e-002
8.9049809e-002
2.0939726e-001
3.0804276e-001
3.2665586e-001
3.2200822e-001
2.7818120e-001
2.6269484e-001
3.0846301e-001
3.8777620e-001
5.0653344e-001
6.0280496e-001
6.6910356e-001
7.0514715e-001
7.1721882e-001
7.2117031e-001
7.2123677e-001
6.7958415e-001
6.1540771e-001
5.0452542e-001
3.7481716e-001
3.1697685e-001
2.8259081e-001
3.7196672e-001
4.8976627e-001
5.9951001e-001
7.0131159e-001
6.8187141e-001
6.3781881e-001
5.3898960e-001
4.4513798e-001
4.0825707e-001
3.9134443e-001
4.0957749e-001
4.2163017e-001
4.0870583e-001
3.8897640e-001
3.6408329e-001
3.5934430e-001
3.8205037e-001
4.3339118e-001
5.1024735e-001
5.7869595e-001
6.3700300e-001
6.1349100e-001
5.3682178e-001
4.1639438e-001
2.7671102e-001
2.6607502e-001
3.1005582e-001
4.9329841e-001
7.1974754e-001
9.2827314e-001
1.1288280e+000
1.1816394e+000
1.1900141e+000
1.0335938e+000
8.5128742e-001
7.0568973e-001
6.0924244e-001
6.6413659e-001
7.3922652e-001
7.9035109e-001
7.7386498e-001
6.3557619e-001
4.6233144e-001
2.7106532e-001
1.4066479e-001
8.6723581e-002
1.0681578e-001
1.8519674e-001
2.6524958e-001
3.3908528e-001
3.9762044e-001
4.4741160e-001
5.1382560e-001
5.8982313e-001
6.3588691e-001
6.6842401e-001
6.4748263e-001
6.0833776e-001
5.6307155e-001
5.1718169e-001
4.8776415e-001
4.6460623e-001
4.5800769e-001
4.5150107e-001
4.2995167e-001
3.9431000e-001
3.2931694e-001
2.6457790e-001
2.1420723e-001
1.8989781e-001
2.0151922e-001
2.2029606e-001
2.3726359e-001
2.4407715e-001
2.4133211e-001
2.8953886e-001
3.8767728e-001
5.9508884e-001
8.7900680e-001
1.1173424e+000
1.3177301e+000
1.2571814e+000
1.0612304e+000
7.5629163e-001
4.1098928e-001
1.9359514e-001
2.6683768e-002
-2.2447458e-002
-3.1889498e-002
-5.6565078e-003
2.9274099e-002
4.8010744e-002
6.6613242e-002
9.2297390e-002
1.2713757e-001
1.7778000e-001
2.1465807e-001
2.1796460e-001
1.8453974e-001
1.1154871e-001
4.9904540e-002
1.9698020e-002
9.4929755e-002
2.7309361e-001
5.1452810e-001
7.8682399e-001
9.9731773e-001
1.1560314e+000
1.2094302e+000
1.2024175e+000
1.0638586e+000
8.5768163e-001
7.0615584e-001
5.8274537e-001
7.4280274e-001
1.0172428e+000
1.3341229e+000
1.6270657e+000
1.6419640e+000
1.5046502e+000
1.1651407e+000
7.5418419e-001
3.5390815e-001
-8.1424043e-003
-2.8733802e-001
-4.6494099e-001
-5.0182962e-001
-3.7413269e-001
-6.5056197e-002
2.8405511e-001
6.0540569e-001
7.1446502e-001
6.0133851e-001
3.6567268e-001
7.4247941e-002
-1.7885089e-001
-3.8947940e-001
-5.2157307e-001
-6.0357583e-001
-6.0469443e-001
-5.5947822e-001
-5.6776571e-001
-6.0520011e-001
-7.1270567e-001
-8.4414959e-001
-8.7703186e-001
-8.4066349e-001
-6.6068566e-001
-3.9974183e-001
-8.4564060e-002
1.9187286e-001
2.8623492e-001
2.1459860e-001
-4.9246594e-002
-3.6294952e-001
-6.2557685e-001
-7.8453451e-001
-8.1732690e-001
-7.7022934e-001
-6.7911738e-001
-5.3776151e-001
-3.5834220e-001
-1.7853236e-001
-4.4902712e-003
1.3018590e-001
2.3527500e-001
4.2897728e-001
6.8520761e-001
9.3437648e-001
1.1685066e+000
1.2386500e+000
1.2122886e+000
1.1751732e+000
1.1501760e+000
1.2570180e+000
1.4567971e+000
1.7549864e+000
2.0214555e+000
2.0130653e+000
1.7737622e+000
1.2863815e+000
7.6233900e-001
4.0089315e-001
1.1090606e-001
-1.6951846e-001
-2.7802899e-001
-1.4829727e-001
3.1115562e-001
1.0762122e+000
1.8015206e+000
2.3802643e+000
2.4852855e+000
2.1679053e+000
1.7797079e+000
1.4085925e+000
1.3757600e+000
1.6061321e+000
1.7081863e+000
1.6817439e+000
1.2030798e+000
4.4699502e-001
-8.7894619e-002
-3.5338190e-001
1.3228324e-001
1.2695150e+000
2.9341829e+000
4.6555834e+000
5.7216191e+000
6.3185172e+000
6.6607661e+000
7.1617708e+000
8.2183504e+000
1.0072769e+001
1.2812009e+001
1.6261738e+001
2.0188429e+001
2.3783531e+001
2.6755472e+001
2.9450855e+001
3.2061291e+001
3.5425701e+001
3.9573975e+001
4.4139191e+001
4.8946960e+001
5.2930897e+001
5.6192783e+001
5.9718266e+001
6.3552837e+001
6.8162308e+001
7.3318588e+001
7.8218002e+001
8.2828674e+001
8.7002289e+001
9.0800697e+001
9.4342674e+001
9.7674004e+001
1.0087917e+002
1.0371320e+002
1.0589635e+002
1.0661572e+002
1.0520358e+002
1.0241837e+002
9.9024010e+001
9.5481911e+001
9.2102867e+001
8.8319885e+001
8.3929482e+001
7.9220337e+001
7.4332603e+001
6.9698067e+001
6.5391235e+001
6.1077999e+001
5.6708733e+001
5.2414486e+001
4.8201359e+001
4.4100712e+001
4.0141575e+001
3.6546352e+001
3.3355999e+001
3.0691696e+001
2.8515942e+001
2.6620825e+001
2.5003366e+001
2.3606422e+001
2.2462515e+001
2.1587502e+001
2.0963766e+001
2.0527960e+001
2.0232592e+001
2.0010086e+001
1.9910549e+001
1.9964497e+001
2.0244989e+001
2.0781334e+001
2.1636883e+001
2.2817343e+001
2.4193554e+001
2.5704668e+001
2.7055050e+001
2.8178640e+001
2.9146606e+001
2.9977074e+001
3.1124523e+001
3.2711647e+001
3.5298866e+001
3.8885544e+001
4.2375710e+001
4.5566593e+001
4.7859795e+001
4.9381886e+001
5.0918285e+001
5.2460320e+001
5.3980450e+001
5.5030300e+001
5.4912758e+001
5.3742516e+001
5.1857327e+001
4.9768845e+001
4.8069923e+001
4.6683937e+001
4.5534500e+001
4.4394939e+001
4.3115112e+001
4.1549950e+001
3.9594215e+001
3.7548786e+001
3.5506538e+001
3.3550037e+001
3.1730062e+001
2.9494061e+001
2.6695900e+001
2.3690491e+001
2.0489590e+001
1.7768015e+001
1.5601090e+001
1.3587572e+001
1.1753445e+001
1.0001523e+001
8.3421259e+000
6.7300167e+000
5.1484609e+000
3.5472360e+000
2.0513463e+000
8.7657464e-001
1.5134493e-001
3.6676988e-002
5.3539628e-001
1.4901567e+000
2.4600620e+000
3.1246617e+000
3.5718379e+000
3.8442101e+000
4.2270761e+000
4.8820667e+000
5.6446314e+000
6.4906201e+000
7.0143270e+000
7.0049868e+000
6.7793798e+000
6.2659855e+000
5.7676249e+000
5.2961636e+000
4.8575420e+000
4.4753833e+000
4.1555338e+000
3.9059172e+000
3.6400847e+000
3.3501925e+000
3.0176065e+000
2.6840100e+000
2.4701099e+000
2.4089622e+000
2.5316212e+000
2.7929990e+000
3.1065595e+000
3.3989744e+000
3.5798829e+000
3.6981211e+000
3.7998989e+000
3.9462698e+000
4.1982198e+000
4.5202036e+000
4.9206157e+000
5.3449759e+000
5.7871060e+000
6.1711216e+000
6.4333820e+000
6.5432825e+000
6.3818154e+000
6.1094851e+000
5.6731148e+000
5.2213411e+000
4.7644315e+000
4.3689651e+000
4.0585175e+000
3.8018742e+000
3.5962198e+000
3.3644619e+000
3.1040149e+000
2.8239257e+000
2.5249207e+000
2.2279539e+000
1.9162331e+000
1.5561966e+000
1.1754546e+000
7.9660916e-001
4.5526442e-001
2.1236598e-001
4.5126230e-002
-2.9067472e-002
-5.7131857e-002
5.1813915e-002
2.4100193e-001
5.7332355e-001
8.6533487e-001
1.0514292e+000
1.1163791e+000
9.5537698e-001
8.0850941e-001
6.9920063e-001
6.8837351e-001
8.2842994e-001
1.0346864e+000
1.3235793e+000
1.6212099e+000
1.9148700e+000
2.1563916e+000
2.3297675e+000
2.4303396e+000
2.4636238e+000
2.4551165e+000
2.4250355e+000
2.4006290e+000
2.3867021e+000
2.3905308e+000
2.4000571e+000
2.4043939e+000
2.4016297e+000
2.3804710e+000
2.3506119e+000
2.3035793e+000
2.2690456e+000
2.2692819e+000
2.3015950e+000
2.4042957e+000
2.5202773e+000
2.6641581e+000
2.8130565e+000
2.9779062e+000
3.1723988e+000
3.4089715e+000
3.6658165e+000
3.9424021e+000
4.2171583e+000
4.4961185e+000
4.7985401e+000
5.1283479e+000
5.4937377e+000
5.8840671e+000
6.2853584e+000
6.6853251e+000
7.0590534e+000
7.3950372e+000
7.6354318e+000
7.8122678e+000
7.8673930e+000
7.8826084e+000
7.8419161e+000
7.7810445e+000
7.6723623e+000
7.5202212e+000
7.2452507e+000
6.9218578e+000
6.4842920e+000
6.0334668e+000
5.5601344e+000
5.1065092e+000
4.6830235e+000
4.2513413e+000
3.7996366e+000
3.3008151e+000
2.7527480e+000
2.2143478e+000
1.7007829e+000
1.2598051e+000
8.8547999e-001
5.7386416e-001
3.1235304e-001
1.1200909e-001
-4.8225418e-002
-1.5383992e-001
-2.3687646e-001
-3.0055770e-001
-3.5501844e-001
-3.8874039e-001
-4.0387002e-001
-3.5422036e-001
-2.7997702e-001
-1.2611526e-001
3.3046618e-002
2.0629950e-001
3.7283063e-001
5.2448571e-001
6.8563229e-001
8.6318499e-001
1.0257338e+000
1.1515998e+000
1.1940800e+000
1.1170731e+000
9.5808977e-001
7.1612966e-001
4.8014838e-001
2.6171684e-001
1.1323291e-001
2.6500195e-002
2.3718888e-002
8.7499171e-002
3.0189368e-001
5.9244943e-001
9.8098743e-001
1.3861378e+000
1.7389554e+000
2.0657299e+000
2.3031361e+000
2.5187550e+000
2.6613586e+000
2.7917111e+000
2.8765469e+000
2.9708695e+000
3.0959280e+000
3.2319751e+000
3.3919103e+000
3.5319674e+000
3.6338277e+000
3.7326639e+000
3.8375285e+000
4.0193930e+000
4.3031840e+000
4.6535931e+000
5.0622230e+000
5.4303985e+000
5.7657523e+000
6.0844460e+000
6.3903522e+000
6.6725731e+000
6.9076414e+000
6.8823633e+000
6.7432570e+000
6.3972301e+000
6.0397906e+000
5.9320078e+000
5.9053998e+000
6.2397251e+000
6.5884867e+000
6.9145002e+000
7.1899915e+000
7.2456722e+000
7.2879109e+000
7.2907171e+000
7.3243279e+000
7.4299464e+000
7.5213609e+000
7.5804324e+000
7.5806088e+000
7.4892001e+000
7.3267498e+000
7.0812645e+000
6.8021927e+000
6.5004148e+000
6.2665215e+000
6.0819635e+000
5.9249258e+000
5.7737513e+000
5.5346756e+000
5.2553096e+000
4.9088144e+000
4.5400286e+000
4.1238022e+000
3.7026465e+000
3.3159559e+000
2.9479270e+000
2.7643991e+000
2.5900326e+000
2.4668939e+000
2.3263974e+000
2.1086929e+000
1.8721640e+000
1.5747337e+000
1.2278210e+000
7.6684380e-001
2.7797061e-001
-2.5400990e-001
-7.1206117e-001
-1.0639820e+000
-1.2903049e+000
-1.3790343e+000
-1.3202999e+000
-1.1407371e+000
-8.9068747e-001
-5.9975386e-001
-3.4894249e-001
-1.1725210e-001
9.2035189e-002
2.9003027e-001
4.0740344e-001
4.9892414e-001
4.0110293e-001
2.7759710e-001
8.6739793e-002
-9.0086907e-002
-2.8848536e-002
6.8550855e-003
2.1313837e-001
6.1455560e-001
1.0229770e+000
1.3515285e+000
1.4454834e+000
1.4860101e+000
1.4149148e+000
1.4396709e+000
1.6196229e+000
1.8980800e+000
2.2950799e+000
2.6153772e+000
2.8623443e+000
2.9717772e+000
2.9811392e+000
2.7575445e+000
2.4109371e+000
1.9649565e+000
1.4860107e+000
1.5302422e+000
1.7153388e+000
2.5868104e+000
3.5693603e+000
4.7996998e+000
