Image.
>Pix99999.
  .
5555
5555
2300
900
5555
2
1
0
701
5555
8.8218004e-002
9.0053380e-002
9.1888748e-002
9.3723126e-002
9.5558494e-002
9.7393870e-002
9.9229239e-002
1.0106165e-001
1.0289898e-001
1.0473634e-001
1.0657372e-001
1.0841108e-001
1.1023863e-001
1.1206602e-001
1.1391300e-001
1.1578971e-001
1.1757909e-001
1.1926895e-001
1.2124883e-001
1.2363486e-001
1.2494343e-001
1.2472780e-001
1.2852648e-001
1.3798293e-001
1.3253468e-001
9.3952395e-002
3.8373172e-002
-7.6170401e-003
-1.4113692e-002
3.9616313e-002
1.3387387e-001
2.3711669e-001
3.1647831e-001
3.4439600e-001
3.1589639e-001
2.3759149e-001
1.3648269e-001
4.1322883e-002
-3.5868078e-002
-8.9521788e-002
-1.1990560e-001
-1.2795289e-001
-1.1054640e-001
-6.6841096e-002
-1.0269280e-002
4.2399392e-002
7.8487754e-002
8.9901149e-002
8.1774563e-002
6.2829323e-002
3.9808858e-002
1.9030949e-002
7.8563970e-003
1.2325336e-002
3.1710487e-002
6.0146350e-002
7.9606883e-002
7.2707936e-002
4.0393189e-002
-5.1316526e-003
-3.0191835e-002
-1.9295500e-003
8.1109904e-002
2.0310490e-001
3.2046664e-001
3.8858029e-001
3.9547440e-001
3.4604323e-001
2.6886937e-001
1.9684011e-001
1.4904900e-001
1.3567805e-001
1.5057737e-001
1.8037316e-001
2.0459205e-001
2.0497179e-001
1.8171223e-001
1.4465390e-001
1.1646411e-001
1.1809088e-001
1.4555258e-001
1.8398465e-001
2.1066673e-001
2.0624007e-001
1.7543560e-001
1.3125442e-001
8.4373765e-002
4.3345258e-002
1.2637289e-002
-2.8993199e-003
9.2238709e-003
5.6091141e-002
1.1050050e-001
1.3583462e-001
1.0991158e-001
2.8191129e-002
-6.5077320e-002
-1.1619201e-001
-1.0813280e-001
-4.4129927e-002
4.9595714e-002
1.4432552e-001
2.3545934e-001
3.2536039e-001
4.0499291e-001
4.6151102e-001
4.8665753e-001
4.7966594e-001
4.6269479e-001
4.6211669e-001
4.8406342e-001
5.2295721e-001
5.5985403e-001
5.7468659e-001
5.6377238e-001
5.3083986e-001
4.8165902e-001
4.2257553e-001
3.6013484e-001
3.0240262e-001
2.6345170e-001
2.5702605e-001
2.8480133e-001
3.3854628e-001
3.9031252e-001
4.0847641e-001
3.8022199e-001
3.0772594e-001
2.2078834e-001
1.5657890e-001
1.3485928e-001
1.6095193e-001
2.1377331e-001
2.6199061e-001
2.7808142e-001
2.4491721e-001
1.7965628e-001
1.1519565e-001
8.6943798e-002
1.2089108e-001
2.0203000e-001
2.9680055e-001
3.7158939e-001
4.0134171e-001
3.9273086e-001
3.6588836e-001
3.3634329e-001
3.1491721e-001
3.0504033e-001
3.0670729e-001
3.1910643e-001
3.3882979e-001
3.5238504e-001
3.4522155e-001
3.1868321e-001
2.8292707e-001
2.5203183e-001
2.3872924e-001
2.4420089e-001
2.6754630e-001
3.2331887e-001
4.2917570e-001
5.8215594e-001
7.6096714e-001
9.1140944e-001
9.7476858e-001
9.3969834e-001
8.2531816e-001
6.7544758e-001
5.3614074e-001
4.1718885e-001
3.1169212e-001
2.2307931e-001
1.6065408e-001
1.3005038e-001
1.2964249e-001
1.3682708e-001
1.2358265e-001
8.4830388e-002
3.0326610e-002
-2.1329459e-002
-5.2938629e-002
-6.9168001e-002
-8.4898837e-002
-1.0784495e-001
-1.3404736e-001
-1.2969123e-001
-5.6796487e-002
7.2543263e-002
2.1665812e-001
3.2886115e-001
3.7334237e-001
3.6328822e-001
3.3262432e-001
2.8817743e-001
2.2148021e-001
1.3272440e-001
3.2886744e-002
-4.7783829e-002
-7.4860856e-002
-4.0626001e-002
4.0783253e-002
1.2964754e-001
1.7605029e-001
1.4285344e-001
1.2648374e-002
-1.8286282e-001
-3.8618791e-001
-5.4775059e-001
-6.3220698e-001
-6.3503897e-001
-5.7085335e-001
-4.6186036e-001
-3.3671904e-001
-2.4028957e-001
-2.1859293e-001
-2.8136611e-001
-4.1070789e-001
-5.6668323e-001
-7.0488405e-001
-8.1009454e-001
-8.8244629e-001
-9.0643984e-001
-8.6113477e-001
-7.5261599e-001
-6.1284107e-001
-5.0936890e-001
-5.1450294e-001
-6.3129914e-001
-8.1100267e-001
-9.7630829e-001
-1.0466020e+000
-9.8473501e-001
-7.9666454e-001
-5.5183148e-001
-3.5131821e-001
-2.7054137e-001
-3.4700805e-001
-5.4064143e-001
-7.6582688e-001
-9.4770062e-001
-1.0361037e+000
-1.0354146e+000
-9.8179537e-001
-8.9922863e-001
-7.9553300e-001
-6.6053796e-001
-4.7829193e-001
-2.5438029e-001
-1.2824856e-002
2.0992038e-001
3.6998859e-001
4.1930401e-001
3.2473007e-001
1.3052537e-001
-7.0238575e-002
-2.0487337e-001
-2.2923633e-001
-1.3501798e-001
6.1161205e-002
3.3062112e-001
6.2901950e-001
8.6598045e-001
9.3728465e-001
8.2066381e-001
5.6906384e-001
2.9481101e-001
1.1749671e-001
3.2604031e-002
-3.8699523e-002
-8.5254885e-002
-2.4484478e-002
1.9664952e-001
5.7868922e-001
1.0279762e+000
1.3972714e+000
1.5918474e+000
1.5900406e+000
1.4878643e+000
1.4373509e+000
1.4744600e+000
1.5256209e+000
1.4653476e+000
1.1761674e+000
6.9492263e-001
1.8275002e-001
-1.8379065e-001
-2.4801248e-001
8.1339538e-002
8.1313598e-001
1.8025444e+000
2.8153698e+000
3.7233753e+000
4.5286326e+000
5.3776240e+000
6.5108695e+000
8.1483612e+000
1.0450681e+001
1.3446103e+001
1.7007536e+001
2.0745144e+001
2.4140770e+001
2.6991362e+001
2.9439905e+001
3.1926041e+001
3.5039127e+001
3.9141762e+001
4.4253315e+001
4.9788200e+001
5.4849377e+001
5.9266014e+001
6.3536797e+001
6.8112152e+001
7.3181885e+001
7.8423218e+001
8.3167946e+001
8.7047638e+001
9.0045227e+001
9.2272400e+001
9.3889938e+001
9.5032715e+001
9.5786987e+001
9.6166000e+001
9.6117973e+001
9.5549484e+001
9.4386215e+001
9.2768913e+001
9.0996452e+001
8.9196274e+001
8.7284065e+001
8.5052643e+001
8.2260063e+001
7.8867516e+001
7.5024277e+001
7.0851784e+001
6.6404938e+001
6.1709118e+001
5.6793289e+001
5.1765945e+001
4.6807705e+001
4.2085571e+001
3.7738285e+001
3.3898247e+001
3.0673939e+001
2.8065536e+001
2.5970615e+001
2.4277304e+001
2.2894642e+001
2.1776669e+001
2.0916954e+001
2.0308500e+001
1.9933876e+001
1.9766205e+001
1.9774614e+001
1.9954445e+001
2.0331036e+001
2.0936726e+001
2.1812719e+001
2.3035170e+001
2.4704725e+001
2.6870373e+001
2.9500605e+001
3.2452026e+001
3.5497581e+001
3.8485641e+001
4.1367962e+001
4.4135014e+001
4.6822208e+001
4.9607811e+001
5.2714886e+001
5.5882114e+001
5.8380451e+001
5.9779919e+001
6.0136261e+001
5.9809841e+001
5.9319248e+001
5.8847408e+001
5.8153175e+001
5.6886440e+001
5.4753448e+001
5.1873199e+001
4.8788010e+001
4.5933964e+001
4.3498581e+001
4.1489109e+001
3.9758701e+001
3.8111336e+001
3.6344559e+001
3.4323223e+001
3.2019836e+001
2.9577972e+001
2.7276134e+001
2.5206360e+001
2.3201876e+001
2.1040955e+001
1.8553213e+001
1.5837097e+001
1.3271189e+001
1.1110971e+001
9.3764305e+000
7.9677854e+000
6.7134619e+000
5.5045400e+000
4.3257527e+000
3.1718366e+000
2.0369358e+000
9.7567981e-001
1.1613545e-001
-4.1322410e-001
-5.0233364e-001
-4.1057408e-002
1.0441824e+000
2.6033497e+000
4.2422881e+000
5.6858387e+000
6.8965573e+000
7.9748797e+000
9.1166573e+000
1.0442905e+001
1.1924003e+001
1.3357800e+001
1.4391441e+001
1.4825580e+001
1.4712132e+001
1.4192394e+001
1.3449607e+001
1.2625243e+001
1.1789250e+001
1.0979806e+001
1.0204469e+001
9.4352016e+000
8.6153488e+000
7.7363815e+000
6.8672476e+000
6.1008902e+000
5.5312629e+000
5.2045765e+000
5.0957813e+000
5.1396518e+000
5.2421904e+000
5.3353658e+000
5.4029951e+000
5.4751420e+000
5.6253695e+000
5.9036274e+000
6.3078370e+000
6.8028612e+000
7.3202591e+000
7.7750521e+000
8.0739832e+000
8.1489220e+000
7.9798927e+000
7.6051903e+000
7.1283183e+000
6.6394773e+000
6.1843553e+000
5.7812662e+000
5.4230890e+000
5.1030455e+000
4.8186302e+000
4.5447202e+000
4.2235670e+000
3.8072960e+000
3.2799170e+000
2.6648440e+000
2.0308342e+000
1.4341986e+000
8.9643788e-001
4.3382999e-001
6.7219809e-002
-1.7520800e-001
-2.5763437e-001
-1.5532172e-001
1.3449425e-001
5.9938520e-001
1.2114732e+000
1.9451400e+000
2.7768030e+000
3.6417189e+000
4.4089050e+000
4.9373145e+000
5.1095166e+000
4.9056501e+000
4.4556289e+000
3.9151454e+000
3.4204464e+000
3.0646031e+000
2.8716049e+000
2.8204455e+000
2.8418486e+000
2.8611600e+000
2.8176289e+000
2.6834509e+000
2.4814692e+000
2.2467303e+000
2.0153265e+000
1.8176389e+000
1.6745950e+000
1.6074134e+000
1.6408244e+000
1.7937857e+000
2.0726004e+000
2.4726603e+000
2.9748819e+000
3.5528359e+000
4.1726408e+000
4.7979679e+000
5.3913670e+000
5.9180670e+000
6.3497186e+000
6.6695356e+000
6.8809919e+000
7.0052719e+000
7.0873842e+000
7.1811323e+000
7.3431344e+000
7.6151280e+000
8.0082226e+000
8.5155621e+000
9.1114836e+000
9.7768517e+000
1.0512782e+001
1.1326262e+001
1.2225260e+001
1.3207479e+001
1.4252500e+001
1.5327717e+001
1.6383862e+001
1.7358772e+001
1.8172564e+001
1.8744028e+001
1.9001896e+001
1.8893961e+001
1.8409300e+001
1.7563803e+001
1.6413435e+001
1.5039788e+001
1.3555248e+001
1.2080388e+001
1.0740268e+001
9.6368513e+000
8.8155031e+000
8.2913065e+000
8.0385504e+000
8.0076714e+000
8.1177483e+000
8.2696638e+000
8.3445530e+000
8.2429638e+000
7.9196014e+000
7.3746428e+000
6.6767254e+000
5.9068627e+000
5.1358500e+000
4.4157910e+000
3.7641094e+000
3.1906145e+000
2.7061310e+000
2.3184130e+000
2.0272100e+000
1.8261800e+000
1.6993717e+000
1.6312194e+000
1.6114051e+000
1.6293355e+000
1.6706622e+000
1.7191591e+000
1.7565820e+000
1.7687749e+000
1.7514710e+000
1.7064600e+000
1.6424048e+000
1.5623400e+000
1.4531111e+000
1.2973660e+000
1.0794715e+000
8.0317974e-001
5.1438409e-001
2.5840142e-001
5.5160999e-002
-8.2756713e-002
-1.4690040e-001
-1.3904591e-001
-8.2879752e-002
-6.3774250e-003
6.5407813e-002
1.1474355e-001
1.4078777e-001
1.5469240e-001
1.8544661e-001
2.5316501e-001
3.4488124e-001
4.3307155e-001
4.7580963e-001
4.4685507e-001
3.6848402e-001
2.8172332e-001
2.4318901e-001
2.9067644e-001
4.0551576e-001
5.6227720e-001
7.5452292e-001
9.9472958e-001
1.3294673e+000
1.7836789e+000
2.3045552e+000
2.8172557e+000
3.2403929e+000
3.5162168e+000
3.6526599e+000
3.6710501e+000
3.5859833e+000
3.4114280e+000
3.1649194e+000
2.8780689e+000
2.6173201e+000
2.4423361e+000
2.3693652e+000
2.3873024e+000
2.4386070e+000
2.4661000e+000
2.4457436e+000
2.3713996e+000
2.2652109e+000
2.1595285e+000
2.0950499e+000
2.1049578e+000
2.1943226e+000
2.3525589e+000
2.5445569e+000
2.7370200e+000
2.9177010e+000
3.0720699e+000
3.1638861e+000
3.1511323e+000
2.9915316e+000
2.6652069e+000
2.2187099e+000
1.7208083e+000
1.2564431e+000
8.9758545e-001
6.6375172e-001
5.4747814e-001
4.9815276e-001
4.5604360e-001
3.6697370e-001
1.9533771e-001
-4.1028202e-002
-3.1021309e-001
-5.7794160e-001
-8.1914926e-001
-1.0394089e+000
-1.2462543e+000
-1.4293767e+000
-1.5721989e+000
-1.6523014e+000
-1.6564634e+000
-1.6049209e+000
-1.5275741e+000
-1.4573283e+000
-1.4158914e+000
-1.3850535e+000
-1.3345705e+000
-1.2266104e+000
-1.0368303e+000
-7.9189646e-001
-5.3159010e-001
-2.9721612e-001
-1.1881580e-001
1.3297237e-002
1.1257900e-001
1.7149340e-001
1.7955360e-001
1.3473165e-001
5.4769576e-002
1.9210853e-002
1.0743204e-001
3.4265521e-001
7.0608783e-001
1.0787030e+000
1.3450115e+000
1.4930902e+000
1.5470837e+000
1.5703682e+000
1.6188657e+000
1.6873064e+000
1.7573401e+000
1.8190880e+000
1.8725874e+000
1.9484948e+000
2.0828471e+000
2.3041785e+000
2.6296868e+000
3.0396860e+000
3.4974518e+000
3.9338737e+000
4.2789121e+000
4.4900551e+000
4.5491772e+000
4.5060878e+000
4.4278998e+000
