##TITLE=Methyl Ethyl Ketone
##JCAMP-DX=4.24
##DATA TYPE=INFRARED SPECTRUM
##XUNITS=cm-1
##YUNITS=Absorbance
##FIRSTX=900
##LASTX=2300
##XYDATA=(X++(Y..Y))
2296 -0.044557001
2294 -0.045483675
2292 -0.046410348
2290 -0.047337022
2288 -0.04826469
2286 -0.049191374
2284 -0.050118048
2282 -0.051044721
2280 -0.051972382
2278 -0.052899066
2276 -0.053825743
2274 -0.0547534
2272 -0.055680092
2270 -0.056606766
2268 -0.057533439
2266 -0.058461092
2264 -0.059387788
2262 -0.060314462
2260 -0.061241135
2258 -0.062168784
2256 -0.06309548
2254 -0.064022154
2252 -0.064948834
2250 -0.065876476
2248 -0.066803187
2246 -0.067729861
2244 -0.0025169114
2242 0.030694567
2240 0.054208562
2238 0.0061750887
2236 -0.052305229
2234 -0.10771918
2232 -0.16048948
2230 -0.15938395
2228 -0.15878186
2226 -0.1824625
2224 -0.2088092
2222 -0.24142571
2220 -0.25556833
2218 -0.21227629
2216 -0.14571656
2214 -0.035404909
2212 0.070230022
2210 0.1639967
2208 0.21489966
2206 0.21327014
2204 0.19801077
2202 0.17281765
2200 0.20055972
2198 0.26833221
2196 0.34905073
2194 0.43571758
2192 0.47609925
2190 0.49603096
2188 0.51316547
2186 0.52983105
2184 0.58131683
2182 0.64082181
2180 0.70858014
2178 0.77707797
2176 0.81101084
2174 0.8386988
2172 0.83163851
2170 0.82070994
2168 0.80664563
2166 0.788185
2164 0.7549383
2162 0.71754134
2160 0.67326534
2158 0.65155554
2156 0.67392403
2154 0.71422517
2152 0.77393138
2150 0.81668288
2148 0.8380903
2146 0.84420037
2144 0.83879763
2142 0.81704932
2140 0.78483391
2138 0.72989643
2136 0.66313368
2134 0.60183418
2132 0.54318285
2130 0.55452269
2128 0.58808678
2126 0.69020283
2124 0.80794334
2122 0.84777808
2120 0.8690818
2118 0.77676791
2116 0.66740656
2114 0.5513373
2112 0.44333658
2110 0.3750082
2108 0.33794829
2106 0.37785381
2104 0.45885316
2102 0.6057092
2100 0.73272121
2098 0.81018323
2096 0.81566286
2094 0.73667347
2092 0.65200192
2090 0.57419968
2088 0.56408048
2086 0.60868549
2084 0.67531753
2082 0.75136191
2080 0.77837902
2078 0.77914906
2076 0.739604
2074 0.68470037
2072 0.66590202
2070 0.65939271
2068 0.73245323
2066 0.82383436
2064 0.85019112
2062 0.85010469
2060 0.7038241
2058 0.5350275
2056 0.40080085
2054 0.31634837
2052 0.3877323
2050 0.508843
2048 0.68062824
2046 0.79984289
2044 0.79848784
2042 0.69296283
2040 0.46347967
2038 0.24088861
2036 0.053058095
2034 -0.040423676
2032 -0.048314676
2030 -0.023936849
2028 0.015046014
2026 0.053253558
2024 0.090191297
2022 0.1754069
2020 0.28631914
2018 0.39852178
2016 0.50909001
2014 0.50478721
2012 0.46059254
2010 0.3405312
2008 0.20133331
2006 0.077465735
2004 -0.038674042
2002 -0.1242708
2000 -0.19229719
1998 -0.212455
1996 -0.22458643
1994 -0.24552347
1992 -0.2921167
1990 -0.39667344
1988 -0.50052619
1986 -0.58522511
1984 -0.62048578
1982 -0.59305513
1980 -0.53671956
1978 -0.4611164
1976 -0.38888916
1974 -0.32204461
1972 -0.2254606
1970 -0.10407827
1968 -0.0092842989
1966 0.065491714
1964 -0.035011563
1962 -0.22808899
1960 -0.43429521
1958 -0.64165735
1956 -0.64566672
1954 -0.57455683
1952 -0.41947222
1950 -0.25151682
1948 -0.18674885
1946 -0.180445
1944 -0.31515652
1942 -0.48529664
1940 -0.64475936
1938 -0.75913602
1936 -0.768902
1934 -0.73756897
1932 -0.67927343
1930 -0.62526041
1928 -0.58326346
1926 -0.50610244
1924 -0.37418205
1922 -0.16738632
1920 0.10084938
1918 0.3086623
1916 0.4412877
1914 0.47185647
1912 0.43791234
1910 0.38014391
1908 0.31713471
1906 0.13673583
1904 -0.10878044
1902 -0.3456994
1900 -0.5771547
1898 -0.51146495
1896 -0.32209
1894 -0.034281079
1892 0.25605908
1890 0.29499471
1888 0.19221315
1886 -0.11737636
1884 -0.48686141
1882 -0.80643922
1880 -1.0652618
1878 -1.2189672
1876 -1.29611
1874 -1.2870256
1872 -1.1463983
1870 -0.84371364
1868 -0.48151007
1866 -0.12222711
1864 0.0062994342
1862 -0.12065397
1860 -0.4021396
1858 -0.75785261
1856 -1.0628248
1854 -1.3095281
1852 -1.4817631
1850 -1.6057643
1848 -1.606496
1846 -1.5328715
1844 -1.3734832
1842 -1.1720488
1840 -1.0654452
1838 -1.0147054
1836 -1.0178939
1834 -1.033734
1832 -0.94834048
1830 -0.77067131
1828 -0.43555737
1826 -0.063530989
1824 0.19652912
1822 0.27461949
1820 0.066255838
1818 -0.29923415
1816 -0.72830117
1814 -1.1093562
1812 -1.3808141
1810 -1.5036399
1808 -1.4933332
1806 -1.33436
1804 -1.0628568
1802 -0.77847624
1800 -0.50355858
1798 -0.3433508
1796 -0.2716293
1794 -0.21133558
1792 -0.15607761
1790 -0.052357472
1788 0.072596252
1786 0.17536514
1784 0.26006973
1782 0.35601455
1780 0.46828455
1778 0.67337161
1776 0.94276971
1774 1.2782445
1772 1.5757443
1770 1.6135032
1768 1.4418092
1766 1.047601
1764 0.61969197
1762 0.34689328
1760 0.10289286
1758 -0.19130859
1756 -0.41166785
1754 -0.49869788
1752 -0.30959627
1750 0.16881309
1748 0.73167932
1746 1.2836821
1744 1.4596652
1742 1.2653251
1740 0.94459081
1738 0.58663297
1736 0.61284602
1734 0.94886303
1732 1.2823157
1730 1.5659962
1728 1.3086519
1726 0.69226807
1724 0.16784295
1722 -0.19112253
1720 0.1238924
1718 1.0699503
1716 2.5857744
1714 4.2493935
1712 5.4311891
1710 6.2229652
1708 6.7449379
1706 7.3799257
1704 8.5115814
1702 10.4289
1700 13.251991
1698 16.819645
1696 20.877571
1694 24.57313
1692 27.601646
1690 30.342211
1688 33.01276
1686 36.521816
1684 40.896873
1682 45.73481
1680 50.83548
1678 54.931702
1676 58.146244
1674 61.39864
1672 64.782974
1670 68.810707
1668 73.321358
1666 77.780098
1664 82.149155
1662 86.330589
1660 90.292732
1658 93.974884
1656 97.346001
1654 100.37491
1652 102.895
1650 104.71632
1648 105.27183
1646 104.08786
1644 101.67003
1642 98.589066
1640 95.132431
1638 91.550934
1636 87.441299
1634 82.687332
1632 77.84182
1630 73.097031
1628 68.717499
1626 64.726265
1624 60.562721
1622 56.167027
1620 51.752609
1618 47.352562
1616 43.191429
1614 39.290424
1612 35.808159
1610 32.76181
1608 30.180513
1606 28.036634
1604 26.158365
1602 24.558487
1600 23.212635
1598 22.139111
1596 21.327999
1594 20.764181
1592 20.386793
1590 20.166695
1588 20.051882
1586 20.05447
1584 20.177999
1582 20.45467
1580 20.898195
1578 21.59984
1576 22.582285
1574 23.835119
1572 25.327669
1570 26.820072
1568 28.2512
1566 29.558891
1564 30.744074
1562 32.174423
1560 33.95607
1558 36.596676
1556 40.092346
1554 43.390648
1552 46.29052
1550 48.309471
1548 49.540462
1546 50.716713
1544 51.856712
1542 53.002254
1540 53.88562
1538 54.019581
1536 53.366829
1534 52.019135
1532 50.341778
1530 48.825867
1528 47.486938
1526 46.328503
1524 45.127251
1522 43.724751
1520 42.009178
1518 39.869026
1516 37.72097
1514 35.706989
1512 33.809639
1510 32.08392
1508 29.842859
1506 26.908821
1504 23.739161
1502 20.346138
1500 17.566706
1498 15.49681
1496 13.624001
1494 11.953118
1492 10.263455
1490 8.551959
1488 6.7944007
1486 5.0212107
1484 3.3115001
1482 1.7906969
1480 0.674851
1478 0.053791367
1476 0.021188289
1474 0.58560103
1472 1.5932034
1470 2.613632
1468 3.3139696
1466 3.7270565
1464 3.8700247
1462 4.0843663
1460 4.5539303
1458 5.2051597
1456 6.0581198
1454 6.6614861
1452 6.8082929
1450 6.6861567
1448 6.189177
1446 5.6983395
1444 5.2339001
1442 4.8634348
1440 4.6310849
1438 4.4838305
1436 4.4188457
1434 4.2599502
1432 3.9819913
1430 3.5757058
1428 3.0877521
1426 2.7107015
1424 2.4882224
1422 2.4773915
1420 2.6568601
1418 2.9582369
1416 3.3088114
1414 3.620564
1412 3.8683245
1410 4.0538116
1408 4.2143955
1406 4.3766136
1404 4.5597181
1402 4.7641768
1400 4.9945679
1398 5.2576013
1396 5.5010929
1394 5.6891108
1392 5.7863808
1390 5.7027435
1388 5.5408111
1386 5.2569098
1384 4.9518685
1382 4.6227751
1380 4.2994275
1378 3.9830675
1376 3.645143
1374 3.3029704
1372 2.966218
1370 2.6564517
1368 2.4200189
1366 2.2183595
1364 2.0046947
1362 1.7526219
1360 1.4048823
1358 1.021309
1356 0.65465581
1354 0.33678573
1352 0.14168566
1350 0.025581684
1348 -0.0042771287
1346 -0.0097523592
1344 0.069699839
1342 0.19451636
1340 0.40203771
1338 0.58337033
1336 0.69191629
1334 0.73498571
1332 0.63217664
1330 0.54095328
1328 0.47737622
1326 0.49012321
1324 0.63335121
1322 0.84764177
1320 1.1591017
1318 1.4909167
1316 1.835
1314 2.1369107
1312 2.37342
1310 2.5324547
1308 2.6148257
1306 2.6521556
1304 2.6634727
1302 2.6754851
1300 2.6796107
1298 2.6506202
1296 2.6031857
1294 2.5245483
1292 2.4603703
1290 2.4493089
1288 2.45522
1286 2.4828522
1284 2.4990416
1282 2.4794471
1280 2.4846263
1278 2.5463641
1276 2.6497314
1274 2.8350499
1272 3.0224445
1270 3.2162113
1268 3.4031734
1266 3.5837171
1264 3.7887578
1262 4.022048
1260 4.2783022
1258 4.5605955
1256 4.8621597
1254 5.1919675
1252 5.5727692
1250 5.9962316
1248 6.4601951
1246 6.9386249
1244 7.392612
1242 7.8172951
1240 8.1707439
1238 8.4817171
1236 8.7188063
1234 8.9166031
1232 9.0330439
1230 9.0951834
1228 9.0076094
1226 8.852931
1224 8.5159616
1222 8.1281176
1220 7.6181555
1218 7.0798569
1216 6.4854627
1214 5.8842206
1212 5.276474
1210 4.6889515
1208 4.1299381
1206 3.5814943
1204 3.0392399
1202 2.4771848
1200 1.9047405
1198 1.3635055
1196 0.87218285
1194 0.49813491
1192 0.2192162
1190 0.060792655
1188 -0.033987187
1186 -0.084840581
1184 -0.13145205
1182 -0.21963495
1180 -0.31979188
1178 -0.42846155
1176 -0.51283401
1174 -0.49250814
1172 -0.44333613
1170 -0.30825394
1168 -0.17321962
1166 -0.040728979
1164 0.089661725
1162 0.21439281
1160 0.33435458
1158 0.44121015
1156 0.5173437
1154 0.5400942
1152 0.52642012
1150 0.46217829
1148 0.36918601
1146 0.24693462
1144 0.12662791
1142 0.02147973
1140 -0.0067959679
1138 0.034078114
1136 0.17020057
1134 0.37231171
1132 0.63890672
1130 0.92864347
1128 1.2115823
1126 1.4839021
1124 1.7121751
1122 1.9340832
1120 2.1629839
1118 2.4024506
1116 2.694443
1114 2.9863858
1112 3.2726822
1110 3.5313833
1108 3.7044179
1106 3.8839202
1104 4.0875492
1102 4.3687539
1100 4.7996283
1098 5.2485385
1096 5.7184997
1094 6.1401515
1092 6.5049438
1090 6.8806715
1088 7.2702985
1086 7.6855173
1084 8.1235437
1082 8.5832348
1080 9.0461378
1078 9.4375267
1076 9.7526102
1074 9.7507868
1072 9.6114311
1070 9.2282753
1068 8.8069973
1066 8.5018005
1064 8.2466278
1062 8.2506828
1060 8.2901068
1058 8.4737654
1056 8.6334887
1054 8.685358
1052 8.6860275
1050 8.5270767
1048 8.3820181
1046 8.2750998
1044 8.2224836
1042 8.2683983
1040 8.3120041
1038 8.3415623
1036 8.2671795
1034 8.0632715
1032 7.7284856
1030 7.2782383
1028 6.8189907
1026 6.3589892
1024 5.9507651
1022 5.5686622
1020 5.180769
1018 4.7877131
1016 4.3666286
1014 3.9369266
1012 3.4927545
1010 3.0513175
1008 2.6668921
1006 2.3009436
1004 2.0955195
1002 1.9201083
1000 1.9392686
998 1.9696286
996 2.0451715
994 2.047236
992 1.8151509
990 1.4660904
988 0.84865028
986 0.20580214
984 -0.4707672
982 -0.99482471
980 -1.299716
978 -1.3413872
976 -1.1067846
974 -0.76969182
972 -0.3584266
970 -0.073628306
968 0.13118428
966 0.25994852
964 0.35478371
962 0.4535825
960 0.54932851
958 0.56376433
956 0.55949759
954 0.53322488
952 0.50293636
950 0.44271585
948 0.37206572
946 0.17179075
944 0.0026955018
942 0.0034118891
940 0.11900806
938 0.6009872
936 1.084703
934 1.5716842
932 1.9669583
930 2.1659384
928 2.3093593
926 2.3668449
924 2.5395639
922 2.8533194
920 3.2208624
918 3.6347528
916 3.8393128
914 3.8963566
912 3.9707692
910 4.0577459
908 4.3726692
906 4.7767634
904 5.177094
902 5.5780029
900 5.9747348
898 6.3715253
896 6.8785
