Image.
>Pix99999.
  .
5555
5555
2300
900
5555
2
1
0
701
5555
-7.7503999e-003
-7.9116691e-003
-8.0728391e-003
-8.2341079e-003
-8.3953766e-003
-8.5565466e-003
-8.7178163e-003
-8.8790851e-003
-9.0402551e-003
-9.2015229e-003
-9.3627935e-003
-9.5239636e-003
-9.6852314e-003
-9.8464033e-003
-1.0007768e-002
-1.0168551e-002
-1.0330297e-002
-1.0491090e-002
-1.0652835e-002
-1.0813630e-002
-1.0975371e-002
-1.1136170e-002
-1.1297909e-002
-1.1458710e-002
-1.1620445e-002
-1.1781250e-002
-4.3780287e-004
4.7416696e-003
8.3128279e-003
-7.9401722e-003
-2.7103659e-002
-5.6237303e-002
-8.5330166e-002
-9.7440675e-002
-1.0777943e-001
-1.1045550e-001
-1.0881514e-001
-8.9258112e-002
-5.7354953e-002
9.2448806e-003
7.6466776e-002
1.4076848e-001
1.8835279e-001
2.0893592e-001
2.1729726e-001
2.1248385e-001
1.9818045e-001
1.7552041e-001
1.4095017e-001
9.7892947e-002
5.5887926e-002
1.4818879e-002
9.5004879e-004
-1.0129020e-003
3.2345094e-002
7.6926865e-002
1.3077720e-001
1.8659918e-001
2.1142885e-001
2.3120800e-001
2.1819486e-001
2.0128317e-001
1.7423442e-001
1.4410420e-001
1.0187077e-001
6.0681369e-002
2.7623769e-002
3.8927407e-003
1.9712583e-003
9.8866085e-003
3.2242797e-002
6.9486588e-002
1.2613623e-001
1.7372324e-001
2.0880476e-001
2.0012107e-001
1.5390030e-001
1.0384943e-001
5.3853340e-002
4.3087877e-002
5.3681001e-002
7.5338930e-002
1.0075807e-001
1.1380184e-001
1.2278840e-001
1.3282657e-001
1.4319229e-001
1.6127497e-001
1.8064737e-001
2.0101848e-001
2.2027428e-001
2.3007280e-001
2.3216885e-001
2.0617564e-001
1.7232017e-001
1.2717229e-001
9.3288310e-002
8.7962121e-002
9.9677861e-002
1.3291351e-001
1.6168429e-001
1.8049231e-001
1.7780595e-001
1.5437046e-001
1.2848760e-001
1.0298266e-001
1.0748433e-001
1.3174120e-001
1.5501389e-001
1.7644262e-001
1.6250515e-001
1.3397983e-001
1.1916360e-001
1.0927518e-001
1.2867695e-001
1.5455379e-001
1.4900376e-001
1.3505685e-001
9.7744964e-002
5.7658900e-002
2.7635857e-002
2.0083636e-003
-1.4773041e-002
-2.1665975e-002
-7.3686126e-003
1.4621286e-002
4.3606520e-002
5.9779637e-002
5.4297622e-002
3.1625900e-002
-7.0319138e-003
-5.0832596e-002
-9.6724428e-002
-1.3419880e-001
-1.6462305e-001
-1.7726022e-001
-1.7916560e-001
-1.5603244e-001
-1.2065217e-001
-8.6789057e-002
-5.4339200e-002
-6.4798519e-002
-8.9831181e-002
-1.2323156e-001
-1.5766223e-001
-1.7561972e-001
-1.9058678e-001
-2.1368010e-001
-2.3769069e-001
-2.5601271e-001
-2.6105571e-001
-2.2989035e-001
-1.8337451e-001
-1.2323584e-001
-7.8479156e-002
-6.7298479e-002
-8.1485055e-002
-1.1987479e-001
-1.5730457e-001
-1.8704957e-001
-1.9432487e-001
-1.8213139e-001
-1.3856725e-001
-7.3850408e-002
-9.4058514e-003
5.2366070e-002
6.5069303e-002
5.1874239e-002
1.9094560e-002
-2.0881373e-002
-5.9810303e-002
-9.8727435e-002
-1.5489732e-001
-2.1443082e-001
-2.5007510e-001
-2.7379751e-001
-2.7494845e-001
-2.7665028e-001
-3.0822226e-001
-3.5255942e-001
-4.0694171e-001
-4.5314434e-001
-4.7585121e-001
-4.8057085e-001
-4.6637622e-001
-4.3161279e-001
-3.7623730e-001
-3.1935444e-001
-2.6717326e-001
-2.6106662e-001
-2.9645443e-001
-3.4128961e-001
-3.8630423e-001
-3.9792675e-001
-3.8772961e-001
-3.8952106e-001
-3.9991680e-001
-4.1469619e-001
-4.3132821e-001
-4.0510958e-001
-3.6072856e-001
-2.9884118e-001
-2.3594609e-001
-2.1352260e-001
-2.1856029e-001
-2.7636257e-001
-3.5634753e-001
-4.4433817e-001
-5.2892244e-001
-5.9812826e-001
-6.4176595e-001
-6.4649183e-001
-5.9581745e-001
-4.8018938e-001
-3.5943398e-001
-2.5933680e-001
-2.5175983e-001
-3.3718380e-001
-4.6163747e-001
-5.9885806e-001
-6.9219059e-001
-7.4858844e-001
-7.4548751e-001
-7.0649642e-001
-6.3189518e-001
-5.3869712e-001
-4.8639205e-001
-4.5728165e-001
-4.8883179e-001
-5.4521507e-001
-5.6519485e-001
-5.5198920e-001
-4.4839817e-001
-2.9811358e-001
-1.2676072e-001
1.5660308e-002
5.1980857e-002
7.9089971e-003
-1.1380922e-001
-2.5525767e-001
-3.7655914e-001
-4.6137851e-001
-5.0330818e-001
-5.0683206e-001
-4.8145324e-001
-4.2546400e-001
-3.4664330e-001
-2.7564818e-001
-2.1655926e-001
-1.7786236e-001
-1.5317430e-001
-1.0619514e-001
-4.2671561e-002
-1.0484504e-002
-7.5217034e-004
-1.9806489e-002
-5.1429398e-002
-3.4389459e-002
1.5096251e-002
1.0438925e-001
2.1825743e-001
3.4686619e-001
4.6246761e-001
5.0923330e-001
4.8704800e-001
3.7560144e-001
2.3324220e-001
1.1309208e-001
2.7150696e-002
-7.5240284e-002
-1.5479401e-001
-1.7356239e-001
-9.2964545e-002
8.4226243e-002
2.6244363e-001
4.0913394e-001
4.0828434e-001
2.7286083e-001
1.2913984e-001
2.8075315e-003
3.2137599e-002
1.8038785e-001
2.9279941e-001
3.6398378e-001
2.5240919e-001
2.7861778e-002
-1.2209711e-001
-1.7549381e-001
7.5303465e-003
3.6764622e-001
9.3344843e-001
1.5715129e+000
2.0469320e+000
2.4252241e+000
2.7842159e+000
3.3239763e+000
4.2289281e+000
5.7308912e+000
7.9339733e+000
1.0922365e+001
1.4614285e+001
1.8305130e+001
2.1683462e+001
2.4742744e+001
2.7553543e+001
3.0988522e+001
3.5116459e+001
4.0058876e+001
4.5631359e+001
5.0552017e+001
5.4855228e+001
5.9080887e+001
6.3323330e+001
6.8159065e+001
7.3400253e+001
7.8378899e+001
8.3060333e+001
8.7267670e+001
9.1026581e+001
9.4358505e+001
9.7231316e+001
9.9602501e+001
1.0134300e+002
1.0233853e+002
1.0227623e+002
1.0094608e+002
9.8779999e+001
9.6224159e+001
9.3283722e+001
9.0020126e+001
8.6079857e+001
8.1401108e+001
7.6647209e+001
7.2053108e+001
6.7780678e+001
6.3823128e+001
5.9716080e+001
5.5408585e+001
5.1128212e+001
4.6902718e+001
4.2918571e+001
3.9202816e+001
3.5922653e+001
3.3093990e+001
3.0709532e+001
2.8743921e+001
2.7043877e+001
2.5617718e+001
2.4437092e+001
2.3512808e+001
2.2820999e+001
2.2355543e+001
2.2074520e+001
2.1953257e+001
2.1944748e+001
2.2022692e+001
2.2157646e+001
2.2349230e+001
2.2593983e+001
2.2967699e+001
2.3496828e+001
2.4211843e+001
2.5111954e+001
2.6112091e+001
2.7189758e+001
2.8302963e+001
2.9452053e+001
3.0842403e+001
3.2572620e+001
3.5215317e+001
3.8809471e+001
4.2628101e+001
4.6463039e+001
4.9445744e+001
5.1634987e+001
5.3596535e+001
5.5352116e+001
5.7018440e+001
5.8366619e+001
5.9074615e+001
5.9035458e+001
5.8235764e+001
5.6971252e+001
5.5608376e+001
5.4215481e+001
5.2848351e+001
5.1390118e+001
4.9765587e+001
4.7809845e+001
4.5423283e+001
4.2939831e+001
4.0459167e+001
3.8112560e+001
3.5951511e+001
3.3373684e+001
3.0233320e+001
2.7002920e+001
2.3728857e+001
2.0941128e+001
1.8697950e+001
1.6506001e+001
1.4361080e+001
1.2191132e+001
1.0007306e+001
7.8504701e+000
5.7768149e+000
3.8789339e+000
2.2676671e+000
1.0646638e+000
3.1266740e-001
5.9682712e-002
3.7302983e-001
1.1717708e+000
2.1202519e+000
3.0098131e+000
3.7439415e+000
4.2433567e+000
4.6937013e+000
5.1694412e+000
5.6838231e+000
6.2510400e+000
6.6842074e+000
6.8927269e+000
6.9394188e+000
6.7587867e+000
6.5435181e+000
6.2844939e+000
6.0355721e+000
5.7962785e+000
5.5400810e+000
5.2373900e+000
4.8167367e+000
4.2667832e+000
3.6524665e+000
3.0244539e+000
2.5145121e+000
2.1584725e+000
1.9861821e+000
1.9691857e+000
2.0546813e+000
2.1754770e+000
2.2588830e+000
2.3333504e+000
2.4257433e+000
2.5777023e+000
2.8387144e+000
3.1757603e+000
3.6081645e+000
4.0761561e+000
4.5823298e+000
5.0653143e+000
5.4953094e+000
5.8482747e+000
6.0612664e+000
6.1673126e+000
6.0970449e+000
5.8961015e+000
5.5176072e+000
5.0786490e+000
4.5797033e+000
4.1024971e+000
3.6610608e+000
3.2630758e+000
2.9149940e+000
2.6109846e+000
2.3221793e+000
1.9952345e+000
1.6214027e+000
1.1808364e+000
7.4386370e-001
3.9203757e-001
1.3651109e-001
3.7684482e-002
2.8527088e-002
1.1630327e-001
2.4170965e-001
4.5087522e-001
6.9584888e-001
9.9882901e-001
1.2809929e+000
1.5114143e+000
1.6874839e+000
1.7642063e+000
1.8375111e+000
1.9131972e+000
2.0320792e+000
2.2226100e+000
2.4726453e+000
2.8004513e+000
3.1662757e+000
3.5589199e+000
3.9162509e+000
4.2205882e+000
4.4468765e+000
4.6004000e+000
4.6933594e+000
4.7395263e+000
4.7446780e+000
4.7266326e+000
4.6911130e+000
4.6527572e+000
4.6208143e+000
4.5909405e+000
4.5618949e+000
4.5326324e+000
4.5021591e+000
4.4759488e+000
4.4603543e+000
4.4458814e+000
4.4352989e+000
4.4382901e+000
4.4717550e+000
4.5362902e+000
4.6522179e+000
4.7794313e+000
4.9191937e+000
5.0492015e+000
5.1653004e+000
5.2711897e+000
5.3651214e+000
5.4496284e+000
5.5283217e+000
5.6117702e+000
5.7012329e+000
5.8020024e+000
5.9042501e+000
5.9921570e+000
6.0623322e+000
6.0910511e+000
6.0937915e+000
6.0488586e+000
5.9738932e+000
5.8297877e+000
5.6469026e+000
5.3607883e+000
5.0448170e+000
4.6506324e+000
4.2395515e+000
3.7883611e+000
3.3282139e+000
2.8532572e+000
2.3944428e+000
1.9681822e+000
1.5805811e+000
1.2495029e+000
9.4874203e-001
6.8293321e-001
4.2808288e-001
1.8760197e-001
-3.1983182e-002
-2.2324213e-001
-3.5684496e-001
-4.4160709e-001
-4.5839110e-001
-4.3759221e-001
-3.8478956e-001
-3.1874439e-001
-2.4127671e-001
-1.4405173e-001
2.3207337e-002
2.2731400e-001
5.4205441e-001
8.6581653e-001
1.1971830e+000
1.4898720e+000
1.6604657e+000
1.7773411e+000
1.7621570e+000
1.7207137e+000
1.6282711e+000
1.5333142e+000
1.4305489e+000
1.3036634e+000
1.1404320e+000
9.4371438e-001
7.1394825e-001
4.9155492e-001
2.8523237e-001
1.3357849e-001
3.2622181e-002
1.0696277e-002
4.2345084e-002
1.5717304e-001
3.0817071e-001
4.8213148e-001
6.5172875e-001
7.6565951e-001
8.5863847e-001
8.9286399e-001
9.2716330e-001
9.9099642e-001
1.0696197e+000
1.2076069e+000
1.3453414e+000
1.4803286e+000
1.5975300e+000
1.6689794e+000
1.7178975e+000
1.7219489e+000
1.7099335e+000
1.6742572e+000
1.6443189e+000
1.6249040e+000
1.6326976e+000
1.6703618e+000
1.7352036e+000
1.8218035e+000
1.9170389e+000
2.0072937e+000
2.0268269e+000
1.9955357e+000
1.8277948e+000
1.6142274e+000
1.3901244e+000
1.1817714e+000
1.1042050e+000
1.0537480e+000
1.0795978e+000
1.1081889e+000
1.1300374e+000
1.1479458e+000
1.1474987e+000
1.1360854e+000
1.0889640e+000
1.0271990e+000
9.3092358e-001
8.3787525e-001
7.5259316e-001
6.8826967e-001
6.5479344e-001
6.3036799e-001
6.1311257e-001
5.6504393e-001
4.8391706e-001
3.4161031e-001
1.5572512e-001
-4.8883349e-002
-2.5691539e-001
-3.9828163e-001
-5.0586313e-001
-5.2521712e-001
-5.2011138e-001
-5.0660962e-001
-4.9862641e-001
-5.6966597e-001
-6.4909750e-001
-7.4952978e-001
-8.3429825e-001
-8.1042224e-001
-7.6437396e-001
-6.2176853e-001
-4.8644209e-001
-3.7550205e-001
-2.9487979e-001
-2.8370684e-001
-2.7945858e-001
-2.8741294e-001
-3.0131793e-001
-3.2509542e-001
-3.8278368e-001
-4.7526115e-001
-5.6497395e-001
-6.4979440e-001
-6.8574303e-001
-6.9021755e-001
-6.6042346e-001
-6.1526608e-001
-5.7225537e-001
-5.3005064e-001
-4.8879120e-001
-4.4648728e-001
-3.7520865e-001
-3.0052799e-001
-2.2754803e-001
-1.5257756e-001
-5.0078250e-002
2.5878176e-003
8.0513090e-002
2.3389439e-001
3.9785880e-001
5.4626656e-001
6.4925355e-001
7.5240552e-001
8.5546744e-001
9.3977576e-001
9.9297535e-001
9.8901302e-001
9.1518444e-001
8.1006670e-001
6.7616576e-001
5.5914515e-001
4.5422524e-001
3.7010446e-001
2.9760459e-001
2.7526525e-001
2.7312106e-001
3.7408358e-001
5.0231934e-001
6.3963729e-001
7.7840292e-001
8.6431998e-001
