##TITLE=Methyl Ethyl Ketone
##JCAMP-DX=4.24
##DATA TYPE=INFRARED SPECTRUM
##XUNITS=cm-1
##YUNITS=Absorbance
##FIRSTX=900
##LASTX=2300
##XYDATA=(X++(Y..Y))
2296 -0.0074204998
2294 -0.0075780745
2292 -0.0077357488
2290 -0.0078934226
2288 -0.0080510974
2286 -0.0082087722
2284 -0.0083664469
2282 -0.0085241217
2280 -0.0086816968
2278 -0.008839272
2276 -0.0089970427
2274 -0.0091553098
2272 -0.0093124034
2270 -0.0094679082
2268 -0.0096276002
2266 -0.0097929491
2264 -0.0099431686
2262 -0.010071882
2260 -0.010257192
2258 -0.010521753
2256 -0.0105766
2254 -0.01033647
2252 -0.010876242
2250 -0.012516866
2248 -0.011256698
2246 -0.0046229642
2244 -0.001119016
2242 -0.011124545
2240 -0.040194679
2238 -0.089502573
2236 -0.14814724
2234 -0.20387506
2232 -0.25284234
2230 -0.29348922
2228 -0.3235808
2226 -0.34381101
2224 -0.36755621
2222 -0.40697882
2220 -0.4543246
2218 -0.49420041
2216 -0.5044049
2214 -0.46913454
2212 -0.40652439
2210 -0.34274223
2208 -0.29492423
2206 -0.27203992
2204 -0.26157007
2202 -0.24915734
2200 -0.23959182
2198 -0.2429025
2196 -0.26582
2194 -0.30960593
2192 -0.35778862
2190 -0.39373076
2188 -0.42255223
2186 -0.45573688
2184 -0.5021444
2182 -0.56445378
2180 -0.62420082
2178 -0.66052985
2176 -0.67056972
2174 -0.65893471
2172 -0.63600415
2170 -0.61092162
2168 -0.58056605
2166 -0.53972167
2164 -0.49156773
2162 -0.44348195
2160 -0.4081648
2158 -0.39568344
2156 -0.39830703
2154 -0.40206167
2152 -0.39257142
2150 -0.36041245
2148 -0.3163783
2146 -0.27720714
2144 -0.25508204
2142 -0.257696
2140 -0.28157055
2138 -0.3182103
2136 -0.3545717
2134 -0.37776634
2132 -0.38163725
2130 -0.36646551
2128 -0.3488504
2126 -0.34808299
2124 -0.37044418
2122 -0.41421819
2120 -0.46496326
2118 -0.50541031
2116 -0.52522653
2114 -0.51944208
2112 -0.49426004
2110 -0.46045342
2108 -0.43095803
2106 -0.41627914
2104 -0.41410542
2102 -0.41683826
2100 -0.41532061
2098 -0.40097094
2096 -0.36938858
2094 -0.32048348
2092 -0.26531395
2090 -0.21864644
2088 -0.19303869
2086 -0.1948045
2084 -0.20855586
2082 -0.21152772
2080 -0.1857796
2078 -0.12138589
2076 -0.032483142
2074 0.058083266
2072 0.13109304
2070 0.17435373
2068 0.19723099
2066 0.21617472
2064 0.24090137
2062 0.27470812
2060 0.30731055
2058 0.3263486
2056 0.333722
2054 0.33798686
2052 0.34953815
2050 0.37549525
2048 0.4071759
2046 0.43208215
2044 0.4498702
2042 0.4674142
2040 0.49864349
2038 0.55578607
2036 0.63231701
2034 0.71357667
2032 0.78557259
2030 0.83873159
2028 0.87911063
2026 0.91887295
2024 0.96700239
2022 1.0274583
2020 1.0908617
2018 1.1446736
2016 1.18906
2014 1.2311399
2012 1.2809716
2010 1.3472
2008 1.426711
2006 1.5117065
2004 1.5975628
2002 1.680359
2000 1.7513806
1998 1.8001981
1996 1.8186929
1994 1.8040241
1992 1.7698646
1990 1.7380227
1988 1.732414
1986 1.7706943
1984 1.8415732
1982 1.9210123
1980 1.9890188
1978 2.0353644
1976 2.0777173
1974 2.14217
1972 2.2350497
1970 2.3473954
1968 2.4514542
1966 2.5168829
1964 2.5389543
1962 2.5291603
1960 2.510608
1958 2.5072896
1956 2.5256443
1954 2.5607216
1952 2.599391
1950 2.6266675
1948 2.6349797
1946 2.624325
1944 2.611068
1942 2.6165667
1940 2.6484337
1938 2.7022128
1936 2.7548885
1934 2.7789474
1932 2.7664459
1930 2.7236974
1928 2.6686566
1926 2.6225793
1924 2.5976689
1922 2.5984163
1920 2.6198831
1918 2.652477
1916 2.6858699
1914 2.7118151
1912 2.7316983
1910 2.7520823
1908 2.7790797
1906 2.8156965
1904 2.8534119
1902 2.8777401
1900 2.8745942
1898 2.8346987
1896 2.7660573
1894 2.6875138
1892 2.6244042
1890 2.6004319
1888 2.6199744
1886 2.6727893
1884 2.7330723
1882 2.7709835
1880 2.7738068
1878 2.7394149
1876 2.6662302
1874 2.5530293
1872 2.4028902
1870 2.2285931
1868 2.07407
1866 1.9925779
1864 1.9977491
1862 2.071187
1860 2.1654897
1858 2.2260525
1856 2.2318027
1854 2.183111
1852 2.0782721
1850 1.9160659
1848 1.713048
1846 1.5025071
1844 1.3418897
1842 1.2890211
1840 1.3418423
1838 1.4551566
1836 1.5633043
1834 1.602366
1832 1.5547886
1830 1.4414705
1828 1.3186129
1826 1.2524285
1824 1.2688949
1822 1.3576509
1820 1.47054
1818 1.5442702
1816 1.5436715
1814 1.4636074
1812 1.3408577
1810 1.2332827
1808 1.1790937
1806 1.18756
1804 1.2098743
1802 1.1674701
1800 1.0154119
1798 0.75220478
1796 0.45190787
1794 0.22932908
1792 0.1669392
1790 0.29633236
1788 0.54435641
1786 0.77898788
1784 0.91131848
1782 0.90210718
1780 0.76408827
1778 0.54211497
1776 0.28487915
1774 0.041548174
1772 -0.13065714
1770 -0.18204497
1768 -0.12428378
1766 -0.014609259
1764 0.083894558
1762 0.11466037
1760 0.043492571
1758 -0.1377476
1756 -0.39026514
1754 -0.65283459
1752 -0.90773499
1750 -1.168743
1748 -1.4279683
1746 -1.6586179
1744 -1.8424765
1742 -1.9726046
1740 -2.0520332
1738 -2.0816934
1736 -2.0246801
1734 -1.8264166
1732 -1.4866991
1730 -1.0581121
1728 -0.62877518
1726 -0.29540864
1724 -0.098817155
1722 -0.021375244
1720 0.013382742
1718 0.12156603
1716 0.42416298
1714 1.0057334
1712 1.7888925
1710 2.5919561
1708 3.3355942
1706 4.0605779
1704 4.9028034
1702 6.0893764
1700 7.9940743
1698 10.984276
1696 14.885571
1694 19.08456
1692 23.022161
1690 26.359413
1688 29.252909
1686 32.231777
1684 35.764126
1682 40.074924
1680 44.76292
1678 49.045383
1676 52.7001
1674 56.078754
1672 59.659321
1670 63.834938
1668 68.537453
1666 73.329552
1664 77.876709
1662 82.023117
1660 85.718819
1658 88.979042
1656 91.821915
1654 94.256844
1652 96.294937
1650 97.934624
1648 99.100174
1646 99.669037
1644 99.615616
1642 98.996346
1640 97.795578
1638 95.92205
1636 93.304802
1634 89.94278
1632 86.017326
1630 81.834976
1628 77.54937
1626 73.144005
1624 68.597076
1622 63.932896
1620 59.270214
1618 54.799831
1616 50.660885
1614 46.922539
1612 43.62122
1610 40.76609
1608 38.31144
1606 36.168613
1604 34.27684
1602 32.615852
1600 31.182726
1598 29.979944
1596 28.993999
1594 28.193026
1592 27.551617
1590 27.054834
1588 26.694174
1586 26.463692
1584 26.34116
1582 26.293671
1580 26.313826
1578 26.431198
1576 26.712914
1574 27.242346
1572 28.040091
1570 29.049089
1568 30.167639
1566 31.275028
1564 32.297306
1562 33.252171
1560 34.347816
1558 35.930977
1556 38.134758
1554 40.790691
1552 43.504005
1550 45.7649
1548 47.383484
1546 48.533962
1544 49.364891
1542 49.910725
1540 50.183338
1538 50.195217
1536 49.953743
1534 49.463634
1532 48.747852
1530 47.841785
1528 46.737743
1526 45.384399
1524 43.765965
1522 41.930779
1520 40.007011
1518 38.181717
1516 36.546772
1514 35.043427
1512 33.47644
1510 31.559706
1508 29.162075
1506 26.386307
1504 23.499538
1502 20.864771
1500 18.637789
1498 16.69408
1496 14.855286
1494 12.968227
1492 10.983843
1490 8.9761314
1488 7.0499129
1486 5.3107877
1484 3.8315921
1482 2.6352415
1480 1.6882794
1478 0.92102349
1476 0.36737612
1474 0.18180999
1472 0.43326896
1470 1.0389026
1468 1.8363968
1466 2.6201015
1464 3.26598
1462 3.7682788
1460 4.1474762
1458 4.4302197
1456 4.6722202
1454 4.953887
1452 5.297204
1450 5.6421909
1448 5.9251366
1446 6.1034503
1444 6.1530528
1442 6.0661516
1440 5.8265982
1438 5.4083529
1436 4.8154697
1434 4.1013284
1432 3.3590822
1430 2.7101669
1428 2.217592
1426 1.8563914
1424 1.5882857
1422 1.389999
1420 1.2778497
1418 1.312837
1416 1.5326772
1414 1.9234309
1412 2.4335093
1410 2.9799128
1408 3.5058732
1406 4.0012999
1404 4.4594569
1402 4.8644133
1400 5.2019162
1398 5.4663553
1396 5.6750212
1394 5.8706012
1392 6.0725675
1390 6.2568927
1388 6.3837538
1386 6.4071751
1384 6.2992287
1382 6.0600381
1380 5.6928024
1378 5.2003784
1376 4.6103458
1374 3.9884505
1372 3.409884
1370 2.9405892
1368 2.5833178
1366 2.2511442
1364 1.86498
1362 1.3976486
1360 0.8863802
1358 0.44267678
1356 0.14718793
1354 0.0032666121
1352 -0.020830708
1350 0.017269187
1348 0.067918785
1346 0.10380864
1344 0.10504
1342 0.059793275
1340 -0.017192498
1338 -0.073571116
1336 -0.062913112
1334 0.032683253
1332 0.19405845
1330 0.35650408
1328 0.47318503
1326 0.54491091
1324 0.59027016
1322 0.63797349
1320 0.70945567
1318 0.80937797
1316 0.93433297
1314 1.0736152
1312 1.2146709
1310 1.3452647
1308 1.4565809
1306 1.5460714
1304 1.6154486
1302 1.67169
1300 1.7227615
1298 1.7759682
1296 1.8344144
1294 1.8945582
1292 1.9539431
1290 2.0155869
1288 2.0881639
1286 2.1870608
1284 2.3221645
1282 2.4901516
1280 2.6793389
1278 2.8696418
1276 3.0458057
1274 3.2057431
1272 3.3602681
1270 3.5370932
1268 3.763798
1266 4.0593572
1264 4.4310937
1262 4.8684502
1260 5.3589559
1258 5.8944063
1256 6.4717426
1254 7.0953341
1252 7.7706499
1250 8.500906
1248 9.279974
1246 10.0839
1244 10.879157
1242 11.623541
1240 12.286446
1238 12.858143
1236 13.331928
1234 13.696185
1232 13.92548
1230 13.978666
1228 13.830332
1226 13.49245
1224 12.994599
1222 12.381588
1220 11.694752
1218 10.96281
1216 10.211229
1214 9.4670944
1212 8.7552071
1210 8.0942984
1208 7.4918752
1206 6.9344363
1204 6.3979158
1202 5.8479004
1200 5.2562656
1198 4.6144691
1196 3.9288926
1194 3.2268598
1192 2.5373616
1190 1.8821719
1188 1.2797853
1186 0.74533284
1184 0.29535937
1182 -0.050705671
1180 -0.28112325
1178 -0.40300655
1176 -0.43184599
1174 -0.3914308
1172 -0.3048217
1170 -0.18926875
1168 -0.061420474
1166 0.060794197
1164 0.16278209
1162 0.2384183
1160 0.28641009
1158 0.31146038
1156 0.31674871
1154 0.2990697
1152 0.25613222
1150 0.19156215
1148 0.1137422
1146 0.038723573
1144 -0.016302662
1142 -0.036596298
1140 -0.015512023
1138 0.037190899
1136 0.11804654
1134 0.2467778
1132 0.44092262
1130 0.6995821
1128 1.0168141
1126 1.3850836
1124 1.7960712
1122 2.2393379
1120 2.6966839
1118 3.1328931
1116 3.5162158
1114 3.8347709
1112 4.0943189
1110 4.3310332
1108 4.5818334
1106 4.8668599
1104 5.1932416
1102 5.5464802
1100 5.9065914
1098 6.254323
1096 6.5763998
1094 6.8764729
1092 7.1664457
1090 7.4692702
1088 7.8035417
1086 8.1690483
1084 8.5558567
1082 8.9402609
1080 9.2954082
1078 9.5957928
1076 9.8211155
1074 9.9660053
1072 10.038401
1070 10.07248
1068 10.102529
1066 10.150743
1064 10.22108
1062 10.272407
1060 10.255114
1058 10.130356
1056 9.8810768
1054 9.5440445
1052 9.1700716
1050 8.8073044
1048 8.487978
1046 8.2015715
1044 7.9293518
1042 7.6580291
1040 7.3805337
1038 7.1026678
1036 6.8278699
1034 6.543519
1032 6.2324448
1030 5.8758912
1028 5.4640374
1026 5.014339
1024 4.5582547
1022 4.1472297
1020 3.8217559
1018 3.5730753
1016 3.3683627
1014 3.1398034
1012 2.8315628
1010 2.4515023
1008 2.03212
1006 1.6323099
1004 1.3047528
1002 1.0618118
1000 0.89862305
998 0.78874421
996 0.69873786
994 0.59093618
992 0.43535918
990 0.23036899
988 -0.0098537058
986 -0.24290158
984 -0.4239333
982 -0.52330917
980 -0.52658957
978 -0.45661229
976 -0.34081486
974 -0.19138254
972 -0.015116498
970 0.18620695
968 0.40507072
966 0.61079651
964 0.77579737
962 0.90238535
960 0.99866676
958 1.0670209
956 1.1007186
954 1.0668647
952 0.93728077
950 0.72428632
948 0.46044105
946 0.21450657
944 0.052963633
942 0.0021454096
940 0.070501313
938 0.2379472
936 0.47119743
934 0.71493584
932 0.914855
930 1.0406811
928 1.0796795
926 1.0609864
924 1.0286299
922 1.0417924
920 1.1446321
918 1.309816
916 1.4879999
914 1.6125085
912 1.6357828
910 1.599309
908 1.5605109
906 1.550375
904 1.5746474
902 1.5650779
900 1.4666668
898 1.3503549
896 1.3189
