Image.
>Pix99999.
  .
5555
5555
2300
900
5555
2
1
0
701
5555
1.9723000e-002
2.0142401e-002
2.0561801e-002
2.0980204e-002
2.1399600e-002
2.1818006e-002
2.2237400e-002
2.2656800e-002
2.3075212e-002
2.3494599e-002
2.3914000e-002
2.4332415e-002
2.4751801e-002
2.5171200e-002
2.5589621e-002
2.6008999e-002
2.6428400e-002
2.6846824e-002
2.7266201e-002
2.7684627e-002
2.8104002e-002
2.8523399e-002
2.8941831e-002
2.9361200e-002
2.9780600e-002
3.0199036e-002
2.1776222e-003
4.7666421e-003
3.7573881e-003
2.5546223e-002
5.0742086e-002
7.2502971e-002
9.2598245e-002
8.0982067e-002
6.4753816e-002
2.3932550e-002
-1.5100936e-002
-4.0204763e-002
-5.6668930e-002
-4.9061257e-002
-3.6098313e-002
-1.4406570e-002
4.4487137e-003
1.7831443e-002
2.2941109e-002
1.8152814e-002
7.4424911e-003
-8.3791818e-003
-2.3991594e-002
-3.9205372e-002
-4.3861713e-002
-4.2443182e-002
-3.1792033e-002
-1.7263949e-002
-9.2897704e-003
-3.5305473e-003
-4.1314880e-003
-6.1642434e-003
-1.2906445e-002
-2.0510709e-002
-4.2035542e-002
-6.5297261e-002
-9.3770631e-002
-1.2090090e-001
-1.3744920e-001
-1.4965592e-001
-1.4976372e-001
-1.4979565e-001
-1.5272623e-001
-1.6480364e-001
-1.9365701e-001
-2.3288751e-001
-2.8465316e-001
-3.3295307e-001
-3.7587559e-001
-3.9961892e-001
-4.0688634e-001
-4.0276408e-001
-3.9189035e-001
-3.8584492e-001
-3.8280430e-001
-3.7825426e-001
-3.7297672e-001
-3.5480076e-001
-3.3254319e-001
-3.0110070e-001
-2.6759660e-001
-2.5180423e-001
-2.4069898e-001
-2.6460922e-001
-2.9579228e-001
-3.4411561e-001
-3.9459285e-001
-4.4368532e-001
-4.8730317e-001
-5.1499557e-001
-5.3135699e-001
-5.2787966e-001
-5.2176124e-001
-5.1610202e-001
-5.2192712e-001
-5.4265153e-001
-5.6966645e-001
-6.0094172e-001
-6.2676394e-001
-6.4764553e-001
-6.7262405e-001
-7.0079368e-001
-7.3600477e-001
-7.7466691e-001
-8.0342448e-001
-8.2787794e-001
-8.3190000e-001
-8.2944107e-001
-8.0623990e-001
-7.7841169e-001
-7.7028096e-001
-7.7043784e-001
-8.1728637e-001
-8.7239170e-001
-9.2235661e-001
-9.6081841e-001
-9.6131176e-001
-9.5224279e-001
-9.3747836e-001
-9.3068427e-001
-9.4137383e-001
-9.5988029e-001
-9.8539299e-001
-1.0115104e+000
-1.0370643e+000
-1.0617963e+000
-1.0857120e+000
-1.1043750e+000
-1.1187774e+000
-1.1198665e+000
-1.1125709e+000
-1.0947340e+000
-1.0720131e+000
-1.0694036e+000
-1.0756600e+000
-1.1133552e+000
-1.1617194e+000
-1.1991521e+000
-1.2321731e+000
-1.2404064e+000
-1.2421454e+000
-1.2411571e+000
-1.2372514e+000
-1.2227612e+000
-1.2055072e+000
-1.1875260e+000
-1.1884537e+000
-1.2333256e+000
-1.3003340e+000
-1.3885964e+000
-1.4625343e+000
-1.5093715e+000
-1.5353020e+000
-1.5442189e+000
-1.5445514e+000
-1.5401421e+000
-1.5209923e+000
-1.4911282e+000
-1.4663182e+000
-1.4460964e+000
-1.4585880e+000
-1.4883419e+000
-1.5184960e+000
-1.5479020e+000
-1.5624200e+000
-1.5719793e+000
-1.5902154e+000
-1.6111346e+000
-1.6255425e+000
-1.6355751e+000
-1.6340823e+000
-1.6301103e+000
-1.6338980e+000
-1.6419753e+000
-1.6561600e+000
-1.6709025e+000
-1.6816300e+000
-1.6835830e+000
-1.6716795e+000
-1.6386600e+000
-1.5821868e+000
-1.5169115e+000
-1.4495361e+000
-1.4092541e+000
-1.3952714e+000
-1.4023347e+000
-1.4208223e+000
-1.4511257e+000
-1.4871012e+000
-1.5449142e+000
-1.6144921e+000
-1.6653705e+000
-1.7073331e+000
-1.6906861e+000
-1.6496142e+000
-1.5863743e+000
-1.5203109e+000
-1.4956521e+000
-1.4979182e+000
-1.5499657e+000
-1.6181240e+000
-1.6792415e+000
-1.7204268e+000
-1.7203293e+000
-1.6847100e+000
-1.6076602e+000
-1.4972399e+000
-1.3558688e+000
-1.2378026e+000
-1.1636971e+000
-1.1695840e+000
-1.2490480e+000
-1.3448012e+000
-1.4370736e+000
-1.4962143e+000
-1.5291547e+000
-1.5233551e+000
-1.4937721e+000
-1.4265240e+000
-1.3380821e+000
-1.2755523e+000
-1.2276710e+000
-1.2205937e+000
-1.2294445e+000
-1.2027942e+000
-1.1514150e+000
-1.0491942e+000
-9.2538798e-001
-8.0807918e-001
-7.2076565e-001
-7.1227312e-001
-7.6223987e-001
-8.6701721e-001
-9.8099399e-001
-1.0709629e+000
-1.1206665e+000
-1.1235634e+000
-1.0958889e+000
-1.0507029e+000
-9.9012196e-001
-9.1921270e-001
-8.4622449e-001
-7.7265382e-001
-7.0573199e-001
-6.4387643e-001
-5.6685561e-001
-4.7996962e-001
-4.1725495e-001
-3.7263975e-001
-3.6531541e-001
-3.7791198e-001
-3.6773646e-001
-3.3773562e-001
-2.5519919e-001
-1.3410063e-001
3.2716282e-002
2.0302577e-001
3.0431953e-001
3.3276150e-001
2.6135901e-001
1.6161780e-001
1.0012954e-001
3.1786334e-002
-7.2026253e-002
-1.4975828e-001
-1.7106317e-001
-1.0691217e-001
3.9270133e-002
1.8177246e-001
2.9208606e-001
2.6971722e-001
1.2607862e-001
-2.0714603e-002
-1.4777327e-001
-1.3004699e-001
-1.3550706e-003
1.0701050e-001
1.8628477e-001
1.0708547e-001
-7.0716582e-002
-1.7896731e-001
-1.9694020e-001
3.6404282e-002
4.8767507e-001
1.1689935e+000
1.9302421e+000
2.5381250e+000
3.0493422e+000
3.5332701e+000
4.1910906e+000
5.2103763e+000
6.8432512e+000
9.2063656e+000
1.2420617e+001
1.6412001e+001
2.0410280e+001
2.4073524e+001
2.7348591e+001
3.0308914e+001
3.3857254e+001
3.8077553e+001
4.3125122e+001
4.8816563e+001
5.3776058e+001
5.8047615e+001
6.2162971e+001
6.6249405e+001
7.1077003e+001
7.6454132e+001
8.1773201e+001
8.6932808e+001
9.1591675e+001
9.5736404e+001
9.9298981e+001
1.0220400e+002
1.0434584e+002
1.0554040e+002
1.0560995e+002
1.0438703e+002
1.0184179e+002
9.8595642e+001
9.5220238e+001
9.1649651e+001
8.7875565e+001
8.3475945e+001
7.8349525e+001
7.3194374e+001
6.8249329e+001
6.3718479e+001
5.9592831e+001
5.5437561e+001
5.1189365e+001
4.7069427e+001
4.3093193e+001
3.9397686e+001
3.6000366e+001
3.3006111e+001
3.0426901e+001
2.8245462e+001
2.6445093e+001
2.4905273e+001
2.3640934e+001
2.2636623e+001
2.1900080e+001
2.1401001e+001
2.1115807e+001
2.0981153e+001
2.0965899e+001
2.1022980e+001
2.1163628e+001
2.1388771e+001
2.1723370e+001
2.2173399e+001
2.2778641e+001
2.3546886e+001
2.4452192e+001
2.5477518e+001
2.6557756e+001
2.7675079e+001
2.8826063e+001
3.0017094e+001
3.1446054e+001
3.3216442e+001
3.5961338e+001
3.9730156e+001
4.3774940e+001
4.7854782e+001
5.0958752e+001
5.3149467e+001
5.5068249e+001
5.6728035e+001
5.8245537e+001
5.9338680e+001
5.9613693e+001
5.9052258e+001
5.7774502e+001
5.6114067e+001
5.4473392e+001
5.2856007e+001
5.1262650e+001
4.9565281e+001
4.7681095e+001
4.5538288e+001
4.3080849e+001
4.0625858e+001
3.8278057e+001
3.6043041e+001
3.3947140e+001
3.1410366e+001
2.8286907e+001
2.5119732e+001
2.1962502e+001
1.9295921e+001
1.7176981e+001
1.5098572e+001
1.3056221e+001
1.0985511e+001
8.8997221e+000
6.8442321e+000
4.8850794e+000
3.1300421e+000
1.6861248e+000
6.6446394e-001
1.0332367e-001
3.8856760e-002
5.2883977e-001
1.4894235e+000
2.5687311e+000
3.5360470e+000
4.3143792e+000
4.8343177e+000
5.3171568e+000
5.8571053e+000
6.4489670e+000
7.1045003e+000
7.5657024e+000
7.7044010e+000
7.6444435e+000
7.3110228e+000
6.9687181e+000
6.6196966e+000
6.2983770e+000
6.0072956e+000
5.6950846e+000
5.3376298e+000
4.8800898e+000
4.3237028e+000
3.7456574e+000
3.1899822e+000
2.7578037e+000
2.4752522e+000
2.3564746e+000
2.3812313e+000
2.5072584e+000
2.6720943e+000
2.8078480e+000
2.9312825e+000
3.0611894e+000
3.2396491e+000
3.5130935e+000
3.8539476e+000
4.2784033e+000
4.7388000e+000
5.2408471e+000
5.7275000e+000
6.1726761e+000
6.5164189e+000
6.6754127e+000
6.6973052e+000
6.5024500e+000
6.1930971e+000
5.7328987e+000
5.2398973e+000
4.7182598e+000
4.2201543e+000
3.7576153e+000
3.3296261e+000
2.9426756e+000
2.5951040e+000
2.2602422e+000
1.8909631e+000
1.4827138e+000
1.0220522e+000
5.8216512e-001
2.5324172e-001
3.7078504e-002
-4.3976242e-003
3.7377171e-002
1.5761240e-001
3.0738607e-001
4.9875402e-001
7.2128606e-001
1.0026019e+000
1.2829428e+000
1.5509971e+000
1.7681937e+000
1.8886749e+000
1.9969380e+000
2.0947869e+000
2.2395465e+000
2.4611287e+000
2.7398307e+000
3.0915000e+000
3.4696279e+000
3.8639801e+000
4.2232690e+000
4.5279942e+000
4.7509251e+000
4.8949151e+000
4.9692187e+000
4.9952459e+000
4.9907861e+000
4.9691019e+000
4.9333005e+000
4.8902574e+000
4.8380203e+000
4.7884383e+000
4.7508531e+000
4.7228761e+000
4.7152286e+000
4.7112327e+000
4.7124858e+000
4.7141857e+000
4.7173371e+000
4.7272515e+000
4.7529130e+000
4.7938719e+000
4.8625698e+000
4.9465280e+000
5.0511432e+000
5.1606445e+000
5.2750168e+000
5.3902597e+000
5.5054479e+000
5.6180658e+000
5.7268434e+000
5.8290963e+000
5.9277616e+000
6.0283957e+000
6.1253500e+000
6.2049699e+000
6.2609167e+000
6.2585545e+000
6.2239089e+000
6.1361489e+000
6.0240507e+000
5.8651638e+000
5.6696730e+000
5.3703074e+000
5.0278020e+000
4.5701022e+000
4.0963469e+000
3.5869980e+000
3.0899880e+000
2.6211801e+000
2.1833735e+000
1.8022586e+000
1.4631009e+000
1.1843532e+000
9.3437862e-001
7.1756279e-001
5.1186156e-001
3.1976616e-001
1.4452393e-001
-1.0949008e-002
-1.3338095e-001
-2.2781263e-001
-2.8323931e-001
-3.1044358e-001
-2.9179966e-001
-2.4169943e-001
-1.2411799e-001
2.8091818e-002
2.5946441e-001
5.1182002e-001
8.0542523e-001
1.0922800e+000
1.3422173e+000
1.5665572e+000
1.7107222e+000
1.8247783e+000
1.8634410e+000
1.8752005e+000
1.8311965e+000
1.7618014e+000
1.6474607e+000
1.5010692e+000
1.3095464e+000
1.0913361e+000
8.4637392e-001
6.0471910e-001
3.7389809e-001
1.8763363e-001
4.5756049e-002
-1.5581172e-002
-1.9648403e-002
7.7242605e-002
2.2237042e-001
4.1820675e-001
6.2460852e-001
8.1408846e-001
9.8973262e-001
1.1079960e+000
1.2092953e+000
1.2485456e+000
1.2821423e+000
1.2974319e+000
1.3242300e+000
1.3883514e+000
1.4643800e+000
1.5676320e+000
1.6555961e+000
1.7116683e+000
1.7445681e+000
1.7423428e+000
1.7406162e+000
1.7411520e+000
1.7549721e+000
1.7821885e+000
1.8147807e+000
1.8476683e+000
1.8539512e+000
1.8377697e+000
1.7735330e+000
1.6860843e+000
1.5867407e+000
1.4855382e+000
1.3997091e+000
1.3167204e+000
1.2314936e+000
1.1467681e+000
1.0684108e+000
9.9526668e-001
9.5423341e-001
9.1611004e-001
8.9001417e-001
8.5637403e-001
7.9863358e-001
7.3608160e-001
6.6315895e-001
6.0191929e-001
5.6229329e-001
5.2610928e-001
4.9216175e-001
4.3211600e-001
3.3955091e-001
2.1419087e-001
5.9484638e-002
-1.0157818e-001
-2.6494485e-001
-4.0803990e-001
-5.3733981e-001
-6.3213891e-001
-7.0962507e-001
-7.4282914e-001
-7.6281118e-001
-7.6816612e-001
-7.7362186e-001
-8.0868399e-001
-8.4755224e-001
-9.0233010e-001
-9.5283103e-001
-9.7308493e-001
-9.8448664e-001
-9.5696425e-001
-9.2604828e-001
-8.8484806e-001
-8.4447503e-001
-8.0612069e-001
-7.6921189e-001
-7.3547190e-001
-7.1591961e-001
-7.1562642e-001
-7.2412318e-001
-7.4020541e-001
-7.2979778e-001
-6.9764739e-001
-6.5207201e-001
-6.0040796e-001
-5.8909249e-001
-5.9631741e-001
-6.1119264e-001
-6.2546712e-001
-5.7341695e-001
-5.0590324e-001
-4.0749434e-001
-3.0640918e-001
-2.2950579e-001
-1.5175402e-001
-4.9695428e-002
1.9366965e-003
6.0265668e-002
1.7542611e-001
3.0046591e-001
4.2475685e-001
5.4705751e-001
6.7259943e-001
8.0446184e-001
9.1389775e-001
9.8666823e-001
1.0143584e+000
9.8701864e-001
9.4366938e-001
8.8556588e-001
8.3902973e-001
8.0076844e-001
7.7821916e-001
7.6437092e-001
7.7052206e-001
7.8498703e-001
8.3355093e-001
8.9166385e-001
1.0160866e+000
1.1511859e+000
1.2811000e+000
