Image.
>Pix99999.
  .
5555
5555
2300
900
5555
2
1
0
701
5555
2.4251999e-002
2.4756279e-002
2.5260556e-002
2.5764836e-002
2.6270108e-002
2.6774392e-002
2.7278671e-002
2.7782951e-002
2.8288217e-002
2.8791521e-002
2.9296771e-002
2.9803034e-002
3.0306360e-002
3.0804733e-002
3.1314783e-002
3.1841688e-002
3.2324959e-002
3.2744821e-002
3.3330806e-002
3.4148607e-002
3.4351684e-002
3.3689640e-002
3.5313636e-002
4.0160161e-002
3.6513258e-002
1.6658358e-002
3.1304732e-003
1.5145178e-002
2.4408920e-002
-4.6849130e-003
-8.2912296e-002
-2.0288059e-001
-3.1292698e-001
-3.5947505e-001
-3.3218795e-001
-2.4082001e-001
-1.2487000e-001
-2.6461370e-002
3.6291782e-002
5.5903926e-002
3.8709398e-002
-4.0406473e-003
-5.7471894e-002
-1.0580879e-001
-1.3383794e-001
-1.3085079e-001
-1.0380943e-001
-6.5792985e-002
-3.2777131e-002
-1.7015800e-002
-1.2362642e-002
-6.6943527e-003
1.3037556e-002
5.5188097e-002
1.0826154e-001
1.5422522e-001
1.7412920e-001
1.5329301e-001
9.5147751e-002
1.3155014e-002
-6.2091380e-002
-9.7709864e-002
-7.3768713e-002
1.5508319e-002
1.3587072e-001
2.4106371e-001
2.8956231e-001
2.5325173e-001
1.5117349e-001
1.9941233e-002
-9.6606828e-002
-1.6208516e-001
-1.7905337e-001
-1.6486683e-001
-1.4257297e-001
-1.2949821e-001
-1.1307463e-001
-7.4797846e-002
-1.4977430e-002
5.3775169e-002
9.6767314e-002
8.1001222e-002
1.1877246e-002
-8.8212177e-002
-1.8452999e-001
-2.4603345e-001
-2.7339619e-001
-2.7913234e-001
-2.7623519e-001
-2.7281848e-001
-2.5768030e-001
-2.1652530e-001
-1.5198457e-001
-7.6563254e-002
-1.6656309e-002
1.5431800e-003
-2.6689865e-002
-9.4039880e-002
-1.7783780e-001
-2.5148544e-001
-2.9531714e-001
-2.9907310e-001
-2.7964962e-001
-2.6266754e-001
-2.6637068e-001
-2.9834449e-001
-3.3552811e-001
-3.4895831e-001
-3.3506101e-001
-3.0378380e-001
-2.7711299e-001
-2.7345657e-001
-2.7793840e-001
-2.6404631e-001
-2.1384446e-001
-1.2282193e-001
-2.5446948e-002
3.3536389e-002
3.2818504e-002
-3.0470910e-002
-1.2579063e-001
-2.1483007e-001
-2.8312683e-001
-3.3000386e-001
-3.6753553e-001
-4.0888250e-001
-4.5138559e-001
-4.8556352e-001
-5.0286371e-001
-4.9767888e-001
-4.7359413e-001
-4.3899330e-001
-4.0575555e-001
-3.8809180e-001
-4.0447229e-001
-4.6599850e-001
-5.4493922e-001
-5.9642440e-001
-5.7644999e-001
-4.6047986e-001
-3.0069000e-001
-1.7693201e-001
-1.3984506e-001
-2.1047606e-001
-3.4954861e-001
-4.9535644e-001
-6.0467070e-001
-6.4998311e-001
-6.2731647e-001
-5.4872012e-001
-4.5049787e-001
-3.7501034e-001
-3.4463245e-001
-3.6655256e-001
-4.2635280e-001
-5.0349021e-001
-5.9235191e-001
-6.9240808e-001
-7.9135871e-001
-8.6866426e-001
-8.9494717e-001
-8.4514648e-001
-7.2942728e-001
-5.7976311e-001
-4.4631618e-001
-3.7845978e-001
-3.8876182e-001
-4.6471965e-001
-5.6740117e-001
-6.5134692e-001
-6.9445139e-001
-6.9191378e-001
-6.5882361e-001
-6.1940968e-001
-5.9746933e-001
-6.1105001e-001
-6.5717816e-001
-7.2027296e-001
-7.7705014e-001
-8.0624557e-001
-8.0912369e-001
-7.9919487e-001
-7.9065764e-001
-7.9270661e-001
-7.9546368e-001
-7.7803534e-001
-7.1550059e-001
-5.9188914e-001
-4.3581903e-001
-2.9650560e-001
-2.0711657e-001
-1.8148644e-001
-1.9626108e-001
-2.1784724e-001
-2.5335667e-001
-3.2787502e-001
-4.3925479e-001
-5.6013775e-001
-6.2839472e-001
-5.7922351e-001
-4.1493285e-001
-1.8484078e-001
2.9132679e-002
1.4152838e-001
1.1708669e-001
-3.7824135e-002
-2.6644984e-001
-4.9362093e-001
-6.7886102e-001
-8.0784732e-001
-8.8147002e-001
-9.0348631e-001
-8.6048061e-001
-7.3783296e-001
-5.6338376e-001
-3.9011008e-001
-2.6572874e-001
-2.2056161e-001
-2.3330306e-001
-2.5918964e-001
-2.8507715e-001
-3.2136992e-001
-3.8386446e-001
-4.8352391e-001
-6.0523725e-001
-7.1943104e-001
-8.0413646e-001
-8.4794223e-001
-8.5774183e-001
-8.4722924e-001
-8.1236929e-001
-7.3685330e-001
-6.0460210e-001
-4.1246235e-001
-2.0861731e-001
-6.7261472e-002
-3.2882046e-002
-1.1553515e-001
-2.7274421e-001
-4.3517959e-001
-5.5422717e-001
-6.0456878e-001
-5.8875531e-001
-5.2359086e-001
-4.1639298e-001
-2.7076849e-001
-1.1053668e-001
2.6047312e-002
1.0065603e-001
9.1107756e-002
4.0929999e-002
2.8579373e-002
9.0446837e-002
2.1986514e-001
3.6907175e-001
4.7709000e-001
5.3190958e-001
5.5978763e-001
5.9366602e-001
6.6352820e-001
7.8585684e-001
9.5593303e-001
1.1152526e+000
1.1761168e+000
1.0855389e+000
8.3923542e-001
5.2201658e-001
2.5659943e-001
6.4833030e-002
-9.8643586e-002
-2.1787915e-001
-2.3051952e-001
-1.1502676e-001
1.0102493e-001
3.3544591e-001
4.8162785e-001
4.8204815e-001
3.4079942e-001
1.5683821e-001
7.3665500e-002
1.4008519e-001
3.0855080e-001
4.5645508e-001
4.4225180e-001
2.4687514e-001
-3.7494287e-002
-2.6478082e-001
-2.6989782e-001
7.6229304e-002
8.2960021e-001
1.8525785e+000
2.8804202e+000
3.7362185e+000
4.3748555e+000
4.9449759e+000
5.7303658e+000
6.9970560e+000
8.9524164e+000
1.1693991e+001
1.5169963e+001
1.9011143e+001
2.2663752e+001
2.5851206e+001
2.8628153e+001
3.1381548e+001
3.4685158e+001
3.8906982e+001
4.4088070e+001
4.9680359e+001
5.4828140e+001
5.9369457e+001
6.3781818e+001
6.8483231e+001
7.3628868e+001
7.8882950e+001
8.3589600e+001
8.7420052e+001
9.0408081e+001
9.2681602e+001
9.4377205e+001
9.5577713e+001
9.6311707e+001
9.6588722e+001
9.6406189e+001
9.5741722e+001
9.4581818e+001
9.3033058e+001
9.1286858e+001
8.9408119e+001
8.7316933e+001
8.4870110e+001
8.1926926e+001
7.8513748e+001
7.4791840e+001
7.0819626e+001
6.6539642e+001
6.1916603e+001
5.6986362e+001
5.1928223e+001
4.7030746e+001
4.2511971e+001
3.8485500e+001
3.4995064e+001
3.2027779e+001
2.9514114e+001
2.7346529e+001
2.5457943e+001
2.3834093e+001
2.2492086e+001
2.1467274e+001
2.0768000e+001
2.0365875e+001
2.0215107e+001
2.0263912e+001
2.0484251e+001
2.0875570e+001
2.1443834e+001
2.2206789e+001
2.3233866e+001
2.4638531e+001
2.6506172e+001
2.8859564e+001
3.1596043e+001
3.4504364e+001
3.7410000e+001
4.0211021e+001
4.2858349e+001
4.5377869e+001
4.7988823e+001
5.1008682e+001
5.4288914e+001
5.7191639e+001
5.9215080e+001
6.0181252e+001
6.0282749e+001
5.9988358e+001
5.9507507e+001
5.8692425e+001
5.7326118e+001
5.5253910e+001
5.2612999e+001
4.9830357e+001
4.7231094e+001
4.4934303e+001
4.2917835e+001
4.1043850e+001
3.9153732e+001
3.7109146e+001
3.4857670e+001
3.2456947e+001
3.0053829e+001
2.7836567e+001
2.5817400e+001
2.3797754e+001
2.1587595e+001
1.9099743e+001
1.6463606e+001
1.4008505e+001
1.1927523e+001
1.0192104e+001
8.6975145e+000
7.3183031e+000
5.9985452e+000
4.7651005e+000
3.6242726e+000
2.5445242e+000
1.5359836e+000
6.7266440e-001
4.9256802e-002
-2.2638038e-001
-2.1024704e-002
7.8983498e-001
2.1348510e+000
3.7103801e+000
5.2502866e+000
6.6199050e+000
7.8114796e+000
8.9382877e+000
1.0099174e+001
1.1321596e+001
1.2520400e+001
1.3496501e+001
1.4101972e+001
1.4301985e+001
1.4151800e+001
1.3788143e+001
1.3331940e+001
1.2852360e+001
1.2371212e+001
1.1856135e+001
1.1239443e+001
1.0436157e+001
9.4448366e+000
8.3824701e+000
7.3952661e+000
6.6203113e+000
6.1217060e+000
5.8623037e+000
5.7717752e+000
5.7698350e+000
5.8043284e+000
5.8687792e+000
5.9835877e+000
6.1885452e+000
6.5029984e+000
6.9075370e+000
7.3564582e+000
7.7784023e+000
8.0966959e+000
8.2410688e+000
8.1734495e+000
7.9049449e+000
7.4799323e+000
6.9725623e+000
6.4469814e+000
5.9410496e+000
5.4810934e+000
5.0818353e+000
4.7382097e+000
4.4184465e+000
4.0792999e+000
3.6740260e+000
3.1854062e+000
2.6413703e+000
2.0740509e+000
1.5056958e+000
9.4992322e-001
4.1485929e-001
-6.5466642e-002
-4.1835648e-001
-5.8259243e-001
-5.3190947e-001
-2.6733407e-001
1.7698541e-001
7.4640310e-001
1.3697643e+000
1.9979761e+000
2.6213639e+000
3.2277405e+000
3.7825572e+000
4.2227459e+000
4.4554243e+000
4.4313221e+000
4.1861553e+000
3.7915096e+000
3.3438485e+000
2.9297678e+000
2.6054106e+000
2.3946636e+000
2.2772219e+000
2.2137301e+000
2.1522903e+000
2.0556223e+000
1.9174114e+000
1.7467635e+000
1.5668551e+000
1.3996818e+000
1.2603910e+000
1.1661406e+000
1.1406530e+000
1.2126428e+000
1.4148844e+000
1.7677972e+000
2.2652309e+000
2.8779600e+000
3.5462637e+000
4.2058492e+000
4.7990232e+000
5.2843580e+000
5.6493359e+000
5.9005175e+000
6.0670991e+000
6.1852779e+000
6.2940588e+000
6.4311252e+000
6.6295671e+000
6.9163909e+000
7.3084970e+000
7.8113260e+000
8.4140234e+000
9.1062908e+000
9.8857803e+000
1.0752249e+001
1.1704903e+001
1.2734789e+001
1.3818001e+001
1.4922926e+001
1.6009758e+001
1.7021355e+001
1.7873848e+001
1.8481314e+001
1.8767691e+001
1.8685881e+001
1.8240852e+001
1.7465042e+001
1.6421021e+001
1.5180012e+001
1.3813808e+001
1.2406860e+001
1.1063180e+001
9.8861885e+000
8.9672194e+000
8.3662024e+000
8.0857391e+000
8.0884190e+000
8.2807722e+000
8.5463095e+000
8.7512550e+000
8.7797518e+000
8.5665178e+000
8.0893784e+000
7.3940668e+000
6.5534277e+000
5.6630063e+000
4.8122063e+000
4.0635943e+000
3.4524822e+000
2.9685986e+000
2.5890839e+000
2.2881787e+000
2.0476198e+000
1.8669070e+000
1.7483577e+000
1.6908624e+000
1.6916039e+000
1.7448835e+000
1.8366320e+000
1.9356760e+000
2.0023274e+000
1.9894745e+000
1.8668799e+000
1.6475894e+000
1.3623983e+000
1.0583327e+000
7.7632201e-001
5.3381896e-001
3.4138504e-001
2.0410079e-001
1.0958395e-001
1.0981433e-002
-1.1832986e-001
-2.3881349e-001
-3.0449381e-001
-2.9382280e-001
-2.1028452e-001
-1.0249776e-001
-2.1335959e-002
5.0126500e-003
-2.7271919e-002
-7.6923773e-002
-1.0156094e-001
-8.3886534e-002
-2.4699386e-002
4.6431482e-002
1.0402626e-001
1.5007001e-001
1.9342034e-001
2.4365413e-001
3.1051093e-001
4.0411392e-001
5.3830570e-001
7.3518544e-001
1.0080632e+000
1.3422823e+000
1.7143629e+000
2.0956836e+000
2.4580324e+000
2.7768281e+000
3.0269852e+000
3.1802430e+000
3.2164199e+000
3.1395631e+000
2.9703097e+000
2.7570260e+000
2.5514810e+000
2.3946135e+000
2.3108239e+000
2.2851691e+000
2.2896578e+000
2.2877467e+000
2.2497745e+000
2.1711051e+000
2.0574248e+000
1.9257920e+000
1.7947235e+000
1.6795821e+000
1.5976748e+000
1.5732363e+000
1.6239874e+000
1.7436676e+000
1.9095900e+000
2.0689809e+000
2.1735771e+000
2.2098827e+000
2.1787081e+000
2.0970771e+000
1.9790828e+000
1.8195751e+000
1.6144326e+000
1.3776094e+000
1.1231136e+000
8.5255957e-001
5.6233311e-001
2.4433157e-001
-9.4093621e-002
-3.9589444e-001
-6.1177063e-001
-7.5507277e-001
-8.6424851e-001
-1.0067358e+000
-1.2320929e+000
-1.5106781e+000
-1.7925572e+000
-2.0264466e+000
-2.1753192e+000
-2.2495594e+000
-2.2697630e+000
-2.2513700e+000
-2.2007079e+000
-2.0985367e+000
-1.9265543e+000
-1.6888660e+000
-1.4052511e+000
-1.1276871e+000
-9.0642184e-001
-7.5875747e-001
-6.8429393e-001
-6.5075451e-001
-6.2271857e-001
-5.8121669e-001
-5.1611286e-001
-4.3354389e-001
-3.4172720e-001
-2.4210852e-001
-1.3817365e-001
-4.6277434e-002
2.5606684e-002
1.1044230e-001
2.4538769e-001
4.4587040e-001
7.1088684e-001
9.9946570e-001
1.2611805e+000
1.4480817e+000
1.5276382e+000
1.5239092e+000
1.4726840e+000
1.4021598e+000
1.3417302e+000
1.3332839e+000
1.4164672e+000
1.6114397e+000
1.9263600e+000
2.3430080e+000
2.8333907e+000
3.3563864e+000
3.8570862e+000
4.2383089e+000
4.4263568e+000
4.4811211e+000
4.4959002e+000
