Image.
>Pix99999.
  .
5555
5555
2300
900
5555
2
1
0
701
5555
6.3957997e-002
6.5289095e-002
6.6619195e-002
6.7949295e-002
6.9280386e-002
7.0610486e-002
7.1941569e-002
7.3271677e-002
7.4602760e-002
7.5932868e-002
7.7263959e-002
7.8594074e-002
7.9925150e-002
8.1255265e-002
8.2586341e-002
8.3916456e-002
8.5247532e-002
8.6577646e-002
8.7907746e-002
8.9238822e-002
9.0568945e-002
9.1900013e-002
9.3230136e-002
9.4561197e-002
9.5891327e-002
9.7222388e-002
2.4733156e-002
8.4606424e-004
-3.2735042e-002
2.7964666e-002
1.0263659e-001
1.8331109e-001
2.5954023e-001
2.2712588e-001
1.7909154e-001
4.7962248e-002
-8.4795721e-002
-2.0576049e-001
-3.1083420e-001
-3.6947441e-001
-4.1901687e-001
-4.5441285e-001
-4.7982720e-001
-4.9031153e-001
-4.6539098e-001
-3.9746884e-001
-3.1422514e-001
-2.1882787e-001
-1.5606447e-001
-1.1828190e-001
-9.9402502e-002
-9.0477526e-002
-6.2298898e-002
-2.5391087e-002
2.1314399e-002
7.1016490e-002
5.8986440e-002
3.2717656e-002
-8.0238506e-002
-2.0529069e-001
-2.7027997e-001
-3.1934321e-001
-2.5061661e-001
-1.7464301e-001
-1.2124754e-001
-8.3991759e-002
-9.7592138e-002
-1.0107766e-001
-6.5661244e-002
-1.3630804e-002
6.2421389e-002
1.0534286e-001
9.6665531e-002
4.4751562e-002
-4.9809419e-002
-1.2818317e-001
-1.8830028e-001
-2.0087780e-001
-1.8173711e-001
-1.5411612e-001
-1.2364000e-001
-1.3377337e-001
-1.6110988e-001
-2.0887992e-001
-2.6266921e-001
-2.6752952e-001
-2.6090562e-001
-2.0849173e-001
-1.4995560e-001
-1.1133298e-001
-8.3518952e-002
-1.1497661e-001
-1.5918885e-001
-2.2175778e-001
-2.6231560e-001
-2.2829799e-001
-1.6329864e-001
-5.4274440e-002
3.5890002e-002
8.3447911e-002
1.1671914e-001
1.3947392e-001
1.7553252e-001
2.2694990e-001
2.6837075e-001
2.9977950e-001
3.4496203e-001
4.0016830e-001
4.7712833e-001
5.6480742e-001
5.8844870e-001
5.8494377e-001
5.3385919e-001
4.6829504e-001
4.9686408e-001
5.4960680e-001
6.5024978e-001
7.4975020e-001
7.4273843e-001
7.0529968e-001
6.1599970e-001
5.2699816e-001
4.7561380e-001
4.4226348e-001
4.3590131e-001
4.4964963e-001
4.9204001e-001
5.4780519e-001
6.1569512e-001
6.5028876e-001
6.4235872e-001
5.9599906e-001
5.1992536e-001
4.6580341e-001
4.3287331e-001
4.6317208e-001
5.3156817e-001
6.9253892e-001
8.9861447e-001
1.1107956e+000
1.3232400e+000
1.3397665e+000
1.2904731e+000
1.1010417e+000
8.8035387e-001
7.3698562e-001
6.2783265e-001
6.1959761e-001
6.5021336e-001
7.3703587e-001
8.4819430e-001
9.8946720e-001
1.1164823e+000
1.1956246e+000
1.2107899e+000
1.1357678e+000
1.0301578e+000
9.1175848e-001
8.2348078e-001
7.7197796e-001
7.3504686e-001
7.0393229e-001
6.7341948e-001
6.4225239e-001
6.2896210e-001
6.2715292e-001
6.2204123e-001
6.1454129e-001
6.0288596e-001
5.8967066e-001
5.7571369e-001
5.6080580e-001
5.1534271e-001
4.6328405e-001
4.3769786e-001
4.3782750e-001
5.3088772e-001
6.5437043e-001
7.8628719e-001
8.9217770e-001
9.2404515e-001
9.2541081e-001
9.0859681e-001
8.9052540e-001
8.7750858e-001
8.4229136e-001
7.7544355e-001
6.9250691e-001
6.0185438e-001
5.7328886e-001
6.0378045e-001
6.9985318e-001
8.3584398e-001
9.4538909e-001
1.0325948e+000
1.0779479e+000
1.1025561e+000
1.1282734e+000
1.1560518e+000
1.2100919e+000
1.2761142e+000
1.3609967e+000
1.4436318e+000
1.4639860e+000
1.4427348e+000
1.3476336e+000
1.2299076e+000
1.1275547e+000
1.0444988e+000
9.9222237e-001
9.5340502e-001
9.1752726e-001
8.9457357e-001
8.8830554e-001
8.8747954e-001
8.8963878e-001
8.8882697e-001
8.8637161e-001
9.2991519e-001
1.0142291e+000
1.1000714e+000
1.1788268e+000
1.1165454e+000
9.5968717e-001
6.6967237e-001
3.0880320e-001
1.2327681e-001
3.9339032e-002
2.3079371e-001
5.5037862e-001
8.5750329e-001
1.1479619e+000
1.3745103e+000
1.5477102e+000
1.6342196e+000
1.6447879e+000
1.5566891e+000
1.4407090e+000
1.3514919e+000
1.2849222e+000
1.2368971e+000
1.1607661e+000
1.0332388e+000
8.9131624e-001
7.5355530e-001
6.6878903e-001
6.3875014e-001
5.5018449e-001
3.9370027e-001
1.5635031e-001
-1.3417894e-001
-2.1998289e-001
-1.5239520e-001
9.0674140e-002
4.3398690e-001
6.5666980e-001
7.9807323e-001
8.0811775e-001
7.3717242e-001
6.0618418e-001
4.6596485e-001
4.2253998e-001
4.6258450e-001
6.1566579e-001
7.4956936e-001
7.0596963e-001
5.3935337e-001
2.8596148e-001
6.6969372e-002
-2.0890570e-001
-5.0788075e-001
-7.5179219e-001
-9.6733886e-001
-1.1734010e+000
-1.3416688e+000
-1.4714357e+000
-1.5781022e+000
-1.6694728e+000
-1.7226489e+000
-1.7468481e+000
-1.6603199e+000
-1.4939070e+000
-1.2368777e+000
-9.2455029e-001
-6.9306374e-001
-5.1854348e-001
-3.8723835e-001
-2.5229630e-001
9.1432974e-002
6.8305820e-001
1.5345280e+000
2.4317439e+000
3.1164017e+000
3.6406419e+000
4.0520058e+000
4.5637012e+000
5.3668823e+000
6.7313304e+000
8.7949266e+000
1.1886544e+001
1.6039715e+001
2.0463360e+001
2.4752840e+001
2.8553017e+001
3.1846445e+001
3.5478321e+001
3.9577374e+001
4.4369411e+001
4.9723358e+001
5.4489162e+001
5.8699757e+001
6.2874107e+001
6.7088593e+001
7.1860306e+001
7.7012169e+001
8.1920097e+001
8.6563164e+001
9.0805626e+001
9.4662613e+001
9.8132133e+001
1.0116572e+002
1.0369280e+002
1.0555700e+002
1.0661469e+002
1.0655549e+002
1.0520000e+002
1.0295963e+002
1.0026058e+002
9.7202988e+001
9.3892876e+001
8.9959358e+001
8.5327682e+001
8.0519730e+001
7.5740440e+001
7.1165909e+001
6.6806648e+001
6.2187603e+001
5.7270035e+001
5.2439396e+001
4.7739910e+001
4.3497143e+001
3.9728786e+001
3.6501274e+001
3.3808800e+001
3.1525150e+001
2.9619772e+001
2.7932753e+001
2.6490171e+001
2.5307611e+001
2.4396837e+001
2.3732500e+001
2.3299002e+001
2.3042463e+001
2.2949102e+001
2.2984451e+001
2.3149807e+001
2.3430206e+001
2.3813560e+001
2.4282331e+001
2.4886744e+001
2.5641657e+001
2.6566732e+001
2.7663595e+001
2.8845009e+001
3.0090359e+001
3.1345085e+001
3.2602631e+001
3.3958019e+001
3.5470051e+001
3.7560001e+001
4.0242744e+001
4.3047691e+001
4.5826656e+001
4.7965496e+001
4.9472260e+001
5.0657642e+001
5.1494495e+001
5.2047421e+001
5.2181801e+001
5.1790955e+001
5.0903599e+001
4.9641655e+001
4.8167843e+001
4.6659584e+001
4.5091686e+001
4.3446548e+001
4.1684517e+001
3.9784412e+001
3.7904823e+001
3.6127167e+001
3.4484730e+001
3.3000839e+001
3.1326801e+001
2.9354858e+001
2.6809538e+001
2.3559315e+001
2.0420879e+001
1.7499716e+001
1.5142314e+001
1.3424150e+001
1.1801857e+001
1.0284492e+001
8.8125811e+000
7.3806772e+000
5.9495916e+000
4.5354700e+000
3.1668220e+000
1.9454261e+000
1.0011218e+000
3.7453008e-001
7.6201424e-002
1.7510509e-001
7.0985478e-001
1.4311020e+000
2.2088828e+000
2.8862722e+000
3.3419657e+000
3.6814206e+000
3.9232702e+000
4.2195859e+000
4.6356401e+000
5.1023250e+000
5.6258216e+000
5.9567151e+000
5.9923029e+000
5.8897324e+000
5.6049566e+000
5.3259163e+000
5.0535073e+000
4.7883945e+000
4.5145216e+000
4.1886239e+000
3.8095937e+000
3.4214461e+000
3.0502300e+000
2.7415056e+000
2.5289257e+000
2.4476595e+000
2.5240369e+000
2.7921674e+000
3.1818056e+000
3.6295719e+000
4.0559883e+000
4.3811765e+000
4.6410279e+000
4.8319941e+000
5.0022979e+000
5.1666236e+000
5.3330917e+000
5.5068254e+000
5.6612072e+000
5.7789350e+000
5.8552790e+000
5.8643355e+000
5.8285789e+000
5.7175651e+000
5.5351005e+000
5.2427206e+000
4.8609929e+000
4.3739147e+000
3.8643115e+000
3.3581233e+000
2.9439440e+000
2.6204844e+000
2.3420978e+000
2.0660300e+000
1.7036060e+000
1.2852179e+000
8.5311967e-001
4.7239059e-001
2.3527786e-001
9.4407886e-002
5.2425489e-002
2.8577985e-002
-1.4791699e-002
-7.3244110e-002
-1.5981561e-001
-2.2965319e-001
-2.5596136e-001
-2.3465352e-001
-1.1716886e-001
2.3621440e-002
2.0825934e-001
3.7325698e-001
5.0772017e-001
6.3325369e-001
7.5233948e-001
9.0665680e-001
1.1108897e+000
1.3653917e+000
1.6677600e+000
1.9734662e+000
2.2663989e+000
2.5038595e+000
2.6872170e+000
2.8107843e+000
2.8848801e+000
2.9069099e+000
2.8896937e+000
2.8262296e+000
2.7424142e+000
2.6457145e+000
2.5558689e+000
2.4932959e+000
2.4569480e+000
2.4799936e+000
2.5218484e+000
2.6027603e+000
2.6845126e+000
2.7703390e+000
2.8722758e+000
3.0054080e+000
3.1546314e+000
3.3297453e+000
3.5124688e+000
3.7152214e+000
3.9615057e+000
4.2709646e+000
4.6384940e+000
5.0646782e+000
5.5098886e+000
5.9644399e+000
6.3998423e+000
6.8218703e+000
7.2386169e+000
7.6626501e+000
8.1212006e+000
8.5873108e+000
9.0363426e+000
9.4409857e+000
9.7153568e+000
9.9047003e+000
9.8955641e+000
9.8040085e+000
9.5097370e+000
9.1749229e+000
8.7396402e+000
8.3011522e+000
7.8549275e+000
7.4053049e+000
6.9482689e+000
6.4837303e+000
6.0056863e+000
5.5187144e+000
5.0185676e+000
4.5106659e+000
4.0007639e+000
3.5198314e+000
3.0725605e+000
2.6614773e+000
2.2738073e+000
1.8756779e+000
1.4755886e+000
1.0920405e+000
7.3568314e-001
4.6236238e-001
2.3091155e-001
6.0153939e-002
-8.2164451e-002
-1.6497478e-001
-2.0483799e-001
-1.0362633e-001
2.5070786e-002
2.2643280e-001
3.9333096e-001
4.5279005e-001
4.7038543e-001
3.8863620e-001
3.1381458e-001
2.5724563e-001
2.3433013e-001
2.6589090e-001
3.0935812e-001
3.6182192e-001
3.7930539e-001
3.5366893e-001
2.8787285e-001
1.9043583e-001
1.0072371e-001
2.6040798e-002
4.9145198e-003
3.1571269e-002
1.6048731e-001
3.4700930e-001
6.3044274e-001
9.3876755e-001
1.2386618e+000
1.5353237e+000
1.8229519e+000
2.1105027e+000
2.4013000e+000
2.6743116e+000
2.8727617e+000
3.0578961e+000
3.1996372e+000
3.3224401e+000
3.3963635e+000
3.4399252e+000
3.4280312e+000
3.4332728e+000
3.4725001e+000
3.5735774e+000
3.7638140e+000
4.0599070e+000
4.4691343e+000
4.9596229e+000
5.5025821e+000
5.9814696e+000
6.4026980e+000
6.6843348e+000
6.8892369e+000
6.9926763e+000
7.0511446e+000
7.0233712e+000
6.9635148e+000
6.8091459e+000
6.6384320e+000
6.4371657e+000
6.2372737e+000
6.0565987e+000
5.8805370e+000
5.7262998e+000
5.5959826e+000
5.5447254e+000
5.5340266e+000
5.6201677e+000
5.7101965e+000
5.8028374e+000
5.8480859e+000
5.8224025e+000
5.7642102e+000
5.6639156e+000
5.5078273e+000
5.2905569e+000
4.9517550e+000
4.5272050e+000
4.0763674e+000
3.6167011e+000
3.2081103e+000
2.8185084e+000
2.4207885e+000
2.0268424e+000
1.6966022e+000
1.3918593e+000
1.2527599e+000
1.1324129e+000
1.0702554e+000
1.0063413e+000
9.2787409e-001
8.5171652e-001
7.8387141e-001
6.8207079e-001
4.7300678e-001
2.1853542e-001
-1.3570562e-001
-4.3346086e-001
-6.2747103e-001
-7.1739501e-001
-6.6627240e-001
-5.6898248e-001
-4.2410743e-001
-2.7919137e-001
-1.3436075e-001
7.9088062e-003
1.5104343e-001
3.4154701e-001
5.5636281e-001
8.3039355e-001
1.1209201e+000
1.3545270e+000
1.5642085e+000
1.5071046e+000
1.4048519e+000
9.8638451e-001
5.6316566e-001
2.5422427e-001
2.1327101e-003
6.7569450e-002
2.3663011e-001
5.9066200e-001
9.5874459e-001
1.3684881e+000
1.8035948e+000
2.2917092e+000
2.7387383e+000
3.1190629e+000
3.4325581e+000
3.6652701e+000
3.9057565e+000
4.1526771e+000
4.3348541e+000
4.4703584e+000
4.5209637e+000
4.5284901e+000
4.7278366e+000
5.0003967e+000
5.3216090e+000
5.6533661e+000
5.5520096e+000
5.3806624e+000
5.1447001e+000
