Image.
>Pix99999.
  .
5555
5555
2300
900
5555
2
1
0
701
5555
2.9301999e-002
2.9911129e-002
3.0521255e-002
3.1130385e-002
3.1739514e-002
3.2349635e-002
3.2958768e-002
3.3568889e-002
3.4178030e-002
3.4788143e-002
3.5397287e-002
3.6006413e-002
3.6616523e-002
3.7228614e-002
3.7835840e-002
3.8437098e-002
3.9054852e-002
3.9695408e-002
4.0275112e-002
4.0767673e-002
4.1490141e-002
4.2533379e-002
4.2726751e-002
4.1721337e-002
4.3874342e-002
5.0056893e-002
4.1846447e-002
3.5738950e-003
-4.7599219e-002
-8.6873032e-002
-9.6167810e-002
-6.6898242e-002
-2.0708926e-002
1.4408762e-002
1.9809561e-002
-1.4603650e-002
-7.5730637e-002
-1.4469098e-001
-2.0654979e-001
-2.5090978e-001
-2.8072003e-001
-3.0245125e-001
-3.2082680e-001
-3.3929294e-001
-3.5852623e-001
-3.7728465e-001
-3.9007515e-001
-3.8971460e-001
-3.6761105e-001
-3.1856000e-001
-2.5294286e-001
-1.8652427e-001
-1.3733828e-001
-1.1909310e-001
-1.2536515e-001
-1.4350635e-001
-1.6172560e-001
-1.7179620e-001
-1.7854893e-001
-1.8844859e-001
-1.9728257e-001
-1.9725408e-001
-1.8041883e-001
-1.4317261e-001
-9.9681035e-002
-6.7906782e-002
-5.7196248e-002
-7.0490189e-002
-9.6865840e-002
-1.2252672e-001
-1.4074500e-001
-1.4815100e-001
-1.4480670e-001
-1.3242805e-001
-1.1500546e-001
-9.8018929e-002
-8.9769214e-002
-9.6683502e-002
-1.1348267e-001
-1.3100387e-001
-1.4119057e-001
-1.3974747e-001
-1.3570318e-001
-1.4085114e-001
-1.5896361e-001
-1.8800342e-001
-2.1474132e-001
-2.2510707e-001
-2.1802410e-001
-1.9881804e-001
-1.7891829e-001
-1.6874880e-001
-1.6593367e-001
-1.6322599e-001
-1.5319729e-001
-1.3029164e-001
-9.6078537e-002
-5.5043239e-002
-1.2434094e-002
2.5824562e-002
5.1781714e-002
5.8062971e-002
4.2901736e-002
9.7928848e-003
-2.5104906e-002
-4.3102801e-002
-3.5300247e-002
-1.1417028e-003
4.2126730e-002
7.3454484e-002
8.4816158e-002
7.6291040e-002
5.8699042e-002
4.4551194e-002
3.6259536e-002
3.2092199e-002
3.1012433e-002
3.3502519e-002
4.4391576e-002
6.8986170e-002
1.0713109e-001
1.5522036e-001
2.0519654e-001
2.4779166e-001
2.7619857e-001
2.8569677e-001
2.7563438e-001
2.4756871e-001
2.0532285e-001
1.5417632e-001
1.0175338e-001
5.5960786e-002
2.1786166e-002
1.7625113e-003
-6.3240649e-003
-5.8994051e-003
3.0431768e-003
2.1613061e-002
4.8644505e-002
8.0441803e-002
1.0731200e-001
1.1908606e-001
1.1479940e-001
9.8712854e-002
7.8873619e-002
6.3420847e-002
5.4609306e-002
5.2590791e-002
6.0523409e-002
8.2915142e-002
1.2331413e-001
1.8186571e-001
2.4647059e-001
2.9977614e-001
3.2654622e-001
3.1686336e-001
2.7751109e-001
2.2355214e-001
1.7153855e-001
1.3554725e-001
1.1830372e-001
1.1589980e-001
1.1972071e-001
1.2101946e-001
1.1861440e-001
1.1548307e-001
1.1579511e-001
1.2263783e-001
1.3325280e-001
1.4290851e-001
1.5116200e-001
1.5987119e-001
1.7065886e-001
1.8343537e-001
1.9212779e-001
1.8993750e-001
1.8003885e-001
1.7077941e-001
1.6961926e-001
1.8062562e-001
1.9705972e-001
2.0781922e-001
2.0725499e-001
1.9414528e-001
1.7192268e-001
1.4567307e-001
1.1786985e-001
8.9439079e-002
6.1486572e-002
3.5993811e-002
1.7829329e-002
1.1771317e-002
1.5408486e-002
2.2119487e-002
2.4704127e-002
1.7753143e-002
3.5379452e-003
-1.1557516e-002
-2.1876782e-002
-2.2899916e-002
-1.1636000e-002
1.3545063e-002
5.1796045e-002
9.9789627e-002
1.4919126e-001
1.8950285e-001
2.1279937e-001
2.1469578e-001
1.9868760e-001
1.7238601e-001
1.4188200e-001
1.1127836e-001
8.1656307e-002
5.2367136e-002
2.2448327e-002
-8.5814288e-003
-3.8949050e-002
-6.5667629e-002
-8.6364985e-002
-9.9963762e-002
-1.0889286e-001
-1.1720380e-001
-1.2682417e-001
-1.3803998e-001
-1.5053160e-001
-1.6304393e-001
-1.7131309e-001
-1.6994089e-001
-1.5668206e-001
-1.3218290e-001
-1.0019426e-001
-6.5437272e-002
-2.9273748e-002
8.0426186e-003
4.0823389e-002
6.0341459e-002
6.0970567e-002
4.1575417e-002
1.0369974e-002
-2.0234335e-002
-4.4985741e-002
-6.4982437e-002
-8.5917860e-002
-1.1318599e-001
-1.3996737e-001
-1.5376399e-001
-1.5422945e-001
-1.5032434e-001
-1.5191422e-001
-1.6509694e-001
-1.8093213e-001
-1.8234500e-001
-1.6121399e-001
-1.1809801e-001
-5.9727889e-002
2.8953068e-003
5.4428600e-002
7.9417512e-002
7.3684797e-002
4.3186311e-002
2.8806850e-003
-2.8609401e-002
-3.9964784e-002
-2.9318400e-002
-1.1440134e-002
-5.3840308e-003
8.5131405e-004
2.7147822e-002
2.0866565e-002
-1.0235625e-001
-3.1811541e-001
-5.2834111e-001
-6.9299835e-001
-8.2588267e-001
-9.3986791e-001
-1.0399450e+000
-1.1322777e+000
-1.2215397e+000
-1.2966900e+000
-1.3356097e+000
-1.3200800e+000
-1.2415894e+000
-1.1152835e+000
-9.7087765e-001
-8.2641393e-001
-6.8382823e-001
-5.2300560e-001
-3.0207509e-001
5.1499486e-002
6.1467713e-001
1.3849028e+000
2.2897937e+000
3.2339919e+000
4.1371150e+000
5.0277300e+000
6.0314784e+000
7.3216720e+000
9.1026726e+000
1.1610519e+001
1.5009577e+001
1.9030001e+001
2.3083059e+001
2.6738043e+001
2.9835791e+001
3.2633766e+001
3.5672878e+001
3.9365379e+001
4.3843822e+001
4.8650440e+001
5.2989582e+001
5.6667686e+001
6.0086987e+001
6.3736557e+001
6.7979561e+001
7.2688057e+001
7.7355202e+001
8.1620071e+001
8.5346130e+001
8.8546410e+001
9.1334015e+001
9.3835854e+001
9.6141472e+001
9.8199104e+001
9.9807076e+001
1.0063411e+002
1.0033750e+002
9.9017578e+001
9.7136971e+001
9.4930885e+001
9.2349419e+001
8.9258186e+001
8.5546196e+001
8.1345680e+001
7.6978683e+001
7.2609550e+001
6.8213593e+001
6.3742039e+001
5.9180904e+001
5.4618828e+001
5.0227352e+001
4.6142513e+001
4.2443485e+001
3.9179676e+001
3.6372139e+001
3.3985126e+001
3.1936892e+001
3.0167618e+001
2.8651009e+001
2.7372171e+001
2.6317144e+001
2.5461500e+001
2.4772877e+001
2.4230349e+001
2.3832390e+001
2.3590408e+001
2.3520350e+001
2.3619949e+001
2.3871250e+001
2.4276400e+001
2.4860207e+001
2.5645716e+001
2.6639200e+001
2.7799950e+001
2.9044006e+001
3.0302401e+001
3.1537422e+001
3.2730259e+001
3.3908577e+001
3.5278103e+001
3.7166985e+001
3.9615429e+001
4.2309929e+001
4.4828243e+001
4.6774071e+001
4.8087601e+001
4.9049534e+001
4.9850498e+001
5.0488789e+001
5.0881039e+001
5.0909367e+001
5.0515656e+001
4.9730946e+001
4.8665485e+001
4.7482212e+001
4.6263329e+001
4.4982601e+001
4.3588356e+001
4.2035873e+001
4.0333088e+001
3.8550064e+001
3.6771114e+001
3.5054722e+001
3.3314121e+001
3.1316055e+001
2.8891649e+001
2.6026722e+001
2.2933886e+001
2.0018183e+001
1.7510933e+001
1.5376921e+001
1.3492286e+001
1.1706539e+001
9.9316759e+000
8.1659298e+000
6.4310603e+000
4.7615070e+000
3.2293241e+000
1.9417579e+000
9.6916497e-001
3.3164382e-001
6.9043741e-002
2.3735848e-001
7.7841282e-001
1.4951160e+000
2.2226086e+000
2.8845801e+000
3.4689167e+000
4.0190721e+000
4.5742588e+000
5.1457095e+000
5.7019000e+000
6.1674128e+000
6.4818945e+000
6.6226401e+000
6.6003690e+000
6.4578176e+000
6.2350197e+000
5.9565430e+000
5.6296587e+000
5.2421703e+000
4.7740970e+000
4.2078614e+000
3.5670612e+000
2.9282780e+000
2.3645918e+000
1.9248056e+000
1.6334372e+000
1.4886849e+000
1.4834681e+000
1.6094257e+000
1.8460915e+000
2.1575539e+000
2.5099237e+000
2.8788607e+000
3.2545955e+000
3.6439521e+000
4.0526443e+000
4.4776983e+000
4.9049678e+000
5.3071775e+000
5.6540570e+000
5.9169736e+000
6.0766149e+000
6.1279664e+000
6.0749288e+000
5.9300251e+000
5.7099185e+000
5.4330230e+000
5.1111236e+000
4.7459512e+000
4.3395543e+000
3.8994598e+000
3.4444580e+000
3.0053818e+000
2.5956881e+000
2.1983144e+000
1.7910969e+000
1.3591481e+000
9.1765440e-001
5.2340853e-001
2.2711422e-001
5.2003603e-002
-5.2246354e-003
2.1187205e-002
9.7519018e-002
2.0277822e-001
3.2399398e-001
4.5677406e-001
6.0022521e-001
7.5437850e-001
9.0972745e-001
1.0424628e+000
1.1347954e+000
1.1852160e+000
1.2027961e+000
1.2081572e+000
1.2239109e+000
1.2702258e+000
1.3595943e+000
1.4913162e+000
1.6532900e+000
1.8201056e+000
1.9673537e+000
2.0786867e+000
2.1468124e+000
2.1775358e+000
2.1819184e+000
2.1751859e+000
2.1729529e+000
2.1895094e+000
2.2353427e+000
2.3140099e+000
2.4256179e+000
2.5665004e+000
2.7325840e+000
2.9202485e+000
3.1232398e+000
3.3304560e+000
3.5308061e+000
3.7160494e+000
3.8849256e+000
4.0481901e+000
4.2206721e+000
4.4185605e+000
4.6552896e+000
4.9375224e+000
5.2675114e+000
5.6425233e+000
6.0590162e+000
6.5147262e+000
7.0076427e+000
7.5362215e+000
8.0991507e+000
8.6961050e+000
9.3260345e+000
9.9854250e+000
1.0661040e+001
1.1321700e+001
1.1931143e+001
1.2452753e+001
1.2858528e+001
1.3136733e+001
1.3278680e+001
1.3274611e+001
1.3119971e+001
1.2816885e+001
1.2377829e+001
1.1827395e+001
1.1193860e+001
1.0509160e+001
9.8018284e+000
9.0987482e+000
8.4239140e+000
7.7958946e+000
7.2238388e+000
6.6983523e+000
6.2001581e+000
5.6991496e+000
5.1702342e+000
4.6049852e+000
4.0063572e+000
3.3932443e+000
2.7893968e+000
2.2202041e+000
1.7074780e+000
1.2640753e+000
8.9680874e-001
6.0484314e-001
3.8723838e-001
2.4659224e-001
1.8249600e-001
1.8532889e-001
2.3680758e-001
3.0493918e-001
3.5948622e-001
3.8239929e-001
3.6731488e-001
3.2744360e-001
2.7984113e-001
2.3894888e-001
2.1244243e-001
1.9401599e-001
1.7420726e-001
1.4440638e-001
1.0100406e-001
5.1528785e-002
7.1443953e-003
-1.8863065e-002
-1.4252503e-002
2.9427551e-002
1.1830559e-001
2.5460869e-001
4.3491340e-001
6.4483011e-001
8.7017792e-001
1.1038985e+000
1.3441935e+000
1.5982602e+000
1.8734760e+000
2.1731966e+000
2.4973071e+000
2.8388624e+000
3.1884377e+000
3.5342071e+000
3.8658514e+000
4.1779499e+000
4.4667282e+000
4.7300234e+000
4.9696207e+000
5.1970577e+000
5.4331713e+000
5.7157583e+000
6.0751657e+000
6.5098257e+000
6.9967585e+000
7.4780102e+000
7.8990612e+000
8.2378426e+000
8.4900179e+000
8.6777468e+000
8.8260870e+000
8.9498234e+000
9.0583315e+000
9.1535540e+000
9.2315130e+000
9.2780647e+000
9.2772522e+000
9.2164469e+000
9.0897188e+000
8.9076309e+000
8.6845207e+000
8.4336567e+000
8.1651325e+000
7.8805871e+000
7.5818338e+000
7.2760429e+000
6.9734440e+000
6.6887898e+000
6.4328241e+000
6.2017713e+000
5.9858904e+000
5.7686791e+000
5.5374303e+000
5.2957544e+000
5.0499172e+000
4.8020210e+000
4.5506549e+000
4.2874908e+000
4.0067902e+000
3.7156322e+000
3.4228570e+000
3.1326690e+000
2.8470349e+000
2.5643373e+000
2.2827959e+000
2.0018585e+000
1.7200600e+000
1.4328794e+000
1.1386521e+000
8.4749353e-001
5.7389426e-001
3.3661941e-001
1.4940286e-001
6.3589215e-003
-1.0430289e-001
-1.9743979e-001
-2.8051299e-001
-3.3473739e-001
-3.3978039e-001
-2.9195079e-001
-1.9953343e-001
-9.6604601e-002
-1.4569614e-002
4.5516822e-002
9.4908938e-002
1.6072699e-001
2.6474968e-001
3.9704344e-001
5.3394914e-001
6.3206547e-001
6.5246928e-001
5.8903617e-001
4.5356363e-001
2.9192168e-001
1.5145122e-001
5.4719716e-002
1.0465446e-002
1.3879826e-004
4.9764086e-003
2.9733088e-002
8.3136909e-002
1.6707493e-001
2.8001621e-001
4.1401696e-001
5.5431008e-001
6.6713113e-001
7.2402722e-001
7.3439640e-001
7.1979791e-001
7.1203202e-001
7.3665899e-001
7.8563792e-001
8.4370643e-001
9.0009558e-001
9.4752806e-001
9.8805076e-001
1.0244679e+000
1.0537844e+000
1.0734477e+000
1.0901322e+000
1.1126000e+000
