Image.
>Pix99999.
  .
5555
5555
2300
900
5555
2
1
0
701
5555
-5.5979998e-003
-5.7144333e-003
-5.8309664e-003
-5.9473007e-003
-6.0637337e-003
-6.1802664e-003
-6.2967008e-003
-6.4132330e-003
-6.5296674e-003
-6.6461009e-003
-6.7625344e-003
-6.8790661e-003
-6.9955010e-003
-7.1119345e-003
-7.2283680e-003
-7.3448014e-003
-7.4613327e-003
-7.5777685e-003
-7.6942993e-003
-7.8107351e-003
-7.9271691e-003
-8.0436021e-003
-8.1600351e-003
-8.2764681e-003
-8.3929989e-003
-8.5094357e-003
-3.1621940e-004
4.7649361e-002
1.0964644e-001
1.2538788e-001
1.3427758e-001
8.7326854e-002
3.6360458e-002
-1.4680340e-002
-5.9548452e-002
-5.4907352e-002
-4.3388110e-002
-1.1724764e-002
1.7519802e-002
3.6233064e-002
5.3236742e-002
6.7790814e-002
6.9322199e-002
4.9813680e-002
1.3856903e-002
-4.1005615e-002
-7.6697432e-002
-9.2789203e-002
-6.9794200e-002
-1.8562231e-002
3.4805216e-002
8.8347599e-002
9.0515576e-002
7.0165575e-002
8.9833159e-003
-6.4999670e-002
-9.7790316e-002
-1.2092645e-001
-7.8310587e-002
-2.6104536e-002
1.4289857e-002
5.0365932e-002
5.0147615e-002
4.4920832e-002
3.0833777e-002
1.5571199e-002
-7.2400598e-004
-9.7016403e-003
2.9825373e-004
1.8623082e-002
4.9007501e-002
6.3079163e-002
5.1715013e-002
2.2102576e-002
-2.5058705e-002
-6.6820107e-002
-1.0216029e-001
-1.3782761e-001
-1.7413177e-001
-2.1477577e-001
-2.5779027e-001
-2.7695933e-001
-2.8612122e-001
-2.6802471e-001
-2.4155919e-001
-2.1906807e-001
-1.9759528e-001
-1.9675522e-001
-1.9962412e-001
-2.1123368e-001
-2.2397201e-001
-2.3622400e-001
-2.4990050e-001
-2.7056432e-001
-2.9291126e-001
-3.1717414e-001
-3.3554959e-001
-3.4016249e-001
-3.3945361e-001
-3.3313262e-001
-3.3671430e-001
-3.5416642e-001
-3.8339451e-001
-4.2271364e-001
-4.5466304e-001
-4.7963250e-001
-5.0564229e-001
-5.3309739e-001
-5.8145094e-001
-6.4052862e-001
-6.8298841e-001
-7.1793526e-001
-7.0705557e-001
-6.8150985e-001
-6.4691055e-001
-6.1095101e-001
-6.2228471e-001
-6.4728928e-001
-7.2264892e-001
-8.0486929e-001
-8.7037170e-001
-9.1534334e-001
-8.9706153e-001
-8.5254467e-001
-7.7101511e-001
-6.9704539e-001
-6.5108979e-001
-6.4678413e-001
-6.9872570e-001
-7.7037525e-001
-8.5452789e-001
-9.1240895e-001
-9.4230759e-001
-9.4727111e-001
-9.3553293e-001
-9.3315166e-001
-9.3783450e-001
-9.5470399e-001
-9.7694147e-001
-9.9357760e-001
-1.0081960e+000
-1.0251548e+000
-1.0440052e+000
-1.0753521e+000
-1.1112326e+000
-1.1598493e+000
-1.2136538e+000
-1.2776930e+000
-1.3405914e+000
-1.3825095e+000
-1.4008286e+000
-1.3606427e+000
-1.2890680e+000
-1.1842767e+000
-1.0932220e+000
-1.0463158e+000
-1.0453720e+000
-1.0937102e+000
-1.1485243e+000
-1.1954559e+000
-1.2084771e+000
-1.1902040e+000
-1.1467632e+000
-1.0878372e+000
-1.0495863e+000
-1.0265558e+000
-1.0554945e+000
-1.1120664e+000
-1.1730120e+000
-1.2349590e+000
-1.2655971e+000
-1.2854875e+000
-1.3000304e+000
-1.3144928e+000
-1.3233848e+000
-1.3258500e+000
-1.3073857e+000
-1.2752489e+000
-1.2361494e+000
-1.1993779e+000
-1.1786371e+000
-1.1743776e+000
-1.1873980e+000
-1.2194749e+000
-1.2677525e+000
-1.3130621e+000
-1.3447397e+000
-1.3228589e+000
-1.2505406e+000
-1.1480380e+000
-1.0356615e+000
-9.6197855e-001
-9.1890615e-001
-9.1358173e-001
-9.2690450e-001
-9.6580595e-001
-1.0182045e+000
-1.0686818e+000
-1.1194328e+000
-1.1035821e+000
-1.0582857e+000
-9.5386124e-001
-8.3086085e-001
-7.4693388e-001
-6.9561696e-001
-7.3005909e-001
-8.0384475e-001
-9.0242535e-001
-1.0021346e+000
-1.0787076e+000
-1.1357100e+000
-1.1606212e+000
-1.1539338e+000
-1.1094356e+000
-1.0336800e+000
-9.4640499e-001
-8.7743449e-001
-8.4271473e-001
-8.3989751e-001
-8.5315537e-001
-8.7278283e-001
-8.8922900e-001
-9.1295880e-001
-9.3702137e-001
-9.5933199e-001
-9.7472429e-001
-9.6939057e-001
-9.4882017e-001
-9.2244297e-001
-8.9644688e-001
-8.6231655e-001
-8.2527870e-001
-7.5933629e-001
-6.7316425e-001
-5.7098043e-001
-4.6861637e-001
-4.0957776e-001
-3.9334500e-001
-4.2835340e-001
-4.9023786e-001
-5.5081201e-001
-6.0609019e-001
-6.4834785e-001
-6.6965437e-001
-6.7403990e-001
-6.4191002e-001
-5.7810956e-001
-5.2882218e-001
-4.9518919e-001
-4.9956036e-001
-5.2993786e-001
-4.9542022e-001
-4.1856039e-001
-2.7891964e-001
-1.1164057e-001
1.4075432e-003
7.3463261e-002
9.0400897e-002
7.3655933e-002
5.9404030e-002
5.9273001e-002
1.1618452e-001
2.0683892e-001
2.8110734e-001
3.1970891e-001
2.7390242e-001
1.8163860e-001
9.1521494e-002
2.2284582e-002
-1.0555806e-001
-2.4519728e-001
-3.3464289e-001
-3.5425326e-001
-3.0222261e-001
-2.2607635e-001
-1.5307108e-001
-1.4181492e-001
-2.0191447e-001
-2.6870605e-001
-3.2424575e-001
-2.6196998e-001
-1.0140820e-001
6.2164545e-002
2.1051821e-001
1.9409269e-001
6.0619574e-002
-4.4921152e-002
-1.0523112e-001
1.7660163e-002
3.1181720e-001
8.2022929e-001
1.4547148e+000
2.0423613e+000
2.5797966e+000
3.0886760e+000
3.7240808e+000
4.6518812e+000
6.1366587e+000
8.3059063e+000
1.1361216e+001
1.5240428e+001
1.9185301e+001
2.2851055e+001
2.6126352e+001
2.9083046e+001
3.2604607e+001
3.6777100e+001
4.1865879e+001
4.7673882e+001
5.2899872e+001
5.7553558e+001
6.2138500e+001
6.6765381e+001
7.2138519e+001
7.8035744e+001
8.3655197e+001
8.8910721e+001
9.3481773e+001
9.7459915e+001
1.0102068e+002
1.0420200e+002
1.0709351e+002
1.0934360e+002
1.1054007e+002
1.1000205e+002
1.0719607e+002
1.0319408e+002
9.8988182e+001
9.4716179e+001
9.0493942e+001
8.5773071e+001
8.0368309e+001
7.4961205e+001
6.9775452e+001
6.5010788e+001
6.0665241e+001
5.6281200e+001
5.1797096e+001
4.7483166e+001
4.3354931e+001
3.9547516e+001
3.6072414e+001
3.3025745e+001
3.0419170e+001
2.8250366e+001
2.6503016e+001
2.5044868e+001
2.3880344e+001
2.2963348e+001
2.2287642e+001
2.1808001e+001
2.1516319e+001
2.1369200e+001
2.1358290e+001
2.1454672e+001
2.1638401e+001
2.1890093e+001
2.2186371e+001
2.2517000e+001
2.2952236e+001
2.3515371e+001
2.4271544e+001
2.5220650e+001
2.6253757e+001
2.7339319e+001
2.8410286e+001
2.9466385e+001
3.0748220e+001
3.2361183e+001
3.4918148e+001
3.8503914e+001
4.2474640e+001
4.6590706e+001
4.9833458e+001
5.2209995e+001
5.4226215e+001
5.5876633e+001
5.7265175e+001
5.8216259e+001
5.8456116e+001
5.7962143e+001
5.6835251e+001
5.5295052e+001
5.3683033e+001
5.2007576e+001
5.0277248e+001
4.8396252e+001
4.6286701e+001
4.4010601e+001
4.1549736e+001
3.9213345e+001
3.7121387e+001
3.5108479e+001
3.3188766e+001
3.0763168e+001
2.7673208e+001
2.4498030e+001
2.1270500e+001
1.8560741e+001
1.6431110e+001
1.4370714e+001
1.2381860e+001
1.0371396e+001
8.3658476e+000
6.4145560e+000
4.5849552e+000
2.9783020e+000
1.6614745e+000
7.1349895e-001
1.6388512e-001
3.8228616e-002
4.3463171e-001
1.3000948e+000
2.3341389e+000
3.3265200e+000
4.1388812e+000
4.6928744e+000
5.1895266e+000
5.7176504e+000
6.2828231e+000
6.8867397e+000
7.3135977e+000
7.4306307e+000
7.3801088e+000
7.0947261e+000
6.8102999e+000
6.5330825e+000
6.2725310e+000
6.0312614e+000
5.7501664e+000
5.4096298e+000
4.9473586e+000
4.3703008e+000
3.7671909e+000
3.1753778e+000
2.7152450e+000
2.4023497e+000
2.2424085e+000
2.2283950e+000
2.3178864e+000
2.4738228e+000
2.6513889e+000
2.8234265e+000
2.9995437e+000
3.2005098e+000
3.4592292e+000
3.7765052e+000
4.1645570e+000
4.5841842e+000
5.0342240e+000
5.4728928e+000
5.8745093e+000
6.2169890e+000
6.4284368e+000
6.5308876e+000
6.4494052e+000
6.2386937e+000
5.8474607e+000
5.3700829e+000
4.8002124e+000
4.2178459e+000
3.6580472e+000
3.1701102e+000
2.7675653e+000
2.4492738e+000
2.1615930e+000
1.8252234e+000
1.4401077e+000
9.8916578e-001
5.5739582e-001
2.4457410e-001
3.7435066e-002
-3.4948902e-003
3.7347987e-002
1.5870082e-001
3.1246644e-001
5.0833356e-001
7.2439611e-001
9.7896808e-001
1.2333138e+000
1.4751314e+000
1.6985890e+000
1.8587812e+000
2.0093670e+000
2.1460147e+000
2.3049955e+000
2.5167894e+000
2.7752929e+000
3.1057999e+000
3.4704018e+000
3.8640201e+000
4.2310681e+000
4.5495143e+000
4.8015881e+000
4.9823585e+000
5.1078043e+000
5.1848416e+000
5.2125158e+000
5.2082419e+000
5.1641378e+000
5.1067429e+000
5.0392399e+000
4.9729061e+000
4.9115267e+000
4.8523202e+000
4.7946281e+000
4.7404709e+000
4.6913314e+000
4.6503625e+000
4.6272883e+000
4.6192498e+000
4.6462803e+000
4.6927199e+000
4.7755895e+000
4.8695393e+000
4.9769001e+000
5.0893707e+000
5.2058296e+000
5.3314137e+000
5.4653039e+000
5.5997629e+000
5.7313275e+000
5.8515601e+000
5.9620457e+000
6.0644932e+000
6.1586251e+000
6.2329030e+000
6.2889924e+000
6.3054781e+000
6.2981138e+000
6.2493329e+000
6.1709962e+000
6.0235238e+000
5.8303638e+000
5.5120544e+000
5.1522856e+000
4.6839232e+000
4.2029538e+000
3.6922104e+000
3.1858380e+000
2.6898715e+000
2.2113585e+000
1.7693769e+000
1.3734727e+000
1.0467591e+000
7.6549184e-001
5.3762436e-001
3.3399445e-001
1.5950882e-001
1.9026928e-002
-8.7965786e-002
-1.5715031e-001
-2.0049605e-001
-2.2539490e-001
-2.3547438e-001
-2.1826494e-001
-1.7820606e-001
-8.1370525e-002
4.8078954e-002
2.5974253e-001
5.0284803e-001
8.2885849e-001
1.1563830e+000
1.4674470e+000
1.7411858e+000
1.8973508e+000
2.0188656e+000
2.0550170e+000
2.0698349e+000
2.0380642e+000
1.9659101e+000
1.8228576e+000
1.6296422e+000
1.3695261e+000
1.0879817e+000
7.8980285e-001
5.2154690e-001
2.9061329e-001
1.3067161e-001
3.3403911e-002
2.2262884e-002
7.1295246e-002
2.0443159e-001
3.7551910e-001
5.7802391e-001
7.7938753e-001
9.3109602e-001
1.0624776e+000
1.1324040e+000
1.1954910e+000
1.2524400e+000
1.3173846e+000
1.4161052e+000
1.5155150e+000
1.6152952e+000
1.6995900e+000
1.7447715e+000
1.7784657e+000
1.7901134e+000
1.7991359e+000
1.8052715e+000
1.8191528e+000
1.8455360e+000
1.8966651e+000
1.9705080e+000
2.0383179e+000
2.0936699e+000
2.0920899e+000
2.0534308e+000
1.9864520e+000
1.9079943e+000
1.8367890e+000
1.7610257e+000
1.6381582e+000
1.4995352e+000
1.3252400e+000
1.1574080e+000
1.0716550e+000
9.9896628e-001
9.8375118e-001
9.6092314e-001
9.0525812e-001
8.5378909e-001
8.1780869e-001
8.0176312e-001
8.3228928e-001
8.5644108e-001
8.6496383e-001
8.4057808e-001
7.6558125e-001
6.5989500e-001
5.1969814e-001
3.7607771e-001
2.3281157e-001
1.1725275e-001
2.0869575e-002
-7.5900577e-002
-1.7719400e-001
-3.2122177e-001
-4.8124313e-001
-6.3301575e-001
-7.7605677e-001
-8.4753507e-001
-9.0382832e-001
-9.2673564e-001
-9.4824702e-001
-9.8708266e-001
-1.0288488e+000
-1.0904360e+000
-1.1572936e+000
-1.2472857e+000
-1.3309641e+000
-1.3946172e+000
-1.4347339e+000
-1.4214975e+000
-1.4024972e+000
-1.3728828e+000
-1.3423036e+000
-1.3087760e+000
-1.2573059e+000
-1.1884142e+000
-1.1352268e+000
-1.0965751e+000
-1.0955154e+000
-1.1156491e+000
-1.1181099e+000
-1.1096857e+000
-1.0489596e+000
-9.7098505e-001
-8.7481761e-001
-7.7425647e-001
-6.5478271e-001
-5.3141081e-001
-3.6688334e-001
-2.0249075e-001
-6.5291785e-002
7.1005709e-004
2.2665296e-002
8.4915400e-002
2.3486730e-001
4.1077685e-001
6.6225791e-001
8.8537192e-001
1.0465848e+000
1.1422057e+000
1.1330193e+000
1.0911760e+000
1.0102868e+000
9.3983984e-001
8.7893248e-001
8.3477330e-001
8.0306566e-001
8.4200335e-001
9.2046392e-001
1.1259978e+000
1.3815886e+000
1.5756269e+000
1.7540625e+000
1.6986351e+000
1.6060587e+000
1.5073000e+000
