Image.
>Pix99999.
  .
5555
5555
2300
900
5555
2
1
0
701
5555
2.8441001e-002
2.9032154e-002
2.9624306e-002
3.0215463e-002
3.0807612e-002
3.1398773e-002
3.1990919e-002
3.2582082e-002
3.3174224e-002
3.3765391e-002
3.4357529e-002
3.4948699e-002
3.5540834e-002
3.6132008e-002
3.6724139e-002
3.7315316e-002
3.7907448e-002
3.8498625e-002
3.9090753e-002
3.9681934e-002
4.0274058e-002
4.0865242e-002
4.1457362e-002
4.2049516e-002
4.2640705e-002
4.3232821e-002
2.3287231e-002
8.6851284e-004
-2.4032639e-002
-3.5389446e-002
-4.4717371e-002
-5.1204812e-002
-5.7664093e-002
-6.8073623e-002
-7.9084434e-002
-9.3329504e-002
-1.0659965e-001
-1.1460142e-001
-1.1733646e-001
-1.0485435e-001
-8.2365826e-002
-3.9915103e-002
6.1554722e-003
5.6206018e-002
8.3750062e-002
8.2923457e-002
5.0631389e-002
-1.0258071e-002
-6.7824639e-002
-1.2151443e-001
-1.4645001e-001
-1.5495013e-001
-1.4826943e-001
-1.3542472e-001
-1.2025414e-001
-1.0445614e-001
-9.2025563e-002
-8.0381036e-002
-7.5099662e-002
-7.0759438e-002
-6.5970853e-002
-6.1286565e-002
-5.8279604e-002
-5.6134198e-002
-5.7997644e-002
-6.0929056e-002
-6.6312604e-002
-7.2194658e-002
-7.8740619e-002
-8.2176626e-002
-7.9602003e-002
-6.9673575e-002
-4.9991228e-002
-2.5602292e-002
2.9459111e-003
2.4952427e-002
4.0792543e-002
4.8196182e-002
5.0191876e-002
5.8484551e-002
7.0503630e-002
8.4152438e-002
9.8304577e-002
9.3562014e-002
8.2767442e-002
6.5977380e-002
4.7915965e-002
3.7001416e-002
2.6890630e-002
1.0161025e-002
-6.5656356e-003
-1.6267441e-002
-2.0692490e-002
-6.3270442e-003
1.0999617e-002
2.8968928e-002
3.8099062e-002
2.7544498e-002
7.2173038e-003
-2.4610186e-002
-4.0839430e-002
-3.4391817e-002
-9.7670425e-003
3.0256022e-002
5.1624913e-002
5.5695999e-002
4.3501154e-002
2.2116780e-002
1.4592806e-002
1.5027090e-002
2.5852200e-002
4.0612143e-002
5.9109520e-002
7.8708112e-002
1.0804251e-001
1.3956363e-001
1.5843394e-001
1.7192717e-001
1.5428537e-001
1.2726240e-001
8.2355171e-002
3.4658730e-002
-1.0052709e-002
-4.4585150e-002
-5.4079447e-002
-4.9625002e-002
-2.7428960e-002
-1.3363322e-002
-1.7122377e-002
-4.1535478e-002
-8.7107748e-002
-1.3215719e-001
-1.7286715e-001
-2.0063569e-001
-2.1862440e-001
-2.2151786e-001
-2.1562663e-001
-1.8529789e-001
-1.4283794e-001
-1.0113797e-001
-6.0576200e-002
-6.1718673e-002
-7.7120550e-002
-1.2683953e-001
-1.8525544e-001
-2.3893292e-001
-2.8984836e-001
-3.2910860e-001
-3.6487624e-001
-3.9735669e-001
-4.2404929e-001
-4.3510550e-001
-4.3765205e-001
-4.3078774e-001
-4.2545938e-001
-4.2817152e-001
-4.3537274e-001
-4.4613829e-001
-4.5977357e-001
-4.7518566e-001
-4.8497227e-001
-4.8888129e-001
-4.6760342e-001
-4.2773902e-001
-3.9411727e-001
-3.6667407e-001
-4.0017486e-001
-4.6567011e-001
-5.4489839e-001
-6.2844831e-001
-6.6847354e-001
-6.9232500e-001
-7.0020002e-001
-7.0439821e-001
-7.1617275e-001
-7.3037750e-001
-7.4549794e-001
-7.5765085e-001
-7.6220244e-001
-7.6495099e-001
-7.7001345e-001
-7.7879822e-001
-7.9228461e-001
-7.9966038e-001
-7.9361230e-001
-7.6488483e-001
-7.1050298e-001
-6.4522851e-001
-5.7621390e-001
-5.3587312e-001
-5.2363789e-001
-5.2351159e-001
-5.2779019e-001
-5.1806772e-001
-4.9834642e-001
-5.0144231e-001
-5.1814920e-001
-5.4565912e-001
-5.7789928e-001
-5.7343256e-001
-5.5349427e-001
-5.1922846e-001
-4.8292401e-001
-4.7245950e-001
-4.7886845e-001
-5.1746458e-001
-5.6934470e-001
-6.2566382e-001
-6.7438829e-001
-7.0060122e-001
-7.0374900e-001
-6.7636496e-001
-6.2566811e-001
-5.5366337e-001
-4.9468273e-001
-4.6309793e-001
-4.7923496e-001
-5.3997552e-001
-6.0710615e-001
-6.6855788e-001
-7.0021343e-001
-7.0864552e-001
-6.9418937e-001
-6.6624862e-001
-6.2408960e-001
-5.7346678e-001
-5.2866918e-001
-4.8738977e-001
-4.7964376e-001
-4.8939463e-001
-5.0673544e-001
-5.2337891e-001
-5.1072347e-001
-4.7864661e-001
-4.2616171e-001
-3.7610927e-001
-3.6193228e-001
-3.8044313e-001
-4.3661299e-001
-4.9521989e-001
-5.2969915e-001
-5.3345871e-001
-5.0424403e-001
-4.6833193e-001
-4.3849301e-001
-4.1138500e-001
-3.8552737e-001
-3.5061017e-001
-3.0591419e-001
-2.5652048e-001
-2.0471142e-001
-1.5424702e-001
-1.0657864e-001
-8.2006842e-002
-7.3799402e-002
-8.2103655e-002
-9.8995805e-002
-9.8596521e-002
-8.4048808e-002
-3.4238264e-002
3.8318936e-002
1.2832019e-001
2.1285300e-001
2.4550018e-001
2.3575103e-001
1.8021765e-001
1.1620558e-001
8.0867633e-002
2.7641136e-002
-7.2814375e-002
-1.4963157e-001
-1.6691534e-001
-9.5529392e-002
6.0505316e-002
2.1564378e-001
3.4071356e-001
3.2470033e-001
1.7887235e-001
5.5077374e-003
-1.6737059e-001
-1.9580600e-001
-1.1127578e-001
2.1238402e-003
1.2152790e-001
1.0322820e-001
-5.5809952e-003
-8.7498471e-002
-1.2037810e-001
2.0953432e-002
3.2292753e-001
8.2762194e-001
1.4386344e+000
2.0103216e+000
2.5703909e+000
3.1582820e+000
3.9339499e+000
5.0458555e+000
6.7229958e+000
9.0703945e+000
1.2232674e+001
1.6154572e+001
2.0134529e+001
2.3851170e+001
2.7202263e+001
3.0239475e+001
3.3804893e+001
3.7982159e+001
4.2937630e+001
4.8502758e+001
5.3391090e+001
5.7641029e+001
6.1750195e+001
6.5830643e+001
7.0540329e+001
7.5682655e+001
8.0556396e+001
8.5089592e+001
8.8984772e+001
9.2311928e+001
9.5182793e+001
9.7602798e+001
9.9590256e+001
1.0092460e+002
1.0137461e+002
1.0074692e+002
9.8959641e+001
9.6552574e+001
9.4018898e+001
9.1219498e+001
8.8115639e+001
8.4348473e+001
7.9850578e+001
7.5237885e+001
7.0734528e+001
6.6487656e+001
6.2498268e+001
5.8387680e+001
5.4115330e+001
4.9931782e+001
4.5859165e+001
4.2061657e+001
3.8560566e+001
3.5485401e+001
3.2844788e+001
3.0608034e+001
2.8752157e+001
2.7136253e+001
2.5771967e+001
2.4637691e+001
2.3740335e+001
2.3055000e+001
2.2579563e+001
2.2278595e+001
2.2142275e+001
2.2138174e+001
2.2248814e+001
2.2449959e+001
2.2730740e+001
2.3079237e+001
2.3555466e+001
2.4177544e+001
2.4993568e+001
2.6008448e+001
2.7156229e+001
2.8417521e+001
2.9707886e+001
3.1021351e+001
3.2492599e+001
3.4204868e+001
3.6727814e+001
4.0111183e+001
4.3772873e+001
4.7502716e+001
5.0395306e+001
5.2482441e+001
5.4260784e+001
5.5742092e+001
5.7053253e+001
5.7980522e+001
5.8234421e+001
5.7754517e+001
5.6590656e+001
5.5047039e+001
5.3493900e+001
5.1976593e+001
5.0530350e+001
4.9017586e+001
4.7349152e+001
4.5414635e+001
4.3139484e+001
4.0841759e+001
3.8623680e+001
3.6501282e+001
3.4499928e+001
3.2042908e+001
2.8980179e+001
2.5837914e+001
2.2659679e+001
1.9945269e+001
1.7751450e+001
1.5612429e+001
1.3531689e+001
1.1456920e+001
9.3980207e+000
7.3698025e+000
5.4255676e+000
3.6495700e+000
2.1434731e+000
1.0207368e+000
3.1383619e-001
6.2394373e-002
3.5496315e-001
1.1288857e+000
2.0785899e+000
3.0214949e+000
3.8182316e+000
4.3669791e+000
4.8267322e+000
5.2514057e+000
5.7014647e+000
6.2005200e+000
6.6253924e+000
6.9171958e+000
7.0616140e+000
6.9915361e+000
6.8634501e+000
6.6587048e+000
6.4490862e+000
6.2299118e+000
5.9844551e+000
5.6890459e+000
5.2962136e+000
4.8057060e+000
4.2893567e+000
3.7889099e+000
3.4037764e+000
3.1560035e+000
3.0549927e+000
3.0886984e+000
3.2270412e+000
3.4245143e+000
3.6344180e+000
3.8381078e+000
4.0259771e+000
4.2212524e+000
4.4436955e+000
4.6995120e+000
5.0037079e+000
5.3317361e+000
5.6886592e+000
6.0292430e+000
6.3300915e+000
6.5608344e+000
6.6621699e+000
6.6674247e+000
6.5182052e+000
6.2776570e+000
5.9116392e+000
5.4962673e+000
5.0235100e+000
4.5344114e+000
4.0404215e+000
3.5726819e+000
3.1468837e+000
2.7835712e+000
2.4514942e+000
2.0922768e+000
1.6934474e+000
1.2293434e+000
7.7143383e-001
4.0309158e-001
1.3633974e-001
3.6471438e-002
2.9546969e-002
1.1765157e-001
2.2869536e-001
4.0393043e-001
6.0909164e-001
8.6500150e-001
1.1158981e+000
1.3479686e+000
1.5410361e+000
1.6586323e+000
1.7695169e+000
1.8766148e+000
2.0221443e+000
2.2311952e+000
2.4864981e+000
2.8012857e+000
3.1373003e+000
3.4867101e+000
3.8087833e+000
4.0879803e+000
4.3035445e+000
4.4588609e+000
4.5646653e+000
4.6348510e+000
4.6795917e+000
4.7058291e+000
4.7083654e+000
4.7007856e+000
4.6843543e+000
4.6710606e+000
4.6706781e+000
4.6748400e+000
4.6856318e+000
4.6972980e+000
4.7094846e+000
4.7259769e+000
4.7518487e+000
4.7798839e+000
4.8132339e+000
4.8491578e+000
4.8940935e+000
4.9605303e+000
5.0610442e+000
5.1906729e+000
5.3512502e+000
5.5101242e+000
5.6593089e+000
5.7773743e+000
5.8677011e+000
5.9434862e+000
6.0134778e+000
6.0952258e+000
6.1822252e+000
6.2663059e+000
6.3345594e+000
6.3529058e+000
6.3293552e+000
6.2137485e+000
6.0532775e+000
5.8025517e+000
5.5248308e+000
5.1890187e+000
4.8358445e+000
4.4360332e+000
4.0165353e+000
3.5506368e+000
3.0787799e+000
2.5996087e+000
2.1465716e+000
1.7422285e+000
1.3778882e+000
1.0721331e+000
7.9841143e-001
5.6527680e-001
3.6188853e-001
1.8970171e-001
3.9501585e-002
-9.3631923e-002
-2.2128966e-001
-3.3975655e-001
-4.3256229e-001
-4.9932969e-001
-5.0503647e-001
-4.7654760e-001
-3.8957852e-001
-2.7405193e-001
-9.5728889e-002
1.0763119e-001
3.7785989e-001
6.5062273e-001
9.1622084e-001
1.1535703e+000
1.3018501e+000
1.4142920e+000
1.4373389e+000
1.4332646e+000
1.3736702e+000
1.2920570e+000
1.1730900e+000
1.0348126e+000
8.6910272e-001
6.8569338e-001
4.8606181e-001
2.9729772e-001
1.3092594e-001
3.8050033e-002
7.5361580e-003
5.1745318e-002
1.3782752e-001
2.7212793e-001
4.2657447e-001
5.9018660e-001
7.5228304e-001
8.9358312e-001
1.0248361e+000
1.1222041e+000
1.2171510e+000
1.3158672e+000
1.4177293e+000
1.5315720e+000
1.6391667e+000
1.7267926e+000
1.8109699e+000
1.8865577e+000
1.9613150e+000
2.0320871e+000
2.0822413e+000
2.0982287e+000
2.0918622e+000
2.0621340e+000
2.0594149e+000
2.0913725e+000
2.1859984e+000
2.3298891e+000
2.4871879e+000
2.6451836e+000
2.7517941e+000
2.8259344e+000
2.8322785e+000
2.8081164e+000
2.7245567e+000
2.6264927e+000
2.5189886e+000
2.4193439e+000
2.3862801e+000
2.3691440e+000
2.4336026e+000
2.5008085e+000
2.5794127e+000
2.6452191e+000
2.6696692e+000
2.6848292e+000
2.6774070e+000
2.6663971e+000
2.6474738e+000
2.6187668e+000
2.5753431e+000
2.5280399e+000
2.4775290e+000
2.4372594e+000
2.4088469e+000
2.4093139e+000
2.4298823e+000
2.4534948e+000
2.4723849e+000
2.4265115e+000
2.3517175e+000
2.2351201e+000
2.1061072e+000
1.9650183e+000
1.8151542e+000
1.5896159e+000
1.3539708e+000
1.0756620e+000
8.0841869e-001
6.1974823e-001
4.4755536e-001
3.4763145e-001
2.5095421e-001
1.6441563e-001
8.2371406e-002
1.1645671e-002
-4.0838778e-002
-6.0643032e-002
-6.4016521e-002
-4.6199642e-002
-4.1549914e-002
-5.2676141e-002
-1.0114191e-001
-1.8039101e-001
-2.7986729e-001
-3.9011869e-001
-4.7491950e-001
-5.4495329e-001
-5.5036682e-001
-5.3260392e-001
-4.6337563e-001
-3.8280344e-001
-2.9266384e-001
-2.0252880e-001
-1.3939355e-001
-7.7917695e-002
-2.5357820e-002
1.6299784e-003
5.0981767e-002
1.5704753e-001
3.0872399e-001
4.4500285e-001
5.3614092e-001
6.2040305e-001
6.9045508e-001
7.7807778e-001
8.9356393e-001
1.0002435e+000
1.0955362e+000
1.1506034e+000
1.1680927e+000
1.1738614e+000
1.1709763e+000
1.1535132e+000
1.1277550e+000
1.0331653e+000
9.1251433e-001
7.7609754e-001
6.3609076e-001
5.4774135e-001
4.6796146e-001
4.8297000e-001
