Image.
>Pix99999.
  .
5555
5555
2300
900
5555
2
1
0
701
5555
-3.7843999e-002
-3.8647849e-002
-3.9452698e-002
-4.0256549e-002
-4.1060399e-002
-4.1864250e-002
-4.2668100e-002
-4.3472938e-002
-4.4276800e-002
-4.5080651e-002
-4.5884501e-002
-4.6690319e-002
-4.7493216e-002
-4.8293125e-002
-4.9100820e-002
-4.9919426e-002
-5.0708942e-002
-5.1458787e-002
-5.2315861e-002
-5.3324476e-002
-5.3930972e-002
-5.3972252e-002
-5.5509154e-002
-5.9154838e-002
-5.7241276e-002
-4.0376931e-002
-1.4766144e-003
6.1928503e-002
1.3636212e-001
2.0550144e-001
2.5961500e-001
2.9052410e-001
2.8857678e-001
2.4915275e-001
1.9001962e-001
1.3447000e-001
1.0223737e-001
1.0661647e-001
1.3968118e-001
1.8669686e-001
2.3093057e-001
2.5842610e-001
2.6858100e-001
2.6677421e-001
2.6612332e-001
2.7823555e-001
2.9932529e-001
3.1971499e-001
3.2528076e-001
3.0529740e-001
2.6805714e-001
2.2749184e-001
1.9620240e-001
1.8453002e-001
1.9572946e-001
2.3005806e-001
2.8455800e-001
3.5212830e-001
4.1268438e-001
4.4592726e-001
4.4758826e-001
4.2430431e-001
4.0547466e-001
4.2025819e-001
4.6665439e-001
5.2746636e-001
5.6617081e-001
5.4910892e-001
4.7980353e-001
3.7761450e-001
2.7472800e-001
2.0204420e-001
1.6849840e-001
1.7278694e-001
2.0293681e-001
2.4408750e-001
2.8380358e-001
3.1343722e-001
3.3584312e-001
3.5774165e-001
3.8504657e-001
4.1885513e-001
4.4203565e-001
4.3405572e-001
3.8718799e-001
3.0516049e-001
2.1883346e-001
1.6186720e-001
1.3920313e-001
1.4069566e-001
1.3864443e-001
1.0674860e-001
4.9832776e-002
-1.3847698e-002
-5.9456959e-002
-6.7517094e-002
-4.9283702e-002
-2.8877180e-002
-3.5061300e-002
-9.0926662e-002
-1.9043829e-001
-3.1450522e-001
-4.3670133e-001
-5.3179824e-001
-5.8963716e-001
-6.0831398e-001
-5.9527117e-001
-5.6206894e-001
-5.2307814e-001
-4.9246040e-001
-4.7962099e-001
-4.8970696e-001
-5.1844400e-001
-5.5810785e-001
-6.0219866e-001
-6.4578342e-001
-6.8751782e-001
-7.2802913e-001
-7.6994109e-001
-8.1688505e-001
-8.7341201e-001
-9.4127041e-001
-1.0089636e+000
-1.0619143e+000
-1.0960441e+000
-1.1149714e+000
-1.1345460e+000
-1.1704518e+000
-1.2169863e+000
-1.2599784e+000
-1.2896857e+000
-1.3016906e+000
-1.3037057e+000
-1.3067970e+000
-1.3132409e+000
-1.3219450e+000
-1.3349800e+000
-1.3559573e+000
-1.3885802e+000
-1.4334075e+000
-1.4784000e+000
-1.5083823e+000
-1.5195192e+000
-1.5168623e+000
-1.5192949e+000
-1.5473157e+000
-1.6021231e+000
-1.6760830e+000
-1.7626617e+000
-1.8592697e+000
-1.9757644e+000
-2.1210897e+000
-2.2769651e+000
-2.4110446e+000
-2.4887640e+000
-2.4855936e+000
-2.4223366e+000
-2.3389661e+000
-2.2644935e+000
-2.2155535e+000
-2.1851485e+000
-2.1582870e+000
-2.1342692e+000
-2.1213052e+000
-2.1321702e+000
-2.1778536e+000
-2.2559242e+000
-2.3552363e+000
-2.4580522e+000
-2.5452821e+000
-2.6041172e+000
-2.6281624e+000
-2.6235275e+000
-2.6043878e+000
-2.5916359e+000
-2.6041250e+000
-2.6384439e+000
-2.6784844e+000
-2.7042854e+000
-2.7009664e+000
-2.6801715e+000
-2.6655478e+000
-2.6726639e+000
-2.7060382e+000
-2.7474124e+000
-2.7684057e+000
-2.7467406e+000
-2.6723025e+000
-2.5686281e+000
-2.4733808e+000
-2.4081271e+000
-2.3792298e+000
-2.3727937e+000
-2.3688958e+000
-2.3665159e+000
-2.3737471e+000
-2.3885081e+000
-2.4017229e+000
-2.4025183e+000
-2.3831778e+000
-2.3526144e+000
-2.3275459e+000
-2.3160777e+000
-2.3191829e+000
-2.3301573e+000
-2.3405886e+000
-2.3508101e+000
-2.3647459e+000
-2.3781559e+000
-2.3811285e+000
-2.3616900e+000
-2.3102584e+000
-2.2308092e+000
-2.1359417e+000
-2.0398345e+000
-1.9551328e+000
-1.8859029e+000
-1.8304650e+000
-1.7844094e+000
-1.7425584e+000
-1.7006257e+000
-1.6544542e+000
-1.5966214e+000
-1.5215361e+000
-1.4417759e+000
-1.3819286e+000
-1.3707464e+000
-1.4305681e+000
-1.5503423e+000
-1.6992601e+000
-1.8526614e+000
-1.9908041e+000
-2.0887222e+000
-2.1180017e+000
-2.0523288e+000
-1.8798314e+000
-1.6446811e+000
-1.4211062e+000
-1.2569360e+000
-1.1696198e+000
-1.1343143e+000
-1.1066008e+000
-1.0670497e+000
-1.0179081e+000
-9.7252786e-001
-9.4491202e-001
-9.2869788e-001
-9.0450221e-001
-8.5820287e-001
-7.8714532e-001
-7.1695215e-001
-6.8277723e-001
-6.7909837e-001
-6.7030394e-001
-6.2003922e-001
-5.0515604e-001
-3.4815264e-001
-1.9405976e-001
-4.8805151e-002
1.0484232e-001
2.4779972e-001
3.3256882e-001
3.1596094e-001
1.8030329e-001
-6.4432099e-003
-1.2958303e-001
-1.3477281e-001
-3.8023748e-002
5.5680692e-002
1.5897345e-002
-1.4145297e-001
-2.9779822e-001
-3.8575038e-001
-3.9781299e-001
-3.5926479e-001
-3.1031856e-001
-2.8239155e-001
-2.9065287e-001
-3.1577608e-001
-3.1837773e-001
-2.7955401e-001
-2.0504217e-001
-1.2763821e-001
-9.0206362e-002
-9.9850953e-002
-1.3230714e-001
-1.5587755e-001
-1.3574380e-001
-2.8808683e-002
2.1349762e-001
6.3642156e-001
1.2628003e+000
2.0265017e+000
2.8120468e+000
3.5955060e+000
4.4543314e+000
5.5540032e+000
7.1119494e+000
9.3221359e+000
1.2273826e+001
1.5688857e+001
1.9041670e+001
2.2009354e+001
2.4543755e+001
2.6907005e+001
2.9556934e+001
3.2834972e+001
3.6846039e+001
4.1191719e+001
4.5181068e+001
4.8604874e+001
5.1743156e+001
5.4994476e+001
5.8706478e+001
6.2879646e+001
6.7221245e+001
7.1467445e+001
7.5443466e+001
7.9045525e+001
8.2237671e+001
8.5072632e+001
8.7665527e+001
9.0090858e+001
9.2334473e+001
9.4179451e+001
9.5289001e+001
9.5580872e+001
9.5214172e+001
9.4288788e+001
9.2796425e+001
9.0680573e+001
8.7894531e+001
8.4571434e+001
8.0985260e+001
7.7281059e+001
7.3451340e+001
6.9460876e+001
6.5294441e+001
6.1023354e+001
5.6794861e+001
5.2737999e+001
4.8948662e+001
4.5508789e+001
4.2480309e+001
3.9856049e+001
3.7565655e+001
3.5548672e+001
3.3772362e+001
3.2228920e+001
3.0925308e+001
2.9852501e+001
2.8981115e+001
2.8275806e+001
2.7705185e+001
2.7263632e+001
2.6968050e+001
2.6827532e+001
2.6840099e+001
2.7014982e+001
2.7375547e+001
2.7951057e+001
2.8763260e+001
2.9771383e+001
3.0872200e+001
3.1968519e+001
3.2993607e+001
3.3934292e+001
3.4860405e+001
3.6013988e+001
3.7740566e+001
4.0066158e+001
4.2637482e+001
4.5020050e+001
4.6840282e+001
4.8059605e+001
4.8975109e+001
4.9807304e+001
5.0599762e+001
5.1302040e+001
5.1800877e+001
5.1984688e+001
5.1778675e+001
5.1209099e+001
5.0394543e+001
4.9409264e+001
4.8252899e+001
4.6897114e+001
4.5308784e+001
4.3494217e+001
4.1517323e+001
3.9502930e+001
3.7599339e+001
3.5793159e+001
3.3879929e+001
3.1666742e+001
2.9063749e+001
2.6208481e+001
2.3450602e+001
2.0988146e+001
1.8771980e+001
1.6673428e+001
1.4549547e+001
1.2346677e+001
1.0127172e+001
7.9767890e+000
5.9789600e+000
4.2156920e+000
2.7551746e+000
1.6008829e+000
7.0578408e-001
1.5562430e-001
1.7337111e-001
7.7395195e-001
1.6852341e+000
2.6643186e+000
3.5967486e+000
4.4560919e+000
5.2825422e+000
6.0650578e+000
6.7094479e+000
7.1179600e+000
7.2311263e+000
7.1001215e+000
6.8935766e+000
6.7067976e+000
6.5082498e+000
6.2647357e+000
5.9775710e+000
5.6537037e+000
5.2934175e+000
4.8742328e+000
4.3536968e+000
3.7346861e+000
3.0882277e+000
2.4999619e+000
2.0481422e+000
1.7710823e+000
1.6535296e+000
1.6689618e+000
1.7923719e+000
2.0055001e+000
2.2981300e+000
2.6540053e+000
3.0465662e+000
3.4500170e+000
3.8439021e+000
4.2156587e+000
4.5613127e+000
4.8731561e+000
5.1358714e+000
5.3343215e+000
5.4576402e+000
5.5041127e+000
5.4837165e+000
5.4057479e+000
5.2754650e+000
5.1024771e+000
4.9036164e+000
4.6925220e+000
4.4739490e+000
4.2409716e+000
3.9738858e+000
3.6624439e+000
3.3143024e+000
2.9355755e+000
2.5238950e+000
2.0750799e+000
1.5897077e+000
1.0955093e+000
6.5720201e-001
3.2642886e-001
1.1852698e-001
2.3416596e-002
5.8802729e-003
3.7830189e-002
1.1103350e-001
2.1901920e-001
3.4963453e-001
4.8138547e-001
5.8164519e-001
6.2647831e-001
6.1203724e-001
5.4993713e-001
4.6902901e-001
3.9774394e-001
3.5699901e-001
3.6333302e-001
4.2694646e-001
5.4532480e-001
6.9666266e-001
8.5247803e-001
9.8251826e-001
1.0690966e+000
1.1168998e+000
1.1376486e+000
1.1453471e+000
1.1483085e+000
1.1446130e+000
1.1318460e+000
1.1113076e+000
1.0864143e+000
1.0623722e+000
1.0445321e+000
1.0375413e+000
1.0484320e+000
1.0873728e+000
1.1591742e+000
1.2571146e+000
1.3683555e+000
1.4754215e+000
1.5684257e+000
1.6535850e+000
1.7436897e+000
1.8554581e+000
2.0008762e+000
2.1818335e+000
2.3981531e+000
2.6514845e+000
2.9475482e+000
3.2981856e+000
3.7116399e+000
4.1860557e+000
4.7126369e+000
5.2743030e+000
5.8543901e+000
6.4408250e+000
7.0219345e+000
7.5843549e+000
8.1119490e+000
8.5836649e+000
8.9774942e+000
9.2721415e+000
9.4486485e+000
9.4931946e+000
9.4038591e+000
9.1999893e+000
8.9065323e+000
8.5489473e+000
8.1476011e+000
7.7122293e+000
7.2509084e+000
6.7733493e+000
6.2906022e+000
5.8151884e+000
5.3573642e+000
4.9209008e+000
4.5012622e+000
4.0800028e+000
3.6373515e+000
3.1598935e+000
2.6475000e+000
2.1246831e+000
1.6209846e+000
1.1627870e+000
7.6759529e-001
4.3522513e-001
1.6114984e-001
-5.9008226e-002
-2.2609949e-001
-3.3385864e-001
-3.7795401e-001
-3.6288831e-001
-3.0219474e-001
-2.2437096e-001
-1.5793274e-001
-1.2248585e-001
-1.2641400e-001
-1.5768550e-001
-1.9951668e-001
-2.3599717e-001
-2.5723299e-001
-2.6646289e-001
-2.6919258e-001
-2.6857468e-001
-2.6401079e-001
-2.4746071e-001
-2.0862217e-001
-1.3731383e-001
-3.4008153e-002
7.8039005e-002
1.8771514e-001
3.2441002e-001
5.1813775e-001
7.7699125e-001
1.0998812e+000
1.4756751e+000
1.8862836e+000
2.3028233e+000
2.7013199e+000
3.0766149e+000
3.4298184e+000
3.7665472e+000
4.0881705e+000
4.3832998e+000
4.6414986e+000
4.8628302e+000
5.0548363e+000
5.2377162e+000
5.4383793e+000
5.6926641e+000
6.0301857e+000
6.4585276e+000
6.9619303e+000
7.4801240e+000
7.9545336e+000
8.3601704e+000
8.6938810e+000
8.9871531e+000
9.2654428e+000
9.5165176e+000
9.7179871e+000
9.8465242e+000
9.8895111e+000
9.8641834e+000
9.7991247e+000
9.7330666e+000
9.6976557e+000
9.6970444e+000
9.7167587e+000
9.7090540e+000
9.6285830e+000
9.4592533e+000
9.2041035e+000
8.8988523e+000
8.5832033e+000
8.2841930e+000
8.0174627e+000
7.7744970e+000
7.5398440e+000
7.2938533e+000
7.0204701e+000
6.7155757e+000
6.3808947e+000
6.0250158e+000
5.6573462e+000
5.2836833e+000
4.9063087e+000
4.5196900e+000
4.1211181e+000
3.7223630e+000
3.3399827e+000
2.9946911e+000
2.7008376e+000
2.4491994e+000
2.2225320e+000
1.9966735e+000
1.7502248e+000
1.4767674e+000
1.1793578e+000
8.8063473e-001
6.0508287e-001
3.6852229e-001
1.7796454e-001
1.9435234e-002
-1.2206199e-001
-2.4807335e-001
-3.5467944e-001
-4.3093833e-001
-4.6579361e-001
-4.5329794e-001
-3.8812000e-001
-2.6299006e-001
-7.6127768e-002
1.5423559e-001
4.0495247e-001
6.5302849e-001
8.7905091e-001
1.0754710e+000
1.2329342e+000
1.3258365e+000
1.3291700e+000
1.2335410e+000
1.0413588e+000
7.8215629e-001
4.9844456e-001
2.5466642e-001
9.8261431e-002
-2.8299540e-003
-8.8221863e-002
-1.5395211e-001
-1.9511515e-001
-2.4230778e-001
-3.2114786e-001
-4.0663642e-001
-4.6551824e-001
-4.8053741e-001
-4.4634917e-001
-3.8691676e-001
-3.2884288e-001
-2.8089577e-001
-2.4789186e-001
-2.3654984e-001
-2.5736219e-001
-3.3342868e-001
-4.8258734e-001
-6.8987846e-001
-9.2866683e-001
-1.1585633e+000
-1.3361403e+000
-1.4199270e+000
-1.3688999e+000
