Image.
>Pix99999.
  .
5555
5555
2300
900
5555
2
1
0
701
5555
-8.5079998e-002
-8.6850464e-002
-8.8619933e-002
-9.0390399e-002
-9.2159875e-002
-9.3930334e-002
-9.5699809e-002
-9.7470269e-002
-9.9239752e-002
-1.0100725e-001
-1.0278457e-001
-1.0455219e-001
-1.0631965e-001
-1.0808713e-001
-1.0986440e-001
-1.1163207e-001
-1.1339954e-001
-1.1516701e-001
-1.1694423e-001
-1.1871196e-001
-1.2047943e-001
-1.2224690e-001
-1.2402406e-001
-1.2579185e-001
-1.2755930e-001
-1.2932679e-001
-4.8059141e-003
3.8521558e-002
5.4581240e-002
-6.3601332e-003
-7.8613862e-002
-1.3744815e-001
-1.9317417e-001
-2.0151338e-001
-1.9800380e-001
-1.1858950e-001
-3.0891646e-002
7.6619849e-002
1.5633415e-001
1.4791714e-001
1.0686286e-001
5.3817048e-003
-8.1215799e-002
-1.3767108e-001
-1.5714887e-001
-1.3280664e-001
-1.0167672e-001
-6.6617638e-002
-7.2446093e-002
-1.0899450e-001
-1.7228928e-001
-2.4987905e-001
-2.7919719e-001
-2.8696844e-001
-2.3202321e-001
-1.5714028e-001
-4.7903921e-002
6.8962052e-002
1.4928724e-001
2.2220664e-001
1.3877572e-001
3.4593903e-002
-1.4225285e-001
-3.0707109e-001
-3.6359063e-001
-3.7772414e-001
-2.7596861e-001
-1.6178355e-001
-4.5315795e-002
4.2050868e-002
7.3915102e-002
9.4737053e-002
1.0786992e-001
1.5290460e-001
2.3477443e-001
3.1575179e-001
3.9250296e-001
3.9237171e-001
3.3897537e-001
2.1638945e-001
5.9112370e-002
-8.1540108e-002
-2.1352965e-001
-2.7801555e-001
-3.2114881e-001
-2.9500219e-001
-2.5321969e-001
-1.8786973e-001
-1.2398897e-001
-1.5532604e-001
-2.1545328e-001
-3.8824061e-001
-5.7100952e-001
-7.2504610e-001
-8.4341174e-001
-8.6684752e-001
-8.6347920e-001
-8.3211619e-001
-7.9076040e-001
-7.3974639e-001
-6.4822572e-001
-5.0585288e-001
-3.3623916e-001
-1.4610860e-001
-2.9691644e-003
9.9448100e-002
1.5577365e-001
1.8556917e-001
1.9808252e-001
2.0304091e-001
1.3596329e-001
3.9211448e-002
-1.0585767e-001
-2.6571482e-001
-3.3595115e-001
-3.8285080e-001
-3.4128228e-001
-2.8626421e-001
-2.6191497e-001
-2.5371549e-001
-3.0086800e-001
-3.5532373e-001
-3.9899448e-001
-4.1650411e-001
-3.7474120e-001
-3.1181321e-001
-2.3165441e-001
-1.7140029e-001
-1.4404023e-001
-1.4554371e-001
-1.7157942e-001
-2.0805541e-001
-2.5074738e-001
-2.9049659e-001
-3.2867041e-001
-3.6397591e-001
-3.9874914e-001
-4.4577450e-001
-4.9991983e-001
-5.6812817e-001
-6.4074600e-001
-6.9369739e-001
-7.3805368e-001
-7.4275023e-001
-7.3498625e-001
-7.0841771e-001
-6.7673093e-001
-6.4832550e-001
-6.2429249e-001
-6.2351674e-001
-6.2721497e-001
-6.3164532e-001
-6.2253201e-001
-5.7503009e-001
-5.1203281e-001
-4.2838037e-001
-3.6143634e-001
-3.2486129e-001
-3.3498651e-001
-3.9410365e-001
-4.7559601e-001
-5.7034910e-001
-6.2622136e-001
-6.5208846e-001
-6.3626164e-001
-5.9710097e-001
-5.8965522e-001
-5.9834033e-001
-6.5558082e-001
-7.3223817e-001
-7.8534532e-001
-8.2642764e-001
-8.0794972e-001
-7.6833707e-001
-7.4205154e-001
-7.3399001e-001
-7.9444546e-001
-8.8212103e-001
-9.6040553e-001
-1.0172739e+000
-1.0186372e+000
-1.0012246e+000
-9.8998141e-001
-9.8496681e-001
-9.9786091e-001
-9.8509872e-001
-9.3893439e-001
-8.5301781e-001
-7.2783411e-001
-6.1858600e-001
-5.2180642e-001
-4.4824213e-001
-3.9108080e-001
-3.5228959e-001
-3.2646754e-001
-3.5395992e-001
-4.0777320e-001
-4.7069079e-001
-5.3338492e-001
-5.7241166e-001
-6.0109425e-001
-6.4225221e-001
-6.9069904e-001
-7.4041867e-001
-7.8931826e-001
-8.1576014e-001
-8.3464670e-001
-8.5228127e-001
-8.6494517e-001
-8.7530249e-001
-8.6439300e-001
-8.3342510e-001
-7.6764238e-001
-6.6981643e-001
-5.7234210e-001
-4.6657270e-001
-4.0649909e-001
-3.7808332e-001
-3.6915350e-001
-3.7807754e-001
-3.7803829e-001
-3.7669376e-001
-3.1119305e-001
-2.1109703e-001
-5.5979405e-002
1.1854276e-001
1.6840191e-001
1.4223461e-001
1.3677109e-002
-1.4947394e-001
-2.5529659e-001
-3.1127360e-001
-3.0040091e-001
-2.4989295e-001
-1.4741954e-001
-6.0137779e-002
-3.2307971e-002
-7.6564014e-002
-2.2475161e-001
-3.8890895e-001
-5.3255403e-001
-6.0862541e-001
-6.0812974e-001
-5.6772357e-001
-5.0436676e-001
-4.2992201e-001
-3.4882864e-001
-2.3258579e-001
-9.4573632e-002
5.1744834e-002
1.9799787e-001
2.6736552e-001
2.9367042e-001
2.4474807e-001
1.6578095e-001
1.0386544e-001
6.3379914e-002
5.5914626e-002
8.7555237e-002
2.1614370e-001
4.0584829e-001
6.3207221e-001
8.0086273e-001
7.8241068e-001
6.3005197e-001
4.0024930e-001
1.9661000e-001
8.5648067e-002
2.1845829e-002
-1.4228541e-001
-3.2601556e-001
-4.5269722e-001
-3.9857435e-001
-1.6062999e-001
1.4391738e-001
4.6828610e-001
5.9416187e-001
5.4837698e-001
4.7147503e-001
3.9129782e-001
4.2986798e-001
5.4505116e-001
4.8327053e-001
2.9335237e-001
-3.3392102e-002
-4.0094799e-001
-5.3077769e-001
-4.2266351e-001
3.0012161e-002
7.3561358e-001
1.7501515e+000
2.8591943e+000
3.7896194e+000
4.6178918e+000
5.3832498e+000
6.3433552e+000
7.6907210e+000
9.6269569e+000
1.2245557e+001
1.5348951e+001
1.8809713e+001
2.2009720e+001
2.4719070e+001
2.7207022e+001
2.9572720e+001
3.2555874e+001
3.6190151e+001
4.0324547e+001
4.4833199e+001
4.8733650e+001
5.2089527e+001
5.5462208e+001
5.8901142e+001
6.2847191e+001
6.7149422e+001
7.1357796e+001
7.5456299e+001
7.9310051e+001
8.2919289e+001
8.6224182e+001
8.9244057e+001
9.1988716e+001
9.4435760e+001
9.6596527e+001
9.7991852e+001
9.8328575e+001
9.7758087e+001
9.6478676e+001
9.4667542e+001
9.2463730e+001
8.9567902e+001
8.5964005e+001
8.1996635e+001
7.7849342e+001
7.3792717e+001
6.9858780e+001
6.5744080e+001
6.1421547e+001
5.7107563e+001
5.2829166e+001
4.8752399e+001
4.4908527e+001
4.1434841e+001
3.8367161e+001
3.5748001e+001
3.3560436e+001
3.1683031e+001
3.0108580e+001
2.8774136e+001
2.7659491e+001
2.6688999e+001
2.5846642e+001
2.5098000e+001
2.4468897e+001
2.3975447e+001
2.3674229e+001
2.3578646e+001
2.3719940e+001
2.4083643e+001
2.4730661e+001
2.5672115e+001
2.6817150e+001
2.8150377e+001
2.9408459e+001
3.0540319e+001
3.1574114e+001
3.2511284e+001
3.3659729e+001
3.5096066e+001
3.7211742e+001
3.9941715e+001
4.2485703e+001
4.4731068e+001
4.6287735e+001
4.7283234e+001
4.8251213e+001
4.9244736e+001
5.0392250e+001
5.1416779e+001
5.2016506e+001
5.2038429e+001
5.1367832e+001
5.0374165e+001
4.9362671e+001
4.8358627e+001
4.7383801e+001
4.6291882e+001
4.5019806e+001
4.3411098e+001
4.1437435e+001
3.9384987e+001
3.7326988e+001
3.5369362e+001
3.3487980e+001
3.1112200e+001
2.8076435e+001
2.4926270e+001
2.1750202e+001
1.9125494e+001
1.7123751e+001
1.5191000e+001
1.3302147e+001
1.1363551e+001
9.3795080e+000
7.4351535e+000
5.5603342e+000
3.7896581e+000
2.2566583e+000
1.0608873e+000
2.9001975e-001
7.4768588e-002
4.6762246e-001
1.4024446e+000
2.4479201e+000
3.3720107e+000
4.2084308e+000
4.9051280e+000
5.6518011e+000
6.5282683e+000
7.3062429e+000
7.9046402e+000
8.0986681e+000
7.7364097e+000
7.2505412e+000
6.6347065e+000
6.0457072e+000
5.4966526e+000
5.0125661e+000
4.6128507e+000
4.3089314e+000
4.0728483e+000
3.7993107e+000
3.4527235e+000
3.0219917e+000
2.5731320e+000
2.2080793e+000
1.9678937e+000
1.8746852e+000
1.8837829e+000
1.9654428e+000
2.0753171e+000
2.1847379e+000
2.3494742e+000
2.5740843e+000
2.8740525e+000
3.2685864e+000
3.7077928e+000
4.2172866e+000
4.7240520e+000
5.2202802e+000
5.6335716e+000
5.9060688e+000
6.0598340e+000
6.0518436e+000
5.9724274e+000
5.7909150e+000
5.5527558e+000
5.2404575e+000
4.9230137e+000
4.5974126e+000
4.2969089e+000
3.9915137e+000
3.6610999e+000
3.3026438e+000
2.9140623e+000
2.5197935e+000
2.1203756e+000
1.7086315e+000
1.2923309e+000
8.9319742e-001
5.4897130e-001
2.8046858e-001
1.1111928e-001
9.7856941e-003
-1.0654608e-002
1.2847893e-002
1.6216481e-001
3.8222489e-001
7.1727413e-001
1.0107298e+000
1.2124656e+000
1.2662262e+000
1.1088206e+000
9.2992473e-001
7.4396348e-001
6.6008335e-001
7.0970792e-001
8.5983527e-001
1.1131519e+000
1.4029777e+000
1.7039000e+000
1.9470972e+000
2.1242661e+000
2.1978693e+000
2.2008519e+000
2.1488006e+000
2.0716960e+000
1.9994440e+000
1.9394863e+000
1.9230741e+000
1.9356999e+000
2.0038743e+000
2.0908425e+000
2.2013481e+000
2.3125041e+000
2.4204779e+000
2.5239866e+000
2.6226411e+000
2.7086668e+000
2.7704539e+000
2.8351014e+000
2.9030418e+000
3.0046022e+000
3.1552353e+000
3.3231535e+000
3.5211785e+000
3.7340868e+000
3.9861579e+000
4.3062139e+000
4.7038903e+000
5.1575799e+000
5.6562567e+000
6.1613364e+000
6.6772556e+000
7.2149310e+000
7.7697754e+000
8.3548002e+000
8.9467297e+000
9.5301533e+000
1.0088665e+001
1.0570900e+001
1.0982736e+001
1.1211640e+001
1.1345280e+001
1.1229172e+001
1.1046322e+001
1.0687845e+001
1.0287037e+001
9.7852583e+000
9.2490940e+000
8.6495142e+000
8.0604744e+000
7.4955816e+000
6.9776015e+000
6.5225911e+000
6.0748487e+000
5.6291919e+000
5.1501379e+000
4.6319418e+000
4.0712891e+000
3.4773002e+000
2.8732080e+000
2.2851999e+000
1.7891140e+000
1.3664126e+000
1.0813365e+000
8.5875064e-001
7.0916605e-001
5.8479762e-001
4.9292549e-001
4.2485401e-001
4.3361482e-001
4.6418482e-001
5.6313819e-001
6.4376932e-001
6.7001396e-001
6.7175663e-001
6.1630821e-001
5.7188410e-001
5.4747790e-001
5.2086657e-001
4.8560011e-001
4.2330399e-001
3.2504782e-001
2.2248819e-001
1.1917696e-001
3.5878036e-002
-1.9118037e-002
-1.4423665e-002
4.3303505e-002
1.7667314e-001
3.5132980e-001
5.8673406e-001
8.4783781e-001
1.1200372e+000
1.4026742e+000
1.7222729e+000
2.0559580e+000
2.4299960e+000
2.8047967e+000
3.1642585e+000
3.5076885e+000
3.7844429e+000
4.0505314e+000
4.2859631e+000
4.5475850e+000
4.8764815e+000
5.2349086e+000
5.6468754e+000
6.0372686e+000
6.3935857e+000
6.7404342e+000
7.0822277e+000
7.4688969e+000
7.8998628e+000
8.3363361e+000
8.7657824e+000
9.1184998e+000
9.4087200e+000
9.5826340e+000
9.6941280e+000
9.7337360e+000
9.7553139e+000
9.8113918e+000
9.8846912e+000
1.0024093e+001
1.0172520e+001
1.0318074e+001
1.0446991e+001
1.0462000e+001
1.0441428e+001
1.0258074e+001
1.0027679e+001
9.6440992e+000
9.2112885e+000
8.6621389e+000
8.1234341e+000
7.6143317e+000
7.1993203e+000
6.9235411e+000
6.6843100e+000
6.4789124e+000
6.2049694e+000
5.8684969e+000
5.5213003e+000
5.1730824e+000
4.8925815e+000
4.6484966e+000
4.4124894e+000
4.1758256e+000
3.8930628e+000
3.5961742e+000
3.2804189e+000
2.9630506e+000
2.6658120e+000
2.3726492e+000
2.1089189e+000
1.8448843e+000
1.5780799e+000
1.3077338e+000
1.0218099e+000
7.3713088e-001
4.5856130e-001
1.9884928e-001
-1.5443012e-002
-1.9582772e-001
-3.1831154e-001
-4.3010300e-001
-5.2613842e-001
-5.7996100e-001
-5.8271712e-001
-4.6187517e-001
-2.4191798e-001
-6.6960305e-003
2.3057389e-001
3.4857398e-001
4.1119710e-001
4.4671831e-001
4.7482467e-001
5.1570791e-001
5.5679810e-001
5.2937680e-001
4.9091840e-001
3.8165379e-001
2.6849550e-001
1.3910235e-001
2.1492938e-002
-2.1236539e-003
-6.3036643e-002
-1.1984590e-002
5.0761655e-002
1.4727515e-001
2.5282404e-001
3.7840921e-001
5.3623486e-001
7.4477875e-001
9.3006539e-001
1.0842515e+000
1.1118674e+000
1.0201725e+000
7.7539098e-001
4.2233586e-001
5.3100884e-003
-4.4581172e-001
-7.6812041e-001
-1.0423864e+000
-1.0540869e+000
-9.9856174e-001
-7.5423628e-001
-4.8024085e-001
-1.5230000e-001
