Image.
>Pix99999.
  .
5555
5555
2300
900
5555
2
1
0
701
5555
-2.6711000e-002
-2.7267205e-002
-2.7822411e-002
-2.8378611e-002
-2.8933823e-002
-2.9490022e-002
-3.0046226e-002
-3.0601440e-002
-3.1156646e-002
-3.1712841e-002
-3.2268059e-002
-3.2823265e-002
-3.3379450e-002
-3.3938598e-002
-3.4490939e-002
-3.5036299e-002
-3.5602041e-002
-3.6198478e-002
-3.6714755e-002
-3.7120063e-002
-3.7820715e-002
-3.8936131e-002
-3.8954504e-002
-3.7425917e-002
-3.9974667e-002
-4.3329179e-002
-1.6138572e-003
1.1845762e-001
2.5143719e-001
3.2306522e-001
3.3613312e-001
3.1505775e-001
2.8170016e-001
2.5693840e-001
2.6128927e-001
3.1006750e-001
3.9775428e-001
5.1069474e-001
6.2706703e-001
7.2605330e-001
8.0042398e-001
8.5013688e-001
8.8767481e-001
9.2942262e-001
9.9243695e-001
1.0899773e+000
1.2190717e+000
1.3667890e+000
1.4990966e+000
1.5808260e+000
1.5977215e+000
1.5510375e+000
1.4772235e+000
1.4191006e+000
1.4006803e+000
1.4338692e+000
1.5061680e+000
1.5986376e+000
1.6969137e+000
1.7918181e+000
1.8889428e+000
1.9975318e+000
2.1217577e+000
2.2578430e+000
2.3784111e+000
2.4544330e+000
2.4839239e+000
2.4794273e+000
2.4759912e+000
2.5063486e+000
2.5649600e+000
2.6331911e+000
2.6930418e+000
2.7334058e+000
2.7675374e+000
2.8117251e+000
2.8575165e+000
2.8879540e+000
2.8877234e+000
2.8503060e+000
2.8015802e+000
2.7752078e+000
2.7892745e+000
2.8489692e+000
2.9315000e+000
3.0083835e+000
3.0701408e+000
3.1182208e+000
3.1686761e+000
3.2361126e+000
3.3084400e+000
3.3651280e+000
3.3932195e+000
3.3884225e+000
3.3695395e+000
3.3611822e+000
3.3763492e+000
3.4193871e+000
3.4779298e+000
3.5351667e+000
3.5832286e+000
3.6201923e+000
3.6551147e+000
3.6990049e+000
3.7533798e+000
3.8148248e+000
3.8750293e+000
3.9248476e+000
3.9596012e+000
3.9775176e+000
3.9811642e+000
3.9749210e+000
3.9637041e+000
3.9517372e+000
3.9405077e+000
3.9298415e+000
3.9191730e+000
3.9082384e+000
3.8980856e+000
3.8919179e+000
3.8991201e+000
3.9293365e+000
3.9822831e+000
4.0503945e+000
4.1125007e+000
4.1467748e+000
4.1500139e+000
4.1303635e+000
4.1063251e+000
4.0975766e+000
4.1098728e+000
4.1408620e+000
4.1799192e+000
4.2139869e+000
4.2327328e+000
4.2304535e+000
4.2139721e+000
4.1944556e+000
4.1773529e+000
4.1624789e+000
4.1364799e+000
4.0843029e+000
4.0073142e+000
3.9161417e+000
3.8278971e+000
3.7581472e+000
3.7051077e+000
3.6587551e+000
3.6075635e+000
3.5424020e+000
3.4651000e+000
3.3844728e+000
3.3167405e+000
3.2791228e+000
3.2788961e+000
3.3142564e+000
3.3643668e+000
3.4026845e+000
3.4157426e+000
3.3999882e+000
3.3656631e+000
3.3261230e+000
3.2818532e+000
3.2269592e+000
3.1572201e+000
3.0725901e+000
2.9854314e+000
2.9130228e+000
2.8664761e+000
2.8503006e+000
2.8554685e+000
2.8652816e+000
2.8597801e+000
2.8211381e+000
2.7465558e+000
2.6447251e+000
2.5402229e+000
2.4602561e+000
2.4103069e+000
2.3808928e+000
2.3476086e+000
2.2851396e+000
2.1928220e+000
2.0855093e+000
1.9864503e+000
1.9179193e+000
1.8835024e+000
1.8747213e+000
1.8772182e+000
1.8759910e+000
1.8642443e+000
1.8391856e+000
1.7950143e+000
1.7262542e+000
1.6383634e+000
1.5443085e+000
1.4618840e+000
1.4069738e+000
1.3774340e+000
1.3602358e+000
1.3389286e+000
1.2974551e+000
1.2255898e+000
1.1208050e+000
1.0004811e+000
8.9277601e-001
8.2346886e-001
8.0907172e-001
8.3564645e-001
8.7100387e-001
8.7950498e-001
8.3202243e-001
7.2962022e-001
5.9487289e-001
4.6647140e-001
3.8410285e-001
3.5711285e-001
3.7286291e-001
4.0522587e-001
4.2509028e-001
4.1774115e-001
3.7793040e-001
3.0075821e-001
1.8337995e-001
3.5446644e-002
-1.2144171e-001
-2.4707067e-001
-2.9891524e-001
-2.7212679e-001
-1.9076478e-001
-9.7732611e-002
-3.8652990e-002
-3.0216582e-002
-6.5581843e-002
-1.1912225e-001
-1.5867543e-001
-1.6696943e-001
-1.4189628e-001
-1.0148176e-001
-7.3680103e-002
-7.7805310e-002
-1.2160248e-001
-1.9215629e-001
-2.6431885e-001
-3.1528628e-001
-3.3156699e-001
-3.2804406e-001
-3.3537421e-001
-3.7161097e-001
-4.3842128e-001
-5.1136786e-001
-5.5371332e-001
-5.4701120e-001
-4.9247032e-001
-4.1506949e-001
-3.5026157e-001
-3.1514505e-001
-3.0906081e-001
-3.1641018e-001
-3.1616822e-001
-3.0153543e-001
-2.7531180e-001
-2.3367152e-001
-1.7025298e-001
-9.4950445e-002
-2.7458102e-002
2.4189178e-002
5.4509711e-002
2.3936994e-002
-1.1579123e-001
-3.3390987e-001
-5.5060476e-001
-7.4007624e-001
-9.1955984e-001
-1.0850222e+000
-1.2138929e+000
-1.3008085e+000
-1.3580056e+000
-1.4063591e+000
-1.4623872e+000
-1.5039800e+000
-1.4831173e+000
-1.3692609e+000
-1.1582310e+000
-8.8620025e-001
-6.1321843e-001
-3.7857950e-001
-1.9266409e-001
-2.4535205e-002
1.8748221e-001
5.1364142e-001
1.0076694e+000
1.6347070e+000
2.3046432e+000
2.9947939e+000
3.7588956e+000
4.7095203e+000
6.0178289e+000
7.9580216e+000
1.0793874e+001
1.4377286e+001
1.8222481e+001
2.1871157e+001
2.5029385e+001
2.7824348e+001
3.0715607e+001
3.4161659e+001
3.8439610e+001
4.3205643e+001
4.7708138e+001
5.1657356e+001
5.5264225e+001
5.8910343e+001
6.2965706e+001
6.7430229e+001
7.1992004e+001
7.6400993e+001
8.0520157e+001
8.4237823e+001
8.7451981e+001
9.0091576e+001
9.2130081e+001
9.3618858e+001
9.4664940e+001
9.5344315e+001
9.5686783e+001
9.5687912e+001
9.5309334e+001
9.4451988e+001
9.2980774e+001
9.0824440e+001
8.8002571e+001
8.4660919e+001
8.1017029e+001
7.7148277e+001
7.2992996e+001
6.8528244e+001
6.3814487e+001
5.9008610e+001
5.4335312e+001
4.9971142e+001
4.6023045e+001
4.2548973e+001
3.9560947e+001
3.7007721e+001
3.4792171e+001
3.2855175e+001
3.1184895e+001
2.9777344e+001
2.8624027e+001
2.7700500e+001
2.6969919e+001
2.6413343e+001
2.6033243e+001
2.5830156e+001
2.5791714e+001
2.5882275e+001
2.6051531e+001
2.6286846e+001
2.6625780e+001
2.7133200e+001
2.7883921e+001
2.8907564e+001
3.0176260e+001
3.1614521e+001
3.3107552e+001
3.4535824e+001
3.5833652e+001
3.7197964e+001
3.9041958e+001
4.1529415e+001
4.4459541e+001
4.7362358e+001
4.9639118e+001
5.1102562e+001
5.2024002e+001
5.2612564e+001
5.2904831e+001
5.2917202e+001
5.2682373e+001
5.2229256e+001
5.1575657e+001
5.0725883e+001
4.9673061e+001
4.8420509e+001
4.6986500e+001
4.5384670e+001
4.3625469e+001
4.1745770e+001
3.9814529e+001
3.7905758e+001
3.6066311e+001
3.4207958e+001
3.2105705e+001
2.9616972e+001
2.6763172e+001
2.3762342e+001
2.0987707e+001
1.8618977e+001
1.6560381e+001
1.4655286e+001
1.2759333e+001
1.0819729e+001
8.8907719e+000
7.0448332e+000
5.3475013e+000
3.8607280e+000
2.6329169e+000
1.6559348e+000
8.7463665e-001
3.3256727e-001
1.9022249e-001
5.2139497e-001
1.2455707e+000
2.1915007e+000
3.1307395e+000
3.9143600e+000
4.5184684e+000
4.9753828e+000
5.3584080e+000
5.7613001e+000
6.2727232e+000
6.8712883e+000
7.4026761e+000
7.7468405e+000
7.8736253e+000
7.8040009e+000
7.5957761e+000
7.2832975e+000
6.8585739e+000
6.3065472e+000
5.6227436e+000
4.8485990e+000
4.0804543e+000
3.3995800e+000
2.8463807e+000
2.4354532e+000
2.1603494e+000
2.0259888e+000
2.0558457e+000
2.2589657e+000
2.6148000e+000
3.0773177e+000
3.5778942e+000
4.0679092e+000
4.5333447e+000
4.9630966e+000
5.3385386e+000
5.6352921e+000
5.8286004e+000
5.9226642e+000
5.9623775e+000
5.9900894e+000
6.0267434e+000
6.0653343e+000
6.0663400e+000
5.9960771e+000
5.8403864e+000
5.5907731e+000
5.2431545e+000
4.8085313e+000
4.3204007e+000
3.8247201e+000
3.3714583e+000
2.9705932e+000
2.5717564e+000
2.1257324e+000
1.6134984e+000
1.0662341e+000
5.7721615e-001
2.2150847e-001
2.1044776e-002
-2.8228298e-002
4.6755515e-002
2.1126972e-001
4.2623323e-001
6.5103161e-001
8.4678578e-001
9.9044019e-001
1.0847478e+000
1.1435800e+000
1.1871583e+000
1.2227808e+000
1.2360309e+000
1.2176903e+000
1.1767886e+000
1.1335286e+000
1.1179032e+000
1.1492131e+000
1.2243141e+000
1.3286101e+000
1.4370885e+000
1.5279051e+000
1.5893893e+000
1.6191255e+000
1.6265435e+000
1.6257828e+000
1.6332610e+000
1.6600757e+000
1.7067999e+000
1.7708715e+000
1.8498857e+000
1.9489217e+000
2.0853026e+000
2.2735200e+000
2.5167899e+000
2.8041623e+000
3.1050394e+000
3.3875623e+000
3.6280715e+000
3.8166158e+000
3.9656510e+000
4.1001744e+000
4.2573791e+000
4.4696894e+000
4.7532740e+000
5.1105208e+000
5.5259123e+000
5.9858460e+000
6.4889045e+000
7.0392742e+000
7.6454535e+000
8.3098373e+000
9.0204821e+000
9.7604485e+000
1.0508500e+001
1.1241237e+001
1.1935137e+001
1.2567532e+001
1.3120723e+001
1.3584171e+001
1.3956670e+001
1.4226040e+001
1.4356238e+001
1.4308386e+001
1.4050407e+001
1.3576914e+001
1.2934152e+001
1.2186791e+001
1.1411120e+001
1.0669001e+001
9.9857635e+000
9.3700590e+000
8.8138895e+000
8.3091936e+000
7.8547978e+000
7.4447160e+000
7.0587907e+000
6.6666880e+000
6.2259445e+000
5.7049003e+000
5.1025419e+000
4.4394326e+000
3.7656841e+000
3.1305065e+000
2.5645878e+000
2.0860600e+000
1.6943254e+000
1.3868766e+000
1.1655225e+000
1.0287681e+000
9.6539247e-001
9.5826864e-001
9.8280036e-001
1.0171446e+000
1.0496179e+000
1.0724397e+000
1.0805510e+000
1.0684074e+000
1.0284157e+000
9.5649886e-001
8.5737777e-001
7.3774958e-001
6.0358560e-001
4.5985579e-001
3.1050822e-001
1.6691723e-001
5.7204291e-002
4.1237823e-003
7.9031996e-003
5.8775119e-002
1.3658011e-001
2.2364223e-001
3.1498605e-001
4.1665697e-001
5.5282897e-001
7.4291003e-001
9.8318994e-001
1.2543679e+000
1.5142455e+000
1.7302586e+000
1.9074094e+000
2.0667753e+000
2.2451158e+000
2.4670722e+000
2.7184200e+000
2.9781492e+000
3.2325883e+000
3.4831634e+000
3.7637327e+000
4.1057572e+000
4.5139127e+000
4.9791560e+000
5.4744582e+000
5.9712400e+000
6.4488001e+000
6.8893247e+000
7.2774611e+000
7.6025252e+000
7.8642879e+000
8.0629129e+000
8.1938114e+000
8.2552052e+000
8.2566776e+000
8.2165575e+000
8.1689720e+000
8.1401758e+000
8.1251516e+000
8.1088228e+000
8.0695601e+000
7.9919572e+000
7.8811431e+000
7.7438593e+000
7.5775518e+000
7.3767228e+000
7.1361146e+000
6.8559003e+000
6.5533509e+000
6.2508044e+000
5.9737802e+000
5.7402401e+000
5.5442500e+000
5.3684311e+000
5.1785049e+000
4.9442716e+000
4.6598592e+000
4.3280096e+000
3.9600999e+000
3.5698423e+000
3.1718140e+000
2.7825856e+000
2.4243102e+000
2.1164217e+000
1.8659503e+000
1.6727720e+000
1.5233686e+000
1.3963314e+000
1.2563471e+000
1.0745184e+000
8.5225749e-001
6.0400790e-001
3.5957271e-001
1.4453435e-001
-4.1243881e-002
-2.0394495e-001
-3.4879941e-001
-4.7874850e-001
-5.9009582e-001
-6.7475897e-001
-7.1567923e-001
-6.9293118e-001
-5.8510822e-001
-3.8130608e-001
-1.0739464e-001
1.9732007e-001
4.7901249e-001
6.8922251e-001
8.1036711e-001
8.4161484e-001
8.1351250e-001
7.6122427e-001
7.0856678e-001
6.6318196e-001
5.8665299e-001
4.4857019e-001
2.8649142e-001
1.3981611e-001
-5.0209016e-003
-1.5600064e-001
-2.5420132e-001
-2.4787313e-001
-1.7146891e-001
-7.0564456e-002
4.7065869e-002
1.8497527e-001
3.5376143e-001
5.5924356e-001
7.8293157e-001
9.9668026e-001
1.1590430e+000
1.2369614e+000
1.2406240e+000
1.1957943e+000
1.1431489e+000
1.1183231e+000
1.1211051e+000
1.1356159e+000
1.1206833e+000
1.0468431e+000
9.5713657e-001
9.1280001e-001
