Image.
>Pix99999.
  .
5555
5555
2300
900
5555
2
1
0
701
5555
3.5429999e-002
3.6166947e-002
3.6903892e-002
3.7640836e-002
3.8377784e-002
3.9114729e-002
3.9851673e-002
4.0588621e-002
4.1325565e-002
4.2063497e-002
4.2800456e-002
4.3537404e-002
4.4274349e-002
4.5010313e-002
4.5748223e-002
4.6488121e-002
4.7222201e-002
4.7951270e-002
4.8696794e-002
4.9465101e-002
5.0171826e-002
5.0789520e-002
5.1640972e-002
5.2823737e-002
5.3134367e-002
5.0738107e-002
4.2680394e-002
3.1623267e-002
4.4090562e-002
1.0276727e-001
1.8769957e-001
2.7169868e-001
3.4758309e-001
4.1624403e-001
4.8732591e-001
5.6486148e-001
6.2011564e-001
6.2304205e-001
5.7717341e-001
5.0280261e-001
4.4751430e-001
4.5150897e-001
4.9263319e-001
5.3428400e-001
5.5794448e-001
5.6347710e-001
6.0194427e-001
7.2577083e-001
9.2968017e-001
1.1828275e+000
1.4243071e+000
1.5964255e+000
1.6912663e+000
1.7208223e+000
1.7139329e+000
1.7001157e+000
1.6928359e+000
1.7009345e+000
1.7350841e+000
1.8044894e+000
1.9089772e+000
2.0407054e+000
2.1732554e+000
2.2771831e+000
2.3364532e+000
2.3458543e+000
2.3248343e+000
2.3020728e+000
2.3094702e+000
2.3707154e+000
2.4716201e+000
2.5822906e+000
2.6598091e+000
2.6699080e+000
2.6283474e+000
2.5697391e+000
2.5322783e+000
2.5447869e+000
2.5945163e+000
2.6534626e+000
2.6904027e+000
2.6800630e+000
2.6244340e+000
2.5390291e+000
2.4544921e+000
2.4028435e+000
2.3998191e+000
2.4483643e+000
2.5244434e+000
2.5960238e+000
2.6401186e+000
2.6428640e+000
2.6128819e+000
2.5678177e+000
2.5278370e+000
2.5098951e+000
2.5160971e+000
2.5416923e+000
2.5774200e+000
2.6155691e+000
2.6595714e+000
2.7145190e+000
2.7738717e+000
2.8260102e+000
2.8592131e+000
2.8672700e+000
2.8681545e+000
2.8860748e+000
2.9332771e+000
3.0111225e+000
3.0986772e+000
3.1661148e+000
3.1856921e+000
3.1379404e+000
3.0353932e+000
2.9057322e+000
2.7865224e+000
2.7103159e+000
2.6745391e+000
2.6610510e+000
2.6479487e+000
2.6170635e+000
2.5700619e+000
2.5186195e+000
2.4818521e+000
2.4783642e+000
2.5136681e+000
2.5835116e+000
2.6665120e+000
2.7376318e+000
2.7841556e+000
2.8015730e+000
2.7941439e+000
2.7694631e+000
2.7327466e+000
2.6885750e+000
2.6441069e+000
2.6058218e+000
2.5723467e+000
2.5383310e+000
2.4983799e+000
2.4504910e+000
2.4056649e+000
2.3785782e+000
2.3738205e+000
2.3885472e+000
2.4103656e+000
2.4236319e+000
2.4178565e+000
2.3875203e+000
2.3372357e+000
2.2771311e+000
2.2203515e+000
2.1786838e+000
2.1519139e+000
2.1335423e+000
2.1142573e+000
2.0853651e+000
2.0458574e+000
1.9996121e+000
1.9564772e+000
1.9280350e+000
1.9218620e+000
1.9389608e+000
1.9602799e+000
1.9602321e+000
1.9264311e+000
1.8594451e+000
1.7826240e+000
1.7250853e+000
1.6923329e+000
1.6759757e+000
1.6622400e+000
1.6397527e+000
1.6145639e+000
1.6007249e+000
1.6080062e+000
1.6402892e+000
1.6891754e+000
1.7393421e+000
1.7726514e+000
1.7734978e+000
1.7403680e+000
1.6815667e+000
1.6150640e+000
1.5611292e+000
1.5301100e+000
1.5227939e+000
1.5224268e+000
1.5052451e+000
1.4559872e+000
1.3712850e+000
1.2748880e+000
1.2022803e+000
1.1769931e+000
1.2091336e+000
1.2856280e+000
1.3835380e+000
1.4888908e+000
1.5938206e+000
1.6887143e+000
1.7633456e+000
1.8104322e+000
1.8274220e+000
1.8242023e+000
1.8154651e+000
1.8068014e+000
1.7981727e+000
1.7908206e+000
1.7879583e+000
1.7955101e+000
1.8178313e+000
1.8475417e+000
1.8703969e+000
1.8735229e+000
1.8497128e+000
1.8099686e+000
1.7733780e+000
1.7478892e+000
1.7314112e+000
1.7124629e+000
1.6782917e+000
1.6315937e+000
1.5856808e+000
1.5575920e+000
1.5623322e+000
1.5995257e+000
1.6576078e+000
1.7181177e+000
1.7619593e+000
1.7826957e+000
1.7817069e+000
1.7600456e+000
1.7169759e+000
1.6496723e+000
1.5576057e+000
1.4550291e+000
1.3641093e+000
1.2984740e+000
1.2611576e+000
1.2378343e+000
1.2060763e+000
1.1565599e+000
1.0925446e+000
1.0312777e+000
9.9261647e-001
9.7104597e-001
9.4467324e-001
8.9771146e-001
8.2554734e-001
7.4606216e-001
6.8858975e-001
6.6872960e-001
6.8711936e-001
7.2685182e-001
7.6026595e-001
7.5934738e-001
7.0275253e-001
5.9476036e-001
4.5839021e-001
3.2164714e-001
2.1073118e-001
1.3787606e-001
1.0263610e-001
9.2219211e-002
8.8436931e-002
8.2598895e-002
6.9490120e-002
2.4142971e-002
-8.2899764e-002
-2.3151900e-001
-3.7036669e-001
-4.7907472e-001
-5.6700027e-001
-6.5257561e-001
-7.5400645e-001
-8.7534970e-001
-1.0065948e+000
-1.1230220e+000
-1.1933273e+000
-1.2003400e+000
-1.1431777e+000
-1.0415540e+000
-9.2508125e-001
-8.0445361e-001
-6.7213798e-001
-5.1201546e-001
-3.0856878e-001
-6.8656534e-002
1.9096819e-001
4.9093175e-001
8.6844605e-001
1.2898886e+000
1.6825216e+000
2.0720580e+000
2.5808380e+000
3.3779790e+000
4.6636395e+000
6.6727748e+000
9.5773449e+000
1.3136571e+001
1.6803270e+001
2.0161783e+001
2.3036629e+001
2.5639452e+001
2.8449986e+001
3.1834944e+001
3.5909866e+001
4.0258919e+001
4.4160774e+001
4.7424469e+001
5.0387127e+001
5.3479332e+001
5.7045971e+001
6.1045914e+001
6.5131050e+001
6.9034737e+001
7.2629723e+001
7.5871529e+001
7.8777405e+001
8.1415314e+001
8.3884087e+001
8.6263161e+001
8.8562637e+001
9.0579376e+001
9.1970787e+001
9.2599670e+001
9.2551956e+001
9.1960823e+001
9.0947304e+001
8.9559196e+001
8.7784164e+001
8.5639023e+001
8.3167847e+001
8.0358177e+001
7.7150803e+001
7.3534798e+001
6.9567413e+001
6.5375870e+001
6.1138138e+001
5.7010654e+001
5.3112068e+001
4.9535072e+001
4.6339470e+001
4.3511639e+001
4.0978786e+001
3.8687531e+001
3.6618584e+001
3.4773548e+001
3.3165874e+001
3.1792000e+001
3.0628025e+001
2.9645573e+001
2.8816753e+001
2.8125565e+001
2.7568501e+001
2.7141119e+001
2.6837910e+001
2.6666632e+001
2.6650587e+001
2.6823971e+001
2.7222765e+001
2.7846451e+001
2.8651064e+001
2.9561680e+001
3.0485542e+001
3.1352642e+001
3.2158863e+001
3.3106995e+001
3.4556347e+001
3.6632530e+001
3.9139259e+001
4.1683350e+001
4.3793640e+001
4.5317402e+001
4.6462105e+001
4.7415775e+001
4.8256298e+001
4.9017582e+001
4.9694149e+001
5.0205715e+001
5.0415646e+001
5.0283714e+001
4.9888592e+001
4.9302483e+001
4.8558750e+001
4.7663605e+001
4.6604996e+001
4.5390244e+001
4.4054111e+001
4.2641399e+001
4.1181599e+001
3.9594643e+001
3.7689510e+001
3.5332878e+001
3.2523071e+001
2.9462229e+001
2.6527075e+001
2.3923943e+001
2.1601999e+001
1.9430429e+001
1.7259171e+001
1.5010134e+001
1.2700293e+001
1.0376959e+001
8.1067295e+000
5.9900861e+000
4.1484127e+000
2.6350822e+000
1.4290092e+000
5.8542311e-001
2.4770875e-001
4.2584658e-001
9.3844378e-001
1.5828162e+000
2.1982498e+000
2.7199502e+000
3.1937122e+000
3.6763997e+000
4.2000127e+000
4.7483802e+000
5.2503238e+000
5.6320610e+000
5.8402767e+000
5.8685927e+000
5.7659287e+000
5.5842214e+000
5.3590031e+000
5.1000686e+000
4.7850928e+000
4.3735285e+000
3.8199003e+000
3.1339388e+000
2.4013076e+000
1.7183700e+000
1.1675714e+000
7.9480135e-001
5.9890813e-001
5.6628734e-001
6.7897236e-001
9.1193599e-001
1.2327060e+000
1.6141568e+000
2.0402510e+000
2.5028737e+000
3.0003734e+000
3.5232859e+000
4.0488391e+000
4.5510921e+000
5.0059528e+000
5.4019074e+000
5.7438135e+000
6.0341783e+000
6.2650609e+000
6.4185205e+000
6.4672999e+000
6.3952007e+000
6.2059484e+000
5.9125171e+000
5.5356803e+000
5.1034427e+000
4.6516962e+000
4.2148700e+000
3.8173490e+000
3.4527836e+000
3.0734501e+000
2.6366706e+000
2.1278985e+000
1.5732532e+000
1.0488597e+000
6.1808985e-001
3.0435467e-001
1.0818892e-001
8.9411028e-003
-1.3584918e-002
2.7732614e-002
1.1594412e-001
2.2682846e-001
3.4568995e-001
4.7558784e-001
6.2188172e-001
7.8597021e-001
9.6086109e-001
1.1289980e+000
1.2808108e+000
1.4241443e+000
1.5717112e+000
1.7369757e+000
1.9269491e+000
2.1372252e+000
2.3572199e+000
2.5707531e+000
2.7611337e+000
2.9140813e+000
3.0215480e+000
3.0856771e+000
3.1161880e+000
3.1310151e+000
3.1491706e+000
3.1874712e+000
3.2556429e+000
3.3516526e+000
3.4673347e+000
3.5889461e+000
3.7058198e+000
3.8150156e+000
3.9185011e+000
4.0232353e+000
4.1337781e+000
4.2483969e+000
4.3625927e+000
4.4709640e+000
4.5771050e+000
4.7014184e+000
4.8705182e+000
5.1138840e+000
5.4493790e+000
5.8725700e+000
6.3717279e+000
6.9319587e+000
7.5423713e+000
8.1999798e+000
8.8989229e+000
9.6246080e+000
1.0362811e+001
1.1104750e+001
1.1847683e+001
1.2594604e+001
1.3338634e+001
1.4049206e+001
1.4686999e+001
1.5211434e+001
1.5587720e+001
1.5798609e+001
1.5835234e+001
1.5700714e+001
1.5408520e+001
1.4984709e+001
1.4457532e+001
1.3850350e+001
1.3185314e+001
1.2476504e+001
1.1741842e+001
1.0999028e+001
1.0263317e+001
9.5433483e+000
8.8448095e+000
8.1727066e+000
7.5290728e+000
6.9093986e+000
6.3058429e+000
5.7074218e+000
5.1097975e+000
4.5235629e+000
3.9611011e+000
3.4310286e+000
2.9418023e+000
2.5041962e+000
2.1351528e+000
1.8627040e+000
1.7067800e+000
1.6622714e+000
1.7060022e+000
1.7880266e+000
1.8558846e+000
1.8669807e+000
1.7965080e+000
1.6551020e+000
1.4692041e+000
1.2804776e+000
1.1237015e+000
1.0079250e+000
9.2699504e-001
8.5371923e-001
7.6150322e-001
6.3752753e-001
4.8148403e-001
3.1424636e-001
1.5884583e-001
3.2559738e-002
-4.0927745e-002
-2.1210857e-002
1.2146370e-001
3.8088512e-001
7.3242271e-001
1.1287949e+000
1.5262277e+000
1.9030681e+000
2.2537038e+000
2.5967331e+000
2.9506242e+000
3.3180618e+000
3.6885309e+000
4.0296249e+000
4.3144736e+000
4.5445552e+000
4.7378297e+000
4.9365077e+000
5.1806250e+000
5.4893732e+000
5.8680000e+000
6.2977638e+000
6.7515278e+000
7.1963596e+000
7.6067772e+000
7.9811645e+000
8.3282290e+000
8.6666708e+000
9.0078125e+000
9.3358040e+000
9.6297846e+000
9.8725538e+000
1.0053594e+001
1.0179440e+001
1.0257054e+001
1.0283936e+001
1.0261680e+001
1.0197092e+001
1.0103817e+001
1.0000209e+001
9.8978596e+000
9.7886114e+000
9.6555986e+000
9.4686737e+000
9.2042656e+000
8.8667536e+000
8.4781647e+000
8.0906649e+000
7.7504611e+000
7.4657454e+000
7.2263203e+000
6.9967360e+000
6.7455215e+000
6.4703789e+000
6.1751981e+000
5.8606834e+000
5.5225973e+000
5.1456842e+000
4.7211862e+000
4.2684627e+000
3.8121629e+000
3.3727491e+000
2.9628692e+000
2.5744400e+000
2.2024281e+000
1.8662971e+000
1.5842946e+000
1.3527994e+000
1.1566023e+000
9.6269572e-001
7.4647641e-001
5.2398878e-001
3.1811678e-001
1.4158483e-001
-1.0537654e-003
-1.2310764e-001
-2.3351583e-001
-3.1303859e-001
-3.4071681e-001
-3.1314218e-001
-2.3810001e-001
-1.4563376e-001
-6.1856560e-002
1.8739909e-002
1.1074400e-001
2.3262550e-001
3.9314014e-001
5.6491041e-001
7.1093041e-001
7.9240513e-001
7.8043282e-001
6.8224216e-001
5.2016640e-001
3.3796427e-001
1.7933862e-001
6.8773247e-002
1.6567793e-002
-8.5290521e-005
-1.6790982e-003
2.8944038e-002
1.0883486e-001
2.2073697e-001
3.4112966e-001
4.5497453e-001
5.5648667e-001
6.6618311e-001
8.0478585e-001
9.6897703e-001
1.1394898e+000
1.2596033e+000
1.2774314e+000
1.1948277e+000
1.0418113e+000
9.0396321e-001
8.6225033e-001
9.2572176e-001
1.0612600e+000
1.1409142e+000
1.0506594e+000
8.2669330e-001
5.4240000e-001
