##TITLE=Methyl Ethyl Ketone
##JCAMP-DX=4.24
##DATA TYPE=INFRARED SPECTRUM
##XUNITS=cm-1
##YUNITS=Absorbance
##FIRSTX=900
##LASTX=2300
##XYDATA=(X++(Y..Y))
2296 -0.032455001
2294 -0.033130035
2292 -0.033806067
2290 -0.034481101
2288 -0.035156138
2286 -0.035831172
2284 -0.036506206
2282 -0.03718124
2280 -0.037856273
2278 -0.038532294
2276 -0.039207343
2274 -0.039882377
2272 -0.040557411
2270 -0.041231465
2268 -0.041907459
2266 -0.042588387
2264 -0.043258663
2262 -0.043912116
2260 -0.044608053
2258 -0.045361482
2256 -0.04596097
2254 -0.046345629
2252 -0.047300391
2250 -0.049059287
2248 -0.048697915
2246 -0.039304357
2244 -0.0014469742
2242 0.077597864
2240 0.16946204
2238 0.23676121
2236 0.25261328
2234 0.201773
2232 0.10329247
2230 -0.011154467
2228 -0.098688722
2226 -0.122982
2224 -0.086991645
2222 -0.0086318254
2220 0.080128573
2218 0.14904973
2216 0.19106285
2214 0.20775561
2212 0.2075408
2210 0.20037439
2208 0.19452143
2206 0.1975847
2204 0.216786
2202 0.25435218
2200 0.29266164
2198 0.31073728
2196 0.29892784
2194 0.25715426
2192 0.20944166
2190 0.1829662
2188 0.18692246
2186 0.22193593
2184 0.277504
2182 0.34024394
2180 0.39910787
2178 0.44275883
2176 0.45552772
2174 0.42636612
2172 0.36898744
2170 0.3061052
2168 0.26391268
2166 0.26067543
2164 0.27836332
2162 0.28951412
2160 0.27776971
2158 0.23608813
2156 0.178967
2154 0.1272559
2152 0.098391838
2150 0.10676853
2148 0.16009849
2146 0.25872323
2144 0.38223806
2142 0.50431418
2140 0.60387474
2138 0.66638267
2136 0.69577599
2134 0.70095724
2132 0.68463469
2130 0.6479221
2128 0.59519678
2126 0.53401041
2124 0.47971708
2122 0.44517341
2120 0.42140618
2118 0.39326462
2116 0.35371199
2114 0.3041544
2112 0.26736584
2110 0.26652873
2108 0.29408431
2106 0.32876199
2104 0.34160048
2102 0.31060228
2100 0.25281239
2098 0.19906339
2096 0.17487143
2094 0.19528697
2092 0.24266605
2090 0.28902999
2088 0.31588629
2086 0.31384102
2084 0.29381806
2082 0.27232501
2080 0.25637427
2078 0.24717063
2076 0.23903915
2074 0.22495346
2072 0.2032872
2070 0.17425321
2068 0.13631959
2066 0.088265575
2064 0.033571571
2062 -0.021360874
2060 -0.066199288
2058 -0.091954939
2056 -0.10172383
2054 -0.1032495
2052 -0.10222831
2050 -0.10262646
2048 -0.10568937
2046 -0.11158536
2044 -0.1204708
2042 -0.13061765
2040 -0.13206509
2038 -0.11498683
2036 -0.085018754
2034 -0.055951908
2032 -0.046790697
2030 -0.074051976
2028 -0.13565017
2026 -0.21848786
2024 -0.29808822
2022 -0.3484475
2020 -0.35656843
2018 -0.32020336
2016 -0.25681999
2014 -0.19016291
2012 -0.13441186
2010 -0.098019935
2008 -0.085796043
2006 -0.099529691
2004 -0.13411245
2002 -0.1808584
2000 -0.22904663
1998 -0.27022341
1996 -0.3088443
1994 -0.35057899
1992 -0.38015211
1990 -0.37462556
1988 -0.3223756
1986 -0.22568779
1984 -0.12042431
1982 -0.051938187
1980 -0.038828924
1978 -0.078567728
1976 -0.13815662
1974 -0.17414099
1972 -0.1579541
1970 -0.07861656
1968 0.03496813
1966 0.13759911
1964 0.19654056
1962 0.19567181
1960 0.15784439
1958 0.11968281
1956 0.095223546
1954 0.082261406
1952 0.064016119
1950 0.022515144
1948 -0.037366129
1946 -0.097778253
1944 -0.13769965
1942 -0.14121874
1940 -0.11759125
1938 -0.089682013
1936 -0.082031861
1934 -0.11447045
1932 -0.187021
1930 -0.28674689
1928 -0.38981286
1926 -0.4663507
1924 -0.48182559
1922 -0.41024196
1920 -0.27182001
1918 -0.11325996
1916 0.013070827
1914 0.066797927
1912 0.064041212
1910 0.047536608
1908 0.040376578
1906 0.047537122
1904 0.054044761
1902 0.040788401
1900 0.014035287
1898 -0.0055729682
1896 -0.0007009285
1894 0.036894105
1892 0.089700967
1890 0.1264569
1888 0.11859783
1886 0.048670419
1884 -0.064507216
1882 -0.18394502
1880 -0.28372669
1878 -0.35125068
1876 -0.39554298
1874 -0.43275675
1872 -0.45814812
1870 -0.45516482
1868 -0.41470084
1866 -0.33935836
1864 -0.25830194
1862 -0.21111071
1860 -0.21564609
1858 -0.27307925
1856 -0.37558198
1854 -0.51213574
1852 -0.67522782
1850 -0.85598314
1848 -1.0280513
1846 -1.1549608
1844 -1.2038492
1842 -1.1559023
1840 -1.0394402
1838 -0.90866464
1836 -0.80346113
1834 -0.74090838
1832 -0.69059461
1830 -0.6008082
1828 -0.45344567
1826 -0.26360041
1824 -0.084830761
1822 0.018587878
1820 0.033034481
1818 -0.017271986
1816 -0.096635029
1814 -0.17060119
1812 -0.22584668
1810 -0.26162425
1808 -0.26935577
1806 -0.24187849
1804 -0.20933111
1802 -0.22333606
1800 -0.31654668
1798 -0.48740852
1796 -0.65092212
1794 -0.68468755
1792 -0.54387116
1790 -0.25768739
1788 0.078057028
1786 0.34617412
1784 0.50648785
1782 0.57777542
1780 0.58348918
1778 0.54462868
1776 0.489472
1774 0.44833535
1772 0.4352662
1770 0.44543257
1768 0.44337457
1766 0.38541692
1764 0.28261861
1762 0.17601776
1760 0.052447598
1758 -0.12998959
1756 -0.34019372
1754 -0.4991709
1752 -0.57869017
1750 -0.6009534
1748 -0.61300051
1746 -0.66678214
1744 -0.78114635
1742 -0.93902498
1740 -1.0782591
1738 -1.1140932
1736 -0.99647599
1734 -0.72366989
1732 -0.37831062
1730 -0.091774255
1728 0.054649603
1726 0.044453751
1724 -0.05434246
1722 -0.1098773
1720 0.037440225
1718 0.52889383
1716 1.3599037
1714 2.4014513
1712 3.4813178
1710 4.448288
1708 5.3264899
1706 6.289979
1704 7.5567007
1702 9.3565588
1700 11.912489
1698 15.348897
1696 19.360001
1694 23.337639
1692 26.883932
1690 29.917343
1688 32.781399
1686 36.100948
1684 40.35569
1682 45.705868
1680 51.591599
1678 57.039986
1676 61.813103
1674 66.38073
1672 71.228134
1670 76.613831
1668 82.203125
1666 87.243652
1664 91.307312
1662 94.361679
1660 96.548569
1658 98.082321
1656 99.098572
1654 99.635796
1652 99.662575
1650 99.113525
1648 97.989746
1646 96.381355
1644 94.48098
1642 92.516861
1640 90.505478
1638 88.259758
1636 85.584572
1634 82.351929
1632 78.624092
1630 74.601372
1628 70.358253
1626 65.833626
1624 61.001881
1622 55.922207
1620 50.778744
1618 45.8424
1616 41.306286
1614 37.264271
1612 33.770176
1610 30.84552
1608 28.444401
1606 26.466663
1604 24.831026
1602 23.489326
1600 22.424349
1598 21.639578
1596 21.125999
1594 20.857719
1592 20.810829
1590 20.971373
1588 21.339279
1586 21.922043
1584 22.702034
1582 23.64431
1580 24.761034
1578 26.121586
1576 27.826143
1574 29.974739
1572 32.557308
1570 35.442211
1568 38.461121
1566 41.44334
1564 44.276325
1562 46.945904
1560 49.617027
1558 52.540951
1556 55.56287
1554 58.104992
1552 59.751801
1550 60.411465
1548 60.272167
1546 59.70393
1544 58.817619
1542 57.410423
1540 55.3396
1538 52.650871
1536 49.656456
1534 46.869133
1532 44.531551
1530 42.525818
1528 40.666176
1526 38.781052
1524 36.739532
1522 34.474964
1520 32.029148
1518 29.556719
1516 27.224728
1514 25.151754
1512 23.2742
1510 21.342806
1508 19.17708
1506 16.755751
1504 14.238275
1502 11.92497
1500 9.9681835
1498 8.3033762
1496 6.8183999
1494 5.4158325
1492 4.0804605
1490 2.8869803
1488 1.8861377
1486 1.075484
1484 0.44438797
1482 -0.01083827
1480 -0.27741998
1478 -0.31308541
1476 -0.01475057
1474 0.76036847
1472 2.0089588
1470 3.5327649
1468 5.1099224
1466 6.5612597
1464 7.8170247
1462 8.9364042
1460 9.9980297
1458 11.057733
1456 12.098
1454 13.011864
1452 13.683011
1450 14.018341
1448 14.004931
1446 13.727072
1444 13.271237
1442 12.696301
1440 12.030675
1438 11.267446
1436 10.395885
1434 9.4150362
1432 8.3805923
1430 7.4131193
1428 6.6069279
1426 5.9954009
1424 5.5702891
1422 5.2879868
1420 5.1189585
1418 5.0643063
1416 5.1334085
1414 5.3347421
1412 5.6591902
1410 6.0725298
1408 6.5353136
1406 7.0075002
1404 7.4443831
1402 7.7955179
1400 8.0121641
1398 8.0548048
1396 7.9119716
1394 7.6134591
1392 7.2127061
1390 6.7815294
1388 6.3770304
1386 6.0251298
1384 5.7272491
1382 5.456696
1380 5.1715593
1378 4.819561
1376 4.3659029
1374 3.8106434
1372 3.1873379
1370 2.5630019
1368 1.9781594
1366 1.4218628
1364 0.8745203
1362 0.32840562
1360 -0.1778453
1358 -0.54376006
1356 -0.69196957
1354 -0.6057809
1352 -0.29798034
1350 0.19147775
1348 0.80514061
1346 1.4701464
1344 2.1265719
1342 2.7412148
1340 3.2899492
1338 3.7521441
1336 4.0996027
1334 4.2935629
1332 4.3105116
1330 4.1586723
1328 3.8701251
1326 3.5037298
1324 3.1189768
1322 2.7634935
1320 2.4665861
1318 2.2310708
1316 2.0480001
1314 1.8993123
1312 1.7654692
1310 1.6293213
1308 1.4815269
1306 1.3267535
1304 1.1809548
1302 1.07354
1300 1.0355451
1298 1.0944445
1296 1.2731571
1294 1.5861648
1292 2.0372269
1290 2.6126106
1288 3.2821159
1286 3.9930756
1284 4.6850019
1282 5.2943335
1280 5.7721405
1278 6.0998735
1276 6.2850943
1274 6.3705001
1272 6.4088316
1270 6.4551249
1268 6.5560422
1266 6.7414522
1264 7.0318666
1262 7.4374595
1260 7.9637499
1258 8.6114483
1256 9.3758392
1254 10.244371
1252 11.202863
1250 12.235085
1248 13.324354
1246 14.45075
1244 15.587892
1242 16.695971
1240 17.721039
1238 18.591198
1236 19.226572
1234 19.54545
1232 19.48488
1230 19.027924
1228 18.193413
1226 17.058035
1224 15.71352
1222 14.259139
1220 12.798537
1218 11.4404
1216 10.279972
1214 9.3827457
1212 8.7828703
1210 8.461792
1208 8.3717489
1206 8.4302616
1204 8.5438299
1202 8.6151218
1200 8.5592518
1198 8.3224468
1196 7.8805852
1194 7.2579789
1192 6.50213
1190 5.6843801
1188 4.8744206
1186 4.1254234
1184 3.4738102
1182 2.9278016
1180 2.4879987
1178 2.1514537
1176 1.915
1174 1.7748163
1172 1.7211351
1170 1.7315028
1168 1.7821194
1166 1.8532958
1164 1.9282575
1162 1.995322
1160 2.0441611
1158 2.0655274
1156 2.0507329
1154 1.9913397
1152 1.8780555
1150 1.6999558
1148 1.452956
1146 1.1511393
1144 0.82194817
1142 0.51268673
1140 0.25819448
1138 0.054105274
1136 -0.10557885
1134 -0.2095426
1132 -0.24963617
1130 -0.23541
1128 -0.183348
1126 -0.11552808
1124 -0.04682374
1122 0.028477833
1120 0.120832
1118 0.23939538
1116 0.38531971
1114 0.54133308
1112 0.69034946
1110 0.82675558
1108 0.9487735
1106 1.05784
1104 1.1605279
1102 1.2738613
1100 1.4111897
1098 1.5697181
1096 1.7439713
1094 1.9316655
1092 2.1438739
1090 2.4210658
1088 2.7933972
1086 3.2446527
1084 3.7319162
1082 4.173419
1080 4.4881544
1078 4.625608
1076 4.5667171
1074 4.3570776
1072 4.0675201
1070 3.7919543
1068 3.6070585
1066 3.5277107
1064 3.5420401
1062 3.607847
1060 3.6828666
1058 3.7461674
1056 3.7830799
1054 3.7819245
1052 3.7325573
1050 3.627362
1048 3.4683754
1046 3.2819145
1044 3.1048832
1042 2.9844229
1040 2.9617641
1038 3.051625
1036 3.2522001
1034 3.5316403
1032 3.8433607
1030 4.120687
1028 4.2995858
1026 4.3394923
1024 4.2202454
1022 3.9656992
1020 3.6115315
1018 3.1959617
1016 2.7595971
1014 2.3476186
1012 1.9973018
1010 1.7196114
1008 1.5055439
1006 1.3081436
1004 1.0860339
1002 0.84568059
1000 0.60682309
998 0.39366227
996 0.21901986
994 0.056710847
992 -0.12196264
990 -0.32254118
988 -0.53603834
986 -0.72537339
984 -0.85260826
982 -0.90004486
980 -0.86313361
978 -0.76427448
976 -0.6319052
974 -0.49236014
972 -0.36914885
970 -0.27786291
968 -0.22735377
966 -0.2103155
964 -0.21055295
962 -0.19572476
960 -0.14048207
958 -0.057395544
956 0.026620999
954 0.068223529
952 0.039333601
950 -0.020599008
948 -0.058526441
946 -0.032781214
944 0.086824492
942 0.29926786
940 0.58367097
938 0.87600994
936 1.1151344
934 1.2893698
932 1.4008708
930 1.4569666
928 1.4718485
926 1.4789563
924 1.5154259
922 1.6129887
920 1.784824
918 1.9777744
916 2.1273828
914 2.1877201
912 2.1423669
910 2.070255
908 2.066921
906 2.1987214
904 2.4957707
902 2.8750639
900 3.2392809
898 3.5470204
896 3.7709999
