Image.
>Pix99999.
  .
5555
5555
2300
900
5555
2
1
0
701
5555
8.7880999e-002
8.9709386e-002
9.1537766e-002
9.3366154e-002
9.5194541e-002
9.7022921e-002
9.8851308e-002
1.0068167e-001
1.0250909e-001
1.0433647e-001
1.0616386e-001
1.0799124e-001
1.0981862e-001
1.1164602e-001
1.1347340e-001
1.1531057e-001
1.1713817e-001
1.1895581e-001
1.2079269e-001
1.2265924e-001
1.2444886e-001
1.2613931e-001
1.2809809e-001
1.3044246e-001
1.3177542e-001
1.2634286e-001
9.2598870e-002
1.3723482e-002
-9.0287887e-002
-1.9235063e-001
-2.7885598e-001
-3.4137377e-001
-3.7666023e-001
-3.8542360e-001
-3.7863478e-001
-3.6640450e-001
-3.4329885e-001
-3.0205375e-001
-2.4641551e-001
-1.8593742e-001
-1.4042315e-001
-1.2837099e-001
-1.5103561e-001
-2.0220797e-001
-2.6671165e-001
-3.2531598e-001
-3.5299641e-001
-3.2828015e-001
-2.5107399e-001
-1.3528781e-001
-2.4541643e-002
3.6940835e-002
3.9854221e-002
-8.0891801e-003
-7.5303085e-002
-1.2848617e-001
-1.5730879e-001
-1.6070926e-001
-1.4470580e-001
-1.1796713e-001
-9.1422401e-002
-7.5327694e-002
-7.4574001e-002
-8.9031570e-002
-1.0536929e-001
-1.0800393e-001
-8.9968577e-002
-5.0563801e-002
-2.4840946e-003
3.9444108e-002
6.9929503e-002
8.9484975e-002
1.0866599e-001
1.3904415e-001
1.8261969e-001
2.3529072e-001
2.8194764e-001
3.0311909e-001
2.7693453e-001
1.8824317e-001
5.2653603e-002
-9.8992616e-002
-2.1831155e-001
-2.6168805e-001
-2.2977960e-001
-1.4290050e-001
-3.5599168e-002
5.8132865e-002
1.2585998e-001
1.6594148e-001
1.8789786e-001
2.0501381e-001
2.2999868e-001
2.7087587e-001
3.1765351e-001
3.5348350e-001
3.6100921e-001
3.2700425e-001
2.5501642e-001
1.5720955e-001
5.4842856e-002
-3.0539382e-002
-8.9903049e-002
-1.2243363e-001
-1.4074114e-001
-1.5932450e-001
-1.7942995e-001
-1.9493759e-001
-1.9161519e-001
-1.5542705e-001
-8.5510783e-002
1.2554698e-002
1.2906352e-001
2.5310722e-001
3.7475497e-001
4.8257428e-001
5.5708033e-001
5.7807618e-001
5.3649306e-001
4.3377209e-001
2.9539144e-001
1.5621381e-001
4.9173508e-002
-9.4517320e-004
1.6903321e-003
3.8553588e-002
8.2168661e-002
1.0699204e-001
1.0913840e-001
9.6014887e-002
8.2497247e-002
8.2359381e-002
9.3082413e-002
1.0512178e-001
1.1007446e-001
1.0462414e-001
1.0329892e-001
1.2352561e-001
1.6175054e-001
2.0260425e-001
2.2233200e-001
1.9976558e-001
1.3828135e-001
5.1123165e-002
-5.4754987e-002
-1.7547427e-001
-3.0501875e-001
-4.3419150e-001
-5.4540634e-001
-6.1931533e-001
-6.4551210e-001
-6.2152976e-001
-5.5983627e-001
-4.8042029e-001
-4.0638259e-001
-3.5890773e-001
-3.4658939e-001
-3.6961731e-001
-4.1836143e-001
-4.7760928e-001
-5.2684855e-001
-5.4543269e-001
-5.2184153e-001
-4.5502439e-001
-3.6878765e-001
-2.9777342e-001
-2.7167049e-001
-3.0921066e-001
-3.9633042e-001
-5.0329596e-001
-6.0302514e-001
-6.7549050e-001
-7.2018898e-001
-7.4762094e-001
-7.7361065e-001
-8.1250751e-001
-8.6353314e-001
-9.1704708e-001
-9.5958829e-001
-9.8100156e-001
-9.9144518e-001
-1.0105278e+000
-1.0523640e+000
-1.1207621e+000
-1.1917315e+000
-1.2264065e+000
-1.1847918e+000
-1.0401489e+000
-8.2135081e-001
-5.8650541e-001
-3.9058843e-001
-2.7486640e-001
-2.3923394e-001
-2.6344162e-001
-3.3693677e-001
-4.5217136e-001
-5.8270079e-001
-6.9041991e-001
-7.3503608e-001
-6.8644536e-001
-5.6046146e-001
-4.0180600e-001
-2.6802933e-001
-2.1416730e-001
-2.6242629e-001
-4.0803149e-001
-6.1240166e-001
-8.2203996e-001
-9.9585903e-001
-1.1069793e+000
-1.1527600e+000
-1.1449424e+000
-1.1007332e+000
-1.0390698e+000
-9.7684163e-001
-9.2774588e-001
-8.9694357e-001
-8.8528699e-001
-8.9663732e-001
-9.3626064e-001
-1.0052915e+000
-1.0975759e+000
-1.1864331e+000
-1.2388217e+000
-1.2463800e+000
-1.2213643e+000
-1.1945871e+000
-1.1997709e+000
-1.2400188e+000
-1.2970732e+000
-1.3468128e+000
-1.3642470e+000
-1.3284274e+000
-1.2271408e+000
-1.0746257e+000
-9.0561903e-001
-7.7256930e-001
-7.2699875e-001
-7.7346122e-001
-8.8222659e-001
-1.0109743e+000
-1.1185830e+000
-1.1903992e+000
-1.2280048e+000
-1.2249835e+000
-1.1692950e+000
-1.0565400e+000
-8.9233708e-001
-7.0034170e-001
-5.1299596e-001
-3.5119712e-001
-2.2498307e-001
-1.3675000e-001
-8.1512973e-002
-3.9125223e-002
1.7570328e-002
1.0263612e-001
2.1832715e-001
3.5980794e-001
5.1694280e-001
6.7186683e-001
7.9854321e-001
8.5623556e-001
8.0446631e-001
6.4848614e-001
4.3333441e-001
2.3183861e-001
1.0980660e-001
2.9779779e-002
-9.8772883e-002
-2.5915414e-001
-3.5521260e-001
-3.3006576e-001
-1.8079510e-001
3.3740513e-002
2.2205073e-001
3.2589018e-001
3.3461374e-001
3.1869921e-001
3.8587308e-001
5.5572402e-001
7.6344234e-001
8.9615589e-001
8.4048194e-001
6.0046303e-001
2.7785015e-001
-3.7386864e-003
-1.1859450e-001
5.3857997e-002
5.9894782e-001
1.4574640e+000
2.4611762e+000
3.4537652e+000
4.3422670e+000
5.2088537e+000
6.2759237e+000
7.7948284e+000
9.9922543e+000
1.2966035e+001
1.6641077e+001
2.0605999e+001
2.4266390e+001
2.7352468e+001
2.9967770e+001
3.2541588e+001
3.5684898e+001
3.9845108e+001
4.5153393e+001
5.1043720e+001
5.6548672e+001
6.1405014e+001
6.6030182e+001
7.0858208e+001
7.6115211e+001
8.1494087e+001
8.6321297e+001
9.0240906e+001
9.3264458e+001
9.5529602e+001
9.7213570e+001
9.8451256e+001
9.9310829e+001
9.9766083e+001
9.9709122e+001
9.8997002e+001
9.7527428e+001
9.5481941e+001
9.3252129e+001
9.1008499e+001
8.8657860e+001
8.6000816e+001
8.2827507e+001
7.9140244e+001
7.5124123e+001
7.0872589e+001
6.6361839e+001
6.1572403e+001
5.6533802e+001
5.1397472e+001
4.6413692e+001
4.1783199e+001
3.7630344e+001
3.4037682e+001
3.1041960e+001
2.8593565e+001
2.6571814e+001
2.4871063e+001
2.3424778e+001
2.2216394e+001
2.1268841e+001
2.0597500e+001
2.0200375e+001
2.0054583e+001
2.0122290e+001
2.0385426e+001
2.0848942e+001
2.1513926e+001
2.2383219e+001
2.3507860e+001
2.4989681e+001
2.6932943e+001
2.9402723e+001
3.2318409e+001
3.5458164e+001
3.8608280e+001
4.1608593e+001
4.4370842e+001
4.6908218e+001
4.9422565e+001
5.2206734e+001
5.5123856e+001
5.7589912e+001
5.9170471e+001
5.9751888e+001
5.9540951e+001
5.8964893e+001
5.8167339e+001
5.6931938e+001
5.5035622e+001
5.2398399e+001
4.9291512e+001
4.6295040e+001
4.3758682e+001
4.1683216e+001
3.9949165e+001
3.8377197e+001
3.6760048e+001
3.4893543e+001
3.2676598e+001
3.0152645e+001
2.7517687e+001
2.5069048e+001
2.2901680e+001
2.0848543e+001
1.8720230e+001
1.6404551e+001
1.3994572e+001
1.1780091e+001
9.9213190e+000
8.3658028e+000
6.9952288e+000
5.6828527e+000
4.3857846e+000
3.1620104e+000
2.0628781e+000
1.1080878e+000
3.2587004e-001
-2.3616058e-001
-5.2688003e-001
-4.8990977e-001
-3.7355125e-002
9.2371601e-001
2.3124382e+000
3.8423030e+000
5.2805848e+000
6.5384612e+000
7.6506267e+000
8.7605696e+000
9.9721336e+000
1.1284337e+001
1.2554800e+001
1.3510441e+001
1.3987074e+001
1.4007381e+001
1.3673434e+001
1.3129429e+001
1.2486046e+001
1.1794100e+001
1.1075011e+001
1.0324732e+001
9.5174541e+000
8.6153126e+000
7.6340427e+000
6.6650324e+000
5.8060560e+000
5.1339726e+000
4.6823144e+000
4.4296484e+000
4.3387170e+000
4.3689046e+000
4.4897256e+000
4.6872363e+000
4.9573321e+000
5.3027277e+000
5.7175393e+000
6.1791935e+000
6.6486654e+000
7.0685878e+000
7.3780122e+000
7.5211959e+000
7.4689932e+000
7.2334256e+000
6.8576417e+000
6.4138970e+000
5.9629307e+000
5.5371251e+000
5.1505823e+000
4.7984767e+000
4.4648118e+000
4.1225066e+000
3.7386913e+000
3.2802644e+000
2.7413700e+000
2.1575177e+000
1.5736817e+000
1.0319061e+000
5.5606133e-001
1.4554894e-001
-1.9031362e-001
-4.1925108e-001
-5.1111096e-001
-4.4838205e-001
-2.2401120e-001
1.5549177e-001
6.7204523e-001
1.2946321e+000
1.9929760e+000
2.7361577e+000
3.4555962e+000
4.0272741e+000
4.3462853e+000
4.3690085e+000
4.1255355e+000
3.7386391e+000
3.3204634e+000
2.9293628e+000
2.6004865e+000
2.3494639e+000
2.1807227e+000
2.0847132e+000
2.0352299e+000
1.9850564e+000
1.8936663e+000
1.7429035e+000
1.5348780e+000
1.2985828e+000
1.0734162e+000
9.0572059e-001
8.3798516e-001
9.0111899e-001
1.1080714e+000
1.4444451e+000
1.8860922e+000
2.4031868e+000
2.9666600e+000
3.5507150e+000
4.1261334e+000
4.6567879e+000
5.1088028e+000
5.4575801e+000
5.6951756e+000
5.8420358e+000
5.9341054e+000
6.0236826e+000
6.1622710e+000
6.3912182e+000
6.7373633e+000
7.2041883e+000
7.7838402e+000
8.4572296e+000
9.2049570e+000
1.0012260e+001
1.0869078e+001
1.1771927e+001
1.2718400e+001
1.3706249e+001
1.4722294e+001
1.5728717e+001
1.6672085e+001
1.7476030e+001
1.8057371e+001
1.8339622e+001
1.8261721e+001
1.7796494e+001
1.6954803e+001
1.5806322e+001
1.4441600e+001
1.2968111e+001
1.1496611e+001
1.0136481e+001
8.9840145e+000
8.1098270e+000
7.5514488e+000
7.2926769e+000
7.2862115e+000
7.4466386e+000
7.6719441e+000
7.8462944e+000
7.8638082e+000
7.6513233e+000
7.1806068e+000
6.5038552e+000
5.7008233e+000
4.8675852e+000
4.0844789e+000
3.3889735e+000
2.8021216e+000
2.3297262e+000
1.9705940e+000
1.7147005e+000
1.5485799e+000
1.4555840e+000
1.4204082e+000
1.4323310e+000
1.4826241e+000
1.5635208e+000
1.6667377e+000
1.7807940e+000
1.8863691e+000
1.9488738e+000
1.9343615e+000
1.8203057e+000
1.6009446e+000
1.3029408e+000
9.6511960e-001
6.3515925e-001
3.5746557e-001
1.6149224e-001
5.6040123e-002
1.0411020e-002
-1.1193195e-002
-3.3452630e-002
-7.0258103e-002
-1.1540009e-001
-1.5169995e-001
-1.4815836e-001
-7.9689965e-002
5.4869741e-002
2.3558760e-001
4.0714771e-001
5.2515358e-001
5.9315026e-001
6.2990171e-001
6.6192698e-001
7.0354235e-001
7.3587304e-001
7.4936664e-001
7.7760535e-001
8.5978395e-001
1.0215740e+000
1.2692857e+000
1.5693439e+000
1.8912380e+000
2.2368288e+000
2.6148479e+000
3.0301757e+000
3.4696658e+000
3.8762562e+000
4.1880236e+000
4.3607821e+000
4.3760142e+000
4.2731848e+000
4.1080399e+000
3.9427011e+000
3.8262265e+000
3.7680128e+000
3.7607160e+000
3.7770770e+000
3.7867851e+000
3.7633843e+000
3.6848743e+000
3.5399659e+000
3.3333495e+000
3.1075890e+000
2.9181001e+000
2.8289251e+000
2.8836234e+000
3.0605235e+000
3.3107581e+000
3.5541615e+000
3.7202499e+000
3.7891257e+000
3.7657406e+000
3.6909015e+000
3.6042500e+000
3.5166893e+000
3.4249673e+000
3.3055670e+000
3.1381416e+000
2.9270418e+000
2.6826942e+000
2.4170854e+000
2.1383233e+000
1.8430943e+000
1.5317160e+000
1.2244478e+000
9.4523335e-001
7.1344221e-001
5.4068792e-001
4.1821712e-001
3.3418071e-001
2.8273818e-001
2.6127988e-001
2.7254954e-001
3.1618077e-001
3.7743121e-001
4.3415543e-001
4.5230874e-001
4.0583599e-001
3.0470255e-001
1.7433000e-001
6.1289854e-002
4.8527592e-003
2.2847839e-003
3.6286432e-002
7.5801700e-002
9.5270857e-002
9.9434510e-002
1.0162777e-001
1.1857061e-001
1.5792286e-001
1.9323601e-001
1.9621000e-001
1.6179311e-001
9.7077459e-002
3.1816293e-002
6.9950223e-003
8.2696423e-002
2.9648557e-001
5.8819127e-001
8.8471943e-001
1.1543723e+000
1.3803185e+000
1.5624564e+000
1.6988291e+000
1.7636771e+000
1.7380220e+000
1.6488850e+000
1.5414194e+000
1.4860895e+000
1.5442529e+000
1.7168880e+000
1.9803668e+000
2.2742801e+000
2.5416160e+000
2.7763922e+000
2.9993439e+000
3.2871485e+000
3.6946642e+000
4.1364079e+000
4.4913998e+000
