Image.
>Pix99999.
  .
5555
5555
2300
900
5555
2
1
0
701
5555
5.3474002e-002
5.4586411e-002
5.5698819e-002
5.6811225e-002
5.7923634e-002
5.9036043e-002
6.0148451e-002
6.1260860e-002
6.2373266e-002
6.3484691e-002
6.4598069e-002
6.5712459e-002
6.6822931e-002
6.7927457e-002
6.9047555e-002
7.0191443e-002
7.1273275e-002
7.2269805e-002
7.3494323e-002
7.5037822e-002
7.5734742e-002
7.5241841e-002
7.7895381e-002
8.4987983e-002
8.0381975e-002
5.0748177e-002
1.3494974e-002
-4.3331217e-003
2.8375665e-002
1.2665266e-001
2.3639371e-001
2.9493627e-001
2.8456622e-001
2.1037036e-001
1.1631574e-001
4.7887549e-002
1.1593746e-002
4.2781024e-004
-6.0227048e-004
-5.1359232e-003
-1.2381012e-002
-2.0147143e-002
-3.8126539e-002
-7.5282395e-002
-1.2286658e-001
-1.6545264e-001
-1.8242720e-001
-1.5779509e-001
-1.0021797e-001
-2.6069259e-002
4.8053786e-002
1.0726336e-001
1.4338161e-001
1.5124540e-001
1.2935609e-001
8.0527551e-002
2.0645879e-002
-3.0362029e-002
-5.3054493e-002
-3.3750493e-002
1.8707171e-002
8.8676773e-002
1.6270153e-001
2.3284441e-001
3.1018937e-001
4.0842623e-001
5.2625453e-001
6.5270174e-001
7.5834477e-001
8.1238067e-001
8.0342001e-001
7.3450613e-001
6.4017320e-001
5.6063300e-001
5.1560497e-001
5.0889182e-001
5.0902003e-001
4.8049212e-001
4.2100665e-001
3.4450898e-001
2.8239429e-001
2.6267132e-001
2.7546000e-001
2.9811120e-001
3.1197038e-001
3.0668867e-001
2.9827675e-001
3.0767727e-001
3.3678743e-001
3.7766442e-001
4.1190171e-001
4.2074490e-001
3.9887321e-001
3.4797525e-001
2.7751151e-001
2.0051178e-001
1.3350326e-001
9.1065221e-002
7.4776337e-002
8.0749601e-002
1.0332943e-001
1.3703537e-001
1.7915329e-001
2.2558840e-001
2.6186725e-001
2.7350101e-001
2.6312640e-001
2.4223801e-001
2.3040824e-001
2.4510561e-001
2.8284258e-001
3.2966650e-001
3.6363760e-001
3.6346084e-001
3.2242781e-001
2.4409735e-001
1.4946280e-001
6.3218474e-002
-3.2533249e-003
-4.8339751e-002
-8.6843289e-002
-1.3690716e-001
-2.0302556e-001
-2.8072259e-001
-3.5337326e-001
-4.0181428e-001
-4.1681600e-001
-3.9767376e-001
-3.6072931e-001
-3.2719135e-001
-3.0882400e-001
-3.0900571e-001
-3.1473899e-001
-3.0970541e-001
-2.9279819e-001
-2.7203664e-001
-2.6387310e-001
-2.8444484e-001
-3.3428872e-001
-4.0518686e-001
-4.8238403e-001
-5.5047607e-001
-6.0212630e-001
-6.3359118e-001
-6.4011312e-001
-6.1716890e-001
-5.6409121e-001
-4.8631170e-001
-4.0733469e-001
-3.5587874e-001
-3.4742785e-001
-3.8437319e-001
-4.4190115e-001
-4.8685634e-001
-5.0347197e-001
-4.8983720e-001
-4.6435714e-001
-4.5115688e-001
-4.5950964e-001
-4.8972365e-001
-5.3706056e-001
-5.9437329e-001
-6.5254873e-001
-7.0213842e-001
-7.3592299e-001
-7.5080270e-001
-7.5639826e-001
-7.6631916e-001
-7.8441882e-001
-8.0757707e-001
-8.2584983e-001
-8.2888025e-001
-8.1765550e-001
-7.9913318e-001
-7.8011566e-001
-7.6503253e-001
-7.5042129e-001
-7.2985435e-001
-7.0162451e-001
-6.6771883e-001
-6.3418829e-001
-6.0872871e-001
-5.9783721e-001
-6.0653341e-001
-6.3667870e-001
-6.8600047e-001
-7.4140596e-001
-7.8587747e-001
-8.1004786e-001
-8.1154364e-001
-7.9844075e-001
-7.7958894e-001
-7.4427056e-001
-6.7357856e-001
-5.6182724e-001
-4.1838965e-001
-2.8229040e-001
-2.0029162e-001
-1.8384974e-001
-2.1830054e-001
-2.6742715e-001
-2.9018727e-001
-2.6950681e-001
-2.0457011e-001
-1.0186585e-001
2.7760576e-002
1.6680112e-001
2.9508337e-001
3.9644155e-001
4.5733622e-001
4.6407902e-001
4.0602913e-001
2.8751674e-001
1.2993509e-001
-8.9667961e-003
-6.1093993e-002
-4.4040810e-003
1.4496683e-001
3.3299959e-001
4.9310192e-001
5.9098774e-001
6.1548477e-001
5.6176478e-001
4.3058068e-001
2.4001640e-001
2.3560826e-002
-1.6355231e-001
-2.6385581e-001
-2.6522145e-001
-1.8963784e-001
-7.8921713e-002
2.2351531e-002
9.8929778e-002
1.5739557e-001
2.1429417e-001
2.8710595e-001
3.7870151e-001
4.8060361e-001
5.7770258e-001
6.5248859e-001
6.9093227e-001
6.8538362e-001
6.4514905e-001
5.9126878e-001
5.4892975e-001
5.3602302e-001
5.3064060e-001
4.8762536e-001
3.7735212e-001
1.9647351e-001
-7.8278780e-004
-1.2974958e-001
-1.3674919e-001
-1.0287117e-002
1.8575436e-001
3.4779906e-001
4.1233158e-001
3.5888875e-001
2.0971063e-001
1.2386180e-002
-1.8576917e-001
-3.4109885e-001
-4.1108051e-001
-3.6602408e-001
-2.3338182e-001
-7.9071127e-002
4.0467761e-002
8.5125916e-002
3.4194503e-002
-1.1169057e-001
-3.1042457e-001
-5.0369704e-001
-6.8929565e-001
-9.0284598e-001
-1.1479170e+000
-1.3966322e+000
-1.6132948e+000
-1.7658062e+000
-1.8459897e+000
-1.8604249e+000
-1.8002200e+000
-1.6473757e+000
-1.4072981e+000
-1.1081688e+000
-7.9210097e-001
-5.0464702e-001
-2.7165380e-001
-1.0090859e-001
8.4316581e-003
7.8296654e-002
2.0943657e-001
5.3271490e-001
1.0360204e+000
1.5993793e+000
2.1638520e+000
2.7556801e+000
3.4892042e+000
4.5656362e+000
6.3141427e+000
9.0516157e+000
1.2596143e+001
1.6368059e+001
1.9869951e+001
2.2829451e+001
2.5424429e+001
2.8161379e+001
3.1466105e+001
3.5518162e+001
3.9908760e+001
4.3879551e+001
4.7221714e+001
5.0283924e+001
5.3522224e+001
5.7308609e+001
6.1600922e+001
6.6023651e+001
7.0278282e+001
7.4206253e+001
7.7722412e+001
8.0793556e+001
8.3438599e+001
8.5727448e+001
8.7793617e+001
8.9783524e+001
9.1664246e+001
9.3241180e+001
9.4333130e+001
9.4811523e+001
9.4612061e+001
9.3727821e+001
9.2185791e+001
9.0045059e+001
8.7432472e+001
8.4503357e+001
8.1279564e+001
7.7663322e+001
7.3614883e+001
6.9199020e+001
6.4597496e+001
6.0071323e+001
5.5820572e+001
5.1956429e+001
4.8525177e+001
4.5515862e+001
4.2865063e+001
4.0478703e+001
3.8303127e+001
3.6335506e+001
3.4589333e+001
3.3078510e+001
3.1796499e+001
3.0716412e+001
2.9816326e+001
2.9086273e+001
2.8521261e+001
2.8114851e+001
2.7840868e+001
2.7656990e+001
2.7540447e+001
2.7499460e+001
2.7578228e+001
2.7844513e+001
2.8329266e+001
2.9011108e+001
2.9822441e+001
3.0665129e+001
3.1475035e+001
3.2267521e+001
3.3253349e+001
3.4787415e+001
3.6987000e+001
3.9644402e+001
4.2350258e+001
4.4613438e+001
4.6268356e+001
4.7514179e+001
4.8524738e+001
4.9360916e+001
5.0059101e+001
5.0641834e+001
5.1061230e+001
5.1206139e+001
5.1025639e+001
5.0547249e+001
4.9779011e+001
4.8692150e+001
4.7276978e+001
4.5571232e+001
4.3708828e+001
4.1904270e+001
4.0292812e+001
3.8868160e+001
3.7455360e+001
3.5743629e+001
3.3545700e+001
3.0890835e+001
2.8003702e+001
2.5251287e+001
2.2825285e+001
2.0661060e+001
1.8618000e+001
1.6544769e+001
1.4363420e+001
1.2094597e+001
9.8127384e+000
7.6300201e+000
5.6609221e+000
3.9978533e+000
2.6459200e+000
1.5290473e+000
6.7219073e-001
2.2892568e-001
2.6677376e-001
7.0089662e-001
1.3791703e+000
2.1184735e+000
2.8016646e+000
3.4066958e+000
3.9354482e+000
4.3964882e+000
4.8116598e+000
5.2121863e+000
5.5989938e+000
5.9331512e+000
6.1812353e+000
6.3282571e+000
6.3630428e+000
6.2722397e+000
6.0306053e+000
5.6030779e+000
4.9806089e+000
4.2004209e+000
3.3509407e+000
2.5666690e+000
1.9360600e+000
1.4675307e+000
1.1406205e+000
9.2445791e-001
8.1671989e-001
8.5459614e-001
1.0631955e+000
1.4336060e+000
1.9232806e+000
2.4575441e+000
2.9837160e+000
3.4902384e+000
3.9722657e+000
4.4211817e+000
4.8236160e+000
5.1639881e+000
5.4471216e+000
5.7057962e+000
5.9629993e+000
6.2152853e+000
6.4350729e+000
6.5701952e+000
6.5784898e+000
6.4421134e+000
6.1565485e+000
5.7323370e+000
5.2001686e+000
4.6176720e+000
4.0543838e+000
3.5796382e+000
3.2078404e+000
2.8704278e+000
2.4886122e+000
2.0069346e+000
1.4376469e+000
8.8511324e-001
4.4476759e-001
1.6001990e-001
3.0609874e-002
7.1890894e-003
3.9463166e-002
9.4054826e-002
1.4681321e-001
1.8486676e-001
2.1288063e-001
2.5847933e-001
3.4680343e-001
4.8748007e-001
6.6813552e-001
8.4867102e-001
9.9839216e-001
1.1135179e+000
1.2030017e+000
1.2863336e+000
1.3832469e+000
1.5083349e+000
1.6684200e+000
1.8582162e+000
2.0628498e+000
2.2571430e+000
2.4182160e+000
2.5328550e+000
2.5981457e+000
2.6259391e+000
2.6333523e+000
2.6404092e+000
2.6626430e+000
2.7058580e+000
2.7690053e+000
2.8434796e+000
2.9223919e+000
3.0053194e+000
3.0975664e+000
3.2110112e+000
3.3520291e+000
3.5143225e+000
3.6862872e+000
3.8538380e+000
4.0153737e+000
4.1931109e+000
4.4148369e+000
4.7066216e+000
5.0809073e+000
5.5257816e+000
6.0249758e+000
6.5658650e+000
7.1431713e+000
7.7629228e+000
8.4282856e+000
9.1317015e+000
9.8611593e+000
1.0600750e+001
1.1334966e+001
1.2050023e+001
1.2727029e+001
1.3340357e+001
1.3863342e+001
1.4272601e+001
1.4545880e+001
1.4669477e+001
1.4634717e+001
1.4447521e+001
1.4118491e+001
1.3663325e+001
1.3099043e+001
1.2449770e+001
1.1744057e+001
1.1023183e+001
1.0326442e+001
9.6784697e+000
9.0869551e+000
8.5300798e+000
7.9763885e+000
7.3905001e+000
6.7509556e+000
6.0678272e+000
5.3642430e+000
4.6734676e+000
4.0220389e+000
3.4168570e+000
2.8590050e+000
2.3476973e+000
1.8892149e+000
1.5059413e+000
1.2227397e+000
1.0603776e+000
1.0240999e+000
1.0863342e+000
1.2032528e+000
1.3142847e+000
1.3684371e+000
1.3467685e+000
1.2538226e+000
1.1280071e+000
1.0076185e+000
9.1036582e-001
8.3692628e-001
7.6082242e-001
6.5778589e-001
5.2411062e-001
3.6834818e-001
2.1563643e-001
9.1744475e-002
1.4020492e-002
-8.1893513e-003
2.1733031e-002
1.0907041e-001
2.8443468e-001
5.6486380e-001
9.2068619e-001
1.3112766e+000
1.6976578e+000
2.0524194e+000
2.3747187e+000
2.6682720e+000
2.9322033e+000
3.1658001e+000
3.3720586e+000
3.5590422e+000
3.7449255e+000
3.9492767e+000
4.1876502e+000
4.4666696e+000
4.7726855e+000
5.0883374e+000
5.3995895e+000
5.7037430e+000
6.0241504e+000
6.3853698e+000
6.7973437e+000
7.2557936e+000
7.7289200e+000
8.1813679e+000
8.5856352e+000
8.9222298e+000
9.1875458e+000
9.3829432e+000
9.5130911e+000
9.5843821e+000
9.6064453e+000
9.5927849e+000
9.5654736e+000
9.5414562e+000
9.5162134e+000
9.4735956e+000
9.3789454e+000
9.2034454e+000
8.9476423e+000
8.6230383e+000
8.2511520e+000
7.8533335e+000
7.4423714e+000
7.0324445e+000
6.6464443e+000
6.3059683e+000
6.0213785e+000
5.7940202e+000
5.6064134e+000
5.4360166e+000
5.2598996e+000
5.0548625e+000
4.7981691e+000
4.4734359e+000
4.0835891e+000
3.6456592e+000
3.2042806e+000
2.8019085e+000
2.4535480e+000
2.1556602e+000
1.8701340e+000
1.5622520e+000
1.2341148e+000
9.0185463e-001
5.9460360e-001
3.3160973e-001
9.0623185e-002
-1.5378998e-001
-4.0454781e-001
-6.5269399e-001
-8.6941141e-001
-1.0295957e+000
-1.1360528e+000
-1.1983857e+000
-1.2268809e+000
-1.2323279e+000
-1.2258557e+000
-1.2140429e+000
-1.1867129e+000
-1.1239103e+000
-9.8818624e-001
-7.5373995e-001
-4.4977701e-001
-1.2391667e-001
1.5965971e-001
3.4744880e-001
4.3688107e-001
4.4153342e-001
3.8711846e-001
3.0053717e-001
2.0240384e-001
1.1280706e-001
5.5011429e-002
3.5171311e-002
-3.4989566e-003
-1.1110592e-001
-2.5753361e-001
-3.9511371e-001
-4.8522675e-001
-5.0491697e-001
-4.8061082e-001
-4.5284253e-001
-4.6854401e-001
-5.5853701e-001
-6.8751556e-001
-8.0575031e-001
-8.7143093e-001
-8.5314029e-001
-7.5158572e-001
-5.7909358e-001
-3.6173767e-001
-1.3421458e-001
4.8648000e-002
1.3724703e-001
1.2237272e-001
2.0461284e-002
-9.0459898e-002
-1.1695000e-001
