Image.
>Pix99999.
  .
5555
5555
2300
900
5555
2
1
0
701
5555
9.5853001e-002
9.7847149e-002
9.9841289e-002
1.0183146e-001
1.0382857e-001
1.0582571e-001
1.0781295e-001
1.0981000e-001
1.1180715e-001
1.1380429e-001
1.1579157e-001
1.1778858e-001
1.1978571e-001
1.2177304e-001
1.2377000e-001
1.2576714e-001
1.2775451e-001
1.2975143e-001
1.3174857e-001
1.3374572e-001
1.3573314e-001
1.3772999e-001
1.3972715e-001
1.4171462e-001
1.4371142e-001
1.4570856e-001
6.9962703e-002
2.5857515e-003
-6.4200006e-002
-5.3781871e-002
-3.1979874e-002
2.5079075e-002
8.1445366e-002
6.5614663e-002
4.1105717e-002
-2.5070449e-002
-8.7685600e-002
-1.2439071e-001
-1.6062725e-001
-1.9969153e-001
-2.3512514e-001
-2.6229495e-001
-2.5252360e-001
-1.8329367e-001
-9.7077087e-002
5.7492284e-003
6.1237544e-002
7.0086174e-002
6.1296772e-002
4.1610871e-002
8.3932430e-002
1.6242623e-001
2.4575673e-001
3.3015534e-001
3.1559268e-001
2.6884663e-001
1.7249480e-001
6.5193765e-002
1.4195312e-003
-5.5457935e-002
-8.7184571e-002
-1.1702278e-001
-1.5142974e-001
-1.8054600e-001
-1.7686902e-001
-1.6111793e-001
-1.1299817e-001
-6.5777883e-002
-2.9135035e-002
1.3497332e-004
1.7469531e-002
2.8157571e-002
3.1004097e-002
2.7699113e-002
1.8384703e-002
2.6605215e-002
5.0887119e-002
8.5721403e-002
1.2672432e-001
1.4347063e-001
1.4666629e-001
1.4065464e-001
1.3134691e-001
1.2331842e-001
1.1580760e-001
9.7545035e-002
7.6760083e-002
6.4196602e-002
5.2806899e-002
3.8458206e-002
2.1437671e-002
-1.2303920e-002
-4.5920663e-002
-6.8197168e-002
-8.4720440e-002
-8.8885613e-002
-8.9585379e-002
-8.6683549e-002
-6.7425460e-002
-2.1615436e-002
5.2818142e-002
1.5956482e-001
2.4849784e-001
3.1411269e-001
3.0990556e-001
2.5084952e-001
1.7946284e-001
1.0497259e-001
7.6653756e-002
7.2809011e-002
8.5913338e-002
1.0483040e-001
1.3255881e-001
1.6292706e-001
2.0030090e-001
2.3886858e-001
2.5709859e-001
2.6912114e-001
2.5910407e-001
2.4167360e-001
2.0744571e-001
1.6827823e-001
1.2309383e-001
8.2054123e-002
5.4474384e-002
4.0139288e-002
4.6294883e-002
6.1177667e-002
8.3486497e-002
1.0145261e-001
1.1275429e-001
1.3091967e-001
1.5688691e-001
1.9146919e-001
2.3158611e-001
2.4325971e-001
2.3603229e-001
2.2078319e-001
2.0277743e-001
2.1977876e-001
2.5178599e-001
2.8265879e-001
3.1280777e-001
3.1141052e-001
3.0065548e-001
2.7240393e-001
2.3759551e-001
1.8736041e-001
1.3839456e-001
1.1117603e-001
1.1060214e-001
1.7348033e-001
2.4742287e-001
3.1144196e-001
3.3004680e-001
2.7442849e-001
1.9616069e-001
1.1084950e-001
6.0416739e-002
5.0775349e-002
7.2437629e-002
1.1466133e-001
1.5652864e-001
1.9476457e-001
2.0538835e-001
1.9892856e-001
1.6993031e-001
1.3072930e-001
1.2046720e-001
1.2354186e-001
1.4397800e-001
1.6881324e-001
1.3935594e-001
9.2235029e-002
4.0215049e-002
2.0595249e-003
4.6672005e-002
1.2530822e-001
2.3576112e-001
3.3477008e-001
3.7891886e-001
3.7881884e-001
3.2158920e-001
2.2188048e-001
7.9479307e-002
-8.3055213e-002
-2.5708291e-001
-4.0536627e-001
-5.2205348e-001
-5.8510792e-001
-6.0565525e-001
-5.8035231e-001
-5.2734828e-001
-4.4754216e-001
-3.5418376e-001
-2.5970536e-001
-1.6560440e-001
-1.2019941e-001
-9.7216688e-002
-1.1211769e-001
-1.3782714e-001
-1.1299083e-001
-6.5198384e-002
5.9306081e-003
6.9346413e-002
6.3223407e-002
1.9744134e-002
-5.8321178e-002
-1.3820215e-001
-1.9403501e-001
-2.3884000e-001
-2.8037488e-001
-3.2279840e-001
-3.6916906e-001
-4.0275732e-001
-4.1679370e-001
-4.1381699e-001
-3.9699039e-001
-3.8031161e-001
-3.6771914e-001
-3.9859512e-001
-4.6319273e-001
-6.3226843e-001
-8.6780107e-001
-1.1739649e+000
-1.5165964e+000
-1.6601967e+000
-1.6914469e+000
-1.4445571e+000
-1.0684576e+000
-7.0362544e-001
-3.6095709e-001
-1.1205304e-001
6.8591304e-002
1.5623792e-001
1.8108143e-001
1.4868538e-001
1.0352173e-001
8.1037618e-002
6.7538455e-002
5.2177913e-002
1.2574346e-002
-6.1966717e-002
-1.3782343e-001
-2.0043629e-001
-2.2548200e-001
-2.1498857e-001
-2.4019419e-001
-3.0752230e-001
-4.1024652e-001
-5.3415000e-001
-5.4274982e-001
-4.6575400e-001
-3.1949282e-001
-1.3493653e-001
-6.6044182e-004
1.0021944e-001
1.4639992e-001
1.4886814e-001
5.9544586e-002
-6.9397330e-002
-1.5897441e-001
-1.7329417e-001
-9.9420324e-003
1.9660629e-001
3.0055887e-001
2.9520440e-001
1.6321653e-001
3.7737198e-002
-2.1136250e-001
-4.9741644e-001
-6.9509357e-001
-8.6021656e-001
-1.0246577e+000
-1.2045677e+000
-1.4005108e+000
-1.6201497e+000
-1.8562034e+000
-2.0712714e+000
-2.2662344e+000
-2.3193400e+000
-2.2672470e+000
-2.0063910e+000
-1.6063505e+000
-1.2141217e+000
-8.3674729e-001
-5.3808236e-001
-2.7842739e-001
9.2653260e-002
6.4351469e-001
1.4034028e+000
2.2203374e+000
2.9411218e+000
3.5760133e+000
4.1276798e+000
4.7730465e+000
5.6706376e+000
7.1305981e+000
9.3199501e+000
1.2571324e+001
1.6913429e+001
2.1505581e+001
2.5924931e+001
2.9842939e+001
3.3255333e+001
3.6978256e+001
4.1138889e+001
4.5899830e+001
5.1142040e+001
5.5741329e+001
5.9747429e+001
6.3702293e+001
6.7699860e+001
7.2393677e+001
7.7603500e+001
8.2774055e+001
8.7821144e+001
9.2448715e+001
9.6649239e+001
1.0036918e+002
1.0354229e+002
1.0607490e+002
1.0773960e+002
1.0831000e+002
1.0762245e+002
1.0565321e+002
1.0295332e+002
1.0004302e+002
9.6889282e+001
9.3500717e+001
8.9449310e+001
8.4639893e+001
7.9646675e+001
7.4693260e+001
6.9990372e+001
6.5550064e+001
6.0907040e+001
5.6016628e+001
5.1250526e+001
4.6647968e+001
4.2527718e+001
3.8904152e+001
3.5821941e+001
3.3266590e+001
3.1075647e+001
2.9219564e+001
2.7549212e+001
2.6102163e+001
2.4921629e+001
2.4023867e+001
2.3389999e+001
2.2993454e+001
2.2765394e+001
2.2685093e+001
2.2714037e+001
2.2859486e+001
2.3112463e+001
2.3464880e+001
2.3902185e+001
2.4476616e+001
2.5203543e+001
2.6082769e+001
2.7109381e+001
2.8207718e+001
2.9359280e+001
3.0534893e+001
3.1732004e+001
3.3007496e+001
3.4426212e+001
3.6520233e+001
3.9334999e+001
4.2455170e+001
4.5681835e+001
4.8108032e+001
4.9698521e+001
5.0736286e+001
5.1188358e+001
5.1187801e+001
5.0742760e+001
4.9993237e+001
4.9040371e+001
4.8052917e+001
4.7016369e+001
4.5910290e+001
4.4682442e+001
4.3295601e+001
4.1721420e+001
3.9942577e+001
3.8079601e+001
3.6189636e+001
3.4361885e+001
3.2630508e+001
3.0765160e+001
2.8693069e+001
2.6175097e+001
2.3112278e+001
2.0228931e+001
1.7631334e+001
1.5520638e+001
1.3946750e+001
1.2372714e+001
1.0794961e+001
9.2086468e+000
7.6281319e+000
6.0951328e+000
4.6404672e+000
3.2985020e+000
2.1393223e+000
1.2288965e+000
5.8694375e-001
2.0217264e-001
1.4559431e-001
5.0303566e-001
1.1107472e+000
1.8288046e+000
2.4912844e+000
2.9798880e+000
3.3605685e+000
3.6364257e+000
3.9569008e+000
4.3829999e+000
4.8850980e+000
5.4853721e+000
5.9269400e+000
6.1190538e+000
6.1671071e+000
6.0176411e+000
5.8243580e+000
5.5668092e+000
5.2564282e+000
4.8720341e+000
4.4270811e+000
3.9375954e+000
3.4921298e+000
3.1127760e+000
2.8131692e+000
2.6097903e+000
2.5069437e+000
2.5471585e+000
2.7872815e+000
3.1763287e+000
3.6749051e+000
4.1706829e+000
4.5621881e+000
4.8856635e+000
5.1371970e+000
5.3729668e+000
5.6128345e+000
5.8250842e+000
5.9863806e+000
6.0930572e+000
6.1079149e+000
6.0962086e+000
6.0402055e+000
5.9406147e+000
5.7704802e+000
5.5479932e+000
5.2500072e+000
4.9087949e+000
4.5063310e+000
4.0554743e+000
3.5659115e+000
3.1083241e+000
2.6997507e+000
2.3592193e+000
2.0497799e+000
1.6913306e+000
1.2924678e+000
8.6359811e-001
4.7105640e-001
2.0373502e-001
3.8102552e-002
1.1802024e-003
1.7535426e-002
7.5913996e-002
1.3212785e-001
1.6324560e-001
1.7906103e-001
1.6767921e-001
1.7954373e-001
2.4336687e-001
3.3349341e-001
4.7357282e-001
6.1015290e-001
7.4408519e-001
8.8883555e-001
1.0512488e+000
1.2389084e+000
1.4552948e+000
1.6806741e+000
1.9119200e+000
2.1362648e+000
2.3504879e+000
2.5458183e+000
2.7181005e+000
2.8529785e+000
2.9527183e+000
3.0077949e+000
3.0334039e+000
3.0309255e+000
3.0148714e+000
2.9878283e+000
2.9609561e+000
2.9417498e+000
2.9354880e+000
2.9608607e+000
3.0024557e+000
3.0815053e+000
3.1704910e+000
3.2819512e+000
3.3995245e+000
3.5296931e+000
3.6723011e+000
3.8399215e+000
4.0407062e+000
4.2947679e+000
4.5906916e+000
4.9382234e+000
5.3046699e+000
5.6910772e+000
6.0870857e+000
6.4991260e+000
6.9429140e+000
7.4138355e+000
7.9111047e+000
8.4170494e+000
8.9091539e+000
9.3744059e+000
9.7678967e+000
1.0095926e+001
1.0274915e+001
1.0379860e+001
1.0333360e+001
1.0245727e+001
1.0070745e+001
9.8550873e+000
9.5262184e+000
9.1457253e+000
8.6451283e+000
8.1361351e+000
7.6140146e+000
7.1084490e+000
6.6265292e+000
6.1308050e+000
5.6127167e+000
5.0729365e+000
4.5111623e+000
3.9555674e+000
3.4130194e+000
2.9047863e+000
2.4336643e+000
2.0174434e+000
1.6401268e+000
1.2949640e+000
9.6292412e-001
6.2710100e-001
3.0803084e-001
6.2584281e-002
-1.1970218e-001
-1.1323419e-001
-4.9455598e-002
1.4166501e-001
3.3090025e-001
4.8330680e-001
6.0636443e-001
6.3873589e-001
6.4347333e-001
5.8021337e-001
5.0278622e-001
3.9992803e-001
3.1061572e-001
2.4533236e-001
1.9805086e-001
1.7157288e-001
1.3368066e-001
8.3607353e-002
3.0864472e-002
-1.4960566e-002
-1.1654586e-002
2.5388744e-002
7.7970572e-002
1.8159610e-001
3.7786710e-001
6.3862979e-001
1.0518578e+000
1.5197929e+000
2.0564063e+000
2.5752599e+000
2.9359720e+000
3.2379670e+000
3.3042772e+000
3.3486884e+000
3.3196223e+000
3.3130980e+000
3.3812406e+000
3.4898350e+000
3.6982818e+000
3.9224772e+000
4.1751666e+000
4.4149728e+000
4.6394000e+000
4.8925881e+000
5.1887379e+000
5.5441160e+000
5.9518318e+000
6.3267951e+000
6.6632161e+000
6.9021268e+000
7.0791698e+000
7.2258158e+000
7.3535671e+000
7.4439678e+000
7.5032983e+000
7.4267511e+000
7.3079805e+000
7.0997615e+000
6.8878078e+000
6.7346635e+000
6.6024609e+000
6.5870147e+000
6.5755515e+000
6.5790877e+000
6.5546865e+000
6.4412160e+000
6.3126616e+000
6.1494322e+000
5.9951005e+000
5.8543200e+000
5.6840019e+000
5.4668722e+000
5.2038803e+000
4.8900566e+000
4.5855484e+000
4.2918825e+000
4.0277753e+000
3.7817421e+000
3.5132542e+000
3.2275031e+000
2.8824880e+000
2.5145352e+000
2.1435800e+000
1.7773001e+000
1.4725738e+000
1.1790638e+000
8.9540762e-001
6.0958588e-001
2.8948221e-001
-2.4360552e-002
-2.9279131e-001
-5.4506469e-001
-7.2604072e-001
-8.9763319e-001
-1.0385326e+000
-1.1525452e+000
-1.2032589e+000
-1.2215765e+000
-1.1855080e+000
-1.1751682e+000
-1.2003961e+000
-1.2483820e+000
-1.3149543e+000
-1.2998372e+000
-1.2127620e+000
-9.9805301e-001
-7.0639974e-001
-4.1794002e-001
-1.3820653e-001
-2.6899278e-003
8.2909599e-002
9.4269641e-002
8.9603767e-002
7.9599038e-002
6.7863755e-002
2.9622272e-002
-6.7899013e-003
-2.2379144e-003
2.8024837e-003
8.4701762e-002
1.7604160e-001
3.0785441e-001
4.5876431e-001
6.6591752e-001
8.9009655e-001
1.1495695e+000
1.3688520e+000
1.5209807e+000
1.5305260e+000
1.3650876e+000
1.0938632e+000
7.2715068e-001
5.1269686e-001
4.0875447e-001
5.5352521e-001
8.2960045e-001
1.1443260e+000
1.4729865e+000
1.7226092e+000
1.9509143e+000
2.0706925e+000
2.1726406e+000
2.0611000e+000
