Image.
>Pix99999.
  .
5555
5555
2300
900
5555
2
1
0
701
5555
2.0836000e-001
2.1269380e-001
2.1702760e-001
2.2136140e-001
2.2569521e-001
2.3002900e-001
2.3436281e-001
2.3869659e-001
2.4303040e-001
2.4737407e-001
2.5170800e-001
2.5604182e-001
2.6037562e-001
2.6470941e-001
2.6904318e-001
2.7337700e-001
2.7771080e-001
2.8204459e-001
2.8637838e-001
2.9071218e-001
2.9504600e-001
2.9938948e-001
3.0372360e-001
3.0805740e-001
3.1239119e-001
3.1672499e-001
1.7192185e-001
6.4155855e-003
-8.4541440e-002
-1.0161436e-001
-1.0831615e-001
-3.5684291e-002
4.6639193e-002
2.1895190e-001
3.9568335e-001
5.7280999e-001
7.1432823e-001
6.9275528e-001
6.2835461e-001
4.5992494e-001
3.3390802e-001
3.1335992e-001
3.6899519e-001
5.3883976e-001
6.8993533e-001
8.0890274e-001
8.5743576e-001
8.4010500e-001
8.2215440e-001
8.0700862e-001
8.2817143e-001
8.7009019e-001
8.9440256e-001
9.1032475e-001
9.0696800e-001
8.9754158e-001
9.3070877e-001
9.7378320e-001
1.0508581e+000
1.1328633e+000
1.2135829e+000
1.2918854e+000
1.3445449e+000
1.3840350e+000
1.3616056e+000
1.3282478e+000
1.2768254e+000
1.2463896e+000
1.2740360e+000
1.3355323e+000
1.4499000e+000
1.5657748e+000
1.6759166e+000
1.7616339e+000
1.8207377e+000
1.8675036e+000
1.9059176e+000
1.9228159e+000
1.9251108e+000
1.9047070e+000
1.8726943e+000
1.8680158e+000
1.8756692e+000
1.9082552e+000
1.9484921e+000
1.9845892e+000
2.0195122e+000
2.0626819e+000
2.1062315e+000
2.1311648e+000
2.1496856e+000
2.1409512e+000
2.1363468e+000
2.1682444e+000
2.2234981e+000
2.3326807e+000
2.4435143e+000
2.5400910e+000
2.6103899e+000
2.6397047e+000
2.6767714e+000
2.7317746e+000
2.8118601e+000
2.9151852e+000
2.9812195e+000
3.0140550e+000
3.0066745e+000
2.9759665e+000
2.9524479e+000
2.9340715e+000
2.9078686e+000
2.8780048e+000
2.8355680e+000
2.7889872e+000
2.7738657e+000
2.7673857e+000
2.8363130e+000
2.9236581e+000
3.0582089e+000
3.1965420e+000
3.3047457e+000
3.3927727e+000
3.4273999e+000
3.4441292e+000
3.4391475e+000
3.4365144e+000
3.4455659e+000
3.4675729e+000
3.5081995e+000
3.5533335e+000
3.6022515e+000
3.6549065e+000
3.7099345e+000
3.7771809e+000
3.8522749e+000
3.9058044e+000
3.9436224e+000
3.9162376e+000
3.8555536e+000
3.7851574e+000
3.7135398e+000
3.7036719e+000
3.7163587e+000
3.7434101e+000
3.7720783e+000
3.7563343e+000
3.7275112e+000
3.6803992e+000
3.6337779e+000
3.6022387e+000
3.5739071e+000
3.5393305e+000
3.4936881e+000
3.4338138e+000
3.3798301e+000
3.3516052e+000
3.3499086e+000
3.3763986e+000
3.4132228e+000
3.4503958e+000
3.4778543e+000
3.4939721e+000
3.5063999e+000
3.5161810e+000
3.5196784e+000
3.5197945e+000
3.4685886e+000
3.3930039e+000
3.2965519e+000
3.1931846e+000
3.1779428e+000
3.1981034e+000
3.2918515e+000
3.4028873e+000
3.4244146e+000
3.3947001e+000
3.2488606e+000
3.0746408e+000
2.9573743e+000
2.8850121e+000
2.8909371e+000
2.9125388e+000
2.9083719e+000
2.8919797e+000
2.8577404e+000
2.8611786e+000
2.9141488e+000
3.0288234e+000
3.2015159e+000
3.3516910e+000
3.4787972e+000
3.5214891e+000
3.5029833e+000
3.4222715e+000
3.3059330e+000
3.1692407e+000
3.0261359e+000
2.9086535e+000
2.8063271e+000
2.7210722e+000
2.6445713e+000
2.5760226e+000
2.5121379e+000
2.4728839e+000
2.4414132e+000
2.4188471e+000
2.3904643e+000
2.3379385e+000
2.2822971e+000
2.2318196e+000
2.2184999e+000
2.2536793e+000
2.3148904e+000
2.3814042e+000
2.3735814e+000
2.2908056e+000
2.1383233e+000
1.9531690e+000
1.8220000e+000
1.7396196e+000
1.7415485e+000
1.7918043e+000
1.9064243e+000
2.0502434e+000
2.1849680e+000
2.3027356e+000
2.2429843e+000
2.0816853e+000
1.7995052e+000
1.4713215e+000
1.1760601e+000
9.1623402e-001
7.0941234e-001
5.5759895e-001
5.3442210e-001
5.7997930e-001
7.0119387e-001
8.0872291e-001
8.1829983e-001
7.6022696e-001
6.3030803e-001
5.0218064e-001
4.0479279e-001
3.6074772e-001
3.7463057e-001
4.5332399e-001
5.8396041e-001
7.7173245e-001
9.9086475e-001
1.1668428e+000
1.2999142e+000
1.2708206e+000
1.1428879e+000
9.6279913e-001
7.7108276e-001
6.5307224e-001
5.8536768e-001
5.2021104e-001
4.6964294e-001
4.6774989e-001
4.9027944e-001
5.0255942e-001
4.5137295e-001
2.6645386e-001
3.9826524e-002
-1.0373875e-001
-1.3593180e-001
-5.0527841e-002
4.1151702e-002
-1.1215478e-002
-1.3825087e-001
-2.7517146e-001
-2.6820040e-001
-9.3248092e-002
1.7932215e-001
5.0979000e-001
6.7196923e-001
6.8077344e-001
5.9870380e-001
4.5955575e-001
4.0509599e-001
4.0805563e-001
3.3509958e-001
2.0658000e-001
-3.1888053e-002
-3.0407184e-001
-4.1106540e-001
-3.3843309e-001
-4.9001724e-003
5.1164466e-001
1.3405857e+000
2.3171129e+000
3.2287333e+000
4.1039615e+000
4.9300742e+000
5.9324827e+000
7.2761846e+000
9.1675835e+000
1.1707149e+001
1.4703927e+001
1.8037001e+001
2.1127420e+001
2.3759977e+001
2.6173651e+001
2.8459463e+001
3.1269058e+001
3.4636299e+001
3.8495525e+001
4.2736122e+001
4.6490719e+001
4.9803356e+001
5.3113640e+001
5.6474018e+001
6.0368496e+001
6.4649803e+001
6.8903404e+001
7.3076210e+001
7.6929146e+001
8.0481453e+001
8.3715187e+001
8.6718597e+001
8.9615082e+001
9.2393303e+001
9.5062744e+001
9.7022148e+001
9.7849854e+001
9.7688774e+001
9.6742065e+001
9.5227783e+001
9.3315964e+001
9.0737671e+001
8.7486885e+001
8.3918739e+001
8.0213318e+001
7.6569351e+001
7.3006630e+001
6.9147156e+001
6.4968033e+001
6.0678741e+001
5.6321907e+001
5.2151371e+001
4.8203728e+001
4.4654247e+001
4.1530048e+001
3.8829124e+001
3.6521450e+001
3.4454155e+001
3.2632996e+001
3.1033342e+001
2.9662153e+001
2.8488998e+001
2.7500814e+001
2.6657690e+001
2.5960196e+001
2.5395363e+001
2.5008436e+001
2.4805149e+001
2.4816380e+001
2.5029938e+001
2.5472439e+001
2.6144199e+001
2.6975555e+001
2.7958031e+001
2.8947653e+001
2.9918800e+001
3.0882771e+001
3.1839260e+001
3.3014000e+001
3.4476028e+001
3.6576267e+001
3.9248901e+001
4.1719402e+001
4.3890362e+001
4.5438690e+001
4.6471809e+001
4.7446785e+001
4.8359531e+001
4.9242832e+001
4.9917400e+001
5.0264084e+001
5.0258144e+001
4.9917255e+001
4.9406143e+001
4.8805756e+001
4.8065605e+001
4.7152950e+001
4.6001850e+001
4.4596943e+001
4.2913349e+001
4.0982643e+001
3.9060101e+001
3.7218197e+001
3.5474922e+001
3.3791813e+001
3.1629053e+001
2.8823778e+001
2.5852646e+001
2.2778996e+001
2.0152018e+001
1.8033440e+001
1.5987714e+001
1.4000413e+001
1.2000206e+001
9.9751968e+000
7.9502392e+000
5.9619279e+000
4.0734177e+000
2.4348330e+000
1.1749985e+000
3.5834903e-001
7.7535644e-002
3.6634988e-001
1.1443458e+000
2.0384851e+000
2.8599422e+000
3.6463184e+000
4.3590412e+000
5.1226478e+000
5.9885464e+000
6.7090902e+000
7.1821804e+000
7.2754650e+000
6.8628173e+000
6.4068842e+000
5.9339552e+000
5.4827642e+000
5.0559707e+000
4.6351042e+000
4.2231855e+000
3.8788412e+000
3.5706487e+000
3.2138031e+000
2.7680984e+000
2.2186410e+000
1.6436560e+000
1.1806977e+000
8.9289284e-001
8.3155906e-001
9.3911612e-001
1.1616948e+000
1.4057685e+000
1.5863659e+000
1.7742826e+000
1.9776506e+000
2.2478750e+000
2.6246135e+000
3.0561352e+000
3.5707333e+000
4.0989480e+000
4.6426806e+000
5.1113501e+000
5.4475164e+000
5.6378098e+000
5.6201324e+000
5.5253630e+000
5.3266301e+000
5.1090331e+000
4.8734336e+000
4.6708331e+000
4.5035329e+000
4.3653345e+000
4.2134142e+000
3.9913421e+000
3.6865458e+000
3.2982869e+000
2.8578079e+000
2.3875284e+000
1.8881761e+000
1.3766526e+000
8.9184821e-001
4.9392101e-001
2.0465833e-001
6.6198677e-002
2.0007782e-002
7.0496827e-002
1.4689460e-001
3.3294800e-001
5.7026505e-001
8.8437140e-001
1.1539431e+000
1.3311743e+000
1.3961328e+000
1.3123794e+000
1.2238810e+000
1.1487108e+000
1.1514179e+000
1.2548335e+000
1.4491001e+000
1.7378818e+000
2.0682831e+000
2.4102001e+000
2.6771739e+000
2.8593805e+000
2.9235845e+000
2.9073725e+000
2.8381858e+000
2.7504828e+000
2.6838560e+000
2.6517434e+000
2.7059240e+000
2.8139143e+000
3.0069284e+000
3.2151725e+000
3.4184673e+000
3.5943720e+000
3.7038257e+000
3.7857370e+000
3.8142545e+000
3.8393114e+000
3.8630867e+000
3.9186072e+000
4.0313272e+000
4.1795845e+000
4.3783689e+000
4.5838180e+000
4.8053269e+000
5.0429688e+000
5.3195744e+000
5.6590099e+000
6.0754542e+000
6.5641942e+000
7.1157756e+000
7.6939287e+000
8.2901154e+000
8.8893061e+000
9.4933996e+000
1.0117224e+001
1.0747194e+001
1.1379028e+001
1.1992112e+001
1.2536685e+001
1.3011739e+001
1.3298800e+001
1.3476803e+001
1.3357986e+001
1.3160007e+001
1.2755709e+001
1.2332255e+001
1.1864534e+001
1.1387150e+001
1.0888514e+001
1.0362869e+001
9.7935562e+000
9.2156515e+000
8.6301012e+000
8.0591955e+000
7.5082479e+000
6.9706788e+000
6.4428420e+000
5.9062867e+000
5.3545570e+000
4.7672977e+000
4.1611414e+000
3.5606890e+000
2.9815290e+000
2.4813449e+000
2.0321093e+000
1.6869630e+000
1.4016626e+000
1.2608876e+000
1.1768200e+000
1.2402780e+000
1.3135868e+000
1.3925847e+000
1.4371588e+000
1.3796643e+000
1.3051283e+000
1.1922160e+000
1.0961372e+000
1.0319277e+000
9.6880114e-001
9.0042675e-001
7.9335392e-001
6.3191712e-001
4.4490722e-001
2.4065930e-001
8.6365074e-002
-9.5936190e-003
-1.6718697e-002
4.3019608e-002
1.4932029e-001
2.8422302e-001
4.8720425e-001
7.2982544e-001
1.0421252e+000
1.3815808e+000
1.7615072e+000
2.1429973e+000
2.4956479e+000
2.8332534e+000
3.1062469e+000
3.3825357e+000
3.6785183e+000
3.9922876e+000
4.3613229e+000
4.7242799e+000
5.0706191e+000
5.3968511e+000
5.6856670e+000
5.9801474e+000
6.2896571e+000
6.6496830e+000
7.0797601e+000
7.5728931e+000
8.1212826e+000
8.6288490e+000
9.0809345e+000
9.3607092e+000
9.5232639e+000
9.5804739e+000
9.6077843e+000
9.7596769e+000
9.9703388e+000
1.0307488e+001
1.0647411e+001
1.0801908e+001
1.0896240e+001
1.0721590e+001
1.0530869e+001
1.0325395e+001
1.0124738e+001
9.9449253e+000
9.7290945e+000
9.3950434e+000
9.0130596e+000
8.5160360e+000
7.9997406e+000
7.4501686e+000
6.9083037e+000
6.3821058e+000
5.8947001e+000
5.4561319e+000
5.0758944e+000
4.7504034e+000
4.4709325e+000
4.2232609e+000
3.9846148e+000
3.7473860e+000
3.4718053e+000
3.1766822e+000
2.8232284e+000
2.4530342e+000
2.0693507e+000
1.6874598e+000
1.3549720e+000
1.0305771e+000
7.5599170e-001
4.8704752e-001
2.5470027e-001
2.3697928e-002
-2.0188786e-001
-4.3687242e-001
-6.9883502e-001
-9.4484514e-001
-1.1511312e+000
-1.3084507e+000
-1.3789011e+000
-1.3948846e+000
-1.3339940e+000
-1.1833138e+000
-9.3381453e-001
-5.8167052e-001
-1.4905493e-001
2.6345706e-001
6.5479410e-001
8.9196104e-001
1.0539685e+000
1.1092088e+000
1.1296183e+000
1.1298361e+000
1.1233943e+000
1.0553788e+000
9.7578001e-001
7.9131830e-001
5.9939682e-001
3.5945928e-001
1.2235600e-001
-1.0053635e-002
-3.1531617e-001
-6.1019498e-001
-8.4302825e-001
-8.9217031e-001
-8.3233762e-001
-5.4124242e-001
-2.7671951e-001
-5.7444517e-002
3.6577180e-002
-2.0436693e-002
-2.6955605e-003
8.8524610e-002
4.1852388e-001
9.1804922e-001
1.4845698e+000
2.0831671e+000
2.5186775e+000
2.8873878e+000
3.0531313e+000
3.1630635e+000
3.1777959e+000
3.1762886e+000
3.0985000e+000
