Image.
>Pix99999.
  .
5555
5555
2300
900
5555
2
1
0
701
5555
9.6832000e-002
9.8847114e-002
1.0086422e-001
1.0287139e-001
1.0488846e-001
1.0690556e-001
1.0892268e-001
1.1092990e-001
1.1294691e-001
1.1496403e-001
1.1698114e-001
1.1898842e-001
1.2100537e-001
1.2302249e-001
1.2502980e-001
1.2704672e-001
1.2906383e-001
1.3108094e-001
1.3308831e-001
1.3510518e-001
1.3712229e-001
1.3913940e-001
1.4114684e-001
1.4316364e-001
1.4518073e-001
1.4719786e-001
6.5124802e-002
2.3897314e-003
-8.0243520e-002
-5.2426718e-002
-8.1711896e-003
8.8258676e-002
1.8567322e-001
2.2136466e-001
2.4626756e-001
2.0876649e-001
1.5861847e-001
6.5221623e-002
-5.0729997e-002
-2.2827983e-001
-4.1054571e-001
-5.9553969e-001
-7.2781038e-001
-7.7381617e-001
-7.7256209e-001
-7.1901166e-001
-6.9509465e-001
-7.0295197e-001
-7.4126834e-001
-8.0077934e-001
-7.9919076e-001
-7.6153380e-001
-6.7211127e-001
-5.6104922e-001
-5.2151203e-001
-5.0570673e-001
-5.8811599e-001
-6.9277614e-001
-7.9835200e-001
-9.0288454e-001
-9.2507595e-001
-9.3793243e-001
-9.3069136e-001
-9.3309230e-001
-1.0016346e+000
-1.0807085e+000
-1.1747768e+000
-1.2438446e+000
-1.2451440e+000
-1.2213432e+000
-1.1632700e+000
-1.1268181e+000
-1.1269886e+000
-1.1361780e+000
-1.1512402e+000
-1.1179893e+000
-1.0415051e+000
-9.6840638e-001
-9.0076578e-001
-9.1455370e-001
-9.7239572e-001
-1.0337963e+000
-1.0948426e+000
-1.0858698e+000
-1.0546600e+000
-1.0318985e+000
-1.0115817e+000
-1.0272273e+000
-1.0486845e+000
-1.0699918e+000
-1.0939629e+000
-1.1388600e+000
-1.1895709e+000
-1.2524909e+000
-1.3088009e+000
-1.3396221e+000
-1.3537406e+000
-1.3392051e+000
-1.3200020e+000
-1.2999568e+000
-1.2989000e+000
-1.3228177e+000
-1.3791678e+000
-1.4653689e+000
-1.5414503e+000
-1.6056100e+000
-1.5959920e+000
-1.5387218e+000
-1.4726754e+000
-1.4053262e+000
-1.3936199e+000
-1.4050958e+000
-1.3889041e+000
-1.3630102e+000
-1.3314091e+000
-1.3010286e+000
-1.3915423e+000
-1.5105261e+000
-1.6794257e+000
-1.8462180e+000
-1.9474458e+000
-2.0210788e+000
-2.0418873e+000
-2.0516131e+000
-2.0590601e+000
-2.0775499e+000
-2.1182001e+000
-2.1690295e+000
-2.2290812e+000
-2.2720499e+000
-2.2924728e+000
-2.2791615e+000
-2.2370195e+000
-2.1885722e+000
-2.1390331e+000
-2.1132765e+000
-2.1027932e+000
-2.0820580e+000
-2.0545988e+000
-2.0293648e+000
-2.0055399e+000
-2.0755463e+000
-2.1773825e+000
-2.3204830e+000
-2.4687982e+000
-2.5308936e+000
-2.5608060e+000
-2.5176780e+000
-2.4599092e+000
-2.4183035e+000
-2.4000072e+000
-2.4390807e+000
-2.5002332e+000
-2.5801871e+000
-2.6525199e+000
-2.7050714e+000
-2.7362943e+000
-2.7443719e+000
-2.7126348e+000
-2.6412942e+000
-2.5203459e+000
-2.3610020e+000
-2.1948402e+000
-2.0291309e+000
-1.9621686e+000
-1.9579329e+000
-2.1070654e+000
-2.3321640e+000
-2.5692561e+000
-2.8073952e+000
-2.9457872e+000
-3.0456846e+000
-3.0548916e+000
-3.0312786e+000
-2.9633324e+000
-2.8916001e+000
-2.8759971e+000
-2.8865864e+000
-2.9319091e+000
-2.9667423e+000
-2.9474285e+000
-2.9050841e+000
-2.8474720e+000
-2.7965133e+000
-2.7619383e+000
-2.6974235e+000
-2.5870767e+000
-2.4095409e+000
-2.1731844e+000
-1.9614789e+000
-1.7863557e+000
-1.6906090e+000
-1.6490576e+000
-1.6766418e+000
-1.7417228e+000
-1.8934214e+000
-2.0896239e+000
-2.2409515e+000
-2.3693204e+000
-2.3355894e+000
-2.2358999e+000
-2.1033792e+000
-1.9729561e+000
-1.9451650e+000
-1.9741503e+000
-2.0810127e+000
-2.2102435e+000
-2.3194780e+000
-2.4044526e+000
-2.4486430e+000
-2.4706900e+000
-2.4754617e+000
-2.4394760e+000
-2.3494196e+000
-2.2208498e+000
-2.0680201e+000
-1.9914120e+000
-2.0051129e+000
-2.0987399e+000
-2.2421696e+000
-2.3711028e+000
-2.4790289e+000
-2.4928849e+000
-2.4452586e+000
-2.2700880e+000
-2.0243857e+000
-1.8539556e+000
-1.7329144e+000
-1.8535897e+000
-2.0878849e+000
-2.3140600e+000
-2.5021050e+000
-2.5034759e+000
-2.3782969e+000
-2.1002946e+000
-1.7903650e+000
-1.5774908e+000
-1.5013753e+000
-1.6304700e+000
-1.8369706e+000
-2.0359657e+000
-2.1441166e+000
-2.1237912e+000
-2.0321708e+000
-1.9068663e+000
-1.7676250e+000
-1.6247057e+000
-1.4419534e+000
-1.2223543e+000
-9.9951541e-001
-7.8027856e-001
-6.1750460e-001
-4.9595961e-001
-4.5548186e-001
-4.6525195e-001
-5.2214348e-001
-5.9992963e-001
-6.0913730e-001
-5.6097418e-001
-3.8024139e-001
-1.2786755e-001
1.2930183e-001
3.3613911e-001
3.7062821e-001
3.1021824e-001
2.1856065e-001
1.5877941e-001
1.9462949e-001
8.5771486e-002
-1.3168898e-001
-2.5254315e-001
-2.4121301e-001
6.2017426e-002
6.6731411e-001
1.3699888e+000
2.0763786e+000
2.4062674e+000
2.3739119e+000
2.1540027e+000
1.8394293e+000
1.7295799e+000
1.7902294e+000
1.7464780e+000
1.6040813e+000
1.1421677e+000
4.9138647e-001
3.8037457e-002
-1.9872713e-001
1.0316914e-001
9.0695482e-001
2.1719158e+000
3.5954769e+000
4.7748675e+000
5.7738018e+000
6.6652999e+000
7.7454219e+000
9.2902794e+000
1.1530282e+001
1.4558005e+001
1.8149254e+001
2.2077856e+001
2.5580999e+001
2.8403090e+001
3.0891874e+001
3.3243721e+001
3.6333519e+001
4.0202122e+001
4.4733582e+001
4.9740200e+001
5.4018723e+001
5.7632687e+001
6.1301819e+001
6.5105988e+001
6.9635620e+001
7.4686096e+001
7.9570053e+001
8.4217941e+001
8.8364990e+001
9.2036201e+001
9.5251564e+001
9.8045944e+001
1.0048372e+002
1.0246040e+002
1.0386781e+002
1.0413828e+002
1.0284250e+002
1.0046972e+002
9.7532249e+001
9.4297348e+001
9.0970673e+001
8.7090660e+001
8.2527168e+001
7.7737953e+001
7.2910881e+001
6.8371262e+001
6.4157684e+001
5.9883320e+001
5.5496246e+001
5.1180176e+001
4.6951138e+001
4.2906456e+001
3.9073761e+001
3.5644131e+001
3.2648922e+001
3.0154474e+001
2.8137142e+001
2.6436083e+001
2.5043856e+001
2.3889652e+001
2.2976810e+001
2.2271999e+001
2.1779581e+001
2.1472595e+001
2.1335283e+001
2.1329185e+001
2.1460007e+001
2.1719326e+001
2.2140150e+001
2.2729595e+001
2.3575911e+001
2.4702314e+001
2.6047428e+001
2.7577154e+001
2.9041262e+001
3.0382481e+001
3.1601780e+001
3.2705288e+001
3.4026493e+001
3.5664196e+001
3.8142250e+001
4.1451656e+001
4.4667160e+001
4.7593891e+001
4.9630943e+001
5.0859283e+001
5.1926609e+001
5.2826576e+001
5.3599846e+001
5.4005119e+001
5.3702362e+001
5.2745399e+001
5.1318756e+001
4.9699947e+001
4.8213226e+001
4.6871872e+001
4.5681499e+001
4.4449047e+001
4.3050983e+001
4.1249481e+001
3.8903061e+001
3.6483074e+001
3.4135849e+001
3.1959200e+001
3.0007364e+001
2.7602577e+001
2.4583914e+001
2.1469389e+001
1.8310831e+001
1.5706006e+001
1.3729780e+001
1.1860001e+001
1.0110352e+001
8.4094820e+000
6.7854528e+000
5.2662201e+000
3.8658071e+000
2.5633340e+000
1.4391583e+000
5.9479576e-001
9.7734824e-002
3.2368071e-002
4.2971453e-001
1.2000530e+000
2.0234840e+000
2.6814086e+000
3.1913421e+000
3.5496171e+000
3.9615636e+000
4.5353999e+000
5.1797595e+000
5.8854799e+000
6.3750887e+000
6.5090170e+000
6.4581294e+000
6.1547022e+000
5.8289857e+000
5.4805880e+000
5.1711831e+000
4.9200368e+000
4.7176352e+000
4.5534358e+000
4.3245111e+000
4.0153012e+000
3.6367385e+000
3.2379661e+000
2.9532442e+000
2.8133526e+000
2.8423827e+000
3.0080926e+000
3.2511830e+000
3.5268629e+000
3.7862041e+000
4.0258336e+000
4.2458582e+000
4.4678473e+000
4.7085700e+000
4.9819965e+000
5.3061810e+000
5.6332321e+000
5.9497333e+000
6.1724000e+000
6.2205334e+000
6.1889782e+000
6.0229025e+000
5.8427873e+000
5.6336651e+000
5.3808141e+000
5.0686507e+000
4.7360902e+000
4.3904972e+000
4.0758057e+000
3.7976801e+000
3.5334060e+000
3.2745566e+000
2.9987285e+000
2.6901078e+000
2.3293617e+000
1.9222775e+000
1.4697703e+000
1.0203822e+000
6.3005644e-001
3.1258115e-001
1.2045525e-001
1.6922705e-002
3.0977430e-002
1.0265611e-001
2.7867919e-001
4.9144945e-001
7.5928557e-001
9.8999816e-001
1.1347457e+000
1.2118706e+000
1.1653792e+000
1.1244941e+000
1.1003954e+000
1.1248422e+000
1.2274148e+000
1.3829125e+000
1.6085000e+000
1.8668649e+000
2.1452799e+000
2.3812037e+000
2.5547125e+000
2.6401634e+000
2.6542275e+000
2.6348300e+000
2.6085372e+000
2.6162410e+000
2.6416764e+000
2.6746945e+000
2.6932714e+000
2.6638000e+000
2.6249170e+000
2.5892782e+000
2.5830998e+000
2.6527042e+000
2.7471471e+000
2.8910823e+000
3.0289760e+000
3.1510241e+000
3.2540286e+000
3.3217151e+000
3.3822823e+000
3.4351354e+000
3.5017996e+000
3.5917406e+000
3.7076514e+000
3.8604128e+000
4.0506001e+000
4.2882590e+000
4.5763345e+000
4.9219484e+000
5.3385768e+000
5.8122158e+000
6.3323021e+000
6.8631754e+000
7.3515739e+000
7.7964692e+000
8.1483746e+000
8.4428511e+000
8.6331015e+000
8.7639351e+000
8.7644997e+000
8.7084312e+000
8.5108061e+000
8.2704878e+000
7.9173484e+000
7.5340061e+000
7.0776997e+000
6.5977201e+000
6.0725398e+000
5.5479541e+000
5.0308328e+000
4.5480733e+000
4.1138206e+000
3.6972492e+000
3.2923920e+000
2.8531058e+000
2.3768332e+000
1.8708460e+000
1.3545529e+000
8.8477778e-001
4.6088290e-001
1.1895020e-001
-1.7593157e-001
-4.2501295e-001
-6.4829183e-001
-8.2709682e-001
-9.6970129e-001
-1.0056106e+000
-1.0019900e+000
-8.9710855e-001
-7.8525186e-001
-6.6958678e-001
-5.5905199e-001
-4.6424109e-001
-3.6849701e-001
-2.7165341e-001
-1.8352583e-001
-1.1483459e-001
-6.4762756e-002
-4.7295544e-002
-5.2093990e-002
-8.3879165e-002
-1.0897860e-001
-1.2167965e-001
-1.0343947e-001
-5.9581168e-002
-1.5499800e-002
2.9857799e-002
9.6647143e-002
1.9536321e-001
3.9595860e-001
6.5205300e-001
9.9516690e-001
1.3631414e+000
1.7374017e+000
2.0988305e+000
2.3872359e+000
2.6481602e+000
2.7986200e+000
2.9455001e+000
3.0870433e+000
3.2506156e+000
3.4832375e+000
3.7153201e+000
3.9415708e+000
4.1318665e+000
4.2534714e+000
4.3725939e+000
4.4990573e+000
4.7072606e+000
5.0218778e+000
5.3927622e+000
5.8144317e+000
6.2131295e+000
6.5931139e+000
6.9634194e+000
7.3169656e+000
7.5918131e+000
7.8124003e+000
7.8967857e+000
7.9360375e+000
7.9703135e+000
8.0049515e+000
8.0510921e+000
8.0950880e+000
8.1125345e+000
8.1405478e+000
8.2444000e+000
8.3534174e+000
8.4827223e+000
8.5872087e+000
8.6112909e+000
8.6128111e+000
8.5588140e+000
8.4870319e+000
8.3830338e+000
8.2846804e+000
8.1977301e+000
8.1463699e+000
8.1341200e+000
8.1121368e+000
8.0773840e+000
7.9989982e+000
7.8889565e+000
7.7583537e+000
7.6064529e+000
7.3443856e+000
7.0199356e+000
6.4821138e+000
5.8808465e+000
5.2121744e+000
4.5437756e+000
4.0073037e+000
3.4972086e+000
3.1678455e+000
2.8627050e+000
2.7129474e+000
2.5731547e+000
2.4743571e+000
2.3377690e+000
2.0814915e+000
1.7710667e+000
1.3383209e+000
9.1419148e-001
5.1000929e-001
1.8643592e-001
-2.3987122e-002
-1.3670926e-001
-1.4526114e-001
-8.9674018e-002
1.6473278e-002
1.1662552e-001
2.1331920e-001
3.1099403e-001
4.1262978e-001
5.8375061e-001
7.7370113e-001
8.9095914e-001
9.8049140e-001
7.9783100e-001
5.7907122e-001
2.8150466e-001
4.5756527e-004
4.8085075e-004
4.6549737e-003
1.4492464e-001
4.2424506e-001
7.3670018e-001
1.0255971e+000
1.2457664e+000
1.4691219e+000
1.6998702e+000
1.9630115e+000
2.2773194e+000
2.5569582e+000
2.7928431e+000
2.9388747e+000
3.0012386e+000
3.0480127e+000
3.0841019e+000
3.1387393e+000
3.2027628e+000
3.2088664e+000
3.1930771e+000
3.1478994e+000
3.0965483e+000
3.3176584e+000
3.5830963e+000
4.1396999e+000
