##TITLE=Methyl Ethyl Ketone
##JCAMP-DX=4.24
##DATA TYPE=INFRARED SPECTRUM
##XUNITS=cm-1
##YUNITS=Absorbance
##FIRSTX=900
##LASTX=2300
##XYDATA=(X++(Y..Y))
2296 0.0084106997
2294 0.0085857492
2292 0.0087607
2290 0.0089356489
2288 0.0091105988
2286 0.0092856484
2284 0.0094606979
2282 0.009635549
2280 0.009810498
2278 0.0099857431
2276 0.0101605
2274 0.01033525
2272 0.01051
2270 0.010687695
2268 0.01086054
2266 0.011028401
2264 0.01120984
2262 0.011410119
2260 0.011561142
2258 0.011643801
2256 0.011907315
2254 0.012427161
2252 0.012271563
2250 0.011162491
2248 0.01256488
2246 0.019184714
2244 0.026485743
2242 0.022936322
2240 -0.02301188
2238 -0.13551039
2236 -0.28618729
2234 -0.43121254
2232 -0.52483261
2230 -0.53372663
2228 -0.47626537
2226 -0.38571101
2224 -0.29476103
2222 -0.23006904
2220 -0.19509532
2218 -0.18590513
2216 -0.19620915
2214 -0.22057459
2212 -0.25942442
2210 -0.31597495
2208 -0.39746216
2206 -0.50751811
2204 -0.63032848
2202 -0.7430613
2200 -0.81862152
2198 -0.83878899
2196 -0.8262614
2194 -0.81417704
2192 -0.82618672
2190 -0.87166893
2188 -0.91492826
2186 -0.91319978
2184 -0.85285038
2182 -0.73920262
2180 -0.61569917
2178 -0.52926838
2176 -0.4915857
2174 -0.49663359
2172 -0.51426053
2170 -0.51326102
2168 -0.48959517
2166 -0.45042816
2164 -0.41102919
2162 -0.38671133
2160 -0.38273332
2158 -0.40121758
2156 -0.44557801
2154 -0.51785254
2152 -0.6122337
2150 -0.71946353
2148 -0.82740861
2146 -0.92429429
2144 -1.0038586
2142 -1.060271
2140 -1.0823721
2138 -1.060181
2136 -0.99713719
2134 -0.90603834
2132 -0.81721783
2130 -0.76319641
2128 -0.75995117
2126 -0.81025678
2124 -0.88795424
2122 -0.95875841
2120 -0.99756283
2118 -0.99133843
2116 -0.96159184
2114 -0.93867278
2112 -0.93697309
2110 -0.95879257
2108 -0.98280925
2106 -0.98484462
2104 -0.96469349
2102 -0.93319625
2100 -0.9079054
2098 -0.90492493
2096 -0.92496145
2094 -0.96338284
2092 -1.0182506
2090 -1.0866412
2088 -1.1560891
2086 -1.2104299
2084 -1.2346623
2082 -1.2211654
2080 -1.1931669
2078 -1.182099
2076 -1.2034886
2074 -1.257176
2072 -1.305812
2070 -1.3056691
2068 -1.2486974
2066 -1.1490636
2064 -1.0514252
2062 -1.0018109
2060 -1.0032395
2058 -1.037436
2056 -1.0745087
2054 -1.0882443
2052 -1.0830292
2050 -1.077561
2048 -1.0950497
2046 -1.1531321
2044 -1.2413241
2042 -1.3339816
2040 -1.3928012
2038 -1.3858042
2036 -1.3262401
2034 -1.2490405
2032 -1.1963874
2030 -1.200074
2028 -1.2399517
2026 -1.2729143
2024 -1.2570262
2022 -1.1666261
2020 -1.0356677
2018 -0.92468244
2016 -0.89354599
2014 -0.98266792
2012 -1.1568586
2010 -1.3488728
2008 -1.5006914
2006 -1.57198
2004 -1.5708911
2002 -1.5261461
2000 -1.4594269
1998 -1.3863301
1996 -1.3154429
1994 -1.253186
1992 -1.2099035
1990 -1.1938421
1988 -1.197472
1986 -1.2075086
1984 -1.2199252
1982 -1.2369181
1980 -1.2670161
1978 -1.3133202
1976 -1.3437543
1974 -1.314134
1972 -1.2029171
1970 -1.0157117
1968 -0.82203001
1966 -0.71174896
1964 -0.73048675
1962 -0.88370031
1960 -1.1084024
1958 -1.318328
1956 -1.4680785
1954 -1.5424421
1952 -1.5572823
1950 -1.5406101
1948 -1.510278
1946 -1.47825
1944 -1.4569006
1942 -1.4553139
1940 -1.4655468
1938 -1.4717516
1936 -1.4624
1934 -1.4339621
1932 -1.403174
1930 -1.3911902
1928 -1.3918377
1926 -1.3803136
1924 -1.3177446
1922 -1.1738731
1920 -0.98225838
1918 -0.80673659
1916 -0.68931085
1914 -0.64700639
1912 -0.65274805
1910 -0.66755593
1908 -0.70076507
1906 -0.78458178
1904 -0.92580402
1902 -1.1033162
1900 -1.2468206
1898 -1.2740682
1896 -1.1643857
1894 -0.94682229
1892 -0.70556426
1890 -0.54180902
1888 -0.50907695
1886 -0.61680478
1884 -0.81195807
1882 -1.0156198
1880 -1.1815045
1878 -1.2893375
1876 -1.33532
1874 -1.3207567
1872 -1.2351207
1870 -1.0721015
1868 -0.87770367
1866 -0.72657585
1864 -0.67983764
1862 -0.77158868
1860 -0.96593934
1858 -1.1900318
1856 -1.3890285
1854 -1.5273825
1852 -1.588956
1850 -1.5723571
1848 -1.4961641
1846 -1.3924
1844 -1.3022484
1842 -1.2637696
1840 -1.2817698
1838 -1.3345461
1836 -1.3766229
1834 -1.353833
1832 -1.2297268
1830 -0.99743223
1828 -0.72684604
1826 -0.5276975
1824 -0.47495577
1822 -0.59645212
1820 -0.83235699
1818 -1.0744934
1816 -1.2384028
1814 -1.2756183
1812 -1.2014989
1810 -1.0681994
1808 -0.91616768
1806 -0.77006805
1804 -0.63901293
1802 -0.52566451
1800 -0.44387937
1798 -0.4093821
1796 -0.40738288
1794 -0.40461004
1792 -0.38207641
1790 -0.33516639
1788 -0.26831025
1786 -0.18980943
1784 -0.10424569
1782 -0.010028789
1780 0.10820615
1778 0.27219301
1776 0.49082145
1774 0.7495715
1772 0.97321379
1770 1.0583366
1768 0.96315175
1766 0.71275449
1764 0.41442239
1762 0.19735576
1760 0.050866403
1758 -0.11832797
1756 -0.28827885
1754 -0.3471185
1752 -0.22015458
1750 0.1036189
1748 0.52769655
1746 0.89098394
1744 1.0735177
1742 1.0280285
1740 0.85585058
1738 0.73860687
1736 0.74253196
1734 0.81707656
1732 0.84038454
1730 0.68093175
1728 0.34557956
1726 -0.040243
1724 -0.31552643
1722 -0.31477532
1720 0.096866131
1718 0.98115414
1716 2.1757686
1714 3.3740757
1712 4.3912086
1710 5.2024593
1708 5.9683299
1706 6.9701972
1704 8.4584846
1702 10.611177
1700 13.471169
1698 16.928698
1696 20.624001
1694 24.06992
1692 27.054039
1690 29.681231
1688 32.36488
1686 35.678421
1684 39.953876
1682 45.172176
1680 50.740997
1678 55.785385
1676 60.171413
1674 64.434799
1672 69.031883
1670 74.128044
1668 79.364883
1666 84.046249
1664 87.822197
1662 90.732574
1660 92.928856
1658 94.581314
1656 95.790085
1654 96.571732
1652 96.873482
1650 96.598785
1648 95.669182
1646 94.074677
1644 92.01757
1642 89.838295
1640 87.673332
1638 85.431107
1636 82.933777
1634 79.998634
1632 76.612473
1630 72.902794
1628 68.92231
1626 64.634598
1624 60.035561
1622 55.187477
1620 50.250416
1618 45.454456
1616 40.973484
1614 36.910065
1612 33.344681
1610 30.33111
1608 27.838102
1606 25.760401
1604 24.002237
1602 22.502563
1600 21.242239
1598 20.234243
1596 19.483
1594 18.976055
1592 18.692011
1590 18.609436
1588 18.73464
1586 19.098965
1584 19.730858
1582 20.657631
1580 21.93704
1578 23.650799
1576 25.833372
1574 28.446655
1572 31.35685
1570 34.359287
1568 37.310841
1566 40.148163
1564 42.82637
1562 45.342598
1560 47.902725
1558 50.837345
1556 54.016884
1554 56.821869
1552 58.766621
1550 59.687973
1548 59.802895
1546 59.611641
1544 59.332222
1542 58.790775
1540 57.709019
1538 55.849613
1536 53.317516
1534 50.569546
1532 47.978634
1530 45.71357
1528 43.783459
1526 42.058651
1524 40.360794
1522 38.502373
1520 36.370304
1518 33.966625
1516 31.443758
1514 29.060848
1512 26.890759
1510 24.763544
1508 22.489923
1506 19.963673
1504 17.310606
1502 14.874983
1500 12.84282
1498 11.14593
1496 9.6434994
1494 8.1898136
1492 6.729352
1490 5.3124681
1488 3.9727547
1486 2.7047222
1484 1.5461488
1482 0.59721279
1480 -0.041872948
1478 -0.28401908
1476 -0.027433991
1474 0.8165229
1472 2.1496892
1470 3.6599791
1468 5.1051073
1466 6.4053144
1464 7.5861816
1462 8.7577457
1460 10.009264
1458 11.358
1456 12.6972
1454 13.793764
1452 14.470078
1450 14.671782
1448 14.443726
1446 13.924571
1444 13.254954
1442 12.54305
1440 11.852268
1438 11.189583
1436 10.516914
1434 9.7648106
1432 8.9177713
1430 8.0456314
1428 7.2411962
1426 6.5950999
1424 6.153306
1422 5.8981161
1420 5.787642
1418 5.7684741
1416 5.8011684
1414 5.872354
1412 5.9896765
1410 6.1801252
1408 6.4617257
1406 6.830627
1404 7.2629628
1402 7.7098541
1400 8.0994282
1398 8.3395185
1396 8.3602428
1394 8.1396294
1392 7.7166243
1390 7.1987038
1388 6.6777883
1386 6.1972451
1384 5.7721114
1382 5.3914757
1380 5.0406637
1378 4.705894
1376 4.3600111
1374 3.9595547
1372 3.481528
1370 2.9415143
1368 2.3740144
1366 1.8253651
1364 1.3191462
1362 0.8435598
1360 0.40004557
1358 0.024151906
1356 -0.23354098
1354 -0.31499699
1352 -0.18476777
1350 0.15110093
1348 0.65909934
1346 1.27975
1344 1.96504
1342 2.6903615
1340 3.4111476
1338 4.0413027
1336 4.4833055
1334 4.6465096
1332 4.5060463
1330 4.1425581
1328 3.6613879
1326 3.1665514
1324 2.7459545
1322 2.4556634
1320 2.3135486
1318 2.2828999
1316 2.3004699
1314 2.28441
1312 2.1792915
1310 1.9846488
1308 1.729072
1306 1.4680808
1304 1.2506616
1302 1.1036249
1300 1.0416443
1298 1.0678716
1296 1.1859857
1294 1.404678
1292 1.7302328
1290 2.1614399
1288 2.6828642
1286 3.2566457
1284 3.8372831
1282 4.3763523
1280 4.8362122
1278 5.2011199
1276 5.472023
1274 5.6708622
1272 5.8243299
1270 5.9591174
1268 6.0998902
1266 6.2685647
1264 6.4919462
1262 6.8057284
1260 7.2416363
1258 7.8170114
1256 8.5289688
1254 9.3439302
1252 10.225807
1250 11.149709
1248 12.107417
1246 13.1125
1244 14.167462
1242 15.235747
1240 16.255024
1238 17.128687
1236 17.772371
1234 18.135145
1232 18.18548
1230 17.909512
1228 17.313595
1226 16.431135
1224 15.31444
1222 14.042971
1220 12.709283
1218 11.41823
1216 10.270223
1214 9.3535309
1212 8.7244205
1210 8.3799667
1208 8.2813387
1206 8.3441963
1204 8.4714298
1202 8.563633
1200 8.5299006
1198 8.3025494
1196 7.8467355
1194 7.1874447
1192 6.3814874
1190 5.5215759
1188 4.6954226
1186 3.9594152
1184 3.3467364
1182 2.8552523
1180 2.4713707
1178 2.1749973
1176 1.94744
1174 1.7775446
1172 1.6584257
1170 1.5892656
1168 1.5684783
1166 1.5892957
1164 1.6404706
1162 1.703548
1160 1.7571572
1158 1.7770834
1156 1.7397928
1154 1.6265836
1152 1.430692
1150 1.1709235
1148 0.87843096
1146 0.59770179
1144 0.3670978
1142 0.20165952
1140 0.096341088
1138 0.014022663
1136 -0.073091574
1134 -0.1533787
1132 -0.21099013
1130 -0.24293754
1128 -0.25377497
1126 -0.25859287
1124 -0.27312621
1122 -0.30768371
1120 -0.36324641
1118 -0.42157891
1116 -0.46311057
1114 -0.47685671
1112 -0.45989773
1110 -0.42369837
1108 -0.37929738
1106 -0.32804251
1104 -0.26853621
1102 -0.19807568
1100 -0.11156224
1098 0.0016358346
1096 0.15543571
1094 0.36822894
1092 0.65370417
1090 1.0099615
1088 1.4252617
1086 1.8716629
1084 2.3152392
1082 2.7163742
1080 3.0341127
1078 3.227726
1076 3.2679887
1074 3.1570003
1072 2.9227588
1070 2.6411858
1068 2.3917298
1066 2.2288322
1064 2.176276
1062 2.1905148
1060 2.2162747
1058 2.2132218
1056 2.157877
1054 2.0645165
1052 1.95156
1050 1.824783
1048 1.6915566
1046 1.5729036
1044 1.4958843
1042 1.4951212
1040 1.5964943
1038 1.7947857
1036 2.0673299
1034 2.3632946
1032 2.6239662
1030 2.790205
1028 2.8178883
1026 2.7090178
1024 2.4817126
1022 2.1692181
1020 1.8088071
1018 1.4391224
1016 1.0987086
1014 0.822887
1012 0.62911093
1010 0.48250738
1008 0.33802402
1006 0.15966822
1004 -0.073031411
1002 -0.33910131
1000 -0.60631704
998 -0.83916497
996 -1.0052414
994 -1.085565
992 -1.0834818
990 -1.0630442
988 -1.0909926
986 -1.1943636
984 -1.365212
982 -1.5143688
980 -1.5529799
978 -1.4586949
976 -1.2419457
974 -0.96689248
972 -0.69747102
970 -0.45309576
968 -0.23713759
966 -0.036338851
964 0.1595974
962 0.33683258
960 0.4755286
958 0.55599207
956 0.56566113
954 0.51666903
952 0.426974
950 0.31369674
948 0.19355923
946 0.083303139
944 0.013024114
942 0.059691459
940 0.28175747
938 0.62910736
936 1.0211343
934 1.3650125
932 1.5869466
930 1.6955942
928 1.7280097
926 1.7513814
924 1.8262441
922 1.9591633
920 2.1405103
918 2.351028
916 2.5755372
914 2.8231628
912 3.0998497
910 3.3745699
908 3.6001854
906 3.7020979
904 3.6313605
902 3.4672709
900 3.3210447
898 3.3020108
896 3.5191
