##TITLE=Methyl Ethyl Ketone
##JCAMP-DX=4.24
##DATA TYPE=INFRARED SPECTRUM
##XUNITS=cm-1
##YUNITS=Absorbance
##FIRSTX=900
##LASTX=2300
##XYDATA=(X++(Y..Y))
2296 -0.040886998
2294 -0.041736785
2292 -0.042587567
2290 -0.043438349
2288 -0.044289131
2286 -0.045138922
2284 -0.0459897
2282 -0.046840481
2280 -0.047691263
2278 -0.048542045
2276 -0.049392831
2274 -0.050242625
2272 -0.051093392
2270 -0.051944178
2268 -0.052794959
2266 -0.053645741
2264 -0.054495551
2262 -0.05534631
2260 -0.056197092
2258 -0.057047874
2256 -0.057898659
2254 -0.058748469
2252 -0.059599221
2250 -0.060450006
2248 -0.061300792
2246 -0.062151574
2244 -0.0023096171
2242 0.058038559
2240 0.11705788
2238 0.12353227
2236 0.12224557
2234 0.101441
2232 0.079716653
2230 0.068715088
2228 0.059196651
2226 0.057367049
2224 0.056216475
2222 0.056345537
2220 0.054855149
2218 0.048181664
2216 0.041110028
2214 0.033799622
2212 0.030568801
2210 0.034021333
2208 0.038696371
2206 0.044383712
2204 0.043956123
2202 0.037578024
2200 0.029230075
2198 0.019705189
2196 0.026762359
2194 0.043424387
2192 0.064662986
2190 0.087625317
2188 0.086873136
2186 0.078378513
2184 0.06869372
2182 0.058847621
2180 0.051960591
2178 0.045472592
2176 0.035522573
2174 0.028041044
2172 0.052369561
2170 0.08028046
2168 0.11140192
2166 0.13271314
2164 0.11708348
2162 0.098443903
2160 0.081550173
2158 0.083116859
2156 0.1193706
2154 0.16636564
2152 0.22374772
2150 0.26403108
2148 0.28383097
2146 0.27428931
2144 0.24069487
2142 0.1964708
2140 0.14659047
2138 0.10815345
2136 0.076278403
2134 0.055340167
2132 0.038762186
2130 0.025617853
2128 0.01344732
2126 -0.0107364
2124 -0.037744179
2122 -0.067673683
2120 -0.096576594
2118 -0.097686648
2116 -0.091871217
2114 -0.063929088
2112 -0.033461612
2110 -0.0059475652
2108 0.012870009
2106 0.0067279353
2104 -0.0067877094
2102 -0.028476516
2100 -0.031466521
2098 -0.0010516723
2096 0.0490302
2094 0.11838291
2092 0.16224675
2090 0.17681971
2088 0.15841806
2086 0.116299
2084 0.084095836
2082 0.060628969
2080 0.042916045
2078 0.027604032
2076 0.0029778802
2074 -0.025649887
2072 -0.03827896
2070 -0.045625687
2068 -0.054841172
2066 -0.065371521
2064 -0.11008771
2062 -0.16163707
2060 -0.21384518
2058 -0.26144099
2056 -0.28289402
2054 -0.29649249
2052 -0.30068219
2050 -0.30571425
2048 -0.31794846
2046 -0.33420286
2044 -0.3556354
2042 -0.37259707
2040 -0.38107377
2038 -0.37867561
2036 -0.36486214
2034 -0.357348
2032 -0.35802025
2030 -0.38069499
2028 -0.41968593
2026 -0.46307319
2024 -0.50764209
2022 -0.54226404
2020 -0.57168424
2018 -0.593629
2016 -0.61260396
2014 -0.6043694
2012 -0.5868898
2010 -0.54992527
2008 -0.50931466
2006 -0.49251056
2004 -0.48612708
2002 -0.51100522
2000 -0.54720545
1998 -0.59882516
1996 -0.65095925
1994 -0.69339204
1992 -0.72154099
1990 -0.72226924
1988 -0.70668602
1986 -0.67333901
1984 -0.64111841
1982 -0.61636651
1980 -0.61069447
1978 -0.62501013
1976 -0.654154
1974 -0.69323856
1972 -0.73285335
1970 -0.77150339
1968 -0.79658294
1966 -0.81312716
1964 -0.80751759
1962 -0.79069537
1960 -0.77283001
1958 -0.75505227
1956 -0.74677503
1954 -0.74137384
1952 -0.72037578
1950 -0.69375581
1948 -0.66493028
1946 -0.64061749
1944 -0.64353114
1942 -0.65707171
1940 -0.6752736
1938 -0.68754399
1936 -0.67991
1934 -0.66188282
1932 -0.6359002
1930 -0.61696917
1928 -0.61407155
1926 -0.62838292
1924 -0.6599952
1922 -0.69355041
1920 -0.72378129
1918 -0.74407542
1916 -0.75512242
1914 -0.75713736
1912 -0.75389844
1910 -0.7409966
1908 -0.72280294
1906 -0.69587553
1904 -0.66445559
1902 -0.6415928
1900 -0.62268209
1898 -0.62309575
1896 -0.63109857
1894 -0.64158785
1892 -0.65102249
1890 -0.64545858
1888 -0.63133591
1886 -0.60352308
1884 -0.57349014
1882 -0.55192846
1880 -0.53766835
1878 -0.53404421
1876 -0.53716701
1874 -0.54759938
1872 -0.56046736
1870 -0.57434046
1868 -0.57010084
1866 -0.54083365
1864 -0.49059182
1862 -0.42399231
1860 -0.36324427
1858 -0.3122924
1856 -0.28584543
1854 -0.27745965
1852 -0.28846312
1850 -0.31094456
1848 -0.33491039
1846 -0.35968786
1844 -0.36967537
1842 -0.37203982
1840 -0.35223824
1838 -0.32130995
1836 -0.28883883
1834 -0.25711301
1832 -0.23813182
1830 -0.22960033
1828 -0.23656037
1826 -0.24976563
1824 -0.25787851
1822 -0.25604954
1820 -0.2378314
1818 -0.20691344
1816 -0.16716029
1814 -0.12466837
1812 -0.083826229
1810 -0.058691889
1808 -0.051573239
1806 -0.069031946
1804 -0.1064072
1802 -0.155818
1800 -0.21224159
1798 -0.25318855
1796 -0.28071856
1794 -0.28909725
1792 -0.2844604
1790 -0.25935602
1788 -0.22090597
1786 -0.16519293
1784 -0.10106885
1782 -0.059116177
1780 -0.03370801
1778 -0.04004471
1776 -0.068813689
1774 -0.12152091
1772 -0.17723086
1770 -0.19922882
1768 -0.18766269
1766 -0.13149707
1764 -0.052953262
1762 0.026766941
1760 0.021933885
1758 -0.026074884
1756 -0.062522143
1754 -0.091601931
1752 -0.13596544
1750 -0.20339321
1748 -0.28962186
1746 -0.38757965
1744 -0.46320704
1742 -0.51259637
1740 -0.54417294
1738 -0.56590283
1736 -0.57804799
1734 -0.58538902
1732 -0.5448826
1730 -0.47012424
1728 -0.3818053
1726 -0.28466308
1724 -0.19940183
1722 -0.1127083
1720 0.013402451
1718 0.2247656
1716 0.66429698
1714 1.2891918
1712 2.0783813
1710 2.9685857
1708 3.884526
1706 4.9466057
1704 6.2582283
1702 8.0911589
1700 10.588729
1698 13.918506
1696 18.051144
1694 22.14592
1692 25.836643
1690 29.019743
1688 31.767748
1686 35.006115
1684 38.847786
1682 43.615891
1680 49.137318
1678 54.128483
1676 58.592831
1674 62.927898
1672 67.23381
1670 72.158325
1668 77.490707
1666 82.465401
1664 86.991905
1662 90.670349
1660 93.581718
1658 95.836838
1656 97.47049
1654 98.546318
1652 99.007484
1650 98.828178
1648 98.079643
1646 96.900253
1644 95.569702
1642 94.316315
1640 92.923943
1638 91.280983
1636 88.914116
1634 85.718208
1632 81.957024
1630 77.805977
1628 73.492661
1626 69.093285
1624 64.377998
1622 59.355064
1620 54.386517
1618 49.512566
1616 44.9646
1614 40.772823
1612 37.115292
1610 33.99968
1608 31.359543
1606 29.166828
1604 27.257757
1602 25.650503
1600 24.330269
1598 23.303175
1596 22.529999
1594 22.015083
1592 21.727474
1590 21.673246
1588 21.828548
1586 22.18273
1584 22.704453
1582 23.382278
1580 24.194216
1578 25.271618
1576 26.657057
1574 28.443981
1572 30.648777
1570 33.034611
1568 35.543442
1566 37.911816
1564 40.100651
1562 42.155323
1560 44.112995
1558 46.493309
1556 49.27367
1554 51.92392
1552 54.25528
1550 55.68705
1548 56.247913
1546 56.430073
1544 56.172287
1542 55.494106
1540 54.31258
1538 52.626232
1536 50.678715
1534 48.837917
1532 47.1366
1530 45.583694
1528 44.081024
1526 42.5466
1524 40.848789
1522 38.907772
1520 36.690979
1518 34.17408
1516 31.760942
1514 29.591875
1512 27.57688
1510 25.714888
1508 23.440821
1506 20.618622
1504 17.796183
1502 15.04151
1500 12.761254
1498 11.014811
1496 9.3284292
1494 7.7096419
1492 6.1252184
1490 4.6096516
1488 3.2241087
1486 2.0333607
1484 1.0966774
1482 0.45040649
1480 0.070902549
1478 -0.062227078
1476 0.02773647
1474 0.46237832
1472 1.2708166
1470 2.3142991
1468 3.5440247
1466 4.7674937
1464 5.8575721
1462 6.8594708
1460 7.7715139
1458 8.6838875
1456 9.6262398
1454 10.493124
1452 11.234325
1450 11.711572
1448 11.79408
1446 11.684999
1444 11.310168
1442 10.85416
1440 10.278671
1438 9.6009579
1436 8.7811518
1434 7.8418317
1432 6.8244553
1430 5.9221253
1428 5.19063
1426 4.6726022
1424 4.3510308
1422 4.1440125
1420 4.047368
1418 4.0528154
1416 4.1773086
1414 4.4539919
1412 4.8272066
1410 5.267777
1408 5.7185154
1406 6.1456552
1404 6.5229731
1402 6.8177142
1400 7.0100203
1398 7.0369768
1396 6.955307
1394 6.7002568
1392 6.4284148
1390 6.1350832
1388 5.8550477
1386 5.591785
1384 5.3114524
1382 5.0049543
1380 4.6781888
1378 4.316153
1376 3.9079685
1374 3.440366
1372 2.9285462
1370 2.3880682
1368 1.8693845
1366 1.3774079
1364 0.91301489
1362 0.48623875
1360 0.11797687
1358 -0.1619741
1356 -0.290654
1354 -0.29425612
1352 -0.13640125
1350 0.1233972
1348 0.51275259
1346 0.92866111
1344 1.360016
1342 1.7683158
1340 2.1207168
1338 2.4301827
1336 2.6521173
1334 2.8042064
1332 2.8287246
1330 2.7783151
1328 2.6098337
1326 2.4110479
1324 2.1779656
1322 1.9773974
1320 1.8237823
1318 1.7184143
1316 1.6640199
1314 1.6299437
1312 1.6088212
1310 1.5737435
1308 1.5241182
1306 1.4533857
1304 1.3757286
1302 1.31021
1300 1.2671885
1298 1.2745043
1296 1.3276143
1294 1.4633222
1292 1.6559851
1290 1.9515117
1288 2.2909839
1286 2.7075849
1284 3.1317148
1282 3.560272
1280 3.9536405
1278 4.2638469
1276 4.5132041
1274 4.6451731
1272 4.7480354
1270 4.8133087
1268 4.9223604
1266 5.1063914
1264 5.3670325
1262 5.726727
1260 6.1428657
1258 6.6243792
1256 7.156837
1254 7.7492142
1252 8.4189301
1250 9.1542282
1248 9.9520597
1246 10.7725
1244 11.565632
1242 12.302286
1240 12.887669
1238 13.350521
1236 13.549671
1234 13.598331
1232 13.31616
1230 12.902081
1228 12.168669
1226 11.3541
1224 10.331733
1222 9.288826
1220 8.2063646
1218 7.188612
1216 6.3165998
1214 5.5851574
1212 5.1050253
1210 4.785563
1208 4.6961088
1206 4.70614
1204 4.8119998
1202 4.8634429
1200 4.8266883
1198 4.6100492
1196 4.2330575
1194 3.718184
1192 3.1269085
1190 2.5430851
1188 1.9884245
1186 1.5414742
1184 1.1594036
1182 0.89903462
1180 0.69068277
1178 0.58186185
1176 0.50579602
1174 0.50734222
1172 0.53026742
1170 0.6195569
1168 0.7242915
1166 0.87539667
1164 1.0234208
1162 1.159112
1160 1.2565125
1158 1.2729362
1156 1.242523
1154 1.1362543
1152 1.0138514
1150 0.87150204
1148 0.73176402
1146 0.59417248
1144 0.45331633
1142 0.31029198
1140 0.16976511
1138 0.035474487
1136 -0.077186599
1134 -0.16866091
1132 -0.13687649
1130 -0.04099001
1128 0.14381388
1126 0.35470077
1124 0.57487381
1122 0.78475177
1120 0.93168283
1118 1.058392
1116 1.1085472
1114 1.1588668
1112 1.21612
1110 1.2863213
1108 1.3971206
1106 1.51044
1104 1.6289034
1102 1.7390903
1100 1.8322189
1098 1.916401
1096 1.9894428
1094 2.0807238
1092 2.2024999
1090 2.38695
1088 2.6378813
1086 2.9336264
1084 3.2585936
1082 3.5491512
1080 3.805512
1078 3.9639108
1076 4.0613217
1074 4.0370755
1072 3.9631219
1070 3.8164539
1068 3.6569686
1066 3.520565
1064 3.39644
1062 3.3416002
1060 3.2967656
1058 3.2949076
1056 3.2954571
1054 3.3059449
1052 3.3099391
1050 3.2910631
1048 3.2472062
1046 3.1433964
1044 3.0305099
1042 2.9062529
1040 2.8339159
1038 2.842474
1036 2.9163399
1034 3.0611441
1032 3.181885
1030 3.2698612
1028 3.2402098
1026 3.120965
1024 2.9069901
1022 2.6429288
1020 2.3711429
1018 2.1012676
1016 1.8821685
1014 1.6810526
1012 1.5271945
1010 1.3802041
1008 1.220736
1006 1.0561115
1004 0.84400642
1002 0.63218606
1000 0.42566967
998 0.23048931
996 0.085244358
994 -0.05456841
992 -0.17690314
990 -0.28865045
988 -0.37384933
986 -0.4202992
984 -0.39793068
982 -0.34282884
980 -0.2447342
978 -0.15389794
976 -0.073980771
974 -0.054330371
972 -0.0851942
970 -0.16435134
968 -0.27027252
966 -0.32820851
964 -0.36122856
962 -0.32869419
960 -0.27386287
958 -0.1954895
956 -0.11224145
954 -0.033310279
952 0.041664761
950 0.033806719
948 0.022364156
946 0.0073709036
944 0.008480221
942 0.25658631
940 0.54285169
938 0.98944783
936 1.3847057
934 1.6275142
932 1.7929153
930 1.7933615
928 1.7874274
926 1.7713543
924 1.764798
922 1.7698563
920 1.7837789
918 1.8059871
916 1.8370315
914 1.8734442
912 1.8532252
910 1.8030001
908 1.7530688
906 1.7038565
904 1.7958366
902 1.9246061
900 2.06581
898 2.2089553
896 2.2476001
