##TITLE=Methyl Ethyl Ketone
##JCAMP-DX=4.24
##DATA TYPE=INFRARED SPECTRUM
##XUNITS=cm-1
##YUNITS=Absorbance
##FIRSTX=900
##LASTX=2300
##XYDATA=(X++(Y..Y))
2296 -0.012535
2294 -0.012795627
2292 -0.013056254
2290 -0.013316882
2288 -0.013577509
2286 -0.013838136
2284 -0.014099754
2282 -0.014360391
2280 -0.014621017
2278 -0.014881644
2276 -0.015142271
2274 -0.015402898
2272 -0.015663525
2270 -0.015924154
2268 -0.01618576
2266 -0.016449343
2264 -0.016707104
2262 -0.016955951
2260 -0.017227979
2258 -0.017531721
2256 -0.0177508
2254 -0.01785109
2252 -0.018266611
2250 -0.019126249
2248 -0.018814104
2246 -0.014513821
2244 -0.00053318572
2242 0.022944491
2240 0.028838761
2238 -0.0076435129
2236 -0.071472004
2234 -0.14038584
2232 -0.20899034
2230 -0.27631444
2228 -0.33917311
2226 -0.394584
2224 -0.44306114
2222 -0.48589775
2220 -0.52335894
2218 -0.5544073
2216 -0.57410973
2214 -0.58028376
2212 -0.58639979
2210 -0.60868561
2208 -0.65534651
2206 -0.72645324
2204 -0.79908997
2202 -0.84764898
2200 -0.86367232
2198 -0.84926569
2196 -0.82716143
2194 -0.82152623
2192 -0.83649355
2190 -0.86725092
2188 -0.89880461
2186 -0.91849834
2184 -0.93591362
2182 -0.96697903
2180 -1.0240792
2178 -1.1120553
2176 -1.20994
2174 -1.290607
2172 -1.3357799
2170 -1.335405
2168 -1.299384
2166 -1.2449093
2164 -1.1918783
2162 -1.1595906
2160 -1.1618463
2158 -1.2053982
2156 -1.27526
2154 -1.3484552
2152 -1.3992319
2150 -1.408589
2148 -1.3898728
2146 -1.3673321
2144 -1.3647217
2142 -1.397541
2140 -1.4497607
2138 -1.4964312
2136 -1.5229456
2134 -1.5245504
2132 -1.520074
2130 -1.5328096
2128 -1.5710319
2126 -1.6340735
2124 -1.7074471
2122 -1.7736965
2120 -1.8237658
2118 -1.8528434
2116 -1.8614286
2114 -1.8531519
2112 -1.8388582
2110 -1.8302231
2108 -1.832836
2106 -1.8464507
2104 -1.8579051
2102 -1.8519918
2100 -1.826118
2098 -1.785439
2096 -1.7461429
2094 -1.7260529
2092 -1.7330825
2090 -1.7679614
2088 -1.8192514
2086 -1.871825
2084 -1.913558
2082 -1.9368818
2080 -1.947696
2078 -1.9570363
2076 -1.9745985
2074 -2.0065453
2072 -2.047868
2070 -2.0891652
2068 -2.1213329
2066 -2.1381671
2064 -2.1421685
2062 -2.1399181
2060 -2.138901
2058 -2.145025
2056 -2.1579001
2054 -2.1738653
2052 -2.1871865
2050 -2.1918728
2048 -2.1847475
2046 -2.164125
2044 -2.1313
2042 -2.0900469
2040 -2.0502682
2038 -2.0244203
2036 -2.0249228
2034 -2.059896
2032 -2.1206863
2030 -2.1899431
2028 -2.2446988
2026 -2.2646701
2024 -2.2492936
2022 -2.2101743
2020 -2.1726365
2018 -2.1642978
2016 -2.1965599
2014 -2.267308
2012 -2.3483064
2010 -2.4042082
2008 -2.4175565
2006 -2.3858929
2004 -2.3333964
2002 -2.2917011
2000 -2.2755778
1998 -2.2875686
1996 -2.3151286
1994 -2.3415208
1992 -2.3594475
1990 -2.3664165
1988 -2.358742
1986 -2.3336434
1984 -2.2958033
1982 -2.2547631
1980 -2.2268398
1978 -2.2272737
1976 -2.2542257
1974 -2.2958879
1972 -2.3339221
1970 -2.3511989
1968 -2.3456304
1966 -2.3237636
1964 -2.2959061
1962 -2.272577
1960 -2.2598
1958 -2.2608895
1956 -2.2767644
1954 -2.3049271
1952 -2.3333936
1950 -2.34675
1948 -2.3366518
1946 -2.3011751
1944 -2.2493789
1942 -2.1941082
1940 -2.1427398
1938 -2.0988889
1936 -2.0647259
1934 -2.041549
1932 -2.029196
1930 -2.0258138
1928 -2.0255737
1926 -2.0222156
1924 -2.0152726
1922 -2.0074105
1920 -2.0014966
1918 -1.9974719
1916 -1.9836043
1914 -1.9448425
1912 -1.87876
1910 -1.7928349
1908 -1.7046946
1906 -1.6339679
1904 -1.586552
1902 -1.5591477
1900 -1.5431468
1898 -1.5286359
1896 -1.5103999
1894 -1.4871924
1892 -1.4625989
1890 -1.442436
1888 -1.4317857
1886 -1.4332771
1884 -1.4424924
1882 -1.4504187
1880 -1.4457932
1878 -1.4192216
1876 -1.3731201
1874 -1.3178813
1872 -1.2672371
1870 -1.2332896
1868 -1.2157048
1866 -1.2067114
1864 -1.198208
1862 -1.18367
1860 -1.1607037
1858 -1.1288562
1856 -1.0853601
1854 -1.0283848
1852 -0.96820611
1850 -0.92104882
1848 -0.8966468
1846 -0.89498001
1844 -0.89355481
1842 -0.8614096
1840 -0.78984421
1838 -0.68929428
1836 -0.587161
1834 -0.51533478
1832 -0.48541984
1830 -0.49151811
1828 -0.51139301
1826 -0.51771295
1824 -0.50021815
1822 -0.46340606
1820 -0.42418739
1818 -0.40235123
1816 -0.40056458
1814 -0.40807977
1812 -0.40758562
1810 -0.38141289
1808 -0.32364959
1806 -0.240165
1804 -0.15335517
1802 -0.092762455
1800 -0.074820682
1798 -0.10115221
1796 -0.15155071
1794 -0.19474062
1792 -0.2107172
1790 -0.19239379
1788 -0.14899801
1786 -0.098936364
1784 -0.056765683
1782 -0.030801941
1780 -0.018726934
1778 -0.013265699
1776 -0.015996572
1774 -0.033000968
1772 -0.058593743
1770 -0.079056703
1768 -0.086046062
1766 -0.075809926
1764 -0.042677462
1762 0.0095353592
1760 0.024034772
1758 -0.072874352
1756 -0.25589857
1754 -0.43295324
1752 -0.55860859
1750 -0.63539428
1748 -0.68185484
1746 -0.72277176
1744 -0.78555161
1742 -0.89216596
1740 -1.0341508
1738 -1.1778377
1736 -1.27944
1734 -1.2969321
1732 -1.2174371
1730 -1.0552905
1728 -0.84649372
1726 -0.63473171
1724 -0.43793866
1722 -0.24249791
1720 0.011845075
1718 0.40715671
1716 0.97402358
1714 1.6884168
1712 2.4799566
1710 3.2681398
1708 4.062674
1706 4.9581394
1704 6.0931053
1702 7.6440749
1700 9.8578329
1698 12.947855
1696 16.723715
1694 20.67795
1692 24.373646
1690 27.570475
1688 30.437395
1686 33.445915
1684 36.996124
1682 41.264816
1680 45.883518
1678 50.155815
1676 53.884155
1674 57.375328
1672 61.023285
1670 65.132431
1668 69.622017
1666 74.111603
1664 78.343948
1662 82.229469
1660 85.720222
1658 88.785103
1656 91.420288
1654 93.648468
1652 95.509155
1650 97.024918
1648 98.09729
1646 98.547432
1644 98.321297
1642 97.477203
1640 95.991051
1638 93.755516
1636 90.727798
1634 86.978531
1632 82.773453
1630 78.488838
1628 74.252136
1626 69.938324
1624 65.438843
1622 60.738377
1620 55.973122
1618 51.395355
1616 47.191856
1614 43.452461
1612 40.201485
1610 37.410709
1608 35.013393
1606 32.922985
1604 31.092745
1602 29.519802
1600 28.206108
1598 27.144657
1596 26.307499
1594 25.650328
1592 25.14076
1590 24.76285
1588 24.51404
1586 24.398836
1584 24.406942
1582 24.51791
1580 24.740198
1578 25.116957
1576 25.703829
1574 26.548958
1572 27.636015
1570 28.880819
1568 30.18528
1566 31.455166
1564 32.618473
1562 33.671471
1560 34.83844
1558 36.518612
1556 38.854698
1554 41.634102
1552 44.411377
1550 46.643192
1548 48.158268
1546 49.199249
1544 49.967468
1542 50.521259
1540 50.8885
1538 51.08836
1536 51.096428
1534 50.849892
1532 50.334259
1530 49.596786
1528 48.671833
1526 47.562702
1524 46.251301
1522 44.711929
1520 42.972233
1518 41.123299
1516 39.262257
1514 37.448933
1512 35.587078
1510 33.430676
1508 30.831646
1506 27.831764
1504 24.685452
1502 21.807272
1500 19.393936
1498 17.33383
1496 15.447143
1494 13.568177
1492 11.624788
1490 9.6544962
1488 7.7116203
1486 5.8482075
1484 4.1433983
1482 2.7009094
1480 1.5696446
1478 0.73594952
1476 0.24190167
1474 0.19212282
1472 0.57285666
1470 1.2082477
1468 1.9230286
1466 2.5978806
1464 3.1803966
1462 3.6868207
1460 4.1338787
1458 4.5219846
1456 4.8596396
1454 5.1659007
1452 5.4367404
1450 5.636529
1448 5.7344499
1446 5.7178893
1444 5.5926123
1442 5.3807311
1440 5.0914359
1438 4.7131605
1436 4.2384443
1434 3.6769159
1432 3.0704503
1430 2.4955015
1428 2.009454
1426 1.6315136
1424 1.3650223
1422 1.2041806
1420 1.1487399
1418 1.2074256
1416 1.3826228
1414 1.6635399
1412 2.0305197
1410 2.4564891
1408 2.9197571
1406 3.4077971
1404 3.9042885
1402 4.3846211
1400 4.8221922
1398 5.1921692
1396 5.4813285
1394 5.691968
1392 5.8276711
1390 5.8881817
1388 5.8692589
1386 5.763555
1384 5.5720062
1382 5.3087769
1380 4.9891467
1378 4.6260338
1376 4.2344284
1374 3.8333359
1372 3.444428
1370 3.087599
1368 2.7556572
1366 2.4031079
1364 1.9905938
1362 1.5084834
1360 0.99385393
1358 0.5404399
1356 0.21984944
1354 0.045242429
1352 -0.0055858507
1350 0.013077794
1348 0.058424789
1346 0.11785465
1344 0.1883292
1342 0.27063805
1340 0.36250466
1338 0.45542803
1336 0.54005772
1334 0.60876656
1332 0.65925926
1330 0.69765198
1328 0.73379958
1326 0.78036082
1324 0.84924805
1322 0.94924963
1320 1.083688
1318 1.2474983
1316 1.43101
1314 1.6195863
1312 1.7965429
1310 1.9440718
1308 2.0477586
1306 2.1008737
1304 2.1063967
1302 2.0810409
1300 2.0461583
1298 2.0249851
1296 2.0353
1294 2.0839744
1292 2.1719608
1290 2.2936034
1288 2.4429278
1286 2.6161666
1284 2.8086987
1282 3.0138104
1280 3.22188
1278 3.4190509
1276 3.5956271
1274 3.752393
1272 3.9008241
1270 4.0667186
1268 4.2743907
1266 4.538393
1264 4.8632216
1262 5.2389541
1260 5.6541781
1258 6.101141
1256 6.5775599
1254 7.0892272
1252 7.6430998
1250 8.2431412
1248 8.8850479
1246 9.5490751
1244 10.209831
1242 10.837579
1240 11.40012
1238 11.868073
1236 12.214771
1234 12.418521
1232 12.46452
1230 12.349936
1228 12.082308
1226 11.681972
1224 11.175457
1222 10.594396
1220 9.9664145
1218 9.3077965
1216 8.6308746
1214 7.9422178
1212 7.2521467
1210 6.5802646
1208 5.9428029
1206 5.3438425
1204 4.7766819
1202 4.2184792
1200 3.6490972
1198 3.0628068
1196 2.4630215
1194 1.8656638
1192 1.2894468
1190 0.75247777
1188 0.27163365
1186 -0.13845167
1184 -0.4675169
1182 -0.71372879
1180 -0.87949532
1178 -0.97225368
1176 -1.002056
1174 -0.98211908
1172 -0.92592412
1170 -0.84619957
1168 -0.75340796
1166 -0.65358108
1164 -0.5518769
1162 -0.45375571
1160 -0.36397064
1158 -0.28537944
1156 -0.21916458
1154 -0.16390145
1152 -0.11885643
1150 -0.086220786
1148 -0.067845598
1146 -0.062614605
1144 -0.063547835
1142 -0.052601885
1140 -0.016958095
1138 0.038985107
1136 0.11683174
1134 0.2410499
1132 0.43296936
1130 0.69315428
1128 1.0144455
1126 1.3826407
1124 1.7794734
1122 2.1811373
1120 2.5600319
1118 2.8852773
1116 3.136323
1114 3.3217826
1112 3.4615927
1110 3.5863509
1108 3.7267699
1106 3.906065
1104 4.1383615
1102 4.4195232
1100 4.7372103
1098 5.069901
1096 5.3983998
1094 5.7155743
1092 6.0248442
1090 6.3491559
1088 6.7127461
1086 7.128727
1084 7.5907502
1082 8.0489235
1080 8.4506006
1078 8.7655973
1076 8.9815407
1074 9.1179819
1072 9.195508
1070 9.2163334
1068 9.1819611
1066 9.1029825
1064 8.994628
1062 8.8774796
1060 8.76649
1058 8.6573124
1056 8.5390577
1054 8.3954449
1052 8.2137537
1050 7.9947095
1048 7.7448463
1046 7.4768143
1044 7.2012887
1042 6.919024
1040 6.6312828
1038 6.3470001
1036 6.07653
1034 5.828495
1032 5.600781
1030 5.3623114
1028 5.0820837
1026 4.7501855
1024 4.3743939
1022 3.9989541
1020 3.6637499
1018 3.3689668
1016 3.0967743
1014 2.8053586
1012 2.4610424
1010 2.0730424
1008 1.668936
1006 1.2999429
1004 1.0112499
1002 0.81082654
1000 0.68652797
998 0.59188402
996 0.47643429
994 0.304544
992 0.059055656
990 -0.22957593
988 -0.51485115
986 -0.73718202
984 -0.8487584
982 -0.85096663
980 -0.76613122
978 -0.64485085
976 -0.53294861
974 -0.43713945
972 -0.34885526
970 -0.24112926
968 -0.091634274
966 0.090692148
964 0.28457263
962 0.45336899
960 0.56437844
958 0.61168325
956 0.59920317
954 0.54187924
952 0.45486319
950 0.34448576
948 0.2190778
946 0.10168672
944 0.019631039
942 0.0020960905
940 0.067802593
938 0.19609261
936 0.35395455
934 0.49944034
932 0.60480893
930 0.70221102
928 0.83063632
926 0.99896342
924 1.2003621
922 1.3974584
920 1.5559548
918 1.6811438
916 1.7852914
914 1.868238
912 1.9251355
910 1.945272
908 1.9222869
906 1.8741164
904 1.8204896
902 1.7662934
900 1.7182623
898 1.7051806
896 1.7615
