Image.
>Pix99999.
  .
5555
5555
2300
900
5555
2
1
0
701
5555
1.9489001e-003
1.9894419e-003
2.0299840e-003
2.0705261e-003
2.1110680e-003
2.1516099e-003
2.1922512e-003
2.2327940e-003
2.2732371e-003
2.3135806e-003
2.3543171e-003
2.3954525e-003
2.4354144e-003
2.4735907e-003
2.5165381e-003
2.5659371e-003
2.5977802e-003
2.6052324e-003
2.6777894e-003
2.8415832e-003
2.7633342e-003
2.3447699e-003
2.8260653e-003
4.5764772e-003
2.9820970e-003
-3.7071251e-003
-1.4681458e-004
2.3885731e-002
3.8692001e-002
1.5998719e-002
-2.1171685e-002
-4.0559638e-002
-3.1971835e-002
2.2125251e-003
3.5067901e-002
4.0253848e-002
2.2269320e-002
-5.9911571e-003
-3.4506541e-002
-5.4454461e-002
-5.7944287e-002
-3.9295319e-002
-7.0817186e-004
4.9027190e-002
8.3999164e-002
8.0691144e-002
4.6260417e-002
2.1520595e-003
-1.0649577e-002
4.3914709e-002
1.5796685e-001
3.0417487e-001
4.3208435e-001
4.9502388e-001
4.9014449e-001
4.3259156e-001
3.5366240e-001
2.8345278e-001
2.2715537e-001
1.8118055e-001
1.3940886e-001
9.7481698e-002
6.0897291e-002
3.7788112e-002
3.3781983e-002
5.0917037e-002
8.0245636e-002
1.1022991e-001
1.3363999e-001
1.4758660e-001
1.6050699e-001
1.8348253e-001
2.2282052e-001
2.7886707e-001
3.3469382e-001
3.6742821e-001
3.5436362e-001
2.8163391e-001
1.7103305e-001
5.7073373e-002
-2.4982143e-002
-5.0601661e-002
-3.8948100e-002
-2.2067778e-002
-2.0594001e-002
-4.2643830e-002
-6.3736111e-002
-5.3954210e-002
-9.3613174e-003
6.2967740e-002
1.5151733e-001
2.4510530e-001
3.3932576e-001
4.2979887e-001
5.0152028e-001
5.3874099e-001
5.3957504e-001
5.0865322e-001
4.5523161e-001
3.8880977e-001
3.1334144e-001
2.3154254e-001
1.4989883e-001
7.4654654e-002
4.4678063e-003
-6.3901529e-002
-1.2893257e-001
-1.8473527e-001
-2.1567132e-001
-2.0623232e-001
-1.5744871e-001
-7.9328939e-002
9.0898005e-003
8.8831313e-002
1.5518132e-001
2.0959857e-001
2.5431451e-001
2.9003036e-001
3.1096682e-001
3.1073001e-001
2.9186288e-001
2.6132539e-001
2.2862181e-001
2.0201260e-001
1.8078193e-001
1.6056071e-001
1.3758980e-001
1.1009257e-001
8.2655698e-002
6.2136166e-002
5.3440001e-002
5.7764918e-002
6.4852566e-002
6.0182650e-002
3.2222982e-002
-2.4497934e-002
-9.6567467e-002
-1.6291642e-001
-2.0534205e-001
-2.1140976e-001
-1.8580399e-001
-1.4153987e-001
-9.4614290e-002
-5.7779193e-002
-2.6098046e-002
1.2057407e-002
6.2031254e-002
1.2090854e-001
1.6511977e-001
1.6775088e-001
1.2779786e-001
5.9618339e-002
-1.1354051e-002
-6.0819812e-002
-8.8289022e-002
-1.0448915e-001
-1.1832240e-001
-1.3531183e-001
-1.5348619e-001
-1.6731708e-001
-1.7116514e-001
-1.5958659e-001
-1.2715709e-001
-7.1982652e-002
-7.1458165e-003
4.7573876e-002
7.5556360e-002
6.7576319e-002
3.7153721e-002
8.0391569e-003
-5.7265861e-004
2.3131579e-002
7.2641343e-002
1.3009305e-001
1.6797464e-001
1.6014749e-001
1.0487656e-001
1.7250003e-002
-7.0991516e-002
-1.2666336e-001
-1.4364572e-001
-1.3166752e-001
-1.0503072e-001
-7.5083822e-002
-3.5046250e-002
3.1653225e-002
1.4168364e-001
3.0211562e-001
4.8147622e-001
6.3119632e-001
7.1879685e-001
7.3008132e-001
6.8471962e-001
6.1391020e-001
5.2188581e-001
4.0050131e-001
2.5948921e-001
1.2467229e-001
4.2254914e-002
5.7434738e-002
1.6521487e-001
3.2701874e-001
4.8567760e-001
5.8352703e-001
5.9571588e-001
5.2292329e-001
3.9209026e-001
2.4183740e-001
1.0336220e-001
6.3491799e-004
-4.9522098e-002
-3.6748774e-002
3.6929928e-002
1.5579014e-001
2.7428868e-001
3.3668277e-001
3.1755766e-001
2.1833570e-001
7.1333885e-002
-7.8644171e-002
-2.0525542e-001
-2.9378355e-001
-3.2388324e-001
-2.7703482e-001
-1.6422440e-001
-2.0452214e-002
9.5418468e-002
1.2440576e-001
6.4273119e-002
-4.6574973e-002
-1.5286881e-001
-1.9902189e-001
-1.5783331e-001
-2.9430654e-002
1.4745063e-001
3.1200793e-001
4.0586007e-001
3.8670555e-001
2.6626620e-001
9.2048064e-002
-8.2877949e-002
-2.1348757e-001
-2.8962055e-001
-3.2268226e-001
-3.1822559e-001
-2.7580199e-001
-1.9732025e-001
-8.9196987e-002
3.2369271e-002
1.4643343e-001
2.3902856e-001
2.9986045e-001
3.1042001e-001
2.5492209e-001
1.5844417e-001
7.0782624e-002
2.3205422e-002
2.9338889e-002
9.6991271e-002
2.2949331e-001
4.1884601e-001
6.3881648e-001
8.1486803e-001
8.5501289e-001
7.3872125e-001
5.1178002e-001
2.7199501e-001
1.2040041e-001
3.5176411e-002
-7.4176677e-002
-1.8899930e-001
-2.1155971e-001
-1.0149798e-001
1.1531258e-001
3.5775235e-001
5.2267253e-001
5.5826247e-001
4.7113574e-001
3.4141904e-001
2.7959633e-001
3.1053001e-001
3.7979931e-001
3.9498413e-001
2.6781580e-001
1.5722796e-002
-2.5568527e-001
-4.1686064e-001
-3.4020591e-001
6.3801542e-002
8.2343811e-001
1.8218515e+000
2.8477116e+000
3.7540994e+000
4.4943247e+000
5.1796141e+000
6.0361395e+000
7.2937036e+000
9.1456652e+000
1.1681675e+001
1.4851609e+001
1.8322428e+001
2.1602409e+001
2.4464203e+001
2.6985680e+001
2.9511868e+001
3.2513706e+001
3.6209621e+001
4.0498974e+001
4.4887440e+001
4.8722271e+001
5.1963970e+001
5.5119957e+001
5.8632580e+001
6.2714325e+001
6.7185371e+001
7.1597900e+001
7.5700500e+001
7.9474411e+001
8.2964424e+001
8.6233635e+001
8.9352570e+001
9.2364578e+001
9.5167175e+001
9.7510994e+001
9.9034691e+001
9.9396042e+001
9.8709511e+001
9.7455139e+001
9.5877159e+001
9.3910545e+001
9.1370117e+001
8.8074371e+001
8.4131989e+001
7.9899818e+001
7.5629013e+001
7.1404518e+001
6.7205276e+001
6.2956215e+001
5.8657047e+001
5.4391499e+001
5.0254513e+001
4.6339272e+001
4.2752609e+001
3.9598251e+001
3.6891537e+001
3.4559486e+001
3.2527130e+001
3.0742826e+001
2.9191902e+001
2.7887815e+001
2.6826000e+001
2.5977571e+001
2.5302713e+001
2.4759092e+001
2.4334068e+001
2.4046513e+001
2.3920324e+001
2.3980379e+001
2.4256474e+001
2.4777592e+001
2.5537029e+001
2.6482876e+001
2.7526241e+001
2.8562279e+001
2.9547720e+001
3.0510820e+001
3.1498777e+001
3.2588013e+001
3.3985573e+001
3.5961376e+001
3.8433086e+001
4.0939480e+001
4.3077824e+001
4.4654396e+001
4.5791370e+001
4.6873287e+001
4.8123856e+001
4.9487617e+001
5.0675060e+001
5.1249027e+001
5.1005886e+001
5.0068989e+001
4.8751453e+001
4.7459061e+001
4.6377148e+001
4.5413300e+001
4.4418861e+001
4.3260078e+001
4.1858479e+001
4.0214169e+001
3.8431973e+001
3.6686844e+001
3.5001881e+001
3.3201927e+001
3.1069355e+001
2.8439386e+001
2.5423332e+001
2.2419432e+001
1.9710684e+001
1.7353340e+001
1.5277143e+001
1.3325906e+001
1.1390837e+001
9.4414053e+000
7.4730005e+000
5.5061388e+000
3.6337101e+000
2.0262673e+000
8.2884252e-001
1.3476729e-001
3.4105435e-002
5.8607179e-001
1.6324481e+000
2.7783961e+000
3.7556932e+000
4.5378494e+000
5.2171149e+000
5.9483395e+000
6.7684665e+000
7.5354347e+000
8.0314398e+000
8.0341663e+000
7.5560455e+000
6.8984475e+000
6.2970996e+000
5.8122783e+000
5.4416828e+000
5.1519060e+000
4.9139900e+000
4.7086234e+000
4.4921002e+000
4.1925011e+000
3.7742400e+000
3.2660069e+000
2.7418540e+000
2.3115416e+000
2.0493305e+000
1.9641021e+000
2.0235734e+000
2.1609962e+000
2.3208487e+000
2.4786510e+000
2.6412747e+000
2.8472857e+000
3.1235161e+000
3.4690695e+000
3.8703117e+000
4.3027706e+000
4.7337761e+000
5.1218257e+000
5.4237571e+000
5.6018696e+000
5.6471839e+000
5.5905147e+000
5.4671392e+000
5.3043852e+000
5.1184554e+000
4.9114079e+000
4.6828952e+000
4.4327607e+000
4.1569028e+000
3.8476994e+000
3.5107679e+000
3.1717086e+000
2.8502624e+000
2.5475986e+000
2.2409172e+000
1.8834952e+000
1.4608909e+000
1.0173664e+000
6.1318702e-001
3.0646843e-001
1.1798024e-001
1.3026230e-002
-3.8257964e-002
-3.7451964e-002
2.4871722e-002
1.6025668e-001
3.4894139e-001
5.2303654e-001
6.2308913e-001
6.2635857e-001
5.5060649e-001
4.6295762e-001
4.2039070e-001
4.4393808e-001
5.4155654e-001
7.1230459e-001
9.4947797e-001
1.2379390e+000
1.5480700e+000
1.8310273e+000
2.0446143e+000
2.1685669e+000
2.2069991e+000
2.1959028e+000
2.1724961e+000
2.1619780e+000
2.1769764e+000
2.2136986e+000
2.2678714e+000
2.3403907e+000
2.4318585e+000
2.5400085e+000
2.6583440e+000
2.7756608e+000
2.8856711e+000
2.9928253e+000
3.1037915e+000
3.2237620e+000
3.3538699e+000
3.4894791e+000
3.6298828e+000
3.7844219e+000
3.9670768e+000
4.1951365e+000
4.4806643e+000
4.8246899e+000
5.2226062e+000
5.6642923e+000
6.1387768e+000
6.6357074e+000
7.1458402e+000
7.6626339e+000
8.1816187e+000
8.7018747e+000
9.2232037e+000
9.7444391e+000
1.0260577e+001
1.0759280e+001
1.1219543e+001
1.1610740e+001
1.1906119e+001
1.2090187e+001
1.2155783e+001
1.2108357e+001
1.1953474e+001
1.1693295e+001
1.1337726e+001
1.0909210e+001
1.0426828e+001
9.9030943e+000
9.3482685e+000
8.7703018e+000
8.1799021e+000
7.5924253e+000
7.0189619e+000
6.4595108e+000
5.9118428e+000
5.3748579e+000
4.8485641e+000
4.3345628e+000
3.8346536e+000
3.3501849e+000
2.8847189e+000
2.4470334e+000
2.0482457e+000
1.7022927e+000
1.4216411e+000
1.2136087e+000
1.0786600e+000
1.0037483e+000
9.7026157e-001
9.5525628e-001
9.4002706e-001
9.1839999e-001
8.9005905e-001
8.6053938e-001
8.3139831e-001
7.9236722e-001
7.3233300e-001
6.4543962e-001
5.3330702e-001
4.1158137e-001
2.9668939e-001
1.9859393e-001
1.2151907e-001
6.0700774e-002
1.6712161e-002
7.2680265e-003
5.1125824e-002
1.5938109e-001
3.3707994e-001
5.7935399e-001
8.7996936e-001
1.2352486e+000
1.6425021e+000
2.0987389e+000
2.5913041e+000
3.0854871e+000
3.5494030e+000
3.9718721e+000
4.3491578e+000
4.6835046e+000
4.9734607e+000
5.2057948e+000
5.3817930e+000
5.5449719e+000
5.7452040e+000
6.0198355e+000
6.3822427e+000
6.7925749e+000
7.2083058e+000
7.6134200e+000
8.0040512e+000
8.3896132e+000
8.7716627e+000
9.1232014e+000
9.4189949e+000
9.6558905e+000
9.8426161e+000
1.0003445e+001
1.0156600e+001
1.0292547e+001
1.0395986e+001
1.0454700e+001
1.0465680e+001
1.0455051e+001
1.0448235e+001
1.0450115e+001
1.0444371e+001
1.0373137e+001
1.0183337e+001
9.8694916e+000
9.4535789e+000
9.0120106e+000
8.6171293e+000
8.2948732e+000
8.0458879e+000
7.8316870e+000
7.6098900e+000
7.3554649e+000
7.0539384e+000
6.7087350e+000
6.3310308e+000
5.9401407e+000
5.5587449e+000
5.2138572e+000
4.9268808e+000
4.6987443e+000
4.5168915e+000
4.3431177e+000
4.1390271e+000
3.8852911e+000
3.5774679e+000
3.2425706e+000
2.9086668e+000
2.5840743e+000
2.2683549e+000
1.9498174e+000
1.6236501e+000
1.3157800e+000
1.0539836e+000
8.4768236e-001
6.9348830e-001
5.6216323e-001
4.2579168e-001
2.8197661e-001
1.4162779e-001
3.8420618e-002
7.5727291e-003
7.0133507e-002
2.2844838e-001
4.3427294e-001
6.3134450e-001
7.7910298e-001
8.5700172e-001
8.9891338e-001
9.4442636e-001
1.0061878e+000
1.0819358e+000
1.1410651e+000
1.1432720e+000
1.0402104e+000
8.1083632e-001
5.3522611e-001
2.8158295e-001
-1.2549788e-002
-3.9266807e-001
-7.2782862e-001
-8.8453799e-001
-8.7930804e-001
-7.6253122e-001
-5.7199639e-001
-3.3757085e-001
-7.1603075e-002
2.1149942e-001
4.7334242e-001
6.6707373e-001
7.3698676e-001
6.4681089e-001
4.4289476e-001
1.9598377e-001
-8.7575018e-003
-1.0043043e-001
-7.7676773e-002
3.8118437e-002
2.0440774e-001
3.7622154e-001
5.1997149e-001
6.0490000e-001
