##TITLE=Methyl Ethyl Ketone
##JCAMP-DX=4.24
##DATA TYPE=INFRARED SPECTRUM
##XUNITS=cm-1
##YUNITS=Absorbance
##FIRSTX=900
##LASTX=2300
##XYDATA=(X++(Y..Y))
2296 -0.046381
2294 -0.047346618
2292 -0.048311241
2290 -0.04927586
2288 -0.050241474
2286 -0.051206101
2284 -0.05217072
2282 -0.053135339
2280 -0.054100946
2278 -0.05506558
2276 -0.056030203
2274 -0.056995805
2272 -0.057960439
2270 -0.058921132
2268 -0.0598896
2266 -0.060867999
2264 -0.061820216
2262 -0.062735751
2260 -0.063747868
2258 -0.064895704
2256 -0.065684713
2254 -0.065968901
2252 -0.067586765
2250 -0.07108783
2248 -0.069627993
2246 -0.052531142
2244 -0.0019277142
2242 0.084489383
2240 0.13828956
2238 0.093724824
2236 -0.023657385
2234 -0.16336559
2232 -0.27989635
2230 -0.3411127
2228 -0.3620618
2226 -0.367075
2224 -0.36291707
2222 -0.34998828
2220 -0.32448336
2218 -0.2847409
2216 -0.24266315
2214 -0.21575403
2212 -0.2280198
2210 -0.29660854
2208 -0.40338537
2206 -0.51290721
2204 -0.56310529
2202 -0.49893698
2200 -0.32644287
2198 -0.078102268
2196 0.18343793
2194 0.39775226
2192 0.55042195
2190 0.64510638
2188 0.69940406
2186 0.72784311
2184 0.71546757
2182 0.64376479
2180 0.51860327
2178 0.36143729
2176 0.22458628
2174 0.15778302
2172 0.15988347
2170 0.2071465
2168 0.252772
2166 0.25611988
2164 0.23148608
2162 0.21387365
2160 0.24708514
2158 0.36561793
2156 0.555632
2154 0.78353107
2152 1.0023111
2150 1.1647897
2148 1.2400334
2146 1.2131608
2144 1.1121125
2142 0.98058605
2140 0.86526591
2138 0.80298889
2136 0.78672343
2134 0.80054361
2132 0.85611826
2130 0.96976829
2128 1.134228
2126 1.3202229
2124 1.4449363
2122 1.4277619
2120 1.277644
2118 1.0450321
2116 0.81367552
2114 0.66589183
2112 0.63163161
2110 0.71157664
2108 0.86771947
2106 1.0491123
2104 1.2087058
2102 1.3103851
2100 1.355808
2098 1.3629888
2096 1.3570428
2094 1.3587383
2092 1.3605669
2090 1.3427194
2088 1.2794892
2086 1.1537399
2084 0.99116248
2082 0.8364467
2080 0.74295801
2078 0.75457674
2076 0.86407471
2074 1.0428904
2072 1.2592961
2070 1.4823884
2068 1.6854264
2066 1.8421707
2064 1.9212458
2062 1.9009511
2060 1.8098112
2058 1.6953241
2056 1.5958571
2054 1.5360577
2052 1.5037974
2050 1.4754903
2048 1.4419469
2046 1.3993286
2044 1.33605
2042 1.2400783
2040 1.1144543
2038 0.97538638
2036 0.8672756
2034 0.83739758
2032 0.89549237
2030 1.0287491
2028 1.2015152
2026 1.3739828
2024 1.5274543
2022 1.653336
2020 1.7427343
2018 1.7898352
2016 1.8033401
2014 1.800328
2012 1.8054975
2010 1.8396448
2008 1.8953395
2006 1.95311
2004 1.9995062
2002 2.0228989
2000 2.004699
1998 1.9252809
1996 1.7753643
1994 1.5610828
1992 1.3339566
1990 1.1614468
1988 1.087844
1986 1.1326236
1984 1.2618074
1982 1.4170955
1980 1.5431914
1978 1.5968819
1976 1.5738885
1974 1.496093
1972 1.4155746
1970 1.3869134
1968 1.4176977
1966 1.4870265
1964 1.5576845
1962 1.5952438
1960 1.604712
1958 1.6069654
1956 1.6033871
1954 1.5840384
1952 1.5404103
1950 1.4712592
1948 1.4015028
1946 1.3654749
1944 1.3827548
1942 1.4564486
1940 1.556478
1938 1.6394168
1936 1.6756629
1934 1.6504341
1932 1.576478
1930 1.4782271
1928 1.3716148
1926 1.2712471
1924 1.2122103
1922 1.2334718
1920 1.341856
1918 1.517287
1916 1.7025014
1914 1.8364031
1912 1.923372
1910 2.0002151
1908 2.0821478
1906 2.1632586
1904 2.2126
1902 2.1993153
1900 2.1481905
1898 2.1114452
1896 2.1195428
1894 2.1798921
1892 2.2671938
1890 2.3425062
1888 2.3815315
1886 2.373065
1884 2.3190877
1882 2.2284784
1880 2.1098588
1878 1.9695407
1876 1.80673
1874 1.620247
1872 1.4267634
1870 1.254629
1868 1.1361269
1866 1.0958922
1864 1.1183275
1862 1.168043
1860 1.2282423
1858 1.296381
1856 1.37274
1854 1.4504268
1852 1.4893448
1850 1.4357936
1848 1.265548
1846 0.9877457
1844 0.66955656
1842 0.40333885
1840 0.24283233
1838 0.20078395
1836 0.23078001
1834 0.26387581
1832 0.28363115
1830 0.31865114
1828 0.43349683
1826 0.68961877
1824 1.049682
1822 1.4111354
1820 1.672786
1818 1.7577299
1816 1.6596057
1814 1.4251442
1812 1.1363734
1810 0.88955778
1808 0.76496696
1806 0.80636799
1804 0.95008391
1802 1.0667723
1800 1.0476532
1798 0.83854622
1796 0.53390211
1794 0.31131825
1792 0.28201121
1790 0.47051764
1788 0.76661754
1786 0.99533153
1784 1.0754446
1782 1.0080369
1780 0.8263402
1778 0.57375401
1776 0.28115058
1774 -0.023235865
1772 -0.27564085
1770 -0.39921105
1768 -0.3778787
1766 -0.24974713
1764 -0.087840453
1762 0.021779377
1760 0.019642485
1758 -0.11713964
1756 -0.34259287
1754 -0.57311535
1752 -0.76825708
1750 -0.92708629
1748 -1.0561609
1746 -1.1619178
1744 -1.2479092
1742 -1.3121357
1740 -1.3357688
1738 -1.2873821
1736 -1.13534
1734 -0.86387825
1732 -0.52516246
1730 -0.21752825
1728 -0.015961889
1726 0.044845864
1724 0.0012177955
1722 -0.05521189
1720 -0.01136484
1718 0.23931533
1716 0.7303896
1714 1.420485
1712 2.1886566
1710 2.8931661
1708 3.5460439
1706 4.3001881
1704 5.3641415
1702 6.9671674
1700 9.3216114
1698 12.53814
1696 16.328714
1694 20.12344
1692 23.52986
1690 26.436182
1688 29.138046
1686 32.22472
1684 36.244492
1682 41.49332
1680 47.460079
1678 53.119301
1676 58.10717
1674 62.748398
1672 67.513748
1670 72.767509
1668 78.301872
1666 83.475548
1664 87.879997
1662 91.413383
1660 94.107155
1658 96.053642
1656 97.32637
1654 97.98632
1652 98.170784
1650 98.066284
1648 97.74733
1646 97.171112
1644 96.267181
1642 94.974106
1640 93.291603
1638 91.264542
1636 88.905418
1634 86.194138
1632 83.1362
1630 79.748833
1628 75.95179
1626 71.595055
1624 66.653282
1622 61.263557
1620 55.708755
1618 50.356663
1616 45.467827
1614 41.167084
1612 37.492416
1610 34.41449
1608 31.848383
1606 29.674122
1604 27.807114
1602 26.208683
1600 24.867029
1598 23.787144
1596 22.974998
1594 22.433081
1592 22.157909
1590 22.141026
1588 22.368517
1586 22.818029
1584 23.45088
1582 24.223639
1580 25.145901
1578 26.290491
1576 27.775684
1574 29.72805
1572 32.145397
1570 34.878551
1568 37.713959
1566 40.422543
1564 42.875629
1562 45.101124
1560 47.362606
1558 50.051773
1556 53.123528
1554 56.04055
1552 58.269718
1550 59.468342
1548 59.683529
1546 59.298679
1544 58.482502
1542 57.107574
1540 55.121841
1538 52.658531
1536 50.030457
1534 47.656151
1532 45.686737
1530 43.947029
1528 42.231293
1526 40.388252
1524 38.324799
1522 36.018078
1520 33.551483
1518 31.106487
1516 28.830643
1514 26.780249
1512 24.849199
1510 22.78681
1508 20.44552
1506 17.862057
1504 15.226886
1502 12.8337
1500 10.81629
1498 9.085351
1496 7.5010428
1494 5.9380088
1492 4.3721399
1490 2.9004526
1488 1.6438252
1486 0.70677805
1484 0.1174792
1482 -0.18736395
1480 -0.2892977
1478 -0.2456654
1476 0.0094884336
1474 0.66386348
1472 1.7816024
1470 3.229948
1468 4.8072996
1466 6.2969112
1464 7.5820141
1462 8.6834202
1460 9.6699381
1458 10.633006
1456 11.6588
1454 12.794279
1452 13.947914
1450 14.878374
1448 15.416977
1446 15.545
1444 15.317297
1442 14.83227
1440 14.156583
1438 13.301246
1436 12.2598
1434 11.032978
1432 9.7004604
1430 8.4401922
1428 7.4022241
1426 6.6610684
1424 6.2174764
1422 5.9950771
1420 5.9136381
1418 5.9156466
1416 5.9755945
1414 6.1048002
1412 6.3148766
1410 6.6027956
1408 6.9432092
1406 7.2838063
1404 7.5692844
1402 7.7515898
1400 7.8003483
1398 7.7117295
1396 7.5029788
1394 7.2125592
1392 6.8767118
1390 6.520689
1388 6.1615644
1386 5.8082848
1384 5.4686775
1382 5.1487579
1380 4.8375025
1378 4.5000634
1376 4.1028342
1374 3.6261771
1372 3.076314
1370 2.4898114
1368 1.8851216
1366 1.2466869
1364 0.57397968
1362 -0.091757923
1360 -0.66300935
1358 -1.0064006
1356 -1.0465404
1354 -0.8158356
1352 -0.37428927
1350 0.21254009
1348 0.87743556
1346 1.5550821
1344 2.1948879
1342 2.7712915
1340 3.277386
1338 3.7238693
1336 4.1075344
1334 4.3960671
1332 4.550703
1330 4.5368247
1328 4.3466692
1326 4.0174594
1324 3.6067786
1322 3.1875243
1320 2.8229468
1318 2.5502172
1316 2.3738
1314 2.2528932
1312 2.1371102
1310 1.9822233
1308 1.7734903
1306 1.5440686
1304 1.337636
1302 1.195161
1300 1.1439346
1298 1.1892076
1296 1.3358285
1294 1.5961726
1292 1.9824936
1290 2.5010409
1288 3.1400042
1286 3.8568816
1284 4.593214
1282 5.2770581
1280 5.8467269
1278 6.2675486
1276 6.530673
1274 6.663722
1272 6.7086215
1270 6.7178459
1268 6.7476273
1266 6.8553624
1264 7.0909524
1262 7.486742
1260 8.0527115
1258 8.7650795
1256 9.5959654
1254 10.525691
1252 11.541374
1250 12.637544
1248 13.797948
1246 14.98325
1244 16.149389
1242 17.25032
1240 18.232822
1238 19.032679
1236 19.585629
1234 19.836035
1232 19.75428
1230 19.355654
1228 18.663437
1226 17.694685
1224 16.48056
1222 15.082111
1220 13.599272
1218 12.19327
1216 11.013314
1214 10.149325
1212 9.6371374
1210 9.4215012
1208 9.4215822
1206 9.5439959
1204 9.6919479
1202 9.7683468
1200 9.6825037
1198 9.3631029
1196 8.7841997
1194 8.00735
1192 7.1268978
1190 6.2589812
1188 5.4887829
1186 4.8228917
1184 4.2381363
1182 3.6899867
1180 3.1515577
1178 2.6460478
1176 2.21206
1174 1.8943871
1172 1.7198548
1170 1.6718521
1168 1.7173966
1166 1.8111029
1164 1.9108437
1162 1.988945
1160 2.0238955
1158 2.0017579
1156 1.9172615
1154 1.7807318
1152 1.6020149
1150 1.3813543
1148 1.1186712
1146 0.82001501
1144 0.51133406
1142 0.25775295
1140 0.10277227
1138 0.018131191
1136 -0.034583654
1134 -0.075584956
1132 -0.10514683
1130 -0.088971242
1128 -0.0071274489
1126 0.10650559
1124 0.20851377
1122 0.26578051
1120 0.2676948
1118 0.25115991
1116 0.2528033
1114 0.28016004
1112 0.32938221
1110 0.38648021
1108 0.44227716
1106 0.505427
1104 0.58622777
1102 0.68769079
1100 0.80477786
1098 0.91798747
1096 1.0183429
1094 1.1327093
1092 1.2978621
1090 1.5508704
1088 1.9063674
1086 2.3199272
1084 2.732168
1082 3.0829499
1080 3.327107
1078 3.4594319
1076 3.4805443
1074 3.3832154
1072 3.1698055
1070 2.8765929
1068 2.5622046
1066 2.32143
1064 2.2225082
1062 2.2353835
1060 2.2963188
1058 2.3166296
1056 2.2343686
1054 2.0783212
1052 1.9049915
1050 1.785346
1048 1.7772223
1046 1.8889821
1044 2.0976419
1042 2.3248296
1040 2.4958107
1038 2.5867691
1036 2.618
1034 2.6991675
1032 2.9227276
1030 3.2639031
1028 3.6378164
1026 3.868345
1024 3.809371
1022 3.4722362
1020 2.9414086
1018 2.4042792
1016 2.0326943
1014 1.8718148
1012 1.8888841
1010 1.9089596
1008 1.7587759
1006 1.3785925
1004 0.78340715
1002 0.13108596
1000 -0.42292035
998 -0.84100342
996 -1.1260357
994 -1.3166289
992 -1.4463229
990 -1.5049027
988 -1.4770751
986 -1.3656864
984 -1.1844273
982 -0.9670952
980 -0.74926579
978 -0.55525386
976 -0.39951885
974 -0.27300683
972 -0.1580165
970 -0.028080143
968 0.13155954
966 0.28874549
964 0.39957133
962 0.42048466
960 0.32875764
958 0.17260164
956 0.0096488893
954 -0.13060403
952 -0.2265552
950 -0.25988817
948 -0.21555975
946 -0.087398104
944 0.12861538
942 0.43570191
940 0.80798113
938 1.1162889
936 1.2366458
934 1.1565272
932 0.90062505
930 0.52828687
928 0.12216337
926 -0.18058278
924 -0.24424167
922 0.0098606348
920 0.58434498
918 1.2489445
916 1.7427887
914 1.911863
912 1.705544
910 1.370144
908 1.18724
906 1.2874764
904 1.7187297
902 2.3532567
900 3.0421619
898 3.7278259
896 4.375
