Image.
>Pix99999.
  .
5555
5555
2300
900
5555
2
1
0
701
5555
1.0513000e-001
1.0731687e-001
1.0950374e-001
1.1169061e-001
1.1388743e-001
1.1607435e-001
1.1826123e-001
1.2044811e-001
1.2263498e-001
1.2482184e-001
1.2700871e-001
1.2919559e-001
1.3138247e-001
1.3355951e-001
1.3575600e-001
1.3797243e-001
1.4013064e-001
1.4219972e-001
1.4450060e-001
1.4712834e-001
1.4889029e-001
1.4944440e-001
1.5319869e-001
1.6146335e-001
1.5783852e-001
1.2644750e-001
7.3133953e-002
1.5241848e-002
-8.1791356e-003
3.2818001e-002
1.0701863e-001
1.7512433e-001
2.3574977e-001
2.9963577e-001
3.8182837e-001
4.9196601e-001
6.1326623e-001
7.2175568e-001
7.9568386e-001
8.2047814e-001
8.0768973e-001
7.7686489e-001
7.4856722e-001
7.3898661e-001
7.4601400e-001
7.6500034e-001
8.0372554e-001
8.7312460e-001
9.8119748e-001
1.1290441e+000
1.2939285e+000
1.4466330e+000
1.5628612e+000
1.6243540e+000
1.6310995e+000
1.5914942e+000
1.5248040e+000
1.4527954e+000
1.3948063e+000
1.3671156e+000
1.3779829e+000
1.4298636e+000
1.5127183e+000
1.6108450e+000
1.7030252e+000
1.7706364e+000
1.8141060e+000
1.8415114e+000
1.8664811e+000
1.8990979e+000
1.9287699e+000
1.9417640e+000
1.9414645e+000
1.9399564e+000
1.9609946e+000
2.0214465e+000
2.0951681e+000
2.1445959e+000
2.1491668e+000
2.1057186e+000
2.0558257e+000
2.0481546e+000
2.0965455e+000
2.1939633e+000
2.3025601e+000
2.3792207e+000
2.4046657e+000
2.3752115e+000
2.3161445e+000
2.2595072e+000
2.2235558e+000
2.2165160e+000
2.2284336e+000
2.2448680e+000
2.2609513e+000
2.2765830e+000
2.2968199e+000
2.3272657e+000
2.3689380e+000
2.4208477e+000
2.4817145e+000
2.5490453e+000
2.6157100e+000
2.6736717e+000
2.7202291e+000
2.7550349e+000
2.7801960e+000
2.7972696e+000
2.8037596e+000
2.7969015e+000
2.7820985e+000
2.7672310e+000
2.7574241e+000
2.7535682e+000
2.7442262e+000
2.7157571e+000
2.6660326e+000
2.6009822e+000
2.5390661e+000
2.5000820e+000
2.4889801e+000
2.5025403e+000
2.5319402e+000
2.5663500e+000
2.5956223e+000
2.6103749e+000
2.6032341e+000
2.5711584e+000
2.5275652e+000
2.4916472e+000
2.4788041e+000
2.4984343e+000
2.5439527e+000
2.6018379e+000
2.6588035e+000
2.7050335e+000
2.7422640e+000
2.7763045e+000
2.8076279e+000
2.8326938e+000
2.8410800e+000
2.8226745e+000
2.7800951e+000
2.7222795e+000
2.6593835e+000
2.6025343e+000
2.5655367e+000
2.5606959e+000
2.5884056e+000
2.6400950e+000
2.6937430e+000
2.7258837e+000
2.7322261e+000
2.7205224e+000
2.7090101e+000
2.7159650e+000
2.7393498e+000
2.7667098e+000
2.7854433e+000
2.7876315e+000
2.7850399e+000
2.7973359e+000
2.8362470e+000
2.9021876e+000
2.9670103e+000
2.9936228e+000
2.9653363e+000
2.8850439e+000
2.7907240e+000
2.7286060e+000
2.7093616e+000
2.7203496e+000
2.7328217e+000
2.7189372e+000
2.6837432e+000
2.6484752e+000
2.6276486e+000
2.6270115e+000
2.6354334e+000
2.6358905e+000
2.6227944e+000
2.5978141e+000
2.5656619e+000
2.5330441e+000
2.5102258e+000
2.5104706e+000
2.5506563e+000
2.6420362e+000
2.7632647e+000
2.8771889e+000
2.9548585e+000
2.9785445e+000
2.9538486e+000
2.8961143e+000
2.8107743e+000
2.7010257e+000
2.5899041e+000
2.5100060e+000
2.4850345e+000
2.5240967e+000
2.5988572e+000
2.6623337e+000
2.6767216e+000
2.6187029e+000
2.4975171e+000
2.3421063e+000
2.1881194e+000
2.0687232e+000
1.9971372e+000
1.9734663e+000
1.9936299e+000
2.0515616e+000
2.1379709e+000
2.2363498e+000
2.3050163e+000
2.2949862e+000
2.1904485e+000
2.0046830e+000
1.7843895e+000
1.5879406e+000
1.4447172e+000
1.3631796e+000
1.3449974e+000
1.3860087e+000
1.4665079e+000
1.5552821e+000
1.6115659e+000
1.5984796e+000
1.5201920e+000
1.4082282e+000
1.3003114e+000
1.2307550e+000
1.2151725e+000
1.2521590e+000
1.3175654e+000
1.3738836e+000
1.3841355e+000
1.3208100e+000
1.1917260e+000
1.0286161e+000
8.6808801e-001
7.4339205e-001
6.6954827e-001
6.4791441e-001
6.7270017e-001
7.3179251e-001
7.9954129e-001
8.4521228e-001
8.5405785e-001
8.2767826e-001
7.8859425e-001
7.6677775e-001
7.6816404e-001
7.8178424e-001
8.0117196e-001
8.2427239e-001
8.4500921e-001
8.5764164e-001
8.7369436e-001
9.1254699e-001
9.7264659e-001
1.0281367e+000
1.0161278e+000
8.6938834e-001
6.1120081e-001
3.3186492e-001
1.2001833e-001
3.0463047e-002
8.5475883e-003
-5.3591382e-002
-1.5228292e-001
-1.9920008e-001
-1.3631880e-001
4.3818995e-002
2.7439824e-001
4.4730714e-001
4.9404234e-001
4.0112326e-001
2.4229413e-001
1.3538517e-001
1.2469600e-001
1.7962888e-001
2.1726128e-001
1.4443541e-001
-3.7924588e-002
-2.4737149e-001
-3.7545621e-001
-3.1394160e-001
3.1449795e-003
5.9049428e-001
1.3812282e+000
2.2498288e+000
3.0686629e+000
3.7502551e+000
4.3614478e+000
5.0950475e+000
6.1700306e+000
7.7880487e+000
1.0058619e+001
1.2958083e+001
1.6184143e+001
1.9270079e+001
2.1983013e+001
2.4365580e+001
2.6708241e+001
2.9431622e+001
3.2773548e+001
3.6710331e+001
4.0821518e+001
4.4494503e+001
4.7631588e+001
5.0613590e+001
5.3835129e+001
5.7550819e+001
6.1674675e+001
6.5870544e+001
6.9929604e+001
7.3802666e+001
7.7459015e+001
8.0870140e+001
8.4053604e+001
8.7057632e+001
8.9891701e+001
9.2483345e+001
9.4553162e+001
9.5718468e+001
9.5938637e+001
9.5487068e+001
9.4549332e+001
9.3154587e+001
9.1227325e+001
8.8664192e+001
8.5557259e+001
8.2165207e+001
7.8642693e+001
7.5002060e+001
7.1198959e+001
6.7180153e+001
6.2978252e+001
5.8710838e+001
5.4502083e+001
5.0467499e+001
4.6723598e+001
4.3373600e+001
4.0440495e+001
3.7869263e+001
3.5600807e+001
3.3591892e+001
3.1823280e+001
3.0293983e+001
2.8991501e+001
2.7888945e+001
2.6960423e+001
2.6187000e+001
2.5574499e+001
2.5150299e+001
2.4931959e+001
2.4924490e+001
2.5130877e+001
2.5551672e+001
2.6170315e+001
2.6948643e+001
2.7824951e+001
2.8724878e+001
2.9611879e+001
3.0495449e+001
3.1403219e+001
3.2398537e+001
3.3680862e+001
3.5520813e+001
3.7874130e+001
4.0348522e+001
4.2562866e+001
4.4277870e+001
4.5532696e+001
4.6618679e+001
4.7733288e+001
4.8895023e+001
4.9997360e+001
5.0840862e+001
5.1249344e+001
5.1126865e+001
5.0561554e+001
4.9810036e+001
4.9033886e+001
4.8234299e+001
4.7338604e+001
4.6236626e+001
4.4865284e+001
4.3244278e+001
4.1484386e+001
3.9749401e+001
3.8036598e+001
3.6137016e+001
3.3842667e+001
3.1048643e+001
2.7926144e+001
2.4912373e+001
2.2276394e+001
2.0002001e+001
1.7950857e+001
1.5923116e+001
1.3799111e+001
1.1580144e+001
9.3070374e+000
7.0483055e+000
4.9266019e+000
3.1077087e+000
1.6823256e+000
6.5415466e-001
1.1137357e-001
2.2390893e-001
9.2248356e-001
1.8418190e+000
2.7267075e+000
3.5509923e+000
4.3642774e+000
5.2306175e+000
6.1100354e+000
6.8292127e+000
7.2223001e+000
7.2008448e+000
6.8503351e+000
6.4366007e+000
6.1132984e+000
5.8381610e+000
5.5586514e+000
5.2663169e+000
4.9682884e+000
4.6750770e+000
4.3701901e+000
4.0058613e+000
3.5631566e+000
3.0752485e+000
2.6031539e+000
2.2249951e+000
1.9907624e+000
1.9024855e+000
1.9307054e+000
2.0209687e+000
2.1345716e+000
2.2656279e+000
2.4308302e+000
2.6649487e+000
2.9849799e+000
3.3765786e+000
3.8166862e+000
4.2792063e+000
4.7369761e+000
5.1614733e+000
5.5191140e+000
5.7719560e+000
5.8936558e+000
5.8786263e+000
5.7374215e+000
5.4991150e+000
5.2023864e+000
4.8916936e+000
4.6002274e+000
4.3393717e+000
4.1023202e+000
3.8644478e+000
3.6113582e+000
3.3495510e+000
3.0843422e+000
2.8100858e+000
2.5055068e+000
2.1347039e+000
1.6920348e+000
1.2240673e+000
7.8956831e-001
4.4187784e-001
2.0102580e-001
3.8523443e-002
-6.9661051e-002
-1.2227643e-001
-1.0720401e-001
-9.0300292e-003
1.5862282e-001
3.3618003e-001
4.6682113e-001
5.2010512e-001
5.0195336e-001
4.6520799e-001
4.5565102e-001
4.8960850e-001
5.7460725e-001
7.1441406e-001
9.1083723e-001
1.1613263e+000
1.4473300e+000
1.7263401e+000
1.9579823e+000
2.1180515e+000
2.2028131e+000
2.2372828e+000
2.2474830e+000
2.2495379e+000
2.2512443e+000
2.2502506e+000
2.2453573e+000
2.2416706e+000
2.2467670e+000
2.2702510e+000
2.3193200e+000
2.3956034e+000
2.4954846e+000
2.6085033e+000
2.7246428e+000
2.8384690e+000
2.9523513e+000
3.0809760e+000
3.2411389e+000
3.4476712e+000
3.7102695e+000
4.0294166e+000
4.4009724e+000
4.8161864e+000
5.2661762e+000
5.7449012e+000
6.2524743e+000
6.7990513e+000
7.3916860e+000
8.0265675e+000
8.6897573e+000
9.3530998e+000
9.9921722e+000
1.0595860e+001
1.1157737e+001
1.1672035e+001
1.2128386e+001
1.2506843e+001
1.2792160e+001
1.2976289e+001
1.3057949e+001
1.3037664e+001
1.2911862e+001
1.2669062e+001
1.2303469e+001
1.1825350e+001
1.1257886e+001
1.0642127e+001
1.0015200e+001
9.3961258e+000
8.7925882e+000
8.1967964e+000
7.5975099e+000
6.9840283e+000
6.3463907e+000
5.6766744e+000
4.9766784e+000
4.2675295e+000
3.5772028e+000
2.9374490e+000
2.3709292e+000
1.8788235e+000
1.4563125e+000
1.0966504e+000
7.9757804e-001
5.6652027e-001
4.0895998e-001
3.2012212e-001
2.8548351e-001
2.7512327e-001
2.6180589e-001
2.3351486e-001
1.9104312e-001
1.5491229e-001
1.4309028e-001
1.5642317e-001
1.8543443e-001
2.0717873e-001
2.0196217e-001
1.6551812e-001
1.0300118e-001
3.2782786e-002
-2.4407128e-002
-4.9877182e-002
-2.7279275e-002
5.4783560e-002
2.0150715e-001
4.0632439e-001
6.6078573e-001
9.5945978e-001
1.3050365e+000
1.7168572e+000
2.2073271e+000
2.7613394e+000
3.3436160e+000
3.8883908e+000
4.3391085e+000
4.6823277e+000
4.9324851e+000
5.1453862e+000
5.3757105e+000
5.6496301e+000
5.9739041e+000
6.3248534e+000
6.6812820e+000
7.0466132e+000
7.4274998e+000
7.8230515e+000
8.2247400e+000
8.6107883e+000
8.9669285e+000
9.3060760e+000
9.6426392e+000
9.9760456e+000
1.0293406e+001
1.0559481e+001
1.0745428e+001
1.0858010e+001
1.0919412e+001
1.0974316e+001
1.1062357e+001
1.1191428e+001
1.1351080e+001
1.1504636e+001
1.1610685e+001
1.1639520e+001
1.1573315e+001
1.1418608e+001
1.1186129e+001
1.0884399e+001
1.0518291e+001
1.0091849e+001
9.6127319e+000
9.1148481e+000
8.6346149e+000
8.2025862e+000
7.8330402e+000
7.4965463e+000
7.1519017e+000
6.7557864e+000
6.2837296e+000
5.7683692e+000
5.2593808e+000
4.8131289e+000
4.4698181e+000
4.2148013e+000
4.0154285e+000
3.8255754e+000
3.6030700e+000
3.3293219e+000
3.0009561e+000
2.6449800e+000
2.2955923e+000
1.9855309e+000
1.7343806e+000
1.5211881e+000
1.3174214e+000
1.1023304e+000
8.6755586e-001
6.3698864e-001
4.3481714e-001
2.6097959e-001
1.0839164e-001
-3.2638386e-002
-1.6074681e-001
-2.3644890e-001
-2.1813828e-001
-8.8760197e-002
1.5187046e-001
4.6767151e-001
8.1092823e-001
1.1251450e+000
1.3584435e+000
1.4832280e+000
1.4904896e+000
1.4139060e+000
1.2907758e+000
1.1327878e+000
9.4297642e-001
7.1571851e-001
4.5868212e-001
2.3349667e-001
9.1121905e-002
-2.8025508e-003
-8.7024041e-002
-1.4054850e-001
-1.4894171e-001
-1.7490485e-001
-2.7893072e-001
-4.4284385e-001
-6.2138993e-001
-7.4207419e-001
-7.4635839e-001
-6.5334487e-001
-5.0401318e-001
-3.4866074e-001
-2.2982284e-001
-1.5148558e-001
-1.0798272e-001
-9.3566015e-002
-9.8828502e-002
-1.0021424e-001
-7.5474478e-002
-2.1491300e-002
4.8447073e-002
7.4869938e-002
-1.3249000e-002
