Image.
>Pix99999.
  .
5555
5555
2300
900
5555
2
1
0
701
5555
2.1665999e-001
2.2117355e-001
2.2567712e-001
2.3018067e-001
2.3469418e-001
2.3919779e-001
2.4370135e-001
2.4821481e-001
2.5271848e-001
2.5722200e-001
2.6173541e-001
2.6624897e-001
2.7075270e-001
2.7523661e-001
2.7976918e-001
2.8435165e-001
2.8877872e-001
2.9297799e-001
2.9778582e-001
3.0343583e-001
3.0684426e-001
3.0709520e-001
3.1569123e-001
3.3601886e-001
3.2539150e-001
2.4460715e-001
1.2011743e-001
-4.8713456e-003
-9.3864068e-002
-1.2481394e-001
-1.2560757e-001
-1.3052149e-001
-1.4239228e-001
-1.5517516e-001
-1.6394326e-001
-1.6465451e-001
-1.5499456e-001
-1.3226897e-001
-9.0203516e-002
-2.3583416e-002
6.4078972e-002
1.6266280e-001
2.4585140e-001
2.8837979e-001
2.8896570e-001
2.5710058e-001
2.1627794e-001
1.8801837e-001
1.6892993e-001
1.4972030e-001
1.2854500e-001
1.0763344e-001
9.5644802e-002
9.9911682e-002
1.1427438e-001
1.3092922e-001
1.5300520e-001
1.8613328e-001
2.3137371e-001
2.8499737e-001
3.2990000e-001
3.4899774e-001
3.4291339e-001
3.1900230e-001
2.8794464e-001
2.5813508e-001
2.2454043e-001
1.8075469e-001
1.3302355e-001
9.1699719e-002
6.5953404e-002
5.8822297e-002
5.0372716e-002
1.8480452e-002
-3.5647884e-002
-9.9486075e-002
-1.4808646e-001
-1.6124120e-001
-1.5505145e-001
-1.5619043e-001
-1.8173714e-001
-2.3902100e-001
-3.1093585e-001
-3.7412685e-001
-4.1505960e-001
-4.2661586e-001
-4.1239667e-001
-3.8199317e-001
-3.5410327e-001
-3.4710002e-001
-3.6468828e-001
-4.0282121e-001
-4.4842172e-001
-4.8704651e-001
-5.1175100e-001
-5.1947719e-001
-5.1108956e-001
-4.8989606e-001
-4.6349999e-001
-4.4216222e-001
-4.4048715e-001
-4.7159842e-001
-5.3580695e-001
-6.2423056e-001
-7.1078557e-001
-7.6739848e-001
-7.8483069e-001
-7.6527131e-001
-7.2638363e-001
-6.8976456e-001
-6.6896802e-001
-6.7174232e-001
-6.9599241e-001
-7.3396963e-001
-7.7024066e-001
-7.8977078e-001
-7.9146886e-001
-7.8112578e-001
-7.6863897e-001
-7.6348221e-001
-7.6729286e-001
-7.7911174e-001
-8.0100071e-001
-8.3450931e-001
-8.7317413e-001
-9.0757751e-001
-9.3072718e-001
-9.3990254e-001
-9.4549620e-001
-9.5985770e-001
-9.8009402e-001
-9.9496919e-001
-9.8716861e-001
-9.4360578e-001
-8.7868416e-001
-8.1844670e-001
-7.8630394e-001
-7.9691333e-001
-8.3566034e-001
-8.7620896e-001
-8.9761001e-001
-8.8688523e-001
-8.5133266e-001
-8.0728740e-001
-7.7104843e-001
-7.5524133e-001
-7.5928724e-001
-7.7421618e-001
-7.8124917e-001
-7.6201558e-001
-7.1773785e-001
-6.6199869e-001
-6.2082565e-001
-6.1909366e-001
-6.5411478e-001
-7.0945126e-001
-7.6755542e-001
-8.1308103e-001
-8.3859962e-001
-8.3998215e-001
-8.1089914e-001
-7.4773061e-001
-6.6426140e-001
-5.8360916e-001
-5.3183657e-001
-5.2948982e-001
-5.6976533e-001
-6.3188326e-001
-6.9404280e-001
-7.4000382e-001
-7.7532673e-001
-8.1331825e-001
-8.5311878e-001
-8.8547301e-001
-8.9947510e-001
-8.8875252e-001
-8.6753231e-001
-8.5759878e-001
-8.6707729e-001
-8.9344859e-001
-9.2243856e-001
-9.3751311e-001
-9.3633240e-001
-9.2354429e-001
-8.9948660e-001
-8.5874993e-001
-7.8366363e-001
-6.5835524e-001
-5.0233763e-001
-3.5309520e-001
-2.4048986e-001
-1.8287267e-001
-1.7380148e-001
-1.9754018e-001
-2.5520912e-001
-3.5338041e-001
-4.7666079e-001
-5.9593368e-001
-6.7965078e-001
-7.0388246e-001
-6.7888570e-001
-6.3403714e-001
-5.9765083e-001
-5.9146911e-001
-6.1870879e-001
-6.7157692e-001
-7.3971736e-001
-8.1210089e-001
-8.7700737e-001
-9.2081183e-001
-9.2303300e-001
-8.6387342e-001
-7.4406892e-001
-5.8443379e-001
-4.3915698e-001
-3.7059757e-001
-3.9473468e-001
-4.9188840e-001
-6.1564285e-001
-7.1408248e-001
-7.6927799e-001
-7.8362805e-001
-7.5203961e-001
-6.6798991e-001
-5.4897642e-001
-4.3162036e-001
-3.6859930e-001
-4.0620774e-001
-5.2503622e-001
-6.6292125e-001
-7.5425327e-001
-7.4713802e-001
-6.4065862e-001
-4.7157511e-001
-3.0191118e-001
-1.9704814e-001
-1.8086594e-001
-2.4202357e-001
-3.3722982e-001
-4.1126674e-001
-4.3415114e-001
-4.0068173e-001
-3.3412865e-001
-2.6894158e-001
-2.1517479e-001
-1.6345750e-001
-9.8260216e-002
-5.8610570e-003
1.1027208e-001
2.3563187e-001
3.5902715e-001
4.7096044e-001
5.5293840e-001
5.8522481e-001
5.7226884e-001
5.3515697e-001
4.9149823e-001
4.5581266e-001
4.4945934e-001
4.9392110e-001
5.8696997e-001
7.0085549e-001
7.7012306e-001
7.2114736e-001
5.5456364e-001
3.3242792e-001
1.4234634e-001
5.6497473e-002
2.5907537e-002
-5.9430320e-002
-1.8239872e-001
-2.3320720e-001
-1.5443087e-001
4.4347502e-002
2.8568521e-001
4.5982394e-001
5.0495815e-001
4.1941458e-001
2.8831938e-001
2.3505920e-001
2.8731799e-001
3.8343388e-001
4.1882443e-001
2.9381257e-001
2.9153101e-002
-2.5569993e-001
-4.2221808e-001
-3.4438440e-001
4.1704178e-002
7.2748715e-001
1.5896957e+000
2.4385893e+000
3.1560395e+000
3.7221284e+000
4.2579041e+000
4.9847331e+000
6.1229777e+000
7.8551126e+000
1.0260827e+001
1.3283815e+001
1.6602142e+001
1.9745590e+001
2.2487818e+001
2.4888788e+001
2.7265829e+001
3.0062664e+001
3.3506340e+001
3.7535809e+001
4.1698200e+001
4.5365070e+001
4.8444130e+001
5.1333794e+001
5.4404922e+001
5.7865986e+001
6.1645439e+001
6.5477203e+001
6.9218170e+001
7.2858810e+001
7.6350883e+001
7.9607430e+001
8.2620514e+001
8.5464043e+001
8.8238258e+001
9.0988762e+001
9.3453438e+001
9.5159317e+001
9.5918312e+001
9.5843933e+001
9.5072716e+001
9.3684433e+001
9.1641472e+001
8.8853752e+001
8.5457962e+001
8.1787987e+001
7.8058990e+001
7.4314468e+001
7.0492676e+001
6.6484856e+001
6.2290318e+001
5.8026901e+001
5.3839630e+001
4.9872219e+001
4.6245174e+001
4.3038589e+001
4.0242577e+001
3.7772823e+001
3.5558990e+001
3.3564884e+001
3.1789747e+001
3.0255484e+001
2.8965000e+001
2.7896381e+001
2.7015280e+001
2.6287819e+001
2.5705397e+001
2.5285372e+001
2.5046726e+001
2.5003891e+001
2.5181082e+001
2.5606800e+001
2.6273342e+001
2.7128290e+001
2.8075508e+001
2.8996656e+001
2.9843241e+001
3.0645029e+001
3.1450689e+001
3.2341492e+001
3.3547623e+001
3.5381672e+001
3.7802387e+001
4.0370762e+001
4.2648388e+001
4.4353706e+001
4.5546097e+001
4.6591892e+001
4.7721802e+001
4.8921635e+001
5.0020359e+001
5.0753399e+001
5.0981972e+001
5.0748283e+001
5.0218250e+001
4.9626945e+001
4.9068554e+001
4.8456551e+001
4.7665726e+001
4.6583443e+001
4.5155495e+001
4.3411526e+001
4.1481129e+001
3.9560177e+001
3.7685642e+001
3.5693913e+001
3.3406082e+001
3.0718794e+001
2.7774000e+001
2.4951286e+001
2.2472618e+001
2.0296370e+001
1.8288286e+001
1.6283367e+001
1.4188863e+001
1.2011086e+001
9.7740870e+000
7.5115647e+000
5.3327579e+000
3.4222865e+000
1.8929298e+000
7.6624185e-001
1.4629972e-001
2.1334806e-001
8.8484043e-001
1.7577680e+000
2.5551517e+000
3.2568994e+000
3.9278533e+000
4.6542645e+000
5.4346786e+000
6.1425295e+000
6.6017003e+000
6.6417670e+000
6.2826715e+000
5.7735910e+000
5.2974849e+000
4.8825965e+000
4.5228028e+000
4.2116790e+000
3.9469912e+000
3.7262297e+000
3.5132086e+000
3.2338455e+000
2.8485246e+000
2.3821907e+000
1.9050601e+000
1.5228857e+000
1.3071394e+000
1.2652562e+000
1.3609651e+000
1.5211450e+000
1.6887228e+000
1.8449860e+000
2.0028579e+000
2.2035666e+000
2.4696965e+000
2.7884328e+000
3.1416121e+000
3.5145152e+000
3.8925519e+000
4.2593966e+000
4.5914998e+000
4.8578892e+000
5.0397587e+000
5.1377196e+000
5.1531129e+000
5.0833049e+000
4.9341860e+000
4.7262049e+000
4.4865394e+000
4.2437549e+000
4.0059485e+000
3.7520390e+000
3.4679501e+000
3.1610744e+000
2.8463778e+000
2.5391550e+000
2.2321243e+000
1.8876171e+000
1.4895080e+000
1.0673825e+000
6.7046654e-001
3.5699841e-001
1.5025897e-001
1.7526109e-002
-7.2420955e-002
-1.2649143e-001
-1.3455600e-001
-7.3379904e-002
5.0628610e-002
1.8007281e-001
2.5604916e-001
2.4196513e-001
1.4265978e-001
2.0586621e-002
-6.1413176e-002
-6.3304514e-002
3.7638433e-002
2.4117628e-001
5.2548790e-001
8.4133470e-001
1.1335599e+000
1.3512928e+000
1.4677086e+000
1.4962013e+000
1.4651909e+000
1.4116886e+000
1.3657286e+000
1.3410760e+000
1.3416883e+000
1.3614994e+000
1.3942000e+000
1.4377270e+000
1.4932232e+000
1.5655999e+000
1.6560121e+000
1.7577728e+000
1.8629506e+000
1.9653027e+000
2.0635719e+000
2.1647232e+000
2.2781973e+000
2.4142869e+000
2.5816686e+000
2.7854176e+000
3.0287995e+000
3.3126066e+000
3.6352949e+000
3.9921598e+000
4.3765078e+000
4.7811828e+000
5.2060685e+000
5.6639090e+000
6.1693010e+000
6.7327695e+000
7.3523035e+000
8.0037498e+000
8.6574869e+000
9.2835159e+000
9.8550730e+000
1.0352043e+001
1.0756900e+001
1.1057907e+001
1.1246680e+001
1.1328716e+001
1.1309895e+001
1.1201928e+001
1.1012257e+001
1.0737829e+001
1.0379800e+001
9.9440012e+000
9.4408770e+000
8.8870163e+000
8.2997265e+000
7.6966157e+000
7.0928755e+000
6.4978209e+000
5.9129100e+000
5.3267751e+000
4.7286777e+000
4.1166391e+000
3.4960284e+000
2.8836925e+000
2.2983897e+000
1.7570831e+000
1.2737803e+000
8.5703516e-001
5.1044786e-001
2.3053905e-001
1.4529325e-002
-1.3543096e-001
-2.1825200e-001
-2.3853429e-001
-2.0891452e-001
-1.5624911e-001
-1.0675830e-001
-7.6752089e-002
-7.1999826e-002
-8.0113210e-002
-8.5529648e-002
-7.6202027e-002
-4.8768327e-002
-1.7472196e-002
1.2023292e-003
-3.9939769e-003
-3.6394440e-002
-8.3238035e-002
-1.2219823e-001
-1.1883098e-001
-4.6142407e-002
9.8299026e-002
3.0874342e-001
5.7340330e-001
8.7498224e-001
1.1883312e+000
1.5021503e+000
1.8419421e+000
2.2300096e+000
2.6598465e+000
3.1092041e+000
3.5367267e+000
3.9082799e+000
4.2200294e+000
4.4820127e+000
4.7201800e+000
4.9599299e+000
5.2148204e+000
5.4928226e+000
5.7943239e+000
6.1131473e+000
6.4317784e+000
6.7318568e+000
7.0018520e+000
7.2463918e+000
7.5060782e+000
7.8193135e+000
8.1933784e+000
8.6105366e+000
9.0088615e+000
9.3260403e+000
9.5291691e+000
9.6072626e+000
9.5891600e+000
9.5170422e+000
9.4419918e+000
9.4083834e+000
9.4358549e+000
9.5262718e+000
9.6488523e+000
9.7630816e+000
9.8231039e+000
9.7900572e+000
9.6487036e+000
9.3996639e+000
9.0713692e+000
8.6979771e+000
8.3105965e+000
7.9325709e+000
7.5667973e+000
7.2097211e+000
6.8530931e+000
6.4918003e+000
6.1323113e+000
5.7837391e+000
5.4543433e+000
5.1468897e+000
4.8472815e+000
4.5366874e+000
4.1934719e+000
3.8001957e+000
3.3556838e+000
2.8733742e+000
2.3988280e+000
1.9813843e+000
1.6560831e+000
1.4331599e+000
1.2568264e+000
1.0638564e+000
8.1878400e-001
5.1058453e-001
1.8271518e-001
-1.1457001e-001
-3.5235733e-001
-5.1492417e-001
-6.1192244e-001
-6.5960532e-001
-6.7524225e-001
-6.7316711e-001
-6.5737647e-001
-6.2821221e-001
-5.8248860e-001
-5.1705289e-001
-4.3175009e-001
-3.2614243e-001
-1.9657908e-001
-4.0961012e-002
1.3471499e-001
3.1780457e-001
4.8009354e-001
5.9360087e-001
6.4451081e-001
6.2683511e-001
5.4959577e-001
4.2844442e-001
2.8906322e-001
1.5853982e-001
5.9982210e-002
9.4580064e-003
1.3414379e-003
1.9766629e-002
3.1641308e-002
7.7290460e-003
-5.1528871e-002
-1.3401783e-001
-2.1207619e-001
-2.6196307e-001
-2.8885350e-001
-3.0013222e-001
-2.8453159e-001
-2.2964710e-001
-1.3639903e-001
-1.4338911e-002
1.0668293e-001
1.9651240e-001
2.4341890e-001
2.4190257e-001
1.9302721e-001
1.1028053e-001
4.9510077e-002
5.8271270e-002
1.0938807e-001
1.5696999e-001
