##TITLE=Methyl Ethyl Ketone
##JCAMP-DX=4.24
##DATA TYPE=INFRARED SPECTRUM
##XUNITS=cm-1
##YUNITS=Absorbance
##FIRSTX=900
##LASTX=2300
##XYDATA=(X++(Y..Y))
2296 0.0035194999
2294 0.0035926953
2292 0.0036659902
2290 0.0037391859
2288 0.0038123811
2286 0.0038855763
2284 0.0039587719
2282 0.0040320661
2280 0.0041052625
2278 0.0041784574
2276 0.0042516529
2274 0.0043249466
2272 0.0043981439
2270 0.0044713388
2268 0.0045445343
2266 0.004617827
2264 0.0046910248
2262 0.0047642197
2260 0.0048374152
2258 0.0049107079
2256 0.0049839057
2254 0.0050571011
2252 0.0051302966
2250 0.0052035884
2248 0.0052767866
2246 0.0053499821
2244 0.00019881086
2242 0.01195921
2240 -0.0040180883
2238 -0.046801571
2236 -0.09331096
2234 -0.20368809
2232 -0.31837651
2230 -0.42659575
2228 -0.52051538
2226 -0.50254452
2224 -0.46641463
2222 -0.37309229
2220 -0.29541588
2218 -0.27456447
2216 -0.277408
2214 -0.3250221
2212 -0.3752144
2210 -0.42532751
2208 -0.48379514
2206 -0.55270118
2204 -0.63075501
2202 -0.71701396
2200 -0.77793467
2198 -0.81952482
2196 -0.82078069
2194 -0.79948401
2192 -0.80078232
2190 -0.81262898
2188 -0.86095023
2186 -0.92092365
2184 -0.8984496
2182 -0.85686618
2180 -0.74436009
2178 -0.62221599
2176 -0.56588227
2174 -0.52137691
2172 -0.54189336
2170 -0.57595527
2168 -0.65219367
2166 -0.74459463
2164 -0.88087887
2162 -1.0130193
2160 -1.1231989
2158 -1.1818364
2156 -1.14705
2154 -1.062717
2152 -0.92059094
2150 -0.79394794
2148 -0.69153357
2146 -0.66382605
2144 -0.69991422
2142 -0.8292312
2140 -1.0187644
2138 -1.2201577
2136 -1.4247485
2134 -1.521861
2132 -1.5737007
2130 -1.5521519
2128 -1.508548
2126 -1.4885157
2124 -1.4743954
2122 -1.4797057
2120 -1.488044
2118 -1.4968685
2116 -1.5025315
2114 -1.484408
2112 -1.4553692
2110 -1.3935615
2108 -1.3362199
2106 -1.3070928
2104 -1.2960206
2102 -1.3153881
2100 -1.329278
2098 -1.3262779
2096 -1.3118714
2094 -1.2857256
2092 -1.2693129
2090 -1.264812
2088 -1.2707858
2086 -1.284395
2084 -1.2804903
2082 -1.2644056
2080 -1.2585709
2078 -1.2588443
2076 -1.3219614
2074 -1.4107748
2072 -1.461924
2070 -1.4998432
2068 -1.4370706
2066 -1.3509092
2064 -1.3368503
2062 -1.344479
2060 -1.4330506
2058 -1.525151
2056 -1.5486858
2054 -1.5488284
2052 -1.5116732
2050 -1.4832928
2048 -1.4946166
2046 -1.513525
2044 -1.5310041
2042 -1.519202
2040 -1.464992
2038 -1.4059623
2036 -1.3526129
2034 -1.3490777
2032 -1.3924508
2030 -1.471698
2028 -1.5716872
2026 -1.6455785
2024 -1.6999943
2022 -1.6797589
2020 -1.6217397
2018 -1.5550432
2016 -1.48752
2014 -1.5263863
2012 -1.6022553
2010 -1.7122535
2008 -1.8271074
2006 -1.8743857
2004 -1.9003066
2002 -1.8939661
2000 -1.8823835
1998 -1.8786045
1996 -1.8844072
1994 -1.9104912
1992 -1.9432691
1990 -1.984883
1988 -2.0072138
1986 -1.9985764
1984 -1.9626155
1982 -1.8987674
1980 -1.8351492
1978 -1.7763743
1976 -1.7134428
1974 -1.644261
1972 -1.5275477
1970 -1.3742503
1968 -1.2430234
1966 -1.1303051
1964 -1.1682512
1962 -1.2857913
1960 -1.454416
1958 -1.6415975
1956 -1.7361357
1954 -1.7955558
1952 -1.7931057
1950 -1.7749767
1948 -1.7719271
1946 -1.7782249
1944 -1.812688
1942 -1.8416061
1940 -1.8382294
1938 -1.8164673
1936 -1.7768943
1934 -1.7558357
1932 -1.776106
1930 -1.826794
1928 -1.9000343
1926 -1.9214622
1924 -1.8627368
1922 -1.6652944
1920 -1.3443686
1918 -1.0213764
1916 -0.73034656
1914 -0.58143103
1912 -0.5347504
1910 -0.5695169
1908 -0.64213634
1906 -0.77686787
1904 -0.94352478
1902 -1.07927
1900 -1.2007612
1898 -1.1528645
1896 -1.0357
1894 -0.87081981
1892 -0.70616919
1890 -0.67802459
1888 -0.73076284
1886 -0.91725183
1884 -1.1518371
1882 -1.3835309
1880 -1.5831938
1878 -1.705406
1876 -1.76222
1874 -1.7364676
1872 -1.6346303
1870 -1.4524436
1868 -1.2646534
1866 -1.1149093
1864 -1.0830332
1862 -1.176196
1860 -1.3127443
1858 -1.454143
1856 -1.5514686
1854 -1.6081352
1852 -1.6062335
1850 -1.56501
1848 -1.452908
1846 -1.296418
1844 -1.2211834
1842 -1.1895204
1840 -1.3039731
1838 -1.4845414
1836 -1.6069529
1834 -1.683961
1832 -1.6280097
1830 -1.4831578
1828 -1.2435671
1826 -0.98443937
1824 -0.80973375
1822 -0.76017869
1820 -0.90061158
1818 -1.1360061
1816 -1.3933229
1814 -1.5887455
1812 -1.6770068
1810 -1.6636851
1808 -1.5737537
1806 -1.43274
1804 -1.2637866
1802 -1.119907
1800 -1.0000712
1798 -0.92447734
1796 -0.87828785
1794 -0.77809095
1792 -0.64334917
1790 -0.47002482
1788 -0.28435713
1786 -0.15081114
1784 -0.054882489
1782 0.011679593
1780 0.062652305
1778 0.14306204
1776 0.24772887
1774 0.39151859
1772 0.52250677
1770 0.51778167
1768 0.42150915
1766 0.24466449
1764 0.088800438
1762 0.066667803
1760 0.030915331
1758 -0.10875978
1756 -0.23868287
1754 -0.29696339
1752 -0.1483545
1750 0.23084944
1748 0.71069604
1746 1.2167507
1744 1.4398845
1742 1.3730258
1740 1.177364
1738 0.92793673
1736 0.93590397
1734 1.1576873
1732 1.3171115
1730 1.3980107
1728 1.0883102
1726 0.52474415
1724 0.092020229
1722 -0.17336413
1720 0.10509086
1718 0.88984418
1716 2.1092014
1714 3.4307108
1712 4.3511262
1710 4.9623094
1708 5.3878961
1706 5.9597883
1704 7.0108576
1702 8.8079414
1700 11.459239
1698 14.8633
1696 18.802856
1694 22.482491
1692 25.603285
1690 28.394241
1688 31.030645
1686 34.389412
1684 38.517715
1682 43.319534
1680 48.596722
1678 53.0793
1676 56.834114
1674 60.565819
1672 64.37011
1670 68.777206
1668 73.620262
1666 78.307899
1664 82.817917
1662 87.075096
1660 91.080658
1658 94.840767
1656 98.293915
1654 101.35986
1652 103.804
1650 105.35704
1648 105.58068
1646 104.14
1644 101.66811
1642 98.79425
1640 95.692345
1638 92.528069
1636 88.787628
1634 84.312706
1632 79.600487
1630 74.847061
1628 70.418686
1626 66.368454
1624 62.188721
1622 57.82214
1620 53.466015
1618 49.14785
1616 45.0686
1614 41.24435
1612 37.79409
1610 34.739708
1608 32.139275
1606 29.979607
1604 28.13426
1602 26.601263
1600 25.317303
1598 24.277622
1596 23.4375
1594 22.804783
1592 22.354509
1590 22.089258
1588 21.983194
1586 22.040422
1584 22.253618
1582 22.653721
1580 23.25132
1578 24.117704
1576 25.265915
1574 26.585716
1572 28.017626
1570 29.332716
1568 30.475719
1566 31.536444
1564 32.537666
1562 33.838745
1560 35.542652
1558 38.070217
1556 41.418514
1554 44.587952
1552 47.383129
1550 49.321442
1548 50.474354
1546 51.508572
1544 52.398525
1542 53.123161
1540 53.477261
1538 53.112011
1536 52.111515
1534 50.70388
1532 49.097855
1530 47.604412
1528 46.221149
1526 44.940201
1524 43.610291
1522 42.11932
1520 40.331314
1518 38.126923
1516 35.894043
1514 33.762577
1512 31.740879
1510 29.885906
1508 27.582788
1506 24.680685
1504 21.668354
1502 18.575233
1500 16.023127
1498 14.085401
1496 12.262
1494 10.571631
1492 8.9238644
1490 7.3474698
1488 5.8534966
1486 4.4437242
1484 3.086478
1482 1.8503461
1480 0.8674736
1478 0.22631687
1476 0.039300345
1474 0.38337553
1472 1.1855996
1470 2.1267471
1468 2.9745917
1466 3.6627064
1464 4.1633177
1462 4.6828656
1460 5.3311701
1458 6.0373077
1456 6.7852197
1454 7.2988997
1452 7.4123302
1450 7.3584208
1448 7.0720758
1446 6.7599072
1444 6.4140725
1442 6.0478992
1440 5.6733522
1438 5.3341932
1436 5.0390658
1434 4.7094417
1432 4.3412719
1430 3.9272346
1428 3.514838
1426 3.2557435
1424 3.177845
1422 3.3019083
1420 3.5780537
1418 3.900573
1416 4.2094488
1414 4.4250259
1412 4.5787005
1410 4.7186604
1408 4.8777132
1406 5.094903
1404 5.349802
1402 5.6342168
1400 5.9327197
1398 6.2400613
1396 6.4893856
1394 6.6161113
1392 6.6242375
1390 6.4114656
1388 6.1468735
1386 5.8038249
1384 5.4700756
1382 5.1549244
1380 4.8660603
1378 4.6077032
1376 4.3329172
1374 4.0395799
1372 3.6906381
1370 3.300745
1368 2.9296629
1366 2.568538
1364 2.2298605
1362 1.8930757
1360 1.5148257
1358 1.1298475
1356 0.77170217
1354 0.45392507
1352 0.22915524
1350 0.064191505
1348 -0.02153457
1346 -0.046067595
1344 0.022390913
1342 0.15062393
1340 0.39146605
1338 0.63051081
1336 0.84348744
1334 0.98498344
1332 0.96595854
1330 0.9169569
1328 0.82859349
1326 0.7923035
1324 0.86293459
1322 1.0439543
1320 1.3808366
1318 1.7984209
1316 2.27684
1314 2.6835933
1312 2.9849296
1310 3.1533
1308 3.2068083
1306 3.2091393
1304 3.1734679
1302 3.112725
1300 3.0387132
1298 2.9477243
1296 2.8777001
1294 2.870986
1292 2.9190142
1290 3.0701394
1288 3.245492
1286 3.4426699
1284 3.6197751
1282 3.7365417
1280 3.8368721
1278 3.9005628
1276 3.9712029
1274 4.0631161
1272 4.1787853
1270 4.338841
1268 4.5155005
1266 4.712533
1264 4.9144654
1262 5.1223588
1260 5.350112
1258 5.6070271
1256 5.906877
1254 6.2515273
1252 6.6414928
1250 7.0662489
1248 7.5162892
1246 7.9722996
1244 8.4006252
1242 8.7988176
1240 9.1270008
1238 9.4184818
1236 9.6540422
1234 9.8447762
1232 9.925456
1230 9.9237576
1228 9.6913548
1226 9.3872709
1224 8.8964424
1222 8.3845644
1220 7.8238082
1218 7.2683363
1216 6.7243514
1214 6.1935797
1212 5.6885614
1210 5.2063088
1208 4.757813
1206 4.3303781
1204 3.9236481
1202 3.5113246
1200 3.0895004
1198 2.6462734
1196 2.1903
1194 1.7428617
1192 1.3101645
1190 0.91911006
1188 0.56545198
1186 0.29048008
1184 0.067489095
1182 -0.048077598
1180 -0.12038003
1178 -0.1135289
1176 -0.081556924
1174 0.009541817
1172 0.10515958
1170 0.20240451
1168 0.28436735
1166 0.3196882
1164 0.36767757
1162 0.44858429
1160 0.54960442
1158 0.68442303
1156 0.78138769
1154 0.8102867
1152 0.78114909
1150 0.67632091
1148 0.55637681
1146 0.42326286
1144 0.30360425
1142 0.19683278
1140 0.10248716
1138 0.029510636
1136 0.028349571
1134 0.085919477
1132 0.22485062
1130 0.39878768
1128 0.59422994
1126 0.80038464
1124 1.0335503
1122 1.2881633
1120 1.630312
1118 1.9806538
1116 2.3311701
1114 2.6682959
1112 2.9498396
1110 3.2318349
1108 3.5144756
1106 3.792625
1104 4.0600104
1102 4.3296905
1100 4.6076598
1098 4.9160357
1096 5.2709289
1094 5.6280284
1092 5.988636
1090 6.3565779
1088 6.7384658
1086 7.172637
1084 7.6412535
1082 8.0710058
1080 8.4542665
1078 8.6667585
1076 8.7819738
1074 8.7466183
1072 8.6557665
1070 8.5206165
1068 8.3833227
1066 8.3040457
1064 8.2493401
1062 8.3222332
1060 8.4096403
1058 8.5499096
1056 8.677577
1054 8.7503443
1052 8.8175936
1050 8.868206
1048 8.9242907
1046 8.9907818
1044 9.031539
1042 9.0210953
1040 8.9771652
1038 8.8868599
1036 8.8194599
1034 8.7779512
1032 8.7348261
1030 8.6816998
1028 8.5352812
1026 8.3230324
1024 8.0865879
1022 7.8372021
1020 7.585247
1018 7.3157263
1016 6.8704257
1014 6.3652029
1012 5.7198024
1010 5.0553322
1008 4.4404879
1006 3.8363965
1004 3.3081698
1002 2.7930067
1000 2.3627446
998 1.9499689
996 1.6140429
994 1.2830156
992 0.9679513
990 0.67563057
988 0.43608713
986 0.21646166
984 0.029885516
982 -0.19286194
980 -0.46245581
978 -0.72188061
976 -0.96394968
974 -1.0816642
972 -1.0917748
970 -0.94050682
968 -0.68656027
966 -0.34746075
964 0.024910599
962 0.29244494
960 0.51629233
958 0.54078472
956 0.51827604
954 0.40329301
952 0.2772432
950 0.15561228
948 0.040237308
946 0.013260857
944 0.0016364232
942 0.051974505
940 0.18525064
938 0.44906622
936 0.70453286
934 0.93524957
932 1.1374412
930 1.2789578
928 1.425436
926 1.5806285
924 1.7692001
922 1.9998484
920 2.2828896
918 2.6152947
916 3.0095599
914 3.4457595
912 3.7759519
910 4.048233
908 4.0105767
906 3.855628
904 3.5937493
902 3.3061812
900 3.2319875
898 3.1928568
896 3.3025
