Image.
>Pix99999.
  .
5555
5555
2300
900
5555
2
1
0
701
5555
1.7404000e-001
1.7773470e-001
1.8142943e-001
1.8512414e-001
1.8882880e-001
1.9252357e-001
1.9621830e-001
1.9992289e-001
2.0361771e-001
2.0731243e-001
2.1100715e-001
2.1471171e-001
2.1840657e-001
2.2210129e-001
2.2580580e-001
2.2950071e-001
2.3319544e-001
2.3689015e-001
2.4059460e-001
2.4428956e-001
2.4798429e-001
2.5168869e-001
2.5538370e-001
2.5907844e-001
2.6277313e-001
2.6647750e-001
1.4265177e-001
5.3178426e-003
-1.4292480e-001
-1.9858192e-001
-2.4039401e-001
-2.1128131e-001
-1.7653589e-001
-1.2926003e-001
-8.2868934e-002
-4.7641501e-002
-2.9294617e-002
-8.5004732e-002
-1.7449448e-001
-3.5449225e-001
-5.2987653e-001
-6.8403155e-001
-7.6546460e-001
-7.3031336e-001
-6.3320851e-001
-4.6781728e-001
-3.1527099e-001
-1.7937429e-001
-8.4601805e-002
-1.9786630e-002
8.7013571e-003
1.7449163e-002
-2.4436336e-002
-8.7909408e-002
-1.7105137e-001
-2.6014078e-001
-3.1631720e-001
-3.6485595e-001
-3.8632494e-001
-4.0315664e-001
-3.6486173e-001
-3.1778842e-001
-2.2822180e-001
-1.4357100e-001
-1.0991675e-001
-9.8662160e-002
-1.5074608e-001
-2.1975894e-001
-3.1599829e-001
-4.0527123e-001
-4.7622401e-001
-5.0334889e-001
-4.6970841e-001
-3.8819134e-001
-2.5984651e-001
-1.3938285e-001
-3.0179907e-002
3.4199499e-003
-1.4637806e-002
-7.7615507e-002
-1.6224155e-001
-2.1421780e-001
-2.5182068e-001
-2.6433900e-001
-2.6934838e-001
-2.5599858e-001
-2.3839669e-001
-1.6951436e-001
-9.1186889e-002
1.1236985e-002
1.1410166e-001
1.9368841e-001
2.6372382e-001
3.0553731e-001
3.3272094e-001
3.2835549e-001
3.0750000e-001
2.6086926e-001
2.1235779e-001
1.6728196e-001
1.1909000e-001
6.6502996e-002
-5.9744623e-004
-8.2048617e-002
-1.4410792e-001
-1.8910199e-001
-2.0456426e-001
-2.0231703e-001
-2.4145314e-001
-3.0321863e-001
-4.1433701e-001
-5.4468614e-001
-5.7874519e-001
-5.8082747e-001
-4.6920907e-001
-3.3232352e-001
-3.2914388e-001
-3.6435041e-001
-5.3358334e-001
-7.1058351e-001
-7.8516084e-001
-8.0763328e-001
-7.1283835e-001
-5.9613007e-001
-4.7933280e-001
-3.8263428e-001
-3.2335702e-001
-2.8220126e-001
-2.6033702e-001
-2.3747548e-001
-2.1236901e-001
-1.9592048e-001
-1.8770228e-001
-2.1374129e-001
-2.6361880e-001
-3.2134578e-001
-3.8017684e-001
-3.8768095e-001
-3.6751565e-001
-3.2182297e-001
-2.6829401e-001
-2.6249698e-001
-2.7528870e-001
-3.0374652e-001
-3.3595541e-001
-3.4822929e-001
-3.5892805e-001
-3.8747740e-001
-4.2315555e-001
-4.6023616e-001
-4.9514571e-001
-5.1624852e-001
-5.3201556e-001
-5.5277371e-001
-5.5896038e-001
-5.4987037e-001
-5.3574824e-001
-5.1929837e-001
-5.3946191e-001
-5.9646934e-001
-6.4274460e-001
-6.6876280e-001
-5.7737648e-001
-3.9709476e-001
-2.1907131e-001
-5.3280395e-002
-9.5397756e-002
-2.4939701e-001
-4.4891641e-001
-6.6320348e-001
-7.3751855e-001
-7.6106191e-001
-7.4335164e-001
-7.2235125e-001
-7.4891645e-001
-7.9851502e-001
-8.9777559e-001
-1.0011927e+000
-1.1008968e+000
-1.1827914e+000
-1.2294629e+000
-1.2672967e+000
-1.2954780e+000
-1.3309997e+000
-1.3694589e+000
-1.3553685e+000
-1.2635055e+000
-1.0397131e+000
-7.0257014e-001
-3.9508781e-001
-1.5221363e-001
-6.9134928e-002
-9.5796801e-002
-1.5873638e-001
-2.2761329e-001
-3.1071907e-001
-4.0333042e-001
-4.8328796e-001
-5.6059158e-001
-5.2870202e-001
-4.5193145e-001
-3.2128751e-001
-1.7690997e-001
-9.9842310e-002
-7.9310782e-002
-2.1147804e-001
-4.2428905e-001
-7.1424180e-001
-1.0077541e+000
-1.2346004e+000
-1.3846200e+000
-1.4136090e+000
-1.3425349e+000
-1.1682740e+000
-9.7418404e-001
-8.2162386e-001
-7.7817625e-001
-8.6077642e-001
-9.8122615e-001
-1.0967908e+000
-1.1826315e+000
-1.2355349e+000
-1.2707417e+000
-1.2881957e+000
-1.2287320e+000
-1.1139393e+000
-1.0123795e+000
-9.1592938e-001
-9.7383571e-001
-1.1130130e+000
-1.2564542e+000
-1.3892580e+000
-1.3874418e+000
-1.2729005e+000
-9.9073082e-001
-6.4424068e-001
-3.7088531e-001
-2.4303895e-001
-3.5656801e-001
-5.9849882e-001
-8.7257230e-001
-1.0973713e+000
-1.2217846e+000
-1.2455367e+000
-1.1942199e+000
-1.0522109e+000
-8.4149057e-001
-6.2475520e-001
-4.0827578e-001
-2.5701383e-001
-1.5455857e-001
-2.2608485e-002
1.2205967e-001
2.7345356e-001
4.1015932e-001
4.4980678e-001
4.2503941e-001
4.0521762e-001
4.0028751e-001
5.2319580e-001
7.2810543e-001
9.9718058e-001
1.2339909e+000
1.2037940e+000
1.0030751e+000
6.6812807e-001
3.4407741e-001
1.9987226e-001
6.7214400e-002
-1.5095466e-001
-3.1568384e-001
-3.5576192e-001
-1.3075849e-001
3.8087451e-001
9.5926768e-001
1.5037000e+000
1.7370594e+000
1.6553330e+000
1.5101526e+000
1.3755282e+000
1.5182600e+000
1.8914615e+000
2.0559108e+000
2.0314057e+000
1.5343709e+000
7.3049700e-001
1.4945138e-001
-1.9384325e-001
1.0062778e-001
9.5978445e-001
2.2820745e+000
3.7394896e+000
4.7760887e+000
5.4817400e+000
6.0042958e+000
6.6843190e+000
7.8870397e+000
9.9302387e+000
1.2942612e+001
1.6748724e+001
2.1044714e+001
2.4857080e+001
2.7855728e+001
3.0447649e+001
3.2907433e+001
3.6208958e+001
4.0397812e+001
4.5207092e+001
5.0407639e+001
5.4706863e+001
5.8193115e+001
6.1693565e+001
6.5312332e+001
6.9589447e+001
7.4359726e+001
7.9035202e+001
8.3566246e+001
8.7836021e+001
9.1839661e+001
9.5592049e+001
9.9052689e+001
1.0218804e+002
1.0470560e+002
1.0626627e+002
1.0639474e+002
1.0467107e+002
1.0180974e+002
9.8554962e+001
9.5122101e+001
9.1707710e+001
8.7808426e+001
8.3245384e+001
7.8463638e+001
7.3631493e+001
6.9083740e+001
6.4883240e+001
6.0611961e+001
5.6222473e+001
5.1922520e+001
4.7727379e+001
4.3745060e+001
3.9988224e+001
3.6601269e+001
3.3610901e+001
3.1119036e+001
2.9105143e+001
2.7407116e+001
2.6014326e+001
2.4840561e+001
2.3887241e+001
2.3129000e+001
2.2568691e+001
2.2174372e+001
2.1942181e+001
2.1839756e+001
2.1889450e+001
2.2104057e+001
2.2505270e+001
2.3106182e+001
2.3945578e+001
2.5021515e+001
2.6285252e+001
2.7683208e+001
2.9027897e+001
3.0267321e+001
3.1409029e+001
3.2470432e+001
3.3865395e+001
3.5697617e+001
3.8286270e+001
4.1614185e+001
4.4541519e+001
4.6900703e+001
4.8529274e+001
4.9516865e+001
5.0579109e+001
5.1674892e+001
5.2676815e+001
5.3300980e+001
5.2984024e+001
5.1845428e+001
5.0197140e+001
4.8319092e+001
4.6666843e+001
4.5200550e+001
4.3877602e+001
4.2550468e+001
4.1092018e+001
3.9388584e+001
3.7297352e+001
3.5109856e+001
3.2925846e+001
3.0836279e+001
2.8947502e+001
2.6729895e+001
2.4066050e+001
2.1251812e+001
1.8280281e+001
1.5803638e+001
1.3894440e+001
1.2127286e+001
1.0514465e+001
8.8877239e+000
7.2773919e+000
5.7099943e+000
4.2195101e+000
2.8528779e+000
1.6549489e+000
7.4397278e-001
1.8015604e-001
3.1272963e-002
3.7039226e-001
1.0938237e+000
1.9421120e+000
2.7047541e+000
3.3323879e+000
3.8472772e+000
4.4374542e+000
5.2280779e+000
6.1057754e+000
7.0392199e+000
7.6631641e+000
7.7424607e+000
7.6031728e+000
7.1599760e+000
6.7281284e+000
6.3203082e+000
5.9268627e+000
5.5733094e+000
5.2527719e+000
4.9851356e+000
4.6719546e+000
4.3212914e+000
3.9386868e+000
3.5527461e+000
3.3096936e+000
3.2318079e+000
3.3469050e+000
3.6290367e+000
3.9822702e+000
4.3358970e+000
4.5894079e+000
4.7568645e+000
4.8992224e+000
5.0663338e+000
5.3207564e+000
5.6263399e+000
5.9587588e+000
6.2890801e+000
6.5908408e+000
6.8344855e+000
6.9527235e+000
6.9699974e+000
6.7689476e+000
6.4866762e+000
6.0709848e+000
5.6223311e+000
5.1404977e+000
4.6864400e+000
4.2832236e+000
3.9137831e+000
3.6027400e+000
3.2905900e+000
2.9782505e+000
2.6772766e+000
2.3591123e+000
2.0301893e+000
1.6863477e+000
1.2955217e+000
9.0805864e-001
5.7450229e-001
2.9320240e-001
1.2875617e-001
2.9265974e-002
-4.3628365e-004
2.2076428e-002
1.4242160e-001
3.3962655e-001
6.8935490e-001
1.0261953e+000
1.3025914e+000
1.4867679e+000
1.4479511e+000
1.3978961e+000
1.3379560e+000
1.3559629e+000
1.5215925e+000
1.7709337e+000
2.1433938e+000
2.5423746e+000
2.9517400e+000
3.2778945e+000
3.4894862e+000
3.5917275e+000
3.5959632e+000
3.5814929e+000
3.5571835e+000
3.5444131e+000
3.5304639e+000
3.4812379e+000
3.4184999e+000
3.3318408e+000
3.2648230e+000
3.2560911e+000
3.2818761e+000
3.3713214e+000
3.4588709e+000
3.5211878e+000
3.5649664e+000
3.5664456e+000
3.5781200e+000
3.6258440e+000
3.7253914e+000
3.9233544e+000
4.1707478e+000
4.4795613e+000
4.7944899e+000
5.1068554e+000
5.4132342e+000
5.7160311e+000
6.0275712e+000
6.3436084e+000
6.6538386e+000
6.9593191e+000
7.2640905e+000
7.5758753e+000
7.9023466e+000
8.2312078e+000
8.5411711e+000
8.8286448e+000
9.0619116e+000
9.2538395e+000
9.3478880e+000
9.3818455e+000
9.2537632e+000
9.0582075e+000
8.6812935e+000
8.2569017e+000
7.7207994e+000
7.1833630e+000
6.6450486e+000
6.1251316e+000
5.6375184e+000
5.1605639e+000
4.7011614e+000
4.2623439e+000
3.8484199e+000
3.4552357e+000
3.0783176e+000
2.6907144e+000
2.2934215e+000
1.8833683e+000
1.4718525e+000
1.0844111e+000
7.1411276e-001
3.6973578e-001
4.1797429e-002
-2.5410900e-001
-5.1302224e-001
-6.4732647e-001
-7.1543396e-001
-5.8181489e-001
-4.1161594e-001
-1.4981848e-001
9.3479753e-002
2.7617642e-001
4.4813237e-001
5.9557593e-001
7.5251436e-001
9.2401701e-001
1.0623686e+000
1.1390996e+000
1.1497977e+000
1.0695946e+000
9.4219321e-001
7.6310110e-001
5.6652969e-001
3.6050674e-001
1.8677545e-001
5.0065950e-002
-1.2989531e-003
1.3113752e-002
1.1379418e-001
2.7315629e-001
5.6975365e-001
9.2704332e-001
1.4095080e+000
1.9168334e+000
2.4381759e+000
2.9408419e+000
3.3346272e+000
3.6897633e+000
3.8909547e+000
4.0768552e+000
4.2166929e+000
4.3722048e+000
4.5628023e+000
4.7376919e+000
4.8792706e+000
4.9979630e+000
5.0914283e+000
5.2542906e+000
5.5178723e+000
5.9063911e+000
6.4234848e+000
7.0056801e+000
7.6296263e+000
8.1974640e+000
8.7033157e+000
8.9986334e+000
9.1684790e+000
9.1132479e+000
8.9800224e+000
8.8179331e+000
8.6553965e+000
8.5415974e+000
8.4307804e+000
8.2976007e+000
8.1763191e+000
8.1391964e+000
8.1355743e+000
8.2776127e+000
8.4179106e+000
8.5536203e+000
8.6825790e+000
8.7990532e+000
8.9528627e+000
9.1737041e+000
9.3960295e+000
9.6143456e+000
9.7795296e+000
9.8764124e+000
9.8799810e+000
9.7874727e+000
9.5404644e+000
9.1817083e+000
8.7533035e+000
8.2951965e+000
7.9117684e+000
7.5600152e+000
7.2483659e+000
6.9393806e+000
6.5421214e+000
6.1167259e+000
5.5383639e+000
4.9484835e+000
4.3712149e+000
3.8262036e+000
3.5002782e+000
3.1952722e+000
2.9790001e+000
2.7274461e+000
2.3637064e+000
1.9665542e+000
1.4943905e+000
1.0458409e+000
6.4374316e-001
3.1089476e-001
7.7467591e-002
-5.3938586e-002
-7.7600405e-002
-4.3011285e-002
3.3390123e-002
3.3387393e-002
-1.3203703e-002
-8.6362302e-002
-1.6291890e-001
-7.4785829e-002
6.8803430e-002
2.8134885e-001
4.9972802e-001
5.3412843e-001
5.3872919e-001
3.6550191e-001
1.8985549e-001
8.4398903e-002
4.7659930e-003
3.9326698e-003
1.2931782e-001
4.3614212e-001
7.7556288e-001
1.2108520e+000
1.6352217e+000
2.0349045e+000
2.3869269e+000
2.6625106e+000
2.8997359e+000
3.0898337e+000
3.2033200e+000
3.2433257e+000
3.1610830e+000
2.9926786e+000
2.8670447e+000
2.7684031e+000
2.8993096e+000
3.1217506e+000
3.3385491e+000
3.5560386e+000
3.5882096e+000
3.5917237e+000
3.7479999e+000
