##TITLE=Methyl Ethyl Ketone
##JCAMP-DX=4.24
##DATA TYPE=INFRARED SPECTRUM
##XUNITS=cm-1
##YUNITS=Absorbance
##FIRSTX=900
##LASTX=2300
##XYDATA=(X++(Y..Y))
2296 0.26284
2294 0.26831216
2292 0.27377439
2290 0.27924651
2288 0.28470874
2286 0.29018086
2284 0.29565305
2282 0.3011153
2280 0.3065874
2278 0.31204966
2276 0.31752172
2274 0.32299387
2272 0.32845625
2270 0.33390862
2268 0.33939022
2266 0.34491152
2264 0.35032612
2262 0.35559204
2260 0.36126369
2258 0.36748064
2256 0.37222543
2254 0.3748917
2252 0.38304788
2250 0.39893904
2248 0.39443862
2246 0.3370007
2244 0.21022852
2242 0.017886627
2240 -0.17332628
2238 -0.30032215
2236 -0.38587043
2234 -0.46826866
2232 -0.54909307
2230 -0.61876583
2228 -0.66622382
2226 -0.68769848
2224 -0.70999593
2222 -0.76177478
2220 -0.84301865
2218 -0.94126868
2216 -1.0287343
2214 -1.0794533
2212 -1.093016
2210 -1.0746471
2208 -1.0197017
2206 -0.92296839
2204 -0.78725547
2202 -0.6239121
2200 -0.46766546
2198 -0.35194582
2196 -0.27565071
2194 -0.22270705
2192 -0.16043633
2190 -0.061995246
2188 0.055368342
2186 0.15960355
2184 0.2158536
2182 0.19757175
2180 0.11477054
2178 -0.0087918332
2176 -0.14130054
2174 -0.25123554
2172 -0.31797796
2170 -0.3296743
2168 -0.29557255
2166 -0.23392308
2164 -0.17146249
2162 -0.13270016
2160 -0.12200617
2158 -0.13377789
2156 -0.149757
2154 -0.15020287
2152 -0.12643029
2150 -0.07750383
2148 -0.018511467
2146 0.029218856
2144 0.040967986
2142 -0.0043854299
2140 -0.1089439
2138 -0.26364657
2136 -0.44126713
2134 -0.60853535
2132 -0.73312551
2130 -0.78755873
2128 -0.76202399
2126 -0.65979534
2124 -0.51195067
2122 -0.35598561
2120 -0.21496806
2118 -0.10248212
2116 -0.016166111
2114 0.047978956
2112 0.07702972
2110 0.054372676
2108 -0.024862587
2106 -0.15507665
2104 -0.30656999
2102 -0.44323343
2100 -0.53971016
2098 -0.58252585
2096 -0.58921289
2094 -0.58504176
2092 -0.57836127
2090 -0.56636518
2088 -0.52914423
2086 -0.44862199
2084 -0.34102854
2082 -0.23627046
2080 -0.16355263
2078 -0.1431921
2076 -0.16189043
2074 -0.19235121
2072 -0.20513999
2070 -0.17695972
2068 -0.11138424
2066 -0.027132815
2064 0.039601553
2062 0.049865425
2060 -0.018835349
2058 -0.17413355
2056 -0.39125857
2054 -0.63065636
2052 -0.8461234
2050 -0.99695653
2048 -1.0745388
2046 -1.085425
2044 -1.04184
2042 -0.95587814
2040 -0.8327114
2038 -0.68012238
2036 -0.53070116
2034 -0.42578661
2032 -0.39753938
2030 -0.46340302
2028 -0.5983932
2026 -0.75924623
2024 -0.90366137
2022 -0.99844825
2020 -1.0429198
2018 -1.0506816
2016 -1.03466
2014 -1.0071219
2012 -0.98151052
2010 -0.97253734
2008 -0.996683
2006 -1.0650429
2004 -1.1622423
2002 -1.261099
2000 -1.335796
1998 -1.36683
1996 -1.3556643
1994 -1.3154798
1992 -1.2688057
1990 -1.2385955
1988 -1.2329221
1986 -1.2482378
1984 -1.2622366
1982 -1.2480894
1980 -1.1968203
1978 -1.1104195
1976 -0.99857312
1974 -0.87384373
1972 -0.74799591
1970 -0.63697147
1968 -0.57737488
1966 -0.6069591
1964 -0.72423762
1962 -0.89814591
1960 -1.0576968
1958 -1.1277806
1956 -1.0951157
1954 -0.98746121
1952 -0.86694741
1950 -0.80031615
1948 -0.8084237
1946 -0.88154751
1944 -0.98498982
1942 -1.0788704
1940 -1.1494986
1938 -1.1986486
1936 -1.2326314
1934 -1.2579976
1932 -1.27705
1930 -1.2893549
1928 -1.2938691
1926 -1.2861129
1924 -1.2480011
1922 -1.1633334
1920 -1.056204
1918 -0.97103459
1916 -0.94320512
1914 -0.9883405
1912 -1.0653732
1910 -1.1124705
1908 -1.1104065
1906 -1.0729586
1904 -1.043712
1902 -1.0694201
1900 -1.1471165
1898 -1.2435842
1896 -1.3200572
1894 -1.3467424
1892 -1.3351157
1890 -1.320964
1888 -1.3443131
1886 -1.4352778
1884 -1.5791266
1882 -1.7341826
1880 -1.8551056
1878 -1.9063997
1876 -1.8951
1874 -1.8507235
1872 -1.79128
1870 -1.7216911
1868 -1.6295466
1866 -1.5007993
1864 -1.3546537
1862 -1.22876
1860 -1.1502464
1858 -1.1328553
1856 -1.1694943
1854 -1.240985
1852 -1.3256037
1850 -1.402231
1848 -1.454168
1846 -1.4703786
1844 -1.4537911
1842 -1.4173255
1840 -1.3818508
1838 -1.3691142
1836 -1.3862958
1834 -1.4257519
1832 -1.4552411
1830 -1.4316448
1828 -1.3286254
1826 -1.1431736
1824 -0.92231852
1822 -0.73740274
1820 -0.63067484
1818 -0.61547083
1816 -0.67544055
1814 -0.77708817
1812 -0.88545811
1810 -0.96758038
1808 -0.99515074
1806 -0.95573896
1804 -0.89546126
1802 -0.89120328
1800 -0.98424369
1798 -1.1645403
1796 -1.3187642
1794 -1.2950519
1792 -1.0669479
1790 -0.71568042
1788 -0.38648385
1786 -0.22437093
1784 -0.22629885
1782 -0.28859425
1780 -0.33291283
1778 -0.32100719
1776 -0.25619486
1774 -0.16552123
1772 -0.069802955
1770 0.016568623
1768 0.073677763
1766 0.084392712
1764 0.066959158
1762 0.053328067
1760 0.019242782
1758 -0.090189829
1756 -0.26874742
1754 -0.46525389
1752 -0.65255517
1750 -0.82601827
1748 -0.97270298
1746 -1.0745035
1744 -1.1333725
1742 -1.1639735
1740 -1.1651849
1738 -1.1216282
1736 -1.01638
1734 -0.84340012
1732 -0.64328671
1730 -0.48353231
1728 -0.39355567
1726 -0.36038852
1724 -0.33214432
1722 -0.22929361
1720 0.040848449
1718 0.55653417
1716 1.2978832
1714 2.1625874
1712 3.0229015
1710 3.7751369
1708 4.4666281
1706 5.2737064
1704 6.4155221
1702 8.1232224
1700 10.61235
1698 13.986089
1696 17.891857
1694 21.66857
1692 24.923283
1690 27.625082
1688 30.16024
1686 33.183079
1684 37.205246
1682 42.412724
1680 48.229958
1678 53.630497
1676 58.30867
1674 62.676468
1672 67.232208
1670 72.316711
1668 77.712502
1666 82.781601
1664 87.102119
1662 90.551788
1660 93.187599
1658 95.165993
1656 96.602684
1654 97.539497
1652 97.929176
1650 97.678169
1648 96.779953
1646 95.346001
1644 93.630112
1642 91.943504
1640 90.348747
1638 88.656715
1636 86.628418
1634 84.060211
1632 80.920197
1630 77.321907
1628 73.333496
1626 68.959679
1624 64.230644
1622 59.232616
1620 54.145397
1618 49.212959
1616 44.613914
1614 40.444752
1612 36.772404
1610 33.637299
1608 31.018566
1606 28.841843
1604 27.041697
1602 25.574873
1600 24.411085
1598 23.530937
1596 22.910999
1594 22.522898
1592 22.341736
1590 22.348579
1588 22.538872
1586 22.917601
1584 23.47204
1582 24.180161
1580 25.073458
1578 26.248131
1576 27.844913
1574 30.003029
1572 32.692425
1570 35.702648
1568 38.7892
1566 41.734486
1564 44.442802
1562 46.971539
1560 49.53756
1558 52.408127
1556 55.423943
1554 57.99279
1552 59.687042
1550 60.407295
1548 60.344151
1546 59.881893
1544 59.157116
1542 57.994549
1540 56.2183
1538 53.773251
1536 50.879372
1534 47.997887
1532 45.410717
1530 43.124527
1528 41.033794
1526 38.97435
1524 36.803188
1522 34.438168
1520 31.918188
1518 29.408945
1516 27.084343
1514 25.06242
1512 23.27372
1510 21.457628
1508 19.416286
1506 17.109192
1504 14.683149
1502 12.442972
1500 10.566378
1498 9.0277395
1496 7.7183714
1494 6.4920802
1492 5.2621546
1490 4.0301981
1488 2.8418045
1486 1.7721699
1484 0.89232278
1482 0.25431252
1480 -0.12406237
1478 -0.24568491
1476 -0.026458591
1474 0.70499367
1472 1.9872857
1470 3.6548872
1468 5.4469604
1466 7.0685182
1464 8.3889732
1462 9.5018015
1460 10.553057
1458 11.670904
1456 12.8542
1454 13.941027
1452 14.753712
1450 15.157485
1448 15.130245
1446 14.782928
1444 14.22818
1442 13.54106
1440 12.770092
1438 11.938121
1436 11.048129
1434 10.089485
1432 9.096447
1430 8.1650114
1428 7.3763123
1426 6.7684331
1424 6.3430681
1422 6.0670714
1420 5.9151177
1418 5.8832936
1416 5.9702401
1414 6.1700492
1412 6.4669261
1410 6.8330169
1408 7.2413774
1406 7.667304
1404 8.0740995
1402 8.4068575
1400 8.6076517
1398 8.6271038
1396 8.456521
1394 8.1443691
1392 7.755053
1390 7.3523388
1388 6.9690251
1386 6.59306
1384 6.2080445
1382 5.8062234
1380 5.3814101
1378 4.9259739
1376 4.4270544
1374 3.8680086
1372 3.2539959
1370 2.6229606
1368 2.0100441
1366 1.4343007
1364 0.90679657
1362 0.43538761
1360 0.044839472
1358 -0.21747911
1356 -0.32946742
1354 -0.31179041
1352 -0.16696663
1350 0.13983849
1348 0.61401844
1346 1.2025746
1344 1.850292
1342 2.5170667
1340 3.1526041
1338 3.6874778
1336 4.0643773
1334 4.2561455
1332 4.2621164
1330 4.1137919
1328 3.8496823
1326 3.5084836
1324 3.1316063
1322 2.7630997
1320 2.4372983
1318 2.1686771
1316 1.9548799
1314 1.7726277
1312 1.5984949
1310 1.4186466
1308 1.2320104
1306 1.0562658
1304 0.91432059
1302 0.8301307
1300 0.82135499
1298 0.89482588
1296 1.0579286
1294 1.3229218
1292 1.7001537
1290 2.1920178
1288 2.7832439
1286 3.4296684
1284 4.0786214
1282 4.6755834
1280 5.1752815
1278 5.5520911
1276 5.79948
1274 5.9390488
1272 6.0125337
1270 6.0853987
1268 6.2212734
1266 6.4671865
1264 6.8492131
1262 7.3614321
1260 7.9902282
1258 8.7207022
1256 9.5400972
1254 10.438696
1252 11.405337
1250 12.428028
1248 13.498835
1246 14.6175
1244 15.770597
1242 16.911116
1240 17.965269
1238 18.826252
1236 19.400928
1234 19.636135
1232 19.49736
1230 18.967508
1228 18.053459
1226 16.807327
1224 15.322595
1222 13.75177
1220 12.240537
1218 10.893279
1216 9.7833519
1214 8.944912
1212 8.3981552
1210 8.15345
1208 8.1878281
1206 8.4115486
1204 8.7009802
1202 8.8988628
1200 8.8738947
1198 8.5710583
1196 7.9887357
1194 7.2009058
1192 6.2996621
1190 5.3760839
1188 4.5076108
1186 3.7413363
1184 3.1067588
1182 2.6102555
1180 2.2467735
1178 1.9990399
1176 1.84776
1174 1.7761449
1172 1.7706574
1170 1.8233993
1168 1.9218949
1166 2.04091
1164 2.1487317
1162 2.207525
1160 2.1906781
1158 2.1000075
1156 1.9485457
1154 1.7579553
1152 1.5442394
1150 1.3065012
1148 1.0441688
1146 0.76776004
1144 0.49879047
1142 0.27659851
1140 0.12479614
1138 0.021275774
1136 -0.059333172
1134 -0.1239836
1132 -0.17213902
1130 -0.19582823
1128 -0.18473926
1126 -0.12848689
1124 -0.026916124
1122 0.096122988
1120 0.2186612
1118 0.33762363
1116 0.45697141
1114 0.58568639
1112 0.72307765
1110 0.84286094
1108 0.92551029
1106 0.9843365
1104 1.0461508
1102 1.1497899
1100 1.315966
1098 1.5133646
1096 1.7051572
1094 1.8754518
1092 2.035836
1090 2.2545891
1088 2.5957325
1086 3.0738778
1084 3.6643424
1082 4.2708449
1080 4.7798724
1078 5.0821719
1076 5.0997872
1074 4.8381977
1072 4.3504896
1070 3.7612498
1068 3.1973674
1066 2.7427471
1064 2.446336
1062 2.290277
1060 2.2446578
1058 2.2908998
1056 2.4140658
1054 2.6007767
1052 2.8283489
1050 3.0463738
1048 3.2144017
1046 3.3371537
1044 3.4314907
1042 3.5154495
1040 3.5968845
1038 3.6535664
1036 3.6702199
1034 3.6721969
1032 3.6801376
1030 3.6730578
1028 3.6160376
1026 3.4652991
1024 3.1961377
1022 2.8456521
1020 2.4568617
1018 2.0449252
1016 1.6222943
1014 1.2148228
1012 0.85699022
1010 0.59791732
1008 0.46309561
1006 0.39362606
1004 0.30987597
1002 0.13428967
1000 -0.17434534
998 -0.54497093
996 -0.87817574
994 -1.074397
992 -1.0712965
990 -0.92608964
988 -0.72990304
986 -0.58619064
984 -0.57050055
982 -0.65721548
980 -0.7906062
978 -0.89907026
976 -0.92965829
974 -0.90429199
972 -0.86619496
970 -0.86723304
968 -0.94402796
966 -1.07452
964 -1.2190449
962 -1.32702
960 -1.3494623
958 -1.250677
956 -1.0132613
954 -0.67016208
952 -0.28319448
950 0.03173995
948 0.17976266
946 0.1877532
944 0.11073846
942 -0.0036543682
940 -0.11375251
938 -0.19265831
936 -0.219372
934 -0.18079531
932 -0.05635421
930 0.2086353
928 0.65255398
926 1.2220335
924 1.8326321
922 2.3701749
920 2.7308125
918 2.8796477
916 2.8171256
914 2.6155021
912 2.3594816
910 2.113704
908 1.9143232
906 1.7069185
904 1.4439749
902 1.1954098
900 1.0584831
898 1.1229062
896 1.4766999
