##TITLE=Methyl Ethyl Ketone
##JCAMP-DX=4.24
##DATA TYPE=INFRARED SPECTRUM
##XUNITS=cm-1
##YUNITS=Absorbance
##FIRSTX=900
##LASTX=2300
##XYDATA=(X++(Y..Y))
2296 -2.5988e-05
2294 -2.6493279e-05
2292 -2.6999553e-05
2290 -2.7564574e-05
2288 -2.8071103e-05
2286 -2.8695529e-05
2284 -2.9171921e-05
2282 -2.973733e-05
2280 -3.0184892e-05
2278 -3.0836578e-05
2276 -3.1227457e-05
2274 -3.1877709e-05
2272 -3.2298834e-05
2270 -3.2978278e-05
2268 -3.3356537e-05
2266 -3.3976587e-05
2264 -3.4455119e-05
2262 -3.5019231e-05
2260 -3.5555215e-05
2258 -3.6134228e-05
2256 -3.6598802e-05
2254 -3.7168782e-05
2252 -3.7763268e-05
2250 -3.8337141e-05
2248 -3.8812781e-05
2246 -3.9367071e-05
2244 -1.4629456e-06
2242 0.043605592
2240 0.094540596
2238 0.14168119
2236 0.18824242
2234 0.18577681
2232 0.18010195
2230 0.18193629
2228 0.18827187
2226 0.2276445
2224 0.26039577
2222 0.25525951
2220 0.23462279
2218 0.17298795
2216 0.12082514
2214 0.094389476
2212 0.091385461
2210 0.12413043
2208 0.15898629
2206 0.19370542
2204 0.20814177
2202 0.20301107
2200 0.17254142
2198 0.1240718
2196 0.081885286
2194 0.044012196
2192 0.052826621
2190 0.081998326
2188 0.13223413
2186 0.18889043
2184 0.2209156
2182 0.24718368
2180 0.24324685
2178 0.23485233
2176 0.22707172
2174 0.22301418
2172 0.26050517
2170 0.3042928
2168 0.36166584
2166 0.41065544
2164 0.42426774
2162 0.42473167
2160 0.40054661
2158 0.37439567
2156 0.34927499
2154 0.33467522
2152 0.33519399
2150 0.35278687
2148 0.38785386
2146 0.4249475
2144 0.46221593
2142 0.48719391
2140 0.50362396
2138 0.52248186
2136 0.543136
2134 0.57239342
2132 0.60515022
2130 0.61505014
2128 0.6175496
2126 0.58923525
2124 0.55389702
2122 0.53791434
2120 0.52674907
2118 0.5471316
2116 0.57072628
2114 0.58451933
2112 0.59491992
2110 0.59645814
2108 0.60370141
2106 0.63214868
2104 0.66881436
2102 0.71675581
2100 0.75814319
2098 0.78573942
2096 0.80579138
2094 0.81868732
2092 0.8351962
2090 0.85651696
2088 0.87772512
2086 0.89817446
2084 0.91023338
2082 0.91677886
2080 0.90557629
2078 0.88545424
2076 0.84798902
2074 0.80377251
2072 0.7825532
2070 0.76901889
2068 0.78505415
2066 0.80776799
2064 0.80553317
2062 0.79710245
2060 0.77436543
2058 0.75256187
2056 0.75144088
2054 0.75793028
2052 0.77748609
2050 0.80107516
2048 0.82885486
2046 0.8541618
2044 0.87330359
2042 0.88544607
2040 0.88841689
2038 0.89279199
2036 0.90046418
2034 0.91772068
2032 0.94375163
2030 0.97679162
2028 1.0144339
2026 1.0485971
2024 1.0802189
2022 1.0920104
2020 1.0938014
2018 1.0732231
2016 1.04354
2014 1.0302128
2012 1.0224215
2010 1.0448509
2008 1.074352
2006 1.0922135
2004 1.1047971
2002 1.102165
2000 1.0981977
1998 1.1067883
1996 1.1235214
1994 1.1560265
1992 1.18856
1990 1.2108723
1988 1.2199579
1986 1.2083757
1984 1.1903229
1982 1.1702203
1980 1.1525919
1978 1.1389848
1976 1.1296972
1974 1.124027
1972 1.1280495
1970 1.139266
1968 1.1510057
1966 1.1620307
1964 1.1640661
1962 1.1609304
1960 1.16076
1958 1.162062
1956 1.1647472
1954 1.1674649
1952 1.1655354
1950 1.1611615
1948 1.1546649
1946 1.14705
1944 1.1364166
1942 1.126701
1940 1.1185834
1938 1.11139
1936 1.1039543
1934 1.0960685
1932 1.08919
1930 1.0784894
1928 1.062916
1926 1.0336329
1924 0.98919731
1922 0.94949812
1920 0.9181987
1918 0.92336702
1916 0.95780188
1914 1.0075649
1912 1.0642639
1910 1.1030151
1908 1.1298437
1906 1.1344914
1904 1.1277679
1902 1.116949
1900 1.1042771
1898 1.1149858
1896 1.1354856
1894 1.1659936
1892 1.1975986
1890 1.208459
1888 1.2071035
1886 1.1847736
1884 1.1519057
1882 1.1098551
1880 1.063928
1878 1.0180746
1876 0.97015601
1874 0.92135477
1872 0.87411523
1870 0.83147967
1868 0.80649894
1866 0.7981562
1864 0.79589051
1862 0.79171401
1860 0.77926385
1858 0.7611419
1856 0.74044257
1854 0.72025323
1852 0.66429383
1850 0.58573532
1848 0.44940519
1846 0.28298858
1844 0.17086075
1842 0.093466751
1840 0.13424237
1838 0.22762509
1836 0.30600828
1834 0.36519718
1832 0.36985663
1830 0.35288244
1828 0.34289342
1826 0.35020864
1824 0.38882616
1822 0.43421638
1820 0.46711698
1818 0.4769032
1816 0.45892602
1814 0.41539907
1812 0.35136977
1810 0.28533119
1808 0.2242832
1806 0.1835735
1804 0.16228829
1802 0.12340687
1800 0.065231144
1798 -0.026076458
1796 -0.14005607
1794 -0.20473036
1792 -0.2335684
1790 -0.1669582
1788 -0.045209613
1786 0.080658779
1784 0.20023023
1782 0.25087866
1780 0.25243342
1778 0.1888282
1776 0.086534515
1774 -0.032033954
1772 -0.13454179
1770 -0.16951528
1768 -0.15284137
1766 -0.094857417
1764 -0.03567386
1762 -0.0064907698
1760 0.0030944778
1758 -0.066916123
1756 -0.17672157
1754 -0.27524793
1752 -0.35234496
1750 -0.40585619
1748 -0.4363074
1746 -0.45132428
1744 -0.47552869
1742 -0.5161165
1740 -0.57475388
1738 -0.64463663
1736 -0.64542997
1734 -0.58923179
1732 -0.43529376
1730 -0.22133861
1728 -0.085243404
1726 -0.012430315
1724 -0.0033858716
1722 -0.026453149
1720 -0.0043921303
1718 0.089116864
1716 0.37275243
1714 0.80823767
1712 1.3394486
1710 1.9126072
1708 2.473206
1706 3.11484
1704 3.9292624
1702 5.1713262
1700 6.979732
1698 9.6917534
1696 13.346572
1694 17.262331
1692 21.087709
1690 24.508263
1688 27.513794
1686 30.918335
1684 34.828621
1682 39.619328
1680 45.13192
1678 50.067329
1676 54.434887
1674 58.54718
1672 62.55328
1670 67.372437
1668 72.830795
1666 78.454948
1664 84.040497
1662 88.956467
1660 93.130928
1658 96.353195
1656 98.630486
1654 99.988014
1652 100.6076
1650 100.76691
1648 100.43995
1646 99.63929
1644 98.296455
1642 96.434723
1640 93.955803
1638 90.896606
1636 87.068474
1634 82.498039
1632 77.807831
1630 73.224068
1628 68.811081
1626 64.56292
1624 60.105881
1622 55.411861
1620 50.858883
1618 46.480484
1616 42.525799
1614 39.009491
1612 36.001469
1610 33.49205
1608 31.354158
1606 29.56357
1604 27.983839
1602 26.636549
1600 25.525772
1598 24.656878
1596 24.000999
1594 23.560505
1592 23.305445
1590 23.224026
1588 23.281797
1586 23.441586
1584 23.663383
1582 23.912479
1580 24.16754
1578 24.479755
1576 24.868629
1574 25.405441
1572 26.104004
1570 26.936913
1568 27.8936
1566 28.882793
1564 29.896254
1562 31.040245
1560 32.411724
1558 34.751995
1556 38.168388
1554 42.22356
1552 46.650784
1550 50.114529
1548 52.598007
1546 54.537964
1544 55.949844
1542 57.048748
1540 57.785061
1538 58.140736
1536 58.080486
1534 57.630127
1532 56.832611
1530 55.789402
1528 54.497108
1526 52.9641
1524 51.127308
1522 48.940701
1520 46.538658
1518 43.961304
1516 41.550743
1514 39.436272
1512 37.336479
1510 35.205212
1508 32.545067
1506 29.21525
1504 26.030931
1502 23.085566
1500 20.647051
1498 18.748819
1496 16.755714
1494 14.64407
1492 12.429174
1490 10.138744
1488 7.9014144
1486 5.7978191
1484 3.952944
1482 2.4402993
1480 1.3086697
1478 0.55968833
1476 0.14066514
1474 0.21262971
1472 0.85180724
1470 1.72515
1468 2.6993775
1466 3.5573399
1464 4.1554632
1462 4.5767121
1460 4.8206339
1458 5.0184679
1456 5.19312
1454 5.4302711
1452 5.7592926
1450 6.0313387
1448 6.2027326
1446 6.272325
1444 6.1995454
1442 6.0685258
1440 5.8496695
1438 5.5314775
1436 5.0803399
1434 4.507288
1432 3.8371634
1430 3.216655
1428 2.6776779
1426 2.2665272
1424 1.9750413
1422 1.7624841
1420 1.6476631
1418 1.6452224
1416 1.7621
1414 2.015528
1412 2.3223679
1410 2.6348562
1408 2.9301388
1406 3.1906571
1404 3.4526415
1402 3.7280638
1400 4.0143323
1398 4.3146133
1396 4.6274071
1394 4.9573393
1392 5.2715149
1390 5.5416265
1388 5.7134891
1386 5.7235999
1384 5.6187453
1382 5.3516502
1380 5.0032034
1378 4.552743
1376 4.0481944
1374 3.506072
1372 2.9984579
1370 2.5482492
1368 2.1876178
1366 1.874665
1364 1.5298549
1362 1.1515094
1360 0.73019886
1358 0.34252
1356 0.086493403
1354 -0.056380607
1352 -0.040341839
1350 0.045448638
1348 0.18563735
1346 0.33162001
1344 0.4892512
1342 0.6442005
1340 0.79253763
1338 0.95751214
1336 1.1559886
1334 1.3759953
1332 1.6238492
1330 1.863904
1328 2.0883985
1326 2.2986536
1324 2.4945977
1322 2.6921699
1320 2.8989382
1318 3.1221731
1316 3.3640602
1314 3.611743
1312 3.8558292
1310 4.0801158
1308 4.2776875
1306 4.4416986
1304 4.5716114
1302 4.6559978
1300 4.7047024
1298 4.7046504
1296 4.6792145
1294 4.6247439
1292 4.565064
1290 4.5080557
1288 4.4627838
1286 4.4466114
1284 4.4438396
1282 4.4693136
1280 4.4957075
1278 4.5224576
1276 4.5397258
1274 4.5394387
1272 4.5306334
1270 4.5111394
1268 4.4992828
1266 4.502903
1264 4.5349545
1262 4.6044192
1260 4.70293
1258 4.8297505
1256 4.9623032
1254 5.0967059
1252 5.2225666
1250 5.3406935
1248 5.4509029
1246 5.5517502
1244 5.6322203
1242 5.6944427
1240 5.7199349
1238 5.7177935
1236 5.6587729
1234 5.5600319
1232 5.3668799
1230 5.1296964
1228 4.7808433
1226 4.4047422
1224 3.9588821
1222 3.50423
1220 3.0299964
1218 2.5617521
1216 2.1092401
1214 1.6849084
1212 1.3131351
1210 0.98318458
1208 0.71342832
1206 0.47100282
1204 0.26210099
1202 0.073457405
1200 -0.090370171
1198 -0.22338076
1196 -0.32971999
1194 -0.41645753
1192 -0.48815373
1190 -0.54333156
1188 -0.58205843
1186 -0.58283299
1184 -0.56134713
1182 -0.49946186
1180 -0.41332418
1178 -0.26517004
1176 -0.085932001
1174 0.18527988
1172 0.4671022
1170 0.76712924
1168 1.0386789
1166 1.2199671
1164 1.3610568
1162 1.401551
1160 1.4100302
1158 1.3531508
1156 1.2722557
1154 1.1517904
1152 1.0193956
1150 0.87111205
1148 0.71807224
1146 0.56031501
1144 0.40378875
1142 0.2529718
1140 0.12841305
1138 0.029317727
1136 -0.026978344
1134 -0.0517601
1132 0.0045279413
1130 0.10066107
1128 0.24347337
1126 0.3948735
1124 0.52478051
1122 0.64363605
1120 0.72410119
1118 0.792189
1116 0.81249315
1114 0.81727123
1112 0.76083452
1110 0.70503491
1108 0.65308756
1106 0.61982751
1104 0.63224298
1102 0.64961785
1100 0.67548275
1098 0.69406945
1096 0.7032643
1094 0.72430807
1092 0.76385361
1090 0.834261
1088 0.9326148
1086 1.0195671
1084 1.0913405
1082 1.1156349
1080 1.111312
1078 1.101136
1076 1.0864
1074 1.0577534
1072 1.0140862
1070 0.89646089
1068 0.75640678
1066 0.57305205
1064 0.39103681
1062 0.26043242
1060 0.14381412
1058 0.10104348
1056 0.063981198
1054 0.051821839
1052 0.040732034
1050 0.033075638
1048 0.024552194
1046 0.01326672
1044 -0.0048181228
1042 -0.037379671
1040 -0.088342085
1038 -0.16689846
1036 -0.256686
1034 -0.35713366
1032 -0.43873456
1030 -0.50391036
1028 -0.57281858
1026 -0.64669085
1024 -0.74635065
1022 -0.85671157
1020 -0.93774557
1018 -1.0042363
1016 -1.0346829
1014 -1.0564646
1012 -1.0893835
1010 -1.1239301
1008 -1.15616
1006 -1.187085
1004 -1.2059811
1002 -1.2256535
1000 -1.2509784
998 -1.2679938
996 -1.2475001
994 -1.2063991
992 -1.102056
990 -0.99459404
988 -0.88157564
986 -0.79411584
984 -0.75154126
982 -0.72498643
980 -0.71865523
978 -0.69713527
976 -0.66072285
974 -0.63579917
972 -0.62226731
970 -0.6493364
968 -0.69976264
966 -0.72981203
964 -0.74841905
962 -0.72324109
960 -0.68430841
958 -0.6502499
956 -0.61606359
954 -0.55355692
952 -0.48480439
950 -0.3470003
948 -0.20640264
946 -0.067611858
944 0.0012303442
942 0.038739137
940 0.12781975
938 0.28937298
936 0.4676643
934 0.69430178
932 0.89487779
930 1.0385691
928 1.1213777
926 1.1064814
924 1.0534176
922 0.95472354
920 0.87127912
918 0.80227321
916 0.75632399
914 0.7263782
912 0.68344361
910 0.6340124
908 0.59033859
906 0.55014801
904 0.61433631
902 0.70663172
900 0.87482655
898 1.055135
896 1.0796
