Image.
>Pix99999.
  .
5555
5555
2300
900
5555
2
1
0
701
5555
8.8272002e-003
9.0107378e-003
9.1944747e-003
9.3781119e-003
9.5617492e-003
9.7453864e-003
9.9290237e-003
1.0113156e-002
1.0295908e-002
1.0479635e-002
1.0663372e-002
1.0848093e-002
1.1030863e-002
1.1212620e-002
1.1398280e-002
1.1588907e-002
1.1765954e-002
1.1921235e-002
1.2131549e-002
1.2419129e-002
1.2502772e-002
1.2300330e-002
1.2854803e-002
1.4475556e-002
1.3285194e-002
6.4772107e-003
2.3127742e-004
3.0307111e-003
2.2492172e-002
6.2671326e-002
1.1433299e-001
1.6547391e-001
2.0819218e-001
2.3734361e-001
2.5403655e-001
2.6196402e-001
2.6799348e-001
2.7916372e-001
2.9956380e-001
3.3109656e-001
3.7052888e-001
4.1201109e-001
4.4547001e-001
4.6040228e-001
4.4964817e-001
4.1243327e-001
3.6956885e-001
3.4781167e-001
3.7124464e-001
4.5486349e-001
5.8051783e-001
7.1917617e-001
8.3958405e-001
9.1476595e-001
9.3738359e-001
9.0939873e-001
8.4527761e-001
7.6414704e-001
6.8844253e-001
6.3877767e-001
6.2434798e-001
6.4945030e-001
7.1368021e-001
8.1343728e-001
9.3802589e-001
1.0718857e+000
1.1892817e+000
1.2663033e+000
1.3006566e+000
1.3012563e+000
1.2913700e+000
1.2948828e+000
1.3177389e+000
1.3574721e+000
1.4028476e+000
1.4410928e+000
1.4650680e+000
1.4727510e+000
1.4732223e+000
1.4794101e+000
1.5048229e+000
1.5589349e+000
1.6354340e+000
1.7222657e+000
1.8067080e+000
1.8778607e+000
1.9327009e+000
1.9728274e+000
2.0080252e+000
2.0495837e+000
2.1033645e+000
2.1689641e+000
2.2294667e+000
2.2646151e+000
2.2663760e+000
2.2356637e+000
2.1908634e+000
2.1546085e+000
2.1403399e+000
2.1549411e+000
2.1928284e+000
2.2436249e+000
2.2955375e+000
2.3385789e+000
2.3705833e+000
2.3932049e+000
2.4103167e+000
2.4249990e+000
2.4344733e+000
2.4340272e+000
2.4220686e+000
2.3997056e+000
2.3747320e+000
2.3566959e+000
2.3507352e+000
2.3585408e+000
2.3743827e+000
2.3895261e+000
2.3964896e+000
2.3905110e+000
2.3759258e+000
2.3613720e+000
2.3573313e+000
2.3717549e+000
2.3990920e+000
2.4268072e+000
2.4382598e+000
2.4184990e+000
2.3665690e+000
2.2896008e+000
2.2018027e+000
2.1197650e+000
2.0588541e+000
2.0324051e+000
2.0491569e+000
2.1114686e+000
2.2033541e+000
2.3007786e+000
2.3785887e+000
2.4168024e+000
2.4175000e+000
2.3933609e+000
2.3588231e+000
2.3268328e+000
2.3020725e+000
2.2842181e+000
2.2671082e+000
2.2424860e+000
2.2031491e+000
2.1450610e+000
2.0750716e+000
2.0032883e+000
1.9326086e+000
1.8625219e+000
1.7944720e+000
1.7319515e+000
1.6829623e+000
1.6559670e+000
1.6524937e+000
1.6699029e+000
1.7034428e+000
1.7470120e+000
1.7917782e+000
1.8283362e+000
1.8497001e+000
1.8512778e+000
1.8343275e+000
1.8019648e+000
1.7534240e+000
1.6881551e+000
1.6150686e+000
1.5488610e+000
1.5066737e+000
1.4995810e+000
1.5080651e+000
1.4994500e+000
1.4531063e+000
1.3630397e+000
1.2548494e+000
1.1652964e+000
1.1106229e+000
1.0921788e+000
1.0996419e+000
1.1206040e+000
1.1566542e+000
1.2167400e+000
1.3074145e+000
1.4270927e+000
1.5464578e+000
1.6256880e+000
1.6439828e+000
1.5968630e+000
1.5002148e+000
1.3782709e+000
1.2467709e+000
1.1173128e+000
1.0076991e+000
9.3671519e-001
9.1063201e-001
9.2502052e-001
9.6100140e-001
9.9517173e-001
1.0171057e+000
1.0261340e+000
1.0281960e+000
1.0293193e+000
1.0228546e+000
9.9708253e-001
9.5100981e-001
8.9307237e-001
8.4198600e-001
8.1825161e-001
8.2667249e-001
8.5909593e-001
8.9331543e-001
9.0308607e-001
8.7698007e-001
8.1613231e-001
7.3477530e-001
6.5296048e-001
5.8574545e-001
5.4419440e-001
5.3823519e-001
5.7301348e-001
6.3372999e-001
6.9230962e-001
7.1620357e-001
6.7966747e-001
5.9414798e-001
4.9334165e-001
4.0588987e-001
3.5118279e-001
3.3274376e-001
3.4408972e-001
3.7624705e-001
4.1822523e-001
4.5244822e-001
4.5972735e-001
4.3257082e-001
3.7482300e-001
3.0529371e-001
2.4830675e-001
2.1319258e-001
1.9715878e-001
1.9177434e-001
1.8943401e-001
1.9737194e-001
2.3186092e-001
3.0384806e-001
4.1259474e-001
5.2603358e-001
5.9736949e-001
6.0646641e-001
5.6051672e-001
4.9713716e-001
4.6229127e-001
4.5659173e-001
4.5325035e-001
4.5357567e-001
4.7668490e-001
5.1439857e-001
5.3426731e-001
4.9411198e-001
3.6326641e-001
1.8222165e-001
3.5165712e-002
-2.7279459e-002
-3.9480925e-003
2.0032909e-002
-6.8468139e-002
-2.4436115e-001
-3.8470024e-001
-4.1309440e-001
-3.1570411e-001
-1.4304377e-001
1.8547788e-002
1.0489505e-001
8.7856643e-002
4.1938126e-003
-7.4143976e-002
-1.2203920e-001
-1.5865172e-001
-2.1591628e-001
-3.1862772e-001
-4.4113487e-001
-5.2048856e-001
-5.0131643e-001
-3.3689511e-001
3.2732636e-002
6.6153586e-001
1.5196559e+000
2.5074916e+000
3.5118189e+000
4.4441695e+000
5.3350821e+000
6.3195095e+000
7.5822506e+000
9.3168182e+000
1.1640400e+001
1.4549791e+001
1.7786142e+001
2.0933519e+001
2.3758793e+001
2.6261234e+001
2.8691710e+001
3.1448006e+001
3.4786354e+001
3.8733490e+001
4.2911400e+001
4.6727486e+001
5.0048328e+001
5.3186943e+001
5.6509251e+001
6.0288120e+001
6.4482544e+001
6.8805099e+001
7.3032608e+001
7.7042671e+001
8.0732826e+001
8.4018387e+001
8.6908997e+001
8.9496490e+001
9.1876778e+001
9.4085701e+001
9.5919296e+001
9.7014679e+001
9.7243515e+001
9.6716606e+001
9.5518600e+001
9.3658188e+001
9.1112717e+001
8.7880478e+001
8.4148186e+001
8.0240700e+001
7.6311333e+001
7.2323990e+001
6.8216316e+001
6.3955326e+001
5.9603569e+001
5.5307919e+001
5.1204514e+001
4.7401226e+001
4.3991920e+001
4.1045391e+001
3.8546776e+001
3.6405266e+001
3.4539516e+001
3.2898392e+001
3.1457153e+001
3.0208849e+001
2.9134998e+001
2.8202744e+001
2.7386183e+001
2.6672846e+001
2.6076523e+001
2.5635021e+001
2.5377371e+001
2.5320990e+001
2.5493570e+001
2.5929056e+001
2.6634485e+001
2.7576468e+001
2.8655937e+001
2.9726871e+001
3.0698759e+001
3.1557772e+001
3.2338196e+001
3.3139309e+001
3.4229607e+001
3.5971939e+001
3.8365456e+001
4.0992992e+001
4.3394455e+001
4.5224224e+001
4.6491726e+001
4.7536606e+001
4.8569981e+001
4.9568127e+001
5.0395340e+001
5.0867016e+001
5.0896374e+001
5.0527889e+001
4.9881287e+001
4.9114243e+001
4.8294674e+001
4.7375351e+001
4.6270321e+001
4.4886219e+001
4.3188404e+001
4.1225330e+001
3.9138100e+001
3.7116512e+001
3.5167198e+001
3.3081161e+001
3.0671566e+001
2.7875320e+001
2.4874617e+001
2.2067392e+001
1.9663034e+001
1.7580931e+001
1.5657000e+001
1.3719568e+001
1.1690366e+001
9.6092672e+000
7.5416489e+000
5.5582237e+000
3.7612481e+000
2.2771397e+000
1.1607280e+000
3.9017799e-001
3.2069616e-002
2.4218613e-001
9.6512020e-001
1.8786750e+000
2.7525196e+000
3.5517879e+000
4.2996073e+000
5.0235982e+000
5.6650343e+000
6.0650225e+000
6.1185398e+000
5.8387747e+000
5.3641915e+000
4.9357090e+000
4.6574159e+000
4.4318395e+000
4.1746125e+000
3.8775291e+000
3.5482047e+000
3.1909602e+000
2.7961142e+000
2.3430555e+000
1.8450189e+000
1.3624582e+000
9.5244563e-001
6.4925873e-001
4.6221426e-001
3.7401000e-001
3.6679083e-001
4.3136573e-001
5.6698596e-001
7.8060049e-001
1.0720359e+000
1.4277490e+000
1.8271126e+000
2.2447271e+000
2.6605165e+000
3.0624871e+000
3.4333160e+000
3.7459269e+000
3.9739141e+000
4.0989151e+000
4.1256452e+000
4.0885110e+000
4.0179877e+000
3.9280200e+000
3.8248646e+000
3.7084987e+000
3.5792062e+000
3.4391243e+000
3.2859199e+000
3.1111066e+000
2.9114399e+000
2.6924977e+000
2.4565828e+000
2.1977036e+000
1.9053274e+000
1.5690418e+000
1.1999971e+000
8.4168738e-001
5.3494573e-001
3.0169779e-001
1.3886507e-001
1.4589582e-002
-8.5469618e-002
-1.3796857e-001
-1.1402144e-001
4.6072602e-003
1.9826283e-001
3.9350957e-001
5.2586484e-001
5.7049727e-001
5.4344988e-001
5.0950205e-001
5.2257073e-001
5.9903938e-001
7.3793870e-001
9.2351919e-001
1.1365978e+000
1.3581526e+000
1.5708801e+000
1.7610884e+000
1.9203194e+000
2.0473318e+000
2.1421297e+000
2.2045729e+000
2.2376921e+000
2.2500279e+000
2.2549548e+000
2.2708607e+000
2.3110144e+000
2.3768389e+000
2.4624057e+000
2.5543723e+000
2.6422520e+000
2.7240565e+000
2.8025715e+000
2.8849385e+000
2.9765816e+000
3.0782416e+000
3.1898544e+000
3.3120701e+000
3.4472337e+000
3.6001005e+000
3.7769506e+000
3.9858737e+000
4.2377071e+000
4.5472145e+000
4.9245100e+000
5.3688431e+000
5.8721972e+000
6.4174690e+000
6.9898000e+000
7.5819268e+000
8.1870470e+000
8.7959747e+000
9.3984537e+000
9.9828615e+000
1.0536509e+001
1.1044837e+001
1.1490986e+001
1.1853532e+001
1.2116879e+001
1.2279756e+001
1.2341731e+001
1.2298300e+001
1.2146239e+001
1.1882500e+001
1.1513098e+001
1.1064840e+001
1.0565314e+001
1.0033731e+001
9.4849291e+000
8.9262133e+000
8.3615503e+000
7.7919450e+000
7.2152719e+000
6.6246896e+000
6.0171490e+000
5.4001241e+000
4.7868218e+000
4.1967297e+000
3.6468160e+000
3.1454949e+000
2.6961231e+000
2.2964766e+000
1.9472246e+000
1.6581972e+000
1.4407195e+000
1.3032770e+000
1.2423400e+000
1.2298729e+000
1.2325975e+000
1.2194605e+000
1.1711063e+000
1.0924470e+000
9.9447984e-001
8.8832378e-001
7.8103274e-001
6.7074412e-001
5.5560970e-001
4.3855679e-001
3.2314396e-001
2.1184599e-001
1.0742878e-001
1.4660817e-002
-5.5179793e-002
-7.7824697e-002
-3.4308013e-002
7.4157014e-002
2.3717001e-001
4.3440580e-001
6.4700979e-001
8.6643219e-001
1.0969526e+000
1.3669778e+000
1.7025077e+000
2.1087122e+000
2.5749879e+000
3.0642619e+000
3.5375743e+000
3.9678805e+000
4.3395815e+000
4.6583056e+000
4.9351025e+000
5.1822100e+000
5.4127297e+000
5.6420612e+000
5.8881960e+000
6.1747088e+000
6.5183001e+000
6.9150238e+000
7.3497262e+000
7.7924671e+000
8.2151670e+000
8.6046562e+000
8.9514828e+000
9.2470570e+000
9.4844093e+000
9.6604290e+000
9.7775488e+000
9.8502636e+000
9.8950844e+000
9.9254684e+000
9.9533281e+000
9.9882879e+000
1.0032800e+001
1.0069541e+001
1.0075612e+001
1.0020177e+001
9.8829231e+000
9.6653528e+000
9.3780594e+000
9.0349588e+000
8.6482372e+000
8.2237711e+000
7.7671895e+000
7.2889876e+000
6.8021846e+000
6.3237643e+000
5.8684602e+000
5.4417210e+000
5.0457544e+000
4.6802583e+000
4.3465276e+000
4.0523052e+000
3.8015943e+000
3.5823140e+000
3.3764722e+000
3.1605244e+000
2.9151027e+000
2.6376929e+000
2.3313556e+000
2.0045912e+000
1.6689600e+000
1.3408885e+000
1.0393130e+000
7.8520042e-001
5.9050775e-001
4.3769151e-001
2.9974860e-001
1.4350557e-001
-5.4780677e-002
-2.8403115e-001
-5.2535349e-001
-7.6221520e-001
-9.7746933e-001
-1.1497712e+000
-1.2514720e+000
-1.2390089e+000
-1.0800074e+000
-7.9385293e-001
-4.2362398e-001
-4.7692612e-002
2.6137903e-001
4.8076800e-001
6.0853100e-001
6.7174029e-001
6.9747168e-001
6.8814909e-001
6.4008731e-001
5.4980910e-001
4.2021161e-001
2.7624947e-001
1.4722405e-001
5.8061395e-002
1.9863777e-002
-1.3165511e-003
-4.2143628e-002
-1.0878871e-001
-1.9956429e-001
-3.1153816e-001
-4.3489289e-001
-5.3585410e-001
-5.8427161e-001
-5.8540946e-001
-5.5540335e-001
-5.1790559e-001
-4.9554703e-001
-5.0004721e-001
-5.4263055e-001
-6.4285535e-001
-8.1479394e-001
-1.0434790e+000
-1.3008212e+000
-1.5357950e+000
-1.7024463e+000
-1.7976136e+000
-1.8238292e+000
-1.7639600e+000
-1.5962000e+000
