Image.
>Pix99999.
  .
5555
5555
2300
900
5555
2
1
0
701
5555
1.2476000e-001
1.2735629e-001
1.2995256e-001
1.3254885e-001
1.3513520e-001
1.3773143e-001
1.4032771e-001
1.4292400e-001
1.4552028e-001
1.4811657e-001
1.5071285e-001
1.5330914e-001
1.5590543e-001
1.5850171e-001
1.6109799e-001
1.6366492e-001
1.6628011e-001
1.6896467e-001
1.7147547e-001
1.7374839e-001
1.7665629e-001
1.8046480e-001
1.8189727e-001
1.7997670e-001
1.8689212e-001
2.0374499e-001
1.7235464e-001
4.0121514e-002
-1.5625657e-001
-3.6353576e-001
-5.6392312e-001
-7.4822766e-001
-9.0024769e-001
-1.0042933e+000
-1.0556248e+000
-1.0527750e+000
-9.9569005e-001
-8.8804543e-001
-7.4623525e-001
-5.9618282e-001
-4.8673460e-001
-4.6077412e-001
-5.0968897e-001
-6.0626853e-001
-7.1118295e-001
-7.9027170e-001
-8.4454292e-001
-8.8252574e-001
-8.9934468e-001
-8.8668245e-001
-8.3981574e-001
-7.5821531e-001
-6.5375984e-001
-5.4043669e-001
-4.2507157e-001
-3.1444272e-001
-2.2480080e-001
-1.7301638e-001
-1.6601425e-001
-1.9985951e-001
-2.3973601e-001
-2.4585468e-001
-1.9907117e-001
-9.8037265e-002
1.4515920e-002
8.5388429e-002
7.7676564e-002
-2.4603378e-002
-1.7552042e-001
-3.0943632e-001
-3.6494601e-001
-3.0227712e-001
-1.6215304e-001
-1.1057033e-002
9.1962412e-002
1.0927892e-001
7.7619404e-002
5.3729448e-002
7.0414715e-002
1.4114729e-001
2.3765858e-001
3.2273057e-001
3.8229674e-001
4.1193411e-001
4.1092041e-001
3.7993509e-001
3.2111031e-001
2.3969859e-001
1.5198687e-001
7.4837886e-002
1.0950397e-002
-4.2539641e-002
-8.9153051e-002
-1.2953594e-001
-1.5220952e-001
-1.4136665e-001
-8.2236201e-002
3.3328444e-002
1.8837833e-001
3.5404831e-001
4.9179426e-001
5.6497812e-001
5.5880976e-001
4.7348139e-001
3.3538675e-001
1.8001550e-001
3.9324962e-002
-6.2358472e-002
-1.2505206e-001
-1.5898971e-001
-1.7690501e-001
-1.8943506e-001
-1.9603400e-001
-1.9057362e-001
-1.6277908e-001
-1.0500346e-001
-2.7048983e-002
5.1617868e-002
1.0132612e-001
9.2978343e-002
1.6123015e-002
-1.2529060e-001
-3.0047023e-001
-4.6772227e-001
-5.8535105e-001
-6.2180501e-001
-5.8568698e-001
-5.0487936e-001
-4.1616794e-001
-3.5199940e-001
-3.1415388e-001
-2.9129392e-001
-2.7363947e-001
-2.5655472e-001
-2.5118965e-001
-2.7234563e-001
-3.2118970e-001
-3.9241943e-001
-4.8078790e-001
-5.8192807e-001
-6.9378197e-001
-8.1049603e-001
-9.0602648e-001
-9.5083117e-001
-9.3991947e-001
-8.8240677e-001
-7.9709023e-001
-7.0277339e-001
-6.0240978e-001
-4.9140546e-001
-3.6557785e-001
-2.2809136e-001
-1.1058246e-001
-5.3063985e-002
-7.4002296e-002
-1.7054082e-001
-2.9634210e-001
-3.9472073e-001
-4.5091495e-001
-4.7539780e-001
-4.9401829e-001
-5.3104502e-001
-5.7794970e-001
-6.1424625e-001
-6.3916749e-001
-6.6296339e-001
-6.9634646e-001
-7.4441487e-001
-7.9052401e-001
-8.1354475e-001
-8.1994069e-001
-8.2898992e-001
-8.5166365e-001
-8.9072597e-001
-9.3663698e-001
-9.7967750e-001
-1.0348747e+000
-1.1248385e+000
-1.2476648e+000
-1.3845789e+000
-1.5045142e+000
-1.5767770e+000
-1.5963880e+000
-1.5717807e+000
-1.5096469e+000
-1.4146535e+000
-1.2906680e+000
-1.1462111e+000
-1.0106364e+000
-9.1578138e-001
-8.5562938e-001
-8.0435848e-001
-7.4425554e-001
-6.7166013e-001
-6.1684752e-001
-6.1660600e-001
-6.5649039e-001
-6.9263160e-001
-6.8438482e-001
-6.0542011e-001
-4.7262287e-001
-3.2773691e-001
-2.1608852e-001
-1.7827670e-001
-2.3476069e-001
-3.8459283e-001
-5.8325732e-001
-7.6697826e-001
-8.9321208e-001
-9.4133759e-001
-9.2286599e-001
-8.6367571e-001
-7.7603585e-001
-6.6665500e-001
-5.6076920e-001
-4.9228191e-001
-4.8048010e-001
-5.2834702e-001
-6.1070621e-001
-6.9148755e-001
-7.5745767e-001
-8.0879039e-001
-8.3625650e-001
-8.2463771e-001
-7.6477325e-001
-6.5807819e-001
-5.3320503e-001
-4.3036783e-001
-3.6813247e-001
-3.4532809e-001
-3.4087285e-001
-3.2610899e-001
-2.8724933e-001
-2.2759868e-001
-1.7950082e-001
-1.8715870e-001
-2.6997784e-001
-4.2240077e-001
-6.0699338e-001
-7.6843292e-001
-8.5484201e-001
-8.2878077e-001
-6.9821739e-001
-5.0085258e-001
-2.7630731e-001
-5.8171302e-002
1.3741323e-001
3.0570155e-001
4.4203144e-001
5.4286939e-001
6.1576998e-001
6.6693890e-001
6.6169560e-001
5.5412787e-001
3.7794811e-001
2.2080593e-001
1.5136018e-001
2.0629068e-001
3.6914822e-001
5.9547919e-001
8.6993426e-001
1.1900218e+000
1.4988091e+000
1.6978601e+000
1.6886046e+000
1.4110879e+000
9.5823264e-001
5.0828767e-001
1.3280931e-001
-1.7411785e-001
-3.5503000e-001
-3.1161150e-001
-2.5626749e-002
4.3663079e-001
9.2487371e-001
1.2562536e+000
1.3409394e+000
1.1951956e+000
9.7450489e-001
8.8999838e-001
9.7810400e-001
1.1195415e+000
1.1415018e+000
8.9318645e-001
4.1923761e-001
-8.2419425e-002
-4.0551788e-001
-3.7435901e-001
1.1726713e-001
1.0786496e+000
2.3053958e+000
3.4719186e+000
4.4268055e+000
5.2121735e+000
6.0272341e+000
7.1614394e+000
8.8619423e+000
1.1283451e+001
1.4373135e+001
1.7891792e+001
2.1458143e+001
2.4668579e+001
2.7430305e+001
2.9958918e+001
3.2673309e+001
3.6058922e+001
4.0323227e+001
4.5336815e+001
5.0545319e+001
5.5224148e+001
5.9334942e+001
6.3430004e+001
6.7906929e+001
7.2835052e+001
7.7825035e+001
8.2216797e+001
8.5721603e+001
8.8444069e+001
9.0580589e+001
9.2326752e+001
9.3817284e+001
9.5101471e+001
9.6090721e+001
9.6576866e+001
9.6298759e+001
9.5046387e+001
9.2990372e+001
9.0597038e+001
8.8111679e+001
8.5499062e+001
8.2610405e+001
7.9285736e+001
7.5571793e+001
7.1685226e+001
6.7709267e+001
6.3566883e+001
5.9171200e+001
5.4484707e+001
4.9615242e+001
4.4796997e+001
4.0248428e+001
3.6136753e+001
3.2577072e+001
2.9625500e+001
2.7232553e+001
2.5261635e+001
2.3600258e+001
2.2186916e+001
2.1015514e+001
2.0121935e+001
1.9519001e+001
1.9184298e+001
1.9076519e+001
1.9148844e+001
1.9383677e+001
1.9793400e+001
2.0393982e+001
2.1212090e+001
2.2339846e+001
2.3920189e+001
2.6026485e+001
2.8617655e+001
3.1497429e+001
3.4360409e+001
3.7045158e+001
3.9569328e+001
4.1971333e+001
4.4300278e+001
4.6750462e+001
4.9584965e+001
5.2643543e+001
5.5328228e+001
5.7190662e+001
5.8106529e+001
5.8295662e+001
5.8228107e+001
5.8108925e+001
5.7771442e+001
5.6910999e+001
5.5233562e+001
5.2831257e+001
5.0206432e+001
4.7801933e+001
4.5854881e+001
4.4375427e+001
4.3154900e+001
4.1914223e+001
4.0366695e+001
3.8339615e+001
3.5833439e+001
3.3068314e+001
3.0433500e+001
2.8094360e+001
2.5904669e+001
2.3645224e+001
2.1135185e+001
1.8443296e+001
1.5896756e+001
1.3702751e+001
1.1851460e+001
1.0262129e+001
8.8295689e+000
7.4779720e+000
6.1686106e+000
4.8434153e+000
3.4357049e+000
2.0070901e+000
7.7378905e-001
-6.1019897e-002
-3.5988110e-001
-3.8262427e-002
9.0342349e-001
2.2644994e+000
3.6492682e+000
4.8217220e+000
5.8117242e+000
6.7374477e+000
7.7444954e+000
8.9143286e+000
1.0214748e+001
1.1473400e+001
1.2393325e+001
1.2799728e+001
1.2724436e+001
1.2289371e+001
1.1668393e+001
1.0999134e+001
1.0350824e+001
9.7483454e+000
9.1716795e+000
8.5759354e+000
7.9043350e+000
7.1513677e+000
6.3857183e+000
5.6940117e+000
5.1575093e+000
4.8151789e+000
4.6460834e+000
4.6003470e+000
4.6110044e+000
4.6349974e+000
4.6715260e+000
4.7475710e+000
4.9120307e+000
5.1938310e+000
5.5846124e+000
6.0564408e+000
6.5630612e+000
7.0412078e+000
7.4112763e+000
7.6034284e+000
7.5746665e+000
7.3311200e+000
6.9398737e+000
6.4678745e+000
5.9616351e+000
5.4605751e+000
4.9994364e+000
4.6047015e+000
4.2856202e+000
4.0111313e+000
3.6994421e+000
3.2853041e+000
2.7530808e+000
2.1371188e+000
1.5263815e+000
9.8953509e-001
5.4415560e-001
1.9150166e-001
-7.2199970e-002
-2.3676029e-001
-2.7064854e-001
-1.5132993e-001
1.2039107e-001
5.2948552e-001
1.0465479e+000
1.6388121e+000
2.2710273e+000
2.8936701e+000
3.4361343e+000
3.8298972e+000
4.0236831e+000
4.0080605e+000
3.8344080e+000
3.5610497e+000
3.2359092e+000
2.9085908e+000
2.6324396e+000
2.4458144e+000
2.3557613e+000
2.3358200e+000
2.3175354e+000
2.2394943e+000
2.0731254e+000
1.8250291e+000
1.5480485e+000
1.2989491e+000
1.1205970e+000
1.0389123e+000
1.0560230e+000
1.1688572e+000
1.3748541e+000
1.6727580e+000
2.0618153e+000
2.5318239e+000
3.0547428e+000
3.5926447e+000
4.0993524e+000
4.5389514e+000
4.8989754e+000
5.1822457e+000
5.4089332e+000
5.6005344e+000
5.7750888e+000
5.9564309e+000
6.1806598e+000
6.4858789e+000
6.9052415e+000
7.4509320e+000
8.0988426e+000
8.8211346e+000
9.6008024e+000
1.0435805e+001
1.1345547e+001
1.2342257e+001
1.3407000e+001
1.4502197e+001
1.5567132e+001
1.6531612e+001
1.7324680e+001
1.7880787e+001
1.8146345e+001
1.8079359e+001
1.7656761e+001
1.6877083e+001
1.5775801e+001
1.4421149e+001
1.2924030e+001
1.1417289e+001
1.0045530e+001
8.9287882e+000
8.1268377e+000
7.6526871e+000
7.4542336e+000
7.4580474e+000
7.5780864e+000
7.7263598e+000
7.8177223e+000
7.7739124e+000
7.5334959e+000
7.0670285e+000
6.4062161e+000
5.6150742e+000
4.7924037e+000
4.0251384e+000
3.3542671e+000
2.7921298e+000
2.3136775e+000
1.8979425e+000
1.5517374e+000
1.2906400e+000
1.1326588e+000
1.0778309e+000
1.0864671e+000
1.1188217e+000
1.1568129e+000
1.1969926e+000
1.2537540e+000
1.3275291e+000
1.3784492e+000
1.3655614e+000
1.2698164e+000
1.0963296e+000
8.9289081e-001
7.0560038e-001
5.5199391e-001
4.3325967e-001
3.2793292e-001
2.0691122e-001
3.8418904e-002
-1.8825771e-001
-4.3359572e-001
-6.5573877e-001
-8.3580476e-001
-9.6080768e-001
-1.0191592e+000
-1.0030522e+000
-9.1404516e-001
-7.6962841e-001
-6.1816120e-001
-5.0164199e-001
-4.2672536e-001
-3.7914079e-001
-3.1582364e-001
-2.0623040e-001
-6.8373702e-002
6.8674766e-002
1.7968296e-001
2.6276833e-001
3.7201339e-001
5.6548285e-001
8.7491214e-001
1.3053241e+000
1.8094084e+000
2.3291759e+000
2.8122606e+000
3.2158163e+000
3.5184357e+000
3.7080021e+000
3.7832961e+000
3.7507613e+000
3.6301668e+000
3.4476497e+000
3.2379730e+000
3.0346348e+000
2.8609135e+000
2.7344160e+000
2.6629441e+000
2.6446526e+000
2.6579258e+000
2.6752770e+000
2.6664248e+000
2.6141760e+000
2.5390470e+000
2.4702485e+000
2.4349537e+000
2.4520495e+000
2.5200427e+000
2.6398566e+000
2.8328292e+000
3.1107399e+000
3.4418538e+000
3.7629914e+000
3.9539504e+000
3.9204195e+000
3.6875107e+000
3.3288920e+000
2.9730501e+000
2.7126179e+000
2.4915690e+000
2.2222972e+000
1.8343225e+000
1.3031895e+000
7.3123968e-001
2.2960877e-001
-1.6056085e-001
-4.3611789e-001
-6.5720510e-001
-8.7758297e-001
-1.0821737e+000
-1.2375286e+000
-1.3071320e+000
-1.2692102e+000
-1.1535771e+000
-1.0102223e+000
-9.1232169e-001
-9.1590703e-001
-1.0026698e+000
-1.1240320e+000
-1.1940111e+000
-1.1440572e+000
-9.9527049e-001
-7.9658413e-001
-6.1552495e-001
-5.0856674e-001
-4.7922298e-001
-5.1549387e-001
-5.9702563e-001
-6.9976360e-001
-7.9403305e-001
-8.4858739e-001
-8.3208150e-001
-7.2310197e-001
-5.3558278e-001
-3.0335021e-001
-9.8706961e-002
2.6898600e-002
1.2991144e-001
2.8084731e-001
5.0444841e-001
8.1295031e-001
1.2139584e+000
1.6942786e+000
2.1684904e+000
2.5333641e+000
2.6876965e+000
2.5773981e+000
2.3229151e+000
2.0844910e+000
2.0064530e+000
2.1839514e+000
2.5379848e+000
2.9643984e+000
3.4276550e+000
3.9231260e+000
4.4977722e+000
5.1789346e+000
5.8659916e+000
6.4460592e+000
6.8859091e+000
7.1718001e+000
