Image.
>Pix99999.
  .
5555
5555
2300
900
5555
2
1
0
701
5555
-9.6594999e-003
-9.8604122e-003
-1.0061424e-002
-1.0262138e-002
-1.0462851e-002
-1.0664557e-002
-1.0865277e-002
-1.1065991e-002
-1.1266703e-002
-1.1468402e-002
-1.1669129e-002
-1.1869842e-002
-1.2070554e-002
-1.2272249e-002
-1.2472981e-002
-1.2673693e-002
-1.2874406e-002
-1.3076095e-002
-1.3276831e-002
-1.3477544e-002
-1.3678257e-002
-1.3878969e-002
-1.4080651e-002
-1.4281396e-002
-1.4482108e-002
-1.4682821e-002
-5.4562854e-004
1.2653362e-003
-2.4653401e-003
-2.6322717e-002
-5.3113285e-002
-8.3599783e-002
-1.1367442e-001
-1.2854245e-001
-1.3999920e-001
-1.2997650e-001
-1.1567520e-001
-8.6803645e-002
-5.6919314e-002
-2.6323315e-002
-3.7540402e-003
1.1878907e-003
-3.8124262e-003
-2.3340737e-002
-3.7135970e-002
-4.2666800e-002
-3.2752033e-002
-8.4598195e-003
2.0515734e-002
5.2286789e-002
7.3559932e-002
8.8678032e-002
9.1758877e-002
8.9743309e-002
8.3236970e-002
7.5378954e-002
6.5216362e-002
5.4542672e-002
5.1181793e-002
4.9159452e-002
6.7169085e-002
8.7080844e-002
1.0771383e-001
1.2489259e-001
1.2192165e-001
1.1466642e-001
9.8993108e-002
8.0456935e-002
5.6740433e-002
2.6898345e-002
-1.3574000e-002
-4.8362110e-002
-7.3325306e-002
-8.2599327e-002
-7.5348794e-002
-6.7856036e-002
-6.1674289e-002
-5.8602430e-002
-5.7594031e-002
-4.8837613e-002
-3.5750400e-002
-2.7548864e-002
-2.1601571e-002
-3.6498439e-002
-5.7983801e-002
-8.2103804e-002
-1.0670936e-001
-1.0984509e-001
-1.0983377e-001
-1.1503223e-001
-1.2561099e-001
-1.7085579e-001
-2.2118469e-001
-2.7184352e-001
-3.1219703e-001
-3.2127336e-001
-3.2441682e-001
-3.2464772e-001
-3.3357260e-001
-3.5781649e-001
-3.7717000e-001
-3.8715482e-001
-3.8514516e-001
-3.7214682e-001
-3.7283525e-001
-3.8616499e-001
-4.0594450e-001
-4.2882538e-001
-4.2743412e-001
-4.1304678e-001
-3.9677930e-001
-3.8036010e-001
-3.8451201e-001
-3.9528424e-001
-4.0734825e-001
-4.1939363e-001
-4.2422324e-001
-4.2672223e-001
-4.2033386e-001
-4.1238642e-001
-4.0547201e-001
-4.0278152e-001
-4.1439158e-001
-4.3002439e-001
-4.4856128e-001
-4.6921644e-001
-4.9278939e-001
-5.2246660e-001
-5.6070036e-001
-5.9964156e-001
-6.3767588e-001
-6.7485261e-001
-7.1133411e-001
-7.4893951e-001
-7.8740937e-001
-8.1016189e-001
-8.2269287e-001
-8.0469871e-001
-7.7157152e-001
-7.3868167e-001
-7.0680201e-001
-7.1754539e-001
-7.4275309e-001
-7.8413177e-001
-8.2817972e-001
-8.4890842e-001
-8.6305791e-001
-8.7247378e-001
-8.8221979e-001
-8.9801902e-001
-9.1295356e-001
-9.2031002e-001
-9.2728311e-001
-9.3818116e-001
-9.5793217e-001
-9.9222332e-001
-1.0280331e+000
-1.0611883e+000
-1.0826694e+000
-1.0915145e+000
-1.0835657e+000
-1.0625510e+000
-1.0226680e+000
-9.7016853e-001
-9.2543441e-001
-8.8712156e-001
-8.9504182e-001
-9.2701948e-001
-9.8799443e-001
-1.0604309e+000
-1.1293072e+000
-1.1961061e+000
-1.2418171e+000
-1.2776747e+000
-1.2816411e+000
-1.2745500e+000
-1.2629685e+000
-1.2563379e+000
-1.2747377e+000
-1.3017935e+000
-1.3320515e+000
-1.3521852e+000
-1.3492219e+000
-1.3303037e+000
-1.2956040e+000
-1.2469692e+000
-1.1853245e+000
-1.1128159e+000
-1.0325035e+000
-9.7413361e-001
-9.3799585e-001
-9.3228585e-001
-9.4596195e-001
-9.7679257e-001
-1.0160508e+000
-1.0845814e+000
-1.1685480e+000
-1.2397383e+000
-1.3043840e+000
-1.2893193e+000
-1.2404572e+000
-1.1561261e+000
-1.0655788e+000
-1.0268099e+000
-1.0204498e+000
-1.0691757e+000
-1.1401702e+000
-1.2164456e+000
-1.2840205e+000
-1.3263681e+000
-1.3332500e+000
-1.2894967e+000
-1.1972331e+000
-1.0562903e+000
-9.3623739e-001
-8.6269623e-001
-8.8168776e-001
-9.8561597e-001
-1.1055694e+000
-1.2195410e+000
-1.2813371e+000
-1.3031484e+000
-1.2720914e+000
-1.2100805e+000
-1.1265121e+000
-1.0322608e+000
-1.0033283e+000
-1.0097408e+000
-1.0774685e+000
-1.1695244e+000
-1.2201500e+000
-1.2394110e+000
-1.1903143e+000
-1.1048245e+000
-9.9954182e-001
-9.0869242e-001
-8.8279229e-001
-9.0945852e-001
-9.9075139e-001
-1.0762782e+000
-1.1308886e+000
-1.1392740e+000
-1.0965121e+000
-1.0349617e+000
-9.7179097e-001
-9.1478550e-001
-8.6495751e-001
-8.0449903e-001
-7.3192340e-001
-6.4305377e-001
-5.4305714e-001
-4.5394647e-001
-3.7479281e-001
-3.4753799e-001
-3.5337844e-001
-3.6762679e-001
-3.8281119e-001
-3.5534483e-001
-2.9677841e-001
-1.8609039e-001
-4.1381091e-002
1.3031927e-001
2.8912842e-001
3.6061198e-001
3.5718393e-001
2.7227721e-001
1.6866700e-001
1.0399321e-001
3.2813154e-002
-7.5209498e-002
-1.4446700e-001
-1.3859278e-001
-1.8770140e-002
2.0913266e-001
4.4056925e-001
6.3952214e-001
6.8202215e-001
5.8203053e-001
4.5097974e-001
3.1921324e-001
3.1016999e-001
3.9662308e-001
4.3983534e-001
4.3953910e-001
2.8542507e-001
3.9198060e-002
-1.2036666e-001
-1.7526099e-001
3.3847257e-002
4.7450852e-001
1.1733118e+000
1.9763371e+000
2.6531765e+000
3.2497613e+000
3.8207519e+000
4.5679669e+000
5.6770725e+000
7.3919086e+000
9.8242044e+000
1.3039838e+001
1.6948000e+001
2.0807650e+001
2.4300182e+001
2.7452219e+001
3.0350760e+001
3.3890106e+001
3.8138691e+001
4.3216282e+001
4.8935242e+001
5.3896442e+001
5.8146801e+001
6.2101929e+001
6.5903229e+001
7.0262421e+001
7.5031212e+001
7.9729149e+001
8.4259201e+001
8.8285690e+001
9.1805153e+001
9.4772385e+001
9.7213142e+001
9.9179344e+001
1.0055848e+002
1.0124773e+002
1.0084675e+002
9.9082680e+001
9.6474747e+001
9.3526405e+001
9.0312874e+001
8.6918671e+001
8.2909729e+001
7.8179863e+001
7.3344276e+001
6.8626900e+001
6.4268158e+001
6.0275051e+001
5.6227360e+001
5.2066444e+001
4.8007599e+001
4.4067211e+001
4.0371227e+001
3.6937340e+001
3.3867878e+001
3.1182859e+001
2.8906218e+001
2.7029621e+001
2.5450701e+001
2.4177917e+001
2.3176149e+001
2.2445084e+001
2.1941500e+001
2.1644325e+001
2.1495199e+001
2.1465452e+001
2.1510544e+001
2.1643658e+001
2.1867264e+001
2.2213150e+001
2.2689545e+001
2.3337433e+001
2.4163515e+001
2.5125374e+001
2.6202143e+001
2.7314051e+001
2.8440920e+001
2.9585056e+001
3.0751688e+001
3.2123287e+001
3.3795166e+001
3.6363762e+001
3.9879829e+001
4.3694180e+001
4.7598183e+001
5.0671661e+001
5.2971146e+001
5.5044071e+001
5.6917435e+001
5.8720192e+001
6.0150921e+001
6.0778614e+001
6.0477798e+001
5.9243145e+001
5.7476830e+001
5.5661194e+001
5.3881252e+001
5.2202999e+001
5.0493572e+001
4.8668865e+001
4.6565384e+001
4.4088074e+001
4.1585300e+001
3.9167274e+001
3.6905239e+001
3.4842369e+001
3.2342102e+001
2.9249800e+001
2.6058081e+001
2.2813276e+001
2.0064701e+001
1.7874891e+001
1.5751572e+001
1.3687824e+001
1.1594209e+001
9.4729681e+000
7.3464112e+000
5.2836537e+000
3.4129982e+000
1.8593760e+000
7.5973475e-001
1.4594558e-001
4.0237956e-002
4.8353216e-001
1.3818111e+000
2.3998799e+000
3.3213167e+000
4.0754948e+000
4.5966635e+000
5.0834079e+000
5.6192045e+000
6.1946440e+000
6.8176599e+000
7.2662101e+000
7.4288268e+000
7.4157653e+000
7.1599493e+000
6.8783107e+000
6.5666747e+000
6.2790971e+000
6.0200944e+000
5.7567654e+000
5.4573817e+000
5.0299349e+000
4.4667058e+000
3.8497078e+000
3.2389920e+000
2.7778041e+000
2.4876075e+000
2.3671129e+000
2.3837852e+000
2.4804442e+000
2.6146228e+000
2.7416139e+000
2.8762076e+000
3.0369470e+000
3.2420578e+000
3.5205293e+000
3.8505876e+000
4.2451315e+000
4.6730042e+000
5.1436009e+000
5.5972071e+000
6.0071278e+000
6.3172507e+000
6.4498792e+000
6.4649959e+000
6.2937751e+000
6.0188546e+000
5.6041789e+000
5.1470675e+000
4.6514101e+000
4.1837745e+000
3.7563922e+000
3.3691301e+000
3.0201306e+000
2.6883759e+000
2.3532672e+000
1.9788885e+000
1.5657463e+000
1.1090634e+000
6.7117345e-001
3.2948229e-001
9.1747507e-002
1.8757280e-002
2.9473681e-002
1.2536010e-001
2.5387144e-001
4.3091440e-001
6.3567007e-001
8.8933682e-001
1.1327519e+000
1.3467228e+000
1.5096816e+000
1.5800132e+000
1.6472369e+000
1.7197526e+000
1.8468821e+000
2.0614338e+000
2.3408258e+000
2.7002897e+000
3.0844033e+000
3.4812701e+000
3.8387849e+000
4.1439710e+000
4.3834939e+000
4.5547724e+000
4.6534543e+000
4.6915784e+000
4.6670971e+000
4.6128049e+000
4.5483465e+000
4.4912143e+000
4.4621038e+000
4.4476404e+000
4.4546704e+000
4.4622240e+000
4.4628558e+000
4.4540482e+000
4.4217391e+000
4.3884630e+000
4.3547597e+000
4.3365860e+000
4.3504319e+000
4.3828244e+000
4.4460788e+000
4.5165772e+000
4.5975909e+000
4.6849089e+000
4.7827482e+000
4.8972001e+000
5.0312290e+000
5.1816912e+000
5.3450394e+000
5.5094080e+000
5.6690869e+000
5.8101888e+000
5.9350500e+000
6.0348454e+000
6.1164942e+000
6.1683378e+000
6.1921148e+000
6.1507316e+000
6.0634871e+000
5.8663602e+000
5.6237559e+000
5.2698522e+000
4.8924341e+000
4.4559546e+000
4.0116172e+000
3.5493031e+000
3.0895350e+000
2.6388457e+000
2.2144363e+000
1.8394934e+000
1.5075523e+000
1.2384772e+000
1.0031959e+000
8.0763996e-001
6.2780219e-001
4.6285236e-001
3.0227694e-001
1.4710030e-001
1.5588254e-003
-1.3089086e-001
-2.3117670e-001
-3.0375588e-001
-3.2014814e-001
-3.0179080e-001
-2.1626005e-001
-9.5194422e-002
1.0882606e-001
3.4388599e-001
6.5884292e-001
9.7711158e-001
1.2882427e+000
1.5670211e+000
1.7442800e+000
1.8801638e+000
1.9134010e+000
1.9187165e+000
1.8660251e+000
1.7859014e+000
1.6571385e+000
1.4935474e+000
1.2834044e+000
1.0596275e+000
8.2341105e-001
5.9624618e-001
3.8207299e-001
1.9824316e-001
4.9242467e-002
-2.0124743e-002
-3.0487519e-002
6.2569626e-002
2.0560123e-001
4.0340209e-001
6.1266959e-001
8.0375314e-001
9.7809565e-001
1.0809081e+000
1.1674610e+000
1.2030314e+000
1.2394269e+000
1.2834445e+000
1.3384196e+000
1.4281646e+000
1.5254101e+000
1.6374360e+000
1.7220969e+000
1.7487342e+000
1.7288566e+000
1.6386714e+000
1.5491412e+000
1.4675801e+000
1.4376022e+000
1.4634788e+000
1.5349993e+000
1.6392289e+000
1.7312796e+000
1.8065954e+000
1.8150051e+000
1.7856158e+000
1.6999516e+000
1.5951337e+000
1.4848049e+000
1.3762237e+000
1.2898486e+000
1.2107841e+000
1.1643947e+000
1.1257235e+000
1.1261430e+000
1.1303657e+000
1.1507201e+000
1.1669900e+000
1.1694510e+000
1.1600959e+000
1.1208714e+000
1.0658989e+000
9.8145205e-001
8.9323097e-001
8.0148315e-001
7.2923297e-001
6.7998767e-001
6.4137244e-001
6.0929829e-001
5.4771459e-001
4.6456778e-001
3.6665776e-001
2.6448929e-001
1.9871137e-001
1.4849076e-001
1.1570825e-001
8.4487401e-002
1.8852986e-002
-5.5859245e-002
-1.6766320e-001
-2.8193465e-001
-3.8883966e-001
-4.8795587e-001
-5.3402162e-001
-5.6931812e-001
-5.5727434e-001
-5.4133981e-001
-5.1361489e-001
-4.8744124e-001
-4.6533194e-001
-4.5092028e-001
-4.5062238e-001
-4.6565211e-001
-5.0108939e-001
-5.3866524e-001
-5.7751602e-001
-5.9973311e-001
-6.0828549e-001
-6.0846835e-001
-6.0400110e-001
-6.0850751e-001
-6.1656785e-001
-6.1514115e-001
-6.0866219e-001
-5.5891579e-001
-4.9934870e-001
-4.2585167e-001
-3.5076642e-001
-2.7745906e-001
-2.0006317e-001
-6.5761387e-002
1.8620901e-003
5.7687692e-002
1.5941012e-001
2.3353061e-001
3.1070599e-001
3.9662939e-001
4.7256809e-001
5.2588111e-001
5.2215338e-001
4.2716557e-001
3.1659800e-001
1.8847647e-001
1.2972462e-001
1.3568351e-001
1.6987285e-001
2.2354971e-001
2.5054950e-001
2.6403069e-001
3.1916174e-001
3.9066851e-001
4.9535978e-001
6.0877252e-001
6.9089067e-001
7.6799721e-001
8.2893997e-001
