##TITLE=Methyl Ethyl Ketone
##JCAMP-DX=4.24
##DATA TYPE=INFRARED SPECTRUM
##XUNITS=cm-1
##YUNITS=Absorbance
##FIRSTX=900
##LASTX=2300
##XYDATA=(X++(Y..Y))
2296 0.20702
2294 0.21132384
2292 0.21562769
2290 0.2199415
2288 0.22424537
2286 0.22854921
2284 0.23285306
2282 0.23716681
2280 0.24147074
2278 0.24577458
2276 0.25008827
2274 0.25439227
2272 0.25869611
2270 0.26299995
2268 0.2673136
2266 0.27161765
2264 0.27592146
2262 0.28023508
2260 0.28453916
2258 0.28884304
2256 0.29314685
2254 0.29746038
2252 0.30176455
2250 0.30606839
2248 0.31038189
2246 0.31468606
2244 0.099280357
2242 0.00350865
2240 -0.083672643
2238 -0.010985546
2236 0.085294373
2234 0.20541672
2232 0.32351023
2230 0.35868677
2228 0.38130075
2226 0.33550701
2224 0.28173178
2222 0.20748807
2220 0.13208912
2218 0.056583114
2216 -0.0082877716
2214 -0.049890392
2212 -0.067830496
2210 -0.049398448
2208 0.0032004081
2206 0.095607914
2204 0.1863289
2202 0.27296281
2200 0.2811079
2198 0.230781
2196 0.14199714
2194 0.033278659
2192 -0.015774028
2190 -0.038059149
2188 -0.0168435
2186 0.017934728
2184 0.036930002
2182 0.05209728
2180 0.038196065
2178 0.019807786
2176 -0.012758772
2174 -0.046275839
2172 -0.075808071
2170 -0.093264304
2168 -0.043588787
2166 0.035761379
2164 0.19954109
2162 0.35649782
2160 0.47442406
2158 0.52457792
2156 0.45370001
2154 0.31974769
2152 0.11254074
2150 -0.10349423
2148 -0.32086334
2146 -0.4908275
2144 -0.61875647
2142 -0.67386872
2140 -0.68136585
2138 -0.64495891
2136 -0.58728886
2134 -0.55261266
2132 -0.52854949
2130 -0.55417794
2128 -0.59536362
2126 -0.65577489
2124 -0.72035533
2122 -0.78315848
2120 -0.84372061
2118 -0.8681649
2116 -0.88419688
2114 -0.87609929
2112 -0.87799478
2110 -0.93982565
2108 -1.0175076
2106 -1.11643
2104 -1.189492
2102 -1.1987277
2100 -1.188208
2098 -1.1603136
2096 -1.1268572
2094 -1.0895684
2092 -1.0287423
2090 -0.94402683
2088 -0.88032037
2086 -0.83688354
2084 -0.83432704
2082 -0.85694337
2080 -0.90824461
2078 -0.9728477
2076 -1.0634353
2074 -1.1641415
2072 -1.2006279
2070 -1.2160723
2068 -1.1437943
2066 -1.0509936
2064 -0.98863804
2062 -0.93866658
2060 -0.95551103
2058 -0.99421155
2056 -1.0804771
2054 -1.1749823
2052 -1.2649537
2050 -1.3147904
2048 -1.2630188
2046 -1.1650357
2044 -1.0156854
2042 -0.89867073
2040 -0.84611195
2038 -0.83198404
2036 -0.84993774
2034 -0.85976112
2032 -0.8558718
2030 -0.8621887
2028 -0.87810808
2026 -0.89702171
2024 -0.91661257
2022 -0.87646967
2020 -0.8050499
2018 -0.71060622
2016 -0.60842001
2014 -0.60322839
2012 -0.63136113
2010 -0.73603946
2008 -0.85878092
2006 -0.95095301
2004 -1.0289526
2002 -1.061095
2000 -1.0788846
1998 -1.083051
1996 -1.08925
1994 -1.1109778
1992 -1.1410034
1990 -1.1824954
1988 -1.214196
1986 -1.22585
1984 -1.2218822
1982 -1.2026913
1980 -1.1969031
1978 -1.2093748
1976 -1.2018372
1974 -1.171473
1972 -1.0055124
1970 -0.73892772
1968 -0.45029864
1966 -0.15948644
1964 -0.13763733
1962 -0.25843692
1960 -0.52245599
1958 -0.84131712
1956 -1.0296153
1954 -1.1666192
1952 -1.2143594
1950 -1.2348595
1948 -1.2560805
1946 -1.2827001
1944 -1.3383822
1942 -1.4067011
1940 -1.4935769
1938 -1.5756265
1936 -1.6318028
1934 -1.6708431
1932 -1.688832
1930 -1.6980301
1928 -1.700716
1926 -1.6360836
1924 -1.4847406
1922 -1.1904745
1920 -0.76759261
1918 -0.36558878
1916 -0.012709342
1914 0.15530276
1912 0.19105195
1910 0.081734076
1908 -0.10413131
1906 -0.41828701
1904 -0.79653597
1902 -1.1186906
1900 -1.4117622
1898 -1.4630233
1896 -1.4125286
1894 -1.2668471
1892 -1.0958471
1890 -1.0066271
1888 -0.98351789
1886 -1.1128616
1884 -1.3299553
1882 -1.6426505
1880 -1.9686571
1878 -2.2436881
1876 -2.40523
1874 -2.3862431
1872 -2.1870685
1870 -1.8042986
1868 -1.4362952
1866 -1.1622336
1864 -1.1361829
1862 -1.3471841
1860 -1.6211506
1858 -1.8949771
1856 -2.0564029
1854 -2.1290779
1852 -2.0753098
1850 -1.9464593
1848 -1.7064719
1846 -1.4060071
1844 -1.2254688
1842 -1.1162933
1840 -1.2569703
1838 -1.5135188
1836 -1.7473643
1834 -1.93537
1832 -1.9276839
1830 -1.7880898
1828 -1.4924461
1826 -1.1825421
1824 -1.0238712
1822 -1.0430624
1820 -1.307132
1818 -1.6531192
1816 -1.9712029
1814 -2.1688933
1812 -2.2056537
1810 -2.1220059
1808 -1.9581361
1806 -1.735395
1804 -1.4767883
1802 -1.1991644
1800 -0.91100013
1798 -0.67006254
1796 -0.46836498
1794 -0.30384591
1792 -0.16319801
1790 -0.083592996
1788 -0.044109754
1786 -0.10437271
1784 -0.21902233
1782 -0.29953834
1780 -0.33200547
1778 -0.16612539
1776 0.14118433
1774 0.60204917
1772 1.0595535
1770 1.2505941
1768 1.2026434
1766 0.88123846
1764 0.50723761
1762 0.28281352
1760 0.084856458
1758 -0.17183354
1756 -0.38080573
1754 -0.48946148
1752 -0.2911607
1750 0.24211152
1748 0.9309324
1746 1.6744179
1744 2.0053508
1742 1.9256426
1740 1.6690177
1738 1.3358666
1736 1.3522201
1734 1.6491364
1732 1.8248426
1730 1.8729544
1728 1.3817966
1726 0.55855924
1724 -0.044363767
1722 -0.3631539
1720 0.13524914
1718 1.3378997
1716 3.1266601
1714 4.9689569
1712 6.0638866
1710 6.6257572
1708 6.8922539
1706 7.3605814
1704 8.4981098
1702 10.537838
1700 13.549889
1698 17.200054
1696 21.182428
1694 24.681351
1692 27.431211
1690 29.892351
1688 32.290489
1686 35.565956
1684 39.744118
1682 44.533867
1680 49.728439
1678 54.056675
1676 57.610359
1674 61.250374
1672 65.042236
1670 69.401291
1668 74.145638
1666 78.614349
1664 82.827637
1662 86.797806
1660 90.549057
1658 94.122131
1656 97.487915
1654 100.60391
1652 103.2174
1650 105.04477
1648 105.40457
1646 103.76786
1644 100.85227
1642 97.374901
1640 93.74765
1638 90.247261
1636 86.366585
1634 81.929092
1632 77.258484
1630 72.496147
1628 68.02832
1626 63.908783
1624 59.762959
1622 55.537331
1620 51.342548
1618 47.188755
1616 43.135258
1614 39.210987
1612 35.624706
1610 32.420349
1608 29.730896
1606 27.536423
1604 25.682812
1602 24.166368
1600 22.91844
1598 21.93321
1596 21.1595
1594 20.577242
1592 20.130571
1590 19.821541
1588 19.634249
1586 19.611372
1584 19.770502
1582 20.15556
1580 20.775
1578 21.716597
1576 22.998371
1574 24.533613
1572 26.278383
1570 27.896702
1568 29.31172
1566 30.509222
1564 31.495554
1562 32.774426
1560 34.470291
1558 37.171192
1556 40.843117
1554 44.246441
1552 47.177925
1550 49.134472
1548 50.27523
1546 51.486034
1544 52.791004
1542 54.206142
1540 55.302418
1538 55.399792
1536 54.480946
1534 52.700363
1532 50.585781
1530 48.742447
1528 47.193573
1526 45.94405
1524 44.771152
1522 43.531944
1520 41.967857
1518 39.92823
1516 37.750286
1514 35.53241
1512 33.403999
1510 31.416945
1508 28.968468
1506 25.903872
1504 22.719526
1502 19.464006
1500 16.799671
1498 14.81808
1496 13.013143
1494 11.403988
1492 9.8559828
1490 8.3557167
1488 6.8232741
1486 5.2433743
1484 3.603714
1482 2.0580053
1480 0.86534935
1478 0.14359675
1476 0.030080944
1474 0.51963544
1472 1.471432
1470 2.4696479
1468 3.2150574
1466 3.7711849
1464 4.1606526
1462 4.6824365
1460 5.5067372
1458 6.4613905
1456 7.5296402
1454 8.1914492
1452 8.1882963
1450 7.8844838
1448 7.1803651
1446 6.4952393
1444 5.8477125
1442 5.2742538
1440 4.8172054
1438 4.4831362
1436 4.2905216
1434 4.1216559
1432 3.9477396
1430 3.6765351
1428 3.3399198
1426 3.0575256
1424 2.8970275
1422 2.9570279
1420 3.2011931
1418 3.5592222
1416 3.9085715
1414 4.1080842
1412 4.2222967
1410 4.2967057
1408 4.4212232
1406 4.674377
1404 5.0073586
1402 5.4310732
1400 5.8804917
1398 6.3495345
1396 6.7478786
1394 7.0041232
1392 7.1146822
1390 6.9725256
1388 6.7374821
1386 6.3588099
1384 5.9263887
1382 5.4300666
1380 4.9486036
1378 4.5005803
1376 4.1103086
1374 3.7835526
1372 3.4701719
1370 3.1756155
1368 2.9063611
1366 2.6576021
1364 2.4268246
1362 2.1689935
1360 1.8096428
1358 1.384212
1356 0.91139418
1354 0.48121464
1352 0.19970404
1350 0.028793793
1348 0.0043991571
1346 0.038598962
1344 0.1951312
1342 0.41674036
1340 0.75086397
1338 1.0431504
1336 1.2305114
1334 1.2983088
1332 1.1472645
1330 0.98867911
1328 0.83489299
1326 0.77333879
1324 0.85812134
1322 1.0397322
1320 1.3448486
1318 1.6954547
1316 2.08254
1314 2.4407048
1312 2.7470973
1310 2.9673438
1308 3.0950203
1306 3.1233029
1304 3.078476
1302 2.9776559
1300 2.858186
1298 2.750453
1296 2.6591001
1294 2.5992603
1292 2.5635123
1290 2.5718496
1288 2.6027761
1286 2.6755159
1284 2.7356598
1282 2.7547526
1280 2.764236
1278 2.7582195
1276 2.8040957
1274 2.956722
1272 3.170948
1270 3.4823549
1268 3.791296
1266 4.0868893
1264 4.3395491
1262 4.5413966
1260 4.7349863
1258 4.9280863
1256 5.1494374
1254 5.3983755
1252 5.6696982
1250 5.9642725
1248 6.2925692
1246 6.647675
1244 7.0361257
1242 7.4212646
1240 7.7519703
1238 8.0333939
1236 8.2024641
1234 8.3241711
1232 8.3597803
1230 8.348999
1228 8.2148561
1226 8.0251226
1224 7.6851001
1222 7.31285
1220 6.8646092
1218 6.4070511
1216 5.9293056
1214 5.4381986
1212 4.9249701
1210 4.4058442
1208 3.8873668
1206 3.4113421
1204 2.99089
1202 2.6176782
1200 2.2839417
1198 1.9394392
1196 1.5807643
1194 1.1936313
1192 0.80150861
1190 0.4565351
1188 0.16388728
1186 0.002006419
1184 -0.096788257
1182 -0.11193661
1180 -0.10383168
1178 -0.077383898
1176 -0.0317076
1174 0.082286268
1172 0.21597373
1170 0.40860432
1168 0.58448517
1166 0.70675081
1164 0.80334061
1162 0.83779681
1160 0.86728591
1158 0.88459504
1156 0.88313228
1154 0.8470431
1152 0.77733785
1150 0.66234982
1148 0.53101158
1146 0.38368642
1144 0.24102524
1142 0.1117154
1140 0.034977257
1138 0.016870163
1136 0.12781782
1134 0.3317444
1132 0.68301916
1130 1.0928173
1128 1.514112
1126 1.9183621
1124 2.2172139
1122 2.4955273
1120 2.7633679
1118 3.0480938
1116 3.4273086
1114 3.8050137
1112 4.1661959
1110 4.4797673
1108 4.6418934
1106 4.7752247
1104 4.8432841
1102 4.9510446
1100 5.1366224
1098 5.3382955
1096 5.5584712
1094 5.7330151
1092 5.8559861
1090 6.0046697
1088 6.1875434
1086 6.4376311
1084 6.7322206
1082 6.9802747
1080 7.1904655
1078 7.325747
1076 7.4271803
1074 7.5262985
1072 7.6214657
1070 7.6951761
1068 7.7508206
1066 7.7102642
1064 7.64606
1062 7.4987597
1060 7.3496089
1058 7.2165523
1056 7.1105027
1054 7.1248212
1052 7.1773219
1050 7.3501987
1048 7.5199862
1046 7.680243
1044 7.8148394
1042 7.8987255
1040 7.9478073
1038 7.9385915
1036 7.8452997
1034 7.6485095
1032 7.3603544
1030 6.9835067
1028 6.5216246
1026 6.0059628
1024 5.5324469
1022 5.1056061
1020 4.9389658
1018 4.8827801
1016 4.9415884
1014 5.006094
1012 4.7944565
1010 4.5099688
1008 3.929852
1006 3.324347
1004 2.7107751
1002 2.1228089
1000 1.7116611
998 1.3547425
996 1.2363499
994 1.145566
992 1.1368994
990 1.0880408
988 0.94741738
986 0.80770344
984 0.67343056
982 0.59804046
980 0.60233122
978 0.62659222
976 0.67075253
974 0.70547819
972 0.73191625
970 0.74444622
968 0.74671131
966 0.71108252
964 0.65789104
962 0.59442049
960 0.53127593
958 0.54769647
956 0.58124769
954 0.62059963
952 0.65324318
950 0.50919163
948 0.35518196
946 0.16159663
944 0.00082639063
942 0.0027681813
940 0.094620764
938 0.4247399
936 0.77534169
934 1.18538
932 1.5694703
930 1.8966317
928 2.1501131
926 2.2846851
924 2.352226
922 2.3391008
920 2.3557594
918 2.4008119
916 2.4974015
914 2.629874
912 2.7286303
910 2.8097839
908 2.8780494
906 2.9423935
904 3.0534086
902 3.1774068
900 3.3420901
898 3.5134149
896 3.6636
