Image.
>Pix99999.
  .
5555
5555
2300
900
5555
2
1
0
701
5555
-1.5366000e-002
-1.5692532e-002
-1.6019065e-002
-1.6345600e-002
-1.6671138e-002
-1.6997665e-002
-1.7324196e-002
-1.7650729e-002
-1.7977264e-002
-1.8303797e-002
-1.8630328e-002
-1.8956861e-002
-1.9283393e-002
-1.9609928e-002
-1.9936461e-002
-2.0262992e-002
-2.0589525e-002
-2.0916058e-002
-2.1242592e-002
-2.1568151e-002
-2.1894656e-002
-2.2221189e-002
-2.2547722e-002
-2.2874257e-002
-2.3200789e-002
-2.3527320e-002
-8.7430567e-004
3.4667194e-002
7.3035277e-002
7.0798270e-002
6.2462915e-002
-2.7749743e-003
-7.2238408e-002
-1.4468329e-001
-2.1105652e-001
-2.2827300e-001
-2.3686416e-001
-2.1785462e-001
-2.0890166e-001
-2.3528661e-001
-2.9423344e-001
-4.1995451e-001
-5.5687582e-001
-7.0557785e-001
-8.1093961e-001
-8.6134982e-001
-8.6866772e-001
-8.3773792e-001
-8.1430000e-001
-7.9829711e-001
-7.8264070e-001
-7.6693600e-001
-7.2420692e-001
-6.6965532e-001
-6.4075512e-001
-6.2044573e-001
-6.7272842e-001
-7.4156302e-001
-8.3388329e-001
-9.2842817e-001
-9.2960769e-001
-9.1577923e-001
-8.2916468e-001
-7.4395680e-001
-7.0663059e-001
-6.8085259e-001
-6.8039483e-001
-6.6321868e-001
-5.9670836e-001
-5.0775605e-001
-3.8565999e-001
-2.7575675e-001
-1.8849491e-001
-1.4495151e-001
-1.4803641e-001
-1.9544250e-001
-2.7774635e-001
-3.7829721e-001
-4.8910779e-001
-5.4815614e-001
-5.7841945e-001
-5.2895385e-001
-4.4686824e-001
-3.4295616e-001
-2.3296559e-001
-1.2886329e-001
-2.6349351e-002
6.6324562e-002
1.5752965e-001
2.5079671e-001
3.3849815e-001
3.8301840e-001
3.8960686e-001
2.5645742e-001
8.6882532e-002
-1.3100827e-001
-3.1294379e-001
-4.0008244e-001
-4.3938401e-001
-4.2204756e-001
-3.7805572e-001
-3.1040314e-001
-2.2145882e-001
-1.1406367e-001
-7.4603446e-002
-9.2911355e-002
-1.9643107e-001
-3.5074249e-001
-4.4987899e-001
-5.1678663e-001
-4.9633613e-001
-4.4129813e-001
-3.7073720e-001
-2.9649580e-001
-2.1361096e-001
-1.3032365e-001
-9.5419921e-002
-8.0889396e-002
-1.7125823e-001
-2.8956681e-001
-4.4755259e-001
-6.0124946e-001
-7.1355850e-001
-7.9053628e-001
-8.0014884e-001
-7.8196609e-001
-7.3673999e-001
-6.8907893e-001
-6.4339900e-001
-5.9652299e-001
-5.4506814e-001
-5.0834125e-001
-4.8715103e-001
-4.8832750e-001
-5.0651318e-001
-5.0506335e-001
-4.9037516e-001
-4.3420386e-001
-3.5818332e-001
-2.8496912e-001
-2.1291800e-001
-1.7240664e-001
-1.4071204e-001
-9.9170119e-002
-5.5026658e-002
-2.8349392e-002
-1.3103371e-002
-5.2801158e-002
-1.0299234e-001
-1.4596049e-001
-1.8088500e-001
-2.0195460e-001
-2.4127692e-001
-3.2207370e-001
-4.1300142e-001
-4.9412894e-001
-5.3219533e-001
-5.1381910e-001
-4.8260906e-001
-4.5552754e-001
-4.2611915e-001
-3.9607310e-001
-2.5415736e-001
-2.8494293e-002
2.3535281e-001
5.1402348e-001
5.5890322e-001
4.8169124e-001
2.5260401e-001
-3.5165556e-002
-2.3215058e-001
-3.9111090e-001
-4.7523284e-001
-5.2848792e-001
-5.4527801e-001
-5.4806501e-001
-5.3195661e-001
-5.2940845e-001
-5.6681341e-001
-6.2215787e-001
-6.8545574e-001
-7.2504413e-001
-7.2249681e-001
-6.9369119e-001
-6.5296280e-001
-5.5756199e-001
-4.0154278e-001
-1.3368386e-001
2.4352978e-001
5.7791567e-001
8.6008054e-001
9.9598253e-001
1.0284166e+000
9.9650419e-001
9.3271196e-001
7.9177272e-001
6.1306161e-001
4.5035800e-001
3.0018276e-001
3.2146779e-001
4.1944572e-001
6.1861783e-001
8.3724993e-001
9.3622023e-001
9.3228430e-001
7.0040977e-001
3.6827937e-001
-6.9145858e-003
-3.3210796e-001
-5.1280755e-001
-5.5457896e-001
-4.4994423e-001
-2.3970366e-001
4.6451770e-002
2.6169115e-001
3.7971812e-001
2.7968204e-001
-2.1348968e-003
-3.3408967e-001
-6.7643642e-001
-8.9229172e-001
-1.0172136e+000
-9.8968685e-001
-8.7969857e-001
-7.0630604e-001
-5.1252252e-001
-4.6801078e-001
-5.1288182e-001
-6.8436176e-001
-8.9759809e-001
-1.0162089e+000
-1.0503790e+000
-9.2615986e-001
-7.0528787e-001
-3.7491053e-001
-6.5455571e-002
1.0181657e-001
9.9104919e-002
-1.4300758e-001
-4.6207887e-001
-7.7454257e-001
-9.7232288e-001
-1.0182606e+000
-9.5277578e-001
-8.0781257e-001
-6.2574500e-001
-4.2764059e-001
-2.5282425e-001
-1.1186948e-001
-2.8511547e-002
1.1817642e-002
5.8388092e-002
1.2610200e-001
2.0196372e-001
2.9529208e-001
3.9030385e-001
4.9430025e-001
6.0611266e-001
7.3545688e-001
9.1225696e-001
1.1205842e+000
1.3515295e+000
1.5031954e+000
1.4207366e+000
1.1581812e+000
7.6087594e-001
3.8925242e-001
1.6163637e-001
3.7077799e-002
-1.9250306e-001
-3.7691042e-001
-3.9012882e-001
-1.9076794e-002
7.3584461e-001
1.5642958e+000
2.3539250e+000
2.6125822e+000
2.3974783e+000
2.0756443e+000
1.7395773e+000
1.7909600e+000
2.1268942e+000
2.2464879e+000
2.1800091e+000
1.5906720e+000
7.0686716e-001
6.5510511e-002
-2.7578431e-001
9.9721551e-002
1.0710100e+000
2.5667458e+000
4.1183000e+000
5.1085634e+000
5.7290001e+000
6.1426201e+000
6.8008671e+000
8.0768509e+000
1.0201399e+001
1.3261543e+001
1.6835260e+001
2.0662287e+001
2.4009991e+001
2.6641060e+001
2.9073395e+001
3.1485451e+001
3.4757751e+001
3.8901283e+001
4.3562878e+001
4.8576878e+001
5.2699764e+001
5.6041485e+001
5.9421101e+001
6.2907295e+001
6.7052788e+001
7.1669678e+001
7.6202950e+001
8.0631226e+001
8.4804855e+001
8.8733643e+001
9.2381042e+001
9.5768715e+001
9.8909332e+001
1.0165160e+002
1.0384867e+002
1.0472463e+002
1.0376107e+002
1.0149277e+002
9.8464516e+001
9.5142059e+001
9.1799431e+001
8.7981728e+001
8.3569939e+001
7.8923363e+001
7.4210701e+001
6.9839722e+001
6.5839188e+001
6.1765682e+001
5.7554741e+001
5.3299110e+001
4.9020615e+001
4.4898685e+001
4.0974037e+001
3.7455681e+001
3.4380138e+001
3.1784412e+001
2.9622972e+001
2.7687851e+001
2.5976416e+001
2.4451490e+001
2.3173346e+001
2.2193501e+001
2.1520775e+001
2.1128693e+001
2.0942558e+001
2.0865631e+001
2.0903286e+001
2.1037052e+001
2.1360159e+001
2.1899166e+001
2.2745241e+001
2.3922600e+001
2.5273573e+001
2.6760908e+001
2.8096348e+001
2.9225080e+001
3.0254507e+001
3.1199533e+001
3.2476463e+001
3.4194622e+001
3.6855759e+001
4.0374771e+001
4.3582729e+001
4.6321022e+001
4.8123085e+001
4.9183342e+001
5.0320286e+001
5.1575485e+001
5.3020290e+001
5.4187962e+001
5.4487827e+001
5.3836372e+001
5.2277382e+001
5.0392727e+001
4.8710541e+001
4.7277710e+001
4.6123001e+001
4.5029293e+001
4.3889160e+001
4.2394817e+001
4.0446209e+001
3.8343727e+001
3.6158188e+001
3.4058559e+001
3.2032822e+001
2.9514999e+001
2.6343794e+001
2.3128521e+001
1.9981815e+001
1.7468212e+001
1.5673630e+001
1.3982285e+001
1.2372456e+001
1.0724904e+001
9.0256805e+000
7.3126888e+000
5.5947928e+000
3.8913860e+000
2.3573027e+000
1.1495953e+000
3.5871059e-001
5.0883342e-002
1.9516170e-001
8.1316304e-001
1.5600170e+000
2.1861110e+000
2.7531428e+000
3.2317188e+000
3.8206582e+000
4.6180859e+000
5.4581604e+000
6.3217402e+000
6.8307800e+000
6.8217654e+000
6.5981946e+000
6.1069965e+000
5.6151104e+000
5.1272650e+000
4.7067571e+000
4.3861251e+000
4.2206345e+000
4.1936684e+000
4.1577692e+000
4.0450521e+000
3.7480206e+000
3.3368361e+000
2.9707522e+000
2.7293880e+000
2.7060785e+000
2.8544269e+000
3.1379423e+000
3.4472458e+000
3.6808331e+000
3.8925323e+000
4.0669456e+000
4.2872000e+000
4.6045914e+000
4.9737024e+000
5.4248295e+000
5.8598118e+000
6.2561064e+000
6.5691500e+000
6.7460651e+000
6.8289676e+000
6.7881994e+000
6.6675611e+000
6.4271951e+000
6.0990901e+000
5.6578722e+000
5.2111750e+000
4.7689691e+000
4.4008770e+000
4.0943780e+000
3.8284900e+000
3.5937815e+000
3.3451719e+000
3.0868130e+000
2.7812424e+000
2.4111052e+000
1.9629571e+000
1.4823790e+000
1.0189829e+000
6.2003303e-001
3.2661515e-001
9.9593520e-002
-3.4745887e-002
-7.6873429e-002
2.6517279e-002
2.3224935e-001
6.1739731e-001
9.7526103e-001
1.2653228e+000
1.4041419e+000
1.3268006e+000
1.2359140e+000
1.1479669e+000
1.1524299e+000
1.2766343e+000
1.4951985e+000
1.8148115e+000
2.1886220e+000
2.5839801e+000
2.8988409e+000
3.1140606e+000
3.1755846e+000
3.1344159e+000
3.0424600e+000
2.9416103e+000
2.8864782e+000
2.8483160e+000
2.8176658e+000
2.7707286e+000
2.6865938e+000
2.6114528e+000
2.5902660e+000
2.6085160e+000
2.7142086e+000
2.8154535e+000
2.8959749e+000
2.9577715e+000
2.9846051e+000
3.0392270e+000
3.1429920e+000
3.2784278e+000
3.4535251e+000
3.6117127e+000
3.7518358e+000
3.8935285e+000
4.0580587e+000
4.2843919e+000
4.5826659e+000
4.9375515e+000
5.3398633e+000
5.7558985e+000
6.1691594e+000
6.5402727e+000
6.8749752e+000
7.1641388e+000
7.4321270e+000
7.6932106e+000
7.9271178e+000
8.0766592e+000
8.1694908e+000
8.1256199e+000
8.0460615e+000
7.8927178e+000
7.7084231e+000
7.4381595e+000
7.1360021e+000
6.7589760e+000
6.3621340e+000
5.9237084e+000
5.4541721e+000
4.9330387e+000
4.4044323e+000
3.8726091e+000
3.3730350e+000
2.9161758e+000
2.4901590e+000
2.0884371e+000
1.6743293e+000
1.2428114e+000
7.7828228e-001
3.0361652e-001
-1.3439038e-001
-5.3434110e-001
-8.4236550e-001
-1.1027178e+000
-1.2901103e+000
-1.4401840e+000
-1.5085613e+000
-1.5289600e+000
-1.4014964e+000
-1.2291803e+000
-9.1509998e-001
-6.0677534e-001
-3.1737691e-001
-7.4124999e-002
5.5200592e-002
1.5792851e-001
2.0811123e-001
2.5613543e-001
2.9771951e-001
3.2535487e-001
3.3330879e-001
3.3499479e-001
3.2687572e-001
2.9948372e-001
2.4883184e-001
1.5405519e-001
3.4291461e-002
-6.5800831e-002
-1.3948770e-001
-8.5352547e-002
3.6857203e-002
2.5802952e-001
5.1473671e-001
8.1392229e-001
1.1250753e+000
1.4605800e+000
1.8003330e+000
2.1511757e+000
2.4844637e+000
2.7428944e+000
2.9801304e+000
3.1520152e+000
3.3291750e+000
3.5187790e+000
3.7031648e+000
3.8801565e+000
4.0739999e+000
4.3018432e+000
4.5930023e+000
4.9650478e+000
5.3673768e+000
5.8057990e+000
6.2936177e+000
6.8157215e+000
7.3189659e+000
7.7712684e+000
7.9478030e+000
7.9663830e+000
7.7403708e+000
7.4366140e+000
7.1415844e+000
6.8609939e+000
6.6674395e+000
6.5082402e+000
6.5195169e+000
6.5730395e+000
6.8439193e+000
7.1055946e+000
7.3223081e+000
7.4716463e+000
7.4076700e+000
7.3452487e+000
7.2940211e+000
7.3194075e+000
7.4891500e+000
7.6844659e+000
7.9159765e+000
8.1357603e+000
8.3299208e+000
8.4014664e+000
8.3401432e+000
8.0352688e+000
7.5589824e+000
7.0347691e+000
6.5032272e+000
6.1507902e+000
5.8726883e+000
5.6481485e+000
5.4218349e+000
5.0190811e+000
4.5750937e+000
4.0050802e+000
3.4319143e+000
2.9476733e+000
2.4913435e+000
2.2217171e+000
1.9802663e+000
1.8606000e+000
1.7184440e+000
1.5040709e+000
1.2269094e+000
8.0523622e-001
3.4458917e-001
-1.8260080e-001
-6.7654765e-001
-1.1152060e+000
-1.3519868e+000
-1.3648885e+000
-1.1036782e+000
-6.2178713e-001
-8.6718410e-002
4.7109607e-001
8.6674953e-001
1.1823421e+000
1.3640764e+000
1.4995052e+000
1.5534430e+000
1.5827671e+000
1.4389766e+000
1.2655261e+000
8.7652892e-001
4.8679799e-001
2.1114001e-001
4.9357712e-003
1.5599787e-001
5.3390366e-001
1.2819521e+000
1.9964144e+000
2.6085403e+000
3.0881991e+000
3.2842875e+000
3.4000120e+000
3.3879807e+000
3.4016860e+000
3.4472227e+000
3.5624943e+000
3.7433605e+000
3.9636543e+000
4.2111168e+000
4.3827891e+000
4.5131249e+000
4.6654534e+000
4.8256707e+000
5.3393564e+000
5.9436855e+000
6.6159525e+000
7.2974935e+000
7.3627000e+000
