##TITLE=Methyl Ethyl Ketone
##JCAMP-DX=4.24
##DATA TYPE=INFRARED SPECTRUM
##XUNITS=cm-1
##YUNITS=Absorbance
##FIRSTX=900
##LASTX=2300
##XYDATA=(X++(Y..Y))
2296 0.062641002
2294 0.063944139
2292 0.065247275
2290 0.066551402
2288 0.067854539
2286 0.069157682
2284 0.070460819
2282 0.071763948
2280 0.073067084
2278 0.07437022
2276 0.075673357
2274 0.076976493
2272 0.078279629
2270 0.079582766
2268 0.080885902
2266 0.082189038
2264 0.083492167
2262 0.084795304
2260 0.08609844
2258 0.087401576
2256 0.08870472
2254 0.090007849
2252 0.091310985
2250 0.092614122
2248 0.093917258
2246 0.095220387
2244 0.06482242
2242 0.0024549942
2240 -0.056791682
2238 -0.11891726
2236 -0.18145542
2234 -0.18181762
2232 -0.17577435
2230 -0.12671325
2228 -0.076420315
2226 -0.032560751
2224 0.0081215138
2222 0.035919193
2220 0.063407481
2218 0.092135251
2216 0.1291161
2214 0.18396118
2212 0.2429444
2210 0.30692524
2208 0.35738105
2206 0.3905645
2204 0.4049252
2202 0.40219849
2200 0.37338242
2198 0.3258681
2196 0.25961357
2194 0.18327874
2192 0.12800469
2190 0.082282029
2188 0.08514858
2186 0.10360131
2184 0.1467692
2182 0.19538163
2180 0.2117606
2178 0.22287045
2176 0.20032942
2174 0.17498907
2172 0.15304758
2170 0.13301189
2168 0.12213428
2166 0.1142985
2164 0.1144142
2162 0.12302741
2160 0.15136783
2158 0.19604713
2156 0.267903
2154 0.34738252
2152 0.43382159
2150 0.51108927
2148 0.57720435
2146 0.63381213
2144 0.68304992
2142 0.71876693
2140 0.74563283
2138 0.73407847
2136 0.70208138
2134 0.62524527
2132 0.53028357
2130 0.45427075
2128 0.38480601
2126 0.39053321
2124 0.41368809
2122 0.44134638
2120 0.46609515
2118 0.42500091
2116 0.37508571
2114 0.32937211
2112 0.2975297
2110 0.32427081
2108 0.35915747
2106 0.39278492
2104 0.40525967
2102 0.37153739
2100 0.3249138
2098 0.26815096
2096 0.22732
2094 0.20941369
2092 0.19987771
2090 0.19554825
2088 0.16315103
2086 0.1067804
2084 0.045970529
2082 -0.015653066
2080 -0.0034650366
2078 0.047710568
2076 0.1301533
2074 0.22368425
2072 0.2538988
2070 0.26335603
2068 0.24118
2066 0.21189122
2064 0.18220165
2062 0.15282564
2060 0.12400811
2058 0.09962263
2056 0.098952688
2054 0.10605898
2052 0.1250868
2050 0.13881034
2048 0.13373178
2046 0.11298321
2044 0.069402441
2042 0.024191326
2040 -0.017630583
2038 -0.046095811
2036 -0.060236771
2034 -0.059725959
2032 -0.047403462
2030 -0.035463389
2028 -0.024887007
2026 -0.025958108
2024 -0.03393418
2022 -0.00024393015
2020 0.05592506
2018 0.15858619
2016 0.27918601
2014 0.35793099
2012 0.42129591
2010 0.41504973
2008 0.38797587
2006 0.32377851
2004 0.25037956
2002 0.1806764
2000 0.11917382
1998 0.091918357
1996 0.07882271
1994 0.084198959
1992 0.090347745
1990 0.085193761
1988 0.066662863
1986 0.025988027
1984 -0.029387552
1982 -0.097818188
1980 -0.16459894
1978 -0.22467944
1976 -0.254244
1974 -0.25605699
1972 -0.20729338
1970 -0.1234996
1968 -0.044274811
1966 0.0278352
1964 0.0090647778
1962 -0.057995398
1960 -0.16048688
1958 -0.27610078
1956 -0.35496742
1954 -0.42007959
1952 -0.46823132
1950 -0.51048785
1948 -0.53455347
1946 -0.54817498
1944 -0.53912807
1942 -0.51908863
1940 -0.49595436
1938 -0.47841078
1936 -0.480492
1934 -0.49602953
1932 -0.52306062
1930 -0.55105823
1928 -0.57138485
1926 -0.57105768
1924 -0.54415947
1922 -0.49623126
1920 -0.43518543
1918 -0.40642869
1916 -0.41347471
1914 -0.43239284
1912 -0.45405713
1910 -0.44847727
1908 -0.42385504
1906 -0.44704041
1904 -0.4987168
1902 -0.57279104
1900 -0.65687925
1898 -0.64581263
1896 -0.59413284
1894 -0.49726391
1892 -0.39303488
1890 -0.36321831
1888 -0.3782756
1886 -0.46969637
1884 -0.59027201
1882 -0.71431124
1880 -0.82990295
1878 -0.91995585
1876 -0.98257899
1874 -1.0045308
1872 -0.98123813
1870 -0.90624428
1868 -0.8245545
1866 -0.76220477
1864 -0.76782876
1862 -0.84615505
1860 -0.9663769
1858 -1.1046116
1856 -1.2478428
1854 -1.3886948
1852 -1.51406
1850 -1.6264164
1848 -1.6830599
1846 -1.7047678
1844 -1.6617166
1842 -1.5840024
1840 -1.4927989
1838 -1.3974113
1836 -1.2965386
1834 -1.187628
1832 -1.0296749
1830 -0.84853691
1828 -0.66899043
1826 -0.52465296
1824 -0.48838297
1822 -0.52979136
1820 -0.64058799
1818 -0.77365237
1816 -0.89053917
1814 -0.98001868
1812 -1.0347455
1810 -1.0423144
1808 -1.0083412
1806 -0.92095548
1804 -0.79143083
1802 -0.71121597
1800 -0.68317813
1798 -0.72889429
1796 -0.82350355
1794 -0.77213961
1792 -0.61522162
1790 -0.38492325
1788 -0.12221254
1786 -0.01035707
1784 0.0093260696
1782 -2.0060688e-05
1780 -0.019382358
1778 0.014603728
1776 0.094305918
1774 0.24930757
1772 0.44154298
1770 0.61151248
1768 0.70428312
1766 0.62484103
1764 0.44449541
1762 0.23074242
1760 0.055177368
1758 -0.17464119
1756 -0.37137842
1754 -0.44263718
1752 -0.36474925
1750 -0.15363394
1748 0.062977992
1746 0.23834857
1744 0.22706611
1742 0.040354535
1740 -0.16174205
1738 -0.34330171
1736 -0.311912
1734 -0.11385623
1732 0.071429215
1730 0.22437325
1728 0.13869134
1726 -0.10050567
1724 -0.24982134
1722 -0.27857637
1720 0.072179049
1718 0.75625938
1716 1.73129
1714 2.7549365
1712 3.44296
1710 3.9004235
1708 4.258142
1706 4.789134
1704 5.7579155
1702 7.4459314
1700 9.977581
1698 13.502449
1696 17.926144
1694 22.333191
1692 26.323097
1690 29.804722
1688 32.872566
1686 36.456566
1684 40.665424
1682 45.536694
1680 50.903919
1678 55.466843
1676 59.292786
1674 62.994579
1672 66.677605
1670 70.858032
1668 75.366302
1666 79.554649
1664 83.398979
1662 86.760506
1660 89.687187
1658 92.263237
1656 94.514656
1654 96.495979
1652 98.139977
1650 99.380882
1648 99.806435
1646 99.071999
1644 97.432678
1642 95.21151
1640 92.536392
1638 89.562187
1636 85.913437
1634 81.51413
1632 76.881226
1630 72.219391
1628 67.77813
1626 63.592068
1624 59.209839
1622 54.59079
1620 50.068161
1618 45.677814
1616 41.69157
1614 38.117664
1612 34.995617
1610 32.321369
1608 30.010126
1606 28.047892
1604 26.325142
1602 24.879726
1600 23.744343
1598 22.928492
1596 22.397499
1594 22.117788
1592 22.007553
1590 22.03964
1588 22.165535
1586 22.39245
1584 22.718355
1582 23.17205
1580 23.765617
1578 24.598732
1576 25.700172
1574 27.037271
1572 28.57988
1570 30.11533
1568 31.5912
1566 33.011993
1564 34.385593
1562 35.959335
1560 37.809307
1558 40.28653
1556 43.365326
1554 46.194363
1552 48.611385
1550 50.266479
1548 51.239304
1546 52.135178
1544 52.950565
1542 53.696613
1540 54.183418
1538 54.101479
1536 53.447201
1534 52.318089
1532 50.929451
1530 49.572983
1528 48.25153
1526 46.964752
1524 45.641449
1522 44.227455
1520 42.675732
1518 40.935177
1516 39.083057
1514 37.138176
1512 35.110558
1510 33.010807
1508 30.467737
1506 27.356878
1504 24.181793
1502 20.985188
1500 18.281683
1498 16.141399
1496 14.113571
1494 12.217117
1492 10.378759
1490 8.6055241
1488 6.8577657
1486 5.1509809
1484 3.5038621
1482 2.0318193
1480 0.91465795
1478 0.22409794
1476 0.030575633
1474 0.36173171
1472 1.1277905
1470 2.003221
1468 2.7506862
1466 3.3189964
1464 3.6700959
1462 4.0506258
1460 4.5858202
1458 5.3070064
1456 6.2735801
1454 7.0835605
1452 7.5845551
1450 7.7610879
1448 7.4725142
1446 7.1318893
1444 6.7323122
1442 6.3834658
1440 6.1073079
1438 5.8679237
1436 5.6637144
1434 5.4119048
1432 5.1001878
1430 4.7242632
1428 4.306222
1426 3.9409742
1424 3.6693063
1422 3.5509481
1420 3.5945802
1418 3.7892833
1416 4.0638771
1414 4.3410821
1412 4.5989418
1410 4.8343253
1408 5.0979986
1406 5.4386373
1404 5.8327069
1402 6.2857871
1400 6.724544
1398 7.1154623
1396 7.3998361
1394 7.4857435
1392 7.4492497
1390 7.1964517
1388 6.8905354
1386 6.5007954
1384 6.083952
1382 5.6292925
1380 5.1549158
1378 4.6630816
1376 4.1742997
1374 3.7064447
1372 3.273046
1370 2.8792751
1368 2.5226839
1366 2.176897
1364 1.8064691
1362 1.4155951
1360 1.0011352
1358 0.61371493
1356 0.31778741
1354 0.1066224
1352 0.028183794
1350 0.028051361
1348 0.12593512
1346 0.27013248
1344 0.4634636
1342 0.67763323
1340 0.92739815
1338 1.1548922
1336 1.3250772
1334 1.4332875
1332 1.4134274
1330 1.37534
1328 1.316408
1326 1.3043678
1324 1.3779783
1322 1.5250027
1320 1.7716863
1318 2.0612345
1316 2.38291
1314 2.6655979
1312 2.88322
1310 3.0041406
1308 3.0304592
1306 2.9799523
1304 2.8821099
1302 2.7698731
1300 2.6616459
1298 2.5767782
1296 2.5156999
1294 2.4938455
1292 2.5035594
1290 2.5711856
1288 2.6578002
1286 2.7711422
1284 2.8813393
1282 2.9763551
1280 3.0666058
1278 3.1449826
1276 3.2182314
1274 3.2875011
1272 3.3748646
1270 3.5016789
1268 3.674938
1266 3.9116695
1264 4.1653028
1262 4.4319134
1260 4.6837578
1258 4.9208899
1256 5.1547031
1254 5.3886366
1252 5.6330514
1250 5.8904934
1248 6.1719708
1246 6.4665999
1244 6.7630486
1242 7.0431776
1240 7.2639484
1238 7.4397702
1236 7.5223098
1234 7.5510063
1232 7.46206
1230 7.3144684
1228 7.0145774
1226 6.6572866
1224 6.1458936
1222 5.5920515
1220 4.9394455
1218 4.2855291
1216 3.6367915
1214 3.0389082
1212 2.5365062
1210 2.1143219
1208 1.8087206
1206 1.5618907
1204 1.378448
1202 1.1978287
1200 1.0130715
1198 0.79833186
1196 0.556045
1194 0.28611368
1192 0.0023407489
1190 -0.2737605
1188 -0.52802026
1186 -0.70608193
1184 -0.83452475
1182 -0.8616997
1180 -0.85119045
1178 -0.77935743
1176 -0.68641597
1174 -0.5410679
1172 -0.37619042
1170 -0.14855582
1168 0.082716882
1166 0.32108185
1164 0.53329939
1162 0.67746431
1160 0.7793591
1158 0.7949636
1156 0.77630115
1154 0.7003116
1152 0.5993979
1150 0.46723509
1148 0.3354004
1146 0.20984
1144 0.11756772
1142 0.056910951
1140 0.020224398
1138 0.0029607927
1136 0.004363637
1134 0.022951357
1132 0.1054379
1130 0.22054958
1128 0.37929076
1126 0.55335814
1124 0.74632418
1122 0.94208926
1120 1.134732
1118 1.3207028
1116 1.4719672
1114 1.6129805
1112 1.7128422
1110 1.8039522
1108 1.8674037
1106 1.928305
1104 1.9820503
1102 2.0283968
1100 2.0601926
1098 2.0860529
1096 2.1066144
1094 2.1539576
1092 2.2394361
1090 2.3683405
1088 2.5402875
1086 2.7235842
1084 2.9098427
1082 3.0560548
1080 3.1729727
1078 3.2474411
1076 3.3009529
1074 3.3394594
1072 3.3630178
1070 3.3156326
1068 3.2330117
1066 3.0095141
1064 2.7643681
1062 2.4939518
1060 2.2455325
1058 2.1476831
1056 2.0777857
1054 2.1300135
1052 2.1927416
1050 2.28863
1048 2.3802161
1046 2.4572713
1044 2.4914429
1042 2.440563
1040 2.3286285
1038 2.1297357
1036 1.9391899
1034 1.7619565
1032 1.62116
1030 1.5107285
1028 1.3791155
1026 1.2347679
1024 1.1073154
1022 0.99147117
1020 0.90744311
1018 0.82793051
1016 0.66788775
1014 0.48304904
1012 0.26309311
1010 0.045653641
1008 -0.076792002
1006 -0.18921258
1004 -0.27747333
1002 -0.36674032
1000 -0.46300206
998 -0.53386825
996 -0.49266714
994 -0.4342851
992 -0.32635799
990 -0.26685423
988 -0.32047501
986 -0.41986445
984 -0.5956232
982 -0.73602456
980 -0.82463062
978 -0.83885568
976 -0.77587831
974 -0.6982758
972 -0.61227846
970 -0.58306581
968 -0.58673507
966 -0.56844449
964 -0.5344668
962 -0.38704759
960 -0.20491171
958 -0.055654623
956 0.079539098
954 0.061240122
952 0.023805361
950 -0.02751492
948 -0.072717085
946 -0.023102356
944 0.0020570755
942 0.064570144
940 0.20650114
938 0.44046032
936 0.68832231
934 0.97695291
932 1.26042
930 1.5335982
928 1.8304617
926 2.1658216
924 2.5310459
922 2.9306448
920 3.2161856
918 3.3936908
916 3.4297886
914 3.3666005
912 3.3435841
910 3.341881
908 3.3099349
906 3.2661164
904 3.0444698
902 2.7772074
900 2.5459559
898 2.3211105
896 2.3285
