Image.
>Pix99999.
  .
5555
5555
2300
900
5555
2
1
0
701
5555
4.4048999e-002
4.4965688e-002
4.5881379e-002
4.6798065e-002
4.7714755e-002
4.8630450e-002
4.9547132e-002
5.0463822e-002
5.1379520e-002
5.2296199e-002
5.3212889e-002
5.4129574e-002
5.5045281e-002
5.5961952e-002
5.6878641e-002
5.7794347e-002
5.8711015e-002
5.9627704e-002
6.0543418e-002
6.1460081e-002
6.2376771e-002
6.3292496e-002
6.4209148e-002
6.5125838e-002
6.6041559e-002
6.6958219e-002
3.7725918e-002
1.4115985e-003
-3.5152320e-002
-4.1915026e-002
-4.4275559e-002
-4.9931344e-002
-5.6598935e-002
-8.0464438e-002
-1.0320840e-001
-1.1038049e-001
-1.0717132e-001
-6.0066119e-002
-7.7738841e-003
5.3151544e-002
9.4651520e-002
9.2636898e-002
6.9942422e-002
1.7692989e-002
-3.8765252e-002
-9.8210789e-002
-1.6176020e-001
-2.2908644e-001
-2.8922698e-001
-3.4380969e-001
-3.7518859e-001
-3.9339593e-001
-4.0771258e-001
-4.2072025e-001
-4.2833534e-001
-4.3423429e-001
-3.9423761e-001
-3.4371668e-001
-2.7325892e-001
-2.0053273e-001
-1.7897515e-001
-1.6554418e-001
-1.9088611e-001
-2.1719280e-001
-2.2796245e-001
-2.3223901e-001
-2.1835217e-001
-2.1341562e-001
-2.3602772e-001
-2.7279934e-001
-3.3109900e-001
-3.6730707e-001
-3.6828771e-001
-3.3167088e-001
-2.5682721e-001
-1.8814965e-001
-1.2844943e-001
-1.1917640e-001
-1.4430422e-001
-2.1162269e-001
-2.9999027e-001
-3.7905782e-001
-4.5334610e-001
-4.8512104e-001
-5.0347161e-001
-4.9614051e-001
-4.8307750e-001
-4.5843375e-001
-4.3125829e-001
-3.9018241e-001
-3.4959015e-001
-3.2748848e-001
-3.1861073e-001
-3.5643730e-001
-4.0220284e-001
-4.5123991e-001
-4.8533982e-001
-4.8540869e-001
-4.7543198e-001
-4.5704907e-001
-4.4002429e-001
-4.2640591e-001
-4.1043139e-001
-3.9151016e-001
-3.7251693e-001
-3.5381350e-001
-3.4088653e-001
-3.3174375e-001
-3.4664926e-001
-3.7393388e-001
-4.1843885e-001
-4.6948600e-001
-4.8377320e-001
-4.8596981e-001
-4.6407780e-001
-4.3756673e-001
-4.6285051e-001
-4.9907264e-001
-5.4318953e-001
-5.7946026e-001
-5.6395769e-001
-5.3684324e-001
-5.0471932e-001
-4.8381436e-001
-4.9429879e-001
-5.2382326e-001
-5.7837361e-001
-6.4334309e-001
-7.1683550e-001
-7.9058576e-001
-8.6276859e-001
-9.2907321e-001
-9.8989701e-001
-1.0199109e+000
-1.0264024e+000
-9.9216062e-001
-9.3430859e-001
-8.5742199e-001
-7.7245384e-001
-7.0925963e-001
-6.5570599e-001
-6.7172450e-001
-7.1091151e-001
-7.8805703e-001
-8.7377852e-001
-9.4110423e-001
-1.0018210e+000
-1.0490810e+000
-1.0877926e+000
-1.1038862e+000
-1.1089286e+000
-1.0975436e+000
-1.0981143e+000
-1.1353801e+000
-1.1962000e+000
-1.2829850e+000
-1.3649166e+000
-1.4312924e+000
-1.4795461e+000
-1.5111400e+000
-1.4887258e+000
-1.4194469e+000
-1.2535806e+000
-1.0210426e+000
-7.9982913e-001
-5.9361160e-001
-5.5365497e-001
-6.0024625e-001
-7.3005641e-001
-8.9144468e-001
-9.9554497e-001
-1.0762037e+000
-1.0988435e+000
-1.1020833e+000
-1.0952106e+000
-1.0963750e+000
-1.1580846e+000
-1.2504245e+000
-1.3856877e+000
-1.5119956e+000
-1.5807314e+000
-1.6112012e+000
-1.5989220e+000
-1.5876254e+000
-1.5975468e+000
-1.5836750e+000
-1.5307932e+000
-1.3780551e+000
-1.1287469e+000
-8.8084972e-001
-6.5567642e-001
-5.4308575e-001
-5.1230991e-001
-5.6352437e-001
-6.5739173e-001
-8.3188707e-001
-1.0469692e+000
-1.2431884e+000
-1.4284281e+000
-1.4479203e+000
-1.3951143e+000
-1.2469649e+000
-1.0729706e+000
-9.7513068e-001
-9.3854690e-001
-1.0401080e+000
-1.2099820e+000
-1.4316920e+000
-1.6485320e+000
-1.8104744e+000
-1.8877801e+000
-1.8434310e+000
-1.6837697e+000
-1.4108026e+000
-1.1588806e+000
-9.7795093e-001
-9.7423118e-001
-1.1364640e+000
-1.3463837e+000
-1.5602357e+000
-1.6835915e+000
-1.7359871e+000
-1.6758488e+000
-1.5489805e+000
-1.3581800e+000
-1.1354072e+000
-1.0541003e+000
-1.0520947e+000
-1.2160749e+000
-1.4485480e+000
-1.5999771e+000
-1.6814520e+000
-1.5911812e+000
-1.3982686e+000
-1.1128768e+000
-8.4108394e-001
-7.1474290e-001
-7.4453348e-001
-9.7851956e-001
-1.2901157e+000
-1.5977143e+000
-1.8187958e+000
-1.9168633e+000
-1.9038571e+000
-1.8055925e+000
-1.6289201e+000
-1.3969028e+000
-1.1275409e+000
-8.3713979e-001
-5.6318545e-001
-3.0610427e-001
-9.6569970e-002
8.0946758e-002
1.3698657e-001
1.1799583e-001
3.9422438e-002
-6.4849839e-002
-9.3397692e-002
-6.2682830e-002
8.2950100e-002
2.9856059e-001
5.5165935e-001
7.6371229e-001
7.8569663e-001
6.7283088e-001
4.5510951e-001
2.6397741e-001
2.2157763e-001
8.7896340e-002
-9.3816385e-002
-1.7961358e-001
-1.7145802e-001
6.9285601e-002
5.5458176e-001
1.1283050e+000
1.7160500e+000
1.9772897e+000
1.9236274e+000
1.7352314e+000
1.4880937e+000
1.4504000e+000
1.5809710e+000
1.5925257e+000
1.4961841e+000
1.0840676e+000
4.8419380e-001
5.1163860e-002
-1.8592107e-001
1.1587685e-001
9.2415428e-001
2.1646872e+000
3.5031617e+000
4.4993625e+000
5.2607684e+000
5.9052081e+000
6.7512841e+000
8.0914907e+000
1.0169512e+001
1.3083448e+001
1.6643993e+001
2.0638142e+001
2.4268791e+001
2.7253021e+001
2.9908184e+001
3.2414577e+001
3.5677299e+001
3.9741695e+001
4.4479603e+001
4.9701279e+001
5.4153366e+001
5.7903343e+001
6.1641819e+001
6.5452324e+001
6.9855675e+001
7.4673859e+001
7.9294304e+001
8.3690514e+001
8.7727783e+001
9.1434761e+001
9.4845039e+001
9.7953712e+001
1.0075488e+002
1.0300220e+002
1.0441780e+002
1.0444028e+002
1.0268786e+002
9.9872711e+001
9.6663536e+001
9.3316879e+001
9.0007469e+001
8.6243401e+001
8.1868332e+001
7.7280991e+001
7.2648071e+001
6.8251503e+001
6.4124840e+001
5.9849880e+001
5.5382614e+001
5.0952812e+001
4.6587517e+001
4.2479000e+001
3.8653912e+001
3.5267975e+001
3.2343090e+001
2.9893171e+001
2.7890694e+001
2.6173866e+001
2.4750753e+001
2.3586664e+001
2.2693361e+001
2.2046501e+001
2.1630478e+001
2.1390417e+001
2.1307085e+001
2.1340004e+001
2.1519537e+001
2.1854097e+001
2.2380381e+001
2.3103971e+001
2.4070164e+001
2.5283230e+001
2.6665491e+001
2.8182531e+001
2.9657408e+001
3.1050800e+001
3.2374477e+001
3.3635109e+001
3.5111851e+001
3.6891273e+001
3.9416553e+001
4.2652573e+001
4.5650600e+001
4.8239201e+001
4.9984226e+001
5.1002373e+001
5.1994678e+001
5.2961342e+001
5.3910282e+001
5.4511219e+001
5.4283199e+001
5.3289543e+001
5.1745209e+001
5.0009602e+001
4.8481152e+001
4.7115463e+001
4.5868649e+001
4.4565990e+001
4.3099236e+001
4.1299038e+001
3.9066593e+001
3.6736702e+001
3.4408146e+001
3.2183201e+001
3.0099964e+001
2.7560623e+001
2.4415014e+001
2.1220703e+001
1.8051264e+001
1.5508268e+001
1.3682010e+001
1.2000000e+001
1.0462627e+001
8.9260807e+000
7.3847446e+000
5.8257613e+000
4.2724833e+000
2.7756941e+000
1.4664145e+000
5.2543986e-001
2.0406455e-002
1.5626281e-002
4.9955630e-001
1.3617022e+000
2.2837329e+000
3.0437257e+000
3.6651480e+000
4.1431546e+000
4.6717305e+000
5.3511076e+000
6.0882149e+000
6.8717198e+000
7.4013224e+000
7.5229039e+000
7.4255657e+000
7.0283718e+000
6.5856533e+000
6.0857382e+000
5.6033373e+000
5.1590829e+000
4.7963099e+000
4.5224171e+000
4.2556319e+000
3.9824722e+000
3.6655362e+000
3.3481941e+000
3.1348379e+000
3.0660782e+000
3.1815374e+000
3.4384058e+000
3.7661455e+000
4.0804710e+000
4.2854629e+000
4.4273696e+000
4.5320444e+000
4.6624703e+000
4.8681273e+000
5.1247363e+000
5.4449520e+000
5.7768521e+000
6.1124310e+000
6.3719358e+000
6.4866896e+000
6.4898915e+000
6.3056283e+000
6.0598526e+000
5.7155252e+000
5.3112159e+000
4.8336115e+000
4.3650866e+000
3.9296300e+000
3.5807998e+000
3.3224182e+000
3.0879300e+000
2.8589242e+000
2.5878863e+000
2.2787228e+000
1.9461033e+000
1.5910447e+000
1.2121373e+000
8.3943999e-001
5.0940776e-001
2.4388611e-001
9.4912156e-002
1.2980532e-002
9.5193200e-003
5.3051069e-002
1.7519039e-001
3.5146731e-001
6.2561697e-001
8.6339498e-001
1.0120789e+000
1.0590968e+000
9.2913777e-001
8.0758834e-001
7.1408111e-001
7.0308113e-001
8.1566703e-001
9.9711519e-001
1.2616338e+000
1.5481099e+000
1.8401800e+000
2.0776632e+000
2.2475040e+000
2.3395581e+000
2.3675940e+000
2.3585486e+000
2.3229206e+000
2.2683749e+000
2.2037711e+000
2.1330247e+000
2.0680857e+000
2.0241845e+000
1.9992548e+000
2.0121782e+000
2.0436559e+000
2.1097100e+000
2.1799302e+000
2.2539892e+000
2.3182943e+000
2.3618603e+000
2.4112484e+000
2.4765410e+000
2.5722938e+000
2.7208910e+000
2.8962126e+000
3.1113894e+000
3.3479743e+000
3.6132522e+000
3.9001241e+000
4.2105498e+000
4.5345173e+000
4.8746667e+000
5.2359319e+000
5.6149740e+000
6.0105524e+000
6.4119000e+000
6.8051419e+000
7.1850281e+000
7.5302844e+000
7.8366389e+000
8.0469713e+000
8.1913376e+000
8.1791039e+000
8.0997601e+000
7.8533964e+000
7.5604973e+000
7.1465998e+000
6.7143459e+000
6.2390614e+000
5.7577262e+000
5.2623000e+000
4.7522283e+000
4.2220254e+000
3.7080150e+000
3.2264743e+000
2.8014450e+000
2.4390039e+000
2.0847902e+000
1.7271292e+000
1.3208773e+000
8.7563145e-001
4.1116124e-001
-5.1684767e-002
-4.6177080e-001
-8.2398993e-001
-1.0839214e+000
-1.2942224e+000
-1.4375507e+000
-1.5512006e+000
-1.6052455e+000
-1.6155800e+000
-1.4817256e+000
-1.3118703e+000
-1.0357124e+000
-7.6048744e-001
-4.8882627e-001
-2.2199321e-001
3.1706497e-002
2.7324778e-001
4.8616067e-001
6.6402739e-001
7.8002030e-001
8.5235679e-001
8.5941285e-001
8.0881000e-001
6.9002426e-001
5.2127331e-001
3.1829992e-001
1.5362713e-001
3.7887882e-002
4.8853144e-002
1.4567640e-001
3.7021655e-001
6.5479887e-001
9.9809897e-001
1.3637843e+000
1.7629548e+000
2.1667001e+000
2.5637200e+000
2.9443116e+000
3.2399657e+000
3.5163853e+000
3.7171392e+000
3.9034445e+000
4.0435548e+000
4.1711698e+000
4.2700191e+000
4.3790517e+000
4.5109468e+000
4.6686387e+000
4.8714428e+000
5.1190400e+000
5.4325819e+000
5.8315363e+000
6.3192911e+000
6.8558545e+000
7.4198728e+000
7.9162292e+000
8.3496761e+000
8.6204786e+000
8.7956619e+000
8.8086395e+000
8.7575951e+000
8.6255569e+000
8.4743462e+000
8.3127947e+000
8.1732922e+000
8.2068748e+000
8.2937756e+000
8.6688242e+000
9.0470457e+000
9.4350023e+000
9.7725229e+000
9.9492865e+000
1.0105834e+001
1.0213821e+001
1.0312563e+001
1.0388650e+001
1.0415783e+001
1.0373116e+001
1.0313000e+001
1.0234889e+001
1.0174628e+001
1.0121653e+001
9.9868498e+000
9.7820339e+000
9.4475727e+000
9.0438814e+000
8.6248045e+000
8.1986446e+000
7.7599630e+000
7.3094993e+000
6.7654419e+000
6.2034912e+000
5.6182518e+000
5.0392971e+000
4.5582266e+000
4.0933442e+000
3.7325530e+000
3.3715892e+000
3.0083287e+000
2.6234601e+000
2.1727159e+000
1.7319142e+000
1.3169034e+000
9.4527233e-001
6.4977586e-001
3.7058064e-001
1.1509311e-001
-1.0706492e-001
-2.8880885e-001
-3.6455089e-001
-3.5270065e-001
-2.7887380e-001
-1.7089027e-001
-1.2718150e-001
-1.1512248e-001
-1.5652917e-001
-2.1273910e-001
-2.1745233e-001
-2.0827699e-001
-1.3377273e-001
-5.3236239e-002
-1.6719017e-002
1.5077207e-002
4.9699289e-003
1.9773617e-003
6.2437847e-002
2.1178481e-001
5.0081259e-001
7.9200459e-001
1.0895560e+000
1.3858600e+000
1.6791631e+000
1.9609230e+000
2.2231636e+000
2.4441199e+000
2.6146269e+000
2.7717822e+000
2.9160030e+000
3.0366902e+000
3.1391706e+000
3.1128235e+000
3.0170121e+000
2.7480235e+000
2.4130714e+000
2.1015539e+000
1.7978097e+000
1.8235252e+000
1.9025569e+000
2.2219000e+000
