Image.
>Pix99999.
  .
5555
5555
2300
900
5555
2
1
0
701
5555
2.1350000e-002
2.1794366e-002
2.2238728e-002
2.2682097e-002
2.3126457e-002
2.3570823e-002
2.4015184e-002
2.4459550e-002
2.4902927e-002
2.5347278e-002
2.5791643e-002
2.6235022e-002
2.6679371e-002
2.7123736e-002
2.7568100e-002
2.8012466e-002
2.8455852e-002
2.8900193e-002
2.9344557e-002
2.9788921e-002
3.0233286e-002
3.0676680e-002
3.1121014e-002
3.1565379e-002
3.2009739e-002
3.2454107e-002
1.2060285e-003
4.1449107e-002
1.2882848e-001
2.1514389e-001
3.0092901e-001
3.2899028e-001
3.5218310e-001
3.5980520e-001
3.6641893e-001
3.7041649e-001
3.7155855e-001
3.5983703e-001
3.5174668e-001
3.5657024e-001
3.6893916e-001
3.9623711e-001
4.3394840e-001
4.8725197e-001
5.5246955e-001
6.3137424e-001
7.1320552e-001
7.9712790e-001
8.7214351e-001
9.4043422e-001
9.7990000e-001
1.0029950e+000
1.0212629e+000
1.0378507e+000
1.0833049e+000
1.1381394e+000
1.2088320e+000
1.2830336e+000
1.3732938e+000
1.4659698e+000
1.5743713e+000
1.6826625e+000
1.7724880e+000
1.8507340e+000
1.8726914e+000
1.8764679e+000
1.8341315e+000
1.7998586e+000
1.7980543e+000
1.8317331e+000
1.9265699e+000
2.0173917e+000
2.0935166e+000
2.1402531e+000
2.1556208e+000
2.1782393e+000
2.2102170e+000
2.2291079e+000
2.2381973e+000
2.2230427e+000
2.1951373e+000
2.1878207e+000
2.1899486e+000
2.2027283e+000
2.2186558e+000
2.2364142e+000
2.2543008e+000
2.2905653e+000
2.3302839e+000
2.3832197e+000
2.4376929e+000
2.4902880e+000
2.5296714e+000
2.5121410e+000
2.4655008e+000
2.3559499e+000
2.2585189e+000
2.2081280e+000
2.2146561e+000
2.3047893e+000
2.4034715e+000
2.4967391e+000
2.5420501e+000
2.5384598e+000
2.5093989e+000
2.4655850e+000
2.4565785e+000
2.4722111e+000
2.5159481e+000
2.5724530e+000
2.5688572e+000
2.5394061e+000
2.4758360e+000
2.4018071e+000
2.3947229e+000
2.4036393e+000
2.4273086e+000
2.4491067e+000
2.4337265e+000
2.4124701e+000
2.3997858e+000
2.3984790e+000
2.4292340e+000
2.4798818e+000
2.5620406e+000
2.6472750e+000
2.7249660e+000
2.7583458e+000
2.7296057e+000
2.6613476e+000
2.5628328e+000
2.4948099e+000
2.4611235e+000
2.4555759e+000
2.4654453e+000
2.4417293e+000
2.3936834e+000
2.3194182e+000
2.2325866e+000
2.1602821e+000
2.0959802e+000
2.0778697e+000
2.0770578e+000
2.1249430e+000
2.1853337e+000
2.2266600e+000
2.2550938e+000
2.2209420e+000
2.1646628e+000
2.0720327e+000
1.9772285e+000
1.8976158e+000
1.8305491e+000
1.7919631e+000
1.7617000e+000
1.7454457e+000
1.7300326e+000
1.7108082e+000
1.6810583e+000
1.6357528e+000
1.6039257e+000
1.5849410e+000
1.6149172e+000
1.6783397e+000
1.7479469e+000
1.8180293e+000
1.8410842e+000
1.8421862e+000
1.8244960e+000
1.8009460e+000
1.7814957e+000
1.7656131e+000
1.7648417e+000
1.7732533e+000
1.7847923e+000
1.7904999e+000
1.7671462e+000
1.7342696e+000
1.7352960e+000
1.7580004e+000
1.8183343e+000
1.8629241e+000
1.8407720e+000
1.7963427e+000
1.7345216e+000
1.7585621e+000
1.8933620e+000
2.0966096e+000
2.3493869e+000
2.4997861e+000
2.5593085e+000
2.5224631e+000
2.4266036e+000
2.3245542e+000
2.2221565e+000
2.1300142e+000
2.0456679e+000
1.9910703e+000
1.9534131e+000
1.9158449e+000
1.8788999e+000
1.8272969e+000
1.7691526e+000
1.7234030e+000
1.6789349e+000
1.6396186e+000
1.5958726e+000
1.5370257e+000
1.4737498e+000
1.4033047e+000
1.3611400e+000
1.3550148e+000
1.4116622e+000
1.5326434e+000
1.6376940e+000
1.7227379e+000
1.6926091e+000
1.5693370e+000
1.4093511e+000
1.2289166e+000
1.1141658e+000
1.0435477e+000
1.1165197e+000
1.2705277e+000
1.5390520e+000
1.8560715e+000
1.9930437e+000
2.0169625e+000
1.7729371e+000
1.4141320e+000
1.0806264e+000
7.9882336e-001
6.6098362e-001
6.2371492e-001
7.3642033e-001
8.9629042e-001
1.0581578e+000
1.1531951e+000
1.1013560e+000
9.8704541e-001
8.3804744e-001
7.3658621e-001
7.1007448e-001
7.1789378e-001
7.4346256e-001
7.6994300e-001
7.9441649e-001
8.8301742e-001
1.0204726e+000
1.1919016e+000
1.3785715e+000
1.4317093e+000
1.4016640e+000
1.2284992e+000
9.8802435e-001
7.7540469e-001
5.9537601e-001
4.7869736e-001
4.2125240e-001
4.7594240e-001
5.9635943e-001
7.3771995e-001
8.1471890e-001
7.1652168e-001
5.1350677e-001
2.9464692e-001
1.3317147e-001
6.5371364e-002
2.0374125e-002
-1.2370316e-001
-2.8434229e-001
-3.9949882e-001
-3.0667788e-001
5.9306026e-003
4.2541331e-001
8.9764249e-001
1.1347075e+000
1.1608764e+000
1.0624659e+000
8.8689756e-001
7.5996399e-001
6.6178066e-001
4.4579488e-001
1.5151033e-001
-1.7907120e-001
-4.8262507e-001
-5.5774313e-001
-4.0954730e-001
-3.8652420e-003
5.5738640e-001
1.3652763e+000
2.2605686e+000
3.0396411e+000
3.7805040e+000
4.5199118e+000
5.4891763e+000
6.8477345e+000
8.7798090e+000
1.1369458e+001
1.4347109e+001
1.7571857e+001
2.0471039e+001
2.2846619e+001
2.5033327e+001
2.7138029e+001
2.9825787e+001
3.3119587e+001
3.6867558e+001
4.0958439e+001
4.4508308e+001
4.7575855e+001
5.0628151e+001
5.3719360e+001
5.7353073e+001
6.1398941e+001
6.5555603e+001
6.9768616e+001
7.3815102e+001
7.7674988e+001
8.1243683e+001
8.4583572e+001
8.7768768e+001
9.0781395e+001
9.3632683e+001
9.5773262e+001
9.6851212e+001
9.7056114e+001
9.6604141e+001
9.5675209e+001
9.4395340e+001
9.2401344e+001
8.9655495e+001
8.6404060e+001
8.2819733e+001
7.9231133e+001
7.5695061e+001
7.1922119e+001
6.7894409e+001
6.3694736e+001
5.9353455e+001
5.5018772e+001
5.0744972e+001
4.6833767e+001
4.3339550e+001
4.0376091e+001
3.7910973e+001
3.5766544e+001
3.3924904e+001
3.2299259e+001
3.0881063e+001
2.9616001e+001
2.8496021e+001
2.7495680e+001
2.6623463e+001
2.5877909e+001
2.5314157e+001
2.4944046e+001
2.4824360e+001
2.4952761e+001
2.5361849e+001
2.6050314e+001
2.6901367e+001
2.7895344e+001
2.8837214e+001
2.9693199e+001
3.0484222e+001
3.1209564e+001
3.2122665e+001
3.3294857e+001
3.5137924e+001
3.7594257e+001
3.9951229e+001
4.2121044e+001
4.3719536e+001
4.4879719e+001
4.6074570e+001
4.7336319e+001
4.8737534e+001
4.9976341e+001
5.0741165e+001
5.0916229e+001
5.0438454e+001
4.9648846e+001
4.8800976e+001
4.7913448e+001
4.7004250e+001
4.5999027e+001
4.4884502e+001
4.3468033e+001
4.1717285e+001
3.9857986e+001
3.7938908e+001
3.6160442e+001
3.4513359e+001
3.2414585e+001
2.9698507e+001
2.6781464e+001
2.3727951e+001
2.1130842e+001
1.9046480e+001
1.6997429e+001
1.4947251e+001
1.2812063e+001
1.0592983e+001
8.3967304e+000
6.2762771e+000
4.3143682e+000
2.6486154e+000
1.3573303e+000
5.0298458e-001
1.1059457e-001
2.7932677e-001
1.0749274e+000
1.9792780e+000
2.8006947e+000
3.6144392e+000
4.3964014e+000
5.2589092e+000
6.2507257e+000
7.0428572e+000
7.4960399e+000
7.5083761e+000
6.9466295e+000
6.3839722e+000
5.8766704e+000
5.4266253e+000
5.0468941e+000
4.6753340e+000
4.3062296e+000
3.9742689e+000
3.6381829e+000
3.2428579e+000
2.7579160e+000
2.2082157e+000
1.6738780e+000
1.2630678e+000
1.0273511e+000
9.9197876e-001
1.0955939e+000
1.2894449e+000
1.4957972e+000
1.6503421e+000
1.8355749e+000
2.0628664e+000
2.3605578e+000
2.7513001e+000
3.1703534e+000
3.6334114e+000
4.0813079e+000
4.5051932e+000
4.8522787e+000
5.0750785e+000
5.1943998e+000
5.1849785e+000
5.1215224e+000
4.9850249e+000
4.8072233e+000
4.5807290e+000
4.3778625e+000
4.2062492e+000
4.0951028e+000
4.0036263e+000
3.8693881e+000
3.6706779e+000
3.3740778e+000
3.0116951e+000
2.5992708e+000
2.1411262e+000
1.6618989e+000
1.1961231e+000
7.9642516e-001
4.7630471e-001
2.4914393e-001
7.5821899e-002
-5.7868913e-002
-1.7522857e-001
-1.5520799e-001
-5.3527489e-002
1.8319772e-001
3.8989493e-001
5.3269058e-001
5.6762433e-001
4.7250354e-001
3.7479880e-001
2.9605943e-001
3.0023801e-001
4.0840027e-001
6.1366451e-001
9.1295999e-001
1.2402890e+000
1.5630500e+000
1.8049617e+000
1.9688183e+000
2.0432839e+000
2.0655637e+000
2.0526729e+000
2.0273452e+000
2.0114610e+000
2.0114629e+000
2.0623295e+000
2.1394000e+000
2.2601180e+000
2.3898535e+000
2.5253396e+000
2.6539280e+000
2.7672200e+000
2.8705549e+000
2.9590008e+000
3.0506382e+000
3.1545784e+000
3.2784944e+000
3.4337010e+000
3.6085188e+000
3.8106074e+000
4.0348792e+000
4.3003459e+000
4.5988860e+000
4.9504371e+000
5.3396521e+000
5.7740445e+000
6.2468457e+000
6.7629261e+000
7.3285866e+000
7.9419694e+000
8.6124945e+000
9.3140993e+000
1.0036208e+001
1.0755270e+001
1.1445314e+001
1.2103197e+001
1.2675514e+001
1.3171152e+001
1.3467720e+001
1.3664925e+001
1.3601740e+001
1.3470636e+001
1.3159623e+001
1.2803817e+001
1.2344071e+001
1.1851810e+001
1.1297314e+001
1.0728759e+001
1.0137565e+001
9.5404158e+000
8.9302568e+000
8.2969666e+000
7.6369061e+000
6.9612327e+000
6.2735391e+000
5.5945578e+000
4.9244857e+000
4.2702518e+000
3.6394365e+000
3.0694969e+000
2.5497308e+000
2.1283350e+000
1.7581646e+000
1.4666891e+000
1.2184049e+000
1.0699079e+000
9.5948195e-001
9.4551164e-001
9.3296087e-001
9.0668535e-001
8.6111504e-001
7.6149750e-001
6.6351557e-001
5.6979728e-001
4.7835913e-001
3.8866568e-001
2.8836086e-001
1.7380705e-001
7.9656705e-002
1.4860256e-002
-2.3619361e-002
-3.5331465e-002
-4.9186554e-002
-5.6094110e-002
-2.0746157e-002
5.8144167e-002
2.2294600e-001
4.4361752e-001
7.9514194e-001
1.2037771e+000
1.6471509e+000
2.0921414e+000
2.4926028e+000
2.8823617e+000
3.2579679e+000
3.6293783e+000
3.9850085e+000
4.3261890e+000
4.6086869e+000
4.8962994e+000
5.2026691e+000
5.5346351e+000
5.9295354e+000
6.3292551e+000
6.7412739e+000
7.1776338e+000
7.6583571e+000
8.1974421e+000
8.8037376e+000
9.3859282e+000
9.9323397e+000
1.0385842e+001
1.0762865e+001
1.1108444e+001
1.1430903e+001
1.1724529e+001
1.1993428e+001
1.2179343e+001
1.2331446e+001
1.2428564e+001
1.2512460e+001
1.2589350e+001
1.2662280e+001
1.2705625e+001
1.2731331e+001
1.2656396e+001
1.2563800e+001
1.2394798e+001
1.2209480e+001
1.1966650e+001
1.1665446e+001
1.1221107e+001
1.0702757e+001
1.0049433e+001
9.4036627e+000
8.7788687e+000
8.2601509e+000
7.8696260e+000
7.5738020e+000
7.3563514e+000
7.1016965e+000
6.8094463e+000
6.3983450e+000
5.9253449e+000
5.4463882e+000
4.9779320e+000
4.6377459e+000
4.3370838e+000
4.0936785e+000
3.8523009e+000
3.5279400e+000
3.1899793e+000
2.7769327e+000
2.3717816e+000
2.0259707e+000
1.7047158e+000
1.4907786e+000
1.2711800e+000
1.0328655e+000
7.5155330e-001
3.7320870e-001
3.6566257e-003
-3.4616011e-001
-5.9651577e-001
-7.0797777e-001
-6.8923873e-001
-5.2954912e-001
-2.5923708e-001
9.9201262e-002
4.5945349e-001
8.1065017e-001
9.8944497e-001
1.0814580e+000
9.9973148e-001
8.6311340e-001
7.3485911e-001
6.1159998e-001
5.4620510e-001
4.8571721e-001
3.7045741e-001
2.5192818e-001
1.1664964e-001
0.0000000e+000
-3.5242550e-004
-6.8613514e-003
1.1592670e-001
2.3860829e-001
3.5881504e-001
4.2747495e-001
3.8592699e-001
3.2034555e-001
2.1786508e-001
1.9441721e-001
2.6661322e-001
3.6234698e-001
4.7912523e-001
5.1421642e-001
4.9350867e-001
5.6618243e-001
6.8765032e-001
9.6276432e-001
1.2917721e+000
1.4553726e+000
1.5718639e+000
1.4468285e+000
1.2821164e+000
1.1538000e+000
