Image.
>Pix99999.
  .
5555
5555
2300
900
5555
2
1
0
701
5555
1.2947000e-002
1.3216615e-002
1.3486229e-002
1.3755843e-002
1.4024463e-002
1.4294071e-002
1.4563685e-002
1.4833300e-002
1.5101925e-002
1.5371529e-002
1.5641142e-002
1.5911741e-002
1.6179405e-002
1.6444080e-002
1.6718499e-002
1.7005829e-002
1.7257264e-002
1.7457167e-002
1.7794231e-002
1.8322505e-002
1.8341856e-002
1.7646510e-002
1.8841526e-002
2.2704115e-002
1.9538017e-002
4.0209712e-003
1.2816513e-004
3.2963540e-002
9.9118643e-002
1.8202367e-001
2.4480413e-001
2.5690246e-001
2.3631708e-001
2.1334663e-001
2.1127051e-001
2.4197149e-001
2.7992028e-001
2.9618239e-001
2.9209065e-001
2.7930766e-001
2.7452517e-001
2.9025602e-001
3.1631979e-001
3.3947897e-001
3.6188200e-001
3.8989237e-001
4.2756855e-001
4.7508171e-001
5.2007598e-001
5.4906911e-001
5.5979496e-001
5.5404490e-001
5.3545153e-001
5.0898886e-001
4.8298264e-001
4.6470755e-001
4.5290560e-001
4.4245604e-001
4.2358813e-001
3.9120117e-001
3.6497343e-001
3.7010109e-001
4.2111999e-001
5.2198774e-001
6.4872205e-001
7.7000308e-001
8.6226237e-001
9.0979224e-001
9.1764075e-001
8.9948857e-001
8.7585098e-001
8.6556953e-001
8.7186611e-001
8.9117754e-001
9.1433674e-001
9.3291819e-001
9.4881868e-001
9.6739435e-001
9.9324930e-001
1.0284954e+000
1.0663458e+000
1.0971402e+000
1.1120771e+000
1.1061078e+000
1.0878520e+000
1.0710036e+000
1.0702280e+000
1.0969342e+000
1.1479114e+000
1.2140543e+000
1.2835257e+000
1.3449610e+000
1.3910172e+000
1.4170911e+000
1.4248749e+000
1.4191178e+000
1.4095577e+000
1.4072524e+000
1.4214619e+000
1.4569408e+000
1.5042285e+000
1.5481669e+000
1.5731089e+000
1.5680273e+000
1.5396097e+000
1.5015800e+000
1.4667636e+000
1.4451654e+000
1.4363645e+000
1.4369886e+000
1.4485943e+000
1.4751855e+000
1.5232279e+000
1.5960701e+000
1.6799920e+000
1.7542386e+000
1.7974691e+000
1.7939556e+000
1.7502623e+000
1.6827041e+000
1.6100314e+000
1.5495257e+000
1.5122514e+000
1.5032853e+000
1.5156010e+000
1.5360607e+000
1.5472800e+000
1.5359666e+000
1.5130800e+000
1.4986483e+000
1.5064157e+000
1.5416207e+000
1.5872560e+000
1.6199950e+000
1.6310983e+000
1.6214229e+000
1.6042972e+000
1.5957329e+000
1.6014045e+000
1.6212925e+000
1.6520400e+000
1.6884665e+000
1.7244580e+000
1.7520703e+000
1.7590475e+000
1.7347628e+000
1.6841383e+000
1.6209921e+000
1.5656635e+000
1.5358447e+000
1.5280499e+000
1.5275353e+000
1.5147611e+000
1.4752542e+000
1.4221439e+000
1.3802586e+000
1.3668263e+000
1.3883611e+000
1.4263586e+000
1.4543577e+000
1.4639885e+000
1.4596560e+000
1.4590760e+000
1.4811869e+000
1.5237886e+000
1.5733964e+000
1.6145937e+000
1.6353499e+000
1.6380119e+000
1.6318589e+000
1.6228828e+000
1.6148566e+000
1.6092286e+000
1.6055156e+000
1.5991395e+000
1.5835750e+000
1.5542222e+000
1.5097382e+000
1.4589465e+000
1.4146888e+000
1.3834971e+000
1.3671321e+000
1.3619020e+000
1.3635634e+000
1.3762680e+000
1.4091192e+000
1.4729295e+000
1.5733540e+000
1.6911834e+000
1.7960891e+000
1.8680714e+000
1.8966070e+000
1.8823491e+000
1.8302494e+000
1.7389349e+000
1.6107264e+000
1.4812640e+000
1.4007738e+000
1.3998811e+000
1.4842266e+000
1.6036714e+000
1.6834397e+000
1.6751194e+000
1.5599880e+000
1.3728932e+000
1.1751828e+000
1.0159596e+000
9.2604452e-001
8.9769167e-001
9.0282476e-001
9.1873097e-001
9.3234986e-001
9.5030326e-001
9.8600739e-001
1.0336838e+000
1.0744278e+000
1.0869446e+000
1.0550010e+000
9.8729742e-001
9.0589666e-001
8.2604426e-001
7.5813210e-001
7.1599448e-001
7.1354324e-001
7.5297803e-001
8.2344431e-001
8.8938379e-001
9.0726399e-001
8.6286283e-001
7.6659191e-001
6.5019029e-001
5.5397236e-001
5.0614727e-001
5.1954651e-001
5.7794631e-001
6.4641559e-001
6.8493915e-001
6.6012025e-001
5.7410562e-001
4.5328698e-001
3.2897171e-001
2.2887011e-001
1.6200948e-001
1.2652203e-001
1.2705120e-001
1.7072000e-001
2.4982171e-001
3.4427580e-001
4.2580399e-001
4.6639684e-001
4.5844144e-001
4.1145122e-001
3.4777001e-001
2.9611662e-001
2.8240612e-001
3.2231951e-001
3.9763242e-001
4.7423339e-001
5.5083704e-001
6.4995408e-001
7.8529799e-001
9.4905293e-001
1.0778737e+000
1.0849111e+000
9.4935721e-001
7.1107268e-001
4.5095500e-001
2.4812067e-001
6.9963314e-002
-1.7361295e-001
-4.5347244e-001
-6.5342563e-001
-7.0598090e-001
-6.0702753e-001
-4.1999400e-001
-2.4592428e-001
-1.6115984e-001
-1.9841383e-001
-3.0048239e-001
-3.5937878e-001
-3.2667202e-001
-2.1999314e-001
-1.1466378e-001
-1.0385536e-001
-1.9667320e-001
-3.2662743e-001
-3.9694193e-001
-3.0512381e-001
1.6742796e-002
5.8835638e-001
1.3374316e+000
2.1289732e+000
2.8489120e+000
3.4391387e+000
3.9801099e+000
4.6594663e+000
5.6759434e+000
7.2113104e+000
9.4012899e+000
1.2281967e+001
1.5591001e+001
1.8868740e+001
2.1826157e+001
2.4413561e+001
2.6885115e+001
2.9678835e+001
3.3074631e+001
3.7093037e+001
4.1314041e+001
4.5088215e+001
4.8282974e+001
5.1262363e+001
5.4435204e+001
5.8097385e+001
6.2203430e+001
6.6442245e+001
7.0580139e+001
7.4502708e+001
7.8129173e+001
8.1404816e+001
8.4363091e+001
8.7112656e+001
8.9758339e+001
9.2329277e+001
9.4565231e+001
9.6015961e+001
9.6520279e+001
9.6218033e+001
9.5260498e+001
9.3734009e+001
9.1624786e+001
8.8873199e+001
8.5588303e+001
8.2022453e+001
7.8315781e+001
7.4468872e+001
7.0454361e+001
6.6258850e+001
6.1948566e+001
5.7662792e+001
5.3525684e+001
4.9631657e+001
4.6066769e+001
4.2897831e+001
4.0121716e+001
3.7674023e+001
3.5504330e+001
3.3591824e+001
3.1929096e+001
3.0511644e+001
2.9313999e+001
2.8290358e+001
2.7402863e+001
2.6633556e+001
2.5996706e+001
2.5532122e+001
2.5262949e+001
2.5191700e+001
2.5323769e+001
2.5671061e+001
2.6241686e+001
2.7026499e+001
2.7959682e+001
2.8926764e+001
2.9848240e+001
3.0699078e+001
3.1500896e+001
3.2344570e+001
3.3487217e+001
3.5279690e+001
3.7722443e+001
4.0411358e+001
4.2886536e+001
4.4786655e+001
4.6103561e+001
4.7169857e+001
4.8218090e+001
4.9270653e+001
5.0228222e+001
5.0913406e+001
5.1188343e+001
5.1003395e+001
5.0448818e+001
4.9732529e+001
4.8979301e+001
4.8184052e+001
4.7286503e+001
4.6198143e+001
4.4860558e+001
4.3272942e+001
4.1512657e+001
3.9708309e+001
3.7846878e+001
3.5745533e+001
3.3252480e+001
3.0340294e+001
2.7219240e+001
2.4308302e+001
2.1829012e+001
1.9699739e+001
1.7748428e+001
1.5788035e+001
1.3717398e+001
1.1548783e+001
9.3217402e+000
7.0914950e+000
4.9741158e+000
3.1416187e+000
1.6950778e+000
6.5021420e-001
1.0561600e-001
2.3759517e-001
9.7305757e-001
1.9307261e+000
2.8354795e+000
3.6413343e+000
4.3886833e+000
5.1486983e+000
5.9057789e+000
6.5267534e+000
6.8765402e+000
6.8763194e+000
6.5926142e+000
6.2450700e+000
5.9611187e+000
5.7053180e+000
5.4320292e+000
5.1304998e+000
4.8023310e+000
4.4526834e+000
4.0701356e+000
3.6262925e+000
3.1260862e+000
2.6254163e+000
2.1930079e+000
1.8941436e+000
1.7621988e+000
1.7838639e+000
1.9187949e+000
2.1057308e+000
2.2945142e+000
2.4615300e+000
2.6126022e+000
2.7847996e+000
3.0095410e+000
3.2985520e+000
3.6496451e+000
4.0454459e+000
4.4578161e+000
4.8489461e+000
5.1853642e+000
5.4452434e+000
5.6232343e+000
5.7321296e+000
5.7759995e+000
5.7411551e+000
5.6171465e+000
5.4061809e+000
5.1258445e+000
4.8105168e+000
4.4850287e+000
4.1549749e+000
3.8247180e+000
3.5016775e+000
3.1864674e+000
2.8665106e+000
2.5183353e+000
2.1119168e+000
1.6499754e+000
1.1873906e+000
7.8087586e-001
4.6651065e-001
2.4400103e-001
6.7414477e-002
-9.3253709e-002
-2.2505608e-001
-2.9798278e-001
-2.7567923e-001
-1.5344353e-001
2.0214178e-002
1.8640286e-001
2.9418954e-001
3.2675251e-001
3.1943488e-001
3.1442708e-001
3.4451264e-001
4.3249401e-001
5.8658183e-001
8.0278528e-001
1.0608605e+000
1.3291500e+000
1.5650437e+000
1.7362086e+000
1.8337141e+000
1.8645757e+000
1.8531121e+000
1.8220257e+000
1.7841671e+000
1.7486851e+000
1.7226632e+000
1.7132286e+000
1.7278353e+000
1.7715989e+000
1.8448417e+000
1.9437120e+000
2.0589023e+000
2.1799848e+000
2.2976525e+000
2.4090085e+000
2.5216427e+000
2.6449871e+000
2.7872541e+000
2.9552822e+000
3.1550415e+000
3.3952153e+000
3.6893215e+000
4.0464730e+000
4.4651494e+000
4.9363122e+000
5.4424844e+000
5.9692316e+000
6.5126047e+000
7.0749211e+000
7.6653385e+000
8.2894011e+000
8.9420748e+000
9.6099472e+000
1.0268677e+001
1.0891514e+001
1.1449922e+001
1.1918958e+001
1.2281393e+001
1.2526959e+001
1.2652350e+001
1.2661451e+001
1.2564221e+001
1.2369914e+001
1.2084802e+001
1.1712866e+001
1.1258320e+001
1.0728200e+001
1.0136741e+001
9.5002604e+000
8.8384819e+000
8.1692095e+000
7.5058413e+000
6.8536758e+000
6.2039170e+000
5.5449891e+000
4.8674488e+000
4.1731644e+000
3.4868035e+000
2.8391559e+000
2.2622709e+000
1.7770097e+000
1.3799729e+000
1.0591692e+000
7.9778892e-001
5.8325565e-001
4.1546792e-001
2.9714799e-001
2.3042592e-001
2.1388362e-001
2.3783185e-001
2.8465274e-001
3.2403764e-001
3.2747740e-001
2.7899790e-001
1.7977482e-001
6.2254764e-002
-3.9704941e-002
-1.0717931e-001
-1.3587064e-001
-1.4594813e-001
-1.5535960e-001
-1.6309142e-001
-1.5890761e-001
-1.2256958e-001
-3.9880086e-002
8.3804697e-002
2.3996286e-001
4.2442921e-001
6.4118135e-001
9.1047287e-001
1.2503337e+000
1.6630635e+000
2.1389942e+000
2.6484132e+000
3.1624479e+000
3.6666684e+000
4.1524844e+000
4.6169147e+000
5.0549941e+000
5.4542284e+000
5.8088989e+000
6.1350851e+000
6.4541950e+000
6.7867827e+000
7.1447372e+000
7.5175514e+000
7.8930144e+000
8.2684345e+000
8.6437654e+000
9.0199757e+000
9.3923311e+000
9.7407379e+000
1.0046317e+001
1.0302830e+001
1.0516760e+001
1.0713000e+001
1.0913614e+001
1.1119682e+001
1.1316239e+001
1.1467564e+001
1.1542246e+001
1.1535257e+001
1.1458800e+001
1.1349314e+001
1.1246098e+001
1.1175181e+001
1.1144285e+001
1.1126823e+001
1.1080963e+001
1.0949940e+001
1.0690720e+001
1.0309750e+001
9.8376770e+000
9.3368034e+000
8.8644085e+000
8.4347992e+000
8.0448704e+000
7.6716695e+000
7.2937999e+000
6.9088521e+000
6.5188894e+000
6.1257582e+000
5.7319508e+000
5.3409419e+000
4.9560289e+000
4.5795751e+000
4.2136545e+000
3.8603020e+000
3.5235827e+000
3.2128000e+000
2.9359040e+000
2.6923420e+000
2.4766092e+000
2.2732725e+000
2.0660307e+000
1.8427898e+000
1.5936215e+000
1.3117239e+000
9.9279690e-001
6.3696492e-001
2.5545844e-001
-1.0853788e-001
-4.0386200e-001
-5.7988697e-001
-6.0165340e-001
-4.8527774e-001
-2.6175225e-001
3.0574620e-002
3.5233778e-001
6.6684580e-001
9.3774128e-001
1.1279650e+000
1.2127855e+000
1.2096902e+000
1.1492703e+000
1.0704930e+000
1.0027260e+000
9.3485492e-001
8.4399998e-001
7.0201230e-001
4.9922776e-001
2.9477108e-001
1.3945881e-001
-5.5982023e-003
-1.7459017e-001
-3.0534980e-001
-3.3695456e-001
-2.9988429e-001
-2.4425294e-001
-2.0865123e-001
-2.2133583e-001
-2.8271022e-001
-3.8223863e-001
-4.9422643e-001
-5.9071535e-001
-6.4965385e-001
-6.5900946e-001
-6.3936186e-001
-6.1715680e-001
-6.1005461e-001
-6.1917585e-001
-5.9012783e-001
-4.7632486e-001
-3.1646690e-001
-1.7151254e-001
-1.0620452e-001
-1.8625000e-001
