Image.
>Pix99999.
  .
5555
5555
2300
900
5555
2
1
0
701
5555
4.1986000e-002
4.2858753e-002
4.3732502e-002
4.4606250e-002
4.5479003e-002
4.6352748e-002
4.7226500e-002
4.8099261e-002
4.8973002e-002
4.9846750e-002
5.0720502e-002
5.1593266e-002
5.2467000e-002
5.3340752e-002
5.4213520e-002
5.5087250e-002
5.5960998e-002
5.6833774e-002
5.7707500e-002
5.8581252e-002
5.9455000e-002
6.0327783e-002
6.1201502e-002
6.2075250e-002
6.2948033e-002
6.3821755e-002
3.0933877e-002
1.1441829e-003
-4.3070402e-002
-7.3279932e-002
-1.0132906e-001
-6.4692318e-002
-2.0943748e-002
7.8015491e-002
1.7958942e-001
2.8103101e-001
3.7834910e-001
4.5696193e-001
5.0757080e-001
4.7598132e-001
3.9498627e-001
2.1618634e-001
3.9172702e-002
-1.2550619e-001
-2.5357628e-001
-3.3695534e-001
-4.1925594e-001
-5.0325453e-001
-5.9043795e-001
-6.7992610e-001
-7.1855217e-001
-7.2775251e-001
-6.4524347e-001
-5.2337700e-001
-3.8246053e-001
-2.3621351e-001
-1.5832040e-001
-9.6238814e-002
-1.1794778e-001
-1.5288618e-001
-2.5770399e-001
-3.6756384e-001
-4.6212161e-001
-5.4562789e-001
-5.7402164e-001
-5.9221363e-001
-5.9272784e-001
-5.9402972e-001
-6.0188138e-001
-6.0381877e-001
-5.9332001e-001
-5.6542546e-001
-5.1418859e-001
-4.6262923e-001
-4.1346788e-001
-3.6730787e-001
-3.2358611e-001
-2.7105811e-001
-2.1220003e-001
-1.5729943e-001
-1.0490091e-001
-1.0444817e-001
-1.2581119e-001
-2.4334724e-001
-3.9093962e-001
-5.4266977e-001
-6.9480026e-001
-7.5954753e-001
-8.0857903e-001
-8.2375026e-001
-8.3126587e-001
-8.1752050e-001
-7.9305983e-001
-7.3479986e-001
-6.8363237e-001
-6.6878933e-001
-7.0319641e-001
-8.3442318e-001
-9.9340683e-001
-1.1748357e+000
-1.3111428e+000
-1.3840946e+000
-1.4158531e+000
-1.4144123e+000
-1.4262714e+000
-1.4530649e+000
-1.4904094e+000
-1.5334048e+000
-1.5106692e+000
-1.4528699e+000
-1.3072472e+000
-1.1268247e+000
-1.0303160e+000
-9.6202016e-001
-1.1055919e+000
-1.3005699e+000
-1.5088674e+000
-1.7034587e+000
-1.7345854e+000
-1.7244400e+000
-1.6644828e+000
-1.6004727e+000
-1.5570668e+000
-1.5131072e+000
-1.4570628e+000
-1.4240286e+000
-1.4404199e+000
-1.5145148e+000
-1.6618686e+000
-1.8226485e+000
-1.9831557e+000
-2.0872951e+000
-2.1368570e+000
-2.0923979e+000
-1.9813925e+000
-1.8301486e+000
-1.6601309e+000
-1.5570097e+000
-1.4900820e+000
-1.5027244e+000
-1.5470600e+000
-1.6161734e+000
-1.6927395e+000
-1.7663281e+000
-1.8366411e+000
-1.8667779e+000
-1.8791308e+000
-1.8372970e+000
-1.7834114e+000
-1.7360488e+000
-1.7146715e+000
-1.7660863e+000
-1.8602469e+000
-2.0108230e+000
-2.1420379e+000
-2.2167044e+000
-2.2141354e+000
-2.1226201e+000
-2.0237880e+000
-1.9390030e+000
-1.9018857e+000
-1.9056400e+000
-1.8434557e+000
-1.7240946e+000
-1.5578091e+000
-1.3684636e+000
-1.3876666e+000
-1.5191970e+000
-1.7672039e+000
-2.0600233e+000
-2.1767743e+000
-2.2254338e+000
-2.1638622e+000
-2.0713136e+000
-2.0082731e+000
-1.9643750e+000
-1.9736629e+000
-2.0071719e+000
-2.0720048e+000
-2.1244929e+000
-2.1203258e+000
-2.0827222e+000
-2.0105240e+000
-1.9635454e+000
-1.9717492e+000
-1.9871700e+000
-1.9911609e+000
-1.9359227e+000
-1.8207606e+000
-1.7366980e+000
-1.6951857e+000
-1.6830097e+000
-1.6858366e+000
-1.6453190e+000
-1.5745075e+000
-1.5716079e+000
-1.6087680e+000
-1.6773390e+000
-1.7588360e+000
-1.7055470e+000
-1.5941714e+000
-1.4197989e+000
-1.2336180e+000
-1.1346530e+000
-1.1014286e+000
-1.2092378e+000
-1.3958902e+000
-1.6634138e+000
-1.9438125e+000
-2.1851258e+000
-2.3288002e+000
-2.3149548e+000
-2.1307533e+000
-1.7672000e+000
-1.4132017e+000
-1.1435728e+000
-1.1272479e+000
-1.3552179e+000
-1.6412165e+000
-1.9214503e+000
-2.0566628e+000
-2.0795579e+000
-1.9772300e+000
-1.8041853e+000
-1.5537040e+000
-1.2626786e+000
-1.1131577e+000
-1.0456436e+000
-1.2297388e+000
-1.5254471e+000
-1.7581371e+000
-1.9184310e+000
-1.8449931e+000
-1.6240178e+000
-1.2509183e+000
-8.7199193e-001
-6.5969592e-001
-6.4625710e-001
-9.0889740e-001
-1.2857181e+000
-1.6709343e+000
-1.9640288e+000
-2.1184666e+000
-2.1701281e+000
-2.1536322e+000
-2.0561352e+000
-1.8954138e+000
-1.6225491e+000
-1.2612664e+000
-8.6110842e-001
-4.4511718e-001
-1.3944289e-001
8.4371112e-002
1.3918181e-001
9.1338322e-002
8.7112188e-004
-1.0379317e-001
-1.0997544e-001
-3.7018437e-002
2.0272106e-001
5.3127146e-001
8.6009765e-001
1.0896254e+000
1.0005686e+000
7.3137468e-001
3.9617351e-001
1.4051837e-001
1.0658406e-001
4.9698688e-002
-3.3824265e-002
-4.6630837e-003
1.4439814e-001
5.7367659e-001
1.2959697e+000
2.0671899e+000
2.7930465e+000
3.0844998e+000
2.9707241e+000
2.7628694e+000
2.5476103e+000
2.6508000e+000
3.0016642e+000
3.0148571e+000
2.7521832e+000
1.9558080e+000
8.5080397e-001
1.0278999e-001
-2.7943891e-001
1.0773942e-001
1.1225283e+000
2.6083143e+000
4.1755781e+000
5.2454095e+000
6.0092454e+000
6.6876502e+000
7.6333699e+000
9.1728096e+000
1.1466904e+001
1.4550740e+001
1.8087200e+001
2.1803715e+001
2.5034679e+001
2.7578888e+001
2.9919085e+001
3.2268387e+001
3.5433464e+001
3.9420609e+001
4.3931789e+001
4.8782322e+001
5.2861835e+001
5.6253887e+001
5.9733791e+001
6.3367329e+001
6.7627441e+001
7.2343231e+001
7.6951904e+001
8.1408264e+001
8.5543083e+001
8.9359245e+001
9.2843979e+001
9.6040146e+001
9.9024353e+001
1.0159820e+002
1.0354787e+002
1.0415498e+002
1.0284607e+002
1.0028126e+002
9.7124557e+001
9.3739960e+001
9.0385620e+001
8.6533272e+001
8.2014526e+001
7.7252640e+001
7.2425217e+001
6.7985786e+001
6.3989746e+001
6.0005119e+001
5.5963268e+001
5.1919605e+001
4.7882545e+001
4.3909969e+001
4.0035118e+001
3.6493675e+001
3.3336891e+001
3.0725771e+001
2.8630108e+001
2.6863256e+001
2.5407555e+001
2.4170879e+001
2.3173706e+001
2.2411499e+001
2.1874649e+001
2.1516251e+001
2.1296259e+001
2.1155596e+001
2.1139471e+001
2.1270863e+001
2.1633091e+001
2.2257839e+001
2.3195393e+001
2.4447886e+001
2.5889065e+001
2.7465021e+001
2.8927078e+001
3.0220039e+001
3.1373014e+001
3.2396595e+001
3.3707890e+001
3.5415764e+001
3.8019783e+001
4.1477985e+001
4.4626671e+001
4.7282566e+001
4.9029999e+001
5.0042191e+001
5.1204144e+001
5.2570084e+001
5.4185726e+001
5.5509041e+001
5.5668365e+001
5.4621971e+001
5.2523876e+001
5.0057304e+001
4.7985645e+001
4.6315388e+001
4.5034500e+001
4.3883686e+001
4.2699112e+001
4.1175652e+001
3.9145454e+001
3.6933971e+001
3.4629356e+001
3.2456039e+001
3.0488909e+001
2.8140585e+001
2.5270094e+001
2.2255629e+001
1.9135548e+001
1.6540514e+001
1.4550920e+001
1.2714714e+001
1.1048214e+001
9.4430580e+000
7.8895988e+000
6.3156657e+000
4.7179585e+000
3.0994139e+000
1.6258183e+000
5.5880606e-001
-9.6009821e-003
2.4392277e-002
6.0914105e-001
1.5457840e+000
2.4582410e+000
3.0844927e+000
3.5638151e+000
3.9688435e+000
4.5253906e+000
5.3737555e+000
6.3084760e+000
7.2905202e+000
7.8914614e+000
7.8822832e+000
7.6183963e+000
7.0180554e+000
6.4274182e+000
5.8628583e+000
5.3788381e+000
5.0208278e+000
4.7996159e+000
4.7196302e+000
4.6123819e+000
4.4371147e+000
4.1176991e+000
3.7089779e+000
3.3921106e+000
3.2161920e+000
3.2397294e+000
3.4128563e+000
3.6502595e+000
3.8996286e+000
4.1017408e+000
4.2804532e+000
4.4581575e+000
4.6477585e+000
4.8641372e+000
5.1182618e+000
5.4293714e+000
5.7745881e+000
6.1653452e+000
6.4784069e+000
6.6361899e+000
6.6756668e+000
6.5149436e+000
6.3107929e+000
6.0382152e+000
5.7358599e+000
5.4008369e+000
5.0862699e+000
4.8031397e+000
4.5493054e+000
4.3083682e+000
4.0071201e+000
3.6404209e+000
3.2262869e+000
2.7851186e+000
2.3665810e+000
1.9677846e+000
1.5838525e+000
1.2148440e+000
8.6461288e-001
5.4251933e-001
2.7518761e-001
7.0875667e-002
-4.5057945e-002
-1.0240061e-001
2.2159956e-002
2.4000293e-001
6.1716652e-001
9.5377022e-001
1.1842172e+000
1.2780837e+000
1.1247091e+000
9.5072913e-001
7.6258546e-001
6.6808140e-001
7.2541112e-001
9.0206230e-001
1.2260423e+000
1.5951202e+000
1.9810801e+000
2.2719555e+000
2.4528189e+000
2.5276098e+000
2.5178523e+000
2.4704566e+000
2.3927493e+000
2.2869120e+000
2.1708605e+000
2.0579123e+000
1.9786428e+000
1.9873011e+000
2.0592275e+000
2.2459271e+000
2.4554958e+000
2.6813192e+000
2.8913610e+000
3.0564413e+000
3.2079628e+000
3.3260231e+000
3.4134943e+000
3.4433100e+000
3.4577365e+000
3.4565625e+000
3.4949143e+000
3.6013830e+000
3.7837200e+000
4.0703588e+000
4.4448118e+000
4.9104190e+000
5.4150972e+000
5.9372606e+000
6.4146047e+000
6.8517957e+000
7.2451077e+000
7.6235747e+000
8.0236902e+000
8.4367294e+000
8.8648453e+000
9.2633162e+000
9.5511618e+000
9.7558584e+000
9.7570677e+000
9.6924667e+000
9.4807863e+000
9.2276659e+000
8.8636885e+000
8.4491739e+000
7.9145403e+000
7.3552213e+000
6.7516456e+000
6.1661677e+000
5.6169128e+000
5.1087952e+000
4.6583662e+000
4.2265611e+000
3.8110862e+000
3.3788674e+000
2.9316463e+000
2.4832718e+000
2.0330215e+000
1.5780476e+000
1.1232207e+000
6.8028700e-001
2.6950300e-001
-2.9928967e-002
-2.6202783e-001
-3.6719280e-001
-4.2562112e-001
-4.1019559e-001
-3.6238199e-001
-2.2406295e-001
-8.6339638e-002
2.4942324e-002
7.6784804e-002
-5.0321609e-002
-1.7767392e-001
-2.9529911e-001
-3.3326817e-001
-2.1519688e-001
-8.2252339e-002
6.7355916e-002
1.7537761e-001
2.2428679e-001
2.3565860e-001
2.0306750e-001
1.4028667e-001
5.9367634e-002
1.5792612e-002
1.7339297e-002
1.2730142e-001
2.9809418e-001
5.4057813e-001
8.2445192e-001
1.1819731e+000
1.5725785e+000
2.0312872e+000
2.4768341e+000
2.7889640e+000
3.0340533e+000
2.9869885e+000
2.9224100e+000
2.8087370e+000
2.7486167e+000
2.8604820e+000
3.0174448e+000
3.2832606e+000
3.5481427e+000
3.8152049e+000
4.1147847e+000
4.4769855e+000
4.9401345e+000
5.5269017e+000
6.1274524e+000
6.7309394e+000
7.2621899e+000
7.7362089e+000
8.1911421e+000
8.6220007e+000
8.9616089e+000
9.2359114e+000
9.3356676e+000
9.3558016e+000
9.2124786e+000
9.0087843e+000
8.6283665e+000
8.2318153e+000
7.8853226e+000
7.5860176e+000
7.5758200e+000
7.5932140e+000
7.7285428e+000
7.8382874e+000
7.8659849e+000
7.8737001e+000
7.8364716e+000
7.8238149e+000
7.8565903e+000
7.8947005e+000
7.9390979e+000
7.9709902e+000
7.9888549e+000
8.0066481e+000
8.0131845e+000
7.9035425e+000
7.6937428e+000
7.2711592e+000
6.7285957e+000
6.0903254e+000
5.4241190e+000
4.8526397e+000
4.3222380e+000
3.9627826e+000
3.6424770e+000
3.4370039e+000
3.2457199e+000
3.1085308e+000
2.9658897e+000
2.7823241e+000
2.5716352e+000
2.2415929e+000
1.9079220e+000
1.5664371e+000
1.2804908e+000
1.1244452e+000
1.0204192e+000
1.0048858e+000
9.5914823e-001
8.6862499e-001
6.9743598e-001
4.4368401e-001
1.9882038e-001
-3.1773612e-002
-1.3203532e-001
-1.4666900e-001
-3.6303334e-002
1.3313888e-001
3.5599890e-001
5.9399074e-001
7.9040420e-001
9.6807200e-001
9.2596388e-001
8.4783280e-001
5.4117656e-001
2.3665814e-001
9.5193446e-002
5.2481744e-004
9.9442005e-003
3.1747487e-001
7.8763545e-001
1.2272201e+000
1.5770525e+000
1.9129969e+000
2.2208457e+000
2.5781865e+000
3.0136499e+000
3.4111419e+000
3.7598865e+000
3.9556241e+000
4.0085797e+000
4.0067201e+000
3.9672980e+000
4.0142593e+000
4.1065760e+000
4.1740007e+000
4.2320423e+000
4.2518578e+000
4.2634826e+000
4.6324201e+000
5.0591125e+000
5.6269999e+000
