##TITLE=Methyl Ethyl Ketone
##JCAMP-DX=4.24
##DATA TYPE=INFRARED SPECTRUM
##XUNITS=cm-1
##YUNITS=Absorbance
##FIRSTX=900
##LASTX=2300
##XYDATA=(X++(Y..Y))
2296 0.0051151002
2294 0.0052214479
2292 0.0053278953
2290 0.0054343431
2288 0.005540791
2286 0.0056471392
2284 0.0057535865
2282 0.0058601331
2280 0.005966384
2278 0.0060722372
2276 0.0061792685
2274 0.00628789
2272 0.006392112
2270 0.0064900802
2268 0.0066047958
2266 0.0067424364
2264 0.0068184901
2262 0.0068082963
2260 0.0070275068
2258 0.0075681768
2256 0.0072560203
2254 0.0057452279
2252 0.0074042603
2250 0.013533644
2248 0.0078807222
2246 -0.015392725
2244 -0.00060346001
2242 0.10386313
2240 0.26383802
2238 0.42588699
2236 0.55701941
2234 0.63766134
2232 0.67787999
2230 0.69291329
2228 0.68483591
2226 0.6541515
2224 0.61075646
2222 0.56763023
2220 0.53883219
2218 0.53591245
2216 0.55905253
2214 0.60459417
2212 0.66705823
2210 0.73959219
2208 0.81170487
2206 0.87669653
2204 0.94761407
2202 1.0406423
2200 1.1596097
2198 1.298937
2196 1.4284929
2194 1.5166925
2192 1.5544668
2190 1.5461859
2188 1.5202906
2186 1.5108286
2184 1.5429519
2182 1.6305841
2180 1.7532932
2178 1.8800873
2176 1.9809486
2174 2.0349514
2172 2.0541563
2170 2.061151
2168 2.076237
2166 2.1147115
2164 2.1772807
2162 2.2587271
2160 2.3515685
2158 2.4450736
2156 2.5183802
2154 2.5506599
2152 2.5337629
2150 2.471487
2148 2.3968024
2146 2.3478179
2144 2.3437915
2142 2.3899131
2140 2.463398
2138 2.5328467
2136 2.5719543
2134 2.5649464
2132 2.5310109
2130 2.5027251
2128 2.5159559
2126 2.5934935
2124 2.69907
2122 2.7816691
2120 2.8177285
2118 2.8038683
2116 2.7740242
2114 2.76565
2112 2.7751622
2110 2.785198
2108 2.7863269
2106 2.7759287
2104 2.7653263
2102 2.7658813
2100 2.7674041
2098 2.755065
2096 2.7299428
2094 2.7029099
2092 2.6986582
2090 2.7384286
2088 2.8069434
2086 2.8740551
2084 2.9086936
2082 2.8888717
2080 2.8302052
2078 2.7611156
2076 2.7015672
2074 2.6648171
2072 2.6524599
2070 2.6622531
2068 2.6933651
2066 2.7422063
2064 2.7903285
2062 2.8161063
2060 2.8108869
2058 2.7745719
2056 2.718863
2054 2.6587579
2052 2.6033812
2050 2.5613406
2048 2.5502033
2046 2.5882356
2044 2.6795201
2042 2.8167202
2040 2.9704108
2038 3.1052692
2036 3.19941
2034 3.2423058
2032 3.2437127
2030 3.221297
2028 3.1911535
2026 3.1651828
2024 3.1433189
2022 3.1202993
2020 3.0895269
2018 3.0458336
2016 2.9898
2014 2.9257135
2012 2.8624394
2010 2.8095961
2008 2.7711027
2006 2.7474673
2004 2.7362354
2002 2.735585
2000 2.7530119
1998 2.7982953
1996 2.8711357
1994 2.9621935
1992 3.0441325
1990 3.086987
1988 3.0848401
1986 3.0459964
1984 2.9900041
1982 2.9370282
1980 2.8891087
1978 2.8408618
1976 2.7935429
1974 2.7524621
1972 2.72457
1970 2.714911
1968 2.7188303
1966 2.7282722
1964 2.7404647
1962 2.7561395
1960 2.777808
1958 2.8063848
1956 2.8345215
1954 2.8519313
1952 2.8544948
1950 2.8436599
1948 2.8287032
1946 2.8211501
1944 2.8252897
1942 2.840997
1940 2.8658342
1938 2.8953264
1936 2.91922
1934 2.9248741
1932 2.9032919
1930 2.8533797
1928 2.7982256
1926 2.7700686
1924 2.7854397
1922 2.844393
1920 2.9171062
1918 2.9634719
1916 2.9669614
1914 2.9276612
1912 2.8571942
1910 2.7722077
1908 2.6896653
1906 2.62589
1904 2.596364
1902 2.6125853
1900 2.669981
1898 2.7547879
1896 2.8519428
1894 2.9472661
1892 3.0305452
1890 3.0941541
1888 3.1303566
1886 3.1325307
1884 3.0996132
1882 3.0361211
1880 2.9588525
1878 2.8910801
1876 2.8536098
1874 2.8606193
1872 2.9058611
1870 2.9692433
1868 3.022995
1866 3.0419958
1864 3.0274441
1862 2.9960189
1860 2.9612377
1858 2.9299231
1856 2.8942001
1854 2.8419325
1852 2.779902
1850 2.72631
1848 2.69438
1846 2.6874464
1844 2.6847529
1842 2.6553929
1840 2.5875852
1838 2.487824
1836 2.3850913
1834 2.3164549
1832 2.2986662
1830 2.3272204
1828 2.3671966
1826 2.3715305
1824 2.3188114
1822 2.211323
1820 2.0763681
1818 1.9517789
1816 1.8582114
1814 1.8006272
1812 1.7693971
1810 1.7486957
1808 1.7314818
1806 1.71657
1804 1.6997311
1802 1.6755036
1800 1.6464286
1798 1.6214324
1796 1.6127928
1794 1.6284357
1792 1.650008
1790 1.6470745
1788 1.6148311
1786 1.56766
1784 1.5172051
1782 1.4688292
1780 1.4191709
1778 1.358657
1776 1.2749885
1774 1.1551476
1772 0.98869258
1770 0.77392882
1768 0.54001254
1766 0.33357063
1764 0.18206939
1762 0.088991836
1760 0.023636835
1758 -0.056669109
1756 -0.14663079
1754 -0.20687063
1752 -0.21504629
1750 -0.1735433
1748 -0.11797522
1746 -0.099688642
1744 -0.14106485
1742 -0.23319596
1740 -0.33554339
1738 -0.39619383
1736 -0.40375
1734 -0.38303646
1732 -0.37276146
1730 -0.40714124
1728 -0.47288185
1726 -0.51870078
1724 -0.48857483
1722 -0.3353205
1720 -0.0449071
1718 0.36922941
1716 0.88363975
1714 1.4629714
1712 2.0354776
1710 2.5277615
1708 2.9900398
1706 3.5798144
1704 4.4803381
1702 5.8802919
1700 7.971611
1698 10.870155
1696 14.323143
1694 17.814409
1692 20.980892
1690 23.702602
1688 26.202932
1686 28.926201
1684 32.175694
1682 36.003506
1680 40.024158
1678 43.621845
1676 46.683571
1674 49.574463
1672 52.665764
1670 56.186768
1668 60.03001
1666 63.846249
1664 67.43219
1662 70.759064
1660 73.827583
1658 76.646103
1656 79.274971
1654 81.816727
1652 84.355156
1650 86.899048
1648 89.213425
1646 90.905746
1644 91.833092
1642 92.109734
1640 91.841972
1638 91.067703
1636 89.743057
1634 87.792076
1632 85.295212
1630 82.465553
1628 79.428932
1626 76.190819
1624 72.701355
1622 68.903938
1620 64.849304
1618 60.695538
1616 56.613144
1614 52.756195
1612 49.234783
1610 46.104153
1608 43.347275
1606 40.889328
1604 38.677505
1602 36.697491
1600 34.954361
1598 33.459042
1596 32.1945
1594 31.113934
1592 30.168045
1590 29.317976
1588 28.557564
1586 27.910172
1584 27.399246
1582 27.04372
1580 26.862495
1578 26.872561
1576 27.078629
1574 27.46991
1572 28.020786
1570 28.696405
1568 29.467201
1566 30.312622
1564 31.219082
1562 32.205647
1560 33.437866
1558 35.173923
1556 37.384056
1554 39.712128
1552 41.808411
1550 43.453182
1548 44.68856
1546 45.792465
1544 46.938709
1542 48.114639
1540 49.204323
1538 50.029819
1536 50.476688
1534 50.533554
1532 50.28764
1530 49.893368
1528 49.40781
1526 48.763451
1524 47.895187
1522 46.780285
1520 45.45364
1518 44.003124
1516 42.519455
1514 41.060341
1512 39.556839
1510 37.811348
1508 35.664673
1506 33.072266
1504 30.189463
1502 27.351391
1500 24.753254
1498 22.36973
1496 20.109285
1494 17.864531
1492 15.574492
1490 13.24011
1488 10.873866
1486 8.5015583
1484 6.2229719
1482 4.210783
1480 2.5699401
1478 1.3134186
1476 0.50334942
1474 0.25719136
1472 0.53700316
1470 1.1024563
1468 1.7329886
1466 2.3039551
1464 2.7874641
1462 3.2481143
1460 3.7355917
1458 4.2488265
1456 4.7480998
1454 5.1636529
1452 5.4529548
1450 5.6177783
1448 5.667027
1446 5.6072216
1444 5.4506087
1442 5.2167788
1440 4.9222097
1438 4.573092
1436 4.1531658
1434 3.6268067
1432 2.9981263
1430 2.3325768
1428 1.711972
1426 1.2167003
1424 0.8955403
1422 0.75167114
1420 0.76735604
1418 0.90877831
1416 1.1350887
1414 1.403944
1412 1.6921138
1410 2.005146
1408 2.3602967
1406 2.78036
1404 3.2770121
1402 3.8409655
1400 4.4417038
1398 5.0251632
1396 5.5364642
1394 5.9311285
1392 6.1903024
1390 6.3286414
1388 6.3614326
1386 6.2938747
1384 6.13025
1382 5.8777313
1380 5.5521784
1378 5.1803842
1376 4.7847657
1374 4.3782897
1372 3.9760942
1370 3.5964851
1368 3.2406304
1366 2.8822744
1364 2.4889221
1362 2.0342724
1360 1.5314314
1358 1.0491774
1356 0.64930254
1354 0.35825062
1352 0.16888298
1350 0.037286349
1348 -0.066083021
1346 -0.13405107
1344 -0.1472788
1342 -0.083766587
1340 0.0573617
1338 0.24150018
1336 0.42354
1334 0.55838227
1332 0.62547398
1330 0.64496481
1328 0.6492061
1326 0.67408335
1324 0.74763519
1322 0.8820523
1320 1.0769086
1318 1.3155494
1316 1.5713799
1314 1.808664
1312 1.9978286
1310 2.1258078
1308 2.1945591
1306 2.2250807
1304 2.2379982
1302 2.2454779
1300 2.2540414
1298 2.2637861
1296 2.2754285
1294 2.2924817
1292 2.3172858
1290 2.3489313
1288 2.386868
1286 2.4328315
1284 2.4920084
1282 2.5743396
1280 2.6884177
1278 2.8374135
1276 3.0178256
1274 3.216958
1272 3.4219303
1270 3.6261368
1268 3.8356764
1266 4.0774078
1264 4.3796496
1262 4.7622337
1260 5.2288098
1258 5.757895
1256 6.32762
1254 6.9282055
1252 7.5600953
1250 8.2367277
1248 8.9654913
1246 9.7353001
1244 10.523632
1242 11.294886
1240 12.017365
1238 12.667907
1236 13.228514
1234 13.689501
1232 14.0358
1230 14.242994
1228 14.292926
1226 14.185435
1224 13.932766
1222 13.558049
1220 13.081714
1218 12.51295
1216 11.864914
1214 11.163095
1212 10.440907
1210 9.7385445
1208 9.0822506
1206 8.4700871
1204 7.8862019
1202 7.3009081
1200 6.6900015
1198 6.047411
1196 5.3781857
1194 4.7013922
1192 4.0405655
1190 3.4210701
1188 2.8637598
1186 2.37883
1184 1.9705206
1182 1.6358495
1180 1.3750806
1178 1.1980313
1176 1.1115201
1174 1.1089612
1172 1.1696221
1170 1.2493193
1168 1.3063715
1166 1.3181164
1164 1.2782105
1162 1.207471
1160 1.1301622
1158 1.0638429
1156 1.0154371
1154 0.97170103
1152 0.91274804
1150 0.81551778
1148 0.666237
1146 0.47546285
1144 0.27037853
1142 0.10176646
1140 0.01247324
1138 0.012866102
1136 0.099713944
1134 0.2562874
1132 0.46584803
1130 0.71950811
1128 1.0118914
1126 1.3408022
1124 1.6973054
1122 2.0553408
1120 2.3942039
1118 2.7168877
1116 3.0341301
1114 3.3611617
1112 3.7105479
1110 4.0855231
1108 4.4840097
1106 4.8966551
1104 5.3085074
1102 5.6953588
1100 6.0392113
1098 6.3430963
1096 6.6180711
1094 6.8832111
1092 7.1589999
1090 7.4645991
1088 7.8136563
1086 8.2054396
1084 8.6277246
1082 9.0484123
1080 9.4359484
1078 9.7737017
1076 10.054214
1074 10.283411
1072 10.469481
1070 10.610304
1068 10.703265
1066 10.74885
1064 10.75152
1062 10.719004
1060 10.655286
1058 10.549065
1056 10.386971
1054 10.16105
1052 9.8730726
1050 9.5404711
1048 9.1876307
1046 8.8425541
1044 8.5282412
1042 8.250762
1040 8.0054674
1038 7.7687531
1036 7.5164299
1034 7.2357259
1032 6.9212227
1030 6.579793
1028 6.22616
1026 5.8869743
1024 5.5830293
1022 5.3078699
1020 5.0370264
1018 4.7145233
1016 4.299974
1014 3.8231494
1012 3.3382549
1010 2.9183757
1008 2.6151481
1006 2.3992908
1004 2.2200882
1002 2.0222337
1000 1.759692
998 1.4192538
996 1.0039614
994 0.54307842
992 0.081510425
990 -0.30793667
988 -0.56083608
986 -0.66274542
984 -0.62738222
982 -0.51932234
980 -0.40415078
978 -0.3090646
976 -0.23903714
974 -0.15729734
972 -0.027019173
970 0.1539882
968 0.37200284
966 0.58888102
964 0.76944548
962 0.90919834
960 1.0108628
958 1.0759116
956 1.0977743
954 1.044029
952 0.88974482
950 0.65905774
948 0.39509159
946 0.16560292
944 0.036805391
942 0.047069743
940 0.20433615
938 0.43217021
936 0.64212918
934 0.77865601
932 0.80946445
930 0.75774336
928 0.66536915
926 0.59215826
924 0.5903964
922 0.6673128
920 0.80794704
918 0.95617568
916 1.05878
914 1.1128249
912 1.1300955
910 1.1296159
908 1.1208543
906 1.0684367
904 0.94769269
902 0.81913483
900 0.75766933
898 0.81006461
896 1.016
