##TITLE=Methyl Ethyl Ketone
##JCAMP-DX=4.24
##DATA TYPE=INFRARED SPECTRUM
##XUNITS=cm-1
##YUNITS=Absorbance
##FIRSTX=900
##LASTX=2300
##XYDATA=(X++(Y..Y))
2296 0.015768001
2294 0.01609553
2292 0.01642406
2290 0.016751593
2288 0.017080121
2286 0.017407658
2284 0.01773618
2282 0.01806372
2280 0.018392239
2278 0.018719783
2276 0.0190483
2274 0.01937486
2272 0.01970336
2270 0.020035816
2268 0.02035952
2266 0.020671315
2264 0.021015113
2262 0.021403529
2260 0.021673134
2258 0.021777285
2256 0.022321086
2254 0.02348645
2252 0.023010595
2250 0.020222168
2248 0.023530211
2246 0.037305284
2244 0.03949504
2242 0.011860281
2240 -0.018675961
2238 -0.018122891
2236 0.024396585
2234 0.10303417
2232 0.17152914
2230 0.18410186
2228 0.14354441
2226 0.068794005
2224 -0.013423736
2222 -0.077845983
2220 -0.11359093
2218 -0.11398636
2216 -0.072068252
2214 0.013089596
2212 0.1173906
2210 0.2103032
2208 0.26568541
2206 0.26627836
2204 0.2249721
2202 0.16412158
2200 0.10711937
2198 0.071675107
2196 0.051825214
2194 0.035000496
2192 0.011799211
2190 -0.021647666
2188 -0.051282715
2186 -0.061409235
2184 -0.05276132
2182 -0.03307252
2180 -0.016689863
2178 -0.016341731
2176 -0.029866515
2174 -0.048146222
2172 -0.053648219
2170 -0.02836482
2168 0.036783565
2166 0.14215851
2164 0.264835
2162 0.37441179
2160 0.44156873
2158 0.44330806
2156 0.38022602
2154 0.26650172
2152 0.13918509
2150 0.041607149
2148 0.011367921
2146 0.072354935
2144 0.20100741
2142 0.35404709
2140 0.47492516
2138 0.51470506
2136 0.47291198
2134 0.37267366
2132 0.26284373
2130 0.19428304
2128 0.1902232
2126 0.25555491
2124 0.36186531
2122 0.46969184
2120 0.5426513
2118 0.55395204
2116 0.51019472
2114 0.43262711
2112 0.35206392
2110 0.29690018
2108 0.27236614
2106 0.27328458
2104 0.28801948
2102 0.30699036
2100 0.3379654
2098 0.39248735
2096 0.46975285
2094 0.56011403
2092 0.63808793
2090 0.67696583
2088 0.66985005
2086 0.62163198
2084 0.55293596
2082 0.48748928
2080 0.43734863
2078 0.40679058
2076 0.38812241
2074 0.37269238
2072 0.36712319
2070 0.38332495
2068 0.4285762
2066 0.50171846
2064 0.57528442
2062 0.61735952
2060 0.6222077
2058 0.60027385
2056 0.58203429
2054 0.59690571
2052 0.63690841
2050 0.67567855
2048 0.6774798
2046 0.61461931
2044 0.50655198
2042 0.39269206
2040 0.31091321
2038 0.28618523
2036 0.29631144
2034 0.30244955
2032 0.281616
2030 0.2250597
2028 0.15011975
2026 0.082898401
2024 0.039670113
2022 0.029167913
2020 0.049345486
2018 0.092292391
2016 0.14458801
2014 0.19228587
2012 0.22884837
2010 0.25188527
2008 0.26196125
2006 0.26018584
2004 0.24536711
2002 0.216252
2000 0.17626747
1998 0.13076574
1996 0.08360514
1994 0.037891898
1992 -0.0029818676
1990 -0.036273573
1988 -0.062843822
1986 -0.087062143
1984 -0.12089159
1982 -0.17531033
1980 -0.24201281
1978 -0.30018306
1976 -0.31648231
1974 -0.26046601
1972 -0.13753697
1970 0.022818785
1968 0.16513713
1966 0.232595
1964 0.21246439
1962 0.12090881
1960 0.00015283749
1958 -0.10406853
1956 -0.18026356
1954 -0.23593593
1952 -0.28212115
1950 -0.32751569
1948 -0.36877194
1946 -0.3985475
1944 -0.41923565
1942 -0.43898505
1940 -0.46703056
1938 -0.50940973
1936 -0.55773944
1934 -0.59877896
1932 -0.6311934
1930 -0.66112417
1928 -0.69740319
1926 -0.74147642
1924 -0.7590937
1922 -0.70662338
1920 -0.5835169
1918 -0.4210766
1916 -0.28075743
1914 -0.22403659
1912 -0.25000229
1910 -0.3216413
1908 -0.39942423
1906 -0.4530333
1904 -0.48530841
1902 -0.51423377
1900 -0.54382044
1898 -0.56411237
1896 -0.54539716
1894 -0.45798352
1892 -0.31745952
1890 -0.1698056
1888 -0.077127509
1886 -0.094587222
1884 -0.21695168
1882 -0.40284282
1880 -0.6081391
1878 -0.79506713
1876 -0.94607902
1874 -1.0531616
1872 -1.0985892
1870 -1.0646354
1868 -0.96320653
1866 -0.8279503
1864 -0.70734936
1862 -0.64705151
1860 -0.64888978
1858 -0.68816149
1856 -0.74307942
1854 -0.80023164
1852 -0.86328954
1850 -0.94431472
1848 -1.04822
1846 -1.1687893
1844 -1.2747506
1842 -1.3250875
1840 -1.3027109
1838 -1.2118708
1836 -1.07875
1834 -0.9352473
1832 -0.78585958
1830 -0.61984086
1828 -0.44151267
1826 -0.27180436
1824 -0.15387754
1822 -0.13477172
1820 -0.22056639
1818 -0.38498726
1816 -0.5819903
1814 -0.75922465
1812 -0.87969559
1810 -0.91934144
1808 -0.86189413
1806 -0.70690602
1804 -0.50805014
1802 -0.35220972
1800 -0.31553644
1798 -0.43744427
1796 -0.6426543
1794 -0.79140484
1792 -0.79672319
1790 -0.63613027
1788 -0.37481102
1786 -0.12021551
1784 0.075943306
1782 0.21023643
1780 0.2929996
1778 0.3408376
1776 0.38140914
1774 0.44380179
1772 0.53048104
1770 0.61822122
1768 0.65632755
1766 0.59255046
1764 0.44536299
1762 0.27366221
1760 0.079565369
1758 -0.1657318
1756 -0.41288215
1754 -0.56366414
1752 -0.58532804
1750 -0.51142931
1748 -0.42155269
1746 -0.40984178
1744 -0.51706517
1742 -0.7232492
1740 -0.92677307
1738 -0.9900763
1736 -0.86312199
1734 -0.58701569
1732 -0.28528953
1730 -0.10985047
1728 -0.10367118
1726 -0.20743093
1724 -0.30600464
1722 -0.25837931
1720 0.059433594
1718 0.72069395
1716 1.6428272
1714 2.6303248
1712 3.5134447
1710 4.1989617
1708 4.7760439
1706 5.4770727
1704 6.5601416
1702 8.2729969
1700 10.818358
1698 14.272927
1696 18.282713
1694 22.20875
1692 25.666212
1690 28.614807
1688 31.422075
1686 34.708843
1684 38.931866
1682 44.223198
1680 50.037518
1678 55.448162
1676 60.217327
1674 64.768944
1672 69.526192
1670 74.695473
1668 79.988724
1666 84.780098
1664 88.740692
1662 91.879341
1660 94.29628
1658 96.10437
1656 97.360741
1654 98.067268
1652 98.205879
1650 97.761383
1648 96.7687
1646 95.324783
1644 93.606819
1642 91.817314
1640 89.972755
1638 87.907516
1636 85.437271
1634 82.428703
1632 78.927856
1630 75.1157
1628 71.055618
1626 66.68515
1624 61.983803
1622 57.018215
1620 51.98053
1618 47.147518
1616 42.702942
1614 38.717197
1612 35.225368
1610 32.242641
1608 29.734829
1606 27.627708
1604 25.860283
1602 24.39583
1600 23.223063
1598 22.346458
1596 21.7605
1594 21.443272
1592 21.359932
1590 21.470152
1588 21.750414
1586 22.198677
1584 22.815474
1582 23.60763
1580 24.618925
1578 25.929356
1576 27.625572
1574 29.772381
1572 32.329544
1570 35.146473
1568 38.044598
1566 40.851715
1564 43.463333
1562 45.884171
1560 48.3228
1558 51.096867
1556 54.091202
1554 56.730659
1552 58.552765
1550 59.381268
1548 59.374054
1546 58.940037
1544 58.250793
1542 57.16069
1540 55.516499
1538 53.2756
1536 50.638256
1534 48.017815
1532 45.664387
1530 43.577042
1528 41.658829
1526 39.76675
1524 37.773178
1522 35.596466
1520 33.250046
1518 30.849712
1516 28.537415
1514 26.429502
1512 24.48188
1510 22.484001
1508 20.28602
1506 17.880793
1504 15.424886
1502 13.202121
1500 11.347534
1498 9.7791882
1496 8.3664999
1494 6.9898434
1492 5.6124701
1490 4.2913575
1488 3.079493
1486 2.0017736
1484 1.0872366
1482 0.37683588
1480 -0.087351993
1478 -0.25514671
1476 -0.023616016
1474 0.74351138
1472 2.0250373
1470 3.5943179
1468 5.210546
1466 6.69172
1464 7.9750829
1462 9.1351595
1460 10.269152
1458 11.447948
1456 12.6496
1454 13.738223
1452 14.554697
1450 14.962672
1448 14.933697
1446 14.573071
1444 14.001482
1442 13.31252
1440 12.560971
1438 11.755026
1436 10.881443
1434 9.9197979
1432 8.9018812
1430 7.9284258
1428 7.087522
1426 6.4250927
1424 5.9486408
1422 5.6269789
1420 5.4321489
1418 5.3536663
1416 5.3896828
1414 5.5438371
1412 5.8137455
1410 6.1850104
1408 6.631104
1406 7.1102037
1404 7.5678291
1402 7.9376664
1400 8.1599159
1398 8.194068
1396 8.0383282
1394 7.7427783
1392 7.3749251
1390 7.0053644
1388 6.6741061
1386 6.3744903
1384 6.0897632
1382 5.8038092
1380 5.502305
1378 5.172513
1376 4.7969313
1374 4.3530684
1372 3.8314362
1370 3.2444007
1368 2.609688
1366 1.9463286
1364 1.2795359
1362 0.64616871
1360 0.1016456
1358 -0.2794888
1356 -0.45292014
1354 -0.42765462
1352 -0.22010708
1350 0.15741801
1348 0.67609978
1346 1.2821
1344 1.93208
1342 2.6064754
1340 3.279299
1338 3.9035048
1336 4.4142914
1334 4.7320604
1332 4.8107629
1330 4.667841
1328 4.3506136
1326 3.9316494
1324 3.4830303
1322 3.065058
1320 2.722224
1318 2.4744363
1316 2.3174801
1314 2.2159991
1312 2.1284988
1310 2.0181746
1308 1.868536
1306 1.6972772
1304 1.5346411
1302 1.417918
1300 1.378472
1298 1.4338434
1296 1.5978
1294 1.8823051
1292 2.2941751
1290 2.8296607
1288 3.4667079
1286 4.1540284
1284 4.8309627
1282 5.4342642
1280 5.9183164
1278 6.2724705
1276 6.507647
1274 6.6596909
1272 6.7687469
1270 6.8724504
1268 7.0067859
1266 7.2053337
1264 7.4964991
1262 7.8991365
1260 8.4224939
1258 9.0624542
1256 9.8125029
1254 10.667069
1252 11.621151
1250 12.668936
1248 13.800697
1246 14.99825
1244 16.225264
1242 17.41753
1240 18.49943
1238 19.384068
1236 19.994343
1234 20.278656
1232 20.196041
1230 19.722153
1228 18.861265
1226 17.669529
1224 16.233919
1222 14.677017
1220 13.125255
1218 11.692141
1216 10.470554
1214 9.5128498
1212 8.8466434
1210 8.4656572
1208 8.3438654
1206 8.4273291
1204 8.6340599
1202 8.8384562
1200 8.9110775
1198 8.7419415
1196 8.2729635
1194 7.5477943
1192 6.6528029
1190 5.7102828
1188 4.8234854
1186 4.0350595
1184 3.3603759
1182 2.7880411
1180 2.3124754
1178 1.953963
1176 1.7344201
1174 1.6641109
1172 1.7315646
1170 1.8836656
1168 2.0601246
1166 2.2075791
1164 2.2892091
1162 2.3008919
1160 2.2448931
1158 2.1202528
1156 1.9223601
1154 1.6428238
1152 1.287765
1150 0.89931047
1148 0.5306434
1146 0.23911446
1144 0.063544139
1142 -0.0041913996
1140 0.0014422443
1138 0.013144394
1136 -0.021320105
1134 -0.099579781
1132 -0.20155154
1130 -0.29655749
1128 -0.35664442
1126 -0.36726972
1124 -0.32349473
1122 -0.23599495
1120 -0.12076648
1118 0.002511315
1116 0.11373503
1114 0.19509494
1112 0.23945491
1110 0.26492605
1108 0.29679227
1106 0.36210853
1104 0.4781816
1102 0.63680851
1100 0.82489753
1098 1.0328584
1096 1.2563571
1094 1.5018291
1092 1.77411
1090 2.0669672
1088 2.3713262
1086 2.6780264
1084 2.978055
1082 3.2625625
1080 3.5144548
1078 3.6961291
1076 3.7757313
1074 3.7520678
1072 3.6458423
1070 3.5163867
1068 3.4188395
1066 3.3720365
1064 3.3755879
1062 3.4023798
1060 3.4217496
1058 3.4119761
1056 3.3580284
1054 3.2568276
1052 3.10864
1050 2.9152021
1048 2.6797485
1046 2.4095643
1044 2.1266789
1042 1.8933005
1040 1.7741954
1038 1.811267
1036 2.0167398
1034 2.3328435
1032 2.6828349
1030 2.9842398
1028 3.1613517
1026 3.1635156
1024 2.9722428
1022 2.647543
1020 2.2751751
1018 1.9595333
1016 1.7737343
1014 1.6826513
1012 1.6183709
1010 1.4945304
1008 1.2471175
1006 0.89540648
1004 0.48659465
1002 0.090076879
1000 -0.23774269
998 -0.49826235
996 -0.7083807
994 -0.888515
992 -1.0503252
990 -1.1749738
988 -1.2420294
986 -1.2497321
984 -1.2067137
982 -1.1403563
980 -1.0768961
978 -1.0242167
976 -0.98165542
974 -0.93432444
972 -0.86661482
970 -0.77181745
968 -0.65081006
966 -0.52276701
964 -0.41405171
962 -0.35962161
960 -0.38271737
958 -0.45887572
956 -0.54685414
954 -0.58879852
952 -0.53927362
950 -0.41097319
948 -0.23773292
946 -0.076471567
944 0.034818105
942 0.14538939
940 0.30802548
938 0.51039428
936 0.72687972
934 0.9425329
932 1.145916
930 1.3282526
928 1.4769748
926 1.5613251
924 1.5562559
922 1.4734937
920 1.3564268
918 1.3322967
916 1.5263871
914 1.9758519
912 2.6562147
910 3.3900518
908 3.9821997
906 4.3178196
904 4.3475647
902 4.2014937
900 4.0371251
898 3.9413602
896 3.9835999
