##TITLE=Methyl Ethyl Ketone
##JCAMP-DX=4.24
##DATA TYPE=INFRARED SPECTRUM
##XUNITS=cm-1
##YUNITS=Absorbance
##FIRSTX=900
##LASTX=2300
##XYDATA=(X++(Y..Y))
2296 0.036687002
2294 0.03745091
2292 0.038213816
2290 0.038976725
2288 0.039740629
2286 0.040503543
2284 0.041266453
2282 0.042029358
2280 0.042793255
2278 0.043557167
2276 0.044320084
2274 0.045079056
2272 0.045845836
2270 0.046621569
2268 0.04737296
2266 0.048089638
2264 0.048897464
2262 0.049833171
2260 0.050429855
2258 0.050551042
2256 0.051933426
2254 0.0550877
2252 0.053554863
2250 0.045413785
2248 0.054691847
2246 0.094645783
2244 0.10620086
2242 0.02778074
2240 -0.13057365
2238 -0.33108363
2236 -0.50606072
2234 -0.59446901
2232 -0.59546214
2230 -0.5288682
2228 -0.42798245
2226 -0.32393402
2224 -0.22421382
2222 -0.12942399
2220 -0.040390451
2218 0.040457442
2216 0.10491531
2214 0.14139643
2212 0.13169001
2210 0.062265668
2208 -0.05327668
2206 -0.18935297
2204 -0.30525914
2202 -0.36344412
2200 -0.35760805
2198 -0.2971482
2196 -0.21586643
2194 -0.15079901
2192 -0.12180372
2190 -0.13579392
2188 -0.16951075
2186 -0.19448172
2184 -0.1997104
2182 -0.18536717
2180 -0.17347699
2178 -0.18671358
2176 -0.22190343
2174 -0.26591209
2172 -0.29981422
2170 -0.30687049
2168 -0.28638285
2166 -0.24289614
2164 -0.18043163
2162 -0.10428695
2160 -0.026044372
2158 0.040838618
2156 0.084025502
2154 0.093100056
2152 0.063739799
2150 -0.0045675859
2148 -0.10523313
2146 -0.22460607
2144 -0.32986394
2142 -0.38573352
2140 -0.37417164
2138 -0.29231134
2136 -0.17411286
2134 -0.064116232
2132 0.0027580727
2130 0.0051353103
2128 -0.038321622
2126 -0.094475664
2124 -0.12963891
2122 -0.12043677
2120 -0.084903881
2118 -0.053090841
2116 -0.041723486
2114 -0.056151152
2112 -0.077211291
2110 -0.081907891
2108 -0.068487011
2106 -0.045359723
2104 -0.028564326
2102 -0.03214664
2100 -0.051149499
2098 -0.073682167
2096 -0.089680426
2094 -0.094627723
2092 -0.10295986
2090 -0.13214579
2088 -0.18173514
2086 -0.23924099
2084 -0.27245733
2082 -0.24910995
2080 -0.1679365
2078 -0.043750115
2076 0.094472155
2074 0.21659683
2072 0.30909601
2070 0.36647415
2068 0.38763666
2066 0.37298116
2064 0.32299012
2062 0.2393975
2060 0.12940614
2058 0.0054686572
2056 -0.10740252
2054 -0.18221004
2052 -0.20522705
2050 -0.17385726
2048 -0.10766772
2046 -0.032497536
2044 0.03775648
2042 0.094991684
2040 0.13200012
2038 0.14395761
2036 0.13562444
2034 0.11693526
2032 0.10200314
2030 0.10234315
2028 0.11177066
2026 0.1198855
2024 0.13177206
2022 0.15598962
2020 0.1846251
2018 0.20108311
2016 0.18505999
2014 0.12496915
2012 0.0512003
2010 0.0057115727
2008 -0.0021062715
2006 0.017672487
2004 0.040656473
2002 0.04311372
2000 0.028155172
1998 0.010649512
1996 0.00075955846
1994 0.0017826976
1992 0.00060977635
1990 -0.019056965
1988 -0.05479702
1986 -0.09498734
1984 -0.1289496
1982 -0.15067016
1980 -0.16960691
1978 -0.19561729
1976 -0.20849542
1974 -0.1748075
1972 -0.06933213
1970 0.11558022
1968 0.33406228
1966 0.51936805
1964 0.62746567
1962 0.63853562
1960 0.58002043
1958 0.49665841
1956 0.40931371
1954 0.32339132
1952 0.23688468
1950 0.14812928
1948 0.068839811
1946 0.014964274
1944 -0.0099195782
1942 -0.011077738
1940 -0.0019845273
1938 0.0006325476
1936 -0.017813325
1934 -0.067992568
1932 -0.1497442
1930 -0.25312421
1928 -0.35013697
1926 -0.40356565
1924 -0.37609291
1922 -0.242348
1920 -0.025971394
1918 0.22369194
1916 0.46066415
1914 0.65087175
1912 0.79450077
1910 0.90393698
1908 0.9641462
1906 0.94850528
1904 0.85297197
1902 0.69561654
1900 0.52983075
1898 0.41995427
1896 0.39669999
1894 0.45957422
1892 0.56180269
1890 0.63561642
1888 0.62868017
1886 0.51416719
1884 0.32857272
1882 0.13797931
1880 -0.017814286
1878 -0.1206748
1876 -0.16577899
1874 -0.14998133
1872 -0.050925493
1870 0.14828426
1868 0.38767716
1866 0.56639421
1864 0.61005861
1862 0.48537549
1860 0.25028369
1858 0.0043690428
1856 -0.20301615
1854 -0.36231926
1852 -0.48135689
1850 -0.57264781
1848 -0.63870478
1846 -0.6760639
1844 -0.6853286
1842 -0.6689688
1840 -0.62338787
1838 -0.53880918
1836 -0.39629486
1834 -0.17761979
1832 0.1084893
1830 0.42490664
1828 0.6864658
1826 0.79525793
1824 0.72520012
1822 0.51035893
1820 0.23312861
1818 -0.0098025352
1816 -0.17331068
1814 -0.25277144
1812 -0.26118964
1810 -0.21391122
1808 -0.10364273
1806 0.081744045
1804 0.30466071
1802 0.49620971
1800 0.60428649
1798 0.61017674
1796 0.5767107
1794 0.60164398
1792 0.69952482
1790 0.82179934
1788 0.91987622
1786 0.96065485
1784 0.94630921
1782 0.9006446
1780 0.83956879
1778 0.77911937
1776 0.77439427
1774 0.88845623
1772 1.0907627
1770 1.2765834
1768 1.3203977
1766 1.1272243
1764 0.76859522
1762 0.4111613
1760 0.10883097
1758 -0.1692968
1756 -0.39794001
1754 -0.50555158
1752 -0.45517552
1750 -0.2565324
1748 0.015508965
1746 0.24996287
1744 0.36964434
1742 0.35378841
1740 0.29938641
1738 0.36289698
1736 0.58969003
1734 0.90815115
1732 1.1448394
1730 1.1014993
1728 0.75855851
1726 0.25956437
1724 -0.16829567
1722 -0.27121559
1720 0.12913468
1718 1.0858299
1716 2.3675416
1714 3.5698559
1712 4.4675069
1710 5.0556808
1708 5.5568161
1706 6.3297043
1704 7.6562366
1702 9.7022181
1700 12.486691
1698 15.875025
1696 19.508572
1694 22.92066
1692 25.910116
1690 28.580692
1688 31.334005
1686 34.723179
1684 39.046074
1682 44.245296
1680 49.723919
1678 54.639862
1676 58.922516
1674 63.177917
1672 67.86351
1670 73.082603
1668 78.400803
1666 83.05925
1664 86.715271
1662 89.471222
1660 91.545021
1658 93.167923
1656 94.512398
1654 95.669449
1652 96.596298
1650 97.117645
1648 96.935699
1646 95.755432
1644 93.715637
1642 91.316368
1640 88.886597
1638 86.492012
1636 83.998772
1634 81.166214
1632 77.905556
1630 74.28215
1628 70.325172
1626 66.01062
1624 61.363041
1622 56.484776
1620 51.577583
1618 46.900581
1616 42.595631
1614 38.678993
1612 35.153362
1610 32.027679
1608 29.294651
1606 26.930849
1604 24.918463
1602 23.249058
1600 21.918171
1598 20.919806
1596 20.2295
1594 19.804434
1592 19.601789
1590 19.58917
1588 19.75948
1586 20.127613
1584 20.703646
1582 21.497879
1580 22.57176
1578 24.034706
1576 25.973057
1574 28.405792
1572 31.195633
1570 34.072071
1568 36.83688
1566 39.415943
1564 41.83783
1562 44.24012
1560 46.896954
1558 50.093025
1556 53.543831
1554 56.415279
1552 58.186325
1550 58.86153
1548 58.797077
1546 58.549
1544 58.338932
1542 57.952141
1540 57.031662
1538 55.240025
1536 52.631203
1534 49.681885
1532 46.84079
1530 44.388226
1528 42.397873
1526 40.735001
1524 39.200787
1522 37.581547
1520 35.719646
1518 33.557148
1516 31.19747
1514 28.882029
1512 26.71624
1510 24.606474
1508 22.406385
1506 19.991829
1504 17.4354
1502 15.012609
1500 12.899343
1498 11.09207
1496 9.5201855
1494 8.0866098
1492 6.7281837
1490 5.4265084
1488 4.1511273
1486 2.8621984
1484 1.6089369
1482 0.54990083
1480 -0.15866062
1478 -0.39310682
1476 -0.039401859
1474 0.97112501
1472 2.4798338
1470 4.0781093
1468 5.4570212
1466 6.5288544
1464 7.3752766
1462 8.2251902
1460 9.2755165
1458 10.60615
1456 12.0914
1454 13.388493
1452 14.223954
1450 14.498926
1448 14.267292
1446 13.727428
1444 13.058434
1442 12.36441
1440 11.704589
1438 11.093908
1436 10.491843
1434 9.8083296
1432 9.0052967
1430 8.1353273
1428 7.2972422
1426 6.6171074
1424 6.1743302
1422 5.9685388
1420 5.9480205
1418 6.0176253
1416 6.0954914
1414 6.1405048
1412 6.1662693
1410 6.2460194
1408 6.4362578
1406 6.7462034
1404 7.1506729
1402 7.5886116
1400 7.9845004
1398 8.2568092
1396 8.3429718
1394 8.2175846
1392 7.9049129
1390 7.4865789
1388 7.0383167
1386 6.604785
1384 6.2049642
1382 5.8294291
1380 5.4606104
1378 5.0780005
1376 4.6578112
1374 4.17665
1372 3.6352501
1370 3.0702536
1368 2.5219755
1366 2.0201986
1364 1.5688229
1362 1.1394738
1360 0.72039789
1358 0.3387855
1356 0.03949286
1354 -0.1212093
1352 -0.10132492
1350 0.11148618
1348 0.50506037
1346 1.0396607
1344 1.674808
1342 2.3746917
1340 3.0811367
1338 3.6993878
1336 4.1346025
1334 4.3145247
1332 4.2259722
1330 3.9440038
1328 3.5586789
1326 3.1504443
1324 2.7874069
1322 2.51689
1320 2.3606565
1318 2.301831
1316 2.2971098
1314 2.2766733
1312 2.1858125
1310 2.0097299
1308 1.7644606
1306 1.5024208
1304 1.2773714
1302 1.129038
1300 1.0813894
1298 1.1366533
1296 1.2913429
1294 1.5411764
1292 1.88353
1290 2.3172951
1288 2.8308759
1286 3.3925471
1284 3.9610019
1282 4.4876132
1280 4.9342093
1278 5.2861547
1276 5.5479712
1274 5.7490854
1272 5.9239855
1270 6.105443
1268 6.3182154
1266 6.5740414
1264 6.8847389
1262 7.2673755
1260 7.7393241
1258 8.3145142
1256 8.9963665
1254 9.7702656
1252 10.621128
1250 11.541018
1248 12.526737
1246 13.5835
1244 14.697383
1242 15.817139
1240 16.86969
1238 17.756466
1236 18.389814
1234 18.718624
1232 18.70752
1230 18.347654
1228 17.645241
1226 16.628601
1224 15.357829
1222 13.943659
1220 12.513331
1218 11.20027
1216 10.110663
1214 9.2858887
1212 8.7353973
1210 8.4352379
1208 8.3470955
1206 8.4173441
1204 8.5736084
1202 8.7125492
1200 8.7300596
1198 8.5395985
1196 8.0910568
1194 7.4051633
1192 6.5415244
1190 5.60431
1188 4.6946788
1186 3.8822374
1184 3.2091503
1182 2.675014
1180 2.2692926
1178 1.981253
1176 1.80116
1174 1.7207108
1172 1.7260159
1170 1.7903014
1168 1.8851503
1166 1.9860042
1164 2.0737298
1162 2.1390901
1160 2.1697733
1158 2.1413648
1156 2.0299702
1154 1.8225179
1152 1.5257006
1150 1.1855091
1148 0.85326719
1146 0.57014394
1144 0.3609772
1142 0.21786807
1140 0.11672395
1138 0.016515754
1136 -0.10485329
1134 -0.2163101
1132 -0.2832537
1130 -0.29422814
1128 -0.25521988
1126 -0.19994099
1124 -0.1606524
1122 -0.14833151
1120 -0.1538384
1118 -0.13331595
1116 -0.052533533
1114 0.077870205
1112 0.22813714
1110 0.34956756
1108 0.40519506
1106 0.3994675
1104 0.35448259
1102 0.31104699
1100 0.30909908
1098 0.37394798
1096 0.51887143
1094 0.73536837
1092 1.0095352
1090 1.3268855
1088 1.6710565
1086 2.0209541
1084 2.3492465
1082 2.615706
1080 2.7842133
1078 2.8388989
1076 2.7797215
1074 2.6358063
1072 2.4459486
1070 2.2567723
1068 2.1120608
1066 2.04212
1064 2.0571921
1062 2.1220305
1060 2.1868672
1058 2.1939313
1056 2.104883
1054 1.9412754
1052 1.7450097
1050 1.573918
1048 1.4775869
1046 1.470575
1044 1.5509261
1042 1.6935102
1040 1.8650583
1038 2.0242105
1036 2.13873
1034 2.2068853
1032 2.2347503
1030 2.2276618
1028 2.1808965
1026 2.0602863
1024 1.8412955
1022 1.549596
1020 1.2255877
1018 0.91745782
1016 0.65647888
1014 0.41758436
1012 0.1687904
1010 -0.10043597
1008 -0.38628078
1006 -0.65758139
1004 -0.88722616
1002 -1.0815272
1000 -1.2556063
998 -1.4255084
996 -1.6006286
994 -1.7686739
992 -1.9149548
990 -2.0363731
988 -2.1324708
986 -2.2029743
984 -2.2407184
982 -2.2163796
980 -2.101058
978 -1.8851591
976 -1.5791543
974 -1.2450991
972 -0.95505822
970 -0.77209449
968 -0.73491693
966 -0.80758202
964 -0.93346053
962 -1.0490862
960 -1.1057154
958 -1.1112372
956 -1.0868043
954 -1.0515357
952 -1.0032156
950 -0.86811578
948 -0.58854598
946 -0.22508107
944 0.14953789
942 0.52317035
940 0.87665701
938 1.1127681
936 1.1546056
934 1.0700088
932 0.95332241
930 0.86551046
928 0.85204583
926 0.93218309
924 1.1103959
922 1.3604186
920 1.6403245
918 1.8789293
916 2.0126214
914 2.0340955
912 1.9802377
910 2.0033638
908 2.2620111
906 2.824698
904 3.6918736
902 4.6830435
900 5.6013823
898 6.3637896
896 6.9157
