Image.
>Pix99999.
  .
5555
5555
2300
900
5555
2
1
0
701
5555
-6.9008999e-002
-7.0444942e-002
-7.1879894e-002
-7.3315836e-002
-7.4751779e-002
-7.6186731e-002
-7.7622674e-002
-7.9058617e-002
-8.0494560e-002
-8.1929520e-002
-8.3365455e-002
-8.4801406e-002
-8.6236365e-002
-8.7672301e-002
-8.9108244e-002
-9.0543203e-002
-9.1979131e-002
-9.3415082e-002
-9.4850048e-002
-9.6285969e-002
-9.7721919e-002
-9.9157862e-002
-1.0059477e-001
-1.0203269e-001
-1.0346097e-001
-1.0489857e-001
-3.8981431e-003
3.0369606e-002
5.2180961e-002
-2.2537962e-003
-6.7885280e-002
-1.5789056e-001
-2.4820696e-001
-3.0650994e-001
-3.6479148e-001
-4.3508950e-001
-5.1116776e-001
-6.1078984e-001
-6.9073743e-001
-7.0687079e-001
-6.8967456e-001
-6.0755181e-001
-5.2621019e-001
-4.5241132e-001
-4.1211051e-001
-4.1300371e-001
-4.5234853e-001
-5.2623963e-001
-5.9928912e-001
-6.7003167e-001
-6.8661499e-001
-6.7204529e-001
-6.0366017e-001
-5.1258868e-001
-4.1921824e-001
-3.2558841e-001
-2.7376559e-001
-2.3155883e-001
-2.4868564e-001
-2.7487054e-001
-3.2269630e-001
-3.6850500e-001
-3.6897925e-001
-3.6502731e-001
-3.6030886e-001
-3.6860579e-001
-4.2466706e-001
-4.8049837e-001
-5.2352136e-001
-5.4634774e-001
-5.3330696e-001
-5.2458519e-001
-5.2748621e-001
-5.4900408e-001
-5.9012002e-001
-6.2350249e-001
-6.4823836e-001
-6.5948081e-001
-6.6195393e-001
-6.7693645e-001
-6.9920915e-001
-7.2005630e-001
-7.4002653e-001
-7.4421984e-001
-7.4341398e-001
-7.7501279e-001
-8.1424886e-001
-8.6034983e-001
-9.0336591e-001
-8.6896878e-001
-8.2246685e-001
-7.6828808e-001
-7.3403400e-001
-7.9302466e-001
-8.7629300e-001
-9.9158847e-001
-1.0887498e+000
-1.1353680e+000
-1.1616980e+000
-1.1665596e+000
-1.1860000e+000
-1.2285630e+000
-1.2859446e+000
-1.3551528e+000
-1.3906320e+000
-1.3968700e+000
-1.3477283e+000
-1.2646055e+000
-1.1857417e+000
-1.1113229e+000
-1.0907815e+000
-1.0924656e+000
-1.1102360e+000
-1.1324518e+000
-1.1118228e+000
-1.0806915e+000
-1.0533080e+000
-1.0340751e+000
-1.0919605e+000
-1.1709490e+000
-1.2829515e+000
-1.3920524e+000
-1.4672440e+000
-1.5174469e+000
-1.5204160e+000
-1.5059108e+000
-1.4756119e+000
-1.4598590e+000
-1.4709377e+000
-1.4952717e+000
-1.5295771e+000
-1.5441847e+000
-1.5380480e+000
-1.5285050e+000
-1.5192611e+000
-1.5090250e+000
-1.4980567e+000
-1.4476428e+000
-1.3766491e+000
-1.3249938e+000
-1.2826800e+000
-1.3306993e+000
-1.4089105e+000
-1.5128082e+000
-1.6210035e+000
-1.6967971e+000
-1.7606601e+000
-1.7982110e+000
-1.8180268e+000
-1.7900356e+000
-1.7351428e+000
-1.6351305e+000
-1.5411125e+000
-1.4861450e+000
-1.4750299e+000
-1.5241393e+000
-1.5803211e+000
-1.6263763e+000
-1.6466529e+000
-1.6401939e+000
-1.6027628e+000
-1.5419110e+000
-1.4245800e+000
-1.2675283e+000
-1.1424446e+000
-1.0424521e+000
-1.1037905e+000
-1.2482260e+000
-1.4323601e+000
-1.6293006e+000
-1.7389071e+000
-1.8148495e+000
-1.8337543e+000
-1.8332471e+000
-1.8180466e+000
-1.8076249e+000
-1.8477199e+000
-1.9117838e+000
-2.0056577e+000
-2.0872004e+000
-2.1128113e+000
-2.1157672e+000
-2.1062319e+000
-2.1226676e+000
-2.1861651e+000
-2.2132893e+000
-2.1755612e+000
-2.0024829e+000
-1.7017194e+000
-1.4218240e+000
-1.1890471e+000
-1.0914429e+000
-1.0887486e+000
-1.1344292e+000
-1.1994989e+000
-1.3205543e+000
-1.4705920e+000
-1.6136252e+000
-1.7519091e+000
-1.7371783e+000
-1.6553714e+000
-1.4814287e+000
-1.2866400e+000
-1.1931210e+000
-1.1796800e+000
-1.3438379e+000
-1.5854998e+000
-1.8620611e+000
-2.1023285e+000
-2.2284439e+000
-2.2347000e+000
-2.0919647e+000
-1.8309920e+000
-1.4655579e+000
-1.1427488e+000
-9.1456252e-001
-9.0441358e-001
-1.0963337e+000
-1.3871720e+000
-1.7195402e+000
-1.9926800e+000
-2.2125001e+000
-2.2712886e+000
-2.2287543e+000
-2.0088801e+000
-1.6938035e+000
-1.4830531e+000
-1.3393893e+000
-1.4634389e+000
-1.7091445e+000
-1.9176457e+000
-2.0709159e+000
-2.0232708e+000
-1.8612503e+000
-1.6118737e+000
-1.3904493e+000
-1.3473834e+000
-1.4577080e+000
-1.7375900e+000
-2.0446076e+000
-2.2835257e+000
-2.4068344e+000
-2.3989773e+000
-2.3160408e+000
-2.1951857e+000
-2.0336249e+000
-1.8412669e+000
-1.6046431e+000
-1.3345268e+000
-1.0744904e+000
-8.2841784e-001
-6.2894225e-001
-4.6127680e-001
-3.7343574e-001
-3.3442134e-001
-3.4868315e-001
-3.8892737e-001
-3.9078397e-001
-3.5064942e-001
-1.7339906e-001
9.9919796e-002
4.7169584e-001
8.2131046e-001
9.4202828e-001
8.7285388e-001
6.1014307e-001
3.2686141e-001
1.7942888e-001
5.5602342e-002
-1.2379551e-001
-2.2211771e-001
-1.7543934e-001
1.8009216e-001
8.5169601e-001
1.5888934e+000
2.2919858e+000
2.5448689e+000
2.3768215e+000
2.0657263e+000
1.7075975e+000
1.6286401e+000
1.7702882e+000
1.7606974e+000
1.6150453e+000
1.1012685e+000
3.7473702e-001
-1.0614878e-001
-3.1709671e-001
1.1281824e-001
1.0915421e+000
2.5084629e+000
3.9831474e+000
4.9657321e+000
5.6370931e+000
6.2000160e+000
7.0324454e+000
8.4802332e+000
1.0736109e+001
1.3853920e+001
1.7484797e+001
2.1345428e+001
2.4722490e+001
2.7394392e+001
2.9856709e+001
3.2322880e+001
3.5667252e+001
3.9898132e+001
4.4694267e+001
4.9860077e+001
5.4176910e+001
5.7737926e+001
6.1407379e+001
6.5249168e+001
6.9724068e+001
7.4637489e+001
7.9308746e+001
8.3724480e+001
8.7781731e+001
9.1505951e+001
9.4926308e+001
9.8044228e+001
1.0086928e+002
1.0319160e+002
1.0478167e+002
1.0500159e+002
1.0338143e+002
1.0056197e+002
9.7182259e+001
9.3573418e+001
8.9966164e+001
8.5901001e+001
8.1237099e+001
7.6426674e+001
7.1644867e+001
6.7188118e+001
6.3080521e+001
5.8873402e+001
5.4510101e+001
5.0193352e+001
4.5942760e+001
4.1868973e+001
3.7997707e+001
3.4499054e+001
3.1414572e+001
2.8850504e+001
2.6780279e+001
2.5032337e+001
2.3600702e+001
2.2418093e+001
2.1500328e+001
2.0830500e+001
2.0388021e+001
2.0112532e+001
1.9973888e+001
1.9923552e+001
2.0014614e+001
2.0273205e+001
2.0772690e+001
2.1537241e+001
2.2626772e+001
2.4046942e+001
2.5650160e+001
2.7377932e+001
2.8980183e+001
3.0401480e+001
3.1717205e+001
3.2943405e+001
3.4444664e+001
3.6322971e+001
3.9049301e+001
4.2574741e+001
4.5770710e+001
4.8452938e+001
5.0206795e+001
5.1189510e+001
5.2242821e+001
5.3376305e+001
5.4582401e+001
5.5395782e+001
5.5114689e+001
5.3808800e+001
5.1747929e+001
4.9501698e+001
4.7684917e+001
4.6294655e+001
4.5308147e+001
4.4434174e+001
4.3491955e+001
4.2056873e+001
3.9904259e+001
3.7496788e+001
3.4957737e+001
3.2662601e+001
3.0727768e+001
2.8440742e+001
2.5647720e+001
2.2600405e+001
1.9316990e+001
1.6565662e+001
1.4439030e+001
1.2519000e+001
1.0825842e+001
9.2124805e+000
7.6762090e+000
6.1545286e+000
4.6343699e+000
3.0853920e+000
1.6557903e+000
5.7638359e-001
-2.1649122e-002
5.7545751e-003
6.3175142e-001
1.7286446e+000
2.8464379e+000
3.6493089e+000
4.2158017e+000
4.5611563e+000
5.0146232e+000
5.7514849e+000
6.6302223e+000
7.6499600e+000
8.3168430e+000
8.4038506e+000
8.2036114e+000
7.6172657e+000
7.0206213e+000
6.4188790e+000
5.8713303e+000
5.4128008e+000
5.0697284e+000
4.8488083e+000
4.6233525e+000
4.3655262e+000
4.0143528e+000
3.6247301e+000
3.3471916e+000
3.2392120e+000
3.3652289e+000
3.6741173e+000
4.0809093e+000
4.4697142e+000
4.7089119e+000
4.8588362e+000
4.9512787e+000
5.0901308e+000
5.3583579e+000
5.7211838e+000
6.2070661e+000
6.7067041e+000
7.1973662e+000
7.5524282e+000
7.6534686e+000
7.5855594e+000
7.2405534e+000
6.8567715e+000
6.4196401e+000
5.9957223e+000
5.5972443e+000
5.2378850e+000
4.9329476e+000
4.6697431e+000
4.4384575e+000
4.1782360e+000
3.8770802e+000
3.5243828e+000
3.1243272e+000
2.6936061e+000
2.2326655e+000
1.7381068e+000
1.2488207e+000
8.1129843e-001
4.4533956e-001
2.0507321e-001
4.4670798e-002
1.8724748e-003
6.5540507e-002
2.5759920e-001
5.2862096e-001
9.3911791e-001
1.2942613e+000
1.5136771e+000
1.5695552e+000
1.3385060e+000
1.1020128e+000
8.8175899e-001
7.9255849e-001
9.0069038e-001
1.1236607e+000
1.4801394e+000
1.8542695e+000
2.2179599e+000
2.4842913e+000
2.6386452e+000
2.6827765e+000
2.6403110e+000
2.5577550e+000
2.4525549e+000
2.3443739e+000
2.2411327e+000
2.1549852e+000
2.0897429e+000
2.0661485e+000
2.0707388e+000
2.1248796e+000
2.1893280e+000
2.2619915e+000
2.3239458e+000
2.3568985e+000
2.3901258e+000
2.4249501e+000
2.4677427e+000
2.5276849e+000
2.6006384e+000
2.7012105e+000
2.8390949e+000
3.0365078e+000
3.2811737e+000
3.5859134e+000
3.9231021e+000
4.2957067e+000
4.6893802e+000
5.1035204e+000
5.5342922e+000
5.9747305e+000
6.4133263e+000
6.8407750e+000
7.2329078e+000
7.5942683e+000
7.8971691e+000
8.1582842e+000
8.3351460e+000
8.4518023e+000
8.4236755e+000
8.3209457e+000
8.0230045e+000
7.6721072e+000
7.1842332e+000
6.6793160e+000
6.1356344e+000
5.5952730e+000
5.0631256e+000
4.5435829e+000
4.0473480e+000
3.5691276e+000
3.1195805e+000
2.6947386e+000
2.2990398e+000
1.9143484e+000
1.5331657e+000
1.1236868e+000
6.9435215e-001
2.6635864e-001
-1.4288661e-001
-4.7626501e-001
-7.6220083e-001
-9.8960203e-001
-1.1910206e+000
-1.3642362e+000
-1.5050505e+000
-1.5400696e+000
-1.5198799e+000
-1.3339609e+000
-1.1223474e+000
-8.4975487e-001
-5.9516853e-001
-3.9561164e-001
-2.0375958e-001
-3.0095354e-002
1.4565794e-001
3.2100797e-001
4.6619713e-001
5.5887753e-001
6.1834258e-001
6.2927788e-001
6.0303462e-001
5.2824855e-001
3.9564621e-001
2.2310123e-001
9.2992440e-002
2.1916471e-002
1.1635774e-001
3.2005182e-001
6.8567395e-001
1.1200566e+000
1.5901423e+000
2.0524278e+000
2.4220188e+000
2.7479188e+000
2.9292119e+000
3.0908604e+000
3.2193599e+000
3.3564122e+000
3.5304971e+000
3.6911747e+000
3.8072395e+000
3.8972950e+000
3.9248235e+000
3.9546175e+000
3.9949491e+000
4.0846496e+000
4.2607999e+000
4.5250840e+000
4.9051180e+000
5.3537922e+000
5.8692160e+000
6.3914571e+000
6.9067783e+000
7.3377118e+000
7.6925807e+000
7.8615928e+000
7.9273071e+000
7.8490686e+000
7.7232690e+000
7.5926070e+000
7.4678488e+000
7.3935671e+000
7.3348999e+000
7.3430414e+000
7.3648553e+000
7.4531870e+000
7.5423484e+000
7.6336479e+000
7.7135582e+000
7.7577009e+000
7.8086634e+000
7.8775678e+000
7.9687333e+000
8.0990829e+000
8.2164621e+000
8.3113184e+000
8.3677101e+000
8.3762083e+000
8.3384743e+000
8.2537403e+000
8.1045647e+000
7.9095750e+000
7.6953650e+000
7.4740829e+000
7.2842345e+000
7.0960054e+000
6.7953115e+000
6.4404621e+000
5.8198757e+000
5.1493363e+000
4.4221683e+000
3.7056444e+000
3.1693223e+000
2.6504571e+000
2.2418008e+000
1.8475552e+000
1.5175072e+000
1.2022755e+000
9.3212795e-001
6.5899181e-001
3.7994629e-001
1.1659450e-001
-1.1552070e-001
-2.8114843e-001
-3.5532722e-001
-3.7918353e-001
-3.5355830e-001
-3.6725658e-001
-4.1511267e-001
-5.1572418e-001
-6.4471734e-001
-7.0735902e-001
-7.3430830e-001
-6.4629769e-001
-5.2128482e-001
-3.9644563e-001
-2.7434427e-001
-2.1254759e-001
-1.5959720e-001
-1.4452443e-001
-1.2622149e-001
-4.1509606e-002
5.6276619e-003
1.7563143e-001
5.2818567e-001
9.8070419e-001
1.3621628e+000
1.5332342e+000
1.6140302e+000
1.5034981e+000
1.4308189e+000
1.4214422e+000
1.5479380e+000
1.8404127e+000
2.1860819e+000
2.5791507e+000
2.8479943e+000
3.0270219e+000
3.0276315e+000
2.9339800e+000
2.8120625e+000
2.6805158e+000
2.6829154e+000
2.7210867e+000
2.8811142e+000
3.0607474e+000
3.1637001e+000
