##TITLE=Methyl Ethyl Ketone
##JCAMP-DX=4.24
##DATA TYPE=INFRARED SPECTRUM
##XUNITS=cm-1
##YUNITS=Absorbance
##FIRSTX=900
##LASTX=2300
##XYDATA=(X++(Y..Y))
2296 0.041986
2294 0.042858753
2292 0.043732502
2290 0.04460625
2288 0.045479003
2286 0.046352748
2284 0.0472265
2282 0.048099261
2280 0.048973002
2278 0.04984675
2276 0.050720502
2274 0.051593266
2272 0.052467
2270 0.053340752
2268 0.05421352
2266 0.05508725
2264 0.055960998
2262 0.056833774
2260 0.0577075
2258 0.058581252
2256 0.059455
2254 0.060327783
2252 0.061201502
2250 0.06207525
2248 0.062948033
2246 0.063821755
2244 0.030933877
2242 0.0011441829
2240 -0.043070402
2238 -0.073279932
2236 -0.10132906
2234 -0.064692318
2232 -0.020943748
2230 0.078015491
2228 0.17958942
2226 0.28103101
2224 0.3783491
2222 0.45696193
2220 0.5075708
2218 0.47598132
2216 0.39498627
2214 0.21618634
2212 0.039172702
2210 -0.12550619
2208 -0.25357628
2206 -0.33695534
2204 -0.41925594
2202 -0.50325453
2200 -0.59043795
2198 -0.6799261
2196 -0.71855217
2194 -0.72775251
2192 -0.64524347
2190 -0.523377
2188 -0.38246053
2186 -0.23621351
2184 -0.1583204
2182 -0.096238814
2180 -0.11794778
2178 -0.15288618
2176 -0.25770399
2174 -0.36756384
2172 -0.46212161
2170 -0.54562789
2168 -0.57402164
2166 -0.59221363
2164 -0.59272784
2162 -0.59402972
2160 -0.60188138
2158 -0.60381877
2156 -0.59332001
2154 -0.56542546
2152 -0.51418859
2150 -0.46262923
2148 -0.41346788
2146 -0.36730787
2144 -0.32358611
2142 -0.27105811
2140 -0.21220003
2138 -0.15729943
2136 -0.10490091
2134 -0.10444817
2132 -0.12581119
2130 -0.24334724
2128 -0.39093962
2126 -0.54266977
2124 -0.69480026
2122 -0.75954753
2120 -0.80857903
2118 -0.82375026
2116 -0.83126587
2114 -0.8175205
2112 -0.79305983
2110 -0.73479986
2108 -0.68363237
2106 -0.66878933
2104 -0.70319641
2102 -0.83442318
2100 -0.99340683
2098 -1.1748357
2096 -1.3111428
2094 -1.3840946
2092 -1.4158531
2090 -1.4144123
2088 -1.4262714
2086 -1.4530649
2084 -1.4904094
2082 -1.5334048
2080 -1.5106692
2078 -1.4528699
2076 -1.3072472
2074 -1.1268247
2072 -1.030316
2070 -0.96202016
2068 -1.1055919
2066 -1.3005699
2064 -1.5088674
2062 -1.7034587
2060 -1.7345854
2058 -1.72444
2056 -1.6644828
2054 -1.6004727
2052 -1.5570668
2050 -1.5131072
2048 -1.4570628
2046 -1.4240286
2044 -1.4404199
2042 -1.5145148
2040 -1.6618686
2038 -1.8226485
2036 -1.9831557
2034 -2.0872951
2032 -2.136857
2030 -2.0923979
2028 -1.9813925
2026 -1.8301486
2024 -1.6601309
2022 -1.5570097
2020 -1.490082
2018 -1.5027244
2016 -1.54706
2014 -1.6161734
2012 -1.6927395
2010 -1.7663281
2008 -1.8366411
2006 -1.8667779
2004 -1.8791308
2002 -1.837297
2000 -1.7834114
1998 -1.7360488
1996 -1.7146715
1994 -1.7660863
1992 -1.8602469
1990 -2.010823
1988 -2.1420379
1986 -2.2167044
1984 -2.2141354
1982 -2.1226201
1980 -2.023788
1978 -1.939003
1976 -1.9018857
1974 -1.90564
1972 -1.8434557
1970 -1.7240946
1968 -1.5578091
1966 -1.3684636
1964 -1.3876666
1962 -1.519197
1960 -1.7672039
1958 -2.0600233
1956 -2.1767743
1954 -2.2254338
1952 -2.1638622
1950 -2.0713136
1948 -2.0082731
1946 -1.964375
1944 -1.9736629
1942 -2.0071719
1940 -2.0720048
1938 -2.1244929
1936 -2.1203258
1934 -2.0827222
1932 -2.010524
1930 -1.9635454
1928 -1.9717492
1926 -1.98717
1924 -1.9911609
1922 -1.9359227
1920 -1.8207606
1918 -1.736698
1916 -1.6951857
1914 -1.6830097
1912 -1.6858366
1910 -1.645319
1908 -1.5745075
1906 -1.5716079
1904 -1.608768
1902 -1.677339
1900 -1.758836
1898 -1.705547
1896 -1.5941714
1894 -1.4197989
1892 -1.233618
1890 -1.134653
1888 -1.1014286
1886 -1.2092378
1884 -1.3958902
1882 -1.6634138
1880 -1.9438125
1878 -2.1851258
1876 -2.3288002
1874 -2.3149548
1872 -2.1307533
1870 -1.7672
1868 -1.4132017
1866 -1.1435728
1864 -1.1272479
1862 -1.3552179
1860 -1.6412165
1858 -1.9214503
1856 -2.0566628
1854 -2.0795579
1852 -1.97723
1850 -1.8041853
1848 -1.553704
1846 -1.2626786
1844 -1.1131577
1842 -1.0456436
1840 -1.2297388
1838 -1.5254471
1836 -1.7581371
1834 -1.918431
1832 -1.8449931
1830 -1.6240178
1828 -1.2509183
1826 -0.87199193
1824 -0.65969592
1822 -0.6462571
1820 -0.9088974
1818 -1.2857181
1816 -1.6709343
1814 -1.9640288
1812 -2.1184666
1810 -2.1701281
1808 -2.1536322
1806 -2.0561352
1804 -1.8954138
1802 -1.6225491
1800 -1.2612664
1798 -0.86110842
1796 -0.44511718
1794 -0.13944289
1792 0.084371112
1790 0.13918181
1788 0.091338322
1786 0.00087112188
1784 -0.10379317
1782 -0.10997544
1780 -0.037018437
1778 0.20272106
1776 0.53127146
1774 0.86009765
1772 1.0896254
1770 1.0005686
1768 0.73137468
1766 0.39617351
1764 0.14051837
1762 0.10658406
1760 0.049698688
1758 -0.033824265
1756 -0.0046630837
1754 0.14439814
1752 0.57367659
1750 1.2959697
1748 2.0671899
1746 2.7930465
1744 3.0844998
1742 2.9707241
1740 2.7628694
1738 2.5476103
1736 2.6508
1734 3.0016642
1732 3.0148571
1730 2.7521832
1728 1.955808
1726 0.85080397
1724 0.10278999
1722 -0.27943891
1720 0.10773942
1718 1.1225283
1716 2.6083143
1714 4.1755781
1712 5.2454095
1710 6.0092454
1708 6.6876502
1706 7.6333699
1704 9.1728096
1702 11.466904
1700 14.55074
1698 18.0872
1696 21.803715
1694 25.034679
1692 27.578888
1690 29.919085
1688 32.268387
1686 35.433464
1684 39.420609
1682 43.931789
1680 48.782322
1678 52.861835
1676 56.253887
1674 59.733791
1672 63.367329
1670 67.627441
1668 72.343231
1666 76.951904
1664 81.408264
1662 85.543083
1660 89.359245
1658 92.843979
1656 96.040146
1654 99.024353
1652 101.5982
1650 103.54787
1648 104.15498
1646 102.84607
1644 100.28126
1642 97.124557
1640 93.73996
1638 90.38562
1636 86.533272
1634 82.014526
1632 77.25264
1630 72.425217
1628 67.985786
1626 63.989746
1624 60.005119
1622 55.963268
1620 51.919605
1618 47.882545
1616 43.909969
1614 40.035118
1612 36.493675
1610 33.336891
1608 30.725771
1606 28.630108
1604 26.863256
1602 25.407555
1600 24.170879
1598 23.173706
1596 22.411499
1594 21.874649
1592 21.516251
1590 21.296259
1588 21.155596
1586 21.139471
1584 21.270863
1582 21.633091
1580 22.257839
1578 23.195393
1576 24.447886
1574 25.889065
1572 27.465021
1570 28.927078
1568 30.220039
1566 31.373014
1564 32.396595
1562 33.70789
1560 35.415764
1558 38.019783
1556 41.477985
1554 44.626671
1552 47.282566
1550 49.029999
1548 50.042191
1546 51.204144
1544 52.570084
1542 54.185726
1540 55.509041
1538 55.668365
1536 54.621971
1534 52.523876
1532 50.057304
1530 47.985645
1528 46.315388
1526 45.0345
1524 43.883686
1522 42.699112
1520 41.175652
1518 39.145454
1516 36.933971
1514 34.629356
1512 32.456039
1510 30.488909
1508 28.140585
1506 25.270094
1504 22.255629
1502 19.135548
1500 16.540514
1498 14.55092
1496 12.714714
1494 11.048214
1492 9.443058
1490 7.8895988
1488 6.3156657
1486 4.7179585
1484 3.0994139
1482 1.6258183
1480 0.55880606
1478 -0.0096009821
1476 0.024392277
1474 0.60914105
1472 1.545784
1470 2.458241
1468 3.0844927
1466 3.5638151
1464 3.9688435
1462 4.5253906
1460 5.3737555
1458 6.308476
1456 7.2905202
1454 7.8914614
1452 7.8822832
1450 7.6183963
1448 7.0180554
1446 6.4274182
1444 5.8628583
1442 5.3788381
1440 5.0208278
1438 4.7996159
1436 4.7196302
1434 4.6123819
1432 4.4371147
1430 4.1176991
1428 3.7089779
1426 3.3921106
1424 3.216192
1422 3.2397294
1420 3.4128563
1418 3.6502595
1416 3.8996286
1414 4.1017408
1412 4.2804532
1410 4.4581575
1408 4.6477585
1406 4.8641372
1404 5.1182618
1402 5.4293714
1400 5.7745881
1398 6.1653452
1396 6.4784069
1394 6.6361899
1392 6.6756668
1390 6.5149436
1388 6.3107929
1386 6.0382152
1384 5.7358599
1382 5.4008369
1380 5.0862699
1378 4.8031397
1376 4.5493054
1374 4.3083682
1372 4.0071201
1370 3.6404209
1368 3.2262869
1366 2.7851186
1364 2.366581
1362 1.9677846
1360 1.5838525
1358 1.214844
1356 0.86461288
1354 0.54251933
1352 0.27518761
1350 0.070875667
1348 -0.045057945
1346 -0.10240061
1344 0.022159956
1342 0.24000293
1340 0.61716652
1338 0.95377022
1336 1.1842172
1334 1.2780837
1332 1.1247091
1330 0.95072913
1328 0.76258546
1326 0.6680814
1324 0.72541112
1322 0.9020623
1320 1.2260423
1318 1.5951202
1316 1.9810801
1314 2.2719555
1312 2.4528189
1310 2.5276098
1308 2.5178523
1306 2.4704566
1304 2.3927493
1302 2.286912
1300 2.1708605
1298 2.0579123
1296 1.9786428
1294 1.9873011
1292 2.0592275
1290 2.2459271
1288 2.4554958
1286 2.6813192
1284 2.891361
1282 3.0564413
1280 3.2079628
1278 3.3260231
1276 3.4134943
1274 3.44331
1272 3.4577365
1270 3.4565625
1268 3.4949143
1266 3.601383
1264 3.78372
1262 4.0703588
1260 4.4448118
1258 4.910419
1256 5.4150972
1254 5.9372606
1252 6.4146047
1250 6.8517957
1248 7.2451077
1246 7.6235747
1244 8.0236902
1242 8.4367294
1240 8.8648453
1238 9.2633162
1236 9.5511618
1234 9.7558584
1232 9.7570677
1230 9.6924667
1228 9.4807863
1226 9.2276659
1224 8.8636885
1222 8.4491739
1220 7.9145403
1218 7.3552213
1216 6.7516456
1214 6.1661677
1212 5.6169128
1210 5.1087952
1208 4.6583662
1206 4.2265611
1204 3.8110862
1202 3.3788674
1200 2.9316463
1198 2.4832718
1196 2.0330215
1194 1.5780476
1192 1.1232207
1190 0.680287
1188 0.269503
1186 -0.029928967
1184 -0.26202783
1182 -0.3671928
1180 -0.42562112
1178 -0.41019559
1176 -0.36238199
1174 -0.22406295
1172 -0.086339638
1170 0.024942324
1168 0.076784804
1166 -0.050321609
1164 -0.17767392
1162 -0.29529911
1160 -0.33326817
1158 -0.21519688
1156 -0.082252339
1154 0.067355916
1152 0.17537761
1150 0.22428679
1148 0.2356586
1146 0.2030675
1144 0.14028667
1142 0.059367634
1140 0.015792612
1138 0.017339297
1136 0.12730142
1134 0.29809418
1132 0.54057813
1130 0.82445192
1128 1.1819731
1126 1.5725785
1124 2.0312872
1122 2.4768341
1120 2.788964
1118 3.0340533
1116 2.9869885
1114 2.92241
1112 2.808737
1110 2.7486167
1108 2.860482
1106 3.0174448
1104 3.2832606
1102 3.5481427
1100 3.8152049
1098 4.1147847
1096 4.4769855
1094 4.9401345
1092 5.5269017
1090 6.1274524
1088 6.7309394
1086 7.2621899
1084 7.7362089
1082 8.1911421
1080 8.6220007
1078 8.9616089
1076 9.2359114
1074 9.3356676
1072 9.3558016
1070 9.2124786
1068 9.0087843
1066 8.6283665
1064 8.2318153
1062 7.8853226
1060 7.5860176
1058 7.57582
1056 7.593214
1054 7.7285428
1052 7.8382874
1050 7.8659849
1048 7.8737001
1046 7.8364716
1044 7.8238149
1042 7.8565903
1040 7.8947005
1038 7.9390979
1036 7.9709902
1034 7.9888549
1032 8.0066481
1030 8.0131845
1028 7.9035425
1026 7.6937428
1024 7.2711592
1022 6.7285957
1020 6.0903254
1018 5.424119
1016 4.8526397
1014 4.322238
1012 3.9627826
1010 3.642477
1008 3.4370039
1006 3.2457199
1004 3.1085308
1002 2.9658897
1000 2.7823241
998 2.5716352
996 2.2415929
994 1.907922
992 1.5664371
990 1.2804908
988 1.1244452
986 1.0204192
984 1.0048858
982 0.95914823
980 0.86862499
978 0.69743598
976 0.44368401
974 0.19882038
972 -0.031773612
970 -0.13203532
968 -0.146669
966 -0.036303334
964 0.13313888
962 0.3559989
960 0.59399074
958 0.7904042
956 0.968072
954 0.92596388
952 0.8478328
950 0.54117656
948 0.23665814
946 0.095193446
944 0.00052481744
942 0.0099442005
940 0.31747487
938 0.78763545
936 1.2272201
934 1.5770525
932 1.9129969
930 2.2208457
928 2.5781865
926 3.0136499
924 3.4111419
922 3.7598865
920 3.9556241
918 4.0085797
916 4.0067201
914 3.967298
912 4.0142593
910 4.106576
908 4.1740007
906 4.2320423
904 4.2518578
902 4.2634826
900 4.6324201
898 5.0591125
896 5.6269999
