##TITLE=Methyl Ethyl Ketone
##JCAMP-DX=4.24
##DATA TYPE=INFRARED SPECTRUM
##XUNITS=cm-1
##YUNITS=Absorbance
##FIRSTX=900
##LASTX=2300
##XYDATA=(X++(Y..Y))
2296 0.020854
2294 0.021297365
2292 0.021740731
2290 0.022184096
2288 0.022626469
2286 0.023069829
2284 0.023513194
2282 0.023955571
2280 0.024398927
2278 0.02484229
2276 0.025285657
2274 0.025728039
2272 0.02617139
2270 0.026614754
2268 0.027057139
2266 0.027500486
2264 0.027943851
2262 0.028387217
2260 0.028829608
2258 0.029272949
2256 0.029716313
2254 0.03015871
2252 0.030602045
2250 0.031045413
2248 0.03148878
2246 0.031931181
2244 0.013947348
2242 0.00051118713
2240 -0.0081326403
2238 -0.050724849
2236 -0.098339759
2234 -0.10586624
2232 -0.10774228
2230 -0.047598477
2228 0.0070588896
2226 -0.0056330501
2224 -0.035296485
2222 -0.12680073
2220 -0.21215843
2218 -0.26863018
2216 -0.30467114
2214 -0.29961869
2212 -0.2745896
2210 -0.22093867
2208 -0.1639348
2206 -0.10496443
2204 -0.066277504
2202 -0.047291905
2200 -0.022363612
2198 0.0079666199
2196 0.094675571
2194 0.21368879
2192 0.35114875
2190 0.49575022
2188 0.56038648
2186 0.59887069
2184 0.59777719
2182 0.58794117
2180 0.62659216
2178 0.67246598
2176 0.71161485
2174 0.74875963
2172 0.77049202
2170 0.79419369
2168 0.83758187
2166 0.87807012
2164 0.90101832
2162 0.91733485
2160 0.92117029
2158 0.93220109
2156 0.95926404
2154 0.98721915
2152 1.0140486
2150 1.0347143
2148 1.0485152
2146 1.0590072
2144 1.0673206
2142 1.071671
2140 1.0735217
2138 1.0759178
2136 1.07868
2134 1.0683001
2132 1.0522445
2130 1.0275592
2128 1.0001416
2126 1.0038309
2124 1.0147994
2122 1.0569208
2120 1.103704
2118 1.14626
2116 1.1827971
2114 1.1785259
2112 1.1568755
2110 1.0845153
2108 1.0062964
2106 0.93297642
2104 0.88643855
2102 0.89742506
2100 0.93786681
2098 1.0135456
2096 1.091
2094 1.1640393
2092 1.2374609
2090 1.3118231
2088 1.3965337
2086 1.48964
2084 1.5744011
2082 1.6529077
2080 1.7076777
2078 1.7503691
2076 1.7863001
2074 1.8200721
2072 1.882352
2070 1.9539126
2068 2.0478911
2066 2.1465521
2064 2.2116892
2062 2.265125
2060 2.2646711
2058 2.247196
2056 2.1950314
2054 2.1407306
2052 2.1036735
2050 2.0903814
2048 2.1301074
2046 2.1883678
2044 2.262404
2042 2.3358102
2040 2.4035034
2038 2.481936
2036 2.5742571
2034 2.6622934
2032 2.7436578
2030 2.7778349
2028 2.7759931
2026 2.7589221
2024 2.7360239
2022 2.7747509
2020 2.8459959
2018 2.9587545
2016 3.0871599
2014 3.1625516
2012 3.2194009
2010 3.1982348
2008 3.1563017
2006 3.1085122
2004 3.0675926
2002 3.0858068
2000 3.12868
1998 3.2144165
1996 3.3013144
1994 3.3599474
1992 3.3915327
1990 3.3771174
1988 3.359956
1986 3.3562329
1984 3.3719537
1982 3.410321
1980 3.4337275
1978 3.4349177
1976 3.4259999
1974 3.4125121
1972 3.4519324
1970 3.5329223
1968 3.6460216
1966 3.7747271
1964 3.8475046
1962 3.8891296
1960 3.8583519
1958 3.7974789
1956 3.69942
1954 3.5899982
1952 3.5228457
1950 3.4755957
1948 3.4928038
1946 3.5256
1944 3.5317531
1942 3.5205905
1940 3.4735248
1938 3.4271424
1936 3.4106543
1934 3.408107
1932 3.4169281
1930 3.4167025
1928 3.3980296
1926 3.3884892
1924 3.3983877
1922 3.4433668
1920 3.5201056
1918 3.5713429
1916 3.5913713
1914 3.5637057
1912 3.5049736
1910 3.4502614
1908 3.402298
1906 3.3494051
1904 3.2930322
1902 3.2548962
1900 3.225116
1898 3.275775
1896 3.3579144
1894 3.4395692
1892 3.5062549
1890 3.4712601
1888 3.3858159
1886 3.2485492
1884 3.1022475
1882 2.9866612
1880 2.9034777
1878 2.8708787
1876 2.88341
1874 2.9490306
1872 3.0476789
1870 3.1709473
1868 3.2490857
1866 3.2584863
1864 3.1715372
1862 3.001375
1860 2.8190656
1858 2.6460986
1856 2.5131259
1854 2.410598
1852 2.3415186
1850 2.2919817
1848 2.2958999
1846 2.3306215
1844 2.3762155
1842 2.4246695
1840 2.4146097
1838 2.377506
1836 2.3531456
1834 2.340802
1832 2.3671172
1830 2.397578
1828 2.3785386
1826 2.3044837
1824 2.1345012
1822 1.9258906
1820 1.7195721
1818 1.5546999
1816 1.4627857
1814 1.424894
1812 1.4276921
1810 1.444011
1808 1.459632
1806 1.48086
1804 1.5080141
1802 1.5146054
1800 1.5020456
1798 1.4469122
1796 1.3612642
1794 1.2849263
1792 1.21752
1790 1.1575123
1788 1.0996085
1786 1.0248572
1784 0.94074994
1782 0.87399065
1780 0.82393485
1778 0.82519668
1776 0.86185712
1774 0.93343979
1772 0.99311745
1770 0.95314497
1768 0.825692
1766 0.59921217
1764 0.3526614
1762 0.15978894
1760 0.03636875
1758 -0.037412032
1756 -0.035890184
1754 0.054613855
1752 0.2461071
1750 0.52456468
1748 0.74599439
1746 0.87645108
1744 0.81580597
1742 0.59300762
1740 0.38819548
1738 0.22829883
1736 0.23731402
1734 0.37277433
1732 0.43227386
1730 0.42219263
1728 0.23643029
1726 -0.051146783
1724 -0.20694068
1722 -0.2261031
1720 -0.012946352
1718 0.3289597
1716 0.79541838
1714 1.2844362
1712 1.5676765
1710 1.7539577
1708 1.975526
1706 2.4213178
1704 3.2652526
1702 4.6911831
1700 6.7691445
1698 9.5511761
1696 12.947286
1694 16.3552
1692 19.506495
1690 22.432775
1688 25.199097
1686 28.623392
1684 32.753273
1682 37.636677
1680 43.091919
1678 47.803856
1676 51.825329
1674 55.769955
1672 59.745773
1670 64.435104
1668 69.629745
1666 74.615097
1664 79.336632
1662 83.569427
1660 87.417992
1658 91.083031
1656 94.595314
1654 98.010452
1652 101.03144
1650 103.31329
1648 104.17389
1646 103.08858
1644 100.77567
1642 97.947517
1640 94.898766
1638 91.837959
1636 88.349899
1634 84.307838
1632 80.01059
1630 75.597549
1628 71.33197
1626 67.257736
1624 63.13184
1622 58.924149
1620 54.725655
1618 50.546314
1616 46.4268
1614 42.408367
1612 38.793003
1610 35.61359
1608 32.940983
1606 30.74128
1604 28.826735
1602 27.2054
1600 25.841085
1598 24.75259
1596 23.926498
1594 23.348198
1592 22.961811
1590 22.720354
1588 22.55772
1586 22.454571
1584 22.390903
1582 22.396891
1580 22.485163
1578 22.725243
1576 23.138914
1574 23.723717
1572 24.467731
1570 25.288769
1568 26.16584
1566 27.095915
1564 28.084234
1562 29.328085
1560 30.926542
1558 33.435955
1556 36.908085
1554 40.671921
1552 44.511917
1550 47.494873
1548 49.667545
1546 51.570286
1544 53.287296
1542 55.066952
1540 56.69968
1538 57.848408
1536 58.249855
1534 57.685272
1532 56.57275
1530 55.417347
1528 54.330345
1526 53.398499
1524 52.38575
1522 51.142349
1520 49.410576
1518 47.035847
1516 44.489758
1514 41.908493
1512 39.4646
1510 37.221863
1508 34.543293
1506 31.278908
1504 27.99321
1502 24.751171
1500 22.041782
1498 19.920971
1496 17.816713
1494 15.705924
1492 13.498135
1490 11.191899
1488 8.8412371
1486 6.5189385
1484 4.3789639
1482 2.5540242
1480 1.1990724
1478 0.35555151
1476 0.063132554
1474 0.3756378
1472 1.1886289
1470 2.138525
1468 2.993861
1466 3.6882637
1464 4.1627364
1462 4.6206136
1460 5.1526713
1458 5.7376127
1456 6.3827
1454 6.8561549
1452 7.0431585
1450 7.0377593
1448 6.7637029
1446 6.4561038
1444 6.1104884
1442 5.8008838
1440 5.5355792
1438 5.2702365
1436 4.971137
1434 4.5307508
1432 3.9347389
1430 3.2586689
1428 2.5600901
1426 1.993495
1424 1.5966811
1422 1.3997469
1420 1.3781526
1418 1.4817808
1416 1.6418029
1414 1.785295
1412 1.9198574
1410 2.0567822
1408 2.2347167
1406 2.4951286
1404 2.8276711
1402 3.2586839
1400 3.7360759
1398 4.2703233
1396 4.7915072
1394 5.2743979
1392 5.6734433
1390 5.9173818
1388 6.0336595
1386 5.94455
1384 5.7288251
1382 5.3425407
1380 4.9036293
1378 4.4106688
1376 3.9278429
1374 3.4708784
1372 3.0594299
1370 2.7076924
1368 2.4244263
1366 2.1739764
1364 1.8889101
1362 1.5469992
1360 1.1064517
1358 0.65464854
1356 0.28815496
1354 0.037899397
1352 -0.0074056797
1350 0.045708068
1348 0.19744676
1346 0.39086819
1344 0.62566435
1342 0.88073778
1340 1.1706423
1338 1.4481025
1336 1.6924
1334 1.8907652
1332 2.0036585
1330 2.120785
1328 2.2528105
1326 2.4343629
1324 2.6926553
1322 2.9932432
1320 3.3472068
1318 3.7158883
1316 4.0922699
1314 4.4432197
1312 4.7583508
1310 5.0274839
1308 5.2480774
1306 5.4190888
1304 5.5427952
1302 5.6067553
1300 5.6334147
1298 5.6242285
1296 5.6060429
1294 5.5931873
1292 5.5839405
1290 5.580296
1288 5.5750837
1286 5.5628457
1284 5.5517659
1282 5.5448766
1280 5.5492992
1278 5.5801864
1276 5.6304684
1274 5.7198386
1272 5.8243456
1270 5.9553256
1268 6.0972514
1266 6.2552752
1264 6.423141
1262 6.5980802
1260 6.7604079
1258 6.9046836
1256 7.0243201
1254 7.1253338
1252 7.2276168
1250 7.3338823
1248 7.452003
1246 7.57195
1244 7.6770573
1242 7.7643595
1240 7.8097301
1238 7.822475
1236 7.7659459
1234 7.6692185
1232 7.4836478
1230 7.2657461
1228 6.9716096
1226 6.6472774
1224 6.2403388
1222 5.7991815
1220 5.2794347
1218 4.763607
1216 4.2621374
1214 3.8042278
1212 3.418354
1210 3.0493608
1208 2.7001953
1206 2.3400736
1204 1.973142
1202 1.6308823
1200 1.3252412
1198 1.0854499
1196 0.90483427
1194 0.77692807
1192 0.68393552
1190 0.612104
1188 0.5556587
1186 0.52432841
1184 0.51103115
1182 0.53801042
1180 0.5931772
1178 0.7262916
1176 0.90016401
1174 1.1963054
1172 1.5106376
1170 1.8657737
1168 2.1883755
1166 2.406837
1164 2.5670435
1162 2.579881
1160 2.532995
1158 2.3643017
1156 2.1509686
1154 1.8673469
1152 1.579896
1150 1.2923586
1148 1.0318725
1146 0.80253077
1144 0.5913561
1142 0.39749306
1140 0.21660253
1138 0.053786907
1136 -0.058021486
1134 -0.12082947
1132 -0.059557114
1130 0.072382987
1128 0.32643428
1126 0.60791314
1124 0.85858095
1122 1.0769529
1120 1.153344
1118 1.2072977
1116 1.2121156
1114 1.2297474
1112 1.3053817
1110 1.392846
1108 1.5162231
1106 1.62945
1104 1.7153367
1102 1.7757952
1100 1.7853258
1098 1.774039
1096 1.7310714
1094 1.6856689
1092 1.6393839
1090 1.6072364
1088 1.5886669
1086 1.56944
1084 1.5482566
1082 1.5156788
1080 1.4771315
1078 1.443531
1076 1.4102443
1074 1.3625122
1072 1.3067691
1070 1.2279351
1068 1.148266
1066 1.1005936
1064 1.0619839
1062 1.0603408
1060 1.0561632
1058 1.0240183
1056 0.98691684
1054 0.9287039
1052 0.87172538
1050 0.81840986
1048 0.76154619
1046 0.69665748
1044 0.63650244
1042 0.58534336
1040 0.5391711
1038 0.4988054
1036 0.445795
1034 0.37818468
1032 0.30598575
1030 0.22940469
1028 0.14805815
1026 0.062905304
1024 -0.028613001
1022 -0.1213679
1020 -0.19174699
1018 -0.2505306
1016 -0.27628943
1014 -0.29202479
1012 -0.29508293
1010 -0.29849571
1008 -0.33065641
1006 -0.36818686
1004 -0.44084752
1002 -0.51329625
1000 -0.58244121
998 -0.65071946
996 -0.71450359
994 -0.76538748
992 -0.77477616
990 -0.75423241
988 -0.66516322
986 -0.56857437
984 -0.45922366
982 -0.35642359
980 -0.26249599
978 -0.17354697
976 -0.091512993
974 -0.039336644
972 -0.012725003
970 -0.019210178
968 -0.044545416
966 -0.049524151
964 -0.04278041
962 0.013903387
960 0.084975161
958 0.12212326
956 0.14831743
954 0.092842415
952 0.027769841
950 -0.030879863
948 -0.081780605
946 -0.02665575
944 0.0020743534
942 0.064947844
940 0.20227927
938 0.4077661
936 0.61116856
934 0.80767196
932 0.96950698
930 1.0557498
928 1.0673354
926 0.95866203
924 0.8033576
922 0.59303141
920 0.46266261
918 0.40866569
916 0.50332153
914 0.70279193
912 0.9134922
910 1.129397
908 1.2486106
906 1.33112
904 1.3758011
902 1.4107764
900 1.4052657
898 1.3931609
896 1.2959
