##TITLE=Methyl Ethyl Ketone
##JCAMP-DX=4.24
##DATA TYPE=INFRARED SPECTRUM
##XUNITS=cm-1
##YUNITS=Absorbance
##FIRSTX=900
##LASTX=2300
##XYDATA=(X++(Y..Y))
2296 0.12434
2294 0.1269263
2292 0.12951259
2290 0.13210885
2288 0.1346952
2286 0.13728149
2284 0.1398678
2282 0.1424541
2280 0.14504041
2278 0.1476267
2276 0.150213
2274 0.15279931
2272 0.1553856
2270 0.1579719
2268 0.16055821
2266 0.1631445
2264 0.1657308
2262 0.16833661
2260 0.17090391
2258 0.17343134
2256 0.17607428
2254 0.1789145
2252 0.18125677
2250 0.18292579
2248 0.18639863
2246 0.187195
2244 0.14970708
2242 0.041328952
2240 -0.12339524
2238 -0.31115416
2236 -0.46685857
2234 -0.54081005
2232 -0.52948213
2230 -0.4511131
2228 -0.35818774
2226 -0.302701
2224 -0.29530561
2222 -0.32891983
2220 -0.37424666
2218 -0.40114978
2216 -0.40222231
2214 -0.37940803
2212 -0.3450242
2210 -0.3144156
2208 -0.30285057
2206 -0.32354364
2204 -0.38145021
2202 -0.47275409
2200 -0.56821495
2198 -0.63354665
2196 -0.64587218
2194 -0.59478253
2192 -0.50563759
2190 -0.41164985
2188 -0.33232412
2186 -0.27740821
2184 -0.2355108
2182 -0.19176693
2180 -0.14451483
2178 -0.097014964
2176 -0.054540172
2174 -0.022936672
2172 -0.0080118477
2170 -0.015317688
2168 -0.049468953
2166 -0.10860938
2164 -0.16564684
2162 -0.18780066
2160 -0.15356503
2158 -0.054846194
2156 0.077773802
2154 0.20343851
2152 0.29275084
2150 0.3264946
2148 0.30983302
2146 0.25703785
2144 0.18569176
2142 0.1150395
2140 0.067415357
2138 0.062246442
2136 0.10256486
2134 0.17972434
2132 0.26117229
2130 0.3110289
2128 0.3143644
2126 0.27100363
2124 0.2092374
2122 0.16203037
2120 0.13974114
2118 0.14111948
2116 0.15248443
2114 0.15877801
2112 0.15703063
2110 0.14819668
2108 0.13007052
2106 0.099482208
2104 0.054990306
2102 -0.0011266228
2100 -0.054023508
2098 -0.086681321
2096 -0.092930429
2094 -0.073658749
2092 -0.040903773
2090 -0.0084227528
2088 0.02020858
2086 0.044931848
2084 0.062996596
2082 0.072029077
2080 0.076386571
2078 0.084137827
2076 0.10743328
2074 0.15457748
2072 0.2115864
2070 0.25706759
2068 0.27688852
2066 0.26456442
2064 0.23152395
2062 0.19395806
2060 0.15778834
2058 0.1237192
2056 0.089912973
2054 0.056132026
2052 0.032298639
2050 0.029602421
2048 0.046353389
2046 0.073273718
2044 0.093092501
2042 0.09036307
2040 0.070513107
2038 0.04883159
2036 0.043506075
2034 0.068278961
2032 0.11484938
2030 0.1651054
2028 0.20043109
2026 0.20757121
2024 0.19453377
2022 0.17668396
2020 0.16055529
2018 0.14581724
2016 0.122186
2014 0.079321802
2012 0.024627971
2010 -0.028274607
2008 -0.074756466
2006 -0.11526313
2004 -0.15215677
2002 -0.1865426
2000 -0.21151537
1998 -0.21644169
1996 -0.19077143
1994 -0.12802866
1992 -0.037975501
1990 0.060668811
1988 0.14355806
1986 0.18812564
1984 0.1887736
1982 0.15040329
1980 0.087442912
1978 0.01934994
1976 -0.030125584
1974 -0.038975019
1972 -0.00043728855
1970 0.079126589
1968 0.16976817
1966 0.23524107
1964 0.2601203
1962 0.24431255
1960 0.2054736
1958 0.16546744
1956 0.12934828
1954 0.095237792
1952 0.070489317
1950 0.065145105
1948 0.077545807
1946 0.096791245
1944 0.099811368
1942 0.065904558
1940 0.0097563667
1938 -0.03832531
1936 -0.06228834
1934 -0.05869488
1932 -0.039879598
1930 -0.019411577
1928 0.016948167
1926 0.095085904
1924 0.22437847
1922 0.39459145
1920 0.55436873
1918 0.64318693
1916 0.65401685
1914 0.61231792
1912 0.55015379
1910 0.49085328
1908 0.41521406
1906 0.29107684
1904 0.13280463
1902 -0.015140317
1900 -0.099176869
1898 -0.07627517
1896 0.03872614
1894 0.19597563
1892 0.33659559
1890 0.40763092
1888 0.39165965
1886 0.2970925
1884 0.15535268
1882 0.0074542686
1880 -0.11367073
1878 -0.18161233
1876 -0.173308
1874 -0.073195383
1872 0.10739732
1870 0.33167061
1868 0.51979244
1866 0.58344269
1864 0.50335562
1862 0.3125613
1860 0.081945725
1858 -0.10888938
1856 -0.22368543
1854 -0.25285116
1852 -0.17996334
1850 0.0082012191
1848 0.2792064
1846 0.56452966
1844 0.76353741
1842 0.78165513
1840 0.62678832
1838 0.37763122
1836 0.13498372
1834 -0.0068102479
1832 -0.012847493
1830 0.10040051
1828 0.25844863
1826 0.36190715
1824 0.34686589
1822 0.19224384
1820 -0.049624801
1818 -0.2851609
1816 -0.43571115
1814 -0.45303142
1812 -0.35923654
1810 -0.21906367
1808 -0.088772029
1806 -0.0011922009
1804 0.06800732
1802 0.17598476
1800 0.36186624
1798 0.6317929
1796 0.91709286
1794 1.1064566
1792 1.115584
1790 0.91253358
1788 0.59275705
1786 0.31751072
1784 0.16372377
1782 0.13594741
1780 0.2219584
1778 0.40405118
1776 0.65305227
1774 0.92162448
1772 1.1143432
1770 1.1240023
1768 0.94044316
1766 0.63695735
1764 0.33363441
1762 0.14322959
1760 0.035352647
1758 -0.097159714
1756 -0.22604099
1754 -0.22202481
1752 -0.0083433241
1750 0.4128775
1748 0.92233181
1746 1.3355179
1744 1.5300092
1742 1.4699452
1740 1.2573162
1738 1.0631872
1736 0.93975002
1734 0.82945639
1732 0.64166218
1730 0.30273056
1728 -0.13371468
1726 -0.51495767
1724 -0.68448585
1722 -0.50958997
1720 0.084605157
1718 1.0912883
1716 2.3221371
1714 3.4842579
1712 4.4264488
1710 5.162715
1708 5.8679876
1706 6.8161907
1704 8.2450752
1702 10.305292
1700 12.950051
1698 15.959459
1696 19.017
1694 21.80283
1692 24.235577
1690 26.467909
1688 28.804396
1686 31.596586
1684 34.990746
1682 38.888241
1680 42.894558
1678 46.500305
1676 49.665257
1674 52.759056
1672 56.087914
1670 59.780769
1668 63.698311
1666 67.531349
1664 71.146713
1662 74.586792
1660 77.863281
1658 80.943871
1656 83.859657
1654 86.694824
1652 89.482719
1650 92.144432
1648 94.3218
1646 95.507286
1644 95.601982
1642 94.894882
1640 93.614639
1638 91.837288
1636 89.510727
1634 86.535851
1632 83.025177
1630 79.277336
1628 75.478348
1626 71.658798
1624 67.780434
1622 63.783375
1620 59.684616
1618 55.580276
1616 51.576775
1614 47.776146
1612 44.285591
1610 41.199772
1608 38.521587
1606 36.169155
1604 34.065079
1602 32.161217
1600 30.456429
1598 28.984573
1596 27.755501
1594 26.7453
1592 25.905205
1590 25.177931
1588 24.551258
1586 24.062408
1584 23.765085
1582 23.71657
1580 23.968222
1578 24.550766
1576 25.427628
1574 26.491758
1572 27.607557
1570 28.645987
1568 29.57332
1566 30.451752
1564 31.329794
1562 32.258198
1560 33.474892
1558 35.341572
1556 37.848541
1554 40.556778
1552 42.999233
1550 44.847298
1548 46.153397
1546 47.320965
1544 48.595154
1542 49.931084
1540 51.08416
1538 51.695885
1536 51.615685
1534 50.976151
1532 50.048435
1530 49.157413
1528 48.448662
1526 47.837551
1524 47.150387
1522 46.182137
1520 44.796921
1518 42.980438
1516 40.906029
1514 38.889496
1512 37.031521
1510 35.138611
1508 32.954433
1506 30.281778
1504 27.236856
1502 24.257
1500 21.6271
1498 19.351431
1496 17.317572
1494 15.358674
1492 13.369909
1490 11.334426
1488 9.2354345
1486 7.0530763
1484 4.8766961
1482 2.9251533
1480 1.3944142
1478 0.41399309
1476 0.083591871
1474 0.43895742
1472 1.2753465
1470 2.14466
1468 2.795974
1466 3.3011093
1464 3.8047986
1462 4.4328327
1460 5.1807761
1458 5.8774457
1456 6.30932
1454 6.2935133
1452 5.8588929
1450 5.2804165
1448 4.7440562
1446 4.2507071
1444 3.7878759
1442 3.3787329
1440 3.0546381
1438 2.8373446
1436 2.6928728
1434 2.5218978
1432 2.2544343
1430 1.8889444
1428 1.48584
1426 1.1613985
1424 0.99394941
1422 0.98566478
1420 1.0866923
1418 1.2043283
1416 1.2725228
1414 1.2819901
1412 1.2672789
1410 1.3025495
1408 1.4418972
1406 1.6972142
1404 2.0653508
1402 2.5312705
1400 3.0585361
1398 3.5828984
1396 4.0311284
1394 4.3342185
1392 4.4697571
1390 4.4799805
1388 4.4081264
1386 4.2767501
1384 4.1015739
1382 3.8969393
1380 3.6889536
1378 3.5161362
1376 3.385323
1374 3.2539566
1372 3.0814681
1370 2.8516874
1368 2.5774167
1366 2.3017149
1364 2.0390098
1362 1.7522867
1360 1.4147063
1358 1.0367239
1356 0.65885228
1354 0.34855217
1352 0.13735302
1350 -0.0056198388
1348 -0.10190193
1346 -0.13510929
1344 -0.075844884
1342 0.10318197
1340 0.37352237
1338 0.62270397
1336 0.75071138
1334 0.71758014
1332 0.55050981
1330 0.35896039
1328 0.23639497
1326 0.21788235
1324 0.31698769
1322 0.5313037
1320 0.84226847
1318 1.2085443
1316 1.57268
1314 1.8632237
1312 2.034076
1310 2.0897529
1308 2.0630965
1306 2.013545
1304 1.9916514
1302 2.020535
1300 2.1053803
1298 2.2309208
1296 2.3770573
1294 2.5243578
1292 2.6591613
1290 2.7781382
1288 2.8833761
1286 2.9827406
1284 3.0866666
1282 3.2077103
1280 3.3578389
1278 3.5453737
1276 3.7701814
1274 4.0177498
1272 4.2697268
1270 4.5083323
1268 4.7271395
1266 4.9399843
1264 5.1676402
1262 5.4333448
1260 5.7536321
1258 6.1311293
1256 6.5661488
1254 7.0598254
1252 7.6103268
1250 8.2090216
1248 8.8408194
1246 9.4820747
1244 10.114808
1242 10.734509
1240 11.336742
1238 11.910647
1236 12.435143
1234 12.879847
1232 13.21924
1230 13.440537
1228 13.54132
1226 13.530314
1224 13.414783
1222 13.199937
1220 12.894066
1218 12.51379
1216 12.078258
1214 11.606246
1212 11.108628
1210 10.582418
1208 10.024717
1206 9.4334908
1204 8.8108158
1202 8.1667576
1200 7.5124025
1198 6.8583016
1196 6.2132287
1194 5.5835419
1192 4.9767795
1190 4.4037161
1188 3.8741412
1186 3.3934987
1184 2.9656205
1182 2.5934663
1180 2.2840061
1178 2.0520477
1176 1.9044399
1174 1.8256557
1172 1.788604
1170 1.7538247
1168 1.6895789
1166 1.5883936
1164 1.4535348
1162 1.2990999
1160 1.14046
1158 0.98956198
1156 0.85430229
1154 0.73536873
1152 0.62812078
1150 0.5205487
1148 0.40367299
1146 0.28025323
1144 0.1611484
1142 0.0684257
1140 0.017283851
1138 0.00097762793
1136 0.011128435
1134 0.048267897
1132 0.11876866
1130 0.23786022
1128 0.42298412
1126 0.69040585
1124 1.0440886
1122 1.4583738
1120 1.89586
1118 2.3095102
1116 2.6653414
1114 2.9676027
1112 3.2352691
1110 3.5005724
1108 3.7875493
1106 4.0928049
1104 4.4077239
1102 4.7271743
1100 5.0544562
1098 5.4099908
1096 5.8074427
1094 6.2321424
1092 6.6566319
1090 7.0396705
1088 7.3494015
1086 7.5885668
1084 7.7768941
1082 7.9553986
1080 8.1565742
1078 8.3762732
1076 8.592926
1074 8.765152
1072 8.8628683
1070 8.9011316
1068 8.9087315
1066 8.9204836
1064 8.9575882
1062 8.9996252
1060 9.0133982
1058 8.959281
1056 8.8054457
1054 8.5462456
1052 8.1884537
1050 7.755898
1048 7.2757754
1046 6.7743039
1044 6.2747288
1042 5.7933831
1040 5.3401918
1038 4.9132371
1036 4.5078802
1034 4.1209512
1032 3.75214
1030 3.4092937
1028 3.0993905
1026 2.8225229
1024 2.5753093
1022 2.3493772
1020 2.1354265
1018 1.9259391
1016 1.7153171
1014 1.5021449
1012 1.2872431
1010 1.0748881
1008 0.86750919
1006 0.65970474
1004 0.44369215
1002 0.21053548
1000 -0.04496184
998 -0.31525245
996 -0.58968496
994 -0.85777295
992 -1.1097262
990 -1.3380816
988 -1.5340675
986 -1.6831079
984 -1.7701874
982 -1.7822843
980 -1.7103281
978 -1.5548282
976 -1.3237686
974 -1.0402132
972 -0.72763145
970 -0.39783829
968 -0.057512045
966 0.294512
964 0.65062046
962 0.96702683
960 1.194724
958 1.2980677
956 1.2585843
954 1.1060305
952 0.88117683
950 0.62236881
948 0.36919421
946 0.16721696
944 0.04954597
942 -0.00040207244
940 -0.012431669
938 -0.019352481
936 -0.051225662
934 -0.12507029
932 -0.24163091
930 -0.35422677
928 -0.4166587
926 -0.42848763
924 -0.40446639
922 -0.37374732
920 -0.36567098
918 -0.39670381
916 -0.47083142
914 -0.55648983
912 -0.60899031
910 -0.5674569
908 -0.38961661
906 -0.12119909
904 0.1564163
902 0.30856699
900 0.2328762
898 0.0078273565
896 -0.24281
