Image.
>Pix99999.
  .
5555
5555
2300
900
5555
2
1
0
701
5555
4.1710999e-002
4.2596735e-002
4.3483462e-002
4.4369198e-002
4.5255926e-002
4.6141662e-002
4.7027398e-002
4.7914118e-002
4.8799865e-002
4.9685597e-002
5.0572317e-002
5.1461015e-002
5.2344825e-002
5.3221695e-002
5.4117057e-002
5.5039201e-002
5.5890549e-002
5.6641787e-002
5.7658643e-002
5.9046999e-002
5.9449285e-002
5.8465749e-002
6.1147001e-002
6.8997286e-002
6.3224323e-002
3.0321678e-002
7.2424789e-004
8.5455859e-003
5.3085092e-002
1.1976761e-001
1.7808430e-001
2.0098406e-001
1.9322692e-001
1.6793090e-001
1.3468443e-001
1.0038615e-001
6.5484077e-002
2.8546000e-002
-1.1903680e-002
-5.5692732e-002
-9.6046969e-002
-1.2015314e-001
-9.8683983e-002
-7.8321071e-003
1.3385877e-001
2.8996137e-001
4.0407404e-001
4.2868516e-001
3.7659639e-001
2.8246930e-001
1.9353858e-001
1.4841908e-001
1.3590920e-001
1.2896654e-001
1.0014305e-001
3.1492114e-002
-5.6913078e-002
-1.3419692e-001
-1.7510551e-001
-1.6502625e-001
-1.2433115e-001
-8.5259520e-002
-8.2075313e-002
-1.3840115e-001
-2.3265564e-001
-3.2630715e-001
-3.7292942e-001
-3.3756167e-001
-2.4157040e-001
-1.2736768e-001
-4.5647498e-002
-3.5998318e-002
-8.3084777e-002
-1.5143362e-001
-2.0063940e-001
-2.0076856e-001
-1.7000623e-001
-1.4101839e-001
-1.3685037e-001
-1.6742402e-001
-2.0450000e-001
-2.1250284e-001
-1.8111002e-001
-1.1630823e-001
-5.2443679e-002
-2.7513543e-002
-5.3444449e-002
-1.2684564e-001
-2.2161064e-001
-3.0693924e-001
-3.6577129e-001
-3.8936651e-001
-3.8112918e-001
-3.5050407e-001
-3.1390736e-001
-2.8929207e-001
-2.9074863e-001
-3.2722789e-001
-3.9272419e-001
-4.7379726e-001
-5.4969859e-001
-6.0149854e-001
-6.2867659e-001
-6.4008719e-001
-6.5341407e-001
-6.8510550e-001
-7.3343742e-001
-7.8957808e-001
-8.4562081e-001
-8.9682734e-001
-9.4897211e-001
-1.0087001e+000
-1.0689681e+000
-1.1155810e+000
-1.1287274e+000
-1.0928779e+000
-1.0181062e+000
-9.2676121e-001
-8.4952778e-001
-8.1324393e-001
-8.1701195e-001
-8.4505349e-001
-8.6845797e-001
-8.6050218e-001
-8.2446855e-001
-7.7960396e-001
-7.5752097e-001
-7.8536290e-001
-8.5192680e-001
-9.2756164e-001
-9.7565085e-001
-9.6731544e-001
-9.1539490e-001
-8.5156429e-001
-8.0956161e-001
-8.1231451e-001
-8.3761287e-001
-8.4765399e-001
-8.2369280e-001
-7.6582378e-001
-7.1288997e-001
-7.1158838e-001
-7.6989287e-001
-8.7500870e-001
-1.0050582e+000
-1.1374365e+000
-1.2598505e+000
-1.3637420e+000
-1.4355628e+000
-1.4636047e+000
-1.4543785e+000
-1.4242911e+000
-1.3948451e+000
-1.3851054e+000
-1.3950200e+000
-1.4146836e+000
-1.4319898e+000
-1.4373841e+000
-1.4341060e+000
-1.4281310e+000
-1.4118115e+000
-1.3697470e+000
-1.2858701e+000
-1.1529944e+000
-1.0019772e+000
-8.7965459e-001
-8.2094479e-001
-8.4414780e-001
-9.2725676e-001
-1.0324340e+000
-1.1387814e+000
-1.2368975e+000
-1.3244143e+000
-1.3986022e+000
-1.4437526e+000
-1.4410501e+000
-1.3885926e+000
-1.2977352e+000
-1.1965863e+000
-1.1179302e+000
-1.0795943e+000
-1.0871320e+000
-1.1297179e+000
-1.1884699e+000
-1.2424154e+000
-1.2705407e+000
-1.2525966e+000
-1.1747985e+000
-1.0494405e+000
-9.0374017e-001
-7.6762557e-001
-6.6681439e-001
-6.0679096e-001
-5.8196872e-001
-5.8724678e-001
-6.1764449e-001
-6.6336960e-001
-7.1158832e-001
-7.4843019e-001
-7.5971556e-001
-7.3141861e-001
-6.5539902e-001
-5.4869437e-001
-4.4497970e-001
-3.8795474e-001
-4.1503000e-001
-5.1641852e-001
-6.5294003e-001
-7.7811360e-001
-8.4983277e-001
-8.5262197e-001
-7.8975332e-001
-6.7768985e-001
-5.4194260e-001
-4.2033774e-001
-3.5172158e-001
-3.4970269e-001
-4.0841228e-001
-5.0571251e-001
-6.1344254e-001
-7.1324712e-001
-7.9349178e-001
-8.4199595e-001
-8.4866202e-001
-8.1718999e-001
-7.6044106e-001
-6.9379795e-001
-6.3159907e-001
-5.8065206e-001
-5.4076380e-001
-5.0176489e-001
-4.4627312e-001
-3.5043961e-001
-1.9760078e-001
-1.8853839e-002
1.2500523e-001
1.7859663e-001
1.0694750e-001
-6.4314403e-002
-2.7222082e-001
-4.5901573e-001
-5.8286935e-001
-6.3869250e-001
-6.4265281e-001
-6.0202789e-001
-5.1721352e-001
-3.9638722e-001
-2.5621489e-001
-1.2360828e-001
-2.4416940e-002
4.8132107e-002
1.1886751e-001
1.9112080e-001
2.5132069e-001
2.8816125e-001
2.9724628e-001
2.8883240e-001
2.8226915e-001
2.9434213e-001
3.3936861e-001
4.3421942e-001
5.8712018e-001
7.5678170e-001
8.6890692e-001
8.5901564e-001
6.9568270e-001
4.4629961e-001
2.2682893e-001
5.8841314e-002
-1.0012745e-001
-2.3237827e-001
-2.7569583e-001
-2.1142846e-001
-6.7550309e-002
9.3362406e-002
1.9617535e-001
2.0051599e-001
1.0805275e-001
-1.6655900e-002
-7.9447828e-002
-4.7754202e-002
4.8469502e-002
1.3155416e-001
1.1204712e-001
-2.1303006e-002
-2.0641980e-001
-3.3583361e-001
-2.8039300e-001
7.1301430e-002
7.7579844e-001
1.7142115e+000
2.6537986e+000
3.4536190e+000
4.1003547e+000
4.7476697e+000
5.6638827e+000
7.1036711e+000
9.2641163e+000
1.2205786e+001
1.5823832e+001
1.9724857e+001
2.3362101e+001
2.6484152e+001
2.9178513e+001
3.1841806e+001
3.5039829e+001
3.9161324e+001
4.4290157e+001
4.9913239e+001
5.5185863e+001
5.9896286e+001
6.4431503e+001
6.9150276e+001
7.4196938e+001
7.9280838e+001
8.3826599e+001
8.7555099e+001
9.0511627e+001
9.2811798e+001
9.4571114e+001
9.5864799e+001
9.6721344e+001
9.7120125e+001
9.7006500e+001
9.6342140e+001
9.5138824e+001
9.3560852e+001
9.1863548e+001
9.0105583e+001
8.8138702e+001
8.5758446e+001
8.2787811e+001
7.9264153e+001
7.5402962e+001
7.1328026e+001
6.7039673e+001
6.2512398e+001
5.7742702e+001
5.2842072e+001
4.8020546e+001
4.3458000e+001
3.9280983e+001
3.5587662e+001
3.2442810e+001
2.9829651e+001
2.7658350e+001
2.5845549e+001
2.4334606e+001
2.3098852e+001
2.2135317e+001
2.1436001e+001
2.0983477e+001
2.0758331e+001
2.0744120e+001
2.0939756e+001
2.1356693e+001
2.1999994e+001
2.2872570e+001
2.4013655e+001
2.5497374e+001
2.7384371e+001
2.9696665e+001
3.2358898e+001
3.5206623e+001
3.8086678e+001
4.0883976e+001
4.3533779e+001
4.6052490e+001
4.8642326e+001
5.1589672e+001
5.4706314e+001
5.7320030e+001
5.8964119e+001
5.9565960e+001
5.9385700e+001
5.8897251e+001
5.8272560e+001
5.7300907e+001
5.5727180e+001
5.3400261e+001
5.0516373e+001
4.7597660e+001
4.4997349e+001
4.2778587e+001
4.0862427e+001
3.9077599e+001
3.7255199e+001
3.5268635e+001
3.3078087e+001
3.0750378e+001
2.8435785e+001
2.6321125e+001
2.4421921e+001
2.2546488e+001
2.0494663e+001
1.8148899e+001
1.5610703e+001
1.3196534e+001
1.1110463e+001
9.3560085e+000
7.8482003e+000
6.4601011e+000
5.1287742e+000
3.8785393e+000
2.7328615e+000
1.6969085e+000
8.0185604e-001
1.1479619e-001
-2.9885891e-001
-3.7975442e-001
-4.0800005e-002
8.1177324e-001
2.1161692e+000
3.6230171e+000
5.1158342e+000
6.4891829e+000
7.7488098e+000
9.0048656e+000
1.0339822e+001
1.1746845e+001
1.3078800e+001
1.4056848e+001
1.4521146e+001
1.4517280e+001
1.4164309e+001
1.3613214e+001
1.2977700e+001
1.2307800e+001
1.1622943e+001
1.0914999e+001
1.0147629e+001
9.2671652e+000
8.2803879e+000
7.2838144e+000
6.3873577e+000
5.6842093e+000
5.2170515e+000
4.9626398e+000
4.8797326e+000
4.9230247e+000
5.0534430e+000
5.2441959e+000
5.4842515e+000
5.7804866e+000
6.1374936e+000
6.5488958e+000
6.9912257e+000
7.4190125e+000
7.7762041e+000
8.0010939e+000
8.0462494e+000
7.8932528e+000
7.5642591e+000
7.1300216e+000
6.6615071e+000
6.2108102e+000
5.8089395e+000
5.4597902e+000
5.1532655e+000
4.8644786e+000
4.5537033e+000
4.1682429e+000
3.6795721e+000
3.1025653e+000
2.4751401e+000
1.8523108e+000
1.2713456e+000
7.3870099e-001
2.6987311e-001
-9.5820978e-002
-3.1768528e-001
-3.6228058e-001
-2.0417371e-001
1.6655639e-001
7.2472310e-001
1.3981571e+000
2.1239161e+000
2.8677483e+000
3.5855322e+000
4.2066712e+000
4.6559687e+000
4.8680029e+000
4.8237324e+000
4.5772252e+000
4.2027340e+000
3.7793851e+000
3.3784542e+000
3.0527940e+000
2.8302536e+000
2.7010119e+000
2.6316700e+000
2.5661390e+000
2.4595361e+000
2.2971699e+000
2.0875149e+000
1.8656900e+000
1.6658411e+000
1.5100211e+000
1.4167860e+000
1.4040205e+000
1.4926858e+000
1.7066374e+000
2.0549653e+000
2.5178261e+000
3.0595961e+000
3.6296093e+000
4.1828880e+000
4.6918278e+000
5.1368022e+000
5.5066862e+000
5.7986255e+000
6.0219049e+000
6.1974249e+000
6.3616438e+000
6.5476956e+000
6.7763195e+000
7.0608587e+000
7.4071517e+000
7.8252802e+000
8.3356972e+000
8.9582052e+000
9.7054825e+000
1.0579623e+001
1.1564523e+001
1.2636349e+001
1.3758750e+001
1.4889909e+001
1.5983288e+001
1.6985142e+001
1.7834511e+001
1.8465456e+001
1.8809971e+001
1.8810360e+001
1.8429579e+001
1.7661846e+001
1.6559801e+001
1.5209599e+001
1.3737508e+001
1.2278480e+001
1.0961800e+001
9.8881826e+000
9.1017580e+000
8.6119642e+000
8.3864918e+000
8.3772116e+000
8.5216475e+000
8.7394686e+000
8.9212694e+000
8.9573555e+000
8.7573757e+000
8.2784786e+000
7.5697551e+000
6.7147951e+000
5.8217578e+000
4.9804735e+000
4.2280140e+000
3.5802629e+000
3.0344696e+000
2.5856357e+000
2.2326021e+000
1.9703001e+000
1.7835951e+000
1.6580343e+000
1.5860938e+000
1.5661680e+000
1.6044557e+000
1.6992731e+000
1.8275450e+000
1.9569303e+000
2.0479312e+000
2.0666428e+000
1.9972285e+000
1.8354161e+000
1.5947865e+000
1.2977480e+000
9.7794640e-001
6.7019999e-001
4.0487507e-001
1.9886628e-001
4.1149624e-002
-7.7126481e-002
-1.4509749e-001
-1.5606475e-001
-1.2400305e-001
-6.4251088e-002
1.7258830e-002
1.2386081e-001
2.7461797e-001
4.8130882e-001
7.2768348e-001
9.8153514e-001
1.1893477e+000
1.3058052e+000
1.3196318e+000
1.2386240e+000
1.0985451e+000
9.4681257e-001
8.4139180e-001
8.2906961e-001
9.2029309e-001
1.1068857e+000
1.3575597e+000
1.6565760e+000
2.0412445e+000
2.5460539e+000
3.1612520e+000
3.8359404e+000
4.4408278e+000
4.8547373e+000
5.0301218e+000
4.9679031e+000
4.7502546e+000
4.4751654e+000
4.2286205e+000
4.0714750e+000
4.0043173e+000
4.0009403e+000
4.0022740e+000
3.9533503e+000
3.8330605e+000
3.6370459e+000
3.3857450e+000
3.1062551e+000
2.8274281e+000
2.5785966e+000
2.3875320e+000
2.2772024e+000
2.2580914e+000
2.3364961e+000
2.5164452e+000
2.7926500e+000
3.1340802e+000
3.4919646e+000
3.7848427e+000
3.9386299e+000
3.9263394e+000
3.7491241e+000
3.4581120e+000
3.1158895e+000
2.7836041e+000
2.5085542e+000
2.2980866e+000
2.1348238e+000
1.9572653e+000
1.7128279e+000
1.4097021e+000
1.0763320e+000
7.5667244e-001
4.8225522e-001
2.3440263e-001
-1.0412350e-002
-2.5196952e-001
-4.8607260e-001
-7.1411759e-001
-9.3387550e-001
-1.1268599e+000
-1.2665761e+000
-1.3146775e+000
-1.2497060e+000
-1.1139357e+000
-9.6272141e-001
-8.4147632e-001
-7.7873218e-001
-7.5493717e-001
-7.4218726e-001
-7.2438103e-001
-6.8889666e-001
-6.2531507e-001
-5.2756721e-001
-4.0285736e-001
-2.6650885e-001
-1.5001263e-001
-7.8709997e-002
-4.2283282e-002
-2.3423135e-002
-1.1434043e-002
-2.9768422e-004
5.2941167e-003
1.9091193e-003
2.5683269e-004
1.6331226e-002
7.2288506e-002
1.8131594e-001
3.1819877e-001
4.5311901e-001
5.7466900e-001
6.8297780e-001
8.0394107e-001
9.6508205e-001
1.1756511e+000
1.4333614e+000
1.7100866e+000
1.9726304e+000
2.1931589e+000
2.3586736e+000
2.5072036e+000
2.6754656e+000
2.8440895e+000
2.9813256e+000
3.0599918e+000
3.0544000e+000
