Image.
>Pix99999.
  .
5555
5555
2300
900
5555
2
1
0
701
5555
1.4974000e-001
1.5285555e-001
1.5597109e-001
1.5908663e-001
1.6220218e-001
1.6531771e-001
1.6843325e-001
1.7154880e-001
1.7466435e-001
1.7777002e-001
1.8088543e-001
1.8401082e-001
1.8711668e-001
1.9021243e-001
1.9334720e-001
1.9654143e-001
1.9958052e-001
2.0242102e-001
2.0580257e-001
2.0993708e-001
2.1207057e-001
2.1139280e-001
2.1815000e-001
2.3540139e-001
2.2499983e-001
1.5428464e-001
5.8712292e-002
-1.2695095e-002
-3.3343039e-002
5.2981791e-003
6.5077536e-002
1.0738984e-001
1.4517795e-001
2.0085077e-001
2.7476299e-001
3.5335502e-001
3.9338365e-001
3.5869503e-001
2.7672768e-001
1.9359432e-001
1.5461171e-001
1.8692039e-001
2.4633420e-001
2.7611044e-001
2.5585335e-001
1.9087307e-001
1.4473809e-001
1.8151173e-001
2.9535905e-001
4.5033979e-001
5.7694143e-001
6.1268008e-001
5.6446815e-001
4.6390685e-001
3.5333213e-001
2.7254686e-001
2.3874401e-001
2.5939617e-001
3.3183071e-001
4.4508132e-001
5.6680113e-001
6.6438568e-001
7.3216164e-001
7.7916300e-001
8.3779967e-001
9.3804109e-001
1.0690695e+000
1.2033265e+000
1.3005269e+000
1.3258257e+000
1.2813400e+000
1.1858038e+000
1.0740434e+000
9.7897315e-001
9.0443325e-001
8.4077895e-001
7.6546454e-001
6.6001099e-001
5.4000413e-001
4.3070179e-001
3.4731743e-001
2.9504758e-001
2.5402507e-001
2.0279057e-001
1.4981961e-001
1.1481736e-001
1.1800872e-001
1.7234100e-001
2.6138467e-001
3.5955650e-001
4.4803402e-001
5.1197815e-001
5.4097497e-001
5.2919441e-001
4.8332861e-001
4.1676143e-001
3.5127565e-001
3.0944479e-001
3.0464020e-001
3.4393954e-001
4.2344573e-001
5.3300029e-001
6.5356594e-001
7.6362622e-001
8.4518659e-001
8.8496196e-001
8.8297629e-001
8.4656507e-001
7.9186207e-001
7.3763436e-001
6.9993699e-001
6.9027126e-001
7.0618761e-001
7.3752928e-001
7.6520962e-001
7.7148724e-001
7.5844634e-001
7.3659927e-001
7.1701938e-001
7.0418543e-001
6.7549682e-001
6.0456783e-001
4.9665296e-001
3.7677413e-001
2.9470846e-001
2.9994786e-001
3.9937800e-001
5.7402498e-001
7.7489334e-001
9.4571984e-001
1.0501592e+000
1.0695386e+000
1.0205216e+000
9.3647259e-001
8.5729706e-001
8.2021409e-001
8.4165198e-001
9.2141259e-001
1.0287284e+000
1.1229087e+000
1.1772801e+000
1.1795323e+000
1.1493419e+000
1.1128973e+000
1.0659239e+000
9.9311978e-001
8.9654291e-001
7.9151779e-001
7.1137828e-001
6.8594414e-001
6.9668001e-001
7.0564175e-001
6.9118452e-001
6.4920676e-001
6.1148584e-001
6.1706907e-001
6.6573554e-001
7.3613697e-001
8.0188298e-001
8.4099329e-001
8.5495287e-001
8.5661429e-001
8.5811096e-001
8.6780339e-001
8.8287437e-001
8.9590079e-001
9.0306252e-001
9.0524518e-001
9.1409039e-001
9.4238663e-001
9.8537374e-001
1.0276477e+000
1.0479584e+000
1.0274345e+000
9.6825486e-001
8.8544250e-001
8.0222195e-001
7.4024081e-001
6.9952595e-001
6.6817325e-001
6.3262081e-001
5.8149189e-001
5.1272881e-001
4.2953461e-001
3.3659765e-001
2.4587278e-001
1.9923078e-001
2.4474034e-001
3.8751331e-001
5.9963715e-001
8.1641728e-001
9.6879584e-001
1.0471171e+000
1.0740194e+000
1.0640765e+000
1.0231335e+000
9.5205921e-001
8.5790288e-001
7.8359038e-001
7.8466851e-001
8.8273716e-001
1.0677445e+000
1.2832183e+000
1.4544330e+000
1.5351623e+000
1.5079129e+000
1.4009154e+000
1.2619716e+000
1.1164018e+000
9.7186625e-001
8.2573599e-001
6.7655170e-001
5.4845035e-001
4.7661594e-001
4.7619733e-001
5.4163271e-001
6.3521945e-001
7.0731509e-001
7.3486352e-001
7.1286720e-001
6.3724059e-001
5.0243211e-001
3.0201963e-001
3.6885407e-002
-2.5768673e-001
-5.2403897e-001
-6.9941330e-001
-7.3311746e-001
-6.3244760e-001
-4.4326255e-001
-2.2132643e-001
-1.4410064e-002
1.7582689e-001
3.7317994e-001
5.8331597e-001
7.8909242e-001
9.3751007e-001
9.6626693e-001
8.6754721e-001
6.7546892e-001
4.4312856e-001
2.2651923e-001
5.8284543e-002
-4.4635721e-002
-6.2737688e-002
1.4826301e-002
1.4348283e-001
2.4262598e-001
2.3761497e-001
8.6678222e-002
-1.4116679e-001
-3.1157649e-001
-3.2891878e-001
-1.5505955e-001
1.4719261e-001
4.5891938e-001
7.0090067e-001
8.3777738e-001
8.7241584e-001
8.3128738e-001
7.4757856e-001
6.5302110e-001
5.6393605e-001
4.8375115e-001
4.0759513e-001
3.2819307e-001
2.4760419e-001
1.6723272e-001
5.2237026e-002
-1.4092469e-001
-3.7124071e-001
-5.4185808e-001
-5.9779853e-001
-5.3649479e-001
-4.1558760e-001
-3.2447821e-001
-3.1982279e-001
-4.1113633e-001
-5.2664262e-001
-5.5112094e-001
-4.2961800e-001
-1.7973837e-001
9.0744637e-002
2.3421684e-001
1.9929749e-001
3.1971347e-002
-1.4985535e-001
-1.9023760e-001
4.3078750e-002
6.2551492e-001
1.4816954e+000
2.4285231e+000
3.3096035e+000
4.0420222e+000
4.7099462e+000
5.5209622e+000
6.6722765e+000
8.3343048e+000
1.0681299e+001
1.3819844e+001
1.7495571e+001
2.1196260e+001
2.4564037e+001
2.7497509e+001
3.0307772e+001
3.3583992e+001
3.7771973e+001
4.3005581e+001
4.8740120e+001
5.4048046e+001
5.8715515e+001
6.3205944e+001
6.7956619e+001
7.3161118e+001
7.8496582e+001
8.3298599e+001
8.7242622e+001
9.0378456e+001
9.2829659e+001
9.4711441e+001
9.6083031e+001
9.6954140e+001
9.7345657e+001
9.7285278e+001
9.6753700e+001
9.5713676e+001
9.4241234e+001
9.2506668e+001
9.0608551e+001
8.8543381e+001
8.6223839e+001
8.3522430e+001
8.0403831e+001
7.6915688e+001
7.3041176e+001
6.8703819e+001
6.3905281e+001
5.8755203e+001
5.3493553e+001
4.8445377e+001
4.3841198e+001
3.9792091e+001
3.6334724e+001
3.3445251e+001
3.1044210e+001
2.9014078e+001
2.7263685e+001
2.5741411e+001
2.4429045e+001
2.3335598e+001
2.2475500e+001
2.1863194e+001
2.1502676e+001
2.1385487e+001
2.1498709e+001
2.1823450e+001
2.2336332e+001
2.3022749e+001
2.3924648e+001
2.5140409e+001
2.6762028e+001
2.8839996e+001
3.1309364e+001
3.3994446e+001
3.6734238e+001
3.9417603e+001
4.1985722e+001
4.4461498e+001
4.7057873e+001
5.0083305e+001
5.3385998e+001
5.6329140e+001
5.8402977e+001
5.9409798e+001
5.9518368e+001
5.9177681e+001
5.8598042e+001
5.7662052e+001
5.6224220e+001
5.4225994e+001
5.1831028e+001
4.9401718e+001
4.7167549e+001
4.5144608e+001
4.3243408e+001
4.1309200e+001
3.9209827e+001
3.6876873e+001
3.4363403e+001
3.1845722e+001
2.9491199e+001
2.7391539e+001
2.5459202e+001
2.3441071e+001
2.1200157e+001
1.8798014e+001
1.6427341e+001
1.4349110e+001
1.2632403e+001
1.1106590e+001
9.6009283e+000
8.0232420e+000
6.3915052e+000
4.8304029e+000
3.4395730e+000
2.2582514e+000
1.3068310e+000
5.9698606e-001
1.3187808e-001
-8.2681239e-002
1.7197728e-002
5.4536587e-001
1.5054297e+000
2.7487869e+000
4.1094470e+000
5.4546227e+000
6.7296867e+000
7.9727421e+000
9.2441301e+000
1.0585986e+001
1.1925600e+001
1.3058469e+001
1.3818366e+001
1.4141973e+001
1.4071879e+001
1.3750393e+001
1.3297154e+001
1.2768820e+001
1.2181588e+001
1.1517096e+001
1.0746143e+001
9.8437490e+000
8.8387022e+000
7.8316298e+000
6.9194098e+000
6.1686835e+000
5.6093507e+000
5.2302041e+000
5.0161562e+000
4.9590178e+000
5.0495486e+000
5.2723713e+000
5.5955658e+000
5.9680624e+000
6.3468556e+000
6.7076221e+000
7.0339932e+000
7.3132443e+000
7.5232682e+000
7.6288490e+000
7.6046071e+000
7.4465394e+000
7.1723580e+000
6.8244433e+000
6.4458623e+000
6.0710597e+000
5.7216320e+000
5.3996539e+000
5.0855403e+000
4.7356267e+000
4.3152170e+000
3.8149948e+000
3.2535920e+000
2.6792488e+000
2.1195531e+000
1.5619535e+000
9.9307621e-001
4.1926375e-001
-1.1006847e-001
-4.9176753e-001
-6.4950943e-001
-5.7132214e-001
-2.7929589e-001
1.7245838e-001
7.1774018e-001
1.2868643e+000
1.8352439e+000
2.3586662e+000
2.8540206e+000
3.3036590e+000
3.6746056e+000
3.9174535e+000
3.9962299e+000
3.9062631e+000
3.6681819e+000
3.3334744e+000
2.9667687e+000
2.6388299e+000
2.3959250e+000
2.2384088e+000
2.1394200e+000
2.0463850e+000
1.9143102e+000
1.7243254e+000
1.4812026e+000
1.2206292e+000
9.8532462e-001
8.1643128e-001
7.4457568e-001
7.8219271e-001
9.3623567e-001
1.2108958e+000
1.6073766e+000
2.1209559e+000
2.7349038e+000
3.4118278e+000
4.1024470e+000
4.7461491e+000
5.2901888e+000
5.7038312e+000
5.9823270e+000
6.1594901e+000
6.2826023e+000
6.4051242e+000
6.5668974e+000
6.7802191e+000
7.0517511e+000
7.3905563e+000
7.8157663e+000
8.3614244e+000
9.0499458e+000
9.8742666e+000
1.0813320e+001
1.1834545e+001
1.2909834e+001
1.4024500e+001
1.5157643e+001
1.6264971e+001
1.7290039e+001
1.8162397e+001
1.8819386e+001
1.9220423e+001
1.9326641e+001
1.9103384e+001
1.8526428e+001
1.7598679e+001
1.6359846e+001
1.4913565e+001
1.3391866e+001
1.1954140e+001
1.0741262e+001
9.8342552e+000
9.2689161e+000
9.0129566e+000
9.0067101e+000
9.1648083e+000
9.3822899e+000
9.5289974e+000
9.4860172e+000
9.1768970e+000
8.5788364e+000
7.7619748e+000
6.8229666e+000
5.8665047e+000
4.9834161e+000
4.2289596e+000
3.6379178e+000
3.2171206e+000
2.9547052e+000
2.8134181e+000
2.7527602e+000
2.7393517e+000
2.7469571e+000
2.7614074e+000
2.7704062e+000
2.7600658e+000
2.7189193e+000
2.6420131e+000
2.5289829e+000
2.3862267e+000
2.2207601e+000
2.0375247e+000
1.8376468e+000
1.6153141e+000
1.3628320e+000
1.0745500e+000
7.5960845e-001
4.5983261e-001
2.1607175e-001
4.8046336e-002
-3.7608400e-002
-5.3768493e-002
-2.2072816e-002
2.7445965e-002
7.5040579e-002
1.3026536e-001
2.0798717e-001
3.1787765e-001
4.5850840e-001
6.0463721e-001
7.2695148e-001
8.0095333e-001
8.1064844e-001
7.5876242e-001
6.5675449e-001
5.2749747e-001
4.0364698e-001
3.3429679e-001
3.6005676e-001
4.8884505e-001
7.0946145e-001
9.8362494e-001
1.2825320e+000
1.6179295e+000
2.0033994e+000
2.4306741e+000
2.8679028e+000
3.2374394e+000
3.4697485e+000
3.5466030e+000
3.4753330e+000
3.2980995e+000
3.0613759e+000
2.8018546e+000
2.5582099e+000
2.3799722e+000
2.3067760e+000
2.3432553e+000
2.4719150e+000
2.6389565e+000
2.7962058e+000
2.9364939e+000
3.0676112e+000
3.2100520e+000
3.3717268e+000
3.5169177e+000
3.6042743e+000
3.6075988e+000
3.5238953e+000
3.4054556e+000
3.3099499e+000
3.2686293e+000
3.2825353e+000
3.2831023e+000
3.1963372e+000
2.9849463e+000
2.6429770e+000
2.2313089e+000
1.8133817e+000
1.4116857e+000
1.0336823e+000
6.7213863e-001
3.2370919e-001
6.9539100e-003
-2.6203078e-001
-4.9101537e-001
-6.8839866e-001
-8.4633189e-001
-9.5243198e-001
-9.9346954e-001
-9.7227573e-001
-9.4307142e-001
-9.7074896e-001
-1.1124791e+000
-1.3959463e+000
-1.7598000e+000
-2.1170571e+000
-2.3708673e+000
-2.4504700e+000
-2.3789077e+000
-2.2059629e+000
-1.9907724e+000
-1.7833586e+000
-1.5938706e+000
-1.4171292e+000
-1.2295750e+000
-1.0072261e+000
-7.4093026e-001
-4.4372973e-001
-1.9103339e-001
-5.8294840e-002
-6.6267662e-002
-1.9079600e-001
-2.9949865e-001
-2.7220744e-001
-1.2664416e-001
8.6176485e-002
3.1834430e-001
5.2137291e-001
6.4257574e-001
6.5093881e-001
5.9777272e-001
5.4522318e-001
5.1995885e-001
5.3654593e-001
5.9687996e-001
6.8662858e-001
7.4265617e-001
7.0058006e-001
5.3762913e-001
2.7518460e-001
6.2841497e-002
5.4826751e-002
2.9957899e-001
7.9090941e-001
1.4129671e+000
2.0370817e+000
2.5926316e+000
3.0425010e+000
3.4273434e+000
3.8071001e+000
