Image.
>Pix99999.
  .
5555
5555
2300
900
5555
2
1
0
701
5555
-3.7824001e-002
-3.8610876e-002
-3.9397750e-002
-4.0184621e-002
-4.0971495e-002
-4.1758370e-002
-4.2545248e-002
-4.3332122e-002
-4.4118997e-002
-4.4905867e-002
-4.5692742e-002
-4.6479616e-002
-4.7266491e-002
-4.8053365e-002
-4.8840240e-002
-4.9627114e-002
-5.0413989e-002
-5.1200863e-002
-5.1987737e-002
-5.2774612e-002
-5.3561483e-002
-5.4348361e-002
-5.5135235e-002
-5.5922110e-002
-5.6708984e-002
-5.7495855e-002
-2.1366058e-003
5.5777278e-002
1.0741180e-001
1.4515761e-001
1.8095616e-001
1.8805225e-001
1.8967463e-001
1.1451193e-001
3.6239862e-002
-3.7128799e-002
-8.7483428e-002
-3.3639163e-002
3.7940778e-002
1.4662901e-001
2.3195344e-001
2.6165080e-001
2.8008240e-001
2.8548682e-001
3.1935722e-001
3.8970193e-001
4.6776816e-001
5.5099148e-001
6.0279024e-001
6.3083500e-001
6.3295925e-001
6.2107551e-001
6.0757804e-001
5.9381485e-001
5.9171790e-001
5.9340835e-001
6.2088400e-001
6.5423423e-001
7.2480267e-001
8.0108285e-001
8.9468968e-001
9.8698890e-001
1.0464975e+000
1.0917220e+000
1.0728040e+000
1.0414714e+000
9.8749924e-001
9.4913840e-001
9.5642912e-001
9.8706669e-001
1.0531189e+000
1.1098808e+000
1.1478869e+000
1.1438968e+000
1.0949769e+000
1.0133178e+000
9.0685600e-001
8.3323401e-001
7.8426361e-001
7.8985882e-001
8.2376230e-001
8.6873442e-001
9.1707397e-001
9.7221053e-001
1.0294071e+000
1.0911229e+000
1.1539600e+000
1.2046976e+000
1.2532903e+000
1.2984167e+000
1.3421814e+000
1.3800770e+000
1.4145184e+000
1.4370366e+000
1.4564217e+000
1.4713593e+000
1.4783045e+000
1.4689351e+000
1.4401240e+000
1.3828979e+000
1.3275714e+000
1.2804371e+000
1.2577394e+000
1.2590936e+000
1.2504343e+000
1.2304400e+000
1.1885052e+000
1.1330587e+000
1.1084851e+000
1.1012096e+000
1.1403514e+000
1.1979491e+000
1.2761120e+000
1.3603108e+000
1.4582165e+000
1.5588400e+000
1.6177816e+000
1.6638451e+000
1.6565174e+000
1.6450341e+000
1.6682401e+000
1.7074783e+000
1.7809048e+000
1.8399060e+000
1.8458794e+000
1.8164321e+000
1.7391881e+000
1.6715388e+000
1.6312366e+000
1.6193347e+000
1.6338158e+000
1.6543888e+000
1.6763949e+000
1.7015791e+000
1.7298677e+000
1.7420186e+000
1.7440028e+000
1.7319553e+000
1.7139063e+000
1.6959345e+000
1.6777600e+000
1.6432751e+000
1.6022590e+000
1.5778061e+000
1.5594028e+000
1.5738565e+000
1.5931623e+000
1.5910749e+000
1.5814565e+000
1.5672567e+000
1.5701286e+000
1.6307782e+000
1.7158132e+000
1.8194505e+000
1.9059680e+000
1.9491593e+000
1.9527475e+000
1.9157069e+000
1.8649597e+000
1.8114657e+000
1.8167886e+000
1.8784410e+000
1.9977505e+000
2.1534140e+000
2.2219286e+000
2.2306123e+000
2.1204722e+000
1.9512225e+000
1.8343440e+000
1.7431355e+000
1.7255372e+000
1.7318633e+000
1.6967663e+000
1.6460278e+000
1.5943009e+000
1.5537250e+000
1.5704755e+000
1.6081145e+000
1.6394511e+000
1.6518612e+000
1.6163086e+000
1.5695168e+000
1.5352041e+000
1.5207267e+000
1.5382291e+000
1.5536135e+000
1.5582888e+000
1.5482002e+000
1.5218451e+000
1.4987080e+000
1.4762243e+000
1.4656826e+000
1.4645355e+000
1.4641930e+000
1.4649397e+000
1.4382465e+000
1.3954720e+000
1.3559536e+000
1.3170729e+000
1.3351011e+000
1.3764142e+000
1.4414079e+000
1.5094696e+000
1.5271220e+000
1.5105155e+000
1.4201037e+000
1.3004320e+000
1.1729498e+000
1.0610622e+000
9.9669796e-001
9.6587598e-001
9.7653168e-001
1.0099247e+000
1.0627037e+000
1.1040891e+000
1.1119443e+000
1.0783337e+000
1.0004373e+000
9.2047864e-001
8.5329533e-001
7.8160715e-001
7.0912725e-001
5.7627028e-001
4.0771207e-001
2.0490879e-001
-9.3602166e-003
-1.3087127e-001
-1.9540575e-001
-1.2957859e-001
-1.0376871e-003
1.7651470e-001
3.7407771e-001
5.8925515e-001
7.9418975e-001
9.2446005e-001
9.7824794e-001
8.8911337e-001
7.2746831e-001
5.3848881e-001
3.6619401e-001
2.5353000e-001
1.7701688e-001
1.2694794e-001
8.7557703e-002
4.7257058e-002
2.0877751e-002
8.1540570e-003
-4.5809384e-002
-1.3588002e-001
-2.3817080e-001
-3.4223002e-001
-2.7691704e-001
-9.7608559e-002
1.3289340e-001
3.7835276e-001
4.8510593e-001
5.0461018e-001
4.8277646e-001
4.3387267e-001
3.7942499e-001
3.3083686e-001
3.2209301e-001
3.5167220e-001
4.0877548e-001
4.4578630e-001
3.8545093e-001
2.6549640e-001
1.3213643e-001
3.0524053e-002
-8.3429284e-002
-1.8455686e-001
-2.3217680e-001
-2.1398337e-001
-1.3100512e-001
-6.6828400e-002
-4.9222250e-002
-1.6526981e-001
-4.0947545e-001
-6.3020241e-001
-8.0420947e-001
-7.4701601e-001
-5.0913644e-001
-2.2897646e-001
5.5388793e-002
1.0788096e-001
-2.4962723e-003
-1.0168774e-001
-1.5561260e-001
1.6996458e-002
3.8227674e-001
9.7428703e-001
1.6569295e+000
2.1666634e+000
2.5433421e+000
2.8540001e+000
3.3009808e+000
4.0923600e+000
5.4884133e+000
7.6086397e+000
1.0643170e+001
1.4520285e+001
1.8471291e+001
2.2144604e+001
2.5405771e+001
2.8321890e+001
3.1699593e+001
3.5630756e+001
4.0224106e+001
4.5319481e+001
4.9737267e+001
5.3523170e+001
5.7188572e+001
6.0840084e+001
6.5037331e+001
6.9616722e+001
7.3980598e+001
7.8073578e+001
8.1687027e+001
8.4861801e+001
8.7674515e+001
9.0165199e+001
9.2417076e+001
9.4415298e+001
9.6150330e+001
9.7256332e+001
9.7394142e+001
9.6696632e+001
9.5391747e+001
9.3567192e+001
9.1371925e+001
8.8463715e+001
8.4782982e+001
8.0729050e+001
7.6486191e+001
7.2263206e+001
6.8118935e+001
6.3733398e+001
5.9093422e+001
5.4561676e+001
5.0171814e+001
4.6137230e+001
4.2468430e+001
3.9233131e+001
3.6428051e+001
3.3987537e+001
3.1890879e+001
3.0008633e+001
2.8377392e+001
2.7030190e+001
2.5987171e+001
2.5234001e+001
2.4746069e+001
2.4448561e+001
2.4310343e+001
2.4276426e+001
2.4356436e+001
2.4551416e+001
2.4874920e+001
2.5332172e+001
2.5979792e+001
2.6829000e+001
2.7883955e+001
2.9124161e+001
3.0425707e+001
3.1753521e+001
3.3038300e+001
3.4276318e+001
3.5596989e+001
3.7060543e+001
3.9063732e+001
4.1637070e+001
4.4268898e+001
4.6808102e+001
4.8759422e+001
5.0149002e+001
5.1386822e+001
5.2484852e+001
5.3506893e+001
5.4308102e+001
5.4618038e+001
5.4380142e+001
5.3618839e+001
5.2535015e+001
5.1436573e+001
5.0319309e+001
4.9179600e+001
4.7903881e+001
4.6403458e+001
4.4725342e+001
4.2846420e+001
4.0994873e+001
3.9254826e+001
3.7480839e+001
3.5672062e+001
3.3295300e+001
3.0181265e+001
2.6908989e+001
2.3499720e+001
2.0609518e+001
1.8307590e+001
1.6106142e+001
1.4017126e+001
1.1947434e+001
9.9156761e+000
7.9301844e+000
6.0313244e+000
4.2734642e+000
2.7339709e+000
1.5275941e+000
6.8085957e-001
1.7795172e-001
1.2129743e-001
5.1081210e-001
1.0480474e+000
1.5880829e+000
2.0466585e+000
2.3920839e+000
2.7522895e+000
3.1989644e+000
3.7872992e+000
4.5668802e+000
5.3198023e+000
5.9685540e+000
6.3933129e+000
6.4804296e+000
6.4746962e+000
6.3454165e+000
6.1888428e+000
5.9946871e+000
5.7416377e+000
5.4157443e+000
4.9976125e+000
4.5052834e+000
4.0310225e+000
3.5997620e+000
3.2845492e+000
3.0894074e+000
3.0044682e+000
3.0303769e+000
3.1394658e+000
3.3135314e+000
3.5290160e+000
3.7569320e+000
4.0075355e+000
4.2765150e+000
4.5778799e+000
4.9062033e+000
5.2571287e+000
5.6043439e+000
5.9306550e+000
6.1982718e+000
6.3503337e+000
6.4331379e+000
6.3762646e+000
6.2578483e+000
6.0349350e+000
5.7479062e+000
5.3738770e+000
4.9669757e+000
4.5265169e+000
4.0761886e+000
3.6366780e+000
3.2240679e+000
2.8487244e+000
2.5235932e+000
2.2068608e+000
1.8434986e+000
1.4376792e+000
9.8001611e-001
5.5023468e-001
2.4501507e-001
4.4175956e-002
2.6250619e-004
2.8903585e-002
1.2042777e-001
2.1924463e-001
3.2221758e-001
4.2412767e-001
5.2690512e-001
6.2685180e-001
7.1342283e-001
7.9569495e-001
8.4413314e-001
9.0230781e-001
9.7867912e-001
1.0919878e+000
1.2740729e+000
1.4931136e+000
1.7658006e+000
2.0465062e+000
2.3279700e+000
2.5708385e+000
2.7547681e+000
2.8683810e+000
2.9081817e+000
2.8913257e+000
2.8333194e+000
2.7485590e+000
2.6514056e+000
2.5433450e+000
2.4396000e+000
2.3492367e+000
2.2849581e+000
2.2782598e+000
2.3012559e+000
2.3782985e+000
2.4617114e+000
2.5486147e+000
2.6344931e+000
2.7176108e+000
2.8075242e+000
2.9161561e+000
3.0371475e+000
3.1836469e+000
3.3429544e+000
3.5195515e+000
3.7085400e+000
3.9111536e+000
4.1278739e+000
4.3601089e+000
4.6026144e+000
4.8543930e+000
5.1120701e+000
5.3719592e+000
5.6284418e+000
5.8780251e+000
6.1049609e+000
6.3092484e+000
6.4623294e+000
6.5767493e+000
6.6113358e+000
6.6022954e+000
6.5008359e+000
6.3515801e+000
6.0771856e+000
5.7486725e+000
5.2737670e+000
4.7619653e+000
4.1649461e+000
3.5746298e+000
3.0045943e+000
2.4862068e+000
2.0607617e+000
1.6937879e+000
1.4072605e+000
1.1417493e+000
8.9653277e-001
6.4448082e-001
3.8643992e-001
1.2810758e-001
-1.2878679e-001
-3.8051486e-001
-6.2519479e-001
-8.5265261e-001
-1.0565969e+000
-1.1950978e+000
-1.2903423e+000
-1.2961808e+000
-1.2649548e+000
-1.1629004e+000
-1.0338819e+000
-8.3384526e-001
-6.2054884e-001
-3.7471196e-001
-1.4837679e-001
1.5168816e-002
1.5521660e-001
2.3911409e-001
3.2392097e-001
4.0821236e-001
4.7362742e-001
5.0291485e-001
4.8850873e-001
4.1654086e-001
3.2938540e-001
2.2898750e-001
1.4202344e-001
7.0789143e-002
2.7143089e-002
2.8629415e-004
-3.6629800e-002
-8.4249854e-002
-9.5661558e-002
-7.9828545e-002
7.4422359e-003
1.2314461e-001
2.8715473e-001
4.5167115e-001
5.7336164e-001
6.7911035e-001
7.2069228e-001
7.6327723e-001
8.1518853e-001
8.7652940e-001
9.6554160e-001
1.0382950e+000
1.0681154e+000
1.0687366e+000
1.0172614e+000
9.9130088e-001
1.0128143e+000
1.1009024e+000
1.2717760e+000
1.4629970e+000
1.6719012e+000
1.8701807e+000
2.0614276e+000
2.2585442e+000
2.4540102e+000
2.6103091e+000
2.7343028e+000
2.7509224e+000
2.7207842e+000
2.6084187e+000
2.4820039e+000
2.3874986e+000
2.3106000e+000
2.3337910e+000
2.3650210e+000
2.4157343e+000
2.4556773e+000
2.4476185e+000
2.4283049e+000
2.3729789e+000
2.3096428e+000
2.2282035e+000
2.1567125e+000
2.1046162e+000
2.0691657e+000
2.0541804e+000
2.0088999e+000
1.9228172e+000
1.7642051e+000
1.5381070e+000
1.2702160e+000
9.7546589e-001
6.9742429e-001
4.3433860e-001
2.3968869e-001
8.0048800e-002
1.7371515e-002
-1.8304156e-002
-4.3547861e-002
-7.3485464e-002
-1.7810120e-001
-2.9229462e-001
-4.4700786e-001
-6.0096741e-001
-7.4764311e-001
-8.8779908e-001
-9.9920714e-001
-1.1059170e+000
-1.1981366e+000
-1.2782251e+000
-1.3289086e+000
-1.3514514e+000
-1.3236428e+000
-1.2852442e+000
-1.2325180e+000
-1.1831291e+000
-1.1389428e+000
-1.1180662e+000
-1.1171517e+000
-1.1428829e+000
-1.1821234e+000
-1.1836100e+000
-1.1649134e+000
-1.0882139e+000
-9.8969042e-001
-8.1750959e-001
-6.2647843e-001
-3.5879520e-001
-8.7466352e-002
5.1718034e-002
1.7079544e-001
8.0118380e-002
7.4896932e-004
7.2900206e-004
2.8465256e-002
2.2807780e-001
4.3246943e-001
6.5110809e-001
8.6487699e-001
1.0683855e+000
1.2777011e+000
1.4949843e+000
1.6559600e+000
1.7474862e+000
1.7670875e+000
1.7203492e+000
1.7111413e+000
1.7286872e+000
1.7979143e+000
1.8947099e+000
1.9354808e+000
1.9564865e+000
1.9685634e+000
1.9803380e+000
2.1523671e+000
2.3508554e+000
2.7390001e+000
