Image.
>Pix99999.
  .
5555
5555
2300
900
5555
2
1
0
701
5555
7.2511998e-003
7.4052797e-003
7.5592594e-003
7.7133388e-003
7.8674182e-003
8.0214981e-003
8.1755780e-003
8.3295582e-003
8.4836371e-003
8.6377161e-003
8.7917959e-003
8.9456784e-003
9.0998532e-003
9.2544248e-003
9.4080241e-003
9.5601371e-003
9.7161271e-003
9.8772785e-003
1.0024225e-002
1.0151553e-002
1.0331800e-002
1.0584350e-002
1.0643334e-002
1.0429326e-002
1.0935760e-002
1.2081250e-002
8.2429750e-003
-3.8574494e-003
-1.1814436e-002
-3.3718464e-003
1.5229065e-002
3.0109292e-002
1.7974526e-002
-4.0622216e-002
-1.3888979e-001
-2.5922301e-001
-3.7114158e-001
-4.4754633e-001
-4.8977253e-001
-5.1012862e-001
-5.3111315e-001
-5.6805664e-001
-5.9534037e-001
-5.7867539e-001
-4.9866629e-001
-3.5018766e-001
-1.6671300e-001
8.2014808e-003
1.3801527e-001
1.9717179e-001
1.9512929e-001
1.5515590e-001
1.1242017e-001
9.8101437e-002
1.1270315e-001
1.4643429e-001
1.8740761e-001
2.2644405e-001
2.6718533e-001
3.1535843e-001
3.6809257e-001
4.1789120e-001
4.5008147e-001
4.5096090e-001
4.2036101e-001
3.6624599e-001
3.1150460e-001
2.7833524e-001
2.6618794e-001
2.6473126e-001
2.5545499e-001
2.2280927e-001
1.7395222e-001
1.2221869e-001
7.3817946e-002
2.9951286e-002
-1.7937286e-002
-7.6898478e-002
-1.3412581e-001
-1.7065947e-001
-1.7138229e-001
-1.2953353e-001
-6.6276677e-002
-9.2261648e-003
2.8404333e-002
4.4229779e-002
5.7766531e-002
8.9510031e-002
1.3178496e-001
1.6505051e-001
1.6449885e-001
1.1005400e-001
7.6493667e-003
-1.2210747e-001
-2.3833559e-001
-2.9842457e-001
-2.8281865e-001
-1.9320635e-001
-8.1869215e-002
-1.2133834e-002
-1.4165601e-002
-9.3354121e-002
-2.0835045e-001
-3.0613884e-001
-3.5839242e-001
-3.5294351e-001
-3.0149800e-001
-2.2558087e-001
-1.5024440e-001
-9.7657450e-002
-7.3748060e-002
-7.4663445e-002
-8.3089277e-002
-8.0000237e-002
-6.0808152e-002
-2.9477557e-002
-1.2013456e-004
1.1468905e-002
-1.2555365e-003
-3.9455365e-002
-9.8592401e-002
-1.7104313e-001
-2.4546397e-001
-3.0912706e-001
-3.4963512e-001
-3.6054787e-001
-3.5967681e-001
-3.7335762e-001
-4.2025432e-001
-5.0700444e-001
-6.0581857e-001
-6.7929852e-001
-7.1170640e-001
-7.0282972e-001
-6.7438596e-001
-6.5132082e-001
-6.3363147e-001
-6.1078173e-001
-5.7686824e-001
-5.3209096e-001
-4.9076998e-001
-4.6866724e-001
-4.6117210e-001
-4.5654950e-001
-4.5366603e-001
-4.5818672e-001
-4.8133552e-001
-5.3305221e-001
-6.0807180e-001
-6.9483978e-001
-7.8561145e-001
-8.7449378e-001
-9.5380652e-001
-1.0131704e+000
-1.0349281e+000
-1.0033572e+000
-9.2681789e-001
-8.2741463e-001
-7.3625094e-001
-6.8120545e-001
-6.6099882e-001
-6.5878069e-001
-6.5288752e-001
-6.2607181e-001
-5.8590120e-001
-5.5185503e-001
-5.4135573e-001
-5.6679875e-001
-6.2713760e-001
-7.1380854e-001
-8.1430471e-001
-9.1361135e-001
-9.9243903e-001
-1.0337892e+000
-1.0404480e+000
-1.0263751e+000
-1.0098977e+000
-1.0070207e+000
-1.0170197e+000
-1.0311666e+000
-1.0444828e+000
-1.0540280e+000
-1.0555340e+000
-1.0431875e+000
-1.0088762e+000
-9.4444811e-001
-8.4630239e-001
-7.1789622e-001
-5.8222049e-001
-4.6942660e-001
-3.9573443e-001
-3.6589321e-001
-3.7151480e-001
-4.0180504e-001
-4.6373114e-001
-5.6689727e-001
-6.8696201e-001
-7.8026688e-001
-8.0537063e-001
-7.3741710e-001
-6.1105573e-001
-4.8941579e-001
-4.1400734e-001
-4.0259939e-001
-4.3609464e-001
-4.8112449e-001
-5.2851367e-001
-5.8431923e-001
-6.5201616e-001
-7.2735822e-001
-7.8533399e-001
-7.9421151e-001
-7.4507362e-001
-6.4857101e-001
-5.3717619e-001
-4.4947693e-001
-4.0002587e-001
-3.8432860e-001
-3.8236737e-001
-3.6902690e-001
-3.3136541e-001
-2.6483324e-001
-1.6582863e-001
-3.5084091e-002
1.0604028e-001
2.2246429e-001
2.7466309e-001
2.3237221e-001
1.1289922e-001
-3.8025953e-002
-1.8128306e-001
-2.8902161e-001
-3.5074463e-001
-3.6589655e-001
-3.3288047e-001
-2.5370449e-001
-1.5463743e-001
-7.4312590e-002
-3.5854101e-002
-4.4387467e-002
-7.7240631e-002
-9.8484255e-002
-8.8107340e-002
-4.2189498e-002
2.6457537e-002
9.7728252e-002
1.6204067e-001
2.1979293e-001
2.7957302e-001
3.4912118e-001
4.1178501e-001
4.3768665e-001
4.1408882e-001
3.4816778e-001
2.7525786e-001
2.4004757e-001
2.4965143e-001
2.8804278e-001
3.6194175e-001
4.8826331e-001
6.4212203e-001
7.6343936e-001
7.7628708e-001
6.2297493e-001
3.6194590e-001
1.2468442e-001
-4.6082400e-003
-1.0239813e-002
1.4164235e-002
-6.4452738e-002
-2.2584213e-001
-3.3994752e-001
-3.2779482e-001
-1.7992960e-001
3.9927974e-002
2.2752249e-001
3.0570394e-001
2.4191019e-001
8.7460905e-002
-5.5284157e-002
-1.1990400e-001
-9.0067074e-002
-1.8283749e-002
7.7585177e-003
-4.4770468e-002
-1.5043516e-001
-2.3824845e-001
-2.1259880e-001
7.2824508e-003
4.6966016e-001
1.1432917e+000
1.9349930e+000
2.7390647e+000
3.4761674e+000
4.1941400e+000
5.0502543e+000
6.2454801e+000
7.9825616e+000
1.0382423e+001
1.3432313e+001
1.6803715e+001
1.9980709e+001
2.2707073e+001
2.5031805e+001
2.7276142e+001
2.9906349e+001
3.3220428e+001
3.7253162e+001
4.1582359e+001
4.5539074e+001
4.8952328e+001
5.2137501e+001
5.5480011e+001
5.9273964e+001
6.3462315e+001
6.7715797e+001
7.1805641e+001
7.5649200e+001
7.9227356e+001
8.2550880e+001
8.5632080e+001
8.8472183e+001
9.1037201e+001
9.3243996e+001
9.4901604e+001
9.5777786e+001
9.5866165e+001
9.5363480e+001
9.4412987e+001
9.3047081e+001
9.1177155e+001
8.8654739e+001
8.5496803e+001
8.1883484e+001
7.7981209e+001
7.3900551e+001
6.9697762e+001
6.5398804e+001
6.1077595e+001
5.6855785e+001
5.2832573e+001
4.9074970e+001
4.5643208e+001
4.2587849e+001
3.9904434e+001
3.7539101e+001
3.5445744e+001
3.3596561e+001
3.1972160e+001
3.0557621e+001
2.9333000e+001
2.8274403e+001
2.7374342e+001
2.6645239e+001
2.6108480e+001
2.5785500e+001
2.5673103e+001
2.5745399e+001
2.5998978e+001
2.6458620e+001
2.7150801e+001
2.8082922e+001
2.9172628e+001
3.0256241e+001
3.1216400e+001
3.2018570e+001
3.2728477e+001
3.3523617e+001
3.4704582e+001
3.6600742e+001
3.9141087e+001
4.1825352e+001
4.4183910e+001
4.5935787e+001
4.7120277e+001
4.8059105e+001
4.8953701e+001
4.9794838e+001
5.0478760e+001
5.0856037e+001
5.0831799e+001
5.0403343e+001
4.9673855e+001
4.8829258e+001
4.7971966e+001
4.7081299e+001
4.6080364e+001
4.4865650e+001
4.3384041e+001
4.1663403e+001
3.9822269e+001
3.8032627e+001
3.6299923e+001
3.4427017e+001
3.2215378e+001
2.9559406e+001
2.6595417e+001
2.3690046e+001
2.1067411e+001
1.8713390e+001
1.6529428e+001
1.4388227e+001
1.2232032e+001
1.0095205e+001
8.0212994e+000
6.0462885e+000
4.2398419e+000
2.7048774e+000
1.4924178e+000
5.9839606e-001
1.0875543e-001
1.9351441e-001
8.0377918e-001
1.6160610e+000
2.4005663e+000
3.1308572e+000
3.8587806e+000
4.6653652e+000
5.5532856e+000
6.4087811e+000
7.0631199e+000
7.3386645e+000
7.2173791e+000
6.8810987e+000
6.4769864e+000
6.0486717e+000
5.6193695e+000
5.2138081e+000
4.8515663e+000
4.5384707e+000
4.2428870e+000
3.8938577e+000
3.4559870e+000
2.9587972e+000
2.4681160e+000
2.0739365e+000
1.8361628e+000
1.7608154e+000
1.8190272e+000
1.9520030e+000
2.1094770e+000
2.2667248e+000
2.4298062e+000
2.6367528e+000
2.9129944e+000
3.2550650e+000
3.6496444e+000
4.0776262e+000
4.5144601e+000
4.9287801e+000
5.2824287e+000
5.5342116e+000
5.6660156e+000
5.6933146e+000
5.6305585e+000
5.4800448e+000
5.2465849e+000
4.9445229e+000
4.6031952e+000
4.2666302e+000
3.9567285e+000
3.6582665e+000
3.3555460e+000
3.0459561e+000
2.7354364e+000
2.4355757e+000
2.1395056e+000
1.8140380e+000
1.4436491e+000
1.0511386e+000
6.7678970e-001
3.7060016e-001
1.5841170e-001
2.5718316e-002
-4.2688020e-002
-4.7570571e-002
2.0698756e-002
1.7780571e-001
4.0887618e-001
6.4920402e-001
8.3330542e-001
9.1830087e-001
8.9983159e-001
8.2648772e-001
7.4736035e-001
6.9264472e-001
6.8809259e-001
7.5665987e-001
9.0601039e-001
1.1179472e+000
1.3609000e+000
1.5932356e+000
1.7859371e+000
1.9352561e+000
2.0425661e+000
2.1071813e+000
2.1256418e+000
2.0927131e+000
2.0145199e+000
1.9182106e+000
1.8385428e+000
1.8125590e+000
1.8618666e+000
1.9787873e+000
2.1387279e+000
2.3012865e+000
2.4339783e+000
2.5268354e+000
2.5860384e+000
2.6371169e+000
2.7035356e+000
2.7963121e+000
2.9183538e+000
3.0630283e+000
3.2257378e+000
3.4094913e+000
3.6204605e+000
3.8677001e+000
4.1616001e+000
4.5128255e+000
4.9289541e+000
5.4100637e+000
5.9462204e+000
6.5131216e+000
7.0878692e+000
7.6578250e+000
8.2187777e+000
8.7759094e+000
9.3260651e+000
9.8443556e+000
1.0291915e+001
1.0613320e+001
1.0763200e+001
1.0722149e+001
1.0504775e+001
1.0179422e+001
9.8075628e+000
9.4171858e+000
9.0135565e+000
8.5754290e+000
8.0907764e+000
7.5789080e+000
7.0668683e+000
6.5816798e+000
6.1403842e+000
5.7377806e+000
5.3544040e+000
4.9528909e+000
4.5019717e+000
3.9933395e+000
3.4386430e+000
2.8787189e+000
2.3506811e+000
1.8689480e+000
1.4387026e+000
1.0573103e+000
7.2404695e-001
4.4490713e-001
2.2533205e-001
6.5807082e-002
-3.3772599e-002
-7.2760083e-002
-5.4444805e-002
8.0995038e-003
9.3858980e-002
1.7054465e-001
2.1286698e-001
2.1772219e-001
1.9188543e-001
1.5151970e-001
1.0655850e-001
4.8380982e-002
-3.0357480e-002
-1.2320900e-001
-2.1431720e-001
-2.7438572e-001
-2.7701515e-001
-2.1081921e-001
-7.5680546e-002
1.1126031e-001
3.3496687e-001
5.9447008e-001
8.8736081e-001
1.1999183e+000
1.5168692e+000
1.8259971e+000
2.1162481e+000
2.3779390e+000
2.6090281e+000
2.8248684e+000
3.0467687e+000
3.2979767e+000
3.5894527e+000
3.9006023e+000
4.2053723e+000
4.4849348e+000
4.7338724e+000
4.9762926e+000
5.2393398e+000
5.5399179e+000
5.8894429e+000
6.2912478e+000
6.7422481e+000
7.2266150e+000
7.7180614e+000
8.1709852e+000
8.5427771e+000
8.8121109e+000
8.9764280e+000
9.0689611e+000
9.1269817e+000
9.1747856e+000
9.2264242e+000
9.2765808e+000
9.3210230e+000
9.3699589e+000
9.4310598e+000
9.4950075e+000
9.5425444e+000
9.5387220e+000
9.4539194e+000
9.2834225e+000
9.0366077e+000
8.7448826e+000
8.4433184e+000
8.1605244e+000
7.9137411e+000
7.6911163e+000
7.4750628e+000
7.2507181e+000
7.0113602e+000
6.7703710e+000
6.5393643e+000
6.3094506e+000
6.0626550e+000
5.7686849e+000
5.4064584e+000
4.9918451e+000
4.5544605e+000
4.1368527e+000
3.7693372e+000
3.4362240e+000
3.1106782e+000
2.7698822e+000
2.4104600e+000
2.0874250e+000
1.8534135e+000
1.7102760e+000
1.6360841e+000
1.5754659e+000
1.4788786e+000
1.3419350e+000
1.1704177e+000
9.6631992e-001
7.3442501e-001
4.8998183e-001
2.5752014e-001
8.2656808e-002
7.2611962e-003
4.3510377e-002
1.9103286e-001
4.3179837e-001
7.3704219e-001
1.0567700e+000
1.3395852e+000
1.5481650e+000
1.6643949e+000
1.7229810e+000
1.7620789e+000
1.7843211e+000
1.7747943e+000
1.6882639e+000
1.4852600e+000
1.1716378e+000
7.8228813e-001
4.1207820e-001
1.4837235e-001
-1.4360212e-003
-4.0701937e-002
5.9198886e-002
3.0533341e-001
5.9811592e-001
8.3055478e-001
9.6599334e-001
9.9513721e-001
9.4510704e-001
8.4998423e-001
7.3592061e-001
6.2553430e-001
5.3536934e-001
4.7386557e-001
4.2447251e-001
3.6282337e-001
2.5851482e-001
9.1940627e-002
-1.0871208e-001
-3.0883837e-001
-4.9547666e-001
-6.6950989e-001
-8.6528230e-001
-1.1255000e+000
