##TITLE=Methyl Ethyl Ketone
##JCAMP-DX=4.24
##DATA TYPE=INFRARED SPECTRUM
##XUNITS=cm-1
##YUNITS=Absorbance
##FIRSTX=900
##LASTX=2300
##XYDATA=(X++(Y..Y))
2296 0.11587
2294 0.11827656
2292 0.12069309
2290 0.12309967
2288 0.12551618
2286 0.12792279
2284 0.13032934
2282 0.1327458
2280 0.13515246
2278 0.13755903
2276 0.13997543
2274 0.14238212
2272 0.14479852
2270 0.14720523
2268 0.1496118
2266 0.15203793
2264 0.15443514
2262 0.15681219
2260 0.15925699
2258 0.16182025
2256 0.16408543
2254 0.1659348
2252 0.16888604
2250 0.17339016
2248 0.1737911
2246 0.16006857
2244 0.11138826
2242 0.0145697
2240 -0.100648
2238 -0.20044738
2236 -0.28337115
2234 -0.35681048
2232 -0.42612475
2230 -0.49284557
2228 -0.54574019
2226 -0.57149798
2224 -0.56316793
2222 -0.51916671
2220 -0.45161811
2218 -0.37375358
2216 -0.28664428
2214 -0.18992545
2212 -0.092095301
2210 -0.0067058923
2208 0.043317787
2206 0.040327944
2204 -0.00049363216
2202 -0.052465845
2200 -0.083217412
2198 -0.067274794
2196 -0.013670036
2194 0.05614651
2192 0.114104
2190 0.1356796
2188 0.11845829
2186 0.07072445
2184 0.015546679
2182 -0.021752521
2180 -0.025359193
2178 0.011892442
2176 0.07480403
2174 0.14226258
2172 0.19846262
2170 0.2336348
2168 0.25483778
2166 0.27272645
2164 0.29022908
2162 0.30612251
2160 0.31341732
2158 0.3047733
2156 0.279082
2154 0.2391032
2152 0.19463623
2150 0.15840128
2148 0.14546415
2146 0.16756643
2144 0.22000258
2142 0.2893112
2140 0.34973344
2138 0.37538582
2136 0.35678315
2134 0.29422155
2132 0.20365746
2130 0.10611314
2128 0.02104784
2126 -0.03297428
2124 -0.037978992
2122 0.016933918
2120 0.11422762
2118 0.22476397
2116 0.31456029
2114 0.35650799
2112 0.35791367
2110 0.33848292
2108 0.31588501
2106 0.30256227
2104 0.2942715
2102 0.28210616
2100 0.2637392
2098 0.24100095
2096 0.22149999
2094 0.21347745
2092 0.21886756
2090 0.23638308
2088 0.26162109
2086 0.28932151
2084 0.31526038
2082 0.33484605
2080 0.34031862
2078 0.32475856
2076 0.29030243
2074 0.24467249
2072 0.20354639
2070 0.18226373
2068 0.18202862
2066 0.19575264
2064 0.20627572
2062 0.19533215
2060 0.15633692
2058 0.089443937
2056 0.0020651426
2054 -0.095278233
2052 -0.1907468
2050 -0.27223548
2048 -0.32830903
2046 -0.35043606
2044 -0.34101099
2042 -0.30838484
2040 -0.26630235
2038 -0.22875957
2036 -0.20195714
2034 -0.18709548
2032 -0.17923662
2030 -0.1713666
2028 -0.15848383
2026 -0.13484657
2024 -0.087247528
2022 -0.0032304348
2020 0.11226615
2018 0.23954016
2016 0.3303
2014 0.3355298
2012 0.25617445
2010 0.12318772
2008 -0.0048501007
2006 -0.07013382
2004 -0.066185012
2002 -0.015033698
2000 0.043979429
1998 0.072307177
1996 0.06276086
1994 0.025909536
1992 -0.016537715
1990 -0.043651458
1988 -0.056224141
1986 -0.066883244
1984 -0.093361899
1982 -0.15115461
1980 -0.23871481
1978 -0.34190378
1976 -0.42849886
1974 -0.4630976
1972 -0.4319616
1970 -0.34280702
1968 -0.24719834
1966 -0.20882607
1964 -0.2536456
1962 -0.37613833
1960 -0.52281642
1958 -0.62830067
1956 -0.67357773
1954 -0.66916066
1952 -0.64459711
1950 -0.63043189
1948 -0.62762427
1946 -0.62159002
1944 -0.59880972
1942 -0.55107087
1940 -0.48563182
1938 -0.41782537
1936 -0.36363029
1934 -0.33677509
1932 -0.34226701
1930 -0.37775981
1928 -0.42886519
1926 -0.47392586
1924 -0.48603067
1922 -0.44168106
1920 -0.34226775
1918 -0.2045422
1916 -0.052576341
1914 0.087920383
1912 0.1965172
1910 0.25648877
1908 0.2535364
1906 0.18293835
1904 0.077082321
1902 -0.012382835
1900 -0.039741196
1898 0.025263829
1896 0.16771743
1894 0.34452572
1892 0.49902484
1890 0.57565993
1888 0.54778951
1886 0.41510743
1884 0.21799557
1882 0.01525078
1880 -0.14964908
1878 -0.24775259
1876 -0.26572502
1874 -0.20031862
1872 -0.057108201
1870 0.14449769
1868 0.34340742
1866 0.46347579
1864 0.46979824
1862 0.36542389
1860 0.20144126
1858 0.045095325
1856 -0.081153676
1854 -0.18563902
1852 -0.28071934
1850 -0.37355933
1848 -0.4509888
1846 -0.48990074
1844 -0.47851041
1842 -0.41711348
1840 -0.32274714
1838 -0.21842813
1836 -0.1110501
1834 0.0050812103
1832 0.14202461
1830 0.30630615
1828 0.46695966
1826 0.57242692
1824 0.58753961
1822 0.50054681
1820 0.345485
1818 0.18067268
1816 0.047075227
1814 -0.03499835
1812 -0.072803393
1810 -0.084934033
1808 -0.067004681
1806 -0.0035133511
1804 0.093891218
1802 0.19162489
1800 0.24785382
1798 0.23234297
1796 0.18162642
1794 0.16867258
1792 0.2253796
1790 0.34412831
1788 0.48992586
1786 0.61900914
1784 0.71431983
1782 0.78053629
1780 0.82913494
1778 0.87698752
1776 0.95567775
1774 1.0917273
1772 1.2429168
1770 1.319887
1768 1.2459754
1766 0.98625749
1764 0.6266588
1762 0.31316635
1760 0.079687886
1758 -0.12048914
1756 -0.28219372
1754 -0.35718781
1752 -0.32889298
1750 -0.22108351
1748 -0.10593025
1746 -0.076739319
1744 -0.17906323
1742 -0.39833057
1740 -0.62525082
1738 -0.70723498
1736 -0.592538
1734 -0.33302644
1732 -0.067833483
1730 0.038210794
1728 -0.048809268
1726 -0.24167714
1724 -0.38887155
1722 -0.31693241
1720 0.093066573
1718 0.87352121
1716 1.8714472
1714 2.8237548
1712 3.5931566
1710 4.1937785
1708 4.792634
1706 5.6505179
1704 6.987669
1702 8.9588175
1700 11.635732
1698 14.973868
1696 18.656141
1694 22.20513
1692 25.373302
1690 28.198555
1688 31.036726
1686 34.424606
1684 38.683918
1682 43.814171
1680 49.2854
1678 54.311932
1676 58.801998
1674 63.283066
1672 68.16362
1670 73.539551
1668 79.011787
1666 83.872948
1664 87.77964
1662 90.785439
1660 93.043961
1658 94.718948
1656 95.919312
1654 96.693275
1652 97.03598
1650 96.899185
1648 96.220398
1646 94.967644
1644 93.293945
1642 91.481735
1640 89.638763
1638 87.666428
1636 85.351959
1634 82.457596
1632 78.953056
1630 75.000748
1628 70.730675
1626 66.201881
1624 61.45396
1622 56.537849
1620 51.595276
1618 46.843494
1616 42.447456
1614 38.500221
1612 35.060589
1610 32.1525
1608 29.730566
1606 27.6936
1604 25.962385
1602 24.498257
1600 23.298456
1598 22.384905
1596 21.761501
1594 21.404331
1592 21.274576
1590 21.327921
1588 21.542803
1586 21.922672
1584 22.477446
1582 23.227421
1580 24.238585
1578 25.618916
1576 27.450771
1574 29.757866
1572 32.444382
1570 35.309067
1568 38.185398
1566 40.97554
1564 43.639526
1562 46.212597
1560 48.869411
1558 51.829121
1556 54.865086
1554 57.31926
1552 58.797455
1550 59.332035
1548 59.215984
1546 58.872643
1544 58.432129
1542 57.664345
1540 56.28138
1538 54.083405
1536 51.2356
1534 48.260723
1532 45.543022
1530 43.197601
1528 41.172737
1526 39.295799
1524 37.40881
1522 35.414837
1520 33.294342
1518 31.110348
1516 28.967972
1514 26.975908
1512 25.10416
1510 23.16556
1508 20.995523
1506 18.530022
1504 15.906777
1502 13.44931
1500 11.356777
1498 9.6179848
1496 8.1406717
1494 6.8012724
1492 5.5307684
1490 4.3329835
1488 3.2043264
1486 2.1235757
1484 1.1220247
1482 0.29999638
1480 -0.23475869
1478 -0.38194352
1476 -0.03361842
1474 0.89370561
1472 2.290585
1470 3.8300369
1468 5.259757
1466 6.5004177
1464 7.5963225
1462 8.6938305
1460 9.9061165
1458 11.249817
1456 12.597
1454 13.677626
1452 14.299086
1450 14.427103
1448 14.13204
1446 13.571321
1444 12.884257
1442 12.15374
1440 11.429338
1438 10.724549
1436 10.010605
1434 9.2253351
1432 8.3500319
1430 7.4413185
1428 6.5878558
1426 5.8930755
1424 5.4232697
1422 5.1839905
1420 5.14327
1418 5.2363539
1416 5.3991256
1414 5.5848269
1412 5.7854443
1410 6.0396924
1408 6.3790812
1406 6.8051643
1404 7.2864175
1402 7.7531857
1400 8.1300726
1398 8.3506174
1396 8.379221
1394 8.22647
1392 7.9337931
1390 7.568368
1388 7.1768284
1386 6.76758
1384 6.3424501
1382 5.906857
1380 5.4705973
1378 5.0454807
1376 4.62362
1374 4.169415
1372 3.6570439
1370 3.0871675
1368 2.4784727
1366 1.8671777
1364 1.2844235
1362 0.74895287
1360 0.28668851
1358 -0.063115537
1356 -0.26798442
1354 -0.31067875
1352 -0.17635268
1350 0.1470733
1348 0.64584637
1346 1.2679964
1344 1.9647801
1342 2.7038162
1340 3.4405222
1338 4.1039672
1336 4.6103086
1334 4.872653
1332 4.8526192
1330 4.5947447
1328 4.1747479
1326 3.6871457
1324 3.2214508
1322 2.8468177
1320 2.5982468
1318 2.4583843
1316 2.38134
1314 2.297473
1312 2.1596491
1310 1.9697568
1308 1.7512043
1306 1.543
1304 1.3746657
1302 1.25336
1300 1.1862111
1298 1.1895198
1296 1.2861143
1294 1.5049851
1292 1.8648386
1290 2.3603795
1288 2.962348
1286 3.6091278
1284 4.232326
1282 4.7689066
1280 5.1802359
1278 5.4711275
1276 5.6667972
1274 5.8105187
1272 5.9422092
1270 6.0879602
1268 6.268641
1266 6.5008621
1264 6.8007236
1262 7.1844363
1260 7.662262
1258 8.2342253
1256 8.8993092
1254 9.6591587
1252 10.515995
1250 11.470685
1248 12.512309
1246 13.60775
1244 14.713203
1242 15.771919
1240 16.725874
1238 17.522541
1236 18.109657
1234 18.433693
1232 18.443079
1230 18.093121
1228 17.365093
1226 16.297987
1224 14.96132
1222 13.464071
1220 11.932716
1218 10.503118
1216 9.3011599
1214 8.4187174
1212 7.9053798
1210 7.7355661
1208 7.8417158
1206 8.1058435
1204 8.3983107
1202 8.5921631
1200 8.5861359
1198 8.3348188
1196 7.83255
1194 7.1305995
1192 6.2955852
1190 5.3977818
1188 4.5026827
1186 3.6622694
1184 2.9207313
1182 2.3105979
1180 1.850862
1178 1.5361028
1176 1.34938
1174 1.2611414
1172 1.2428877
1170 1.2756083
1168 1.3440857
1166 1.4365799
1164 1.5381178
1162 1.624896
1160 1.6725205
1158 1.6608187
1156 1.5793557
1154 1.4382391
1152 1.2546704
1150 1.0506554
1148 0.84384525
1146 0.64021075
1144 0.44794255
1142 0.2845999
1140 0.15349475
1138 0.021483265
1136 -0.13382657
1134 -0.28971261
1132 -0.41897047
1130 -0.50998324
1128 -0.56049198
1126 -0.58176374
1124 -0.5880093
1122 -0.59190357
1120 -0.59722239
1118 -0.58793569
1116 -0.55220675
1114 -0.50022382
1112 -0.44839853
1110 -0.4145337
1108 -0.40798324
1106 -0.41599551
1104 -0.41961566
1102 -0.39731362
1100 -0.32423663
1098 -0.16973329
1096 0.08823055
1094 0.44523147
1092 0.88181299
1090 1.3568816
1088 1.8311388
1086 2.2836356
1084 2.6959906
1082 3.0453084
1080 3.3063359
1078 3.4515491
1076 3.4615815
1074 3.3401453
1072 3.1082926
1070 2.817574
1068 2.5292287
1066 2.3086865
1064 2.2041121
1062 2.2127662
1060 2.3072436
1058 2.4268498
1056 2.5122344
1054 2.5313187
1052 2.4722321
1050 2.3618979
1048 2.2350538
1046 2.1215498
1044 2.0429583
1042 2.0008945
1040 1.9945577
1038 2.0299911
1036 2.1119599
1034 2.2356701
1032 2.3904867
1030 2.554673
1028 2.7045577
1026 2.8184109
1024 2.8711281
1022 2.8258669
1020 2.6496377
1018 2.3303912
1016 1.8814172
1014 1.3767265
1012 0.90019321
1010 0.520015
1008 0.27167121
1006 0.10250811
1004 -0.055030689
1002 -0.24641921
1000 -0.4935056
998 -0.76149482
996 -1.0102342
994 -1.22688
992 -1.4087315
990 -1.5637255
988 -1.6994834
986 -1.8129572
984 -1.8987761
982 -1.9516259
980 -1.965548
978 -1.9333967
976 -1.8505429
974 -1.7217298
972 -1.5587497
970 -1.3896768
968 -1.2417085
966 -1.12711
964 -1.0457989
962 -0.97072816
960 -0.8731789
958 -0.74175096
956 -0.57969403
954 -0.42545116
952 -0.31354079
950 -0.23428303
948 -0.16280884
946 -0.059537463
944 0.11176938
942 0.36185288
940 0.67779845
938 0.98492438
936 1.2163743
934 1.3894167
932 1.5325747
930 1.6391352
928 1.6970377
926 1.7066751
924 1.682606
922 1.6792443
920 1.7473503
918 1.8849866
916 2.0682843
914 2.2411618
912 2.3540983
910 2.4149301
908 2.4584343
906 2.5683513
904 2.8282344
902 3.2718854
900 3.8978472
898 4.613286
896 5.3027
