##TITLE=Methyl Ethyl Ketone
##JCAMP-DX=4.24
##DATA TYPE=INFRARED SPECTRUM
##XUNITS=cm-1
##YUNITS=Absorbance
##FIRSTX=900
##LASTX=2300
##XYDATA=(X++(Y..Y))
2296 -0.051715001
2294 -0.052813429
2292 -0.053911857
2290 -0.05501128
2288 -0.056109715
2286 -0.057208143
2284 -0.058307562
2282 -0.059405997
2280 -0.060504425
2278 -0.061602857
2276 -0.062702268
2274 -0.063802682
2272 -0.06490016
2270 -0.065992683
2268 -0.067096882
2266 -0.068215981
2264 -0.069295317
2262 -0.070319131
2260 -0.071489759
2258 -0.072868384
2256 -0.073697716
2254 -0.07375592
2252 -0.075853951
2250 -0.080829285
2248 -0.078220531
2246 -0.055201892
2244 -0.0020188256
2242 0.07497701
2240 0.1081146
2238 0.034373287
2236 -0.12082591
2234 -0.30569869
2232 -0.46420228
2230 -0.55344099
2228 -0.58725113
2226 -0.59573346
2224 -0.60820377
2222 -0.64861155
2220 -0.72111547
2218 -0.81803942
2216 -0.90745318
2214 -0.95257896
2212 -0.92602402
2210 -0.81572747
2208 -0.6597836
2206 -0.51036924
2204 -0.4150973
2202 -0.40679383
2200 -0.46484429
2198 -0.5510909
2196 -0.62311429
2194 -0.64762223
2192 -0.63257045
2190 -0.60180146
2188 -0.59068745
2186 -0.62868768
2184 -0.7073288
2182 -0.8031835
2180 -0.88183928
2178 -0.91278946
2176 -0.89491743
2174 -0.83828598
2172 -0.75916135
2170 -0.67496669
2168 -0.60045189
2166 -0.55014086
2164 -0.54149556
2162 -0.58701581
2160 -0.67478037
2158 -0.78251463
2156 -0.87943202
2154 -0.93857419
2152 -0.95989692
2150 -0.95225918
2148 -0.92286479
2146 -0.87768966
2144 -0.82087803
2142 -0.76028889
2140 -0.72143149
2138 -0.73131925
2136 -0.79738396
2134 -0.91301459
2132 -1.0432793
2130 -1.1482532
2128 -1.209404
2126 -1.2233043
2124 -1.2167566
2122 -1.2231436
2120 -1.2575103
2118 -1.322789
2116 -1.4010528
2114 -1.468372
2112 -1.5080817
2110 -1.5108923
2108 -1.4848883
2106 -1.4446
2104 -1.404472
2102 -1.3752246
2100 -1.353168
2098 -1.3308822
2096 -1.3085858
2094 -1.2918798
2092 -1.2958363
2090 -1.3359609
2088 -1.4143903
2086 -1.525755
2084 -1.6546174
2082 -1.7837815
2080 -1.9046475
2078 -2.0132697
2076 -2.1091285
2074 -2.1916351
2072 -2.2529521
2070 -2.2842546
2068 -2.2847328
2066 -2.2606835
2064 -2.2326565
2062 -2.2238357
2060 -2.2432868
2058 -2.2895639
2056 -2.3419485
2054 -2.3752353
2052 -2.3775752
2050 -2.3470783
2048 -2.2977469
2046 -2.250632
2044 -2.22805
2042 -2.2507668
2040 -2.3318405
2038 -2.473912
2036 -2.6510513
2034 -2.8250554
2032 -2.9587286
2030 -3.0239339
2028 -3.0268271
2026 -2.9886363
2024 -2.9301875
2022 -2.8713102
2020 -2.8319604
2018 -2.8319921
2016 -2.8916199
2014 -3.0208547
2012 -3.1849954
2010 -3.3328688
2008 -3.4290376
2006 -3.4566278
2004 -3.4410973
2002 -3.420579
2000 -3.4049656
1998 -3.3866293
1996 -3.3446286
1994 -3.2626948
1992 -3.1679239
1990 -3.1052153
1988 -3.107228
1986 -3.1895022
1984 -3.3246412
1982 -3.4676945
1980 -3.5848715
1978 -3.6529799
1976 -3.66624
1974 -3.62867
1972 -3.5509953
1970 -3.4491458
1968 -3.347805
1966 -3.2730401
1964 -3.2388151
1962 -3.2487855
1960 -3.2901802
1958 -3.3447111
1956 -3.40451
1954 -3.4664567
1952 -3.5219035
1950 -3.5596938
1948 -3.5697536
1946 -3.5487251
1944 -3.5168719
1942 -3.5026228
1940 -3.5161855
1938 -3.5535789
1936 -3.5948343
1934 -3.6152351
1932 -3.601532
1930 -3.5471234
1928 -3.4442704
1926 -3.2881136
1924 -3.0904155
1922 -2.8777823
1920 -2.7029326
1918 -2.6197228
1916 -2.6287971
1914 -2.6976893
1912 -2.7802892
1910 -2.8357377
1908 -2.8669219
1906 -2.8980515
1904 -2.9386199
1902 -2.9856508
1900 -3.0271251
1898 -3.0503387
1896 -3.0574143
1894 -3.0569456
1892 -3.0463688
1890 -3.0178051
1888 -2.971096
1886 -2.9148443
1884 -2.8734529
1882 -2.873301
1880 -2.9108858
1878 -2.9585283
1876 -2.96258
1874 -2.8661981
1872 -2.657861
1870 -2.3671892
1868 -2.0819352
1866 -1.9057035
1864 -1.8720982
1862 -1.961305
1860 -2.1166129
1858 -2.2704101
1856 -2.3851085
1854 -2.4391813
1852 -2.3927863
1850 -2.2072864
1848 -1.909384
1846 -1.5760643
1844 -1.3227528
1842 -1.2564732
1840 -1.3596497
1838 -1.5309908
1836 -1.6530442
1834 -1.626951
1832 -1.4430891
1830 -1.1583853
1828 -0.8730402
1826 -0.69508386
1824 -0.67220652
1822 -0.79698271
1820 -0.99948138
1818 -1.1801909
1816 -1.2676657
1814 -1.227584
1812 -1.0920982
1810 -0.93040657
1808 -0.79392219
1806 -0.70524698
1804 -0.63228792
1802 -0.51433218
1800 -0.31702194
1798 -0.043661684
1796 0.2306225
1794 0.39479864
1792 0.38326761
1790 0.19146888
1788 -0.07358896
1786 -0.25543386
1784 -0.30002785
1782 -0.23458683
1780 -0.09350355
1778 0.095278196
1776 0.31013629
1774 0.52271551
1772 0.65647197
1770 0.6244216
1768 0.44965002
1766 0.23485535
1764 0.069058254
1762 0.0019336906
1760 -0.0028361292
1758 -0.022509899
1756 -0.050556116
1754 -0.011233261
1752 0.17374709
1750 0.5490337
1748 1.0383207
1746 1.4846286
1744 1.7642795
1742 1.8187286
1740 1.7207305
1738 1.6140953
1736 1.54222
1734 1.4523156
1732 1.254776
1730 0.87336737
1728 0.36545604
1726 -0.10808064
1724 -0.3876465
1722 -0.34514591
1720 0.075537771
1718 0.84883261
1716 1.8151829
1714 2.7459366
1712 3.5392084
1710 4.2323661
1708 4.983964
1706 6.0262666
1704 7.5707173
1702 9.7636375
1700 12.578314
1698 15.819548
1696 19.130142
1694 22.10619
1692 24.64522
1690 26.943371
1688 29.363663
1686 32.307236
1684 35.905323
1682 39.991005
1680 44.099682
1678 47.670212
1676 50.675598
1674 53.556801
1672 56.699783
1670 60.302971
1668 64.279755
1666 68.348244
1664 72.328331
1662 76.165276
1660 79.810287
1658 83.210434
1656 86.374657
1654 89.346977
1652 92.073059
1650 94.377769
1648 95.964752
1646 96.533569
1644 96.183205
1642 95.331406
1640 94.157478
1638 92.541489
1636 90.252182
1634 87.078415
1632 83.150894
1630 78.896278
1628 74.638023
1626 70.514824
1624 66.506279
1622 62.489155
1620 58.40744
1618 54.297836
1616 50.243744
1614 46.358913
1612 42.776585
1610 39.623798
1608 36.92971
1606 34.628277
1604 32.642933
1602 30.910545
1600 29.395966
1598 28.089277
1596 26.984501
1594 26.071672
1592 25.334869
1590 24.756657
1588 24.331978
1586 24.070257
1584 23.987881
1582 24.105742
1580 24.461378
1578 25.10174
1576 26.034599
1574 27.211792
1572 28.510923
1570 29.762011
1568 30.87664
1566 31.874121
1564 32.839031
1562 33.927662
1560 35.422302
1558 37.627705
1556 40.364155
1554 42.966919
1552 44.953308
1550 46.210747
1548 46.977852
1546 47.745964
1544 48.789894
1542 50.050549
1540 51.250622
1538 51.981544
1536 52.010143
1534 51.368591
1532 50.297947
1530 49.178841
1528 48.229187
1526 47.4328
1524 46.661968
1522 45.721039
1520 44.436958
1518 42.716648
1516 40.676487
1514 38.618855
1512 36.670082
1510 34.690788
1508 32.436085
1506 29.666008
1504 26.467213
1502 23.280579
1500 20.429794
1498 17.98741
1496 15.877857
1494 13.924323
1492 11.99852
1490 10.05757
1488 8.0791187
1486 6.0582538
1484 4.0853581
1482 2.3549762
1480 1.036626
1478 0.23954183
1476 0.056561835
1474 0.53495574
1472 1.4992738
1470 2.539835
1468 3.4003136
1466 4.0941167
1464 4.7292562
1462 5.4380751
1460 6.2342191
1458 6.9656529
1456 7.4275804
1454 7.4316978
1452 6.9999599
1450 6.4037871
1448 5.83569
1446 5.3123393
1444 4.8220372
1442 4.3681679
1440 3.9681129
1438 3.6453617
1436 3.37923
1434 3.0935774
1432 2.7348731
1430 2.3057222
1428 1.86625
1426 1.53137
1424 1.3859446
1422 1.447847
1420 1.6750283
1418 1.9660556
1416 2.2301657
1414 2.4189808
1412 2.54298
1410 2.6782436
1408 2.8876212
1406 3.1926587
1404 3.5947328
1402 4.0769248
1400 4.6053882
1398 5.125349
1396 5.5648069
1394 5.8414116
1392 5.9159298
1390 5.8167577
1388 5.5899315
1386 5.2839999
1384 4.9410801
1382 4.5935354
1380 4.2750249
1378 4.0191936
1376 3.8280141
1374 3.6570745
1372 3.4618659
1370 3.2174842
1368 2.9279096
1366 2.6291084
1364 2.3336077
1362 2.0090721
1360 1.6286018
1358 1.1948984
1356 0.74851459
1354 0.37258631
1352 0.12177531
1350 -0.0095561333
1348 -0.041699238
1346 0.0058616102
1344 0.12946512
1342 0.34330231
1340 0.6229037
1338 0.87770981
1336 1.0193172
1334 0.9972294
1332 0.83030945
1330 0.6318028
1328 0.50095671
1326 0.47624967
1324 0.56498075
1322 0.74517828
1320 0.98694336
1318 1.2581245
1316 1.5257
1314 1.7575645
1312 1.9303589
1310 2.0357602
1308 2.0721099
1306 2.0449321
1304 1.9679406
1302 1.865973
1300 1.7652212
1298 1.6889162
1296 1.6528857
1294 1.6608862
1292 1.7114477
1290 1.7974877
1288 1.9037881
1286 2.0034366
1284 2.0738556
1282 2.1072576
1280 2.113744
1278 2.1284599
1276 2.1848001
1274 2.300777
1272 2.4790158
1270 2.701463
1268 2.9519506
1266 3.2272849
1264 3.531132
1262 3.8732617
1260 4.2557559
1258 4.6642413
1256 5.0839286
1254 5.5081158
1252 5.9393864
1250 6.3931451
1248 6.8783212
1246 7.3843999
1244 7.8901787
1242 8.3629198
1240 8.776516
1238 9.1227951
1236 9.3995676
1234 9.6070595
1232 9.7379246
1230 9.7704306
1228 9.6879435
1226 9.4924841
1224 9.1967783
1222 8.8263292
1220 8.4044313
1218 7.9439731
1216 7.4546227
1214 6.9449039
1212 6.425096
1210 5.9090991
1208 5.4055738
1206 4.9104366
1204 4.4158559
1202 3.9141192
1200 3.4056947
1198 2.9075727
1196 2.4364142
1194 1.9995394
1192 1.6008731
1190 1.2418671
1188 0.92457253
1186 0.65334767
1184 0.42751086
1182 0.23529762
1180 0.069507852
1178 -0.061684661
1176 -0.14766401
1174 -0.18151698
1172 -0.16608025
1170 -0.12305862
1168 -0.073366664
1166 -0.02621053
1164 0.012751007
1162 0.039700992
1160 0.051897246
1158 0.048284553
1156 0.030238912
1154 0.0035547614
1152 -0.026505414
1150 -0.058071457
1148 -0.088225298
1146 -0.10963
1144 -0.11269391
1142 -0.085982986
1140 -0.025347643
1138 0.056278579
1136 0.15125628
1134 0.27402198
1132 0.44409156
1130 0.67968786
1128 0.99041671
1126 1.3652607
1124 1.7818608
1122 2.2035849
1120 2.6040242
1118 2.9891267
1116 3.3703759
1114 3.752332
1112 4.13344
1110 4.4994006
1108 4.8334928
1106 5.1203051
1104 5.3513098
1102 5.5358987
1100 5.6985474
1098 5.8900323
1096 6.1536713
1094 6.4961805
1092 6.902256
1090 7.3224611
1088 7.7041349
1086 8.0088997
1084 8.214427
1082 8.3317461
1080 8.383523
1078 8.4019814
1076 8.4174747
1074 8.4490995
1072 8.5129242
1070 8.6230507
1068 8.784708
1066 8.980196
1064 9.1796999
1062 9.3374634
1060 9.4138908
1058 9.3979368
1056 9.2910662
1054 9.1089182
1052 8.8631468
1050 8.5455112
1048 8.1481228
1046 7.6788821
1044 7.1601539
1042 6.6437125
1040 6.1829319
1038 5.8139243
1036 5.5524201
1034 5.3662524
1032 5.20856
1030 5.0238543
1028 4.7732749
1026 4.4732466
1024 4.1524343
1022 3.8356361
1020 3.5368979
1018 3.2415123
1016 2.9336686
1014 2.6158998
1012 2.2912529
1010 1.9517626
1008 1.59648
1006 1.2540963
1004 0.96032548
1002 0.7480914
1000 0.62884927
998 0.54881895
996 0.44762856
994 0.29537323
992 0.08125855
990 -0.16860244
988 -0.42321312
986 -0.66477454
984 -0.87452292
982 -1.0200803
980 -1.0652428
978 -0.9734385
976 -0.72550917
974 -0.36169487
972 0.056425542
970 0.4452548
968 0.73018456
966 0.88568854
964 0.90888
962 0.83267289
960 0.6989255
958 0.54955965
956 0.41847387
954 0.31183663
952 0.2269288
950 0.15421191
948 0.087278962
946 0.036464822
944 0.010778337
942 -0.00018876418
940 -0.005320366
938 0.0093534291
936 0.063939087
934 0.18004216
932 0.37278765
930 0.63209581
928 0.9381808
926 1.2584243
924 1.5566161
922 1.7952409
920 1.934764
918 1.92995
916 1.7533586
914 1.4489875
912 1.0749025
910 0.67320979
908 0.27271307
906 -0.13353133
904 -0.54147685
902 -0.86873078
900 -1.0267675
898 -0.98011893
896 -0.70675999
