Image.
>Pix99999.
  .
5555
5555
2300
900
5555
2
1
0
701
5555
8.7782003e-002
8.9608386e-002
9.1434777e-002
9.3260169e-002
9.5086545e-002
9.6912943e-002
9.8739326e-002
1.0056175e-001
1.0238909e-001
1.0421647e-001
1.0604385e-001
1.0787124e-001
1.0969862e-001
1.1151620e-001
1.1334340e-001
1.1520993e-001
1.1699909e-001
1.1869872e-001
1.2064960e-001
1.2296676e-001
1.2432200e-001
1.2433090e-001
1.2790403e-001
1.3650185e-001
1.3184555e-001
9.7636499e-002
4.7602471e-002
3.5540888e-003
-1.4140224e-002
9.9308528e-003
7.3127188e-002
1.6586179e-001
2.7123201e-001
3.7046051e-001
4.4547865e-001
4.7624001e-001
4.3355194e-001
3.0012277e-001
1.1743674e-001
-5.0974436e-002
-1.2263325e-001
-3.1881157e-002
1.9693041e-001
5.0266153e-001
7.8501153e-001
9.4945550e-001
9.7132134e-001
8.6088812e-001
6.8270802e-001
5.1213580e-001
4.0171859e-001
3.8584208e-001
4.5487776e-001
5.8223540e-001
7.2812837e-001
8.5492659e-001
9.4989759e-001
1.0119550e+000
1.0547698e+000
1.0926309e+000
1.1244172e+000
1.1435314e+000
1.1411809e+000
1.1127720e+000
1.0720217e+000
1.0388086e+000
1.0337168e+000
1.0724747e+000
1.1525302e+000
1.2631924e+000
1.3856400e+000
1.4970226e+000
1.5684880e+000
1.5746834e+000
1.5110162e+000
1.3901072e+000
1.2631103e+000
1.1861100e+000
1.1794552e+000
1.2423210e+000
1.3386058e+000
1.4258717e+000
1.4847102e+000
1.5060080e+000
1.4847680e+000
1.4243171e+000
1.3550000e+000
1.3152245e+000
1.3359793e+000
1.4317737e+000
1.5617100e+000
1.6712070e+000
1.7338136e+000
1.7408532e+000
1.7119718e+000
1.6730150e+000
1.6331720e+000
1.5962578e+000
1.5721080e+000
1.5733787e+000
1.6131001e+000
1.6968710e+000
1.7990021e+000
1.8818315e+000
1.9082297e+000
1.8523200e+000
1.7327039e+000
1.5881617e+000
1.4680046e+000
1.4177794e+000
1.4520042e+000
1.5652676e+000
1.7216159e+000
1.8718762e+000
1.9634411e+000
1.9537851e+000
1.8472669e+000
1.6749203e+000
1.4982349e+000
1.3815330e+000
1.3513542e+000
1.4089333e+000
1.5177783e+000
1.6281945e+000
1.6968538e+000
1.6933714e+000
1.6262580e+000
1.5245310e+000
1.4332731e+000
1.3966440e+000
1.4301085e+000
1.5295962e+000
1.6624771e+000
1.7861050e+000
1.8648723e+000
1.8756785e+000
1.8331223e+000
1.7660565e+000
1.6946352e+000
1.6286476e+000
1.5539600e+000
1.4537716e+000
1.3437577e+000
1.2542008e+000
1.2113446e+000
1.2308643e+000
1.2949994e+000
1.3721941e+000
1.4352257e+000
1.4628918e+000
1.4457858e+000
1.3829825e+000
1.2851783e+000
1.1705822e+000
1.0674460e+000
1.0031835e+000
9.8448318e-001
1.0058669e+000
1.0544888e+000
1.1179404e+000
1.1978772e+000
1.3015690e+000
1.4306340e+000
1.5772783e+000
1.7068658e+000
1.7761543e+000
1.7593063e+000
1.6483970e+000
1.4723281e+000
1.2747065e+000
1.0848657e+000
9.2244744e-001
8.0112565e-001
7.3030192e-001
7.1179456e-001
7.3884249e-001
7.8376484e-001
8.1324279e-001
8.1530482e-001
7.9339302e-001
7.6587659e-001
7.5246078e-001
7.4868858e-001
7.3826528e-001
7.1140254e-001
6.6972744e-001
6.4483392e-001
6.7420852e-001
7.5263143e-001
8.4885532e-001
9.2452741e-001
9.4909704e-001
9.3393397e-001
9.0686339e-001
8.6636353e-001
7.9597586e-001
6.9363362e-001
5.7607585e-001
5.0011653e-001
5.3094041e-001
6.7537290e-001
8.9710915e-001
1.1238497e+000
1.2737811e+000
1.3002554e+000
1.1892849e+000
9.7532976e-001
7.1865112e-001
4.7873825e-001
3.0407760e-001
2.0746301e-001
1.8031248e-001
2.1085875e-001
2.8752339e-001
3.9908156e-001
5.3099054e-001
6.5303212e-001
7.2944313e-001
7.4145710e-001
6.8338060e-001
5.5787569e-001
3.7280577e-001
1.4175108e-001
-1.1550660e-001
-3.6535800e-001
-5.6665248e-001
-6.8108034e-001
-6.8192691e-001
-5.8252037e-001
-4.2030081e-001
-2.2985044e-001
-3.4248248e-002
1.7495051e-001
4.1587743e-001
6.6262114e-001
8.5879236e-001
9.4707894e-001
8.8819188e-001
7.1146423e-001
4.8806125e-001
2.7873200e-001
1.2601253e-001
4.3631926e-002
2.8212592e-002
7.8429013e-002
1.8621799e-001
2.9762065e-001
3.3469540e-001
2.5112423e-001
4.7622990e-002
-1.7486537e-001
-2.6881993e-001
-1.6914721e-001
1.0702071e-001
4.5952463e-001
7.5416631e-001
9.2496091e-001
9.6570158e-001
9.0024030e-001
7.7020448e-001
6.3372284e-001
5.4903197e-001
5.3021318e-001
5.5162990e-001
5.5389309e-001
4.7505215e-001
3.3201480e-001
1.8851730e-001
5.2558631e-002
-1.0204849e-001
-2.3812744e-001
-2.7978027e-001
-2.1411549e-001
-8.8488042e-002
1.6521189e-002
1.4638593e-002
-1.2745847e-001
-3.8590139e-001
-6.6425741e-001
-8.3140832e-001
-8.1914800e-001
-6.3361436e-001
-3.7553105e-001
-1.9218713e-001
-1.5078457e-001
-2.3033178e-001
-3.2550192e-001
-2.7685541e-001
7.3836684e-002
8.3286202e-001
1.9050701e+000
3.0496778e+000
4.0699673e+000
4.8710232e+000
5.5655861e+000
6.4195709e+000
7.6916165e+000
9.5924072e+000
1.2246837e+001
1.5644009e+001
1.9436142e+001
2.3070330e+001
2.6250090e+001
2.9007839e+001
3.1746155e+001
3.5088352e+001
3.9460178e+001
4.4934620e+001
5.0885960e+001
5.6306091e+001
6.0965313e+001
6.5370926e+001
7.0022064e+001
7.5175171e+001
8.0550003e+001
8.5493454e+001
8.9634079e+001
9.2932487e+001
9.5445473e+001
9.7253151e+001
9.8400429e+001
9.8902161e+001
9.8799820e+001
9.8165131e+001
9.7065025e+001
9.5565285e+001
9.3782936e+001
9.1857872e+001
8.9813438e+001
8.7551125e+001
8.4927032e+001
8.1810310e+001
7.8230530e+001
7.4345383e+001
7.0210922e+001
6.5769173e+001
6.0993721e+001
5.5938354e+001
5.0793575e+001
4.5850853e+001
4.1324085e+001
3.7317402e+001
3.3869678e+001
3.0966520e+001
2.8541496e+001
2.6497049e+001
2.4773006e+001
2.3352541e+001
2.2227196e+001
2.1385492e+001
2.0794500e+001
2.0404432e+001
2.0193342e+001
2.0174145e+001
2.0381586e+001
2.0855587e+001
2.1588680e+001
2.2535540e+001
2.3696325e+001
2.5131454e+001
2.6933115e+001
2.9187590e+001
3.1852797e+001
3.4753284e+001
3.7696121e+001
4.0514278e+001
4.3128151e+001
4.5585045e+001
4.8138481e+001
5.1135632e+001
5.4428699e+001
5.7349342e+001
5.9372925e+001
6.0317837e+001
6.0378464e+001
6.0027641e+001
5.9465298e+001
5.8522518e+001
5.6974979e+001
5.4681229e+001
5.1818287e+001
4.8867847e+001
4.6179741e+001
4.3856850e+001
4.1833965e+001
3.9915951e+001
3.7897301e+001
3.5620926e+001
3.3089771e+001
3.0485743e+001
2.8036530e+001
2.5933529e+001
2.4129120e+001
2.2319504e+001
2.0259176e+001
1.7877394e+001
1.5329086e+001
1.2960462e+001
1.0968014e+001
9.3123188e+000
7.8761287e+000
6.5243211e+000
5.2038922e+000
3.9626703e+000
2.8417807e+000
1.8501871e+000
1.0055032e+000
3.4494856e-001
-8.8938102e-002
-2.4307704e-001
-1.6379148e-002
7.2012931e-001
1.9434263e+000
3.4353139e+000
4.9757204e+000
6.4147415e+000
7.7143435e+000
8.9549398e+000
1.0201436e+001
1.1452377e+001
1.2623000e+001
1.3552559e+001
1.4146680e+001
1.4422571e+001
1.4428589e+001
1.4218107e+001
1.3835289e+001
1.3309050e+001
1.2664502e+001
1.1921673e+001
1.1082543e+001
1.0136181e+001
9.1174860e+000
8.1240005e+000
7.2401261e+000
6.5072999e+000
5.9312639e+000
5.4863586e+000
5.1706705e+000
5.0218344e+000
5.0678396e+000
5.3048110e+000
5.6910253e+000
6.1444402e+000
6.5959930e+000
7.0084805e+000
7.3541989e+000
7.6091127e+000
7.7525721e+000
7.7703834e+000
7.6636715e+000
7.4550118e+000
7.1742187e+000
6.8527341e+000
6.5108700e+000
6.1523452e+000
5.7821088e+000
5.4108086e+000
5.0410104e+000
4.6605005e+000
4.2476029e+000
3.7755840e+000
3.2401941e+000
2.6708026e+000
2.0892532e+000
1.4956293e+000
8.9214647e-001
2.9824257e-001
-2.2646210e-001
-5.7469797e-001
-6.8148816e-001
-5.6567502e-001
-2.6868263e-001
1.6223365e-001
6.8044078e-001
1.2444394e+000
1.8262961e+000
2.4152749e+000
2.9875035e+000
3.4924991e+000
3.8749571e+000
4.0864024e+000
4.1091895e+000
3.9737499e+000
3.7233675e+000
3.4039593e+000
3.0589509e+000
2.7253411e+000
2.4310691e+000
2.1893811e+000
1.9998099e+000
1.8443536e+000
1.7011360e+000
1.5498002e+000
1.3791869e+000
1.1946379e+000
1.0136243e+000
8.6790597e-001
7.9014844e-001
8.0797881e-001
9.3991429e-001
1.1901779e+000
1.5570766e+000
2.0331168e+000
2.6018641e+000
3.2314973e+000
3.8772299e+000
4.4788203e+000
4.9855504e+000
5.3732295e+000
5.6415715e+000
5.8217120e+000
5.9477987e+000
6.0462570e+000
6.1447496e+000
6.2767520e+000
6.4822083e+000
6.8075919e+000
7.2816238e+000
7.8961086e+000
8.6302261e+000
9.4572325e+000
1.0362148e+001
1.1352028e+001
1.2428868e+001
1.3570750e+001
1.4738106e+001
1.5863488e+001
1.6877651e+001
1.7722092e+001
1.8338814e+001
1.8670038e+001
1.8664120e+001
1.8284725e+001
1.7531672e+001
1.6470829e+001
1.5190171e+001
1.3785288e+001
1.2350842e+001
1.0978348e+001
9.7567253e+000
8.7644777e+000
8.0589790e+000
7.6515598e+000
7.5228114e+000
7.6096587e+000
7.8222518e+000
8.0370064e+000
8.1296701e+000
7.9966998e+000
7.5788574e+000
6.9028850e+000
6.0403605e+000
5.1125541e+000
4.2358966e+000
3.4887636e+000
2.9129164e+000
2.4913309e+000
2.1907268e+000
1.9738141e+000
1.8104401e+000
1.6884534e+000
1.6015348e+000
1.5460589e+000
1.5178434e+000
1.5093243e+000
1.5128995e+000
1.5228180e+000
1.5358679e+000
1.5533364e+000
1.5714115e+000
1.5727533e+000
1.5361412e+000
1.4398794e+000
1.2703221e+000
1.0341679e+000
7.5372326e-001
4.7432366e-001
2.3570138e-001
5.1088993e-002
-7.7105194e-002
-1.5842530e-001
-2.1628210e-001
-2.9754603e-001
-4.3021610e-001
-5.8306825e-001
-7.0637447e-001
-7.4325359e-001
-6.6608721e-001
-5.2155316e-001
-3.6307558e-001
-2.1589252e-001
-8.9180060e-002
2.9382557e-002
1.4165840e-001
2.1315651e-001
2.2505252e-001
2.1970172e-001
2.5151116e-001
3.6596814e-001
5.8402145e-001
8.7064850e-001
1.1906359e+000
1.5425975e+000
1.9305297e+000
2.3496087e+000
2.7781878e+000
3.1569223e+000
3.4278085e+000
3.5614669e+000
3.5541544e+000
3.4518728e+000
3.3130102e+000
3.1949475e+000
3.1333477e+000
3.1048386e+000
3.0651159e+000
2.9535391e+000
2.7320132e+000
2.4352102e+000
2.1232543e+000
1.8742840e+000
1.7425746e+000
1.7032260e+000
1.7096320e+000
1.7101107e+000
1.6720655e+000
1.6211567e+000
1.5959228e+000
1.6291356e+000
1.7350600e+000
1.8774791e+000
2.0036926e+000
2.0501106e+000
1.9719135e+000
1.7860308e+000
1.5289350e+000
1.2475190e+000
9.7766322e-001
7.1402979e-001
4.4407830e-001
1.6498655e-001
-1.2477607e-001
-4.2995605e-001
-7.5751001e-001
-1.1177821e+000
-1.5060657e+000
-1.8686557e+000
-2.1527498e+000
-2.3464992e+000
-2.4648144e+000
-2.5745940e+000
-2.7301714e+000
-2.9058802e+000
-3.0555675e+000
-3.1318471e+000
-3.1039994e+000
-2.9940627e+000
-2.8269479e+000
-2.5937061e+000
-2.2877514e+000
-1.9390444e+000
-1.5918734e+000
-1.3084438e+000
-1.1341864e+000
-1.0425780e+000
-9.8493540e-001
-8.9851612e-001
-7.3489356e-001
-5.0787807e-001
-2.5629050e-001
-5.1457901e-002
4.8294559e-002
5.8534496e-002
2.0728443e-002
2.5639795e-003
6.1606660e-002
1.9574542e-001
3.7415290e-001
5.1650989e-001
5.5074173e-001
4.7990856e-001
3.5043737e-001
2.9870588e-001
4.5568395e-001
8.4863502e-001
1.4427860e+000
2.0686426e+000
2.5571949e+000
2.8689151e+000
3.0217257e+000
3.1292000e+000
3.3008153e+000
3.5383401e+000
3.8013270e+000
3.9897015e+000
4.0170693e+000
3.9065137e+000
3.7234223e+000
3.5916836e+000
3.6501000e+000
