Image.
>Pix99999.
  .
5555
5555
2300
900
5555
2
1
0
701
5555
-2.9113000e-002
-2.9719133e-002
-3.0325266e-002
-3.0930404e-002
-3.1536531e-002
-3.2141671e-002
-3.2747794e-002
-3.3352938e-002
-3.3959065e-002
-3.4564212e-002
-3.5170328e-002
-3.5776462e-002
-3.6381610e-002
-3.6985766e-002
-3.7592839e-002
-3.8202904e-002
-3.8804241e-002
-3.9393671e-002
-4.0014982e-002
-4.0682811e-002
-4.1228484e-002
-4.1603871e-002
-4.2430535e-002
-4.3895144e-002
-4.3679394e-002
-3.5677999e-002
-1.3141886e-003
6.7927815e-002
1.2600371e-001
1.2400601e-001
6.3561156e-002
-3.5516962e-002
-1.3880596e-001
-2.1472797e-001
-2.5962764e-001
-2.8043598e-001
-2.9404548e-001
-3.1536824e-001
-3.3979401e-001
-3.5652187e-001
-3.5309285e-001
-3.2049194e-001
-2.6519141e-001
-1.9975044e-001
-1.4261961e-001
-1.0908907e-001
-9.4674073e-002
-8.7760083e-002
-7.2492935e-002
-3.6067512e-002
1.7016215e-002
7.6169401e-002
1.2808268e-001
1.6182837e-001
1.7923951e-001
1.8734543e-001
1.9780160e-001
2.2073327e-001
2.5415719e-001
2.9159567e-001
3.2410115e-001
3.4241420e-001
3.3894181e-001
3.0918530e-001
2.5912604e-001
1.9984257e-001
1.4913730e-001
1.2227596e-001
1.1531641e-001
1.1863305e-001
1.2617800e-001
1.3647687e-001
1.6125251e-001
2.1170262e-001
2.7833077e-001
3.4378213e-001
3.8827240e-001
3.9623088e-001
3.7216985e-001
3.2642844e-001
2.6414600e-001
1.8977229e-001
1.1330251e-001
4.7868028e-002
1.1025175e-002
1.5192742e-002
4.5272730e-002
7.6153755e-002
8.2973786e-002
4.7397278e-002
-2.3701858e-002
-1.1191984e-001
-1.8970485e-001
-2.3032749e-001
-2.2322030e-001
-1.6932543e-001
-9.1470830e-002
-1.8910242e-002
2.6113650e-002
2.8800527e-002
-7.1358574e-003
-6.9912776e-002
-1.4342649e-001
-2.1246926e-001
-2.7139753e-001
-3.1931901e-001
-3.5919455e-001
-3.9332223e-001
-4.1547808e-001
-4.1721383e-001
-3.9517215e-001
-3.5033438e-001
-2.9276240e-001
-2.3625807e-001
-1.9526464e-001
-1.8276542e-001
-2.0496508e-001
-2.6223159e-001
-3.4193993e-001
-4.2860991e-001
-5.1666111e-001
-6.0473746e-001
-6.9066942e-001
-7.6923311e-001
-8.2450241e-001
-8.4107822e-001
-8.2467359e-001
-7.9140514e-001
-7.6214439e-001
-7.5599772e-001
-7.7802259e-001
-8.2637650e-001
-8.9608550e-001
-9.7804236e-001
-1.0499550e+000
-1.0841050e+000
-1.0550989e+000
-9.4971013e-001
-8.0278933e-001
-6.7123544e-001
-6.1502004e-001
-6.7589319e-001
-8.1750047e-001
-9.7069120e-001
-1.0779132e+000
-1.1025950e+000
-1.0655158e+000
-1.0093588e+000
-9.5971018e-001
-9.2822248e-001
-9.0770358e-001
-8.8629454e-001
-8.6750466e-001
-8.6274481e-001
-8.8390321e-001
-9.3823481e-001
-1.0143201e+000
-1.0920851e+000
-1.1519858e+000
-1.1776158e+000
-1.1609029e+000
-1.0988981e+000
-9.9389118e-001
-8.5645550e-001
-7.2376484e-001
-6.4225286e-001
-6.4225113e-001
-7.3348314e-001
-8.7569284e-001
-1.0094910e+000
-1.0986485e+000
-1.1282579e+000
-1.1170161e+000
-1.0979710e+000
-1.0951786e+000
-1.1220500e+000
-1.1695012e+000
-1.2179146e+000
-1.2507054e+000
-1.2585443e+000
-1.2527828e+000
-1.2525536e+000
-1.2650400e+000
-1.2853009e+000
-1.2887149e+000
-1.2444193e+000
-1.1380423e+000
-9.7467083e-001
-8.0282760e-001
-6.8468177e-001
-6.4371842e-001
-6.7421091e-001
-7.4325603e-001
-8.1355315e-001
-8.8527375e-001
-9.7470731e-001
-1.0729680e+000
-1.1526809e+000
-1.1746495e+000
-1.1065915e+000
-9.6818572e-001
-8.1077355e-001
-6.9257623e-001
-6.6340238e-001
-7.3081595e-001
-8.7309664e-001
-1.0468404e+000
-1.2039455e+000
-1.3208268e+000
-1.3906293e+000
-1.4126600e+000
-1.3876160e+000
-1.3118720e+000
-1.1865609e+000
-1.0457973e+000
-9.3938375e-001
-8.9966100e-001
-9.3880010e-001
-1.0347965e+000
-1.1508325e+000
-1.2695315e+000
-1.3844296e+000
-1.4764674e+000
-1.5205897e+000
-1.5073761e+000
-1.4446785e+000
-1.3698268e+000
-1.3288369e+000
-1.3301075e+000
-1.3534727e+000
-1.3646142e+000
-1.3286160e+000
-1.2350520e+000
-1.0956272e+000
-9.4803166e-001
-8.4198278e-001
-8.1414628e-001
-8.8201082e-001
-1.0220102e+000
-1.1847351e+000
-1.3194286e+000
-1.3851204e+000
-1.3760506e+000
-1.3091683e+000
-1.2000000e+000
-1.0602551e+000
-8.9963669e-001
-7.2843361e-001
-5.6286234e-001
-4.1903290e-001
-2.9420501e-001
-1.7801209e-001
-8.5650958e-002
-4.5047056e-002
-5.5633616e-002
-9.2084967e-002
-1.1587480e-001
-8.7348565e-002
9.2144683e-003
1.6894966e-001
3.7259686e-001
5.8771485e-001
7.5739485e-001
8.1812811e-001
7.5054097e-001
5.7866150e-001
3.7220681e-001
2.0721650e-001
5.8940858e-002
-1.4674935e-001
-3.5998699e-001
-4.4472936e-001
-3.2905719e-001
-2.2378594e-002
3.6907399e-001
6.8812931e-001
8.3270842e-001
7.7622521e-001
6.1282349e-001
5.0021374e-001
5.0574398e-001
6.0055125e-001
6.7831284e-001
6.0959744e-001
3.7684342e-001
6.5451965e-002
-1.8745562e-001
-2.2420809e-001
8.6569712e-002
8.1268084e-001
1.8372043e+000
2.9225519e+000
3.9220800e+000
4.8148098e+000
5.7384338e+000
6.9352942e+000
8.6178303e+000
1.0934723e+001
1.3924934e+001
1.7495138e+001
2.1306715e+001
2.4889280e+001
2.8019484e+001
3.0767645e+001
3.3515114e+001
3.6821415e+001
4.1059612e+001
4.6286316e+001
5.1945122e+001
5.7147045e+001
6.1687515e+001
6.6013138e+001
7.0581291e+001
7.5642097e+001
8.0919960e+001
8.5761696e+001
8.9756889e+001
9.2809799e+001
9.4989471e+001
9.6457352e+001
9.7374374e+001
9.7867882e+001
9.7992241e+001
9.7723717e+001
9.6951836e+001
9.5549644e+001
9.3623055e+001
9.1459785e+001
8.9195213e+001
8.6770691e+001
8.4027939e+001
8.0790199e+001
7.7064995e+001
7.3017303e+001
6.8720314e+001
6.4139557e+001
5.9266720e+001
5.4162910e+001
4.9006573e+001
4.4058182e+001
3.9507572e+001
3.5451603e+001
3.1949642e+001
2.9029129e+001
2.6646114e+001
2.4696384e+001
2.3089174e+001
2.1765875e+001
2.0706348e+001
1.9923584e+001
1.9421001e+001
1.9183657e+001
1.9185177e+001
1.9393688e+001
1.9795143e+001
2.0391521e+001
2.1176474e+001
2.2143379e+001
2.3343105e+001
2.4883526e+001
2.6865572e+001
2.9342426e+001
3.2226299e+001
3.5296799e+001
3.8354240e+001
4.1262913e+001
4.3946960e+001
4.6418201e+001
4.8878750e+001
5.1632114e+001
5.4565899e+001
5.7125652e+001
5.8882214e+001
5.9698414e+001
5.9758144e+001
5.9475105e+001
5.8991158e+001
5.8097130e+001
5.6556461e+001
5.4250267e+001
5.1403599e+001
4.8556950e+001
4.6063774e+001
4.3972725e+001
4.2198593e+001
4.0573101e+001
3.8907001e+001
3.7024017e+001
3.4838451e+001
3.2387520e+001
2.9844427e+001
2.7471767e+001
2.5335239e+001
2.3247772e+001
2.0999731e+001
1.8462242e+001
1.5744480e+001
1.3190785e+001
1.1016887e+001
9.2139063e+000
7.6881142e+000
6.3138685e+000
5.0236669e+000
3.8266780e+000
2.7258356e+000
1.7056272e+000
7.9594100e-001
8.5763082e-002
-3.4006816e-001
-4.1209650e-001
-3.4278423e-002
8.9375067e-001
2.2986870e+000
3.8993201e+000
5.4537783e+000
6.8453302e+000
8.0731468e+000
9.2444468e+000
1.0449169e+001
1.1704828e+001
1.2913400e+001
1.3861181e+001
1.4398420e+001
1.4503247e+001
1.4230628e+001
1.3700178e+001
1.3026431e+001
1.2295790e+001
1.1563675e+001
1.0846128e+001
1.0114540e+001
9.3016157e+000
8.3895121e+000
7.4399037e+000
6.5454140e+000
5.8088078e+000
5.2903214e+000
4.9862475e+000
4.8692360e+000
4.8991604e+000
5.0398002e+000
5.2656922e+000
5.5608244e+000
5.9183583e+000
6.3281803e+000
6.7710862e+000
7.2171545e+000
7.6225505e+000
7.9343638e+000
8.0938120e+000
8.0577002e+000
7.8146491e+000
7.3966179e+000
6.8860335e+000
6.3570356e+000
5.8519802e+000
5.3903456e+000
4.9679914e+000
4.5751815e+000
4.1995258e+000
3.8159542e+000
3.3836973e+000
2.8753920e+000
2.2925127e+000
1.6597743e+000
1.0271680e+000
4.4304833e-001
-5.5370301e-002
-4.3381652e-001
-6.6030401e-001
-7.1174669e-001
-5.8053231e-001
-2.7596492e-001
1.7040241e-001
7.1622372e-001
1.3129500e+000
1.9284519e+000
2.5550592e+000
3.1669936e+000
3.6992352e+000
4.0718083e+000
4.2053785e+000
4.0798979e+000
3.7723060e+000
3.3773131e+000
2.9798608e+000
2.6459126e+000
2.4092448e+000
2.2748013e+000
2.2104883e+000
2.1693900e+000
2.0973282e+000
1.9599068e+000
1.7606888e+000
1.5213286e+000
1.2790657e+000
1.0707582e+000
9.2525262e-001
8.6537910e-001
9.0577847e-001
1.0556142e+000
1.3171405e+000
1.6878260e+000
2.1580799e+000
2.7055960e+000
3.2882414e+000
3.8573065e+000
4.3622632e+000
4.7663236e+000
5.0601006e+000
5.2521000e+000
5.3726788e+000
5.4594479e+000
5.5542049e+000
5.6953235e+000
5.9127669e+000
6.2301006e+000
6.6622057e+000
7.2152820e+000
7.8825011e+000
8.6505804e+000
9.5008354e+000
1.0419911e+001
1.1405960e+001
1.2452046e+001
1.3535250e+001
1.4613514e+001
1.5621384e+001
1.6492338e+001
1.7174318e+001
1.7623686e+001
1.7806826e+001
1.7689920e+001
1.7238989e+001
1.6441238e+001
1.5329386e+001
1.3970852e+001
1.2477195e+001
1.0970077e+001
9.5696554e+000
8.3793993e+000
7.4658141e+000
6.8710766e+000
6.6011891e+000
6.6257739e+000
6.8555655e+000
7.1714401e+000
7.4247074e+000
7.4866295e+000
7.2896156e+000
6.8144569e+000
6.1144686e+000
5.2655602e+000
4.3543520e+000
3.4606786e+000
2.6433072e+000
1.9460429e+000
1.3902293e+000
9.8224568e-001
7.0744747e-001
5.4633796e-001
4.7921741e-001
4.8825300e-001
5.5943584e-001
6.7840195e-001
8.2821172e-001
9.9318838e-001
1.1615460e+000
1.3200926e+000
1.4504850e+000
1.5324442e+000
1.5446984e+000
1.4745057e+000
1.3284413e+000
1.1224006e+000
8.8241106e-001
6.3549078e-001
4.0461385e-001
2.0616232e-001
4.3967575e-002
-7.5794369e-002
-1.3628401e-001
-1.3515957e-001
-1.0975491e-001
-9.9433824e-002
-1.2369757e-001
-1.8011986e-001
-2.2584410e-001
-2.1919321e-001
-1.4625524e-001
-1.2657061e-002
1.4579228e-001
2.9956284e-001
4.5197654e-001
6.0926604e-001
7.6492798e-001
9.0690190e-001
1.0186892e+000
1.1002917e+000
1.1953185e+000
1.3498714e+000
1.5886863e+000
1.9165361e+000
2.3022003e+000
2.7135034e+000
3.1380436e+000
3.5659194e+000
3.9801233e+000
4.3534126e+000
4.6375990e+000
4.7919741e+000
4.8104882e+000
4.7073498e+000
4.5282106e+000
4.3216338e+000
4.1233845e+000
3.9565439e+000
3.8179595e+000
3.7002685e+000
3.6015999e+000
3.5219600e+000
3.4622650e+000
3.4152365e+000
3.3510890e+000
3.2485480e+000
3.1259820e+000
3.0208244e+000
2.9949901e+000
3.0997148e+000
3.3366351e+000
3.6800401e+000
4.0591369e+000
4.3924317e+000
4.6013827e+000
4.6277189e+000
4.4732614e+000
4.1642809e+000
3.7561162e+000
3.3107939e+000
2.8888950e+000
2.5459542e+000
2.3214028e+000
2.2250669e+000
2.1878853e+000
2.1211162e+000
1.9382329e+000
1.5917345e+000
1.1546054e+000
7.2236300e-001
3.6810157e-001
1.3278100e-001
-2.6351586e-002
-1.6435988e-001
-3.0896437e-001
-4.6591538e-001
-5.9262222e-001
-6.4675331e-001
-6.2592220e-001
-5.4414099e-001
-4.3662870e-001
-3.3832055e-001
-2.6593012e-001
-2.3050548e-001
-2.3905206e-001
-2.9132664e-001
-3.6604798e-001
-4.3612689e-001
-4.7273043e-001
-4.5460355e-001
-3.8808218e-001
-2.8871685e-001
-1.8040508e-001
-8.6440481e-002
-2.0748500e-002
8.9737512e-003
9.0913074e-003
-3.3486765e-003
1.4215872e-002
1.0627204e-001
3.0111682e-001
6.1178398e-001
1.0101908e+000
1.4522901e+000
1.8732033e+000
2.2121325e+000
2.4426050e+000
2.5576658e+000
2.5901031e+000
2.5792251e+000
2.5515633e+000
2.5236742e+000
2.4867353e+000
2.4353092e+000
2.4017279e+000
2.4252386e+000
2.5353141e+000
2.7474229e+000
3.0311632e+000
3.3488450e+000
3.6791663e+000
4.0050998e+000
