Image.
>Pix99999.
  .
5555
5555
2300
900
5555
2
1
0
701
5555
3.5613999e-002
3.6354937e-002
3.7095882e-002
3.7836820e-002
3.8577762e-002
3.9318699e-002
4.0059641e-002
4.0800579e-002
4.1541521e-002
4.2282458e-002
4.3022413e-002
4.3763340e-002
4.4504281e-002
4.5245219e-002
4.5986157e-002
4.6727102e-002
4.7468040e-002
4.8208982e-002
4.8949920e-002
4.9690861e-002
5.0431799e-002
5.1172741e-002
5.1913679e-002
5.2654620e-002
5.3395558e-002
5.4136500e-002
3.5109982e-002
1.3258929e-003
-5.5775043e-002
-1.5813647e-001
-2.6704702e-001
-3.6172006e-001
-4.5220512e-001
-4.7167146e-001
-4.8141149e-001
-4.4078249e-001
-3.9955783e-001
-3.6740610e-001
-3.4523636e-001
-3.5204864e-001
-3.5965741e-001
-3.6544672e-001
-3.6913580e-001
-3.6958465e-001
-3.8223270e-001
-4.1032800e-001
-4.5116904e-001
-5.0332344e-001
-5.6426531e-001
-6.3122785e-001
-7.0017934e-001
-7.7005708e-001
-8.1371599e-001
-8.4586030e-001
-8.4227836e-001
-8.2733202e-001
-8.0706525e-001
-7.8573424e-001
-7.6536280e-001
-7.4499023e-001
-7.1211118e-001
-6.8207812e-001
-6.9764566e-001
-7.3072314e-001
-8.3941418e-001
-9.5027930e-001
-1.0422897e+000
-1.0995409e+000
-1.0726486e+000
-1.0164664e+000
-9.2103297e-001
-8.3914834e-001
-7.8283548e-001
-7.6828116e-001
-7.9777879e-001
-8.4557754e-001
-9.0548003e-001
-9.4845086e-001
-9.7876185e-001
-9.9850082e-001
-1.0131772e+000
-1.0256767e+000
-1.0375177e+000
-1.0376661e+000
-1.0341560e+000
-1.0258807e+000
-1.0165550e+000
-1.0231938e+000
-1.0329554e+000
-1.0510461e+000
-1.0680529e+000
-1.0668941e+000
-1.0606675e+000
-1.0434977e+000
-1.0296592e+000
-1.0305793e+000
-1.0388520e+000
-1.0587069e+000
-1.0640219e+000
-1.0419054e+000
-9.8780000e-001
-8.9720863e-001
-8.2381487e-001
-7.7375484e-001
-7.7431154e-001
-8.1386000e-001
-8.4464157e-001
-8.6605078e-001
-8.7588036e-001
-8.8030988e-001
-9.2989528e-001
-9.9849373e-001
-1.0698440e+000
-1.1413417e+000
-1.1496352e+000
-1.1418964e+000
-1.0970337e+000
-1.0468404e+000
-1.0149705e+000
-9.9445492e-001
-1.0165595e+000
-1.0539759e+000
-1.1164358e+000
-1.1776571e+000
-1.2234182e+000
-1.2542465e+000
-1.2622520e+000
-1.2654376e+000
-1.2677977e+000
-1.2788043e+000
-1.2999287e+000
-1.3278542e+000
-1.3605640e+000
-1.3903090e+000
-1.4173080e+000
-1.4332964e+000
-1.4427485e+000
-1.4402981e+000
-1.4323151e+000
-1.4377327e+000
-1.4489400e+000
-1.4905897e+000
-1.5419514e+000
-1.5860791e+000
-1.6259154e+000
-1.6327314e+000
-1.6283637e+000
-1.6054959e+000
-1.5735983e+000
-1.5244879e+000
-1.4634429e+000
-1.3800201e+000
-1.3003634e+000
-1.2403870e+000
-1.2137920e+000
-1.2355486e+000
-1.2749959e+000
-1.3230633e+000
-1.3565995e+000
-1.3720651e+000
-1.3617400e+000
-1.3314891e+000
-1.2711066e+000
-1.1910901e+000
-1.1214457e+000
-1.0606250e+000
-1.0523977e+000
-1.0706469e+000
-1.0995120e+000
-1.1314260e+000
-1.1396543e+000
-1.1385909e+000
-1.1195692e+000
-1.0930976e+000
-1.0542388e+000
-1.0130750e+000
-9.7961944e-001
-9.5273292e-001
-9.3605626e-001
-9.1895700e-001
-8.9152628e-001
-8.5794467e-001
-8.1980920e-001
-7.9024637e-001
-7.7818364e-001
-7.7519435e-001
-7.7871108e-001
-7.6281261e-001
-7.2325653e-001
-6.5919811e-001
-5.7661968e-001
-4.9356335e-001
-4.1337702e-001
-3.5416308e-001
-3.0860692e-001
-3.0096906e-001
-3.1267521e-001
-3.4062779e-001
-3.7465516e-001
-3.7567839e-001
-3.6125144e-001
-3.1969163e-001
-2.7170259e-001
-2.4934980e-001
-2.4467674e-001
-2.7120921e-001
-3.0853787e-001
-3.4275481e-001
-3.6902201e-001
-3.8064748e-001
-3.6511600e-001
-3.1151125e-001
-2.0431679e-001
-3.6954444e-002
1.3016854e-001
2.7686235e-001
3.3564895e-001
3.1079829e-001
2.4296160e-001
1.5477449e-001
6.9067314e-002
-1.2481533e-002
-8.4901735e-002
-1.5296395e-001
-1.8835241e-001
-2.0653571e-001
-1.8249209e-001
-1.3867560e-001
-8.6500868e-002
-3.1647183e-002
5.9852423e-003
3.9363019e-002
8.3591476e-002
1.3868813e-001
2.1794775e-001
2.9371279e-001
3.3834961e-001
3.4650216e-001
3.0396521e-001
2.4083900e-001
1.7295200e-001
1.1750408e-001
8.0970906e-002
6.8045869e-002
7.7079423e-002
1.1643025e-001
1.8103933e-001
2.4639641e-001
3.0498719e-001
3.3937094e-001
3.5509288e-001
3.8606289e-001
4.3192241e-001
4.9588272e-001
5.7219750e-001
6.3417482e-001
6.8683225e-001
7.1410030e-001
7.2477907e-001
7.1282458e-001
6.8824202e-001
6.6064572e-001
6.2156039e-001
5.5904227e-001
4.6982732e-001
3.4734917e-001
2.2040561e-001
1.1029786e-001
2.7099775e-002
-4.1410483e-002
-7.2704718e-002
-5.4777734e-002
3.9717395e-002
2.0480640e-001
3.5443038e-001
4.6553856e-001
4.3514532e-001
2.8295091e-001
1.2715164e-001
-1.1238821e-002
-8.7481979e-003
9.7704425e-002
1.8031918e-001
2.3455317e-001
1.5153509e-001
-1.1740014e-002
-1.1567189e-001
-1.4227900e-001
-4.1428134e-002
1.1413923e-001
4.1364530e-001
7.8235006e-001
1.0532655e+000
1.2718282e+000
1.4827600e+000
1.8454471e+000
2.4972794e+000
3.6411266e+000
5.3737230e+000
7.8501811e+000
1.1051314e+001
1.4372971e+001
1.7523415e+001
2.0367064e+001
2.2919668e+001
2.5930115e+001
2.9473614e+001
3.3750069e+001
3.8615761e+001
4.2956463e+001
4.6791386e+001
5.0496132e+001
5.4169945e+001
5.8457390e+001
6.3207699e+001
6.7978149e+001
7.2677628e+001
7.6996864e+001
8.0901703e+001
8.4279701e+001
8.7162224e+001
8.9602646e+001
9.1734062e+001
9.3746834e+001
9.5296333e+001
9.6110535e+001
9.6167442e+001
9.5544434e+001
9.4309853e+001
9.2585533e+001
9.0038574e+001
8.6642090e+001
8.2831390e+001
7.8817307e+001
7.4893486e+001
7.1115387e+001
6.7152321e+001
6.2978001e+001
5.8726597e+001
5.4427944e+001
5.0288345e+001
4.6345882e+001
4.2838043e+001
3.9771507e+001
3.7091599e+001
3.4766731e+001
3.2638641e+001
3.0742739e+001
2.9114851e+001
2.7779753e+001
2.6730999e+001
2.5942501e+001
2.5342924e+001
2.4896193e+001
2.4546738e+001
2.4297878e+001
2.4139555e+001
2.4075529e+001
2.4098429e+001
2.4251631e+001
2.4546286e+001
2.5015772e+001
2.5667206e+001
2.6428364e+001
2.7281639e+001
2.8164671e+001
2.9071585e+001
3.0155107e+001
3.1504972e+001
3.3729752e+001
3.6893898e+001
4.0492638e+001
4.4334438e+001
4.7440849e+001
4.9848717e+001
5.1988071e+001
5.3925961e+001
5.5884937e+001
5.7688519e+001
5.9095070e+001
5.9844112e+001
5.9701279e+001
5.8944424e+001
5.7909515e+001
5.6704456e+001
5.5423351e+001
5.3971867e+001
5.2294605e+001
5.0375294e+001
4.8202686e+001
4.6038429e+001
4.3966866e+001
4.1887081e+001
3.9768158e+001
3.7099957e+001
3.3725800e+001
3.0363050e+001
2.7093052e+001
2.4348801e+001
2.2181900e+001
2.0008142e+001
1.7800919e+001
1.5491732e+001
1.3065833e+001
1.0564921e+001
8.0612288e+000
5.7213459e+000
3.6890543e+000
2.1212792e+000
1.0343940e+000
3.8212329e-001
2.2273320e-001
6.4486217e-001
1.3577710e+000
2.0873556e+000
2.7407494e+000
3.2390521e+000
3.6987333e+000
4.1609530e+000
4.6446648e+000
5.1650200e+000
5.6133728e+000
5.9462399e+000
6.1364613e+000
6.1204276e+000
6.0266213e+000
5.8272400e+000
5.6141911e+000
5.3776937e+000
5.1159058e+000
4.7978516e+000
4.3805995e+000
3.8549137e+000
3.2850697e+000
2.7093120e+000
2.2113929e+000
1.8136418e+000
1.5290810e+000
1.3587641e+000
1.3040795e+000
1.3523457e+000
1.5028050e+000
1.7248611e+000
2.0013971e+000
2.3084395e+000
2.6391349e+000
2.9869998e+000
3.3613946e+000
3.7510960e+000
4.1637826e+000
4.5737500e+000
4.9743910e+000
5.3195000e+000
5.5681458e+000
5.7105241e+000
5.6833153e+000
5.5449090e+000
5.2553897e+000
4.9159513e+000
4.5189333e+000
4.1166201e+000
3.7120771e+000
3.3276160e+000
2.9735086e+000
2.6602888e+000
2.3625185e+000
2.0218172e+000
1.6279473e+000
1.1627508e+000
7.0256376e-001
3.3823970e-001
8.7044820e-002
1.5319097e-002
3.8920775e-002
1.4523837e-001
2.4550858e-001
3.9528361e-001
5.6096834e-001
7.4797708e-001
9.2162931e-001
1.0662915e+000
1.1806810e+000
1.2508473e+000
1.3278559e+000
1.4239399e+000
1.5615736e+000
1.7620003e+000
2.0158634e+000
2.3352714e+000
2.6882596e+000
3.0655100e+000
3.4197664e+000
3.7379634e+000
3.9927263e+000
4.1880245e+000
4.3222127e+000
4.4064398e+000
4.4390130e+000
4.4325681e+000
4.3800883e+000
4.3060856e+000
4.2159920e+000
4.1315002e+000
4.0728087e+000
4.0249081e+000
3.9963555e+000
3.9667108e+000
3.9323533e+000
3.9015188e+000
3.8800159e+000
3.8686016e+000
3.8769500e+000
3.9000933e+000
3.9499164e+000
4.0237722e+000
4.1325836e+000
4.2537484e+000
4.3896589e+000
4.5259938e+000
4.6656199e+000
4.8166170e+000
4.9783087e+000
5.1474204e+000
5.3180122e+000
5.4776702e+000
5.6228251e+000
5.7376776e+000
5.8235049e+000
5.8515220e+000
5.8446770e+000
5.7751527e+000
5.6778789e+000
5.5272360e+000
5.3471913e+000
5.0880489e+000
4.7900724e+000
4.3854651e+000
3.9496152e+000
3.4426594e+000
2.9414392e+000
2.4577258e+000
2.0135860e+000
1.6397643e+000
1.3090887e+000
1.0397174e+000
7.9522729e-001
5.7779360e-001
3.6050636e-001
1.4581811e-001
-5.7616860e-002
-2.4265000e-001
-3.8233551e-001
-4.8578334e-001
-5.4485071e-001
-5.7874501e-001
-5.8895993e-001
-5.8232647e-001
-5.3826416e-001
-4.6284640e-001
-2.9480740e-001
-8.7438002e-002
2.2776192e-001
5.5567825e-001
9.0779090e-001
1.2381994e+000
1.4999850e+000
1.7237217e+000
1.8502330e+000
1.9295937e+000
1.9116786e+000
1.8517185e+000
1.7219994e+000
1.5675155e+000
1.3773903e+000
1.1640464e+000
9.2527819e-001
6.7767024e-001
4.2996129e-001
2.2076839e-001
4.9497362e-002
-5.6493178e-002
-1.1645642e-001
-4.9269076e-002
7.8774020e-002
2.7065533e-001
4.7371721e-001
6.4359438e-001
7.9401493e-001
8.7283599e-001
9.4154495e-001
9.9175072e-001
1.0483735e+000
1.1325748e+000
1.2133152e+000
1.2818463e+000
1.3361150e+000
1.3551611e+000
1.3655171e+000
1.3588263e+000
1.3466566e+000
1.3263143e+000
1.3062139e+000
1.2902240e+000
1.3009717e+000
1.3438143e+000
1.4315300e+000
1.5540960e+000
1.6832700e+000
1.8060782e+000
1.8581650e+000
1.8636186e+000
1.7624214e+000
1.6209326e+000
1.4380248e+000
1.2545533e+000
1.1317114e+000
1.0305121e+000
1.0314893e+000
1.0481157e+000
1.1331464e+000
1.2121342e+000
1.2629629e+000
1.2891390e+000
1.2371279e+000
1.1807582e+000
1.1154071e+000
1.0633929e+000
1.0348476e+000
9.9515545e-001
9.3848658e-001
8.7271798e-001
7.9551470e-001
7.0727575e-001
6.0553181e-001
4.6687016e-001
3.0518949e-001
1.6683018e-001
4.9198031e-002
2.0858187e-002
2.8654503e-002
5.5119544e-002
8.1135020e-002
4.7026839e-002
3.2082684e-003
-3.4968041e-002
-6.9214977e-002
-6.2854648e-002
-6.2909395e-002
-1.0904972e-001
-1.6270941e-001
-2.4870357e-001
-3.2652777e-001
-3.7847775e-001
-4.2206568e-001
-4.4611612e-001
-4.6334258e-001
-4.6905372e-001
-4.7606796e-001
-4.8563641e-001
-5.0625193e-001
-5.3741944e-001
-5.5567408e-001
-5.6208766e-001
-5.4069299e-001
-5.0244296e-001
-4.6146750e-001
-4.1892913e-001
-3.6945376e-001
-3.1620246e-001
-2.3272808e-001
-1.4346609e-001
-7.0998244e-002
-3.1194082e-003
2.4944765e-003
5.1863175e-003
1.7093893e-003
4.9035437e-004
1.5924223e-002
6.8657815e-002
2.2702840e-001
3.8614225e-001
5.4632246e-001
6.6785288e-001
7.0681429e-001
7.3026007e-001
7.2896242e-001
7.2815382e-001
7.2640091e-001
6.4723009e-001
4.9507493e-001
2.6134503e-001
-2.8786168e-002
-2.4183634e-001
-4.1304529e-001
-4.3805900e-001
-4.0761194e-001
-3.7152722e-001
-3.3467942e-001
-3.7651625e-001
-4.3116188e-001
-5.0937003e-001
