Image.
>Pix99999.
  .
5555
5555
2300
900
5555
2
1
0
701
5555
3.5618000e-002
3.6359940e-002
3.7100881e-002
3.7841819e-002
3.8582761e-002
3.9323699e-002
4.0064640e-002
4.0805578e-002
4.1546520e-002
4.2287458e-002
4.3028403e-002
4.3769341e-002
4.4510283e-002
4.5251220e-002
4.5992158e-002
4.6733100e-002
4.7474038e-002
4.8214979e-002
4.8955917e-002
4.9696863e-002
5.0437801e-002
5.1179711e-002
5.1920678e-002
5.2661620e-002
5.3402562e-002
5.4143500e-002
7.8500239e-003
5.9293690e-003
4.5302242e-002
9.1331564e-002
1.3814956e-001
1.3801920e-001
1.3353983e-001
1.0732653e-001
8.0811925e-002
6.0457502e-002
4.2841665e-002
3.6458936e-002
3.4007173e-002
4.1783895e-002
5.4684401e-002
7.7506967e-002
1.0535040e-001
1.4042498e-001
1.7116474e-001
1.9596757e-001
2.1559975e-001
2.3060165e-001
2.4641834e-001
2.6305962e-001
2.5037572e-001
2.2076327e-001
1.4560150e-001
5.0968662e-002
-2.4699712e-002
-9.3792856e-002
-8.4446639e-002
-5.7158325e-002
1.1146434e-002
8.5025698e-002
1.2594946e-001
1.6079399e-001
1.6121243e-001
1.5921280e-001
1.6219273e-001
1.6632000e-001
1.7294131e-001
1.7106704e-001
1.4678399e-001
1.2261980e-001
1.0293500e-001
1.0272627e-001
1.3005857e-001
1.5146048e-001
1.6296211e-001
1.4556107e-001
1.0352969e-001
5.4190788e-002
1.6003801e-003
-5.3088099e-002
-1.0875760e-001
-1.5631233e-001
-2.0051923e-001
-1.9654721e-001
-1.7731521e-001
-1.2169764e-001
-5.7833932e-002
-6.8072244e-003
4.0591307e-002
5.9195649e-002
6.9304757e-002
4.6247520e-002
1.5366834e-002
-2.9209213e-002
-7.0156775e-002
-9.4027154e-002
-1.0971741e-001
-1.1280094e-001
-1.0504939e-001
-8.2167789e-002
-4.3038715e-002
1.4586267e-002
5.2945007e-002
6.8564489e-002
3.4297496e-002
-3.8759001e-002
-1.2576586e-001
-2.1853340e-001
-2.8968200e-001
-3.4890881e-001
-3.7277114e-001
-3.8246495e-001
-3.5151398e-001
-3.0782714e-001
-2.6367363e-001
-2.2006957e-001
-2.1306017e-001
-2.1422268e-001
-2.2982311e-001
-2.4944870e-001
-2.7564886e-001
-3.0624303e-001
-3.4676763e-001
-3.8408509e-001
-4.0675256e-001
-4.1706142e-001
-4.0824899e-001
-3.9767331e-001
-3.9122948e-001
-3.9296526e-001
-4.0501443e-001
-4.1602492e-001
-4.2398080e-001
-4.3229741e-001
-4.4051793e-001
-4.5175764e-001
-4.6436703e-001
-4.4704849e-001
-4.1369647e-001
-3.6337280e-001
-3.0735999e-001
-2.8675261e-001
-2.7920467e-001
-2.8203365e-001
-2.8630891e-001
-2.6528886e-001
-2.3887622e-001
-2.1699591e-001
-2.0625834e-001
-2.3472118e-001
-2.7989501e-001
-3.4312537e-001
-3.9294508e-001
-4.0627334e-001
-3.7884679e-001
-3.0086759e-001
-2.0681503e-001
-1.0692282e-001
-3.3096984e-002
1.1915242e-002
3.2570630e-002
3.7688851e-002
3.8046185e-002
3.8085483e-002
1.8006703e-002
-1.4988008e-002
-6.2905818e-002
-1.1893553e-001
-1.3443120e-001
-1.3219328e-001
-9.7834289e-002
-5.3826656e-002
-3.7008051e-002
-3.3423390e-002
-5.4409150e-002
-8.1216499e-002
-1.0055812e-001
-1.0709890e-001
-9.1663830e-002
-6.9997445e-002
-5.3262830e-002
-5.4291584e-002
-8.2717225e-002
-1.3787033e-001
-2.1764120e-001
-2.9860064e-001
-3.6884728e-001
-3.8199970e-001
-3.3949092e-001
-2.5432780e-001
-1.4824900e-001
-6.6428922e-002
-6.1300276e-003
2.9477097e-002
5.3445801e-002
5.2191190e-002
3.7198558e-002
1.2437594e-002
-1.7709527e-002
-1.0468569e-002
1.2623571e-002
6.1124206e-002
1.1665633e-001
1.4519390e-001
1.5572596e-001
1.2469964e-001
7.5969860e-002
1.8566916e-002
-4.0175200e-002
-9.0545185e-002
-1.3885200e-001
-1.7962261e-001
-2.1409091e-001
-2.3747206e-001
-2.4133906e-001
-2.3596257e-001
-2.2056012e-001
-2.0715560e-001
-2.0344129e-001
-2.0401898e-001
-2.2871657e-001
-2.6682031e-001
-3.3798254e-001
-4.2537564e-001
-5.1638001e-001
-6.0311568e-001
-6.3779789e-001
-6.4022720e-001
-5.9131044e-001
-5.2166742e-001
-4.5050827e-001
-3.8446319e-001
-3.2032987e-001
-2.5092912e-001
-1.6821745e-001
-8.3857201e-002
-3.1996123e-002
-2.1159545e-002
-6.7513920e-002
-1.4015329e-001
-2.0841657e-001
-2.5968322e-001
-2.8357548e-001
-2.8326705e-001
-2.6744249e-001
-2.3043750e-001
-1.7725414e-001
-1.5427728e-001
-1.5835646e-001
-2.1454269e-001
-3.0627784e-001
-3.3109483e-001
-3.0991921e-001
-1.9208670e-001
-2.4165735e-002
1.0525832e-001
2.0188376e-001
2.3419981e-001
2.2504421e-001
1.9716699e-001
1.6262715e-001
1.4427130e-001
1.4378466e-001
1.4713696e-001
1.5256457e-001
1.4428072e-001
1.1596061e-001
7.5478628e-002
2.2468738e-002
-1.1309440e-001
-2.7005473e-001
-3.8485256e-001
-4.2660737e-001
-3.9050370e-001
-3.2972306e-001
-2.7272391e-001
-2.7816078e-001
-3.5347447e-001
-4.4339141e-001
-5.2968931e-001
-5.1136202e-001
-4.0533316e-001
-2.5599909e-001
-9.0358563e-002
-4.0074773e-002
-7.5663671e-002
-1.0617181e-001
-1.1362000e-001
-1.3721298e-002
1.7328376e-001
5.3404915e-001
1.0134194e+000
1.4649206e+000
1.8712804e+000
2.2332599e+000
2.6878242e+000
3.3814971e+000
4.5846653e+000
6.4349203e+000
9.2116194e+000
1.2895714e+001
1.6756050e+001
2.0437208e+001
2.3727816e+001
2.6663509e+001
3.0085272e+001
3.4087536e+001
3.8894329e+001
4.4330399e+001
4.9081215e+001
5.3181671e+001
5.7114388e+001
6.1006657e+001
6.5572411e+001
7.0633781e+001
7.5593498e+001
8.0356926e+001
8.4612991e+001
8.8385674e+001
9.1709244e+001
9.4594940e+001
9.7078789e+001
9.9042023e+001
1.0036319e+002
1.0072868e+002
9.9881790e+001
9.8211006e+001
9.6140335e+001
9.3637413e+001
9.0767181e+001
8.7198143e+001
8.2875183e+001
7.8409653e+001
7.4024200e+001
6.9848480e+001
6.5892960e+001
6.1755558e+001
5.7402325e+001
5.3116692e+001
4.8926376e+001
4.5001141e+001
4.1358738e+001
3.8134109e+001
3.5334171e+001
3.2935135e+001
3.0914970e+001
2.9131788e+001
2.7607315e+001
2.6341875e+001
2.5353233e+001
2.4627499e+001
2.4151552e+001
2.3868515e+001
2.3739830e+001
2.3703472e+001
2.3729656e+001
2.3794296e+001
2.3898230e+001
2.4045568e+001
2.4307859e+001
2.4708658e+001
2.5314743e+001
2.6126463e+001
2.7071463e+001
2.8126760e+001
2.9180065e+001
3.0222706e+001
3.1421583e+001
3.2872925e+001
3.5232498e+001
3.8586487e+001
4.2359028e+001
4.6315140e+001
4.9415127e+001
5.1681614e+001
5.3640858e+001
5.5342270e+001
5.6973747e+001
5.8358559e+001
5.9185696e+001
5.9305885e+001
5.8646801e+001
5.7453705e+001
5.6096134e+001
5.4615932e+001
5.3052101e+001
5.1310875e+001
4.9318439e+001
4.7113297e+001
4.4669289e+001
4.2308998e+001
4.0150928e+001
3.8044479e+001
3.5996876e+001
3.3430286e+001
3.0189720e+001
2.6929726e+001
2.3698769e+001
2.0984585e+001
1.8838779e+001
1.6698572e+001
1.4550829e+001
1.2322857e+001
1.0038659e+001
7.7869635e+000
5.6566706e+000
3.7952080e+000
2.2690878e+000
1.1374056e+000
4.0394258e-001
7.8137010e-002
2.9688382e-001
1.0072596e+000
1.9370999e+000
2.9290359e+000
3.7862413e+000
4.3952246e+000
4.8752866e+000
5.2598248e+000
5.6239090e+000
5.9745998e+000
6.2861271e+000
6.5161924e+000
6.6636429e+000
6.6826839e+000
6.6476073e+000
6.5380235e+000
6.3904710e+000
6.1875591e+000
5.9043159e+000
5.5108929e+000
4.9738059e+000
4.3066125e+000
3.6343577e+000
2.9980359e+000
2.5089443e+000
2.1690211e+000
1.9564213e+000
1.8612795e+000
1.8423978e+000
1.9018028e+000
2.0409009e+000
2.2300053e+000
2.4850543e+000
2.7728565e+000
3.0935557e+000
3.4366789e+000
3.7947805e+000
4.1630840e+000
4.5390782e+000
4.9346857e+000
5.3559194e+000
5.7615199e+000
6.1085906e+000
6.3413944e+000
6.3805251e+000
6.2725449e+000
5.9585633e+000
5.5454535e+000
5.0192184e+000
4.4592485e+000
3.8975646e+000
3.4008160e+000
2.9864600e+000
2.6642516e+000
2.3731887e+000
2.0154927e+000
1.5910664e+000
1.0826783e+000
5.9438080e-001
2.4903303e-001
2.7293524e-002
-9.6072229e-003
3.7863597e-002
1.5151234e-001
2.7337608e-001
4.2685318e-001
5.9944731e-001
8.1047869e-001
1.0361693e+000
1.2822428e+000
1.5306437e+000
1.7565978e+000
1.9743119e+000
2.1793423e+000
2.3990536e+000
2.6570625e+000
2.9496441e+000
3.2949960e+000
3.6585281e+000
4.0392098e+000
4.4066105e+000
4.7472234e+000
5.0549679e+000
5.3138771e+000
5.5141292e+000
5.6542158e+000
5.7143259e+000
5.7284765e+000
5.7009888e+000
5.6706429e+000
5.6617889e+000
5.6678348e+000
5.6972404e+000
5.7272840e+000
5.7478337e+000
5.7636709e+000
5.7654514e+000
5.7670646e+000
5.7679090e+000
5.7756500e+000
5.8029499e+000
5.8507376e+000
5.9391365e+000
6.0558619e+000
6.2115092e+000
6.3834543e+000
6.5673375e+000
6.7391820e+000
6.8955154e+000
7.0356369e+000
7.1626177e+000
7.2875042e+000
7.4056444e+000
7.5059829e+000
7.5903749e+000
7.6460843e+000
7.6871977e+000
7.7127109e+000
7.7218776e+000
7.6927872e+000
7.6294856e+000
7.4797640e+000
7.2864981e+000
6.9805183e+000
6.6326194e+000
6.1727839e+000
5.6859889e+000
5.1373787e+000
4.5977030e+000
4.0795116e+000
3.5929523e+000
3.1632602e+000
2.7675962e+000
2.4230292e+000
2.1120079e+000
1.8406160e+000
1.5886357e+000
1.3558171e+000
1.1314031e+000
9.1770285e-001
7.2267741e-001
5.4933643e-001
4.2276108e-001
3.3372322e-001
3.1468338e-001
3.3238125e-001
4.0674245e-001
5.1099443e-001
6.8619621e-001
8.9735997e-001
1.2159145e+000
1.5471646e+000
1.8999236e+000
2.2194321e+000
2.4322937e+000
2.5946825e+000
2.6296542e+000
2.6132200e+000
2.4914286e+000
2.3261356e+000
2.0904260e+000
1.8391640e+000
1.5680704e+000
1.2935520e+000
1.0151535e+000
7.3557144e-001
4.6315274e-001
2.3678714e-001
5.7467192e-002
-3.2933060e-002
-6.2312819e-002
1.1833757e-002
1.4026980e-001
3.4675628e-001
5.7982934e-001
8.4183079e-001
1.0960517e+000
1.2820001e+000
1.4411286e+000
1.4902714e+000
1.5274682e+000
1.5231451e+000
1.5235081e+000
1.5395103e+000
1.5644751e+000
1.6092446e+000
1.6397561e+000
1.6381743e+000
1.5998082e+000
1.5074571e+000
1.4278497e+000
1.3737980e+000
1.3962890e+000
1.4969480e+000
1.6325400e+000
1.7880206e+000
1.8962349e+000
1.9687577e+000
1.9835830e+000
1.9662700e+000
1.9032320e+000
1.8214868e+000
1.7149303e+000
1.6065240e+000
1.5259258e+000
1.4542840e+000
1.4228615e+000
1.3966206e+000
1.3910718e+000
1.3895943e+000
1.4052606e+000
1.4208606e+000
1.4355600e+000
1.4379795e+000
1.4095643e+000
1.3645234e+000
1.2880032e+000
1.2090423e+000
1.1281824e+000
1.0698400e+000
1.0399973e+000
1.0375663e+000
1.0576235e+000
1.0552500e+000
1.0326214e+000
9.5692164e-001
8.5411972e-001
7.5883788e-001
6.6862667e-001
6.0509312e-001
5.4491210e-001
4.4253218e-001
3.3105388e-001
1.9604409e-001
6.5133847e-002
4.5480952e-003
-4.4806272e-002
-2.1497315e-002
1.2969665e-002
9.6827216e-002
1.9159281e-001
3.1898564e-001
4.3883085e-001
5.3927511e-001
6.0692149e-001
6.1603153e-001
5.8337533e-001
4.9528599e-001
4.0058097e-001
3.0086172e-001
2.3648866e-001
2.0031525e-001
1.6838872e-001
1.3936909e-001
1.0863890e-001
7.9263367e-002
8.9653388e-002
1.1210920e-001
1.2641561e-001
1.3618998e-001
8.9290291e-002
3.5630554e-002
-1.4174603e-002
-5.8031507e-002
-1.9125644e-002
9.3911961e-004
2.9442340e-002
9.2200793e-002
1.6757821e-001
2.3690629e-001
2.8886473e-001
3.4130597e-001
3.9451927e-001
4.3855521e-001
4.6814966e-001
5.0226921e-001
5.4295599e-001
6.2568545e-001
7.4652267e-001
8.2698071e-001
8.7737918e-001
8.2152981e-001
7.1071631e-001
6.1655003e-001
5.3083807e-001
5.1390326e-001
5.1644206e-001
5.7052964e-001
6.3339639e-001
7.5665998e-001
