Image.
>Pix99999.
  .
5555
5555
2300
900
5555
2
1
0
701
5555
1.4695001e-001
1.5000564e-001
1.5306126e-001
1.5611689e-001
1.5917252e-001
1.6223806e-001
1.6529377e-001
1.6834940e-001
1.7140503e-001
1.7446066e-001
1.7751628e-001
1.8058175e-001
1.8363754e-001
1.8667354e-001
1.8974839e-001
1.9285336e-001
1.9586121e-001
1.9874005e-001
2.0196669e-001
2.0569821e-001
2.0811200e-001
2.0866500e-001
2.1412338e-001
2.2650534e-001
2.2064286e-001
1.7209001e-001
8.9672267e-002
-4.6205586e-003
-7.3415950e-002
-8.5477032e-002
-5.1443957e-002
7.4399011e-003
7.5414039e-002
1.3921809e-001
1.8878292e-001
2.1747500e-001
2.2886743e-001
2.2806506e-001
2.1438117e-001
1.8573414e-001
1.4135028e-001
8.4061123e-002
2.9544560e-002
-7.2981147e-003
-3.0440198e-002
-5.0257053e-002
-7.9615973e-002
-1.2723483e-001
-1.8223292e-001
-2.2879210e-001
-2.5559571e-001
-2.5642723e-001
-2.3954828e-001
-2.1870680e-001
-2.1150826e-001
-2.3350443e-001
-2.8735399e-001
-3.6903000e-001
-4.6431926e-001
-5.5587810e-001
-6.2684774e-001
-6.6386276e-001
-6.6713077e-001
-6.4613903e-001
-6.3012248e-001
-6.4962053e-001
-7.1414560e-001
-8.1795019e-001
-9.2207491e-001
-9.8204607e-001
-9.7602499e-001
-8.9908129e-001
-7.8272134e-001
-6.6884869e-001
-5.9140730e-001
-5.7465893e-001
-6.1580694e-001
-7.0006210e-001
-8.0189604e-001
-8.9532334e-001
-9.6702254e-001
-1.0102749e+000
-1.0264654e+000
-1.0207722e+000
-1.0017775e+000
-9.7993869e-001
-9.6855873e-001
-9.7831273e-001
-1.0049882e+000
-1.0414195e+000
-1.0909042e+000
-1.1586610e+000
-1.2408469e+000
-1.3276016e+000
-1.3978953e+000
-1.4339657e+000
-1.4494171e+000
-1.4684286e+000
-1.5097281e+000
-1.5843422e+000
-1.6833714e+000
-1.7891335e+000
-1.8803606e+000
-1.9353459e+000
-1.9344263e+000
-1.8685700e+000
-1.7673362e+000
-1.6753113e+000
-1.6359749e+000
-1.6778202e+000
-1.7720343e+000
-1.8688612e+000
-1.9269400e+000
-1.9205927e+000
-1.8690783e+000
-1.8082871e+000
-1.7677486e+000
-1.7682796e+000
-1.8101737e+000
-1.8826420e+000
-1.9635772e+000
-2.0283866e+000
-2.0612943e+000
-2.0557790e+000
-2.0295725e+000
-2.0056715e+000
-1.9870859e+000
-1.9662188e+000
-1.9285520e+000
-1.8653682e+000
-1.8028842e+000
-1.7776002e+000
-1.8041794e+000
-1.8789780e+000
-1.9657308e+000
-2.0216463e+000
-2.0338199e+000
-2.0097280e+000
-1.9849935e+000
-1.9999549e+000
-2.0646400e+000
-2.1680019e+000
-2.2701735e+000
-2.3275006e+000
-2.3336639e+000
-2.3016407e+000
-2.2513168e+000
-2.2016480e+000
-2.1588321e+000
-2.1235733e+000
-2.0985641e+000
-2.0860140e+000
-2.0808468e+000
-2.0745299e+000
-2.0583360e+000
-2.0260935e+000
-1.9811857e+000
-1.9315816e+000
-1.8848377e+000
-1.8447450e+000
-1.8002828e+000
-1.7344140e+000
-1.6355860e+000
-1.5037836e+000
-1.3758919e+000
-1.3017600e+000
-1.3097939e+000
-1.4053065e+000
-1.5470240e+000
-1.6767594e+000
-1.7613415e+000
-1.7881198e+000
-1.7714131e+000
-1.7363914e+000
-1.7024283e+000
-1.6821500e+000
-1.6773514e+000
-1.6836748e+000
-1.6924623e+000
-1.6941791e+000
-1.6842686e+000
-1.6614746e+000
-1.6287260e+000
-1.5895401e+000
-1.5413795e+000
-1.4758378e+000
-1.3747866e+000
-1.2223930e+000
-1.0357077e+000
-8.5057127e-001
-7.0482242e-001
-6.2884259e-001
-6.2244421e-001
-6.6862845e-001
-7.5007051e-001
-8.4740371e-001
-9.2685157e-001
-9.5022136e-001
-8.9580083e-001
-7.6106638e-001
-5.8393002e-001
-4.2135257e-001
-3.1732330e-001
-2.9742780e-001
-3.4755874e-001
-4.3151420e-001
-5.1231945e-001
-5.5995923e-001
-5.6807029e-001
-5.4494393e-001
-5.0341398e-001
-4.5613953e-001
-4.0894216e-001
-3.6299542e-001
-3.1719676e-001
-2.7054802e-001
-2.2657600e-001
-1.9165120e-001
-1.7237772e-001
-1.7270447e-001
-1.8551400e-001
-1.9619538e-001
-1.8683489e-001
-1.4411215e-001
-8.1083238e-002
-2.7491821e-002
-1.4450826e-002
-6.3377634e-002
-1.5629789e-001
-2.5259516e-001
-3.2009986e-001
-3.3750960e-001
-2.9657778e-001
-1.9976859e-001
-6.4241141e-002
8.1750780e-002
1.9861388e-001
2.4869633e-001
2.3164959e-001
1.7436887e-001
1.1450349e-001
8.7466411e-002
9.9686846e-002
1.3845241e-001
1.9273189e-001
2.5548899e-001
3.2240176e-001
3.8916734e-001
4.4527417e-001
4.7574559e-001
4.6507427e-001
4.0487444e-001
3.1843999e-001
2.5075653e-001
2.4746013e-001
3.3845937e-001
4.9213251e-001
6.4329398e-001
7.6616466e-001
8.6689079e-001
9.4796145e-001
9.9993926e-001
9.8947132e-001
8.7931132e-001
6.8715537e-001
4.7099906e-001
2.8542221e-001
1.6016276e-001
4.6746857e-002
-1.3282804e-001
-3.3818787e-001
-4.5096892e-001
-4.2291588e-001
-2.8127649e-001
-1.0726063e-001
-2.4619643e-003
-1.9877825e-002
-1.5737647e-001
-3.4376732e-001
-4.7500300e-001
-5.0722003e-001
-4.5749891e-001
-3.8622990e-001
-3.6560372e-001
-4.0483078e-001
-4.5706344e-001
-4.5455340e-001
-3.2471660e-001
-1.1942744e-002
5.1060390e-001
1.2021793e+000
1.9687688e+000
2.7026823e+000
3.3226535e+000
3.8868439e+000
4.5684328e+000
5.5631213e+000
7.0570583e+000
9.1872387e+000
1.1990274e+001
1.5218429e+001
1.8432529e+001
2.1350670e+001
2.3913651e+001
2.6350090e+001
2.9069099e+001
3.2347210e+001
3.6229000e+001
4.0336960e+001
4.4065189e+001
4.7267117e+001
5.0244804e+001
5.3368187e+001
5.6932152e+001
6.0934147e+001
6.5131248e+001
6.9316864e+001
7.3360229e+001
7.7160591e+001
8.0656532e+001
8.3910744e+001
8.7074371e+001
9.0217522e+001
9.3257866e+001
9.5813087e+001
9.7348679e+001
9.7774300e+001
9.7416435e+001
9.6518074e+001
9.5145180e+001
9.3238960e+001
9.0694626e+001
8.7594734e+001
8.4183853e+001
8.0591881e+001
7.6805038e+001
7.2781960e+001
6.8503662e+001
6.4053307e+001
5.9604702e+001
5.5320831e+001
5.1331860e+001
4.7742905e+001
4.4622669e+001
4.1943657e+001
3.9594650e+001
3.7475918e+001
3.5525944e+001
3.3735622e+001
3.2135860e+001
3.0749001e+001
2.9575527e+001
2.8597536e+001
2.7786154e+001
2.7124361e+001
2.6609158e+001
2.6237572e+001
2.6010519e+001
2.5954008e+001
2.6116783e+001
2.6535543e+001
2.7213787e+001
2.8075230e+001
2.8976583e+001
2.9817080e+001
3.0565044e+001
3.1239143e+001
3.1923418e+001
3.2851749e+001
3.4348499e+001
3.6463829e+001
3.8918327e+001
4.1335155e+001
4.3362362e+001
4.4943329e+001
4.6319859e+001
4.7658989e+001
4.8955936e+001
5.0083878e+001
5.0838074e+001
5.1091286e+001
5.0844864e+001
5.0227470e+001
4.9458244e+001
4.8642738e+001
4.7728798e+001
4.6615799e+001
4.5201996e+001
4.3475948e+001
4.1541100e+001
3.9560314e+001
3.7699409e+001
3.5929520e+001
3.4005436e+001
3.1725399e+001
2.9032536e+001
2.6099989e+001
2.3301542e+001
2.0845383e+001
1.8683239e+001
1.6691429e+001
1.4731694e+001
1.2723414e+001
1.0659866e+001
8.5560551e+000
6.4479012e+000
4.4342022e+000
2.6798749e+000
1.3159544e+000
4.2018107e-001
9.5314324e-002
4.4648457e-001
1.3525515e+000
2.4330471e+000
3.4177015e+000
4.2584472e+000
4.9983363e+000
5.7160945e+000
6.3860817e+000
6.8479733e+000
6.9750199e+000
6.7457991e+000
6.2819023e+000
5.8360662e+000
5.5337644e+000
5.3018074e+000
5.0731974e+000
4.8452058e+000
4.6198778e+000
4.3824105e+000
4.0904584e+000
3.6796589e+000
3.1397281e+000
2.5423625e+000
1.9836481e+000
1.5600135e+000
1.3190926e+000
1.2387658e+000
1.2734768e+000
1.3706344e+000
1.5031629e+000
1.6814650e+000
1.9207214e+000
2.2281141e+000
2.5922508e+000
2.9795885e+000
3.3626440e+000
3.7293928e+000
4.0709200e+000
4.3773999e+000
4.6367502e+000
4.8352580e+000
4.9663668e+000
5.0341682e+000
5.0416842e+000
4.9882503e+000
4.8790698e+000
4.7291594e+000
4.5553727e+000
4.3727236e+000
4.1877027e+000
3.9951754e+000
3.7907159e+000
3.5736120e+000
3.3361113e+000
3.0583165e+000
2.7170575e+000
2.2937629e+000
1.8017452e+000
1.3007514e+000
8.5170877e-001
4.9572146e-001
2.3980211e-001
4.7512360e-002
-1.0641651e-001
-2.1471429e-001
-2.6705882e-001
-2.6370427e-001
-2.2922112e-001
-2.1885714e-001
-2.6651400e-001
-3.5859299e-001
-4.6180844e-001
-5.3080308e-001
-5.3338128e-001
-4.6397379e-001
-3.2545555e-001
-1.2594019e-001
1.1816204e-001
3.7853414e-001
6.2430000e-001
8.2650006e-001
9.6693975e-001
1.0462581e+000
1.0772662e+000
1.0856864e+000
1.0966154e+000
1.1281279e+000
1.1891878e+000
1.2751994e+000
1.3758857e+000
1.4767091e+000
1.5648860e+000
1.6334876e+000
1.6833720e+000
1.7271600e+000
1.7806783e+000
1.8592365e+000
1.9711463e+000
2.1120114e+000
2.2728257e+000
2.4419191e+000
2.6115646e+000
2.7836447e+000
2.9690154e+000
3.1915300e+000
3.4769382e+000
3.8466115e+000
4.3067541e+000
4.8369460e+000
5.4106827e+000
6.0040216e+000
6.6071281e+000
7.2352810e+000
7.9038539e+000
8.6151752e+000
9.3567591e+000
1.0093267e+001
1.0787240e+001
1.1407357e+001
1.1930343e+001
1.2343465e+001
1.2639680e+001
1.2818949e+001
1.2886154e+001
1.2852015e+001
1.2722737e+001
1.2491882e+001
1.2154958e+001
1.1720770e+001
1.1209286e+001
1.0657119e+001
1.0093749e+001
9.5246792e+000
8.9443188e+000
8.3360195e+000
7.6893082e+000
7.0121675e+000
6.3172441e+000
5.6165786e+000
4.9175644e+000
4.2193747e+000
3.5293503e+000
2.8758500e+000
2.2907569e+000
1.8007629e+000
1.4186777e+000
1.1305724e+000
9.2147863e-001
7.8762841e-001
7.2524202e-001
7.2320825e-001
7.5808913e-001
7.8468031e-001
7.6449037e-001
6.8676984e-001
5.5863351e-001
4.1176701e-001
2.7735233e-001
1.7178254e-001
1.0299496e-001
6.7129403e-002
5.3370267e-002
4.1924730e-002
1.4988622e-002
-3.3902712e-002
-9.3288742e-002
-1.1763311e-001
-6.4589605e-002
8.0606982e-002
3.1684941e-001
6.2122071e-001
9.6735537e-001
1.3343288e+000
1.7134343e+000
2.1215892e+000
2.5724134e+000
3.0570533e+000
3.5571721e+000
4.0453382e+000
4.4990888e+000
4.9136143e+000
5.2900839e+000
5.6345019e+000
5.9582510e+000
6.2835698e+000
6.6324205e+000
7.0194654e+000
7.4472637e+000
7.8936367e+000
8.3386431e+000
8.7828579e+000
9.2341785e+000
9.7046604e+000
1.0195926e+001
1.0678750e+001
1.1127057e+001
1.1530094e+001
1.1886452e+001
1.2204180e+001
1.2482314e+001
1.2700071e+001
1.2840806e+001
1.2911611e+001
1.2929017e+001
1.2920786e+001
1.2910800e+001
1.2899984e+001
1.2879260e+001
1.2823040e+001
1.2699429e+001
1.2469275e+001
1.2103180e+001
1.1609650e+001
1.1022988e+001
1.0422050e+001
9.8831968e+000
9.4452515e+000
9.1127844e+000
8.8215485e+000
8.4980497e+000
8.0924988e+000
7.5839267e+000
7.0185766e+000
6.4550886e+000
5.9403200e+000
5.5056009e+000
5.1463037e+000
4.8452706e+000
4.5749335e+000
4.3102002e+000
4.0404105e+000
3.7636964e+000
3.4924588e+000
3.2341239e+000
2.9704363e+000
2.6832786e+000
2.3753016e+000
2.0566857e+000
1.7460383e+000
1.4528786e+000
1.1527238e+000
8.2386768e-001
4.8101011e-001
1.5411562e-001
-1.0684513e-001
-2.6201689e-001
-3.2035282e-001
-3.0430239e-001
-2.4085709e-001
-1.5033150e-001
-2.7380779e-002
1.3897748e-001
3.5697383e-001
6.2704563e-001
9.2541802e-001
1.2180320e+000
1.4567536e+000
1.5991378e+000
1.6345241e+000
1.5632243e+000
1.3948967e+000
1.1441792e+000
8.3569777e-001
5.0662649e-001
2.2936305e-001
6.4612076e-002
9.3186041e-005
3.9448030e-003
3.9094031e-002
7.1091883e-002
7.9821505e-002
5.2479971e-002
-9.9453554e-003
-1.0159472e-001
-2.1123558e-001
-3.2437700e-001
-4.1946718e-001
-4.8138183e-001
-5.2584600e-001
-5.7620484e-001
-6.5536451e-001
-7.7546692e-001
-9.0775418e-001
-1.0145251e+000
-1.0635078e+000
-1.0363905e+000
-9.6479499e-001
-8.8201028e-001
-7.7720737e-001
-6.2857997e-001
