Image.
>Pix99999.
  .
5555
5555
2300
900
5555
2
1
0
701
5555
-2.7078999e-002
-2.7642194e-002
-2.8205389e-002
-2.8768582e-002
-2.9331777e-002
-2.9894970e-002
-3.0459156e-002
-3.1022361e-002
-3.1585556e-002
-3.2148749e-002
-3.2711942e-002
-3.3276122e-002
-3.3839334e-002
-3.4399580e-002
-3.4965660e-002
-3.5539679e-002
-3.6092360e-002
-3.6616273e-002
-3.7217468e-002
-3.7927620e-002
-3.8350143e-002
-3.8366850e-002
-3.9454706e-002
-4.2053897e-002
-4.0670216e-002
-2.8622286e-002
-1.0466115e-003
4.1015506e-002
7.4853644e-002
7.7027045e-002
4.5780703e-002
-1.2672320e-002
-8.5114367e-002
-1.5858066e-001
-2.2900203e-001
-2.9831198e-001
-3.8209555e-001
-4.9172491e-001
-6.0539252e-001
-6.9310963e-001
-7.3164600e-001
-7.1133107e-001
-6.6860825e-001
-6.4765847e-001
-6.6790181e-001
-7.3343641e-001
-8.1769341e-001
-8.8935632e-001
-9.3553060e-001
-9.4971210e-001
-9.2739141e-001
-8.6729270e-001
-7.7890509e-001
-6.7766255e-001
-5.8926231e-001
-5.3781229e-001
-5.2791882e-001
-5.5745482e-001
-6.2265080e-001
-7.1811324e-001
-8.3356172e-001
-9.5460433e-001
-1.0566163e+000
-1.1146400e+000
-1.1168652e+000
-1.0614457e+000
-9.7136933e-001
-8.7740535e-001
-8.0875623e-001
-7.8576273e-001
-7.9533499e-001
-8.1483203e-001
-8.2915395e-001
-8.3151841e-001
-8.3763063e-001
-8.6507213e-001
-9.0765440e-001
-9.4944733e-001
-9.6953446e-001
-9.5420730e-001
-9.2546511e-001
-9.1373652e-001
-9.3164909e-001
-9.7725421e-001
-1.0164460e+000
-1.0132686e+000
-9.7225493e-001
-9.1406459e-001
-8.6517638e-001
-8.4769827e-001
-8.5908270e-001
-8.8797134e-001
-9.2470175e-001
-9.5966178e-001
-9.7940135e-001
-9.7230339e-001
-9.4028348e-001
-8.9245331e-001
-8.4620363e-001
-8.1869632e-001
-8.1369430e-001
-8.2697737e-001
-8.4305668e-001
-8.4517974e-001
-8.2874149e-001
-7.9706502e-001
-7.6584399e-001
-7.5217485e-001
-7.5956535e-001
-7.8427589e-001
-8.1588918e-001
-8.4307748e-001
-8.6093199e-001
-8.6759871e-001
-8.6273766e-001
-8.4640491e-001
-8.1836474e-001
-7.7934277e-001
-7.3474652e-001
-6.9188970e-001
-6.5772653e-001
-6.3698846e-001
-6.2600875e-001
-6.1849934e-001
-6.1200017e-001
-6.0709965e-001
-6.0979784e-001
-6.2613922e-001
-6.5309918e-001
-6.8275797e-001
-7.0356232e-001
-7.0522106e-001
-6.8846589e-001
-6.5897679e-001
-6.2265283e-001
-5.8338803e-001
-5.3719074e-001
-4.8018172e-001
-4.2367423e-001
-3.8501674e-001
-3.7729001e-001
-4.0517172e-001
-4.4748574e-001
-4.7746482e-001
-4.9410710e-001
-5.0949955e-001
-5.3818065e-001
-5.8923060e-001
-6.4711201e-001
-6.8868876e-001
-7.0758998e-001
-7.0752347e-001
-6.9853830e-001
-6.8939561e-001
-6.7287618e-001
-6.3641810e-001
-5.7797241e-001
-5.0222725e-001
-4.1913772e-001
-3.3852100e-001
-2.6031801e-001
-1.8027860e-001
-9.7389013e-002
-1.5512299e-002
4.8781104e-002
7.5269178e-002
5.4504931e-002
-1.2390004e-002
-1.0384873e-001
-1.8886046e-001
-2.3828515e-001
-2.3018675e-001
-1.6653824e-001
-6.6252053e-002
3.0672712e-002
8.2544245e-002
8.3201721e-002
5.0284456e-002
2.1486789e-002
3.4947284e-002
9.1828316e-002
1.7137326e-001
2.4504758e-001
2.8692213e-001
2.9328233e-001
2.7682570e-001
2.6923150e-001
3.0407357e-001
3.8301218e-001
4.8690489e-001
5.8455700e-001
6.4700794e-001
6.7718780e-001
6.9313234e-001
7.0057553e-001
6.9747663e-001
6.8446201e-001
6.6665709e-001
6.5929878e-001
6.7817360e-001
7.1757144e-001
7.6028967e-001
7.9422241e-001
8.1328690e-001
8.2004631e-001
8.2074231e-001
8.1763303e-001
8.1134325e-001
8.0735743e-001
8.1254619e-001
8.2635295e-001
8.4335607e-001
8.5718483e-001
8.6262149e-001
8.6000270e-001
8.5266536e-001
8.4245735e-001
8.3053160e-001
8.2028252e-001
8.1680280e-001
8.2605088e-001
8.5346359e-001
9.0029824e-001
9.6230918e-001
1.0222409e+000
1.0567179e+000
1.0491643e+000
9.9324858e-001
9.0523601e-001
8.1256813e-001
7.3179227e-001
6.7128962e-001
6.4016795e-001
6.4815384e-001
7.0159405e-001
7.9815686e-001
9.0692812e-001
9.8321122e-001
1.0018181e+000
9.5763844e-001
8.7052745e-001
7.7194953e-001
6.7984867e-001
6.0156369e-001
5.4421926e-001
5.1435298e-001
5.1098281e-001
5.2660882e-001
5.4751796e-001
5.5909365e-001
5.5873287e-001
5.5266023e-001
5.4836559e-001
5.5258161e-001
5.6930774e-001
5.9879971e-001
6.3256907e-001
6.6031277e-001
6.8990141e-001
7.3725522e-001
7.9415172e-001
8.3126754e-001
8.0793643e-001
6.9049203e-001
5.0313437e-001
3.0979913e-001
1.6511780e-001
9.2681527e-002
2.9131219e-002
-1.2458363e-001
-3.5119987e-001
-5.4865348e-001
-6.5021861e-001
-6.3850617e-001
-5.4687417e-001
-4.4075999e-001
-3.8580418e-001
-4.2825344e-001
-5.4420698e-001
-6.6208225e-001
-7.2870600e-001
-7.2192657e-001
-6.6561002e-001
-6.0857743e-001
-5.6802016e-001
-5.2813107e-001
-4.5270023e-001
-2.9236200e-001
1.0285035e-002
5.0508416e-001
1.1853300e+000
1.9920328e+000
2.8297703e+000
3.6048152e+000
4.3335319e+000
5.1343827e+000
6.1828308e+000
7.6854672e+000
9.8479090e+000
1.2793710e+001
1.6284286e+001
1.9822189e+001
2.3053967e+001
2.5859779e+001
2.8452543e+001
3.1264729e+001
3.4602913e+001
3.8537876e+001
4.2697960e+001
4.6472206e+001
4.9740471e+001
5.2860832e+001
5.6253876e+001
6.0234734e+001
6.4722244e+001
6.9324150e+001
7.3741409e+001
7.7826157e+001
8.1515999e+001
8.4815704e+001
8.7811859e+001
9.0644127e+001
9.3406303e+001
9.6076286e+001
9.8318146e+001
9.9609573e+001
9.9815018e+001
9.9181458e+001
9.7931602e+001
9.6170830e+001
9.3867531e+001
9.0921135e+001
8.7414192e+001
8.3587608e+001
7.9571106e+001
7.5359474e+001
7.0936882e+001
6.6324715e+001
6.1644875e+001
5.7097713e+001
5.2834827e+001
4.8937813e+001
4.5450958e+001
4.2382813e+001
3.9689804e+001
3.7291740e+001
3.5141884e+001
3.3237858e+001
3.1589657e+001
3.0205709e+001
2.9066500e+001
2.8127716e+001
2.7348526e+001
2.6701015e+001
2.6182077e+001
2.5807621e+001
2.5581320e+001
2.5492710e+001
2.5543560e+001
2.5752682e+001
2.6145430e+001
2.6740454e+001
2.7503288e+001
2.8347954e+001
2.9206400e+001
3.0043428e+001
3.0851282e+001
3.1677591e+001
3.2731819e+001
3.4331055e+001
3.6526356e+001
3.9038010e+001
4.1465504e+001
4.3412029e+001
4.4797642e+001
4.5874355e+001
4.6842236e+001
4.7752903e+001
4.8565258e+001
4.9168190e+001
4.9451946e+001
4.9346615e+001
4.8900333e+001
4.8268890e+001
4.7526894e+001
4.6628403e+001
4.5493996e+001
4.4052158e+001
4.2319298e+001
4.0415531e+001
3.8494984e+001
3.6689949e+001
3.4941761e+001
3.2989563e+001
3.0634871e+001
2.7844965e+001
2.4833406e+001
2.2021124e+001
1.9629389e+001
1.7576839e+001
1.5689857e+001
1.3783393e+001
1.1777583e+001
9.7274075e+000
7.7069821e+000
5.7824364e+000
4.0344682e+000
2.5549035e+000
1.3861020e+000
5.2669728e-001
7.7677436e-002
2.3637310e-001
9.8184794e-001
2.0067971e+000
3.0470586e+000
3.9848113e+000
4.7943206e+000
5.5142121e+000
6.1197839e+000
6.4959593e+000
6.5646200e+000
6.3386493e+000
5.9369068e+000
5.5682893e+000
5.3281698e+000
5.1420608e+000
4.9427128e+000
4.7210670e+000
4.4768715e+000
4.2017574e+000
3.8685515e+000
3.4360209e+000
2.9081302e+000
2.3552110e+000
1.8604219e+000
1.4974043e+000
1.2978641e+000
1.2377843e+000
1.2819064e+000
1.3995200e+000
1.5772572e+000
1.8227510e+000
2.1373744e+000
2.5062518e+000
2.9061213e+000
3.3086286e+000
3.6943367e+000
4.0571795e+000
4.3891840e+000
4.6756015e+000
4.9010639e+000
5.0534186e+000
5.1331239e+000
5.1570182e+000
5.1410866e+000
5.0940900e+000
5.0203104e+000
4.9186525e+000
4.7809472e+000
4.5909977e+000
4.3368568e+000
4.0185366e+000
3.6552641e+000
3.2875104e+000
2.9371567e+000
2.5893836e+000
2.2191205e+000
1.8034153e+000
1.3528891e+000
9.2650932e-001
5.7617015e-001
3.2167670e-001
1.5492392e-001
3.7702367e-002
-5.7429425e-002
-1.2968643e-001
-1.6989280e-001
-1.6780636e-001
-1.2621695e-001
-6.8624318e-002
-1.8893469e-002
8.3211567e-003
1.3685185e-002
1.9022942e-002
4.7521919e-002
1.1588792e-001
2.3414421e-001
4.0272135e-001
6.1438906e-001
8.5258704e-001
1.0977000e+000
1.3294450e+000
1.5325966e+000
1.7013942e+000
1.8358543e+000
1.9415178e+000
2.0233343e+000
2.0833240e+000
2.1244726e+000
2.1524746e+000
2.1752143e+000
2.2026775e+000
2.2426410e+000
2.2978559e+000
2.3693800e+000
2.4571066e+000
2.5597508e+000
2.6748576e+000
2.7999783e+000
2.9343367e+000
3.0805116e+000
3.2466121e+000
3.4407561e+000
3.6687284e+000
3.9331167e+000
4.2319703e+000
4.5638452e+000
4.9301982e+000
5.3334541e+000
5.7766733e+000
6.2625089e+000
6.7926273e+000
7.3685212e+000
7.9906011e+000
8.6534548e+000
9.3402252e+000
1.0029856e+001
1.0697678e+001
1.1318794e+001
1.1869967e+001
1.2330771e+001
1.2683013e+001
1.2915560e+001
1.3032157e+001
1.3036029e+001
1.2930450e+001
1.2716183e+001
1.2393460e+001
1.1966054e+001
1.1448060e+001
1.0857858e+001
1.0216019e+001
9.5443535e+000
8.8604746e+000
8.1770344e+000
7.4986901e+000
6.8290019e+000
6.1727400e+000
5.5334163e+000
4.9111280e+000
4.3044500e+000
3.7106295e+000
3.1290855e+000
2.5645411e+000
2.0243275e+000
1.5202057e+000
1.0693325e+000
6.9789803e-001
4.3034434e-001
2.8017765e-001
2.4527200e-001
2.9426688e-001
3.8434035e-001
4.6417689e-001
4.9222755e-001
4.5448667e-001
3.5489863e-001
2.2238670e-001
8.7073423e-002
-3.2338090e-002
-1.2658128e-001
-2.0143458e-001
-2.6377714e-001
-3.1428769e-001
-3.4710380e-001
-3.4536642e-001
-2.9504651e-001
-1.9546792e-001
-5.4545812e-002
1.0848108e-001
2.8281629e-001
4.8422191e-001
7.3637271e-001
1.0653858e+000
1.4857851e+000
1.9820265e+000
2.5245039e+000
3.0683486e+000
3.5757918e+000
4.0364804e+000
4.4545841e+000
4.8529301e+000
5.2520847e+000
5.6556058e+000
6.0599174e+000
6.4532452e+000
6.8258724e+000
7.1780195e+000
7.5147228e+000
7.8481560e+000
8.1877575e+000
8.5324039e+000
8.8796396e+000
9.2310534e+000
9.5897331e+000
9.9598312e+000
1.0337014e+001
1.0695780e+001
1.1009435e+001
1.1262740e+001
1.1455186e+001
1.1610690e+001
1.1758738e+001
1.1918371e+001
1.2099711e+001
1.2291101e+001
1.2466240e+001
1.2581083e+001
1.2592052e+001
1.2474229e+001
1.2222686e+001
1.1872406e+001
1.1465528e+001
1.1030161e+001
1.0586251e+001
1.0137936e+001
9.6931372e+000
9.2810946e+000
8.9273148e+000
8.6335745e+000
8.3861303e+000
8.1434011e+000
7.8645887e+000
7.5303841e+000
7.1326470e+000
6.6805415e+000
6.1938195e+000
5.7106152e+000
5.2713423e+000
4.9077649e+000
4.6323004e+000
4.4053950e+000
4.1785231e+000
3.9149055e+000
3.5942640e+000
3.2372720e+000
2.8714132e+000
2.5131133e+000
2.1731799e+000
1.8531482e+000
1.5543429e+000
1.2848519e+000
1.0509690e+000
8.4821439e-001
6.6786808e-001
4.9596888e-001
3.2824418e-001
1.9585243e-001
1.3860780e-001
1.9523127e-001
3.8717458e-001
6.7970085e-001
1.0244086e+000
1.3741298e+000
1.6896319e+000
1.9572600e+000
2.1661580e+000
2.2917936e+000
2.3093057e+000
2.2032719e+000
1.9707543e+000
1.6435074e+000
1.2623852e+000
8.7139946e-001
5.1650071e-001
2.4750936e-001
9.2208333e-002
-3.0055717e-003
-9.3956411e-002
-1.7194709e-001
-2.2105914e-001
-2.5710937e-001
-2.9581338e-001
-3.2364032e-001
-3.2473817e-001
-3.0161893e-001
-2.6390201e-001
-2.3046884e-001
-2.1962954e-001
-2.3878002e-001
-2.9204229e-001
-3.8150579e-001
-5.1235068e-001
-7.0363861e-001
-9.6960825e-001
-1.2922472e+000
-1.6340034e+000
-1.9136004e+000
-2.0530422e+000
-2.0325344e+000
-1.8469000e+000
