##TITLE=Methyl Ethyl Ketone
##JCAMP-DX=4.24
##DATA TYPE=INFRARED SPECTRUM
##XUNITS=cm-1
##YUNITS=Absorbance
##FIRSTX=900
##LASTX=2300
##XYDATA=(X++(Y..Y))
2296 0.046557002
2294 0.047525615
2292 0.048494227
2290 0.049462844
2288 0.050431456
2286 0.051400069
2284 0.052368686
2282 0.053337298
2280 0.054305915
2278 0.055274528
2276 0.05624314
2274 0.057211757
2272 0.058180369
2270 0.059148986
2268 0.060117599
2266 0.061085235
2264 0.062053826
2262 0.063022442
2260 0.063991055
2258 0.064959668
2256 0.06592828
2254 0.066896901
2252 0.067865513
2250 0.068834126
2248 0.069802739
2246 0.070771351
2244 0.02930782
2242 0.0010686986
2240 -0.0261408
2238 0.015863538
2236 0.068103299
2234 0.14987539
2232 0.23038
2230 0.23495568
2228 0.22957687
2226 0.17379151
2224 0.11651686
2222 0.064192601
2220 0.0079669766
2218 -0.060892291
2216 -0.13308965
2214 -0.21102858
2212 -0.27541339
2210 -0.31712952
2208 -0.34282303
2206 -0.35030308
2204 -0.35612887
2202 -0.36149144
2200 -0.37011176
2198 -0.38121039
2196 -0.37926999
2194 -0.36970514
2192 -0.36178645
2190 -0.35479546
2188 -0.38341385
2186 -0.4235917
2184 -0.4362216
2182 -0.44235852
2180 -0.35784754
2178 -0.26003626
2176 -0.177628
2174 -0.10529935
2172 -0.13114211
2170 -0.16910389
2168 -0.22316651
2166 -0.26794749
2164 -0.27315122
2162 -0.2745631
2160 -0.27637029
2158 -0.28156194
2156 -0.29310799
2154 -0.29397056
2152 -0.27840045
2150 -0.25728154
2148 -0.23184118
2146 -0.21879642
2144 -0.21709646
2142 -0.2286278
2140 -0.24851562
2138 -0.27389571
2136 -0.30179828
2134 -0.32776383
2132 -0.35286441
2130 -0.36804304
2128 -0.3801004
2126 -0.37574777
2124 -0.36759955
2122 -0.35254106
2120 -0.33674502
2118 -0.32744548
2116 -0.31930402
2114 -0.3129791
2112 -0.31028783
2110 -0.32266894
2108 -0.33917132
2106 -0.36143821
2104 -0.37584028
2102 -0.37093669
2100 -0.369344
2098 -0.37807754
2096 -0.4076443
2094 -0.46244061
2092 -0.52280498
2090 -0.58514267
2088 -0.62304616
2086 -0.64065552
2084 -0.61994308
2082 -0.57583946
2080 -0.54437339
2078 -0.52109712
2076 -0.55677068
2074 -0.61651623
2072 -0.68683803
2070 -0.75972503
2068 -0.78161919
2066 -0.79060835
2064 -0.78742647
2062 -0.78617853
2060 -0.83060807
2058 -0.88563693
2056 -0.94947231
2054 -1.0034685
2052 -1.0152074
2050 -1.0085462
2048 -0.97496617
2046 -0.94916892
2044 -0.94837284
2042 -0.96449733
2040 -0.99944353
2038 -1.0208565
2036 -1.0223086
2034 -1.0192989
2032 -1.0154543
2030 -1.03819
2028 -1.081622
2026 -1.1331365
2024 -1.1872921
2022 -1.2163181
2020 -1.2318794
2018 -1.2273872
2016 -1.21552
2014 -1.20741
2012 -1.2013766
2010 -1.1978924
2008 -1.195076
2006 -1.1886328
2004 -1.1817975
2002 -1.1777929
2000 -1.1769423
1998 -1.1849289
1996 -1.2010858
1994 -1.2340754
1992 -1.2776418
1990 -1.3374333
1988 -1.3906341
1986 -1.4276264
1984 -1.4384193
1982 -1.4179903
1980 -1.3908168
1978 -1.3632145
1976 -1.35312
1974 -1.358776
1972 -1.3669486
1970 -1.3742467
1968 -1.3681663
1966 -1.3537244
1964 -1.3397777
1962 -1.3273866
1960 -1.32564
1958 -1.3287308
1956 -1.3489829
1954 -1.3757554
1952 -1.4106103
1950 -1.4453218
1948 -1.4465615
1946 -1.4316
1944 -1.3883246
1942 -1.3406073
1940 -1.3154025
1938 -1.3032826
1936 -1.30902
1934 -1.3150882
1932 -1.3087261
1930 -1.3001176
1928 -1.291292
1926 -1.2854421
1924 -1.282144
1922 -1.273192
1920 -1.2587898
1918 -1.250877
1916 -1.2524142
1914 -1.2476101
1912 -1.2361834
1910 -1.2019179
1908 -1.1530452
1906 -1.1196101
1904 -1.0962881
1902 -1.0778843
1900 -1.0618409
1898 -1.0154163
1896 -0.95845431
1894 -0.91913646
1892 -0.89574641
1890 -0.93677509
1888 -1.0092438
1886 -1.1149257
1884 -1.2234178
1882 -1.3037817
1880 -1.3573531
1878 -1.3704985
1876 -1.36243
1874 -1.337095
1872 -1.3006903
1870 -1.2538664
1868 -1.2130891
1866 -1.188805
1864 -1.19994
1862 -1.247727
1860 -1.2998843
1858 -1.345603
1856 -1.3700972
1854 -1.3772581
1852 -1.3654623
1850 -1.3413059
1848 -1.2702401
1846 -1.1706357
1844 -1.0599349
1842 -0.94602263
1840 -0.91017908
1838 -0.91592467
1836 -0.95015144
1834 -0.9929558
1832 -0.99921286
1830 -0.98117965
1828 -0.93842417
1826 -0.89259362
1824 -0.87679285
1822 -0.88608307
1820 -0.92172241
1818 -0.95648879
1816 -0.9669714
1814 -0.95551646
1812 -0.92289376
1810 -0.89212853
1808 -0.87359142
1806 -0.8502695
1804 -0.81854534
1802 -0.77067888
1800 -0.70807481
1798 -0.64938933
1796 -0.59583569
1794 -0.54437447
1792 -0.49639601
1790 -0.45914102
1788 -0.43160233
1786 -0.40135071
1784 -0.36937952
1782 -0.31531075
1780 -0.24903832
1778 -0.1737978
1776 -0.090486795
1774 0.0077602006
1772 0.10895424
1770 0.18378524
1768 0.223674
1766 0.20309743
1764 0.1544866
1762 0.11185075
1760 0.03706976
1758 -0.091261178
1756 -0.19412556
1754 -0.23111326
1752 -0.17512715
1750 -0.030744273
1748 0.11663269
1746 0.23603606
1744 0.21711233
1742 0.068383373
1740 -0.12004142
1738 -0.31765297
1736 -0.38395399
1734 -0.34483236
1732 -0.24840608
1730 -0.12469965
1728 -0.103769
1726 -0.15296113
1724 -0.17946203
1722 -0.1619247
1720 0.027992234
1718 0.3815684
1716 0.93886673
1714 1.5893136
1712 2.1569355
1710 2.6719077
1708 3.1786201
1706 3.8476608
1704 4.8424363
1702 6.3886442
1700 8.5892706
1698 11.604053
1696 15.381715
1694 19.24139
1692 22.866407
1690 26.136457
1688 29.098743
1686 32.606373
1684 36.741211
1682 41.755421
1680 47.468239
1678 52.503731
1676 56.888573
1674 61.009514
1672 65.014954
1670 69.748505
1668 75.033363
1666 80.32785
1664 85.496712
1662 90.104889
1660 94.180023
1658 97.745102
1656 100.78165
1654 103.27031
1652 104.9882
1650 105.71848
1648 105.17006
1646 103.17429
1644 100.32233
1642 97.178024
1640 93.697533
1638 89.912712
1636 85.32016
1634 79.807533
1632 74.205757
1630 68.807259
1628 64.009804
1626 59.825272
1624 55.78548
1622 51.798492
1620 47.915375
1618 44.135208
1616 40.526516
1614 37.11311
1612 34.070244
1610 31.417181
1608 29.176559
1606 27.334328
1604 25.774757
1602 24.510447
1600 23.514664
1598 22.780567
1596 22.255001
1594 21.916895
1592 21.710388
1590 21.632086
1588 21.660059
1586 21.799049
1584 22.044024
1582 22.375731
1580 22.777597
1578 23.281979
1576 23.895287
1574 24.64736
1572 25.537296
1570 26.523241
1568 27.591961
1566 28.739206
1564 29.970657
1562 31.469578
1560 33.335651
1558 36.119301
1556 39.865959
1554 43.835781
1552 47.784996
1550 50.743008
1548 52.76091
1546 54.467823
1544 55.935162
1542 57.402531
1540 58.68652
1538 59.486992
1536 59.574886
1534 58.770851
1532 57.369583
1530 55.766312
1528 54.039619
1526 52.2579
1524 50.292461
1522 48.055523
1520 45.54784
1518 42.740349
1516 40.080231
1514 37.730534
1512 35.601559
1510 33.71994
1508 31.442131
1506 28.622494
1504 25.700863
1502 22.705564
1500 20.11688
1498 17.97794
1496 15.850572
1494 13.726633
1492 11.556468
1490 9.35853
1488 7.1979661
1486 5.153903
1484 3.3560681
1482 1.8942993
1480 0.84901762
1478 0.23295037
1476 0.052895099
1474 0.39008808
1472 1.1773262
1470 2.132472
1468 3.084214
1466 3.9055107
1464 4.5103283
1462 5.043786
1460 5.5592413
1458 6.081718
1456 6.6166801
1454 7.0298681
1452 7.2390194
1450 7.2942624
1448 7.1283693
1446 6.9049964
1444 6.6074367
1442 6.312921
1440 6.0231109
1438 5.7246666
1436 5.3950658
1434 4.9600301
1432 4.4154835
1430 3.8271472
1428 3.2366741
1426 2.7575791
1424 2.4156868
1422 2.229687
1420 2.1962085
1418 2.2927911
1416 2.4727201
1414 2.688591
1412 2.9061942
1410 3.1099248
1408 3.3217428
1406 3.5624907
1404 3.8547254
1402 4.2269897
1400 4.6455722
1398 5.1245394
1396 5.5858717
1394 5.9998188
1392 6.3484573
1390 6.5708418
1388 6.6895056
1386 6.6339803
1384 6.4409018
1382 6.0602551
1380 5.6122012
1378 5.094924
1376 4.588037
1374 4.105782
1372 3.6560321
1370 3.2417998
1368 2.8560908
1366 2.4709406
1364 2.0432372
1362 1.5821302
1360 1.0930312
1358 0.6414454
1356 0.31300515
1354 0.090668544
1352 0.019737016
1350 0.028520603
1348 0.12344101
1346 0.25697142
1344 0.44308642
1342 0.6580739
1340 0.92577028
1338 1.2127762
1336 1.5299058
1334 1.8252194
1332 2.0667582
1330 2.276427
1328 2.4394388
1326 2.6169884
1324 2.8282423
1322 3.0821028
1320 3.3932047
1318 3.7255056
1316 4.0747399
1314 4.4067097
1312 4.7067509
1310 4.9565167
1308 5.1477118
1306 5.2721009
1304 5.3446584
1302 5.3726449
1300 5.3784838
1298 5.3718009
1296 5.3589568
1294 5.3369193
1292 5.3101716
1290 5.2748122
1288 5.2383838
1286 5.2014875
1284 5.1682053
1282 5.1437721
1280 5.1351395
1278 5.162559
1276 5.2103143
1274 5.295435
1272 5.3707438
1270 5.4259515
1268 5.4473166
1266 5.4259114
1264 5.4172254
1262 5.4371977
1260 5.524292
1258 5.6827168
1256 5.8777685
1254 6.0959468
1252 6.2970924
1250 6.475863
1248 6.6136441
1246 6.7142
1244 6.7547736
1242 6.7589369
1240 6.7155681
1238 6.6489091
1236 6.5492568
1234 6.4280052
1232 6.2568402
1230 6.0597887
1228 5.7944498
1226 5.4923024
1224 5.0887184
1222 4.6491995
1220 4.1268177
1218 3.6070659
1216 3.0959113
1214 2.609508
1212 2.1667364
1210 1.7475753
1208 1.3696828
1206 1.0441984
1204 0.78800082
1202 0.59313202
1200 0.45863578
1198 0.35181069
1196 0.26898357
1194 0.20371197
1192 0.15739679
1190 0.1489788
1188 0.16268027
1186 0.19888557
1184 0.2354757
1182 0.243506
1180 0.25575483
1178 0.31206504
1176 0.41020802
1174 0.65388083
1172 0.91141599
1170 1.1876101
1168 1.4330091
1166 1.5832628
1164 1.7148352
1162 1.799787
1160 1.8708103
1158 1.9095076
1156 1.9089229
1154 1.8358039
1152 1.6923308
1150 1.4498849
1148 1.1494082
1146 0.79617214
1144 0.48065317
1142 0.21762097
1140 0.071518198
1138 0.017894492
1136 0.048760854
1134 0.1291105
1132 0.25078711
1130 0.39354575
1128 0.56439984
1126 0.74049008
1124 0.90430009
1122 1.0502605
1120 1.113528
1118 1.151298
1116 1.0936657
1114 1.0343271
1112 0.97691429
1110 0.94532973
1108 0.99693918
1106 1.07216
1104 1.2028109
1102 1.3202107
1100 1.4070997
1098 1.4508978
1096 1.4258572
1094 1.3740917
1092 1.2915241
1090 1.2198917
1088 1.1613772
1086 1.1228379
1084 1.0991818
1082 1.07278
1080 1.0424542
1078 0.99540597
1076 0.93659127
1074 0.84704989
1072 0.74227095
1070 0.6008333
1068 0.45392203
1066 0.32692635
1064 0.2133728
1062 0.18031661
1060 0.15993381
1058 0.19515997
1056 0.22422485
1054 0.2258682
1052 0.21996841
1050 0.1918907
1048 0.17995195
1046 0.20746142
1044 0.24754366
1042 0.30936548
1040 0.36060771
1038 0.39290157
1036 0.38876697
1034 0.33804178
1032 0.22924666
1030 0.065898992
1028 -0.13475157
1026 -0.35938257
1024 -0.56965643
1022 -0.76601851
1020 -0.89393544
1018 -0.99125344
1016 -1.04098
1014 -1.0814406
1012 -1.1595014
1010 -1.2463887
1008 -1.361732
1006 -1.4727771
1004 -1.505106
1002 -1.5268778
1000 -1.4821434
998 -1.4450232
996 -1.4414928
994 -1.4424571
992 -1.4567537
990 -1.4584005
988 -1.4317966
986 -1.4076951
984 -1.387248
982 -1.3639107
980 -1.3352859
978 -1.2872171
976 -1.2210515
974 -1.1849147
972 -1.1754714
970 -1.2171162
968 -1.2877526
966 -1.3308351
964 -1.3565903
962 -1.2849491
960 -1.1770508
958 -0.96084177
956 -0.72200143
954 -0.49117607
952 -0.26685759
950 -0.17417556
948 -0.088563293
946 -0.029188929
944 0.00030948315
942 0.009561561
940 0.025204379
938 0.02240877
936 0.037165716
934 0.10438586
932 0.2081982
930 0.38896269
928 0.53198779
926 0.61315256
924 0.61264837
922 0.51401204
920 0.45835656
918 0.443362
916 0.48730084
914 0.57162946
912 0.57810903
910 0.5444085
908 0.55639893
906 0.58797723
904 0.81576079
902 1.0955875
900 1.3955684
898 1.6987224
896 1.7842
