Image.
>Pix99999.
  .
5555
5555
2300
900
5555
2
1
0
701
5555
9.5101997e-002
9.7080171e-002
9.9058338e-002
1.0104149e-001
1.0301869e-001
1.0499586e-001
1.0697303e-001
1.0895020e-001
1.1092737e-001
1.1290454e-001
1.1488172e-001
1.1686873e-001
1.1884606e-001
1.2082323e-001
1.2280040e-001
1.2477757e-001
1.2675475e-001
1.2873192e-001
1.3071883e-001
1.3269626e-001
1.3467343e-001
1.3665061e-001
1.3862777e-001
1.4060494e-001
1.4258210e-001
1.4455928e-001
7.2938547e-002
2.7066730e-003
-5.8265280e-002
-6.3725919e-002
-6.0991313e-002
3.4483835e-002
1.3902375e-001
2.9753491e-001
4.5120332e-001
5.4598403e-001
6.1513031e-001
5.8108526e-001
5.3176105e-001
4.5287445e-001
3.9031884e-001
3.6706764e-001
3.6682701e-001
4.0032190e-001
4.4470018e-001
5.0004232e-001
5.4082519e-001
5.6687337e-001
5.3826994e-001
4.6954501e-001
3.8328999e-001
2.8850713e-001
2.5711113e-001
2.5380054e-001
2.8111732e-001
3.1777006e-001
3.5079321e-001
3.8283184e-001
4.5670202e-001
5.3678179e-001
6.1491084e-001
6.8714315e-001
6.9443905e-001
6.8946224e-001
6.4943713e-001
6.0592675e-001
5.6220067e-001
5.2230549e-001
4.9222881e-001
4.7098380e-001
4.6452400e-001
4.7727492e-001
5.1566052e-001
5.8517861e-001
6.8676943e-001
8.0246037e-001
9.2765987e-001
1.0370728e+000
1.1348249e+000
1.1954575e+000
1.2366085e+000
1.2334951e+000
1.2123709e+000
1.1969192e+000
1.1838480e+000
1.2020679e+000
1.2276057e+000
1.2462126e+000
1.2635251e+000
1.2770472e+000
1.2900286e+000
1.3024011e+000
1.3116435e+000
1.3069035e+000
1.3001132e+000
1.2932364e+000
1.2891074e+000
1.2911843e+000
1.2917720e+000
1.2885374e+000
1.2802857e+000
1.2665921e+000
1.2498063e+000
1.2306693e+000
1.2200520e+000
1.2163199e+000
1.2332957e+000
1.2630002e+000
1.2886046e+000
1.3113121e+000
1.3097428e+000
1.2981980e+000
1.2873800e+000
1.2772304e+000
1.2711631e+000
1.2662885e+000
1.2476462e+000
1.2257771e+000
1.1937482e+000
1.1593649e+000
1.1231743e+000
1.0907623e+000
1.0748135e+000
1.0672421e+000
1.0746578e+000
1.0795393e+000
1.0744600e+000
1.0716448e+000
1.0737514e+000
1.0921642e+000
1.1275500e+000
1.1490875e+000
1.1545908e+000
1.1261020e+000
1.0741009e+000
1.0270785e+000
9.8634869e-001
9.8853683e-001
1.0129884e+000
1.0662452e+000
1.1297001e+000
1.1645607e+000
1.1882749e+000
1.1475443e+000
1.0875280e+000
9.9915528e-001
9.0473992e-001
8.2225126e-001
7.4441993e-001
6.7851871e-001
6.1522144e-001
5.5379212e-001
5.0266361e-001
4.6899971e-001
4.5856759e-001
4.7507685e-001
5.0265044e-001
5.3689831e-001
5.6643194e-001
5.9148818e-001
6.1107314e-001
6.2796813e-001
6.4796382e-001
6.7186517e-001
6.9944757e-001
7.2869700e-001
7.2581154e-001
7.0422441e-001
6.3741481e-001
5.5126679e-001
4.6542600e-001
3.8076389e-001
3.3777070e-001
3.0869725e-001
3.0618382e-001
3.1200999e-001
3.1352234e-001
3.1834668e-001
3.2111093e-001
3.2391894e-001
3.2414830e-001
3.1832740e-001
3.0847421e-001
2.9042634e-001
2.6781508e-001
2.3660685e-001
1.9992477e-001
1.7396303e-001
1.5752235e-001
1.5870810e-001
1.6713986e-001
1.7184141e-001
1.7301658e-001
1.7034425e-001
1.6759574e-001
1.6650993e-001
1.6522400e-001
1.6936012e-001
1.7413332e-001
1.8799961e-001
2.0318286e-001
2.0148724e-001
1.9084629e-001
1.5485260e-001
1.1285412e-001
7.6071694e-002
4.5104854e-002
2.3636177e-002
-1.4518388e-004
-3.2182146e-002
-8.0173403e-002
-1.4125729e-001
-2.0897594e-001
-2.7369565e-001
-3.0446318e-001
-3.0714419e-001
-2.8475708e-001
-2.5629568e-001
-2.5038967e-001
-2.6137552e-001
-2.9435199e-001
-3.3589312e-001
-3.9650223e-001
-4.6367422e-001
-5.5133522e-001
-6.4430141e-001
-7.0630759e-001
-7.4565405e-001
-7.3908049e-001
-7.1568114e-001
-6.9789129e-001
-6.8663990e-001
-6.6153693e-001
-6.1415064e-001
-5.1950276e-001
-3.9605150e-001
-2.7597970e-001
-1.8201032e-001
-1.3870761e-001
-1.3912483e-001
-1.6728742e-001
-2.1940415e-001
-2.8520560e-001
-3.5030890e-001
-4.1241148e-001
-4.5198250e-001
-4.7022629e-001
-4.9702701e-001
-5.3134900e-001
-5.7724905e-001
-6.2932074e-001
-6.0676235e-001
-5.3763521e-001
-3.8868201e-001
-2.0180660e-001
-4.1766264e-002
9.1947757e-002
1.6535425e-001
1.9381960e-001
1.7087771e-001
1.1685817e-001
4.9516581e-002
-4.4306405e-003
-2.7014880e-002
-2.0466194e-002
2.8021354e-003
2.2712840e-002
3.9194427e-002
1.7503463e-002
-5.3679816e-002
-1.3217759e-001
-1.9275209e-001
-2.3890503e-001
-2.6709399e-001
-2.9929498e-001
-3.4730035e-001
-4.1176385e-001
-5.0181717e-001
-5.6172460e-001
-5.8695334e-001
-4.9673998e-001
-3.1247321e-001
-1.1199664e-001
8.3360508e-002
1.3116097e-001
6.8525389e-002
-1.7673038e-003
-6.0203500e-002
-6.0360171e-003
1.6435218e-001
5.5582428e-001
1.1122137e+000
1.7005908e+000
2.2714951e+000
2.7934740e+000
3.3925736e+000
4.2101035e+000
5.5027804e+000
7.4009676e+000
1.0213175e+001
1.3932571e+001
1.7867470e+001
2.1672672e+001
2.5076694e+001
2.8101028e+001
3.1550243e+001
3.5524147e+001
4.0378891e+001
4.5941563e+001
5.0962799e+001
5.5444729e+001
5.9707878e+001
6.3889507e+001
6.8773376e+001
7.4193008e+001
7.9624649e+001
8.4900787e+001
8.9502022e+001
9.3407417e+001
9.6536079e+001
9.8956573e+001
1.0080655e+002
1.0212560e+002
1.0299469e+002
1.0308051e+002
1.0209643e+002
1.0024862e+002
9.7825470e+001
9.4850136e+001
9.1436142e+001
8.7298325e+001
8.2404137e+001
7.7445274e+001
7.2658401e+001
6.8159828e+001
6.3947166e+001
5.9594318e+001
5.5057465e+001
5.0670727e+001
4.6459126e+001
4.2591457e+001
3.9077412e+001
3.5987198e+001
3.3320450e+001
3.1026348e+001
2.9089064e+001
2.7388258e+001
2.5952223e+001
2.4794216e+001
2.3929417e+001
2.3338501e+001
2.3001856e+001
2.2853634e+001
2.2848341e+001
2.2918406e+001
2.3038029e+001
2.3187595e+001
2.3362631e+001
2.3565975e+001
2.3859243e+001
2.4262228e+001
2.4861870e+001
2.5664635e+001
2.6625164e+001
2.7725321e+001
2.8841829e+001
2.9964878e+001
3.1229368e+001
3.2726845e+001
3.5085327e+001
3.8397926e+001
4.2152088e+001
4.6115108e+001
4.9254494e+001
5.1554214e+001
5.3444069e+001
5.4929798e+001
5.6152573e+001
5.7045540e+001
5.7489494e+001
5.7430859e+001
5.6891582e+001
5.5973179e+001
5.4891930e+001
5.3657475e+001
5.2283051e+001
5.0629593e+001
4.8592327e+001
4.6231651e+001
4.3517117e+001
4.0916817e+001
3.8602596e+001
3.6385319e+001
3.4278194e+001
3.1727623e+001
2.8599007e+001
2.5527458e+001
2.2567177e+001
2.0066299e+001
1.8063400e+001
1.6032572e+001
1.3968125e+001
1.1849903e+001
9.6980286e+000
7.5703883e+000
5.5410066e+000
3.7357740e+000
2.2275689e+000
1.1055045e+000
3.8140604e-001
6.3092053e-002
2.7513450e-001
9.7513145e-001
1.8953609e+000
2.8633349e+000
3.6678777e+000
4.1887455e+000
4.5719962e+000
4.8631868e+000
5.1769013e+000
5.5433998e+000
5.9188948e+000
6.2702217e+000
6.5028415e+000
6.5459628e+000
6.4981146e+000
6.3285031e+000
6.1259360e+000
5.8793879e+000
5.5713029e+000
5.1782513e+000
4.6515298e+000
4.0054035e+000
3.3543284e+000
2.7340820e+000
2.2530015e+000
1.9149623e+000
1.7057132e+000
1.6324948e+000
1.6730553e+000
1.8211343e+000
2.0700359e+000
2.3493016e+000
2.6414969e+000
2.9227931e+000
3.1854842e+000
3.4543545e+000
3.7269337e+000
4.0089202e+000
4.2985716e+000
4.6043930e+000
4.9290872e+000
5.2546716e+000
5.5472827e+000
5.7511787e+000
5.8003702e+000
5.7235665e+000
5.4701276e+000
5.1299796e+000
4.6882691e+000
4.2012601e+000
3.6943974e+000
3.2208261e+000
2.7974222e+000
2.4480262e+000
2.1245208e+000
1.7602346e+000
1.3603400e+000
9.1669559e-001
5.0406134e-001
2.1409391e-001
2.6150562e-002
-6.8136570e-003
4.1093484e-002
1.7099662e-001
3.2606930e-001
5.2102244e-001
7.1955836e-001
9.2124677e-001
1.1222388e+000
1.3133914e+000
1.5028119e+000
1.6570126e+000
1.8013589e+000
1.9286555e+000
2.0654016e+000
2.2341726e+000
2.4291332e+000
2.6697989e+000
2.9303234e+000
3.2140000e+000
3.4977071e+000
3.7647965e+000
4.0014539e+000
4.1896243e+000
4.3207102e+000
4.4024820e+000
4.4347501e+000
4.4421682e+000
4.4298353e+000
4.4095430e+000
4.3759785e+000
4.3336043e+000
4.2715449e+000
4.2103839e+000
4.1566815e+000
4.1179371e+000
4.1124969e+000
4.1130285e+000
4.1241736e+000
4.1302156e+000
4.1330309e+000
4.1450109e+000
4.1823006e+000
4.2549024e+000
4.3780136e+000
4.5308137e+000
4.7106762e+000
4.8829780e+000
5.0425344e+000
5.1804657e+000
5.3012881e+000
5.4212108e+000
5.5430727e+000
5.6756496e+000
5.8107252e+000
5.9307847e+000
6.0301323e+000
6.0749240e+000
6.0795846e+000
6.0029845e+000
5.8826175e+000
5.6707921e+000
5.4278178e+000
5.1148787e+000
4.7854500e+000
4.4133401e+000
4.0223274e+000
3.5841589e+000
3.1255069e+000
2.6282172e+000
2.1381440e+000
1.6680634e+000
1.2421162e+000
8.8312852e-001
5.7193929e-001
3.1955862e-001
1.0555999e-001
-6.6520281e-002
-2.0334548e-001
-3.0750713e-001
-3.8134474e-001
-4.2915469e-001
-4.3986461e-001
-4.2648241e-001
-3.8140321e-001
-3.2356891e-001
-2.5619161e-001
-1.7797120e-001
-6.2602848e-002
8.1967592e-002
3.2555568e-001
5.8845711e-001
9.0034139e-001
1.1867503e+000
1.3905450e+000
1.5547426e+000
1.6213030e+000
1.6646681e+000
1.6600204e+000
1.6289285e+000
1.5500839e+000
1.4285269e+000
1.2470274e+000
1.0285364e+000
7.7324432e-001
5.2542639e-001
2.9572985e-001
1.3365485e-001
3.2986008e-002
2.2884799e-002
7.2579853e-002
2.0498751e-001
3.7324071e-001
5.6467330e-001
7.5504392e-001
9.0800786e-001
1.0466523e+000
1.1440240e+000
1.2308128e+000
1.2802014e+000
1.3213326e+000
1.3313217e+000
1.3512498e+000
1.4038005e+000
1.4750299e+000
1.5897120e+000
1.6928480e+000
1.7708865e+000
1.8249538e+000
1.8430001e+000
1.8637518e+000
1.8910580e+000
1.9447194e+000
2.0251896e+000
2.1184056e+000
2.2125955e+000
2.2441623e+000
2.2241497e+000
2.0965459e+000
1.9188372e+000
1.7257495e+000
1.5406080e+000
1.4498627e+000
1.3890003e+000
1.3959064e+000
1.4097600e+000
1.4101408e+000
1.4080014e+000
1.3934759e+000
1.3781857e+000
1.3585159e+000
1.3234849e+000
1.2400450e+000
1.1468514e+000
1.0321100e+000
9.3417352e-001
8.6469090e-001
7.7872306e-001
6.6405267e-001
5.0283903e-001
2.9091448e-001
9.1983311e-002
-9.0569019e-002
-2.2948526e-001
-3.3499271e-001
-4.0638623e-001
-4.5608622e-001
-4.6164039e-001
-4.5011255e-001
-4.3339255e-001
-4.1818756e-001
-4.3534678e-001
-4.6076545e-001
-5.1931399e-001
-5.8445734e-001
-6.9564062e-001
-8.0677676e-001
-9.1491199e-001
-1.0111203e+000
-1.0547928e+000
-1.0906960e+000
-1.1032102e+000
-1.1114060e+000
-1.1092851e+000
-1.0954500e+000
-1.0598338e+000
-1.0133166e+000
-9.5124161e-001
-8.7960994e-001
-7.9915714e-001
-7.3083013e-001
-6.7320323e-001
-6.3317692e-001
-6.0146457e-001
-5.3569001e-001
-4.5335326e-001
-3.5010844e-001
-2.4288286e-001
-1.8446669e-001
-1.3822958e-001
-1.2371127e-001
-1.1257560e-001
-8.7959945e-002
-6.1656553e-002
-1.8822856e-002
7.6680072e-004
2.4395309e-002
8.8768929e-002
2.3568620e-001
3.9618114e-001
5.9647226e-001
7.8304201e-001
9.3954813e-001
1.0606880e+000
1.1249171e+000
1.1527840e+000
1.1363473e+000
1.0845429e+000
9.9942029e-001
8.9887142e-001
7.8710836e-001
6.7359215e-001
5.6008631e-001
4.3587539e-001
3.1012672e-001
2.6926190e-001
2.5295204e-001
4.3059900e-001
6.4004278e-001
9.1463000e-001
