Image.
>Pix99999.
  .
5555
5555
2300
900
5555
2
1
0
701
5555
5.4600999e-002
5.5736374e-002
5.6872748e-002
5.8008127e-002
5.9144497e-002
6.0279880e-002
6.1416246e-002
6.2551633e-002
6.3687988e-002
6.4823382e-002
6.5959744e-002
6.7095131e-002
6.8231493e-002
6.9366887e-002
7.0503235e-002
7.1638636e-002
7.2774991e-002
7.3911369e-002
7.5046763e-002
7.6183110e-002
7.7318512e-002
7.8454860e-002
7.9590268e-002
8.0726609e-002
8.1862018e-002
8.2998358e-002
4.2473827e-002
1.5779185e-003
-3.5956800e-002
-4.6938147e-002
-5.4050870e-002
-3.7236068e-002
-1.8891778e-002
-4.7255787e-003
6.2018028e-003
-7.2716800e-003
-2.3593048e-002
-4.7366433e-002
-6.3735820e-002
-5.6398045e-002
-3.6724973e-002
6.9929250e-003
4.5852590e-002
7.4477792e-002
7.4769922e-002
4.0526979e-002
-5.0858650e-003
-5.9517309e-002
-8.6489603e-002
-9.2499599e-002
-7.8128360e-002
-5.2825533e-002
-3.3251338e-002
-1.6524980e-002
-1.0054096e-003
1.4188113e-002
4.0523760e-002
6.9432162e-002
9.7501174e-002
1.2517639e-001
1.3210885e-001
1.3505948e-001
1.1437360e-001
8.8664532e-002
4.6990037e-002
1.0362066e-002
-2.2494593e-003
4.3368572e-003
5.3973358e-002
1.0641058e-001
1.5590401e-001
1.8500157e-001
1.8500268e-001
1.7298301e-001
1.5085468e-001
1.3392679e-001
1.2252691e-001
1.2340590e-001
1.3239466e-001
1.5410720e-001
1.8230942e-001
2.1871765e-001
2.5837311e-001
2.9163593e-001
3.2278642e-001
3.3824772e-001
3.5006240e-001
3.5282984e-001
3.5319483e-001
3.3482891e-001
3.1043398e-001
2.6117221e-001
2.1175607e-001
1.7789228e-001
1.6036665e-001
1.8524843e-001
2.2127628e-001
2.6802313e-001
3.0518261e-001
3.2352513e-001
3.2623571e-001
3.1200391e-001
2.8807908e-001
2.5667509e-001
2.2290736e-001
1.8825300e-001
1.5517987e-001
1.2330474e-001
1.1750280e-001
1.2524095e-001
1.8332314e-001
2.6161501e-001
3.4305838e-001
4.2477709e-001
4.5808980e-001
4.7893992e-001
4.7935835e-001
4.7723091e-001
4.9196053e-001
5.1081318e-001
5.3415114e-001
5.5631691e-001
5.7030237e-001
5.8329934e-001
5.9703946e-001
6.0086358e-001
5.8470255e-001
5.4088181e-001
4.6176109e-001
3.7781549e-001
2.9698843e-001
2.4978331e-001
2.3447914e-001
2.4881759e-001
2.8154069e-001
3.1194243e-001
3.3855081e-001
3.3983791e-001
3.2802522e-001
2.9052791e-001
2.4329999e-001
2.0583576e-001
1.7257008e-001
1.7337768e-001
1.8400536e-001
2.0360771e-001
2.2692850e-001
2.5867680e-001
2.9703531e-001
3.5219780e-001
4.0825287e-001
4.5258296e-001
4.7632384e-001
4.6269158e-001
4.2993081e-001
3.8287336e-001
3.3736250e-001
2.9865342e-001
2.5900564e-001
2.1520963e-001
1.7206457e-001
1.2958270e-001
1.1067168e-001
1.0912441e-001
1.3305102e-001
1.7123650e-001
2.1237229e-001
2.5469539e-001
2.8797638e-001
3.1752649e-001
3.3851114e-001
3.5656530e-001
3.6245349e-001
3.6409187e-001
3.5111713e-001
3.3286250e-001
3.1316626e-001
2.9332897e-001
2.8430313e-001
2.7723622e-001
2.6887658e-001
2.5977212e-001
2.4654381e-001
2.3604853e-001
2.2838731e-001
2.2023171e-001
2.0828743e-001
1.8396685e-001
1.4922205e-001
1.2377400e-001
1.1238900e-001
1.3971473e-001
1.9388194e-001
2.4567723e-001
2.9161736e-001
2.9710266e-001
2.8148881e-001
2.4934112e-001
2.1159767e-001
1.8700799e-001
1.6983286e-001
1.7371716e-001
1.8601017e-001
2.0450291e-001
2.2051001e-001
2.2121692e-001
2.0819688e-001
1.7185435e-001
1.2880075e-001
8.7071598e-002
6.3239001e-002
6.5872490e-002
9.1771379e-002
1.3618004e-001
1.7103159e-001
1.9359100e-001
1.8645765e-001
1.5787730e-001
1.1886263e-001
7.2982132e-002
2.7307572e-002
-1.9838002e-002
-3.3028722e-002
-2.5949409e-002
2.5640123e-002
9.8309606e-002
1.3609676e-001
1.5031286e-001
1.0259181e-001
2.8396249e-002
-4.1909575e-002
-1.0006868e-001
-1.2207954e-001
-1.2501383e-001
-1.1199246e-001
-1.0355949e-001
-1.1249366e-001
-1.3006699e-001
-1.5173620e-001
-1.5983026e-001
-1.4878200e-001
-1.2056392e-001
-8.0901444e-002
-5.0536048e-002
-3.4442522e-002
-2.6811151e-002
-2.2807660e-002
1.0875752e-002
6.9767825e-002
1.4902137e-001
2.3920214e-001
2.6816764e-001
2.5604120e-001
1.8962716e-001
9.6765131e-002
3.4206435e-002
-5.7362635e-003
-2.2124322e-002
-1.9703100e-002
7.8852288e-003
5.2097656e-002
1.0878863e-001
1.5851760e-001
1.8299879e-001
1.7805007e-001
1.4006285e-001
9.8015897e-002
6.8350807e-002
2.2444617e-002
-6.2347230e-002
-1.3537744e-001
-1.7177823e-001
-1.6630280e-001
-1.2945759e-001
-9.6256688e-002
-7.4412107e-002
-1.0918247e-001
-1.8787652e-001
-2.7585432e-001
-3.6627951e-001
-4.1936001e-001
-4.4830588e-001
-4.5195317e-001
-4.3751812e-001
-4.2414841e-001
-4.0061134e-001
-3.3552083e-001
-2.1554050e-001
4.0460005e-002
4.4923782e-001
1.0878518e+000
1.8468952e+000
2.6183765e+000
3.4140151e+000
4.2340922e+000
5.2511978e+000
6.6061730e+000
8.5365601e+000
1.1157194e+001
1.4520019e+001
1.8557428e+001
2.2485620e+001
2.5976950e+001
2.9021971e+001
3.1702765e+001
3.4890465e+001
3.8678143e+001
4.3309166e+001
4.8623478e+001
5.3427757e+001
5.7732471e+001
6.1993343e+001
6.6290924e+001
7.1231117e+001
7.6598015e+001
8.1624695e+001
8.6224785e+001
9.0005005e+001
9.3024742e+001
9.5339539e+001
9.6986572e+001
9.8027588e+001
9.8468742e+001
9.8366028e+001
9.7705185e+001
9.6560890e+001
9.5162834e+001
9.3707436e+001
9.2093910e+001
9.0272469e+001
8.7792229e+001
8.4550980e+001
8.0789642e+001
7.6672523e+001
7.2436646e+001
6.8150818e+001
6.3563763e+001
5.8676037e+001
5.3821163e+001
4.9038433e+001
4.4558826e+001
4.0412849e+001
3.6767620e+001
3.3636520e+001
3.0971252e+001
2.8748642e+001
2.6820688e+001
2.5202965e+001
2.3877262e+001
2.2853188e+001
2.2095001e+001
2.1600058e+001
2.1328434e+001
2.1273811e+001
2.1402765e+001
2.1727871e+001
2.2235029e+001
2.2933271e+001
2.3806395e+001
2.4965923e+001
2.6444714e+001
2.8292089e+001
3.0515572e+001
3.2892685e+001
3.5372002e+001
3.7758835e+001
4.0022297e+001
4.2178310e+001
4.4254589e+001
4.6672558e+001
4.9391899e+001
5.1927597e+001
5.4129890e+001
5.5561836e+001
5.6274193e+001
5.6723106e+001
5.6817989e+001
5.6488995e+001
5.5530598e+001
5.3796768e+001
5.1608799e+001
4.9468178e+001
4.7522095e+001
4.5866676e+001
4.4377136e+001
4.2945099e+001
4.1408054e+001
3.9673355e+001
3.7606731e+001
3.5148514e+001
3.2711342e+001
3.0427343e+001
2.8344561e+001
2.6483082e+001
2.4216629e+001
2.1395828e+001
1.8495525e+001
1.5580418e+001
1.3167817e+001
1.1328839e+001
9.5929289e+000
7.9676294e+000
6.3892021e+000
4.8848152e+000
3.5000942e+000
2.2885079e+000
1.2926576e+000
5.6912768e-001
1.1920825e-001
-6.0588002e-002
2.6745155e-002
4.8146835e-001
1.3236270e+000
2.3835621e+000
3.5942597e+000
4.7992778e+000
5.8803945e+000
6.9095817e+000
7.9016957e+000
8.8931293e+000
9.9009199e+000
1.0724004e+001
1.1263926e+001
1.1515643e+001
1.1355211e+001
1.1062964e+001
1.0589897e+001
1.0078416e+001
9.4984312e+000
8.8294773e+000
8.0228510e+000
7.0806456e+000
6.0424905e+000
5.1191607e+000
4.3876338e+000
3.9157364e+000
3.6889257e+000
3.6126940e+000
3.6514370e+000
3.7607508e+000
3.9345315e+000
4.1786141e+000
4.4883852e+000
4.8574653e+000
5.2616692e+000
5.6927075e+000
6.1027818e+000
6.4694214e+000
6.7442517e+000
6.8658366e+000
6.8663788e+000
6.6705003e+000
6.4186401e+000
6.0891924e+000
5.7586637e+000
5.4303198e+000
5.1050324e+000
4.7827020e+000
4.4589415e+000
4.1201344e+000
3.7413971e+000
3.3014042e+000
2.8073540e+000
2.2726769e+000
1.7462995e+000
1.2430485e+000
7.7259040e-001
3.4563613e-001
-1.0803238e-002
-2.7110410e-001
-3.7302873e-001
-3.4475973e-001
-1.5650845e-001
1.3250637e-001
5.4951775e-001
1.0007660e+000
1.4864280e+000
1.9498771e+000
2.3523152e+000
2.6833744e+000
2.8710887e+000
2.9665387e+000
2.9104083e+000
2.8059368e+000
2.6306491e+000
2.4559464e+000
2.2815027e+000
2.1363509e+000
2.0261097e+000
1.9474683e+000
1.9007900e+000
1.8692812e+000
1.8504314e+000
1.8212920e+000
1.7802949e+000
1.7080821e+000
1.6173189e+000
1.5185530e+000
1.4355831e+000
1.4117048e+000
1.4456285e+000
1.5903580e+000
1.8019729e+000
2.1271234e+000
2.4941559e+000
2.9300992e+000
3.3659124e+000
3.7894728e+000
4.1736760e+000
4.4665995e+000
4.7032213e+000
4.8299708e+000
4.9324126e+000
5.0001593e+000
5.0965104e+000
5.2433429e+000
5.4425378e+000
5.7169824e+000
6.0550761e+000
6.4715266e+000
6.9636345e+000
7.5359964e+000
8.1907291e+000
8.9109573e+000
9.6819124e+000
1.0464250e+001
1.1202468e+001
1.1880681e+001
1.2416120e+001
1.2840590e+001
1.3029700e+001
1.3074366e+001
1.2788440e+001
1.2361107e+001
1.1581285e+001
1.0714520e+001
9.6276932e+000
8.5375967e+000
7.4514780e+000
6.4559488e+000
5.6567860e+000
5.0045958e+000
4.6075230e+000
4.3385124e+000
4.2484903e+000
4.2161093e+000
4.2380939e+000
4.2211218e+000
4.1398249e+000
3.9250777e+000
3.5892143e+000
3.1425791e+000
2.6402812e+000
2.1686101e+000
1.7334380e+000
1.3941964e+000
1.1035858e+000
8.8444185e-001
7.0554990e-001
6.2362593e-001
5.7930201e-001
6.3308072e-001
7.0045871e-001
8.0017769e-001
9.1127092e-001
1.0584985e+000
1.2148700e+000
1.3870161e+000
1.5117663e+000
1.5333594e+000
1.4801799e+000
1.3060857e+000
1.1099901e+000
8.8813281e-001
6.8165076e-001
4.9483180e-001
3.2957914e-001
1.8945870e-001
8.7754384e-002
1.4864704e-002
-4.1516457e-002
-8.8409349e-002
-5.6772228e-002
1.7087303e-002
1.5434413e-001
3.0980685e-001
4.6922600e-001
6.1752242e-001
7.0366156e-001
7.7134866e-001
7.7175581e-001
7.7658176e-001
8.0567938e-001
8.5298824e-001
9.5741630e-001
1.0636801e+000
1.1748252e+000
1.2868302e+000
1.4032820e+000
1.5426058e+000
1.7200428e+000
1.9250307e+000
2.1657522e+000
2.4250813e+000
2.7024806e+000
2.9805369e+000
3.2535675e+000
3.4885454e+000
3.6887372e+000
3.8033450e+000
3.8646414e+000
3.8187397e+000
3.7287138e+000
3.5710607e+000
3.4005027e+000
3.2422359e+000
3.0926600e+000
2.9962134e+000
2.9066660e+000
2.8462927e+000
2.7936742e+000
2.7760036e+000
2.7700319e+000
2.7991710e+000
2.8099170e+000
2.7747571e+000
2.7162018e+000
2.6206317e+000
2.5814097e+000
2.6304309e+000
2.7520499e+000
2.9494829e+000
3.0886002e+000
3.1618476e+000
3.0915847e+000
2.9159594e+000
2.6676240e+000
2.3833530e+000
2.1161094e+000
1.8576206e+000
1.6188600e+000
1.3836577e+000
1.1293286e+000
8.7100577e-001
6.0404199e-001
3.4041542e-001
1.2502271e-001
-8.1672281e-002
-2.3135835e-001
-3.7535238e-001
-4.9406999e-001
-6.0798299e-001
-7.0636934e-001
-7.9870200e-001
-8.7711906e-001
-9.5572007e-001
-1.0344560e+000
-1.1027786e+000
-1.1554320e+000
-1.1701708e+000
-1.1442171e+000
-1.0907992e+000
-1.0156958e+000
-9.4400692e-001
-8.7522769e-001
-8.1798804e-001
-7.6559150e-001
-7.0462000e-001
-6.3809478e-001
-5.1773459e-001
-3.8540000e-001
-2.4626130e-001
-1.1087992e-001
-8.6561732e-002
-6.5062039e-002
-2.1443784e-002
1.0310054e-002
3.1100151e-001
6.2568772e-001
9.9760276e-001
1.3108429e+000
1.4509981e+000
1.5478234e+000
1.5524733e+000
1.5511485e+000
1.5396072e+000
1.5020100e+000
1.4324087e+000
1.3520486e+000
1.2615569e+000
1.1634214e+000
1.0602205e+000
9.6867710e-001
8.8425231e-001
9.4386548e-001
1.0587542e+000
1.3461989e+000
1.6778231e+000
1.9627935e+000
2.2397532e+000
2.2770000e+000
