Image.
>Pix99999.
  .
5555
5555
2300
900
5555
2
1
0
701
5555
5.6579001e-002
5.7756316e-002
5.8932636e-002
6.0109947e-002
6.1287265e-002
6.2464576e-002
6.3640907e-002
6.4818211e-002
6.5995529e-002
6.7171849e-002
6.8349153e-002
6.9527455e-002
7.0703812e-002
7.1877174e-002
7.3057361e-002
7.4245498e-002
7.5412303e-002
7.6548390e-002
7.7764623e-002
7.9091839e-002
8.0124684e-002
8.0743760e-002
8.2456030e-002
8.5708372e-002
8.4900536e-002
7.2935931e-002
4.3422453e-002
-3.5557779e-003
-4.2689100e-002
-4.7193483e-002
-1.3022742e-002
5.5084236e-002
1.4331132e-001
2.3342347e-001
2.9967508e-001
3.2090899e-001
3.0336285e-001
2.6339456e-001
2.2580299e-001
2.1077664e-001
2.1016085e-001
2.0770346e-001
1.8883459e-001
1.4268243e-001
7.1079291e-002
-1.9458257e-002
-1.1879804e-001
-2.1492428e-001
-2.9233554e-001
-3.3679670e-001
-3.4348285e-001
-3.1426832e-001
-2.6627526e-001
-2.1876188e-001
-1.8039674e-001
-1.5342230e-001
-1.2802041e-001
-9.5135182e-002
-6.4257473e-002
-5.1532257e-002
-7.5498313e-002
-1.4856756e-001
-2.5546777e-001
-3.7020490e-001
-4.6021721e-001
-4.9919987e-001
-4.9449027e-001
-4.6711114e-001
-4.4764230e-001
-4.6056131e-001
-4.9301299e-001
-5.1997358e-001
-5.1885301e-001
-4.7734252e-001
-4.2039630e-001
-3.8156927e-001
-3.7667835e-001
-4.0785241e-001
-4.4785818e-001
-4.6485436e-001
-4.4980627e-001
-4.0601012e-001
-3.5270032e-001
-3.1087252e-001
-2.8622079e-001
-2.7710521e-001
-2.7500954e-001
-2.7178374e-001
-2.7023089e-001
-2.7631965e-001
-2.9197457e-001
-3.1528229e-001
-3.3506444e-001
-3.4061500e-001
-3.3705443e-001
-3.3583364e-001
-3.4949395e-001
-3.8695550e-001
-4.4136620e-001
-4.9877948e-001
-5.4072714e-001
-5.4907262e-001
-5.1320577e-001
-4.3035519e-001
-3.1776828e-001
-2.0178750e-001
-1.1415223e-001
-8.2737185e-002
-1.1158554e-001
-1.9043317e-001
-2.8927141e-001
-3.7271464e-001
-4.1430241e-001
-3.9836612e-001
-3.3787516e-001
-2.5915864e-001
-1.9630846e-001
-1.7800817e-001
-1.9903295e-001
-2.3855810e-001
-2.6963913e-001
-2.7148819e-001
-2.5698450e-001
-2.5175202e-001
-2.7504057e-001
-3.3543393e-001
-4.1118041e-001
-4.7040427e-001
-4.9276885e-001
-4.7007155e-001
-4.2151299e-001
-3.7574044e-001
-3.5240611e-001
-3.6123818e-001
-3.8958383e-001
-4.1636163e-001
-4.2576754e-001
-4.1003042e-001
-3.8315490e-001
-3.6710939e-001
-3.7700000e-001
-4.1937777e-001
-4.8005801e-001
-5.3890866e-001
-5.8991390e-001
-6.3499534e-001
-6.7991632e-001
-7.2798103e-001
-7.6633102e-001
-7.7599317e-001
-7.4427712e-001
-6.6762143e-001
-5.6667387e-001
-4.7266969e-001
-4.1414222e-001
-4.1239822e-001
-4.6640801e-001
-5.6298786e-001
-6.8227428e-001
-8.0046606e-001
-8.8791430e-001
-9.1568512e-001
-8.6931694e-001
-7.5150645e-001
-6.0709274e-001
-4.9646944e-001
-4.5922992e-001
-5.0977045e-001
-6.0493362e-001
-6.8022496e-001
-7.0007515e-001
-6.5430993e-001
-5.7018077e-001
-4.8874116e-001
-4.3352935e-001
-4.1346499e-001
-4.1904664e-001
-4.3205345e-001
-4.3424228e-001
-4.1176426e-001
-3.6681685e-001
-3.1258243e-001
-2.7353799e-001
-2.7392012e-001
-3.1396976e-001
-3.7647644e-001
-4.2599723e-001
-4.2797285e-001
-3.8972789e-001
-3.4087610e-001
-3.0618286e-001
-2.9868081e-001
-3.0039579e-001
-2.8392306e-001
-2.5325766e-001
-2.2937386e-001
-2.2504039e-001
-2.3972741e-001
-2.4183773e-001
-1.9062334e-001
-7.9335004e-002
7.1744569e-002
2.1471389e-001
2.9376000e-001
2.7925509e-001
1.6684629e-001
-8.3051845e-003
-1.9248867e-001
-3.4421366e-001
-4.3543455e-001
-4.5719200e-001
-4.1009179e-001
-2.9148442e-001
-1.0493054e-001
1.0562117e-001
2.7429914e-001
3.4588435e-001
2.8935501e-001
1.4210026e-001
-2.3349132e-002
-1.5775637e-001
-2.3560014e-001
-2.5555155e-001
-2.3090997e-001
-1.8249680e-001
-1.3421464e-001
-1.0903492e-001
-1.2332137e-001
-1.6805092e-001
-2.1731894e-001
-2.4026528e-001
-2.0945889e-001
-1.1914763e-001
1.6367100e-002
1.5530267e-001
2.4504271e-001
2.5626898e-001
1.8357635e-001
5.3589512e-002
-9.0704799e-002
-2.1759456e-001
-3.0703285e-001
-3.4875000e-001
-3.3769956e-001
-2.6845691e-001
-1.4201516e-001
7.6775886e-003
1.2846945e-001
1.8571143e-001
1.7126589e-001
1.3213713e-001
1.3824767e-001
2.0235080e-001
2.9173425e-001
3.6351380e-001
3.8383862e-001
3.6740947e-001
3.6039880e-001
3.9874852e-001
5.0050408e-001
6.5383661e-001
8.2013232e-001
9.2735839e-001
8.9848936e-001
7.3011041e-001
4.8069894e-001
2.4044001e-001
9.3013451e-002
2.1228250e-002
-5.1142126e-002
-1.2843965e-001
-1.5694642e-001
-1.0163084e-001
3.8708739e-002
2.1092552e-001
3.3178499e-001
3.4949780e-001
2.5670534e-001
1.2050701e-001
4.6659216e-002
8.1375197e-002
2.0408687e-001
3.2527408e-001
3.3004373e-001
1.9334462e-001
-2.3762636e-002
-2.0729926e-001
-2.1915130e-001
5.3305835e-002
6.6869861e-001
1.5452355e+000
2.5040491e+000
3.4055817e+000
4.1915264e+000
4.9666858e+000
5.9597483e+000
7.4120173e+000
9.5282459e+000
1.2381486e+001
1.5872912e+001
1.9587715e+001
2.2947561e+001
2.5722485e+001
2.8069088e+001
3.0457691e+001
3.3516327e+001
3.7647846e+001
4.2896862e+001
4.8647480e+001
5.3935703e+001
5.8559887e+001
6.3026054e+001
6.7800224e+001
7.3082512e+001
7.8531960e+001
8.3450104e+001
8.7471054e+001
9.0610306e+001
9.3015091e+001
9.4869255e+001
9.6291145e+001
9.7316048e+001
9.7882744e+001
9.7866432e+001
9.7191307e+001
9.5877396e+001
9.4139626e+001
9.2309662e+001
9.0488701e+001
8.8530426e+001
8.6228645e+001
8.3405693e+001
8.0068611e+001
7.6374466e+001
7.2394691e+001
6.8093132e+001
6.3446121e+001
5.8488804e+001
5.3388298e+001
4.8414207e+001
4.3775970e+001
3.9595345e+001
3.5942257e+001
3.2837601e+001
3.0235600e+001
2.8039036e+001
2.6168139e+001
2.4577734e+001
2.3251583e+001
2.2195185e+001
2.1409000e+001
2.0882572e+001
2.0598976e+001
2.0540777e+001
2.0699469e+001
2.1073542e+001
2.1654646e+001
2.2436140e+001
2.3464025e+001
2.4836685e+001
2.6644171e+001
2.8931540e+001
3.1621075e+001
3.4519619e+001
3.7456959e+001
4.0322826e+001
4.3064312e+001
4.5709896e+001
4.8451313e+001
5.1545452e+001
5.4777687e+001
5.7458832e+001
5.9129272e+001
5.9739765e+001
5.9560841e+001
5.9061428e+001
5.8417767e+001
5.7437752e+001
5.5901142e+001
5.3695511e+001
5.0996887e+001
4.8249004e+001
4.5746609e+001
4.3538284e+001
4.1577602e+001
3.9759903e+001
3.7953041e+001
3.6018250e+001
3.3869770e+001
3.1509947e+001
2.9073044e+001
2.6792641e+001
2.4748199e+001
2.2806856e+001
2.0780514e+001
1.8508064e+001
1.6036245e+001
1.3634116e+001
1.1495086e+001
9.6535025e+000
8.0614853e+000
6.6229625e+000
5.2843637e+000
4.0542011e+000
2.9345915e+000
1.9107921e+000
1.0033069e+000
2.8051761e-001
-1.8297413e-001
-3.1291968e-001
-1.0187000e-002
8.2225454e-001
2.1050401e+000
3.5525639e+000
4.9369340e+000
6.1766343e+000
7.3003311e+000
8.4303255e+000
9.6603699e+000
1.0999189e+001
1.2320200e+001
1.3363081e+001
1.3951951e+001
1.4069268e+001
1.3794417e+001
1.3280107e+001
1.2648611e+001
1.1958320e+001
1.1238789e+001
1.0495771e+001
9.7132511e+000
8.8605604e+000
7.9490695e+000
7.0537271e+000
6.2575817e+000
5.6301737e+000
5.2045879e+000
4.9652662e+000
4.8762474e+000
4.8908801e+000
4.9745684e+000
5.1159530e+000
5.3217540e+000
5.6134052e+000
5.9939890e+000
6.4333720e+000
6.8830004e+000
7.2798185e+000
7.5670757e+000
7.7051139e+000
7.6758857e+000
7.4898911e+000
7.1781225e+000
6.7908936e+000
6.3718238e+000
5.9476848e+000
5.5367031e+000
5.1488142e+000
4.7855234e+000
4.4363608e+000
4.0766373e+000
3.6681745e+000
3.1927681e+000
2.6680722e+000
2.1250799e+000
1.6000772e+000
1.1124263e+000
6.5695775e-001
2.4424776e-001
-8.3330512e-002
-2.8216386e-001
-3.1984621e-001
-1.7807885e-001
1.3989037e-001
6.0749853e-001
1.1723793e+000
1.7981560e+000
2.4780414e+000
3.1804135e+000
3.8221688e+000
4.3044028e+000
4.5315247e+000
4.4711223e+000
4.1930671e+000
3.7919126e+000
3.3619165e+000
2.9808600e+000
2.6953170e+000
2.5233142e+000
2.4444969e+000
2.4163799e+000
2.3774877e+000
2.2826138e+000
2.1240685e+000
1.9196697e+000
1.7143829e+000
1.5486509e+000
1.4429730e+000
1.4056259e+000
1.4326019e+000
1.5275000e+000
1.7118407e+000
2.0095124e+000
2.4379284e+000
2.9884601e+000
3.6086009e+000
4.2318430e+000
4.7886710e+000
5.2325220e+000
5.5606689e+000
5.7904530e+000
5.9565382e+000
6.0926771e+000
6.2235932e+000
6.3727188e+000
6.5650530e+000
6.8253608e+000
7.1761050e+000
7.6338382e+000
8.2039709e+000
8.8880453e+000
9.6847315e+000
1.0589708e+001
1.1592304e+001
1.2672600e+001
1.3793500e+001
1.4909457e+001
1.5961223e+001
1.6891047e+001
1.7642151e+001
1.8161499e+001
1.8397827e+001
1.8302681e+001
1.7844788e+001
1.7018936e+001
1.5872371e+001
1.4478715e+001
1.2943318e+001
1.1386477e+001
9.9457960e+000
8.7442455e+000
7.8679762e+000
7.3564134e+000
7.1713839e+000
7.2388263e+000
7.4490671e+000
7.6882720e+000
7.8531537e+000
7.8573132e+000
7.6479101e+000
7.2070427e+000
6.5754938e+000
5.8194571e+000
5.0270891e+000
4.2734375e+000
3.5926771e+000
3.0005441e+000
2.4934788e+000
2.0678163e+000
1.7283179e+000
1.4789201e+000
1.3168365e+000
1.2362586e+000
1.2288811e+000
1.2875326e+000
1.4079179e+000
1.5785031e+000
1.7695130e+000
1.9384880e+000
2.0261052e+000
1.9873786e+000
1.8211700e+000
1.5532143e+000
1.2458344e+000
9.5399839e-001
6.9529068e-001
4.7610915e-001
2.9705170e-001
1.5244247e-001
2.6433796e-002
-8.9553595e-002
-1.8234330e-001
-2.4313205e-001
-2.8500560e-001
-3.1921846e-001
-3.3943498e-001
-3.3034560e-001
-2.6736027e-001
-1.4393440e-001
-2.5533065e-003
1.0537956e-001
1.3869524e-001
8.8647164e-002
1.8980511e-002
-5.3785294e-003
3.8344346e-002
1.4726469e-001
2.8077868e-001
4.0304196e-001
5.1365614e-001
6.2431997e-001
7.5596905e-001
9.3309402e-001
1.1827009e+000
1.5249348e+000
1.9584215e+000
2.4561176e+000
2.9374695e+000
3.3152542e+000
3.5215681e+000
3.5241256e+000
3.3731205e+000
3.1437600e+000
2.9221630e+000
2.7738240e+000
2.6997828e+000
2.6786680e+000
2.6700630e+000
2.6394868e+000
2.5808189e+000
2.4952457e+000
2.3848510e+000
2.2540443e+000
2.1140859e+000
1.9793686e+000
1.8690608e+000
1.7951566e+000
1.7474420e+000
1.7187852e+000
1.7262524e+000
1.7910800e+000
1.9273186e+000
2.1226964e+000
2.2958910e+000
2.3640501e+000
2.2929988e+000
2.0859160e+000
1.8211540e+000
1.5752280e+000
1.3639395e+000
1.1797487e+000
9.9114823e-001
7.6987791e-001
5.1702601e-001
2.3742215e-001
-7.3713541e-002
-4.1383320e-001
-7.5052875e-001
-1.0473875e+000
-1.2792749e+000
-1.4316143e+000
-1.5162131e+000
-1.5492023e+000
-1.5411546e+000
-1.4998066e+000
-1.4280649e+000
-1.3256880e+000
-1.1846752e+000
-1.0025885e+000
-8.0143672e-001
-6.0901916e-001
-4.5252725e-001
-3.5045683e-001
-2.9274839e-001
-2.5999817e-001
-2.2530749e-001
-1.6524315e-001
-7.4730009e-002
3.8374498e-002
1.3761839e-001
1.8538785e-001
1.6508555e-001
8.0137677e-002
-1.4447998e-002
-6.0733132e-002
-3.5659321e-002
7.0002064e-002
2.4679737e-001
4.7249836e-001
6.9604421e-001
8.7506628e-001
1.0248280e+000
1.1735868e+000
1.3447542e+000
1.5484171e+000
1.7491150e+000
1.9018481e+000
1.9672315e+000
1.9307617e+000
1.8653963e+000
1.8606414e+000
1.9844592e+000
2.2695794e+000
2.6345000e+000
2.9730098e+000
3.1941850e+000
3.2331073e+000
3.1116168e+000
2.8824885e+000
2.6339557e+000
2.4632001e+000
