##TITLE=Methyl Ethyl Ketone
##JCAMP-DX=4.24
##DATA TYPE=INFRARED SPECTRUM
##XUNITS=cm-1
##YUNITS=Absorbance
##FIRSTX=900
##LASTX=2300
##XYDATA=(X++(Y..Y))
2296 0.012798
2294 0.013064618
2292 0.01333024
2290 0.013596855
2288 0.01386248
2286 0.014129093
2284 0.014395712
2282 0.01466134
2280 0.014927949
2278 0.015194567
2276 0.015460201
2274 0.015726803
2272 0.01599244
2270 0.016259043
2268 0.01652566
2266 0.016791301
2264 0.017057898
2262 0.017324517
2260 0.01759016
2258 0.017856752
2256 0.018122401
2254 0.01838899
2252 0.018655609
2250 0.01892126
2248 0.019187845
2246 0.019454464
2244 0.0057474258
2242 0.00020127729
2240 -0.031634882
2238 -0.039484706
2236 -0.043579299
2234 -0.019881992
2232 0.0053883274
2230 0.021194268
2228 0.035859331
2226 0.04531955
2224 0.056293968
2222 0.07563448
2220 0.093249969
2218 0.10436057
2216 0.10959886
2214 0.10278162
2212 0.080924921
2210 0.03567791
2208 -0.026174959
2206 -0.10695221
2204 -0.17343505
2202 -0.2250172
2200 -0.24286646
2198 -0.23625749
2196 -0.21793501
2194 -0.19378082
2192 -0.18166828
2190 -0.17498927
2188 -0.1728304
2186 -0.17203578
2184 -0.16902681
2182 -0.16548151
2180 -0.18581654
2178 -0.20993185
2176 -0.25070915
2174 -0.29187667
2172 -0.32008681
2170 -0.34525731
2168 -0.36000285
2166 -0.36876208
2164 -0.3592411
2162 -0.3438009
2160 -0.31789383
2158 -0.31082594
2156 -0.34157902
2154 -0.39979097
2152 -0.49214056
2150 -0.56530219
2148 -0.61284131
2146 -0.63826859
2144 -0.64649969
2142 -0.68782848
2140 -0.75337058
2138 -0.82769972
2136 -0.90548831
2134 -0.93097496
2132 -0.93440253
2130 -0.88405538
2128 -0.81722641
2126 -0.72565478
2124 -0.62857348
2122 -0.55434424
2120 -0.4870815
2118 -0.48199686
2116 -0.49142957
2114 -0.54361022
2112 -0.59726167
2110 -0.63039172
2108 -0.6548568
2106 -0.66215265
2104 -0.68147224
2102 -0.73279202
2100 -0.78554797
2098 -0.83269054
2096 -0.8454386
2094 -0.81408978
2092 -0.77443296
2090 -0.73283118
2088 -0.70989537
2086 -0.70290697
2084 -0.70040798
2082 -0.69952238
2080 -0.72096878
2078 -0.75388432
2076 -0.81704158
2074 -0.89211357
2072 -0.936234
2070 -0.96984351
2068 -0.94626695
2066 -0.90903491
2064 -0.8962208
2062 -0.89360243
2060 -0.95078337
2058 -1.0203391
2056 -1.0935972
2054 -1.1627939
2052 -1.2136563
2050 -1.2602292
2048 -1.3033714
2046 -1.3421142
2044 -1.3726799
2042 -1.3855127
2040 -1.3752697
2038 -1.3483733
2036 -1.3083743
2034 -1.2762768
2032 -1.2538223
2030 -1.252573
2028 -1.2656519
2026 -1.2715057
2024 -1.2705081
2022 -1.2232101
2020 -1.1518265
2018 -1.0885335
2016 -1.0305001
2014 -1.050863
2012 -1.098518
2010 -1.1562632
2008 -1.2144097
2006 -1.2334356
2004 -1.2437683
2002 -1.2594301
2000 -1.2788503
1998 -1.304038
1996 -1.3264357
1994 -1.3334312
1992 -1.3376229
1990 -1.3482897
1988 -1.364104
1986 -1.3919357
1984 -1.4141874
1982 -1.4244955
1980 -1.414276
1978 -1.3814315
1976 -1.3232743
1974 -1.244767
1972 -1.1612936
1970 -1.0762326
1968 -1.0377697
1966 -1.0292721
1964 -1.0749344
1962 -1.1481823
1960 -1.203308
1958 -1.2494909
1956 -1.26474
1954 -1.2705587
1952 -1.3011909
1950 -1.3421694
1948 -1.385112
1946 -1.418625
1944 -1.4017966
1942 -1.3605763
1940 -1.3057758
1938 -1.2618728
1936 -1.2611114
1934 -1.2844669
1932 -1.324208
1930 -1.3703389
1928 -1.4128228
1926 -1.4509686
1924 -1.4809928
1922 -1.481631
1920 -1.4560137
1918 -1.405087
1916 -1.3431357
1914 -1.2752908
1912 -1.2044114
1910 -1.1313477
1908 -1.0553401
1906 -1.0115635
1904 -0.98677921
1902 -0.98793286
1900 -1.001927
1898 -0.97397834
1896 -0.92686141
1894 -0.83365929
1892 -0.72614318
1890 -0.65183371
1888 -0.60452759
1886 -0.62823385
1884 -0.68506706
1882 -0.76440924
1880 -0.84916401
1878 -0.92286044
1876 -0.983585
1874 -1.0172561
1872 -1.01952
1870 -0.98205775
1868 -0.93148994
1866 -0.8921957
1864 -0.88829535
1862 -0.92935109
1860 -0.97345203
1858 -1.0053397
1856 -1.0221171
1854 -1.0241946
1852 -1.0780603
1850 -1.1637746
1848 -1.30352
1846 -1.4664036
1844 -1.5369828
1842 -1.5503625
1840 -1.4377692
1838 -1.2701347
1836 -1.1022629
1834 -0.94089979
1832 -0.78230345
1830 -0.62426484
1828 -0.47358042
1826 -0.34727937
1824 -0.30238104
1822 -0.32198071
1820 -0.40565521
1818 -0.51456112
1816 -0.611202
1814 -0.68351996
1812 -0.72139704
1810 -0.71430755
1808 -0.6695621
1806 -0.5906015
1804 -0.4889299
1802 -0.45067877
1800 -0.47088206
1798 -0.56744921
1796 -0.71326429
1794 -0.7484017
1792 -0.70553076
1790 -0.5413835
1788 -0.31500798
1786 -0.13576309
1784 0.0051667206
1782 0.086408585
1780 0.12370715
1778 0.11206947
1776 0.076320998
1774 0.051244427
1772 0.057206668
1770 0.11369061
1768 0.18226001
1766 0.20439807
1764 0.1827082
1762 0.13327067
1760 0.04234783
1758 -0.087751597
1756 -0.20754829
1754 -0.29014009
1752 -0.33400688
1750 -0.33902001
1748 -0.345557
1746 -0.37172893
1744 -0.45812628
1742 -0.60981709
1740 -0.74976158
1738 -0.86399257
1736 -0.83029598
1734 -0.67720538
1732 -0.45857754
1730 -0.21198612
1728 -0.11283612
1726 -0.12398671
1724 -0.14503959
1722 -0.14702849
1720 -9.9912286e-06
1718 0.27299154
1716 0.73986077
1714 1.3041347
1712 1.7521286
1710 2.1018202
1708 2.3965101
1706 2.8123507
1704 3.534337
1702 4.8460293
1700 6.8854418
1698 9.9560595
1696 14.032143
1694 18.288231
1692 22.327503
1690 25.885214
1688 28.999891
1686 32.51228
1684 36.537727
1682 41.243217
1680 46.474319
1678 50.994041
1676 54.850056
1674 58.52779
1672 62.14624
1670 66.292389
1668 70.811836
1666 75.145653
1664 79.232384
1662 82.854424
1660 86.019249
1658 88.7267
1656 90.979889
1654 92.804329
1652 94.258759
1650 95.431725
1648 96.129913
1646 96.164497
1644 95.514015
1642 94.270973
1640 92.426643
1638 90.085762
1636 87.011543
1634 83.195557
1632 79.124634
1630 74.994637
1628 70.958946
1626 67.052208
1624 62.91024
1622 58.511913
1620 54.161839
1618 49.894699
1616 45.924911
1614 42.268585
1612 39.037086
1610 36.230049
1608 33.798691
1606 31.724066
1604 29.875366
1602 28.287588
1600 26.989336
1598 25.996239
1596 25.287498
1594 24.83004
1592 24.541069
1590 24.394897
1588 24.34454
1586 24.401621
1584 24.569658
1582 24.843151
1580 25.215292
1578 25.740694
1576 26.433372
1574 27.350651
1572 28.488323
1570 29.740669
1568 31.076721
1566 32.35638
1564 33.565525
1562 34.824322
1560 36.20055
1558 38.210018
1556 40.903957
1554 43.783447
1552 46.663235
1550 48.848225
1548 50.352192
1546 51.608749
1544 52.653782
1542 53.627129
1540 54.42802
1538 54.847206
1536 54.7728
1534 54.145615
1532 53.14555
1530 52.063782
1528 50.945534
1526 49.828552
1524 48.618324
1522 47.240059
1520 45.691494
1518 43.926735
1516 42.084171
1514 40.207195
1512 38.17532
1510 35.975319
1508 33.261703
1506 29.909407
1504 26.627207
1502 23.477098
1500 20.822117
1498 18.712259
1496 16.608429
1494 14.517709
1492 12.429811
1490 10.365081
1488 8.3424473
1486 6.3994851
1484 4.5881538
1482 2.9872427
1480 1.7173799
1478 0.80258429
1476 0.22417629
1474 0.11504677
1472 0.49949428
1470 1.0796509
1468 1.7259617
1466 2.3033528
1464 2.7512658
1462 3.1784604
1460 3.6399398
1458 4.2241526
1456 4.9846201
1454 5.7555537
1452 6.4822021
1450 7.0035572
1448 7.2090092
1446 7.3015823
1444 7.2406378
1442 7.1305332
1440 6.9548216
1438 6.7089343
1436 6.3761015
1434 5.9413362
1432 5.4199748
1430 4.9051223
1428 4.4193439
1426 4.0380836
1424 3.762161
1422 3.5799291
1420 3.5118036
1418 3.5575688
1416 3.7275684
1414 4.0359931
1412 4.4081674
1410 4.8288336
1408 5.2503591
1406 5.6534114
1404 6.0347762
1402 6.3676643
1400 6.6671882
1398 6.9101539
1396 7.1203141
1394 7.267529
1392 7.3684397
1390 7.3630075
1388 7.2740808
1386 7.0467501
1384 6.7413626
1382 6.3278308
1380 5.8644128
1378 5.3409739
1376 4.7776055
1374 4.1997728
1372 3.659338
1370 3.1776662
1368 2.785239
1366 2.4348121
1364 2.0565615
1362 1.6469141
1360 1.1858058
1358 0.7426967
1356 0.39935303
1354 0.147191
1352 0.042791519
1350 0.018208642
1348 0.09583237
1346 0.2226907
1344 0.35837761
1342 0.48129207
1340 0.57828832
1338 0.65935981
1336 0.70331031
1334 0.7526958
1332 0.78712904
1330 0.85041159
1328 0.96076685
1326 1.1088064
1324 1.3249303
1322 1.5689386
1320 1.8578035
1318 2.15855
1316 2.46398
1314 2.7317221
1312 2.9370041
1310 3.0586557
1308 3.1019487
1306 3.1027057
1304 3.0815206
1302 3.067899
1300 3.0590465
1298 3.0461988
1296 3.0324428
1294 3.0112445
1292 3.0043161
1290 3.0363193
1288 3.103708
1286 3.2472529
1284 3.4083631
1282 3.5959592
1280 3.7608702
1278 3.8719857
1276 3.9560585
1274 3.9957399
1272 4.0437231
1270 4.1168928
1268 4.2341685
1266 4.4142685
1264 4.6259794
1262 4.8677769
1260 5.1042161
1258 5.3355627
1256 5.5670543
1254 5.8013411
1252 6.0466056
1250 6.2977133
1248 6.5472584
1246 6.7961249
1244 7.0400519
1242 7.2812529
1240 7.5154548
1238 7.7329593
1236 7.903173
1234 8.0220165
1232 8.0039959
1230 7.9188595
1228 7.6617303
1226 7.3627591
1224 6.9560246
1222 6.5220675
1220 6.0223036
1218 5.505393
1216 4.9567885
1214 4.4180589
1212 3.8991952
1210 3.3999989
1208 2.9313133
1206 2.4876649
1204 2.08024
1202 1.7193571
1200 1.4061549
1198 1.1215191
1196 0.85948855
1194 0.60500079
1192 0.36634368
1190 0.17631368
1188 0.024675246
1186 -0.056917623
1184 -0.10544697
1182 -0.11239938
1180 -0.097015046
1178 -0.027341641
1176 0.071828797
1174 0.26156199
1172 0.46392781
1170 0.69190365
1168 0.89785832
1166 1.0333457
1164 1.1445266
1162 1.19566
1160 1.23394
1158 1.2446263
1156 1.2332686
1154 1.1819811
1152 1.0940899
1150 0.95504522
1148 0.78574318
1146 0.58790213
1144 0.40465093
1142 0.24072561
1140 0.11877582
1138 0.028917611
1136 -0.037045572
1134 -0.079334974
1132 -0.053989839
1130 0.016797304
1128 0.19149491
1126 0.40120465
1124 0.64727145
1122 0.88872737
1120 1.071548
1118 1.2344737
1116 1.3196057
1114 1.4010335
1112 1.4726012
1110 1.5462439
1108 1.6249574
1106 1.6912299
1104 1.7256845
1102 1.7457405
1100 1.7379971
1098 1.725974
1096 1.7114571
1094 1.7242633
1092 1.779166
1090 1.9012712
1088 2.0932176
1086 2.3245435
1084 2.5831151
1082 2.8208523
1080 3.0403943
1078 3.2151759
1076 3.35956
1074 3.4286199
1072 3.4627624
1070 3.4252133
1068 3.3707285
1066 3.3107049
1064 3.246484
1062 3.1569915
1060 3.0575907
1058 2.9024165
1056 2.7627914
1054 2.6929264
1052 2.6586361
1050 2.7361982
1048 2.8054743
1046 2.8506286
1044 2.850246
1042 2.7634978
1040 2.6544251
1038 2.5130289
1036 2.37271
1034 2.2350433
1032 2.1078856
1030 1.9906493
1028 1.87441
1026 1.7578213
1024 1.6283017
1022 1.493039
1020 1.3707663
1018 1.2536662
1016 1.1422714
1014 1.0283558
1012 0.8695901
1010 0.6992051
1008 0.48126119
1006 0.25991321
1004 0.044296995
1002 -0.15730792
1000 -0.26335609
998 -0.34761566
996 -0.33664286
994 -0.3265959
992 -0.32002956
990 -0.31435969
988 -0.30936795
986 -0.27907887
984 -0.204606
982 -0.13433699
980 -0.072272301
978 -0.063210919
976 -0.11150999
974 -0.203748
972 -0.32981843
970 -0.43519878
968 -0.52422047
966 -0.5502975
964 -0.54595965
962 -0.50404888
960 -0.44796157
958 -0.33980468
956 -0.21952835
954 -0.069520429
952 0.078882724
950 0.10530707
948 0.120906
946 0.053494714
944 -9.9449186e-05
942 -0.0031420146
940 -0.0065313205
938 0.11208789
936 0.24944885
934 0.4417448
932 0.62499225
930 0.78700197
928 0.86751133
926 0.8169108
924 0.7059474
922 0.52387893
920 0.43827018
918 0.44296837
916 0.52306175
914 0.65453213
912 0.67343831
910 0.63287365
908 0.48310152
906 0.29338357
904 0.10376288
902 -0.084038325
900 -0.17353949
898 -0.24644604
896 -0.10387
