##TITLE=Methyl Ethyl Ketone
##JCAMP-DX=4.24
##DATA TYPE=INFRARED SPECTRUM
##XUNITS=cm-1
##YUNITS=Absorbance
##FIRSTX=900
##LASTX=2300
##XYDATA=(X++(Y..Y))
2296 0.074615002
2294 0.076166779
2292 0.077719562
2290 0.079271339
2288 0.080824114
2286 0.082375899
2284 0.083928674
2282 0.085480459
2280 0.087033227
2278 0.088585019
2276 0.09013778
2274 0.091689579
2272 0.09324234
2270 0.094794139
2268 0.096345924
2266 0.097898684
2264 0.09945146
2262 0.10100228
2260 0.10255989
2258 0.10410792
2256 0.10565571
2254 0.10721321
2252 0.10876129
2250 0.11031874
2248 0.11186685
2246 0.11342429
2244 0.046667341
2242 0.0017006142
2240 -0.002951616
2238 0.029153146
2236 0.06634219
2234 0.14920461
2232 0.23637457
2230 0.34663263
2228 0.44925922
2226 0.48168501
2224 0.48928624
2222 0.39938569
2220 0.30027032
2218 0.18882671
2216 0.099363796
2214 0.059497558
2212 0.048555162
2210 0.080097899
2208 0.11897343
2206 0.16374364
2204 0.1877088
2202 0.19129826
2200 0.18155824
2198 0.1628717
2196 0.17077786
2194 0.19430698
2192 0.25703976
2190 0.33648288
2188 0.43615851
2186 0.54205686
2184 0.66407675
2182 0.78972757
2180 0.90691054
2178 1.0221794
2176 1.0869401
2174 1.1443154
2172 1.1700805
2170 1.19121
2168 1.2029126
2166 1.2141507
2164 1.2271554
2162 1.2517306
2160 1.3056629
2158 1.3697928
2156 1.4478401
2154 1.4992908
2152 1.5100315
2150 1.4763047
2148 1.3970011
2146 1.3307786
2144 1.2802199
2142 1.313437
2140 1.4038583
2138 1.5457197
2136 1.7123513
2134 1.8217204
2132 1.9062474
2130 1.901709
2128 1.8695279
2126 1.83096
2124 1.7912897
2122 1.8096064
2120 1.8381668
2118 1.8857046
2116 1.9313143
2114 1.943886
2112 1.9456817
2110 1.9218669
2108 1.9041754
2106 1.9160879
2104 1.9494491
2102 2.0204716
2100 2.0786581
2098 2.1057179
2096 2.0945857
2094 2.0392313
2092 1.9856209
2090 1.9405596
2088 1.9255006
2086 1.93488
2084 1.9608146
2082 1.9957666
2080 2.0160999
2078 2.0277495
2076 2.0046201
2074 1.9673526
2072 1.947844
2070 1.9343147
2068 1.9995062
2066 2.0836358
2064 2.1932092
2062 2.3005662
2060 2.3440742
2058 2.363493
2056 2.3200827
2054 2.2654207
2052 2.2126501
2050 2.1741555
2048 2.1688874
2046 2.1765749
2044 2.1955841
2042 2.2081587
2040 2.2101817
2038 2.1816499
2036 2.1216199
2034 2.0537193
2032 1.9832885
2030 1.982779
2028 2.0357697
2026 2.1234713
2024 2.2265222
2022 2.2498956
2020 2.2298059
2018 2.1585021
2016 2.0692999
2014 2.0340106
2012 2.0194967
2010 2.0480125
2008 2.086024
2006 2.0815899
2004 2.061147
2002 1.9978241
2000 1.9318103
1998 1.8922457
1996 1.8720785
1994 1.8850485
1992 1.8905394
1990 1.8686855
1988 1.822174
1986 1.7548985
1984 1.6970342
1982 1.6587809
1980 1.6444638
1978 1.6476008
1976 1.6705457
1974 1.705775
1972 1.7549037
1970 1.8108271
1968 1.84822
1966 1.8734843
1964 1.8532153
1962 1.812687
1960 1.7660201
1958 1.7188472
1956 1.6928872
1954 1.6761086
1952 1.6642046
1950 1.6569324
1948 1.642776
1946 1.62
1944 1.5694846
1942 1.4983401
1940 1.417182
1938 1.3393599
1936 1.285803
1934 1.2557609
1932 1.2468101
1930 1.2690911
1928 1.320128
1926 1.4233915
1924 1.5772586
1922 1.7486507
1920 1.9310457
1918 2.0228291
1916 2.0417972
1914 1.9868919
1912 1.8871325
1910 1.7970669
1908 1.7153317
1906 1.64331
1904 1.57776
1902 1.549137
1900 1.5406971
1898 1.581084
1896 1.6395857
1894 1.6594366
1892 1.6514513
1890 1.5733629
1888 1.4671119
1886 1.3733178
1884 1.2956711
1882 1.2572676
1880 1.2407817
1878 1.2334331
1876 1.24488
1874 1.2657685
1872 1.298752
1870 1.3339934
1868 1.3187809
1866 1.2624643
1864 1.1488806
1862 1.0080436
1860 0.88868541
1858 0.78662419
1856 0.72240198
1854 0.67491537
1852 0.72198927
1850 0.82137281
1848 1.0419376
1846 1.3180964
1844 1.4643186
1842 1.5241694
1840 1.3381886
1838 1.0447428
1836 0.75761974
1834 0.50829321
1832 0.38090858
1830 0.33074886
1828 0.380501
1826 0.44235694
1824 0.4662019
1822 0.43287101
1820 0.308294
1818 0.18159373
1816 0.088912293
1814 0.072461039
1812 0.13712044
1810 0.2096855
1808 0.26466081
1806 0.29319102
1804 0.30194777
1802 0.38645664
1800 0.53555024
1798 0.735439
1796 0.9615286
1794 1.0461864
1792 1.039736
1790 0.89915234
1788 0.69642258
1786 0.55264097
1784 0.45740378
1782 0.4143157
1780 0.41568115
1778 0.4766641
1776 0.57005715
1774 0.66191185
1772 0.68640488
1770 0.55779982
1768 0.34294015
1766 0.12893605
1764 -0.0056125
1762 -0.015247226
1760 0.037959836
1758 -0.0003949143
1756 -0.072735623
1754 -0.11560701
1752 -0.020842783
1750 0.21568373
1748 0.50855988
1746 0.82487392
1744 0.95488489
1742 0.92581767
1740 0.82522678
1738 0.68411267
1736 0.60666001
1734 0.56655139
1732 0.39635837
1730 0.13728918
1728 -0.17894669
1726 -0.48353493
1724 -0.5602178
1722 -0.41383609
1720 0.02837497
1718 0.68550849
1716 1.6154816
1714 2.6369066
1712 3.5389423
1710 4.3982215
1708 5.2538018
1706 6.3401952
1704 7.8232436
1702 9.8814125
1700 12.594223
1698 15.720349
1696 19.124857
1694 22.265211
1692 24.945269
1690 27.452812
1688 29.879885
1686 32.853245
1684 36.394802
1682 40.329403
1680 44.555679
1678 48.242744
1676 51.454086
1674 54.716305
1672 58.068474
1670 61.948547
1668 66.205261
1666 70.409653
1664 74.527428
1662 78.368446
1660 81.944275
1658 85.216217
1656 88.244942
1654 91.103386
1652 93.767998
1650 96.243103
1648 97.951881
1646 98.51268
1644 98.090065
1642 96.898247
1640 95.14843
1638 93.00029
1636 90.150566
1634 86.58551
1632 82.664551
1630 78.575844
1628 74.60257
1626 70.775139
1624 66.777557
1622 62.576775
1620 58.346416
1618 54.114342
1616 50.044514
1614 46.173168
1612 42.67152
1610 39.572308
1608 36.902431
1606 34.633244
1604 32.615993
1602 30.853748
1600 29.313515
1598 28.009762
1596 26.921
1594 26.032166
1592 25.301348
1590 24.71575
1588 24.248343
1586 23.93947
1584 23.793718
1582 23.859289
1580 24.132252
1578 24.673151
1576 25.494884
1574 26.511255
1572 27.710192
1570 28.86187
1568 29.92312
1566 30.913542
1564 31.833128
1562 32.964691
1560 34.378738
1558 36.428257
1556 39.035599
1554 41.400539
1552 43.436039
1550 44.864639
1548 45.830631
1546 46.860107
1544 47.994019
1542 49.310074
1540 50.502399
1538 51.23103
1536 51.334743
1534 50.69593
1532 49.707165
1530 48.690689
1528 47.718098
1526 46.845501
1524 45.925156
1522 44.896851
1520 43.486691
1518 41.615753
1516 39.602459
1514 37.522629
1512 35.600838
1510 33.841553
1508 31.638742
1506 28.828293
1504 25.854816
1502 22.790489
1500 20.20351
1498 18.15353
1496 16.147999
1494 14.156161
1492 12.092398
1490 9.953186
1488 7.8250713
1486 5.7600598
1484 3.84447
1482 2.2279806
1480 1.0158944
1478 0.26860788
1476 0.07728266
1474 0.46690914
1472 1.3386991
1470 2.2896349
1468 3.1166737
1466 3.8895242
1464 4.5788116
1462 5.3181152
1460 6.1603498
1458 6.8581858
1456 7.3123598
1454 7.3832574
1452 6.9468107
1450 6.4411154
1448 5.8846674
1446 5.3719716
1444 4.918808
1442 4.5161629
1440 4.1693721
1438 3.8697679
1436 3.5735331
1434 3.1982112
1432 2.7151966
1430 2.1658478
1428 1.6380999
1426 1.2606293
1424 1.0771171
1422 1.0956129
1420 1.2407072
1418 1.4404335
1416 1.6392343
1414 1.79436
1412 1.9910529
1410 2.2506747
1408 2.5794771
1406 2.9873466
1404 3.4162536
1402 3.8789861
1400 4.3255162
1398 4.7479572
1396 5.0849428
1394 5.2797894
1392 5.3568959
1390 5.2787256
1388 5.143292
1386 4.9301949
1384 4.6795602
1382 4.3835487
1380 4.1037917
1378 3.8437471
1376 3.6281114
1374 3.4238248
1372 3.193332
1370 2.9318585
1368 2.6333263
1366 2.3262372
1364 2.0149598
1362 1.6831012
1360 1.3253714
1358 0.96199834
1356 0.62244445
1354 0.343476
1352 0.15199375
1350 0.025814988
1348 -0.034080796
1346 -0.080596894
1344 0.0041586831
1342 0.16124222
1340 0.43552577
1338 0.68765777
1336 0.89156431
1334 0.98664117
1332 0.94223905
1330 0.87170309
1328 0.77999455
1326 0.74964732
1324 0.79546046
1322 0.93092144
1320 1.1590612
1318 1.4360558
1316 1.73666
1314 1.984144
1312 2.1738875
1310 2.2719052
1308 2.3128543
1306 2.3124671
1304 2.2959766
1302 2.288168
1300 2.2963715
1298 2.3553703
1296 2.4448714
1294 2.5889664
1292 2.7370856
1290 2.8702042
1288 2.98124
1286 3.0443063
1284 3.1046228
1282 3.1740482
1280 3.2549679
1278 3.3648787
1276 3.4838257
1274 3.613652
1272 3.7555673
1270 3.912926
1268 4.0905733
1266 4.3078909
1264 4.5647335
1262 4.886703
1260 5.2694998
1258 5.7208948
1256 6.219326
1254 6.7606301
1252 7.3259673
1250 7.9152083
1248 8.533576
1246 9.1660004
1244 9.806756
1242 10.432601
1240 11.0046
1238 11.529112
1236 11.940201
1234 12.279733
1232 12.451679
1230 12.549529
1228 12.4561
1226 12.307878
1224 12.015777
1222 11.687063
1220 11.271023
1218 10.82032
1216 10.298201
1214 9.7324686
1212 9.0945501
1210 8.4428835
1208 7.780416
1206 7.1526232
1204 6.565196
1202 5.9844246
1200 5.4022903
1198 4.7882667
1196 4.1548142
1194 3.5392234
1192 2.9521472
1190 2.4428401
1188 1.9894409
1186 1.6268178
1184 1.3121029
1182 1.0725179
1180 0.86514896
1178 0.7166577
1176 0.59592003
1174 0.55331016
1172 0.53425771
1170 0.59086156
1168 0.63820636
1166 0.65716535
1164 0.63696837
1162 0.52056277
1160 0.38502383
1158 0.21543288
1156 0.071968742
1154 -0.025683537
1152 -0.087408498
1150 -0.1029294
1148 -0.1093764
1146 -0.10616785
1144 -0.10166256
1142 -0.087131329
1140 -0.028574597
1138 0.068690166
1136 0.22522628
1134 0.44623768
1132 0.75339115
1130 1.0987597
1128 1.4698057
1126 1.8504
1124 2.242182
1122 2.6399484
1120 3.0599999
1118 3.4766161
1116 3.8648829
1114 4.2456646
1112 4.5977263
1110 4.9607983
1108 5.3586593
1106 5.7569599
1104 6.1548271
1102 6.5360441
1100 6.8869658
1098 7.2466764
1096 7.620214
1094 7.9988208
1092 8.3811235
1090 8.7443037
1088 9.091773
1086 9.4553013
1084 9.8370237
1082 10.264185
1080 10.707336
1078 11.08524
1076 11.403557
1074 11.514594
1072 11.544075
1070 11.470069
1068 11.384525
1066 11.373878
1064 11.376121
1062 11.401964
1060 11.413925
1058 11.326313
1056 11.208086
1054 10.952965
1052 10.665766
1050 10.276747
1048 9.8700924
1046 9.4222393
1044 8.9661713
1042 8.4972153
1040 8.0362864
1038 7.5895452
1036 7.1620898
1034 6.7557096
1032 6.3505793
1030 5.9457612
1028 5.5449705
1026 5.1498947
1024 4.7904229
1022 4.4537797
1020 4.1577911
1018 3.8780737
1016 3.5981743
1014 3.3144062
1012 2.9879928
1010 2.6534595
1008 2.311976
1006 1.9743721
1004 1.6919227
1002 1.4103514
1000 1.1320792
998 0.84112167
996 0.49497142
994 0.15188281
992 -0.17837915
990 -0.47254756
988 -0.68245274
986 -0.86521053
984 -1.0015026
982 -1.121063
980 -1.2150501
978 -1.2325978
976 -1.164672
974 -0.98413932
972 -0.7106806
970 -0.37705162
968 -0.008446902
966 0.3504805
964 0.69832361
962 0.91780519
960 1.0862509
958 1.0349733
956 0.93250102
954 0.71992838
952 0.4962312
950 0.31945646
948 0.15085752
946 0.070429765
944 0.00037228284
942 -0.0018022135
940 -0.05546242
938 -0.074831448
936 -0.091075771
934 -0.098891497
932 -0.10518817
930 -0.10812935
928 -0.10713863
926 -0.09954229
924 -0.066408008
922 -0.0016878396
920 0.12802914
918 0.31873864
916 0.52727014
914 0.74729174
912 0.84607863
910 0.87840372
908 0.83555681
906 0.76164782
904 0.83004034
902 0.93360275
900 1.130002
898 1.3402393
896 1.4376
