Image.
>Pix99999.
  .
5555
5555
2300
900
5555
2
1
0
701
5555
4.9554002e-002
5.0585523e-002
5.1616050e-002
5.2647576e-002
5.3678103e-002
5.4708626e-002
5.5740144e-002
5.6770682e-002
5.7801206e-002
5.8831729e-002
5.9863243e-002
6.0895748e-002
6.1925326e-002
6.2951915e-002
6.3987255e-002
6.5034524e-002
6.6048801e-002
6.7016490e-002
6.8108790e-002
6.9377393e-002
7.0179433e-002
7.0326164e-002
7.2206125e-002
7.6529197e-002
7.4411333e-002
5.7938144e-002
3.3806473e-002
1.4358811e-002
1.8155800e-002
5.8069158e-002
1.1709397e-001
1.7448932e-001
2.2882862e-001
2.8105867e-001
3.1914148e-001
3.3277801e-001
3.3432961e-001
3.4219393e-001
3.7210792e-001
4.3456477e-001
5.2224344e-001
6.2091798e-001
7.0984542e-001
7.6826376e-001
7.8314501e-001
7.5092608e-001
6.9670439e-001
6.5031582e-001
6.2527692e-001
6.2560374e-001
6.3785857e-001
6.4849716e-001
6.6539520e-001
7.0040792e-001
7.5385332e-001
8.2057208e-001
8.8843238e-001
9.4593465e-001
9.9295866e-001
1.0310469e+000
1.0532171e+000
1.0541785e+000
1.0460794e+000
1.0474840e+000
1.0780463e+000
1.1494079e+000
1.2380049e+000
1.3106139e+000
1.3426800e+000
1.3201600e+000
1.2577300e+000
1.1784055e+000
1.1016582e+000
1.0388927e+000
9.7778755e-001
9.0215927e-001
8.1397015e-001
7.2845650e-001
6.8815881e-001
7.3348981e-001
8.5731083e-001
1.0304312e+000
1.2037460e+000
1.3309172e+000
1.4050521e+000
1.4325285e+000
1.4145871e+000
1.3509254e+000
1.2456039e+000
1.1104602e+000
9.8331368e-001
9.0574670e-001
8.9524108e-001
9.5314723e-001
1.0525604e+000
1.1578685e+000
1.2389852e+000
1.2730309e+000
1.2546121e+000
1.1898698e+000
1.1064286e+000
1.0369527e+000
1.0026624e+000
1.0134192e+000
1.0506531e+000
1.0864500e+000
1.0990826e+000
1.0742233e+000
1.0175731e+000
9.4528514e-001
8.8508403e-001
8.6561155e-001
9.0173560e-001
9.9310708e-001
1.0997952e+000
1.1696322e+000
1.1654669e+000
1.0699030e+000
9.2002577e-001
7.7125895e-001
6.6349888e-001
6.1922491e-001
6.1982542e-001
6.3287133e-001
6.3913047e-001
6.3104391e-001
6.2300920e-001
6.3405496e-001
6.6450113e-001
7.0576757e-001
7.4789816e-001
7.8281689e-001
8.1117952e-001
8.3442354e-001
8.4120083e-001
8.2023311e-001
7.8537327e-001
7.6045942e-001
7.6290810e-001
7.9761291e-001
8.3156800e-001
8.2338017e-001
7.6800323e-001
6.8297315e-001
6.0706139e-001
5.7888377e-001
5.9937447e-001
6.4880031e-001
6.9583249e-001
7.1034473e-001
6.8568283e-001
6.2962705e-001
5.6337976e-001
5.1128614e-001
4.8713660e-001
4.9482620e-001
5.1899183e-001
5.3589427e-001
5.2395147e-001
4.7064361e-001
3.9519599e-001
3.3306369e-001
3.2333782e-001
3.9290655e-001
5.1319927e-001
6.3057750e-001
7.0205528e-001
7.0432061e-001
6.6745281e-001
6.3992250e-001
6.3602948e-001
6.4786333e-001
6.5475082e-001
6.3587183e-001
5.9193140e-001
5.3435004e-001
4.7136393e-001
4.0899944e-001
3.5445845e-001
3.1351256e-001
2.8227887e-001
2.4986283e-001
1.9739419e-001
1.0890767e-001
-2.4117045e-003
-1.0224314e-001
-1.3335738e-001
-4.3950349e-002
1.4633626e-001
3.7643170e-001
5.7731801e-001
6.9344020e-001
7.3245865e-001
7.3078060e-001
6.9822210e-001
6.2844807e-001
5.2193922e-001
3.9174828e-001
2.8266758e-001
2.4685861e-001
2.9284000e-001
3.9645457e-001
5.0534284e-001
5.6127191e-001
5.4041076e-001
4.4689327e-001
3.1557921e-001
1.9182740e-001
9.7781636e-002
3.7776489e-002
3.7571699e-003
-1.4048629e-002
-7.2651468e-003
3.9987423e-002
1.2689015e-001
2.3801349e-001
3.4210104e-001
4.0482581e-001
4.1543582e-001
3.7879062e-001
3.0227229e-001
1.9500020e-001
7.3947981e-002
-4.0337469e-002
-1.3271800e-001
-1.9454858e-001
-2.2904137e-001
-2.4609022e-001
-2.5440127e-001
-2.5904050e-001
-2.5556645e-001
-2.3118690e-001
-1.6186011e-001
-2.7579505e-002
1.4441511e-001
2.9561973e-001
3.6584136e-001
3.1137186e-001
1.5212482e-001
-5.2290380e-002
-2.4777199e-001
-3.9294627e-001
-4.6661127e-001
-4.5966467e-001
-3.6215344e-001
-1.7319384e-001
5.7985261e-002
2.5228792e-001
3.4756693e-001
3.1667343e-001
2.2133857e-001
1.6910467e-001
2.1126321e-001
3.4453839e-001
5.2382845e-001
6.8979657e-001
8.2326436e-001
9.3562406e-001
1.0381655e+000
1.1374700e+000
1.2371458e+000
1.3302157e+000
1.3685309e+000
1.2855735e+000
1.0628506e+000
7.3422748e-001
3.9988041e-001
1.7547970e-001
5.2944161e-002
-5.1163707e-002
-1.3124540e-001
-1.1440557e-001
2.6336983e-002
2.6168665e-001
5.0554401e-001
6.4815325e-001
6.3539946e-001
4.7901851e-001
2.8216404e-001
1.9105452e-001
2.6559600e-001
4.7235179e-001
6.8544006e-001
7.4340069e-001
5.9538251e-001
3.0030751e-001
-3.2304823e-003
-1.3391431e-001
6.7211583e-002
6.9037342e-001
1.6175799e+000
2.5885398e+000
3.4182091e+000
4.0474648e+000
4.6211438e+000
5.4285593e+000
6.7415991e+000
8.7667408e+000
1.1574639e+001
1.5071526e+001
1.8870142e+001
2.2426060e+001
2.5484175e+001
2.8126289e+001
3.0762016e+001
3.3985867e+001
3.8206184e+001
4.3503757e+001
4.9296680e+001
5.4633190e+001
5.9276543e+001
6.3669476e+001
6.8246994e+001
7.3223015e+001
7.8323509e+001
8.2945396e+001
8.6785675e+001
8.9876328e+001
9.2326477e+001
9.4252907e+001
9.5748398e+001
9.6874641e+001
9.7647324e+001
9.8022324e+001
9.7840263e+001
9.6900497e+001
9.5273735e+001
9.3260612e+001
9.1039398e+001
8.8613976e+001
8.5873222e+001
8.2667610e+001
7.9027451e+001
7.5135490e+001
7.1067299e+001
6.6774765e+001
6.2231117e+001
5.7474930e+001
5.2659782e+001
4.8020710e+001
4.3712944e+001
3.9794609e+001
3.6299446e+001
3.3248661e+001
3.0620611e+001
2.8358000e+001
2.6419794e+001
2.4789145e+001
2.3459623e+001
2.2424725e+001
2.1659500e+001
2.1126110e+001
2.0803623e+001
2.0694496e+001
2.0816593e+001
2.1191372e+001
2.1809216e+001
2.2637209e+001
2.3688004e+001
2.5027100e+001
2.6730171e+001
2.8854010e+001
3.1354816e+001
3.4085815e+001
3.6888439e+001
3.9623787e+001
4.2205994e+001
4.4639820e+001
4.7127155e+001
4.9970802e+001
5.3033955e+001
5.5719761e+001
5.7579788e+001
5.8489323e+001
5.8642456e+001
5.8456463e+001
5.8099827e+001
5.7412411e+001
5.6193859e+001
5.4323425e+001
5.1942829e+001
4.9440586e+001
4.7091125e+001
4.4964474e+001
4.3014351e+001
4.1114349e+001
3.9142223e+001
3.7014637e+001
3.4736473e+001
3.2410145e+001
3.0172514e+001
2.8145908e+001
2.6292641e+001
2.4403875e+001
2.2313423e+001
1.9979349e+001
1.7527081e+001
1.5222686e+001
1.3196620e+001
1.1380810e+001
9.6773710e+000
8.0162354e+000
6.4058161e+000
4.9329958e+000
3.6419508e+000
2.5086722e+000
1.5238661e+000
7.1697181e-001
1.3755536e-001
-1.4195296e-001
-3.5987198e-003
6.8814939e-001
1.8945720e+000
3.3600640e+000
4.8432775e+000
6.2005658e+000
7.4102840e+000
8.5773506e+000
9.8066998e+000
1.1143606e+001
1.2496800e+001
1.3629099e+001
1.4353728e+001
1.4607358e+001
1.4430046e+001
1.3956679e+001
1.3314303e+001
1.2584990e+001
1.1821245e+001
1.1044867e+001
1.0248791e+001
9.4073744e+000
8.5306406e+000
7.6863976e+000
6.9453759e+000
6.3618879e+000
5.9648247e+000
5.7502489e+000
5.6929450e+000
5.7487803e+000
5.8724141e+000
6.0272322e+000
6.2034245e+000
6.4241939e+000
6.7072549e+000
7.0486150e+000
7.4194403e+000
7.7620950e+000
8.0111122e+000
8.1043453e+000
8.0106430e+000
7.7472630e+000
7.3640532e+000
6.9387116e+000
6.5299864e+000
6.1576753e+000
5.8235092e+000
5.5142794e+000
5.2100024e+000
4.8851619e+000
4.5127368e+000
4.0693026e+000
3.5542979e+000
2.9996378e+000
2.4372721e+000
1.8869900e+000
1.3601806e+000
8.6247599e-001
4.1659674e-001
7.0526585e-002
-1.4034885e-001
-2.0840274e-001
-1.2712982e-001
1.1507279e-001
5.1366663e-001
1.0369942e+000
1.6497999e+000
2.3175223e+000
2.9859805e+000
3.5706582e+000
3.9895630e+000
4.1822810e+000
4.1336827e+000
3.8951962e+000
3.5337973e+000
3.1170330e+000
2.7096436e+000
2.3688993e+000
2.1321640e+000
2.0029953e+000
1.9570000e+000
1.9370949e+000
1.8898914e+000
1.7840729e+000
1.6139071e+000
1.4099685e+000
1.2132902e+000
1.0678511e+000
1.0096287e+000
1.0576574e+000
1.2181429e+000
1.4815702e+000
1.8346543e+000
2.2633038e+000
2.7505760e+000
3.2732406e+000
3.7975485e+000
4.2752242e+000
4.6634545e+000
4.9388332e+000
5.1025414e+000
5.1927781e+000
5.2556748e+000
5.3351407e+000
5.4651847e+000
5.6627460e+000
5.9436302e+000
6.3285079e+000
6.8339219e+000
7.4651899e+000
8.2149687e+000
9.0568666e+000
9.9630156e+000
1.0911272e+001
1.1883657e+001
1.2867500e+001
1.3845380e+001
1.4785957e+001
1.5641760e+001
1.6346357e+001
1.6831213e+001
1.7040724e+001
1.6936520e+001
1.6507727e+001
1.5766292e+001
1.4760271e+001
1.3557960e+001
1.2251300e+001
1.0940256e+001
9.7243681e+000
8.6915112e+000
7.9052644e+000
7.4023004e+000
7.1729846e+000
7.1768537e+000
7.3306751e+000
7.5377760e+000
7.6955519e+000
7.7111869e+000
7.5185914e+000
7.0837431e+000
6.4299974e+000
5.6159811e+000
4.7448206e+000
3.9187443e+000
3.2122955e+000
2.6669478e+000
2.2667360e+000
1.9803163e+000
1.7737693e+000
1.6243199e+000
1.5353110e+000
1.5123186e+000
1.5516400e+000
1.6418148e+000
1.7591672e+000
1.8776703e+000
1.9732660e+000
2.0218496e+000
1.9994770e+000
1.8911514e+000
1.7029791e+000
1.4520063e+000
1.1683095e+000
8.8028079e-001
6.0653281e-001
3.6785823e-001
1.9296980e-001
8.8489488e-002
6.8865195e-003
-9.4352201e-002
-2.1461850e-001
-3.3577180e-001
-4.2324191e-001
-4.4596761e-001
-3.9262623e-001
-2.7346978e-001
-1.3828471e-001
-3.4381479e-002
2.1898620e-002
3.8898487e-002
6.5570995e-002
1.4319548e-001
2.6891395e-001
4.1965950e-001
5.5018246e-001
6.2748349e-001
6.6350549e-001
6.8707132e-001
7.4135292e-001
8.6149144e-001
1.0531400e+000
1.3137820e+000
1.6376257e+000
2.0179760e+000
2.4460757e+000
2.8999753e+000
3.3240469e+000
3.6524999e+000
3.8172431e+000
3.7733500e+000
3.5414524e+000
3.1752453e+000
2.7729678e+000
2.4293945e+000
2.1985464e+000
2.1047721e+000
2.1186047e+000
2.1962564e+000
2.2914405e+000
2.3619714e+000
2.3801134e+000
2.3299890e+000
2.2205839e+000
2.0763755e+000
1.9483286e+000
1.8814348e+000
1.8837572e+000
1.9474771e+000
2.0454948e+000
2.1551600e+000
2.2792213e+000
2.4171731e+000
2.5412261e+000
2.6196311e+000
2.6293664e+000
2.5597246e+000
2.4282382e+000
2.2524054e+000
2.0280972e+000
1.7539401e+000
1.4525024e+000
1.1511114e+000
8.7298751e-001
6.2193400e-001
3.4724909e-001
6.1374605e-003
-3.7724796e-001
-7.5387222e-001
-1.0499096e+000
-1.2145572e+000
-1.2885240e+000
-1.3331159e+000
-1.4013318e+000
-1.5257674e+000
-1.6779900e+000
-1.8159382e+000
-1.9001904e+000
-1.8969260e+000
-1.7877594e+000
-1.5720172e+000
-1.2960836e+000
-1.0220263e+000
-8.2559764e-001
-7.6590157e-001
-8.3353245e-001
-9.9105752e-001
-1.1634911e+000
-1.2777206e+000
-1.2996217e+000
-1.2152942e+000
-1.0474529e+000
-8.2561761e-001
-5.7088190e-001
-3.1077152e-001
-1.0145289e-001
1.7297044e-002
8.9170687e-002
1.7050174e-001
2.8837949e-001
4.5708829e-001
6.7069870e-001
9.1379619e-001
1.1549312e+000
1.3697652e+000
1.5736443e+000
1.7801920e+000
1.9582094e+000
2.0642097e+000
2.0508814e+000
1.8962743e+000
1.6782497e+000
1.4971714e+000
1.4441310e+000
1.5781517e+000
1.8407543e+000
2.1415558e+000
2.3779531e+000
2.4833734e+000
2.5441015e+000
2.6849000e+000
