Image.
>Pix99999.
  .
5555
5555
2300
900
5555
2
1
0
701
5555
1.8556000e-001
1.8942447e-001
1.9327897e-001
1.9714342e-001
2.0099795e-001
2.0486236e-001
2.0872682e-001
2.1258141e-001
2.1644577e-001
2.2030036e-001
2.2416471e-001
2.2802919e-001
2.3188382e-001
2.3571868e-001
2.3960221e-001
2.4356493e-001
2.4732405e-001
2.5082502e-001
2.5504097e-001
2.6023805e-001
2.6280856e-001
2.6167721e-001
2.7032810e-001
2.9276726e-001
2.7886048e-001
1.8727286e-001
7.2456025e-002
-3.6526425e-004
-3.0755293e-002
-3.8798172e-002
-5.2674029e-002
-9.0656161e-002
-1.2244990e-001
-1.1641960e-001
-9.1959827e-002
-7.9480097e-002
-9.3416318e-002
-1.3640490e-001
-1.8294378e-001
-2.0520613e-001
-1.9927029e-001
-1.7206576e-001
-1.4514220e-001
-1.3907178e-001
-1.5285589e-001
-1.7621036e-001
-1.8790568e-001
-1.7051324e-001
-1.3505451e-001
-1.0379370e-001
-1.0865000e-001
-1.7524892e-001
-2.9188675e-001
-4.3167189e-001
-5.5389887e-001
-6.2369335e-001
-6.4690036e-001
-6.4345461e-001
-6.3729620e-001
-6.4481086e-001
-6.4741510e-001
-6.2233126e-001
-5.7622612e-001
-5.2756292e-001
-5.0250000e-001
-5.1911622e-001
-5.5282962e-001
-5.7118732e-001
-5.6791365e-001
-5.5082172e-001
-5.4775900e-001
-5.8352691e-001
-6.4368731e-001
-6.9980526e-001
-7.2213429e-001
-6.9003642e-001
-6.2063503e-001
-5.4382956e-001
-4.8785251e-001
-4.7279790e-001
-4.8923916e-001
-5.1842767e-001
-5.4613149e-001
-5.6234109e-001
-5.6635159e-001
-5.6023765e-001
-5.4395616e-001
-5.2053767e-001
-5.0940663e-001
-5.3205156e-001
-5.9350491e-001
-6.8685019e-001
-7.8193003e-001
-8.4679276e-001
-8.7713808e-001
-8.8096303e-001
-8.7274516e-001
-8.6349624e-001
-8.4141660e-001
-7.9055101e-001
-7.1455288e-001
-6.2909371e-001
-5.6700873e-001
-5.5959046e-001
-6.0529590e-001
-6.8713051e-001
-7.7842522e-001
-8.5462111e-001
-9.1370052e-001
-9.6197635e-001
-1.0025039e+000
-1.0352050e+000
-1.0534720e+000
-1.0503815e+000
-1.0266972e+000
-9.8812765e-001
-9.4802189e-001
-9.2066014e-001
-9.1272533e-001
-9.2470050e-001
-9.4478458e-001
-9.5776325e-001
-9.5493913e-001
-9.3291897e-001
-8.9814240e-001
-8.6209786e-001
-8.4062481e-001
-8.4884548e-001
-8.9209372e-001
-9.6657133e-001
-1.0483232e+000
-1.1081445e+000
-1.1308960e+000
-1.1152511e+000
-1.0890685e+000
-1.0864022e+000
-1.1143137e+000
-1.1614361e+000
-1.1935391e+000
-1.1772012e+000
-1.1226799e+000
-1.0602497e+000
-1.0182651e+000
-1.0167679e+000
-1.0484035e+000
-1.0950501e+000
-1.1448506e+000
-1.1884010e+000
-1.2106845e+000
-1.1976125e+000
-1.1520071e+000
-1.0880176e+000
-1.0326349e+000
-1.0125480e+000
-1.0288980e+000
-1.0700142e+000
-1.1220880e+000
-1.1721876e+000
-1.2104548e+000
-1.2262832e+000
-1.1983600e+000
-1.1079340e+000
-9.6818364e-001
-8.1417769e-001
-7.0543623e-001
-6.9943517e-001
-7.9766643e-001
-9.6755236e-001
-1.1532880e+000
-1.2992693e+000
-1.3910872e+000
-1.4364989e+000
-1.4454526e+000
-1.4273056e+000
-1.3925203e+000
-1.3524750e+000
-1.3220137e+000
-1.3128091e+000
-1.3160268e+000
-1.3139763e+000
-1.2966057e+000
-1.2626774e+000
-1.2274181e+000
-1.2098587e+000
-1.2091589e+000
-1.2096322e+000
-1.1790271e+000
-1.0888513e+000
-9.5969915e-001
-8.3583939e-001
-7.4549544e-001
-6.9954342e-001
-6.8130779e-001
-6.7004496e-001
-6.8913883e-001
-7.7650267e-001
-9.2129880e-001
-1.0759457e+000
-1.1607660e+000
-1.1023363e+000
-9.2280716e-001
-7.0278943e-001
-5.3732693e-001
-5.0747436e-001
-6.1864293e-001
-8.2629550e-001
-1.0583285e+000
-1.2399082e+000
-1.3368812e+000
-1.3432103e+000
-1.2687501e+000
-1.1296846e+000
-9.3871641e-001
-7.1520561e-001
-5.1846021e-001
-4.2234865e-001
-4.5901978e-001
-6.2208998e-001
-8.5580611e-001
-1.0870919e+000
-1.2857400e+000
-1.4493272e+000
-1.5702560e+000
-1.6360271e+000
-1.6399840e+000
-1.5867572e+000
-1.5124694e+000
-1.4649932e+000
-1.4584503e+000
-1.4774888e+000
-1.4774414e+000
-1.4029160e+000
-1.2217828e+000
-9.3454677e-001
-6.1274385e-001
-3.6572891e-001
-2.7678022e-001
-3.8724363e-001
-6.4749455e-001
-9.5387322e-001
-1.2136343e+000
-1.3633090e+000
-1.4101031e+000
-1.4027387e+000
-1.3759663e+000
-1.3430700e+000
-1.2864134e+000
-1.1717294e+000
-9.7586811e-001
-6.9331890e-001
-3.5484570e-001
-2.1001257e-002
2.1852288e-001
2.8303769e-001
2.1003500e-001
1.1321685e-001
7.4893437e-002
1.3605109e-001
2.9526889e-001
5.2629548e-001
8.0570519e-001
1.1030703e+000
1.3317711e+000
1.3818853e+000
1.2202897e+000
8.9089739e-001
5.1778698e-001
2.4265441e-001
6.0885772e-002
-1.1765069e-001
-2.6185802e-001
-2.4962911e-001
-1.3519876e-002
4.3423739e-001
9.6195495e-001
1.3733572e+000
1.5445714e+000
1.4506118e+000
1.2247808e+000
1.0786437e+000
1.0825599e+000
1.1677346e+000
1.1823257e+000
9.6519655e-001
5.2356917e-001
1.1326209e-002
-3.6136177e-001
-3.7342381e-001
1.3725662e-001
1.2206876e+000
2.6310072e+000
3.9428496e+000
4.9335723e+000
5.6193748e+000
6.2363582e+000
7.1491265e+000
8.6484165e+000
1.0902645e+001
1.3884489e+001
1.7385115e+001
2.1020430e+001
2.4349821e+001
2.7221752e+001
2.9793186e+001
3.2481022e+001
3.5823479e+001
4.0108936e+001
4.5279263e+001
5.0739082e+001
5.5641598e+001
5.9876728e+001
6.3992222e+001
6.8437309e+001
7.3356895e+001
7.8373886e+001
8.2782898e+001
8.6250206e+001
8.8851334e+001
9.0779884e+001
9.2247116e+001
9.3388283e+001
9.4247406e+001
9.4780022e+001
9.4872139e+001
9.4370766e+001
9.3155075e+001
9.1382401e+001
8.9417542e+001
8.7432739e+001
8.5358032e+001
8.2979004e+001
8.0036354e+001
7.6496910e+001
7.2541656e+001
6.8320457e+001
6.3907093e+001
5.9335480e+001
5.4629414e+001
4.9882778e+001
4.5250565e+001
4.0864315e+001
3.6822395e+001
3.3224602e+001
3.0161631e+001
2.7626795e+001
2.5521257e+001
2.3744640e+001
2.2225470e+001
2.0953737e+001
1.9970316e+001
1.9305000e+001
1.8957273e+001
1.8880388e+001
1.8993195e+001
1.9246666e+001
1.9637194e+001
2.0197327e+001
2.0995090e+001
2.2141413e+001
2.3771393e+001
2.5942028e+001
2.8599617e+001
3.1560266e+001
3.4547070e+001
3.7387001e+001
4.0044537e+001
4.2527622e+001
4.4898548e+001
4.7412365e+001
5.0413925e+001
5.3727772e+001
5.6640362e+001
5.8627182e+001
5.9562981e+001
5.9715702e+001
5.9625038e+001
5.9506927e+001
5.9138527e+001
5.8174843e+001
5.6317677e+001
5.3681515e+001
5.0808784e+001
4.8154182e+001
4.5937813e+001
4.4171513e+001
4.2673100e+001
4.1187641e+001
3.9446602e+001
3.7303982e+001
3.4790981e+001
3.2130283e+001
2.9674435e+001
2.7525160e+001
2.5457861e+001
2.3217049e+001
2.0643486e+001
1.7852001e+001
1.5224381e+001
1.2989397e+001
1.1112850e+001
9.4811716e+000
7.9642315e+000
6.5062075e+000
5.1384072e+000
3.8605585e+000
2.6261978e+000
1.4595726e+000
4.8372155e-001
-1.6875976e-001
-3.8004744e-001
-3.7630975e-002
9.2834473e-001
2.3716805e+000
3.9127090e+000
5.2890625e+000
6.4675307e+000
7.5333238e+000
8.6483765e+000
9.9190483e+000
1.1332508e+001
1.2716000e+001
1.3749783e+001
1.4239161e+001
1.4203789e+001
1.3760783e+001
1.3087536e+001
1.2340037e+001
1.1620140e+001
1.0980520e+001
1.0414266e+001
9.8528328e+000
9.1761227e+000
8.3347597e+000
7.3973484e+000
6.4917641e+000
5.7784042e+000
5.3478022e+000
5.1775165e+000
5.1870966e+000
5.2583222e+000
5.3140712e+000
5.3523679e+000
5.4188285e+000
5.5950618e+000
5.9235706e+000
6.3774443e+000
6.9043369e+000
7.4367251e+000
7.9023519e+000
8.2295151e+000
8.3593140e+000
8.2596264e+000
7.9496965e+000
7.5120702e+000
7.0230832e+000
6.5267000e+000
6.0459504e+000
5.5840859e+000
5.1448236e+000
4.7349186e+000
4.3390570e+000
3.9104457e+000
3.4123621e+000
2.8384101e+000
2.2132492e+000
1.5954685e+000
1.0312271e+000
5.3626186e-001
1.2206770e-001
-1.9421290e-001
-3.8293299e-001
-3.9998108e-001
-2.1636480e-001
1.6473714e-001
7.1469319e-001
1.3778286e+000
2.1047759e+000
2.8626294e+000
3.6023946e+000
4.2412553e+000
4.6781602e+000
4.8075008e+000
4.6007824e+000
4.1569510e+000
3.6013787e+000
3.0522094e+000
2.6044948e+000
2.3122106e+000
2.1880708e+000
2.1881704e+000
2.2377300e+000
2.2376845e+000
2.1207938e+000
1.8868593e+000
1.5735557e+000
1.2543257e+000
9.9170744e-001
8.1401902e-001
7.3238873e-001
7.4353117e-001
8.5032856e-001
1.0713805e+000
1.4234120e+000
1.9098723e+000
2.5082479e+000
3.1560585e+000
3.7850573e+000
4.3361754e+000
4.7735891e+000
5.1001420e+000
5.3325787e+000
5.4969192e+000
5.6211429e+000
5.7334700e+000
5.8634143e+000
6.0417118e+000
6.2950354e+000
6.6414938e+000
7.0931063e+000
7.6542492e+000
8.3256769e+000
9.1035872e+000
9.9803743e+000
1.0942156e+001
1.1970526e+001
1.3042500e+001
1.4124977e+001
1.5171412e+001
1.6129332e+001
1.6935495e+001
1.7531086e+001
1.7868971e+001
1.7915838e+001
1.7657906e+001
1.7093895e+001
1.6242615e+001
1.5134583e+001
1.3822782e+001
1.2388966e+001
1.0967146e+001
9.6974859e+000
8.7063160e+000
8.0794344e+000
7.8204961e+000
7.8822451e+000
8.1509552e+000
8.4892340e+000
8.7466278e+000
8.7971611e+000
8.5768661e+000
8.0714006e+000
7.3405857e+000
6.4682493e+000
5.5503411e+000
4.6708269e+000
3.8807008e+000
3.2093234e+000
2.6560459e+000
2.2112501e+000
1.8611145e+000
1.5923400e+000
1.3953866e+000
1.2635511e+000
1.1951555e+000
1.1899954e+000
1.2476465e+000
1.3594851e+000
1.4988381e+000
1.6309743e+000
1.7144932e+000
1.7169515e+000
1.6302197e+000
1.4620759e+000
1.2423390e+000
1.0022724e+000
7.6373535e-001
5.4343474e-001
3.5054636e-001
1.8585473e-001
3.6049537e-002
-1.0381649e-001
-2.1239251e-001
-2.7452698e-001
-3.0439967e-001
-3.2076806e-001
-3.3578351e-001
-3.5355896e-001
-3.6324254e-001
-3.5635602e-001
-3.3844715e-001
-3.1541759e-001
-2.8523219e-001
-2.3970079e-001
-1.6082823e-001
-3.4510702e-002
1.3684900e-001
3.3942771e-001
5.4173374e-001
7.1882635e-001
8.7446684e-001
1.0320429e+000
1.2457144e+000
1.5591301e+000
1.9688125e+000
2.4480834e+000
2.9400065e+000
3.3882182e+000
3.7568204e+000
4.0209565e+000
4.1719518e+000
4.2082653e+000
4.1376581e+000
3.9762828e+000
3.7570844e+000
3.5192959e+000
3.3068528e+000
3.1520040e+000
3.0510271e+000
2.9851317e+000
2.9188733e+000
2.8223057e+000
2.6918876e+000
2.5402668e+000
2.4069400e+000
2.3279245e+000
2.3111894e+000
2.3460686e+000
2.3903837e+000
2.4111006e+000
2.4237733e+000
2.4605000e+000
2.5644822e+000
2.7553766e+000
2.9764645e+000
3.1500514e+000
3.1935816e+000
3.0533810e+000
2.7638969e+000
2.3858838e+000
1.9927473e+000
1.6454000e+000
1.3565569e+000
1.1221035e+000
9.2190164e-001
7.3245162e-001
5.3261125e-001
3.0956772e-001
7.4309304e-002
-1.5924267e-001
-3.8619041e-001
-6.0381639e-001
-8.0910289e-001
-9.9457794e-001
-1.1389213e+000
-1.2206806e+000
-1.2291435e+000
-1.1625257e+000
-1.0402708e+000
-8.8869941e-001
-7.4000049e-001
-6.1802346e-001
-5.1445234e-001
-4.1303894e-001
-2.9758090e-001
-1.5594380e-001
1.0245666e-002
1.9195120e-001
3.6613685e-001
4.9910232e-001
5.3325284e-001
4.2667314e-001
2.1286498e-001
-4.0658638e-002
-2.1420307e-001
-2.1688899e-001
-1.0481353e-001
4.1851148e-002
1.8723355e-001
3.1703103e-001
4.5483571e-001
6.3153970e-001
8.6980915e-001
1.1671071e+000
1.4363813e+000
1.5887572e+000
1.6061785e+000
1.5066741e+000
1.3766814e+000
1.3076395e+000
1.3469777e+000
1.5187415e+000
1.8022941e+000
2.1675422e+000
2.5909090e+000
3.0407972e+000
3.4473138e+000
3.7275372e+000
3.7852571e+000
3.5651197e+000
3.1875699e+000
2.8169999e+000
