Image.
>Pix99999.
  .
5555
5555
2300
900
5555
2
1
0
701
5555
6.6692002e-002
6.8080008e-002
6.9467030e-002
7.0855036e-002
7.2242066e-002
7.3629074e-002
7.5017087e-002
7.6405101e-002
7.7792123e-002
7.9179138e-002
8.0567144e-002
8.1956141e-002
8.3341226e-002
8.4721334e-002
8.6116061e-002
8.7533571e-002
8.8891938e-002
9.0168014e-002
9.1663353e-002
9.3467735e-002
9.4453454e-002
9.4288938e-002
9.7166434e-002
1.0432982e-001
1.0019532e-001
7.0551179e-002
2.5622040e-002
-1.3066694e-002
-6.0426160e-003
7.3608860e-002
1.8201926e-001
2.6252726e-001
2.8833213e-001
2.4914178e-001
1.6590752e-001
6.8965897e-002
-9.8041259e-003
-4.3941457e-002
-3.0409293e-002
2.2886965e-002
9.1768801e-002
1.5040028e-001
1.8552500e-001
1.9410123e-001
1.9897205e-001
2.2724785e-001
2.9173911e-001
3.9355826e-001
5.0448018e-001
5.9419322e-001
6.6044855e-001
7.0990664e-001
7.4920887e-001
7.7949435e-001
7.8032804e-001
7.3124528e-001
6.3965160e-001
5.2453119e-001
4.1506812e-001
3.3808485e-001
2.9793742e-001
2.8962973e-001
3.0012271e-001
3.1754270e-001
3.4479079e-001
3.9162043e-001
4.7540906e-001
6.1006111e-001
7.8506953e-001
9.7575969e-001
1.1332110e+000
1.2088941e+000
1.1880680e+000
1.0789369e+000
9.3492538e-001
8.1700283e-001
7.5403339e-001
7.5545168e-001
7.9854387e-001
8.5446811e-001
9.1437173e-001
9.7576857e-001
1.0317221e+000
1.0734571e+000
1.0924560e+000
1.0845600e+000
1.0616223e+000
1.0374076e+000
1.0072972e+000
9.6302164e-001
9.0943801e-001
8.5822141e-001
8.2885474e-001
8.3915424e-001
8.8887429e-001
9.6959460e-001
1.0675597e+000
1.1665814e+000
1.2465200e+000
1.2890671e+000
1.2885572e+000
1.2460978e+000
1.1716969e+000
1.0797756e+000
9.8929697e-001
9.1903949e-001
8.7886721e-001
8.7019461e-001
8.7404001e-001
8.6658442e-001
8.3703500e-001
7.8602791e-001
7.3861724e-001
7.2624886e-001
7.6672018e-001
8.6375016e-001
9.8732775e-001
1.0972658e+000
1.1683946e+000
1.1879150e+000
1.1662514e+000
1.1211181e+000
1.0599369e+000
9.8647577e-001
9.0744370e-001
8.3309573e-001
7.8149462e-001
7.6934004e-001
7.9378605e-001
8.4089464e-001
8.8615370e-001
9.0667915e-001
9.0393734e-001
8.9262027e-001
8.9716715e-001
9.4002885e-001
1.0195098e+000
1.1184980e+000
1.2008017e+000
1.2297243e+000
1.2004600e+000
1.1292129e+000
1.0573406e+000
1.0272653e+000
1.0392447e+000
1.0726564e+000
1.1039637e+000
1.1165990e+000
1.1249241e+000
1.1549585e+000
1.2212929e+000
1.3233361e+000
1.4216845e+000
1.4668587e+000
1.4421101e+000
1.3558879e+000
1.2515229e+000
1.1799608e+000
1.1575054e+000
1.1803497e+000
1.2354743e+000
1.3091980e+000
1.4003986e+000
1.5083432e+000
1.6066068e+000
1.6575135e+000
1.6313848e+000
1.5164888e+000
1.3557640e+000
1.2129687e+000
1.1242957e+000
1.1003299e+000
1.1107702e+000
1.1120896e+000
1.0898595e+000
1.0499500e+000
1.0151206e+000
1.0100886e+000
1.0363051e+000
1.0797325e+000
1.1163628e+000
1.1203773e+000
1.0766940e+000
9.8184621e-001
8.5641354e-001
7.3766106e-001
6.8218058e-001
7.4051416e-001
8.9599186e-001
1.0925685e+000
1.2642901e+000
1.3582637e+000
1.3872149e+000
1.3923762e+000
1.3811897e+000
1.3400514e+000
1.2585800e+000
1.1415725e+000
1.0427480e+000
1.0328300e+000
1.1374428e+000
1.3406433e+000
1.5675251e+000
1.7177160e+000
1.7152001e+000
1.5209222e+000
1.1827217e+000
7.9563260e-001
4.4641316e-001
2.0208494e-001
8.3932802e-002
8.5590474e-002
1.9309305e-001
3.8177574e-001
5.8831555e-001
7.3459017e-001
7.7781063e-001
7.1000749e-001
5.7381237e-001
4.3136698e-001
3.0629969e-001
1.9536823e-001
9.2688531e-002
-7.0376992e-003
-1.1125752e-001
-2.2511536e-001
-3.3704066e-001
-4.2325425e-001
-4.5233956e-001
-3.9520690e-001
-2.4952157e-001
-3.2043073e-002
2.3221424e-001
5.0845492e-001
7.3309356e-001
8.3436245e-001
7.8458011e-001
5.9738141e-001
3.3554059e-001
8.2720153e-002
-1.1130159e-001
-2.2840643e-001
-2.7888784e-001
-2.8353485e-001
-2.3937486e-001
-1.3245815e-001
2.1230195e-002
1.8224356e-001
3.0457753e-001
3.5622871e-001
3.7661573e-001
4.4018754e-001
5.6035203e-001
6.9952023e-001
8.0392849e-001
8.2835180e-001
7.9025048e-001
7.4854070e-001
7.5102901e-001
8.2760388e-001
9.8688769e-001
1.2110872e+000
1.4221617e+000
1.5103436e+000
1.4083103e+000
1.1076880e+000
7.0833063e-001
3.5820091e-001
9.1744058e-002
-1.3400406e-001
-2.9764459e-001
-3.3042583e-001
-2.1702240e-001
-2.2214726e-003
2.0848858e-001
2.8808036e-001
1.8635994e-001
-6.2307149e-002
-3.1965280e-001
-4.0475199e-001
-2.5770801e-001
5.9661388e-002
3.8686979e-001
5.3172833e-001
4.3467242e-001
1.6508645e-001
-1.1718450e-001
-2.0481880e-001
8.2369879e-002
8.4167135e-001
1.9166757e+000
2.9840262e+000
3.8405674e+000
4.4505029e+000
4.9864640e+000
5.7545581e+000
7.0050392e+000
8.9014931e+000
1.1513297e+001
1.4788206e+001
1.8400858e+001
2.1863411e+001
2.4907860e+001
2.7549187e+001
3.0143114e+001
3.3254349e+001
3.7285793e+001
4.2339104e+001
4.7905239e+001
5.3132965e+001
5.7816372e+001
6.2358391e+001
6.7125412e+001
7.2257782e+001
7.7456314e+001
8.2136147e+001
8.6025749e+001
8.9188469e+001
9.1738503e+001
9.3770966e+001
9.5337830e+001
9.6450531e+001
9.7088478e+001
9.7204750e+001
9.6734848e+001
9.5636147e+001
9.4035904e+001
9.2185043e+001
9.0197914e+001
8.8026604e+001
8.5550583e+001
8.2636444e+001
7.9284447e+001
7.5607994e+001
7.1644966e+001
6.7349648e+001
6.2719761e+001
5.7830181e+001
5.2853798e+001
4.8029625e+001
4.3526142e+001
3.9427986e+001
3.5797211e+001
3.2672749e+001
3.0021559e+001
2.7748392e+001
2.5774979e+001
2.4063185e+001
2.2622292e+001
2.1496630e+001
2.0708500e+001
2.0241947e+001
2.0051193e+001
2.0074503e+001
2.0281286e+001
2.0678936e+001
2.1278948e+001
2.2094191e+001
2.3164568e+001
2.4555737e+001
2.6326200e+001
2.8502443e+001
3.1015055e+001
3.3704151e+001
3.6414719e+001
3.9026176e+001
4.1467854e+001
4.3752987e+001
4.6105186e+001
4.8866943e+001
5.1944256e+001
5.4768520e+001
5.6860619e+001
5.8014366e+001
5.8385323e+001
5.8415394e+001
5.8308502e+001
5.7924988e+001
5.7018879e+001
5.5362122e+001
5.3029343e+001
5.0416370e+001
4.7878357e+001
4.5619850e+001
4.3673817e+001
4.1909798e+001
4.0163506e+001
3.8286739e+001
3.6217018e+001
3.4001251e+001
3.1775999e+001
2.9722105e+001
2.7851761e+001
2.5972401e+001
2.3880560e+001
2.1455021e+001
1.8800508e+001
1.6243874e+001
1.3994963e+001
1.2056170e+001
1.0350400e+001
8.7688103e+000
7.2556505e+000
5.8257012e+000
4.4726295e+000
3.1598163e+000
1.9173601e+000
8.6424613e-001
1.2252906e-001
-2.0500007e-001
-1.6095400e-002
7.6163268e-001
2.0155606e+000
3.4279430e+000
4.7630558e+000
5.9609308e+000
7.0682988e+000
8.2130327e+000
9.4941072e+000
1.0927164e+001
1.2392400e+001
1.3633753e+001
1.4457060e+001
1.4802181e+001
1.4714714e+001
1.4337358e+001
1.3796619e+001
1.3168990e+001
1.2503160e+001
1.1820871e+001
1.1108714e+001
1.0320627e+001
9.4444456e+000
8.5257702e+000
7.6387739e+000
6.8736272e+000
6.2916141e+000
5.9045587e+000
5.6910138e+000
5.6002874e+000
5.5869427e+000
5.6273370e+000
5.7318354e+000
5.9473987e+000
6.3035064e+000
6.7874413e+000
7.3470907e+000
7.8890610e+000
8.3228397e+000
8.5805244e+000
8.6298494e+000
8.4853191e+000
8.1827126e+000
7.7718329e+000
7.2927599e+000
6.7678900e+000
6.2233257e+000
5.6946745e+000
5.2107854e+000
4.7828121e+000
4.3958488e+000
4.0038242e+000
3.5684140e+000
3.0762815e+000
2.5354292e+000
1.9767087e+000
1.4294605e+000
9.1431761e-001
4.5845097e-001
1.0042774e-001
-1.2731278e-001
-2.0683342e-001
-1.2748720e-001
1.1264713e-001
4.9995872e-001
1.0013753e+000
1.5918840e+000
2.2617662e+000
2.9772863e+000
3.6576748e+000
4.1986485e+000
4.4855866e+000
4.4681816e+000
4.2070513e+000
3.7967782e+000
3.3439307e+000
2.9366667e+000
2.6246359e+000
2.4278607e+000
2.3293674e+000
2.2938101e+000
2.2706063e+000
2.2158301e+000
2.1052842e+000
1.9335535e+000
1.7203943e+000
1.4977497e+000
1.3074600e+000
1.1886789e+000
1.1699494e+000
1.2694285e+000
1.4907022e+000
1.8306395e+000
2.2780859e+000
2.8080320e+000
3.3734815e+000
3.9210620e+000
4.3980131e+000
4.7729535e+000
5.0531926e+000
5.2620897e+000
5.4340019e+000
5.5954299e+000
5.7543559e+000
5.9146242e+000
6.0818372e+000
6.2703547e+000
6.5092506e+000
6.8256660e+000
7.2352552e+000
7.7428398e+000
8.3390598e+000
9.0195141e+000
9.7952967e+000
1.0679640e+001
1.1679501e+001
1.2776129e+001
1.3901846e+001
1.4972080e+001
1.5889459e+001
1.6576000e+001
1.6995527e+001
1.7121120e+001
1.6929834e+001
1.6404131e+001
1.5539472e+001
1.4367543e+001
1.2987467e+001
1.1528057e+001
1.0142949e+001
8.9627399e+000
8.0625486e+000
7.4733529e+000
7.1651649e+000
7.0851130e+000
7.1617913e+000
7.3111219e+000
7.4321685e+000
7.4242544e+000
7.2007446e+000
6.7173715e+000
6.0151668e+000
5.1773396e+000
4.3314924e+000
3.5890427e+000
3.0007920e+000
2.5751903e+000
2.2617364e+000
2.0065241e+000
1.7806159e+000
1.5760599e+000
1.4169904e+000
1.3259366e+000
1.3050237e+000
1.3453075e+000
1.4247371e+000
1.5207174e+000
1.6162550e+000
1.6941475e+000
1.7340140e+000
1.7173772e+000
1.6330656e+000
1.4809343e+000
1.2819043e+000
1.0602570e+000
8.3633035e-001
6.2480325e-001
4.2836297e-001
2.4249284e-001
5.3467169e-002
-1.4490314e-001
-3.3562839e-001
-4.9470365e-001
-5.9524161e-001
-6.1552680e-001
-5.4941660e-001
-4.0802327e-001
-2.3487392e-001
-7.8038082e-002
2.3497464e-002
4.5728885e-002
-3.2774657e-003
-1.0200196e-001
-2.1493879e-001
-3.0630210e-001
-3.4933299e-001
-3.3223987e-001
-2.7480343e-001
-1.9776431e-001
-1.0367429e-001
2.3484230e-002
2.3450172e-001
5.7384300e-001
1.0461392e+000
1.6271617e+000
2.2430201e+000
2.8133914e+000
3.2727394e+000
3.5727930e+000
3.7009089e+000
3.6618142e+000
3.4846985e+000
3.2097468e+000
2.8913624e+000
2.5825024e+000
2.3223758e+000
2.1340160e+000
2.0059268e+000
1.9160565e+000
1.8382379e+000
1.7555885e+000
1.6816232e+000
1.6366322e+000
1.6398600e+000
1.7001011e+000
1.7970715e+000
1.9033420e+000
1.9927633e+000
2.0498040e+000
2.0899715e+000
2.1352701e+000
2.2037446e+000
2.2970784e+000
2.3719654e+000
2.3806381e+000
2.2962248e+000
2.1119366e+000
1.8656790e+000
1.5990717e+000
1.3325479e+000
1.0773151e+000
8.3241576e-001
5.9685874e-001
3.7784749e-001
1.8224224e-001
9.4757229e-003
-1.4596426e-001
-2.9890251e-001
-4.6214950e-001
-6.3473237e-001
-8.0980718e-001
-9.7274429e-001
-1.1115257e+000
-1.2285269e+000
-1.3249174e+000
-1.3872256e+000
-1.3969600e+000
-1.3322068e+000
-1.1827292e+000
-9.8117411e-001
-7.7096260e-001
-5.9730041e-001
-4.9557233e-001
-4.6680379e-001
-4.9633276e-001
-5.4551750e-001
-5.7426965e-001
-5.5838180e-001
-4.9104759e-001
-4.1145051e-001
-3.6104384e-001
-3.4901232e-001
-3.6239922e-001
-3.3964396e-001
-2.3434788e-001
-9.5660076e-002
1.7566092e-002
9.6697077e-002
1.5302968e-001
2.2446769e-001
3.4758198e-001
5.2953386e-001
7.5317645e-001
9.3967873e-001
1.0256000e+000
1.0609679e+000
1.1166240e+000
1.2339282e+000
1.4176080e+000
1.5614896e+000
1.5655658e+000
1.4578923e+000
1.3189411e+000
1.3077230e+000
1.5617352e+000
2.0562401e+000
2.7048216e+000
3.3370104e+000
3.8050423e+000
4.1342711e+000
4.3936000e+000
