Image.
>Pix99999.
  .
5555
5555
2300
900
5555
2
1
0
701
5555
1.6512999e-002
1.6856508e-002
1.7200017e-002
1.7543526e-002
1.7887035e-002
1.8230543e-002
1.8574052e-002
1.8918550e-002
1.9261079e-002
1.9605566e-002
1.9949086e-002
2.0292595e-002
2.0636102e-002
2.0979611e-002
2.1323120e-002
2.1666629e-002
2.2010138e-002
2.2353645e-002
2.2697154e-002
2.3040663e-002
2.3384171e-002
2.3727680e-002
2.4071189e-002
2.4414698e-002
2.4758205e-002
2.5101714e-002
9.3280571e-004
1.0836261e-002
1.2196440e-002
5.0172381e-002
9.3619041e-002
1.2661766e-001
1.5736611e-001
1.5457742e-001
1.4979364e-001
1.4184600e-001
1.3458183e-001
1.3115072e-001
1.2658243e-001
1.1789753e-001
1.1586314e-001
1.2887469e-001
1.4123319e-001
1.5107414e-001
1.4221422e-001
1.1022422e-001
8.4166296e-002
6.5240197e-002
7.2366953e-002
9.8620310e-002
1.3591929e-001
1.7885017e-001
2.1671504e-001
2.5217351e-001
2.6133770e-001
2.6200899e-001
2.4440201e-001
2.2270736e-001
2.2236907e-001
2.2546692e-001
2.4584514e-001
2.6665354e-001
2.7437517e-001
2.7999142e-001
2.8068990e-001
2.8183484e-001
2.8633368e-001
2.8631073e-001
2.7387279e-001
2.5925297e-001
2.4289599e-001
2.4610126e-001
2.7790645e-001
3.2889122e-001
3.9813679e-001
4.4570571e-001
4.7243914e-001
4.6167991e-001
4.2636979e-001
3.9127743e-001
3.5766971e-001
3.4565151e-001
3.4264654e-001
3.4107667e-001
3.3969438e-001
3.3535680e-001
3.3033291e-001
3.3962309e-001
3.5172254e-001
3.7351027e-001
3.9657259e-001
4.1888011e-001
4.4079173e-001
4.6142909e-001
4.8095351e-001
4.9770835e-001
5.0854993e-001
5.0727540e-001
4.9422520e-001
4.6442097e-001
4.3077570e-001
3.9536390e-001
3.6413720e-001
3.3751571e-001
3.1072697e-001
2.8321749e-001
2.6237860e-001
2.4600667e-001
2.4822451e-001
2.5992751e-001
2.8327116e-001
3.1098670e-001
3.2721999e-001
3.3961508e-001
3.3829677e-001
3.3378229e-001
3.3102605e-001
3.2825637e-001
3.2100385e-001
3.1310618e-001
3.0650857e-001
3.0764502e-001
3.3580446e-001
3.7697065e-001
4.3805978e-001
4.9033287e-001
5.1795983e-001
5.1283014e-001
4.6519977e-001
4.0497223e-001
3.3912101e-001
3.0275762e-001
2.9604098e-001
3.1435761e-001
3.4836224e-001
3.7291923e-001
3.8984028e-001
4.0857747e-001
4.2890477e-001
4.5741960e-001
4.8921600e-001
4.8685774e-001
4.7275460e-001
4.3990663e-001
4.0381458e-001
3.9359573e-001
3.9143333e-001
3.9987642e-001
4.1386721e-001
4.4074598e-001
4.7792286e-001
5.3671604e-001
5.9177399e-001
6.2582237e-001
6.3521540e-001
6.0981101e-001
5.7026732e-001
5.2253252e-001
4.7765437e-001
4.3838188e-001
4.3243000e-001
4.5636082e-001
5.3397858e-001
6.4817101e-001
7.4590456e-001
8.2889611e-001
8.3255845e-001
7.9544210e-001
7.5579917e-001
7.1729016e-001
7.0987767e-001
7.1312499e-001
6.9979942e-001
6.8098110e-001
6.6399658e-001
6.4882749e-001
6.3987499e-001
6.3183403e-001
6.1814398e-001
6.0466570e-001
5.9584087e-001
5.8475596e-001
5.6698203e-001
5.4532343e-001
5.2123308e-001
5.2280813e-001
5.5920810e-001
6.3455355e-001
7.4175084e-001
8.3399922e-001
9.0510356e-001
9.2966974e-001
9.2241722e-001
8.8113064e-001
8.2202899e-001
7.3928934e-001
6.4500839e-001
5.7555717e-001
5.1811910e-001
5.2261245e-001
5.5244428e-001
5.9848511e-001
6.4454406e-001
6.4725101e-001
6.2548447e-001
5.6880313e-001
5.0259149e-001
4.4680262e-001
4.0370443e-001
3.8191345e-001
3.8170099e-001
4.0881512e-001
4.6441200e-001
5.4996544e-001
6.1410028e-001
6.3843393e-001
5.8614379e-001
4.6383899e-001
3.2402855e-001
1.8526390e-001
8.2728915e-002
8.5966215e-003
-9.4960649e-003
6.8746689e-003
8.0109924e-002
1.8421857e-001
2.5420874e-001
3.0283803e-001
2.6765716e-001
1.9422507e-001
1.3407600e-001
9.1937363e-002
1.1537030e-001
1.7343557e-001
2.4946013e-001
3.0491835e-001
2.8139487e-001
1.9736817e-001
5.4145414e-002
-9.0765834e-002
-1.9726972e-001
-2.4934615e-001
-2.4246934e-001
-2.1106121e-001
-1.7418092e-001
-1.4246200e-001
-1.1805309e-001
-8.9082561e-002
-5.3599134e-002
-7.2018094e-003
4.6984360e-002
1.0528093e-001
1.6478160e-001
1.8093733e-001
1.6855940e-001
1.3036536e-001
8.0723718e-002
6.7209125e-002
8.0661178e-002
1.4242847e-001
2.3390630e-001
3.4258980e-001
4.3501416e-001
4.4564232e-001
3.9102605e-001
2.7219763e-001
1.4455140e-001
5.9564583e-002
1.5849151e-002
-8.0559865e-002
-1.7161056e-001
-1.9578320e-001
-1.0235727e-001
1.0705295e-001
3.3662966e-001
5.4902679e-001
6.1844945e-001
5.5461025e-001
4.6776760e-001
3.8538504e-001
4.1379401e-001
5.2780902e-001
5.5347645e-001
5.0462931e-001
2.9706651e-001
-5.1970780e-004
-1.7191957e-001
-2.0939730e-001
3.1377032e-002
4.9434847e-001
1.1732135e+000
1.9248395e+000
2.5223713e+000
3.0397172e+000
3.5649581e+000
4.2905521e+000
5.3922377e+000
7.0946913e+000
9.4963818e+000
1.2691829e+001
1.6606144e+001
2.0513689e+001
2.4094608e+001
2.7323114e+001
3.0270521e+001
3.3802151e+001
3.7993542e+001
4.2933365e+001
4.8449081e+001
5.3186737e+001
5.7202316e+001
6.0928452e+001
6.4497757e+001
6.8528725e+001
7.2893227e+001
7.7170547e+001
8.1305977e+001
8.5096565e+001
8.8513496e+001
9.1467239e+001
9.3967308e+001
9.6035568e+001
9.7630157e+001
9.8731636e+001
9.8852356e+001
9.7618217e+001
9.5410545e+001
9.2648155e+001
8.9578125e+001
8.6392632e+001
8.2753311e+001
7.8573204e+001
7.4229942e+001
6.9874489e+001
6.5713364e+001
6.1769608e+001
5.7745800e+001
5.3607376e+001
4.9543049e+001
4.5569675e+001
4.1826370e+001
3.8339745e+001
3.5277027e+001
3.2648418e+001
3.0426172e+001
2.8584749e+001
2.6975254e+001
2.5617521e+001
2.4512320e+001
2.3675945e+001
2.3091499e+001
2.2730913e+001
2.2523857e+001
2.2436710e+001
2.2419909e+001
2.2488129e+001
2.2644846e+001
2.2914499e+001
2.3302597e+001
2.3856180e+001
2.4584429e+001
2.5468739e+001
2.6494932e+001
2.7562351e+001
2.8646759e+001
2.9727421e+001
3.0807177e+001
3.2128056e+001
3.3796539e+001
3.6444363e+001
4.0113716e+001
4.4024860e+001
4.7949841e+001
5.0944519e+001
5.3077507e+001
5.4972248e+001
5.6633423e+001
5.8151150e+001
5.9272579e+001
5.9657440e+001
5.9310886e+001
5.8365330e+001
5.7062439e+001
5.5698170e+001
5.4248928e+001
5.2698952e+001
5.0981239e+001
4.9051502e+001
4.6887646e+001
4.4462727e+001
4.2066628e+001
3.9797134e+001
3.7642479e+001
3.5621159e+001
3.3141979e+001
3.0052544e+001
2.6889572e+001
2.3704382e+001
2.1006821e+001
1.8854650e+001
1.6746143e+001
1.4670563e+001
1.2548477e+001
1.0377275e+001
8.1799574e+000
6.0199542e+000
4.0260000e+000
2.3272064e+000
1.0736046e+000
3.0447322e-001
5.8625758e-002
3.9890659e-001
1.2391783e+000
2.2329130e+000
3.1641464e+000
3.9318023e+000
4.4511700e+000
4.9160528e+000
5.4029694e+000
5.9219184e+000
6.4844398e+000
6.8974457e+000
7.0645480e+000
7.0692368e+000
6.8480916e+000
6.6002965e+000
6.3203959e+000
6.0577102e+000
5.8101764e+000
5.5331082e+000
5.1911159e+000
4.7136302e+000
4.1003361e+000
3.4560418e+000
2.8413320e+000
2.3885157e+000
2.1239800e+000
2.0509436e+000
2.1344674e+000
2.3133385e+000
2.5239315e+000
2.6973789e+000
2.8549609e+000
3.0146897e+000
3.2082868e+000
3.4693079e+000
3.7838407e+000
4.1693316e+000
4.5991039e+000
5.0903535e+000
5.5679717e+000
6.0053968e+000
6.3394761e+000
6.4901071e+000
6.5179238e+000
6.3513699e+000
6.0782619e+000
5.6646314e+000
5.2207637e+000
4.7518058e+000
4.3115082e+000
3.9088061e+000
3.5352302e+000
3.1935935e+000
2.8764179e+000
2.5581608e+000
2.1927929e+000
1.7737923e+000
1.2842833e+000
8.0067134e-001
4.1261071e-001
1.3420704e-001
3.4350134e-002
2.7941108e-002
1.1375596e-001
2.2634035e-001
3.9932480e-001
6.1358857e-001
9.0343451e-001
1.1859224e+000
1.4418743e+000
1.6342531e+000
1.7124112e+000
1.7868279e+000
1.8647251e+000
1.9931921e+000
2.2007678e+000
2.4607019e+000
2.7860382e+000
3.1337984e+000
3.4897599e+000
3.7977755e+000
4.0470982e+000
4.2320142e+000
4.3628826e+000
4.4618559e+000
4.5279474e+000
4.5484056e+000
4.5321722e+000
4.4662404e+000
4.3856001e+000
4.3076243e+000
4.2424564e+000
4.2095356e+000
4.1820598e+000
4.1566801e+000
4.1271095e+000
4.0863442e+000
4.0496473e+000
4.0226059e+000
4.0032244e+000
4.0000701e+000
4.0068965e+000
4.0333042e+000
4.0791454e+000
4.1549420e+000
4.2515588e+000
4.3705316e+000
4.4888282e+000
4.6022453e+000
4.6993055e+000
4.7828851e+000
4.8624310e+000
4.9385600e+000
5.0113521e+000
5.0780001e+000
5.1287856e+000
5.1677651e+000
5.1868415e+000
5.1840062e+000
5.1273255e+000
5.0305939e+000
4.8359962e+000
4.6019621e+000
4.2715960e+000
3.9169073e+000
3.4993081e+000
3.0684733e+000
2.6074660e+000
2.1506610e+000
1.7066200e+000
1.2916707e+000
9.2995310e-001
6.0815817e-001
3.4465176e-001
1.1235107e-001
-8.4031180e-002
-2.6933175e-001
-4.4406936e-001
-6.1542374e-001
-7.7796501e-001
-9.1306323e-001
-1.0208949e+000
-1.0793070e+000
-1.1046083e+000
-1.0828943e+000
-1.0325797e+000
-9.2840499e-001
-7.8989804e-001
-5.6102693e-001
-2.9873082e-001
4.8980683e-002
3.9735791e-001
7.2723675e-001
1.0242932e+000
1.2189564e+000
1.3782423e+000
1.4493251e+000
1.4955606e+000
1.4893839e+000
1.4536899e+000
1.3660098e+000
1.2419412e+000
1.0679202e+000
8.7144864e-001
6.5392178e-001
4.4693768e-001
2.5809819e-001
1.2082476e-001
2.7661623e-002
-1.1532386e-002
-1.5710331e-002
4.8680328e-002
1.4990847e-001
3.0700731e-001
4.8070586e-001
6.6163814e-001
8.3535826e-001
9.6422523e-001
1.0800304e+000
1.1480443e+000
1.2144099e+000
1.2781069e+000
1.3515666e+000
1.4558846e+000
1.5667050e+000
1.6921394e+000
1.8083525e+000
1.9030749e+000
1.9660931e+000
1.9767429e+000
1.9534779e+000
1.8911281e+000
1.8436995e+000
1.8161285e+000
1.8283678e+000
1.8721769e+000
1.9256917e+000
1.9836794e+000
2.0322850e+000
2.0704858e+000
2.0643809e+000
2.0333886e+000
1.9276874e+000
1.8007200e+000
1.6393429e+000
1.4762800e+000
1.3333170e+000
1.2007369e+000
1.1285628e+000
1.0706457e+000
1.0745740e+000
1.0789239e+000
1.0832070e+000
1.0725732e+000
1.0263692e+000
9.8045623e-001
9.3631595e-001
9.0679234e-001
8.9680338e-001
8.7295502e-001
8.2889503e-001
7.3777014e-001
6.0264421e-001
4.4085783e-001
2.6362437e-001
1.1448009e-001
-1.5134417e-002
-9.2922613e-002
-1.4864090e-001
-1.8083085e-001
-2.0815271e-001
-2.5143474e-001
-2.9873219e-001
-3.6104199e-001
-4.2192650e-001
-4.5126584e-001
-4.7476062e-001
-4.6039137e-001
-4.4849205e-001
-4.4778141e-001
-4.5312700e-001
-4.7689909e-001
-4.9591324e-001
-5.0386089e-001
-5.0728011e-001
-5.0301975e-001
-5.0272161e-001
-5.0721961e-001
-5.0494939e-001
-4.9464399e-001
-4.6552187e-001
-4.2164788e-001
-3.8106388e-001
-3.4310246e-001
-3.1821901e-001
-2.9871133e-001
-2.6897287e-001
-2.3607783e-001
-2.0503308e-001
-1.7498928e-001
-1.5733011e-001
-1.4092880e-001
-1.1837309e-001
-9.2903823e-002
-3.0462747e-002
2.1610968e-003
6.7639157e-002
2.0984623e-001
4.1932529e-001
6.2523371e-001
8.2025492e-001
9.9710757e-001
1.1343164e+000
1.2322046e+000
1.2668378e+000
1.2773219e+000
1.2587870e+000
1.2583829e+000
1.2742465e+000
1.2513828e+000
1.2002337e+000
1.0703393e+000
8.9954031e-001
7.7991301e-001
6.8127728e-001
7.4965274e-001
8.6247867e-001
1.0952214e+000
1.3473564e+000
1.5965000e+000
