##TITLE=Methyl Ethyl Ketone
##JCAMP-DX=4.24
##DATA TYPE=INFRARED SPECTRUM
##XUNITS=cm-1
##YUNITS=Absorbance
##FIRSTX=900
##LASTX=2300
##XYDATA=(X++(Y..Y))
2296 0.012947
2294 0.013216615
2292 0.013486229
2290 0.013755843
2288 0.014024463
2286 0.014294071
2284 0.014563685
2282 0.0148333
2280 0.015101925
2278 0.015371529
2276 0.015641142
2274 0.015911741
2272 0.016179405
2270 0.01644408
2268 0.016718499
2266 0.017005829
2264 0.017257264
2262 0.017457167
2260 0.017794231
2258 0.018322505
2256 0.018341856
2254 0.01764651
2252 0.018841526
2250 0.022704115
2248 0.019538017
2246 0.0040209712
2244 0.00012816513
2242 0.03296354
2240 0.099118643
2238 0.18202367
2236 0.24480413
2234 0.25690246
2232 0.23631708
2230 0.21334663
2228 0.21127051
2226 0.24197149
2224 0.27992028
2222 0.29618239
2220 0.29209065
2218 0.27930766
2216 0.27452517
2214 0.29025602
2212 0.31631979
2210 0.33947897
2208 0.361882
2206 0.38989237
2204 0.42756855
2202 0.47508171
2200 0.52007598
2198 0.54906911
2196 0.55979496
2194 0.5540449
2192 0.53545153
2190 0.50898886
2188 0.48298264
2186 0.46470755
2184 0.4529056
2182 0.44245604
2180 0.42358813
2178 0.39120117
2176 0.36497343
2174 0.37010109
2172 0.42111999
2170 0.52198774
2168 0.64872205
2166 0.77000308
2164 0.86226237
2162 0.90979224
2160 0.91764075
2158 0.89948857
2156 0.87585098
2154 0.86556953
2152 0.87186611
2150 0.89117754
2148 0.91433674
2146 0.93291819
2144 0.94881868
2142 0.96739435
2140 0.9932493
2138 1.0284954
2136 1.0663458
2134 1.0971402
2132 1.1120771
2130 1.1061078
2128 1.087852
2126 1.0710036
2124 1.070228
2122 1.0969342
2120 1.1479114
2118 1.2140543
2116 1.2835257
2114 1.344961
2112 1.3910172
2110 1.4170911
2108 1.4248749
2106 1.4191178
2104 1.4095577
2102 1.4072524
2100 1.4214619
2098 1.4569408
2096 1.5042285
2094 1.5481669
2092 1.5731089
2090 1.5680273
2088 1.5396097
2086 1.50158
2084 1.4667636
2082 1.4451654
2080 1.4363645
2078 1.4369886
2076 1.4485943
2074 1.4751855
2072 1.5232279
2070 1.5960701
2068 1.679992
2066 1.7542386
2064 1.7974691
2062 1.7939556
2060 1.7502623
2058 1.6827041
2056 1.6100314
2054 1.5495257
2052 1.5122514
2050 1.5032853
2048 1.515601
2046 1.5360607
2044 1.54728
2042 1.5359666
2040 1.51308
2038 1.4986483
2036 1.5064157
2034 1.5416207
2032 1.587256
2030 1.619995
2028 1.6310983
2026 1.6214229
2024 1.6042972
2022 1.5957329
2020 1.6014045
2018 1.6212925
2016 1.65204
2014 1.6884665
2012 1.724458
2010 1.7520703
2008 1.7590475
2006 1.7347628
2004 1.6841383
2002 1.6209921
2000 1.5656635
1998 1.5358447
1996 1.5280499
1994 1.5275353
1992 1.5147611
1990 1.4752542
1988 1.4221439
1986 1.3802586
1984 1.3668263
1982 1.3883611
1980 1.4263586
1978 1.4543577
1976 1.4639885
1974 1.459656
1972 1.459076
1970 1.4811869
1968 1.5237886
1966 1.5733964
1964 1.6145937
1962 1.6353499
1960 1.6380119
1958 1.6318589
1956 1.6228828
1954 1.6148566
1952 1.6092286
1950 1.6055156
1948 1.5991395
1946 1.583575
1944 1.5542222
1942 1.5097382
1940 1.4589465
1938 1.4146888
1936 1.3834971
1934 1.3671321
1932 1.361902
1930 1.3635634
1928 1.376268
1926 1.4091192
1924 1.4729295
1922 1.573354
1920 1.6911834
1918 1.7960891
1916 1.8680714
1914 1.896607
1912 1.8823491
1910 1.8302494
1908 1.7389349
1906 1.6107264
1904 1.481264
1902 1.4007738
1900 1.3998811
1898 1.4842266
1896 1.6036714
1894 1.6834397
1892 1.6751194
1890 1.559988
1888 1.3728932
1886 1.1751828
1884 1.0159596
1882 0.92604452
1880 0.89769167
1878 0.90282476
1876 0.91873097
1874 0.93234986
1872 0.95030326
1870 0.98600739
1868 1.0336838
1866 1.0744278
1864 1.0869446
1862 1.055001
1860 0.98729742
1858 0.90589666
1856 0.82604426
1854 0.7581321
1852 0.71599448
1850 0.71354324
1848 0.75297803
1846 0.82344431
1844 0.88938379
1842 0.90726399
1840 0.86286283
1838 0.76659191
1836 0.65019029
1834 0.55397236
1832 0.50614727
1830 0.51954651
1828 0.57794631
1826 0.64641559
1824 0.68493915
1822 0.66012025
1820 0.57410562
1818 0.45328698
1816 0.32897171
1814 0.22887011
1812 0.16200948
1810 0.12652203
1808 0.1270512
1806 0.17072
1804 0.24982171
1802 0.3442758
1800 0.42580399
1798 0.46639684
1796 0.45844144
1794 0.41145122
1792 0.34777001
1790 0.29611662
1788 0.28240612
1786 0.32231951
1784 0.39763242
1782 0.47423339
1780 0.55083704
1778 0.64995408
1776 0.78529799
1774 0.94905293
1772 1.0778737
1770 1.0849111
1768 0.94935721
1766 0.71107268
1764 0.450955
1762 0.24812067
1760 0.069963314
1758 -0.17361295
1756 -0.45347244
1754 -0.65342563
1752 -0.7059809
1750 -0.60702753
1748 -0.419994
1746 -0.24592428
1744 -0.16115984
1742 -0.19841383
1740 -0.30048239
1738 -0.35937878
1736 -0.32667202
1734 -0.21999314
1732 -0.11466378
1730 -0.10385536
1728 -0.1966732
1726 -0.32662743
1724 -0.39694193
1722 -0.30512381
1720 0.016742796
1718 0.58835638
1716 1.3374316
1714 2.1289732
1712 2.848912
1710 3.4391387
1708 3.9801099
1706 4.6594663
1704 5.6759434
1702 7.2113104
1700 9.4012899
1698 12.281967
1696 15.591001
1694 18.86874
1692 21.826157
1690 24.413561
1688 26.885115
1686 29.678835
1684 33.074631
1682 37.093037
1680 41.314041
1678 45.088215
1676 48.282974
1674 51.262363
1672 54.435204
1670 58.097385
1668 62.20343
1666 66.442245
1664 70.580139
1662 74.502708
1660 78.129173
1658 81.404816
1656 84.363091
1654 87.112656
1652 89.758339
1650 92.329277
1648 94.565231
1646 96.015961
1644 96.520279
1642 96.218033
1640 95.260498
1638 93.734009
1636 91.624786
1634 88.873199
1632 85.588303
1630 82.022453
1628 78.315781
1626 74.468872
1624 70.454361
1622 66.25885
1620 61.948566
1618 57.662792
1616 53.525684
1614 49.631657
1612 46.066769
1610 42.897831
1608 40.121716
1606 37.674023
1604 35.50433
1602 33.591824
1600 31.929096
1598 30.511644
1596 29.313999
1594 28.290358
1592 27.402863
1590 26.633556
1588 25.996706
1586 25.532122
1584 25.262949
1582 25.1917
1580 25.323769
1578 25.671061
1576 26.241686
1574 27.026499
1572 27.959682
1570 28.926764
1568 29.84824
1566 30.699078
1564 31.500896
1562 32.34457
1560 33.487217
1558 35.27969
1556 37.722443
1554 40.411358
1552 42.886536
1550 44.786655
1548 46.103561
1546 47.169857
1544 48.21809
1542 49.270653
1540 50.228222
1538 50.913406
1536 51.188343
1534 51.003395
1532 50.448818
1530 49.732529
1528 48.979301
1526 48.184052
1524 47.286503
1522 46.198143
1520 44.860558
1518 43.272942
1516 41.512657
1514 39.708309
1512 37.846878
1510 35.745533
1508 33.25248
1506 30.340294
1504 27.21924
1502 24.308302
1500 21.829012
1498 19.699739
1496 17.748428
1494 15.788035
1492 13.717398
1490 11.548783
1488 9.3217402
1486 7.091495
1484 4.9741158
1482 3.1416187
1480 1.6950778
1478 0.6502142
1476 0.105616
1474 0.23759517
1472 0.97305757
1470 1.9307261
1468 2.8354795
1466 3.6413343
1464 4.3886833
1462 5.1486983
1460 5.9057789
1458 6.5267534
1456 6.8765402
1454 6.8763194
1452 6.5926142
1450 6.24507
1448 5.9611187
1446 5.705318
1444 5.4320292
1442 5.1304998
1440 4.802331
1438 4.4526834
1436 4.0701356
1434 3.6262925
1432 3.1260862
1430 2.6254163
1428 2.1930079
1426 1.8941436
1424 1.7621988
1422 1.7838639
1420 1.9187949
1418 2.1057308
1416 2.2945142
1414 2.46153
1412 2.6126022
1410 2.7847996
1408 3.009541
1406 3.298552
1404 3.6496451
1402 4.0454459
1400 4.4578161
1398 4.8489461
1396 5.1853642
1394 5.4452434
1392 5.6232343
1390 5.7321296
1388 5.7759995
1386 5.7411551
1384 5.6171465
1382 5.4061809
1380 5.1258445
1378 4.8105168
1376 4.4850287
1374 4.1549749
1372 3.824718
1370 3.5016775
1368 3.1864674
1366 2.8665106
1364 2.5183353
1362 2.1119168
1360 1.6499754
1358 1.1873906
1356 0.78087586
1354 0.46651065
1352 0.24400103
1350 0.067414477
1348 -0.093253709
1346 -0.22505608
1344 -0.29798278
1342 -0.27567923
1340 -0.15344353
1338 0.020214178
1336 0.18640286
1334 0.29418954
1332 0.32675251
1330 0.31943488
1328 0.31442708
1326 0.34451264
1324 0.43249401
1322 0.58658183
1320 0.80278528
1318 1.0608605
1316 1.32915
1314 1.5650437
1312 1.7362086
1310 1.8337141
1308 1.8645757
1306 1.8531121
1304 1.8220257
1302 1.7841671
1300 1.7486851
1298 1.7226632
1296 1.7132286
1294 1.7278353
1292 1.7715989
1290 1.8448417
1288 1.943712
1286 2.0589023
1284 2.1799848
1282 2.2976525
1280 2.4090085
1278 2.5216427
1276 2.6449871
1274 2.7872541
1272 2.9552822
1270 3.1550415
1268 3.3952153
1266 3.6893215
1264 4.046473
1262 4.4651494
1260 4.9363122
1258 5.4424844
1256 5.9692316
1254 6.5126047
1252 7.0749211
1250 7.6653385
1248 8.2894011
1246 8.9420748
1244 9.6099472
1242 10.268677
1240 10.891514
1238 11.449922
1236 11.918958
1234 12.281393
1232 12.526959
1230 12.65235
1228 12.661451
1226 12.564221
1224 12.369914
1222 12.084802
1220 11.712866
1218 11.25832
1216 10.7282
1214 10.136741
1212 9.5002604
1210 8.8384819
1208 8.1692095
1206 7.5058413
1204 6.8536758
1202 6.203917
1200 5.5449891
1198 4.8674488
1196 4.1731644
1194 3.4868035
1192 2.8391559
1190 2.2622709
1188 1.7770097
1186 1.3799729
1184 1.0591692
1182 0.79778892
1180 0.58325565
1178 0.41546792
1176 0.29714799
1174 0.23042592
1172 0.21388362
1170 0.23783185
1168 0.28465274
1166 0.32403764
1164 0.3274774
1162 0.2789979
1160 0.17977482
1158 0.062254764
1156 -0.039704941
1154 -0.10717931
1152 -0.13587064
1150 -0.14594813
1148 -0.1553596
1146 -0.16309142
1144 -0.15890761
1142 -0.12256958
1140 -0.039880086
1138 0.083804697
1136 0.23996286
1134 0.42442921
1132 0.64118135
1130 0.91047287
1128 1.2503337
1126 1.6630635
1124 2.1389942
1122 2.6484132
1120 3.1624479
1118 3.6666684
1116 4.1524844
1114 4.6169147
1112 5.0549941
1110 5.4542284
1108 5.8088989
1106 6.1350851
1104 6.454195
1102 6.7867827
1100 7.1447372
1098 7.5175514
1096 7.8930144
1094 8.2684345
1092 8.6437654
1090 9.0199757
1088 9.3923311
1086 9.7407379
1084 10.046317
1082 10.30283
1080 10.51676
1078 10.713
1076 10.913614
1074 11.119682
1072 11.316239
1070 11.467564
1068 11.542246
1066 11.535257
1064 11.4588
1062 11.349314
1060 11.246098
1058 11.175181
1056 11.144285
1054 11.126823
1052 11.080963
1050 10.94994
1048 10.69072
1046 10.30975
1044 9.837677
1042 9.3368034
1040 8.8644085
1038 8.4347992
1036 8.0448704
1034 7.6716695
1032 7.2937999
1030 6.9088521
1028 6.5188894
1026 6.1257582
1024 5.7319508
1022 5.3409419
1020 4.9560289
1018 4.5795751
1016 4.2136545
1014 3.860302
1012 3.5235827
1010 3.2128
1008 2.935904
1006 2.692342
1004 2.4766092
1002 2.2732725
1000 2.0660307
998 1.8427898
996 1.5936215
994 1.3117239
992 0.9927969
990 0.63696492
988 0.25545844
986 -0.10853788
984 -0.403862
982 -0.57988697
980 -0.6016534
978 -0.48527774
976 -0.26175225
974 0.03057462
972 0.35233778
970 0.6668458
968 0.93774128
966 1.127965
964 1.2127855
962 1.2096902
960 1.1492703
958 1.070493
956 1.002726
954 0.93485492
952 0.84399998
950 0.7020123
948 0.49922776
946 0.29477108
944 0.13945881
942 -0.0055982023
940 -0.17459017
938 -0.3053498
936 -0.33695456
934 -0.29988429
932 -0.24425294
930 -0.20865123
928 -0.22133583
926 -0.28271022
924 -0.38223863
922 -0.49422643
920 -0.59071535
918 -0.64965385
916 -0.65900946
914 -0.63936186
912 -0.6171568
910 -0.61005461
908 -0.61917585
906 -0.59012783
904 -0.47632486
902 -0.3164669
900 -0.17151254
898 -0.10620452
896 -0.18625
