##TITLE=Methyl Ethyl Ketone
##JCAMP-DX=4.24
##DATA TYPE=INFRARED SPECTRUM
##XUNITS=cm-1
##YUNITS=Absorbance
##FIRSTX=900
##LASTX=2300
##XYDATA=(X++(Y..Y))
2296 0.00055966002
2294 0.00057152298
2292 0.00058341597
2290 0.00059532892
2288 0.00060723192
2286 0.00061911502
2284 0.00063099799
2282 0.00064289093
2280 0.00065480371
2278 0.00066673633
2276 0.00067859044
2274 0.00069034501
2272 0.00070235378
2270 0.00071471988
2268 0.00072613184
2266 0.00073623378
2264 0.00074988574
2262 0.0007684654
2260 0.00077389862
2258 0.0007609062
2256 0.00079676457
2254 0.00090129994
2252 0.00082423451
2250 0.00049106055
2248 0.0008329241
2246 0.001953945
2244 -0.00049463083
2242 -0.0069143996
2240 0.0032176601
2238 0.050259594
2236 0.13006675
2234 0.22651233
2232 0.30340296
2230 0.32599431
2228 0.28825492
2226 0.198671
2224 0.090378299
2222 -0.00015843008
2220 -0.051707983
2218 -0.05310227
2216 -0.015310771
2214 0.043077551
2212 0.099087678
2210 0.13267139
2208 0.14064771
2206 0.12946586
2204 0.123765
2202 0.14857915
2200 0.20808269
2198 0.29288658
2196 0.36493427
2194 0.38417673
2192 0.33833775
2190 0.23216839
2188 0.10370152
2186 -0.0038369643
2184 -0.06838692
2182 -0.082525179
2180 -0.070045508
2178 -0.064077705
2176 -0.095297053
2174 -0.18497273
2172 -0.32013908
2170 -0.4734745
2168 -0.60493463
2166 -0.67811006
2164 -0.6875509
2162 -0.64296412
2160 -0.57335782
2158 -0.51044637
2156 -0.47131801
2154 -0.46339977
2152 -0.47563252
2150 -0.4935174
2148 -0.51396853
2146 -0.54052609
2144 -0.58705866
2142 -0.66591072
2140 -0.76879764
2138 -0.87910384
2136 -0.97631431
2134 -1.0413229
2132 -1.0657923
2130 -1.0477389
2128 -0.99591362
2126 -0.92611223
2124 -0.86834896
2122 -0.85126919
2120 -0.87713271
2118 -0.93413842
2116 -0.99296182
2114 -1.024164
2112 -1.0229229
2110 -0.99571747
2108 -0.95704877
2106 -0.92121392
2104 -0.89057881
2102 -0.8633579
2100 -0.839688
2098 -0.82011861
2096 -0.80320144
2094 -0.78756642
2092 -0.77552283
2090 -0.77265596
2088 -0.79208392
2086 -0.84486949
2084 -0.92134696
2082 -1.0033802
2080 -1.0718172
2078 -1.1128165
2076 -1.1336714
2074 -1.1474385
2072 -1.155632
2070 -1.1542004
2068 -1.1374594
2066 -1.10388
2064 -1.0704521
2062 -1.0579207
2060 -1.0703849
2058 -1.100673
2056 -1.1251085
2054 -1.1183298
2052 -1.0766308
2050 -1.0084321
2048 -0.93483615
2046 -0.87745678
2044 -0.83940881
2042 -0.81502229
2040 -0.79609531
2038 -0.77625811
2036 -0.75965613
2034 -0.75263131
2032 -0.75129241
2030 -0.74831641
2028 -0.74183446
2026 -0.73327643
2024 -0.72658068
2022 -0.72340953
2020 -0.71152943
2018 -0.67700946
2016 -0.62532598
2014 -0.57244498
2012 -0.54008406
2010 -0.54525828
2008 -0.57635009
2006 -0.61044097
2004 -0.63310027
2002 -0.63700879
2000 -0.62497163
1998 -0.60288429
1996 -0.57085359
1994 -0.52703291
1992 -0.4740133
1990 -0.41847065
1988 -0.37482819
1986 -0.35962242
1984 -0.38327146
1982 -0.44839948
1980 -0.53791839
1978 -0.62545884
1976 -0.68495631
1974 -0.69763392
1972 -0.67265546
1970 -0.63300109
1968 -0.60220516
1966 -0.5980987
1964 -0.61698359
1962 -0.64516068
1960 -0.67190403
1958 -0.69066679
1956 -0.70303398
1954 -0.71347362
1952 -0.72178799
1950 -0.72532874
1948 -0.72245848
1946 -0.71200746
1944 -0.69169784
1942 -0.65980732
1940 -0.61970961
1938 -0.57819939
1936 -0.54524004
1934 -0.53008568
1932 -0.53282058
1930 -0.54842007
1928 -0.57117784
1926 -0.5946874
1924 -0.60928428
1922 -0.60572231
1920 -0.5842343
1918 -0.55176026
1916 -0.52148825
1914 -0.50490701
1912 -0.4932833
1910 -0.46856353
1908 -0.42159763
1906 -0.35232264
1904 -0.2745668
1902 -0.20671262
1900 -0.15549023
1898 -0.12015139
1896 -0.098555714
1894 -0.088698372
1892 -0.089850836
1890 -0.10191866
1888 -0.1243448
1886 -0.15657072
1884 -0.19953163
1882 -0.25343105
1880 -0.31135875
1878 -0.363554
1876 -0.406376
1874 -0.44130412
1872 -0.47480527
1870 -0.51354951
1868 -0.55390638
1866 -0.58684409
1864 -0.60770589
1862 -0.61655247
1860 -0.6200667
1858 -0.62601858
1856 -0.63073999
1854 -0.62377912
1852 -0.59699309
1850 -0.54876733
1848 -0.49680841
1846 -0.46720144
1844 -0.47116289
1842 -0.50552088
1840 -0.54956132
1838 -0.57731241
1836 -0.58326972
1834 -0.57617259
1832 -0.56600064
1830 -0.55870718
1828 -0.54553938
1826 -0.51123279
1824 -0.45315051
1822 -0.37938195
1820 -0.3050276
1818 -0.24727631
1816 -0.216892
1814 -0.21771087
1812 -0.24302119
1810 -0.27782467
1808 -0.29869831
1806 -0.28387451
1804 -0.2409382
1802 -0.19833322
1800 -0.18774194
1798 -0.23130435
1796 -0.30885786
1794 -0.37312421
1792 -0.38335642
1790 -0.31623232
1788 -0.19161063
1786 -0.055164922
1784 0.060174808
1782 0.13828477
1780 0.18335846
1778 0.21127109
1776 0.23376113
1774 0.25585172
1772 0.27243438
1770 0.27215344
1768 0.24507737
1766 0.18852171
1764 0.1245654
1762 0.08032126
1760 0.025853196
1758 -0.095164798
1756 -0.26086214
1754 -0.39930815
1752 -0.49599054
1750 -0.58580089
1748 -0.6990748
1746 -0.85002929
1744 -1.0258465
1742 -1.1933397
1740 -1.3107791
1738 -1.3380191
1736 -1.25948
1734 -1.0864372
1732 -0.86780834
1730 -0.67109752
1728 -0.53059012
1726 -0.44362143
1724 -0.3701846
1722 -0.2471606
1720 -0.017317899
1718 0.36196142
1716 0.90299356
1714 1.5821297
1712 2.3123434
1710 2.985328
1708 3.6104379
1706 4.3052287
1704 5.2281656
1702 6.567863
1700 8.5750046
1698 11.456939
1696 14.993571
1694 18.639301
1692 21.967747
1690 24.789766
1688 27.320326
1686 30.054665
1684 33.375423
1682 37.410706
1680 41.748478
1678 45.665855
1676 48.979916
1674 52.040371
1672 55.261158
1670 58.94381
1668 63.008213
1666 67.086494
1664 70.937721
1662 74.494324
1660 77.755905
1658 80.758888
1656 83.572861
1654 86.277237
1652 88.895119
1650 91.360649
1648 93.42762
1646 94.757393
1644 95.280632
1642 95.179626
1640 94.577446
1638 93.4841
1636 91.839912
1634 89.571495
1632 86.755409
1630 83.588531
1628 80.165337
1626 76.458282
1624 72.428558
1622 68.074722
1620 63.51535
1618 58.971989
1616 54.638485
1614 50.650681
1612 47.08976
1610 43.98365
1608 41.297554
1606 38.946709
1604 36.86327
1602 35.010006
1600 33.364578
1598 31.915064
1596 30.647999
1594 29.547459
1592 28.604971
1590 27.819035
1588 27.194098
1586 26.737642
1584 26.442869
1582 26.292311
1580 26.285688
1578 26.442326
1576 26.788544
1574 27.34305
1572 28.072287
1570 28.891844
1568 29.72644
1566 30.530764
1564 31.308264
1562 32.133579
1560 33.225853
1558 34.887211
1556 37.131084
1554 39.632099
1552 41.983707
1550 43.823708
1548 45.094688
1546 46.050785
1544 46.908726
1542 47.760597
1540 48.623062
1538 49.435596
1536 50.027031
1534 50.15815
1532 49.771343
1530 49.024406
1528 48.058128
1526 46.939049
1524 45.700409
1522 44.36013
1520 42.952183
1518 41.528114
1516 40.110584
1514 38.668011
1512 37.084877
1510 35.179703
1508 32.860847
1506 30.187571
1504 27.37421
1502 24.744724
1500 22.439722
1498 20.348249
1496 18.315001
1494 16.210974
1492 13.995906
1490 11.729599
1488 9.4862738
1486 7.3362465
1484 5.3672323
1482 3.6781197
1480 2.3069296
1478 1.2287085
1476 0.49245614
1474 0.23082122
1472 0.45075092
1470 0.97998548
1468 1.633673
1466 2.2738023
1464 2.8438497
1462 3.376482
1460 3.9031253
1458 4.4243155
1456 4.9122801
1454 5.3143859
1452 5.5945802
1450 5.746737
1448 5.7753062
1446 5.6902714
1444 5.5040436
1442 5.2304811
1440 4.88304
1438 4.4715567
1436 3.9920027
1434 3.4287734
1432 2.7970498
1430 2.1568999
1428 1.570888
1426 1.0885726
1424 0.74006337
1422 0.53271425
1420 0.46990138
1418 0.55368984
1416 0.77021629
1414 1.0847219
1412 1.4644778
1410 1.8878051
1408 2.3445139
1406 2.8352785
1404 3.3511019
1402 3.8669744
1400 4.3604321
1398 4.8186822
1396 5.2361712
1394 5.6125154
1392 5.9360271
1390 6.1775265
1388 6.3095498
1386 6.3152146
1384 6.1939707
1382 5.9659228
1380 5.6538925
1378 5.2786627
1376 4.8632288
1374 4.4345512
1372 4.0198698
1370 3.640763
1368 3.2907999
1366 2.924078
1364 2.4961402
1362 1.98597
1360 1.4195468
1358 0.88448822
1356 0.45898572
1354 0.17978747
1352 0.043407414
1350 -0.00025750324
1348 0.0025826488
1346 0.030480428
1344 0.079000399
1342 0.1595982
1340 0.27246678
1338 0.39382094
1336 0.49445745
1334 0.54832643
1332 0.54907811
1330 0.52093029
1328 0.49153978
1326 0.4822517
1324 0.50943393
1322 0.5832392
1320 0.71090668
1318 0.89515352
1316 1.1257499
1314 1.3725946
1312 1.6025497
1310 1.7867887
1308 1.9088191
1306 1.9722607
1304 1.9872988
1302 1.9680049
1300 1.9326135
1298 1.9038246
1296 1.9014143
1294 1.936906
1292 2.0100513
1290 2.1038208
1288 2.200444
1286 2.2889349
1284 2.36637
1282 2.4412539
1280 2.5237441
1278 2.6213872
1276 2.7383213
1274 2.8733599
1272 3.0273795
1270 3.2072842
1268 3.4259341
1266 3.7030523
1264 4.0535092
1262 4.4792948
1260 4.9754763
1258 5.5302033
1256 6.1333771
1254 6.7800975
1252 7.4641023
1250 8.1730843
1248 8.8923264
1246 9.604825
1244 10.294548
1242 10.948723
1240 11.555828
1238 12.102433
1236 12.572872
1234 12.94898
1232 13.21016
1230 13.33267
1228 13.305749
1226 13.140949
1224 12.860063
1222 12.489337
1220 12.043666
1218 11.51692
1216 10.903256
1214 10.213209
1212 9.4735336
1210 8.7361422
1208 8.0429535
1206 7.4041862
1204 6.8106961
1202 6.2304587
1200 5.6347051
1198 5.0141468
1196 4.3700428
1194 3.7173622
1192 3.0765543
1190 2.4730101
1188 1.9308269
1186 1.4678965
1184 1.0931692
1182 0.79969537
1180 0.57707334
1178 0.41627234
1176 0.31229201
1174 0.26766166
1172 0.28249067
1170 0.34702003
1168 0.44399747
1166 0.54561055
1164 0.62815458
1162 0.68330216
1160 0.71087539
1158 0.7200976
1156 0.71599227
1154 0.68920255
1152 0.62925279
1150 0.53166908
1148 0.40014839
1146 0.25428677
1144 0.11976346
1142 0.026389198
1140 -0.0059319641
1138 0.017853841
1136 0.092590548
1134 0.2262737
1132 0.42733529
1130 0.6978451
1128 1.0385433
1126 1.4495558
1124 1.9207331
1122 2.4173839
1120 2.8983922
1118 3.3232563
1116 3.6668341
1114 3.9423864
1112 4.1751504
1110 4.3962393
1108 4.6318598
1106 4.8905749
1104 5.1731405
1102 5.4706106
1100 5.7719064
1098 6.0668926
1096 6.3504715
1094 6.6303186
1092 6.9221621
1090 7.2534256
1088 7.6449718
1086 8.0923176
1084 8.5739985
1082 9.0405817
1080 9.4452972
1078 9.7668734
1076 9.9989071
1074 10.158494
1072 10.268183
1070 10.346954
1068 10.408897
1066 10.454279
1064 10.47584
1062 10.450158
1060 10.360834
1058 10.218866
1056 10.043297
1054 9.8533297
1052 9.6575527
1050 9.4305086
1048 9.1474066
1046 8.807682
1044 8.4253235
1042 8.037611
1040 7.682035
1038 7.3786616
1036 7.1308599
1034 6.9052424
1032 6.6600585
1030 6.3555617
1028 5.9702578
1026 5.5344186
1024 5.0896721
1022 4.6736531
1020 4.3090148
1018 3.9772959
1016 3.6519485
1014 3.3138824
1012 2.9540002
1010 2.5874276
1008 2.2344961
1006 1.9120014
1004 1.6319087
1002 1.3939255
1000 1.1892623
998 0.99248457
996 0.77541643
994 0.51502061
992 0.20251772
990 -0.12937278
988 -0.43897152
986 -0.68895441
984 -0.85152537
982 -0.92608744
980 -0.91775143
978 -0.82845354
976 -0.66121572
974 -0.42551154
972 -0.1371773
970 0.17197824
968 0.46698293
966 0.71569151
964 0.8930003
962 0.99543476
960 1.0304394
958 1.0239459
956 0.99929708
954 0.95355988
952 0.8728984
950 0.72774988
948 0.50573987
946 0.26869059
944 0.087663673
942 0.00079149567
940 0.027944691
938 0.1522606
936 0.33420998
934 0.48581919
932 0.53246641
930 0.49288005
928 0.41363052
926 0.35802522
924 0.37677062
922 0.45781642
920 0.57215101
918 0.68591058
916 0.76993799
914 0.81751364
912 0.82494801
910 0.77873838
908 0.6724748
906 0.53678972
904 0.40975815
902 0.32232562
900 0.29582074
898 0.32059386
896 0.37922001
