Image.
>Pix99999.
  .
5555
5555
2300
900
5555
2
1
0
701
5555
4.5805998e-002
4.6758637e-002
4.7711272e-002
4.8664905e-002
4.9617551e-002
5.0570186e-002
5.1523816e-002
5.2476458e-002
5.3429097e-002
5.4381732e-002
5.5335358e-002
5.6288008e-002
5.7240646e-002
5.8194265e-002
5.9146918e-002
6.0099557e-002
6.1052196e-002
6.2005807e-002
6.2958464e-002
6.3911110e-002
6.4864717e-002
6.5817386e-002
6.6770017e-002
6.7723617e-002
6.8676293e-002
6.9628932e-002
2.5874830e-003
3.2183822e-002
9.3734197e-002
1.8374819e-001
2.7778858e-001
3.1211659e-001
3.3917120e-001
2.9965582e-001
2.6191384e-001
2.6369050e-001
2.8296527e-001
3.7303141e-001
4.5909500e-001
5.2136087e-001
5.6379431e-001
5.6584930e-001
5.6601804e-001
5.6702489e-001
5.7106352e-001
5.7882506e-001
6.0166007e-001
6.3878119e-001
7.0973480e-001
8.0526835e-001
9.1240287e-001
1.0253321e+000
1.0918275e+000
1.1377232e+000
1.1133219e+000
1.0664029e+000
9.8808920e-001
9.0291601e-001
8.3882034e-001
7.7850652e-001
7.6618886e-001
7.6239717e-001
8.0532908e-001
8.5769629e-001
9.3874365e-001
1.0195175e+000
1.0892226e+000
1.1485102e+000
1.1839845e+000
1.2106371e+000
1.2250800e+000
1.2226261e+000
1.1976184e+000
1.1583444e+000
1.1054509e+000
1.0700572e+000
1.0511674e+000
1.0656760e+000
1.1021765e+000
1.1568010e+000
1.2202400e+000
1.2678350e+000
1.3084142e+000
1.2945019e+000
1.2634001e+000
1.1939586e+000
1.1157811e+000
1.0651165e+000
1.0198697e+000
9.9264914e-001
9.6340203e-001
8.9985061e-001
8.3115488e-001
7.6163548e-001
7.1483260e-001
7.3697829e-001
7.8516001e-001
8.6833918e-001
9.2761618e-001
9.3811184e-001
9.1951716e-001
8.7227929e-001
8.4483409e-001
8.4220463e-001
8.5695052e-001
8.8308752e-001
8.8566321e-001
8.7163937e-001
8.2194376e-001
7.5464374e-001
6.8068999e-001
6.0486203e-001
5.5453640e-001
5.1251638e-001
4.8452470e-001
4.5942864e-001
4.1534770e-001
3.6854887e-001
3.3237335e-001
3.0736402e-001
3.3222115e-001
3.6745259e-001
4.0463337e-001
4.3004966e-001
4.2426977e-001
4.1631964e-001
4.1606680e-001
4.2625201e-001
4.4991001e-001
4.6457198e-001
4.6522844e-001
4.5728606e-001
4.4350651e-001
4.3676531e-001
4.3640602e-001
4.4755751e-001
4.6543413e-001
4.9863532e-001
5.3930718e-001
5.7725501e-001
6.1361200e-001
6.4448971e-001
6.7351133e-001
6.9414049e-001
7.0965368e-001
6.7791528e-001
6.3069105e-001
5.5946243e-001
4.8622572e-001
4.3104187e-001
3.8622072e-001
3.5910535e-001
3.4795278e-001
3.6259872e-001
3.9231941e-001
4.3710843e-001
4.6185744e-001
4.5375559e-001
4.0736231e-001
3.2634622e-001
2.5028914e-001
1.8584910e-001
1.6498640e-001
1.7571390e-001
2.1656166e-001
2.7283528e-001
3.1728294e-001
3.5411766e-001
3.6220118e-001
3.5809785e-001
3.4836000e-001
3.3725911e-001
3.3704668e-001
3.3996800e-001
3.4038198e-001
3.3645752e-001
3.1350136e-001
2.8249073e-001
2.4305797e-001
2.0579389e-001
1.8074314e-001
1.6755621e-001
1.7124400e-001
1.8549655e-001
2.0921057e-001
2.3769172e-001
2.6918414e-001
2.9056102e-001
2.9998890e-001
2.8257748e-001
2.4323614e-001
2.0885310e-001
1.8192525e-001
1.8708076e-001
2.1208011e-001
2.3366928e-001
2.5161880e-001
2.3627347e-001
2.0548466e-001
1.8209130e-001
1.6426571e-001
1.7942277e-001
2.0415589e-001
2.0630500e-001
1.8950456e-001
1.2803607e-001
4.5951501e-002
-4.8379380e-002
-1.3825756e-001
-2.0723127e-001
-2.3248400e-001
-1.8987410e-001
-8.9432538e-002
6.4629577e-002
1.8351972e-001
2.3696750e-001
1.9866377e-001
8.2783341e-002
-3.7746619e-002
-1.4416683e-001
-2.1624400e-001
-2.6396638e-001
-2.7283415e-001
-2.5852102e-001
-2.0830640e-001
-1.3882215e-001
-1.0843883e-001
-1.0045502e-001
-1.4321297e-001
-2.0638165e-001
-2.3864242e-001
-2.4880780e-001
-2.1636160e-001
-1.6603631e-001
-1.2045152e-001
-9.3855098e-002
-1.1418755e-001
-1.6313210e-001
-2.3170100e-001
-2.8550440e-001
-2.9987428e-001
-2.7701458e-001
-2.2089842e-001
-1.7636214e-001
-1.5980342e-001
-1.7804000e-001
-2.2406560e-001
-2.6923755e-001
-3.0662680e-001
-3.1125441e-001
-2.9087785e-001
-2.4780902e-001
-1.9208200e-001
-1.5392290e-001
-1.2837636e-001
-1.2241428e-001
-1.2709017e-001
-1.2763023e-001
-1.1981117e-001
-7.1158141e-002
6.0119983e-003
1.1218046e-001
2.1317746e-001
2.4999358e-001
2.3113823e-001
1.5151729e-001
6.9247663e-002
3.7735019e-002
1.3009869e-002
-3.4737982e-002
-7.8272827e-002
-1.0344624e-001
-9.8323032e-002
-6.3623898e-002
-2.2134731e-002
1.6616467e-002
-6.6220742e-003
-8.8863373e-002
-1.8788922e-001
-2.9054570e-001
-3.0754000e-001
-2.5782612e-001
-1.8866718e-001
-1.1398807e-001
-1.2060322e-001
-1.7647250e-001
-1.8872231e-001
-1.4853661e-001
2.2388920e-002
3.2221156e-001
8.0357772e-001
1.4083987e+000
2.0669308e+000
2.7917321e+000
3.6036539e+000
4.6264005e+000
5.9691119e+000
7.8677015e+000
1.0434418e+001
1.3778465e+001
1.7837999e+001
2.1776909e+001
2.5247047e+001
2.8227629e+001
3.0819851e+001
3.3926144e+001
3.7647934e+001
4.2250359e+001
4.7558559e+001
5.2380985e+001
5.6718628e+001
6.0984562e+001
6.5263176e+001
7.0109642e+001
7.5341187e+001
8.0302803e+001
8.4921120e+001
8.8885513e+001
9.2220375e+001
9.4929916e+001
9.7011200e+001
9.8468117e+001
9.9245155e+001
9.9319733e+001
9.8722519e+001
9.7552574e+001
9.6109818e+001
9.4659157e+001
9.3039963e+001
9.1183273e+001
8.8606529e+001
8.5197403e+001
8.1246704e+001
7.6933144e+001
7.2537331e+001
6.8139626e+001
6.3453320e+001
5.8474442e+001
5.3511971e+001
4.8607609e+001
4.4049713e+001
3.9871056e+001
3.6268322e+001
3.3245129e+001
3.0714098e+001
2.8640657e+001
2.6835789e+001
2.5315853e+001
2.4065434e+001
2.3105785e+001
2.2424500e+001
2.2024906e+001
2.1870565e+001
2.1937819e+001
2.2173206e+001
2.2566601e+001
2.3094011e+001
2.3775629e+001
2.4610851e+001
2.5722643e+001
2.7147457e+001
2.8942905e+001
3.1111565e+001
3.3447613e+001
3.5900120e+001
3.8253605e+001
4.0478256e+001
4.2651318e+001
4.4811852e+001
4.7372967e+001
5.0278687e+001
5.2817940e+001
5.4823746e+001
5.5964195e+001
5.6300156e+001
5.6401321e+001
5.6225697e+001
5.5774303e+001
5.4914642e+001
5.3517754e+001
5.1751659e+001
4.9904423e+001
4.8085270e+001
4.6408993e+001
4.4829544e+001
4.3304298e+001
4.1716572e+001
3.9993793e+001
3.7974136e+001
3.5563953e+001
3.3136272e+001
3.0810093e+001
2.8691561e+001
2.6834467e+001
2.4630894e+001
2.1945263e+001
1.9136251e+001
1.6240313e+001
1.3793557e+001
1.1860270e+001
1.0031114e+001
8.3212337e+000
6.6694460e+000
5.1106710e+000
3.6843252e+000
2.4420252e+000
1.4184790e+000
6.6012037e-001
1.7694940e-001
-3.3163682e-002
2.7352542e-002
4.5117891e-001
1.2286122e+000
2.1919270e+000
3.2598531e+000
4.2934051e+000
5.2021275e+000
6.0724859e+000
6.9354672e+000
7.8661366e+000
8.9075994e+000
9.8334541e+000
1.0550809e+001
1.0950818e+001
1.0884514e+001
1.0652822e+001
1.0195185e+001
9.6910391e+000
9.1160069e+000
8.4664507e+000
7.7094932e+000
6.8403525e+000
5.8941097e+000
5.0386176e+000
4.3233600e+000
3.7988329e+000
3.4635589e+000
3.2686090e+000
3.2254889e+000
3.3408818e+000
3.5896599e+000
3.9572349e+000
4.3823509e+000
4.8286991e+000
5.2921205e+000
5.7770009e+000
6.2472968e+000
6.6793747e+000
7.0096121e+000
7.1615925e+000
7.1871643e+000
7.0060215e+000
6.7886338e+000
6.5119467e+000
6.2321081e+000
5.9445100e+000
5.6406884e+000
5.3154368e+000
4.9852438e+000
4.6405210e+000
4.2602544e+000
3.8279383e+000
3.3334241e+000
2.7857056e+000
2.2312653e+000
1.6794878e+000
1.1496170e+000
6.5951467e-001
2.3956715e-001
-7.9111874e-002
-2.2886315e-001
-2.5133914e-001
-1.1847874e-001
1.0228620e-001
4.2528829e-001
7.7573502e-001
1.1497400e+000
1.5070235e+000
1.8209924e+000
2.0805359e+000
2.2276030e+000
2.3097634e+000
2.2723022e+000
2.1996090e+000
2.0716527e+000
1.9338286e+000
1.7881700e+000
1.6614804e+000
1.5672395e+000
1.5139896e+000
1.5049300e+000
1.5139372e+000
1.5283359e+000
1.5147302e+000
1.4704525e+000
1.3903314e+000
1.2931468e+000
1.2027249e+000
1.1353480e+000
1.1246110e+000
1.1618714e+000
1.2803324e+000
1.4488051e+000
1.7013786e+000
1.9880919e+000
2.3330328e+000
2.6831255e+000
3.0345831e+000
3.3598733e+000
3.6232872e+000
3.8459713e+000
3.9915729e+000
4.1235113e+000
4.2375317e+000
4.3682013e+000
4.5257249e+000
4.7058120e+000
4.9231415e+000
5.1927843e+000
5.5347505e+000
5.9702001e+000
6.5032368e+000
7.1330094e+000
7.8380218e+000
8.5974751e+000
9.3750753e+000
1.0123145e+001
1.0824061e+001
1.1403651e+001
1.1888331e+001
1.2167529e+001
1.2312096e+001
1.2145480e+001
1.1833010e+001
1.1148577e+001
1.0366672e+001
9.3346281e+000
8.2894831e+000
7.2240639e+000
6.2338829e+000
5.4083142e+000
4.7158580e+000
4.2592182e+000
3.9424009e+000
3.8245051e+000
3.7875159e+000
3.8287120e+000
3.8279598e+000
3.7606738e+000
3.5605996e+000
3.2432001e+000
2.8284295e+000
2.3593473e+000
1.8938550e+000
1.4494991e+000
1.0857981e+000
7.7673978e-001
5.8387268e-001
4.4188273e-001
4.0016791e-001
3.8861600e-001
4.4393444e-001
5.1479083e-001
6.3027889e-001
7.4185139e-001
8.3889765e-001
9.1011941e-001
9.1720325e-001
9.0650862e-001
8.6156541e-001
8.1677717e-001
7.7056199e-001
7.1398294e-001
6.4170814e-001
5.5456561e-001
4.5169467e-001
3.4637538e-001
2.3922631e-001
1.3320506e-001
2.7037010e-002
-8.6507685e-002
-1.9959420e-001
-2.3040706e-001
-2.1274960e-001
-1.0573729e-001
2.7851477e-002
1.7305817e-001
3.0823165e-001
3.7956119e-001
4.3919891e-001
4.6821898e-001
5.0601345e-001
5.8287221e-001
6.6712213e-001
7.7399004e-001
8.7618601e-001
9.6755505e-001
1.0628411e+000
1.1678525e+000
1.2906140e+000
1.4425571e+000
1.6121271e+000
1.8067480e+000
2.0288765e+000
2.2820115e+000
2.5685837e+000
2.8781545e+000
3.1715713e+000
3.4401801e+000
3.6007252e+000
3.6958871e+000
3.6690323e+000
3.6018486e+000
3.5298021e+000
3.4644222e+000
3.4550209e+000
3.4480920e+000
3.4068000e+000
3.3526049e+000
3.2263813e+000
3.0982542e+000
2.9622495e+000
2.8353131e+000
2.7384820e+000
2.6601324e+000
2.6275392e+000
2.6168079e+000
2.6485229e+000
2.7044499e+000
2.7967818e+000
2.9049199e+000
3.0268490e+000
3.1075034e+000
3.1434417e+000
3.0950868e+000
2.9845722e+000
2.8280787e+000
2.6472139e+000
2.4619193e+000
2.2699151e+000
2.0235031e+000
1.7520573e+000
1.3647414e+000
9.5640337e-001
5.3116000e-001
1.1682150e-001
-1.5280138e-001
-4.0552050e-001
-5.5103022e-001
-6.9213784e-001
-8.1289357e-001
-9.1573322e-001
-9.6128076e-001
-9.7204274e-001
-9.0353119e-001
-8.3277208e-001
-7.6118970e-001
-7.4016988e-001
-7.8791595e-001
-8.6210847e-001
-9.5912343e-001
-9.8008156e-001
-9.3674165e-001
-8.2253242e-001
-6.6787297e-001
-5.5991805e-001
-4.7707945e-001
-4.7527745e-001
-5.0033927e-001
-5.4132891e-001
-5.8279568e-001
-5.5858725e-001
-5.2348882e-001
-4.1688186e-001
-3.0110490e-001
-9.9244289e-002
1.2457371e-002
3.7488499e-001
7.2390568e-001
1.0141730e+000
1.2371514e+000
1.2639322e+000
1.3103757e+000
1.4007068e+000
1.5726143e+000
1.8736707e+000
2.1274381e+000
2.3214993e+000
2.3783984e+000
2.3066320e+000
2.1232529e+000
1.8615680e+000
1.6184303e+000
1.3867221e+000
1.3095458e+000
1.2922707e+000
1.3722045e+000
1.4786947e+000
1.7804534e+000
2.1142190e+000
2.8264999e+000
