Image.
>Pix99999.
  .
5555
5555
2300
900
5555
2
1
0
701
5555
5.1151002e-003
5.2214479e-003
5.3278953e-003
5.4343431e-003
5.5407910e-003
5.6471392e-003
5.7535865e-003
5.8601331e-003
5.9663840e-003
6.0722372e-003
6.1792685e-003
6.2878900e-003
6.3921120e-003
6.4900802e-003
6.6047958e-003
6.7424364e-003
6.8184901e-003
6.8082963e-003
7.0275068e-003
7.5681768e-003
7.2560203e-003
5.7452279e-003
7.4042603e-003
1.3533644e-002
7.8807222e-003
-1.5392725e-002
-6.0346001e-004
1.0386313e-001
2.6383802e-001
4.2588699e-001
5.5701941e-001
6.3766134e-001
6.7787999e-001
6.9291329e-001
6.8483591e-001
6.5415150e-001
6.1075646e-001
5.6763023e-001
5.3883219e-001
5.3591245e-001
5.5905253e-001
6.0459417e-001
6.6705823e-001
7.3959219e-001
8.1170487e-001
8.7669653e-001
9.4761407e-001
1.0406423e+000
1.1596097e+000
1.2989370e+000
1.4284929e+000
1.5166925e+000
1.5544668e+000
1.5461859e+000
1.5202906e+000
1.5108286e+000
1.5429519e+000
1.6305841e+000
1.7532932e+000
1.8800873e+000
1.9809486e+000
2.0349514e+000
2.0541563e+000
2.0611510e+000
2.0762370e+000
2.1147115e+000
2.1772807e+000
2.2587271e+000
2.3515685e+000
2.4450736e+000
2.5183802e+000
2.5506599e+000
2.5337629e+000
2.4714870e+000
2.3968024e+000
2.3478179e+000
2.3437915e+000
2.3899131e+000
2.4633980e+000
2.5328467e+000
2.5719543e+000
2.5649464e+000
2.5310109e+000
2.5027251e+000
2.5159559e+000
2.5934935e+000
2.6990700e+000
2.7816691e+000
2.8177285e+000
2.8038683e+000
2.7740242e+000
2.7656500e+000
2.7751622e+000
2.7851980e+000
2.7863269e+000
2.7759287e+000
2.7653263e+000
2.7658813e+000
2.7674041e+000
2.7550650e+000
2.7299428e+000
2.7029099e+000
2.6986582e+000
2.7384286e+000
2.8069434e+000
2.8740551e+000
2.9086936e+000
2.8888717e+000
2.8302052e+000
2.7611156e+000
2.7015672e+000
2.6648171e+000
2.6524599e+000
2.6622531e+000
2.6933651e+000
2.7422063e+000
2.7903285e+000
2.8161063e+000
2.8108869e+000
2.7745719e+000
2.7188630e+000
2.6587579e+000
2.6033812e+000
2.5613406e+000
2.5502033e+000
2.5882356e+000
2.6795201e+000
2.8167202e+000
2.9704108e+000
3.1052692e+000
3.1994100e+000
3.2423058e+000
3.2437127e+000
3.2212970e+000
3.1911535e+000
3.1651828e+000
3.1433189e+000
3.1202993e+000
3.0895269e+000
3.0458336e+000
2.9898000e+000
2.9257135e+000
2.8624394e+000
2.8095961e+000
2.7711027e+000
2.7474673e+000
2.7362354e+000
2.7355850e+000
2.7530119e+000
2.7982953e+000
2.8711357e+000
2.9621935e+000
3.0441325e+000
3.0869870e+000
3.0848401e+000
3.0459964e+000
2.9900041e+000
2.9370282e+000
2.8891087e+000
2.8408618e+000
2.7935429e+000
2.7524621e+000
2.7245700e+000
2.7149110e+000
2.7188303e+000
2.7282722e+000
2.7404647e+000
2.7561395e+000
2.7778080e+000
2.8063848e+000
2.8345215e+000
2.8519313e+000
2.8544948e+000
2.8436599e+000
2.8287032e+000
2.8211501e+000
2.8252897e+000
2.8409970e+000
2.8658342e+000
2.8953264e+000
2.9192200e+000
2.9248741e+000
2.9032919e+000
2.8533797e+000
2.7982256e+000
2.7700686e+000
2.7854397e+000
2.8443930e+000
2.9171062e+000
2.9634719e+000
2.9669614e+000
2.9276612e+000
2.8571942e+000
2.7722077e+000
2.6896653e+000
2.6258900e+000
2.5963640e+000
2.6125853e+000
2.6699810e+000
2.7547879e+000
2.8519428e+000
2.9472661e+000
3.0305452e+000
3.0941541e+000
3.1303566e+000
3.1325307e+000
3.0996132e+000
3.0361211e+000
2.9588525e+000
2.8910801e+000
2.8536098e+000
2.8606193e+000
2.9058611e+000
2.9692433e+000
3.0229950e+000
3.0419958e+000
3.0274441e+000
2.9960189e+000
2.9612377e+000
2.9299231e+000
2.8942001e+000
2.8419325e+000
2.7799020e+000
2.7263100e+000
2.6943800e+000
2.6874464e+000
2.6847529e+000
2.6553929e+000
2.5875852e+000
2.4878240e+000
2.3850913e+000
2.3164549e+000
2.2986662e+000
2.3272204e+000
2.3671966e+000
2.3715305e+000
2.3188114e+000
2.2113230e+000
2.0763681e+000
1.9517789e+000
1.8582114e+000
1.8006272e+000
1.7693971e+000
1.7486957e+000
1.7314818e+000
1.7165700e+000
1.6997311e+000
1.6755036e+000
1.6464286e+000
1.6214324e+000
1.6127928e+000
1.6284357e+000
1.6500080e+000
1.6470745e+000
1.6148311e+000
1.5676600e+000
1.5172051e+000
1.4688292e+000
1.4191709e+000
1.3586570e+000
1.2749885e+000
1.1551476e+000
9.8869258e-001
7.7392882e-001
5.4001254e-001
3.3357063e-001
1.8206939e-001
8.8991836e-002
2.3636835e-002
-5.6669109e-002
-1.4663079e-001
-2.0687063e-001
-2.1504629e-001
-1.7354330e-001
-1.1797522e-001
-9.9688642e-002
-1.4106485e-001
-2.3319596e-001
-3.3554339e-001
-3.9619383e-001
-4.0375000e-001
-3.8303646e-001
-3.7276146e-001
-4.0714124e-001
-4.7288185e-001
-5.1870078e-001
-4.8857483e-001
-3.3532050e-001
-4.4907100e-002
3.6922941e-001
8.8363975e-001
1.4629714e+000
2.0354776e+000
2.5277615e+000
2.9900398e+000
3.5798144e+000
4.4803381e+000
5.8802919e+000
7.9716110e+000
1.0870155e+001
1.4323143e+001
1.7814409e+001
2.0980892e+001
2.3702602e+001
2.6202932e+001
2.8926201e+001
3.2175694e+001
3.6003506e+001
4.0024158e+001
4.3621845e+001
4.6683571e+001
4.9574463e+001
5.2665764e+001
5.6186768e+001
6.0030010e+001
6.3846249e+001
6.7432190e+001
7.0759064e+001
7.3827583e+001
7.6646103e+001
7.9274971e+001
8.1816727e+001
8.4355156e+001
8.6899048e+001
8.9213425e+001
9.0905746e+001
9.1833092e+001
9.2109734e+001
9.1841972e+001
9.1067703e+001
8.9743057e+001
8.7792076e+001
8.5295212e+001
8.2465553e+001
7.9428932e+001
7.6190819e+001
7.2701355e+001
6.8903938e+001
6.4849304e+001
6.0695538e+001
5.6613144e+001
5.2756195e+001
4.9234783e+001
4.6104153e+001
4.3347275e+001
4.0889328e+001
3.8677505e+001
3.6697491e+001
3.4954361e+001
3.3459042e+001
3.2194500e+001
3.1113934e+001
3.0168045e+001
2.9317976e+001
2.8557564e+001
2.7910172e+001
2.7399246e+001
2.7043720e+001
2.6862495e+001
2.6872561e+001
2.7078629e+001
2.7469910e+001
2.8020786e+001
2.8696405e+001
2.9467201e+001
3.0312622e+001
3.1219082e+001
3.2205647e+001
3.3437866e+001
3.5173923e+001
3.7384056e+001
3.9712128e+001
4.1808411e+001
4.3453182e+001
4.4688560e+001
4.5792465e+001
4.6938709e+001
4.8114639e+001
4.9204323e+001
5.0029819e+001
5.0476688e+001
5.0533554e+001
5.0287640e+001
4.9893368e+001
4.9407810e+001
4.8763451e+001
4.7895187e+001
4.6780285e+001
4.5453640e+001
4.4003124e+001
4.2519455e+001
4.1060341e+001
3.9556839e+001
3.7811348e+001
3.5664673e+001
3.3072266e+001
3.0189463e+001
2.7351391e+001
2.4753254e+001
2.2369730e+001
2.0109285e+001
1.7864531e+001
1.5574492e+001
1.3240110e+001
1.0873866e+001
8.5015583e+000
6.2229719e+000
4.2107830e+000
2.5699401e+000
1.3134186e+000
5.0334942e-001
2.5719136e-001
5.3700316e-001
1.1024563e+000
1.7329886e+000
2.3039551e+000
2.7874641e+000
3.2481143e+000
3.7355917e+000
4.2488265e+000
4.7480998e+000
5.1636529e+000
5.4529548e+000
5.6177783e+000
5.6670270e+000
5.6072216e+000
5.4506087e+000
5.2167788e+000
4.9222097e+000
4.5730920e+000
4.1531658e+000
3.6268067e+000
2.9981263e+000
2.3325768e+000
1.7119720e+000
1.2167003e+000
8.9554030e-001
7.5167114e-001
7.6735604e-001
9.0877831e-001
1.1350887e+000
1.4039440e+000
1.6921138e+000
2.0051460e+000
2.3602967e+000
2.7803600e+000
3.2770121e+000
3.8409655e+000
4.4417038e+000
5.0251632e+000
5.5364642e+000
5.9311285e+000
6.1903024e+000
6.3286414e+000
6.3614326e+000
6.2938747e+000
6.1302500e+000
5.8777313e+000
5.5521784e+000
5.1803842e+000
4.7847657e+000
4.3782897e+000
3.9760942e+000
3.5964851e+000
3.2406304e+000
2.8822744e+000
2.4889221e+000
2.0342724e+000
1.5314314e+000
1.0491774e+000
6.4930254e-001
3.5825062e-001
1.6888298e-001
3.7286349e-002
-6.6083021e-002
-1.3405107e-001
-1.4727880e-001
-8.3766587e-002
5.7361700e-002
2.4150018e-001
4.2354000e-001
5.5838227e-001
6.2547398e-001
6.4496481e-001
6.4920610e-001
6.7408335e-001
7.4763519e-001
8.8205230e-001
1.0769086e+000
1.3155494e+000
1.5713799e+000
1.8086640e+000
1.9978286e+000
2.1258078e+000
2.1945591e+000
2.2250807e+000
2.2379982e+000
2.2454779e+000
2.2540414e+000
2.2637861e+000
2.2754285e+000
2.2924817e+000
2.3172858e+000
2.3489313e+000
2.3868680e+000
2.4328315e+000
2.4920084e+000
2.5743396e+000
2.6884177e+000
2.8374135e+000
3.0178256e+000
3.2169580e+000
3.4219303e+000
3.6261368e+000
3.8356764e+000
4.0774078e+000
4.3796496e+000
4.7622337e+000
5.2288098e+000
5.7578950e+000
6.3276200e+000
6.9282055e+000
7.5600953e+000
8.2367277e+000
8.9654913e+000
9.7353001e+000
1.0523632e+001
1.1294886e+001
1.2017365e+001
1.2667907e+001
1.3228514e+001
1.3689501e+001
1.4035800e+001
1.4242994e+001
1.4292926e+001
1.4185435e+001
1.3932766e+001
1.3558049e+001
1.3081714e+001
1.2512950e+001
1.1864914e+001
1.1163095e+001
1.0440907e+001
9.7385445e+000
9.0822506e+000
8.4700871e+000
7.8862019e+000
7.3009081e+000
6.6900015e+000
6.0474110e+000
5.3781857e+000
4.7013922e+000
4.0405655e+000
3.4210701e+000
2.8637598e+000
2.3788300e+000
1.9705206e+000
1.6358495e+000
1.3750806e+000
1.1980313e+000
1.1115201e+000
1.1089612e+000
1.1696221e+000
1.2493193e+000
1.3063715e+000
1.3181164e+000
1.2782105e+000
1.2074710e+000
1.1301622e+000
1.0638429e+000
1.0154371e+000
9.7170103e-001
9.1274804e-001
8.1551778e-001
6.6623700e-001
4.7546285e-001
2.7037853e-001
1.0176646e-001
1.2473240e-002
1.2866102e-002
9.9713944e-002
2.5628740e-001
4.6584803e-001
7.1950811e-001
1.0118914e+000
1.3408022e+000
1.6973054e+000
2.0553408e+000
2.3942039e+000
2.7168877e+000
3.0341301e+000
3.3611617e+000
3.7105479e+000
4.0855231e+000
4.4840097e+000
4.8966551e+000
5.3085074e+000
5.6953588e+000
6.0392113e+000
6.3430963e+000
6.6180711e+000
6.8832111e+000
7.1589999e+000
7.4645991e+000
7.8136563e+000
8.2054396e+000
8.6277246e+000
9.0484123e+000
9.4359484e+000
9.7737017e+000
1.0054214e+001
1.0283411e+001
1.0469481e+001
1.0610304e+001
1.0703265e+001
1.0748850e+001
1.0751520e+001
1.0719004e+001
1.0655286e+001
1.0549065e+001
1.0386971e+001
1.0161050e+001
9.8730726e+000
9.5404711e+000
9.1876307e+000
8.8425541e+000
8.5282412e+000
8.2507620e+000
8.0054674e+000
7.7687531e+000
7.5164299e+000
7.2357259e+000
6.9212227e+000
6.5797930e+000
6.2261600e+000
5.8869743e+000
5.5830293e+000
5.3078699e+000
5.0370264e+000
4.7145233e+000
4.2999740e+000
3.8231494e+000
3.3382549e+000
2.9183757e+000
2.6151481e+000
2.3992908e+000
2.2200882e+000
2.0222337e+000
1.7596920e+000
1.4192538e+000
1.0039614e+000
5.4307842e-001
8.1510425e-002
-3.0793667e-001
-5.6083608e-001
-6.6274542e-001
-6.2738222e-001
-5.1932234e-001
-4.0415078e-001
-3.0906460e-001
-2.3903714e-001
-1.5729734e-001
-2.7019173e-002
1.5398820e-001
3.7200284e-001
5.8888102e-001
7.6944548e-001
9.0919834e-001
1.0108628e+000
1.0759116e+000
1.0977743e+000
1.0440290e+000
8.8974482e-001
6.5905774e-001
3.9509159e-001
1.6560292e-001
3.6805391e-002
4.7069743e-002
2.0433615e-001
4.3217021e-001
6.4212918e-001
7.7865601e-001
8.0946445e-001
7.5774336e-001
6.6536915e-001
5.9215826e-001
5.9039640e-001
6.6731280e-001
8.0794704e-001
9.5617568e-001
1.0587800e+000
1.1128249e+000
1.1300955e+000
1.1296159e+000
1.1208543e+000
1.0684367e+000
9.4769269e-001
8.1913483e-001
7.5766933e-001
8.1006461e-001
1.0160000e+000
