Image.
>Pix99999.
  .
5555
5555
2300
900
5555
2
1
0
701
5555
-2.7598999e-002
-2.8185163e-002
-2.8772321e-002
-2.9358484e-002
-2.9944645e-002
-3.0530807e-002
-3.1117959e-002
-3.1704128e-002
-3.2290291e-002
-3.2876454e-002
-3.3462614e-002
-3.4048777e-002
-3.4635920e-002
-3.5224061e-002
-3.5808299e-002
-3.6386590e-002
-3.6981378e-002
-3.7597016e-002
-3.8154677e-002
-3.8631108e-002
-3.9324000e-002
-4.0319823e-002
-4.0512722e-002
-3.9572135e-002
-4.1618217e-002
-4.2723786e-002
-1.5883029e-003
1.1155456e-001
2.3793080e-001
3.0510628e-001
2.8673285e-001
1.8326096e-001
4.9431406e-002
-5.8243677e-002
-1.3838504e-001
-2.0581301e-001
-2.7555051e-001
-3.5665470e-001
-4.3460384e-001
-4.9038798e-001
-5.1514399e-001
-5.0432503e-001
-4.5821500e-001
-3.8342541e-001
-3.0641943e-001
-2.5746042e-001
-2.5778410e-001
-3.1505489e-001
-3.9327377e-001
-4.4709930e-001
-4.4796357e-001
-3.8111624e-001
-2.6594219e-001
-1.3082561e-001
2.5377795e-003
1.1454579e-001
1.8475880e-001
1.9564900e-001
1.4272560e-001
3.1527881e-002
-1.0875626e-001
-2.4537593e-001
-3.6217368e-001
-4.4992021e-001
-5.0491744e-001
-5.2627164e-001
-5.1768112e-001
-4.8829681e-001
-4.6366754e-001
-4.6789336e-001
-4.9663597e-001
-5.3503692e-001
-5.6530625e-001
-5.7451838e-001
-5.7274491e-001
-5.7463747e-001
-5.8088148e-001
-5.8747506e-001
-5.9222519e-001
-5.9320909e-001
-5.8637029e-001
-5.6609648e-001
-5.2375197e-001
-4.5516580e-001
-3.7913641e-001
-3.2000956e-001
-2.9075164e-001
-2.9663110e-001
-3.2948044e-001
-3.7819529e-001
-4.3946901e-001
-5.1173991e-001
-5.8814049e-001
-6.5984315e-001
-7.1843523e-001
-7.5796074e-001
-7.8165948e-001
-7.9704320e-001
-8.1484681e-001
-8.4344327e-001
-8.7679571e-001
-9.0431643e-001
-9.1978389e-001
-9.2172736e-001
-9.2057055e-001
-9.2798597e-001
-9.4179547e-001
-9.5381296e-001
-9.5441294e-001
-9.3629271e-001
-9.0303481e-001
-8.6298507e-001
-8.2593083e-001
-8.0313730e-001
-8.1034267e-001
-8.6028314e-001
-9.4543642e-001
-1.0465307e+000
-1.1302311e+000
-1.1666081e+000
-1.1620200e+000
-1.1392560e+000
-1.1250740e+000
-1.1408870e+000
-1.1813172e+000
-1.2297786e+000
-1.2718920e+000
-1.2983546e+000
-1.3147755e+000
-1.3303066e+000
-1.3417500e+000
-1.3388228e+000
-1.3063788e+000
-1.2366490e+000
-1.1613572e+000
-1.1221399e+000
-1.1294137e+000
-1.1719295e+000
-1.2111254e+000
-1.2099850e+000
-1.1855800e+000
-1.1749690e+000
-1.1925125e+000
-1.2357330e+000
-1.2803103e+000
-1.2996864e+000
-1.2969391e+000
-1.2880740e+000
-1.2831823e+000
-1.2857060e+000
-1.2869928e+000
-1.2737671e+000
-1.2382377e+000
-1.1781383e+000
-1.1037400e+000
-1.0304314e+000
-9.6946561e-001
-9.2842156e-001
-9.0797657e-001
-9.0325391e-001
-8.9939457e-001
-8.7742913e-001
-8.2073098e-001
-7.2076303e-001
-5.9734780e-001
-4.8412231e-001
-4.1409039e-001
-4.1282791e-001
-4.7950321e-001
-5.9671295e-001
-7.3252887e-001
-8.5147768e-001
-9.3034387e-001
-9.5935923e-001
-9.5785445e-001
-9.5553249e-001
-9.6451753e-001
-9.8369837e-001
-9.9880701e-001
-9.9491018e-001
-9.8026460e-001
-9.7412974e-001
-9.8825258e-001
-1.0243592e+000
-1.0626479e+000
-1.0728414e+000
-1.0285758e+000
-9.1645175e-001
-7.6633507e-001
-6.2954962e-001
-5.4990673e-001
-5.5296558e-001
-6.1113822e-001
-6.7062926e-001
-6.8851447e-001
-6.4041841e-001
-5.4593480e-001
-4.4464538e-001
-3.5947430e-001
-2.9602250e-001
-2.3406428e-001
-1.4970814e-001
-6.2592246e-002
-1.5697371e-002
-4.0059522e-002
-1.4662275e-001
-2.9864177e-001
-4.4001102e-001
-5.4708785e-001
-6.1964953e-001
-6.6636997e-001
-6.9324958e-001
-6.8032432e-001
-6.0035884e-001
-4.6307033e-001
-3.0469757e-001
-1.7468388e-001
-1.1666620e-001
-1.2382346e-001
-1.6183926e-001
-2.1204829e-001
-2.7155578e-001
-3.5118976e-001
-4.6396050e-001
-6.0087919e-001
-7.3764354e-001
-8.4530526e-001
-8.9922321e-001
-9.0006739e-001
-8.6473721e-001
-8.1138301e-001
-7.5230002e-001
-6.7777073e-001
-5.6856811e-001
-4.2496687e-001
-2.6562637e-001
-1.2885031e-001
-5.5566527e-002
-4.8609458e-002
-8.3618142e-002
-1.3052458e-001
-1.6314696e-001
-1.7634271e-001
-1.7784642e-001
-1.7082268e-001
-1.5841851e-001
-1.6463274e-001
-2.2285032e-001
-3.4341887e-001
-5.0614882e-001
-6.3018072e-001
-6.1272711e-001
-4.2811239e-001
-1.2126860e-001
2.0193964e-001
4.2022827e-001
5.0008261e-001
4.7502643e-001
3.8844875e-001
2.7971521e-001
1.7602371e-001
9.4989464e-002
4.8564654e-002
4.0141366e-002
4.7162451e-002
3.7885308e-002
2.1215439e-002
2.4603989e-002
1.6292335e-002
-6.7635864e-002
-2.2373101e-001
-3.9520839e-001
-5.3352135e-001
-6.1192197e-001
-6.4189541e-001
-6.6474611e-001
-7.3834258e-001
-9.1061378e-001
-1.1435362e+000
-1.3340026e+000
-1.3802600e+000
-1.2157474e+000
-8.9061368e-001
-5.3747165e-001
-2.6950103e-001
-1.5096964e-001
-1.4502506e-001
-1.3329130e-001
4.0440567e-002
5.2024293e-001
1.3075333e+000
2.2847593e+000
3.3095555e+000
4.2684374e+000
5.1950960e+000
6.2416229e+000
7.5697665e+000
9.3345747e+000
1.1708344e+001
1.4809327e+001
1.8431713e+001
2.2131069e+001
2.5576717e+001
2.8650953e+001
3.1616627e+001
3.5007084e+001
3.9264496e+001
4.4569180e+001
5.0438118e+001
5.5996204e+001
6.1009441e+001
6.5865997e+001
7.0955101e+001
7.6452942e+001
8.2004974e+001
8.6900551e+001
9.0791794e+001
9.3732292e+001
9.5878387e+001
9.7392799e+001
9.8359489e+001
9.8800995e+001
9.8795639e+001
9.8470795e+001
9.7886848e+001
9.7031174e+001
9.5874222e+001
9.4384125e+001
9.2525291e+001
9.0254128e+001
8.7508568e+001
8.4236076e+001
8.0516289e+001
7.6522095e+001
7.2294296e+001
6.7742989e+001
6.2820358e+001
5.7578049e+001
5.2231148e+001
4.7115528e+001
4.2485199e+001
3.8471992e+001
3.5107540e+001
3.2338001e+001
3.0051611e+001
2.8108070e+001
2.6418488e+001
2.4958214e+001
2.3743401e+001
2.2811382e+001
2.2181999e+001
2.1847275e+001
2.1771879e+001
2.1903048e+001
2.2201839e+001
2.2648300e+001
2.3226496e+001
2.3929810e+001
2.4803244e+001
2.5947592e+001
2.7486572e+001
2.9530870e+001
3.2058926e+001
3.4905472e+001
3.7862801e+001
4.0719986e+001
4.3320229e+001
4.5610699e+001
4.7761993e+001
5.0103329e+001
5.2685341e+001
5.5208771e+001
5.7287567e+001
5.8578911e+001
5.9050434e+001
5.8960213e+001
5.8385147e+001
5.7155796e+001
5.5169838e+001
5.2503494e+001
4.9492828e+001
4.6666256e+001
4.4273022e+001
4.2195587e+001
4.0259674e+001
3.8319752e+001
3.6270298e+001
3.4060547e+001
3.1724537e+001
2.9380257e+001
2.7154043e+001
2.5130728e+001
2.3236200e+001
2.1240404e+001
1.9001415e+001
1.6551414e+001
1.4086005e+001
1.1914079e+001
1.0164204e+001
8.7149630e+000
7.4014997e+000
6.0897541e+000
4.7462063e+000
3.4506857e+000
2.2878919e+000
1.3153845e+000
5.6729162e-001
5.4138303e-002
-2.2700149e-001
-2.7551848e-001
-1.6909719e-002
6.8871051e-001
1.8507886e+000
3.2932091e+000
4.7988281e+000
6.1689591e+000
7.3151574e+000
8.2892895e+000
9.1837091e+000
1.0093136e+001
1.1053000e+001
1.2009279e+001
1.2833468e+001
1.3343886e+001
1.3457629e+001
1.3240929e+001
1.2790974e+001
1.2196549e+001
1.1507514e+001
1.0721767e+001
9.8156004e+000
8.7669525e+000
7.6191478e+000
6.5006390e+000
5.5348582e+000
4.8028207e+000
4.3265376e+000
4.0604000e+000
3.9560990e+000
3.9838569e+000
4.1294146e+000
4.3930192e+000
4.7679081e+000
5.2319899e+000
5.7536559e+000
6.2889400e+000
6.7712607e+000
7.1092749e+000
7.2280402e+000
7.0947661e+000
6.7431569e+000
6.2867184e+000
5.8346109e+000
5.4562736e+000
5.1718307e+000
4.9431200e+000
4.7319837e+000
4.5182791e+000
4.2779202e+000
3.9756670e+000
3.5781658e+000
3.0652013e+000
2.4549220e+000
1.8157141e+000
1.2049402e+000
6.4449632e-001
1.4221427e-001
-2.9875156e-001
-6.4768857e-001
-8.3575094e-001
-8.2295471e-001
-6.2842524e-001
-2.8654444e-001
1.6429612e-001
6.8035650e-001
1.2143178e+000
1.7388000e+000
2.2581210e+000
2.7732012e+000
3.2656176e+000
3.6967628e+000
4.0056391e+000
4.1445060e+000
4.0992560e+000
3.8843033e+000
3.5492606e+000
3.1558640e+000
2.7700043e+000
2.4431925e+000
2.1985798e+000
2.0351200e+000
1.9224552e+000
1.8276039e+000
1.7262521e+000
1.6097915e+000
1.4935329e+000
1.4009023e+000
1.3588430e+000
1.3885903e+000
1.4989568e+000
1.6880572e+000
1.9412113e+000
2.2487192e+000
2.6145895e+000
3.0482280e+000
3.5593007e+000
4.1323481e+000
4.7079477e+000
5.2197304e+000
5.6114550e+000
5.8602285e+000
6.0002360e+000
6.0833669e+000
6.1681886e+000
6.3026495e+000
6.5113707e+000
6.8068390e+000
7.1898155e+000
7.6598902e+000
8.2200584e+000
8.8782625e+000
9.6485748e+000
1.0537166e+001
1.1530281e+001
1.2599823e+001
1.3697500e+001
1.4780491e+001
1.5819413e+001
1.6782246e+001
1.7612291e+001
1.8233143e+001
1.8537689e+001
1.8447720e+001
1.7960869e+001
1.7118866e+001
1.6019186e+001
1.4756714e+001
1.3397233e+001
1.2009257e+001
1.0681928e+001
9.5100346e+000
8.5872478e+000
7.9830322e+000
7.7116656e+000
7.7379904e+000
7.9504142e+000
8.2079582e+000
8.3520746e+000
8.2620220e+000
7.9096079e+000
7.3197432e+000
6.5821490e+000
5.7870536e+000
4.9921093e+000
4.2386818e+000
3.5491521e+000
2.9420128e+000
2.4367278e+000
2.0487700e+000
1.7837830e+000
1.6412400e+000
1.6108292e+000
1.6735263e+000
1.7963048e+000
1.9437298e+000
2.0824580e+000
2.1855237e+000
2.2400138e+000
2.2421696e+000
2.2014000e+000
2.1229944e+000
1.9957867e+000
1.8011491e+000
1.5154529e+000
1.1383238e+000
7.2619390e-001
3.5325933e-001
9.8624833e-002
2.9129246e-003
1.4850620e-002
7.1222827e-002
1.3348201e-001
1.7952447e-001
2.1304367e-001
2.4980292e-001
3.1798658e-001
4.3364087e-001
5.7567120e-001
7.0925200e-001
7.8970337e-001
7.8843659e-001
7.2214359e-001
6.1814481e-001
5.0313711e-001
4.0221757e-001
3.3691251e-001
3.2838374e-001
3.9812133e-001
5.5939221e-001
8.0416906e-001
1.1174715e+000
1.4797279e+000
1.8723720e+000
2.2822242e+000
2.6929052e+000
3.0768480e+000
3.4051621e+000
3.6528425e+000
3.8026559e+000
3.8554430e+000
3.8143315e+000
3.6785607e+000
3.4538977e+000
3.1674731e+000
2.8596106e+000
2.5918744e+000
2.4153440e+000
2.3368206e+000
2.3362494e+000
2.3501799e+000
2.3148487e+000
2.1970124e+000
1.9882958e+000
1.7297471e+000
1.4723926e+000
1.2613037e+000
1.1343317e+000
1.1118201e+000
1.2051908e+000
1.4114952e+000
1.7145000e+000
2.0687661e+000
2.4117143e+000
2.6510150e+000
2.6998239e+000
2.5119057e+000
2.0873313e+000
1.5356431e+000
9.8982882e-001
5.7209980e-001
3.5907456e-001
2.9844376e-001
2.9879466e-001
2.4868968e-001
7.2024167e-002
-1.8373667e-001
-4.4540921e-001
-6.5579551e-001
-7.8950095e-001
-9.0735126e-001
-1.0727072e+000
-1.2893050e+000
-1.5405006e+000
-1.7900701e+000
-2.0034282e+000
-2.1658199e+000
-2.2717903e+000
-2.3297067e+000
-2.3508160e+000
-2.3426270e+000
-2.3017399e+000
-2.1920731e+000
-1.9849162e+000
-1.7039403e+000
-1.3953097e+000
-1.1348840e+000
-9.8068613e-001
-9.0371865e-001
-8.4444684e-001
-7.1419609e-001
-4.4821626e-001
-9.0215564e-002
2.7408123e-001
5.0776339e-001
5.1163900e-001
3.6400178e-001
1.7295943e-001
-4.4127107e-003
-1.3773450e-001
-2.4684310e-001
-3.5520113e-001
-4.5393848e-001
-5.1780784e-001
-4.9155158e-001
-3.3216348e-001
-6.9796205e-002
2.5094721e-001
5.9923381e-001
9.4260514e-001
1.2295253e+000
1.4069071e+000
1.4330701e+000
1.2813599e+000
9.7094929e-001
5.5160493e-001
1.4786740e-001
-9.9701755e-002
-6.1197281e-002
3.4682548e-001
1.0339911e+000
1.8666000e+000
