##TITLE=Methyl Ethyl Ketone
##JCAMP-DX=4.24
##DATA TYPE=INFRARED SPECTRUM
##XUNITS=cm-1
##YUNITS=Absorbance
##FIRSTX=900
##LASTX=2300
##XYDATA=(X++(Y..Y))
2296 0.035613999
2294 0.036354937
2292 0.037095882
2290 0.03783682
2288 0.038577762
2286 0.039318699
2284 0.040059641
2282 0.040800579
2280 0.041541521
2278 0.042282458
2276 0.043022413
2274 0.04376334
2272 0.044504281
2270 0.045245219
2268 0.045986157
2266 0.046727102
2264 0.04746804
2262 0.048208982
2260 0.04894992
2258 0.049690861
2256 0.050431799
2254 0.051172741
2252 0.051913679
2250 0.05265462
2248 0.053395558
2246 0.0541365
2244 0.035109982
2242 0.0013258929
2240 -0.055775043
2238 -0.15813647
2236 -0.26704702
2234 -0.36172006
2232 -0.45220512
2230 -0.47167146
2228 -0.48141149
2226 -0.44078249
2224 -0.39955783
2222 -0.3674061
2220 -0.34523636
2218 -0.35204864
2216 -0.35965741
2214 -0.36544672
2212 -0.3691358
2210 -0.36958465
2208 -0.3822327
2206 -0.410328
2204 -0.45116904
2202 -0.50332344
2200 -0.56426531
2198 -0.63122785
2196 -0.70017934
2194 -0.77005708
2192 -0.81371599
2190 -0.8458603
2188 -0.84227836
2186 -0.82733202
2184 -0.80706525
2182 -0.78573424
2180 -0.7653628
2178 -0.74499023
2176 -0.71211118
2174 -0.68207812
2172 -0.69764566
2170 -0.73072314
2168 -0.83941418
2166 -0.9502793
2164 -1.0422897
2162 -1.0995409
2160 -1.0726486
2158 -1.0164664
2156 -0.92103297
2154 -0.83914834
2152 -0.78283548
2150 -0.76828116
2148 -0.79777879
2146 -0.84557754
2144 -0.90548003
2142 -0.94845086
2140 -0.97876185
2138 -0.99850082
2136 -1.0131772
2134 -1.0256767
2132 -1.0375177
2130 -1.0376661
2128 -1.034156
2126 -1.0258807
2124 -1.016555
2122 -1.0231938
2120 -1.0329554
2118 -1.0510461
2116 -1.0680529
2114 -1.0668941
2112 -1.0606675
2110 -1.0434977
2108 -1.0296592
2106 -1.0305793
2104 -1.038852
2102 -1.0587069
2100 -1.0640219
2098 -1.0419054
2096 -0.9878
2094 -0.89720863
2092 -0.82381487
2090 -0.77375484
2088 -0.77431154
2086 -0.81386
2084 -0.84464157
2082 -0.86605078
2080 -0.87588036
2078 -0.88030988
2076 -0.92989528
2074 -0.99849373
2072 -1.069844
2070 -1.1413417
2068 -1.1496352
2066 -1.1418964
2064 -1.0970337
2062 -1.0468404
2060 -1.0149705
2058 -0.99445492
2056 -1.0165595
2054 -1.0539759
2052 -1.1164358
2050 -1.1776571
2048 -1.2234182
2046 -1.2542465
2044 -1.262252
2042 -1.2654376
2040 -1.2677977
2038 -1.2788043
2036 -1.2999287
2034 -1.3278542
2032 -1.360564
2030 -1.390309
2028 -1.417308
2026 -1.4332964
2024 -1.4427485
2022 -1.4402981
2020 -1.4323151
2018 -1.4377327
2016 -1.44894
2014 -1.4905897
2012 -1.5419514
2010 -1.5860791
2008 -1.6259154
2006 -1.6327314
2004 -1.6283637
2002 -1.6054959
2000 -1.5735983
1998 -1.5244879
1996 -1.4634429
1994 -1.3800201
1992 -1.3003634
1990 -1.240387
1988 -1.213792
1986 -1.2355486
1984 -1.2749959
1982 -1.3230633
1980 -1.3565995
1978 -1.3720651
1976 -1.36174
1974 -1.3314891
1972 -1.2711066
1970 -1.1910901
1968 -1.1214457
1966 -1.060625
1964 -1.0523977
1962 -1.0706469
1960 -1.099512
1958 -1.131426
1956 -1.1396543
1954 -1.1385909
1952 -1.1195692
1950 -1.0930976
1948 -1.0542388
1946 -1.013075
1944 -0.97961944
1942 -0.95273292
1940 -0.93605626
1938 -0.918957
1936 -0.89152628
1934 -0.85794467
1932 -0.8198092
1930 -0.79024637
1928 -0.77818364
1926 -0.77519435
1924 -0.77871108
1922 -0.76281261
1920 -0.72325653
1918 -0.65919811
1916 -0.57661968
1914 -0.49356335
1912 -0.41337702
1910 -0.35416308
1908 -0.30860692
1906 -0.30096906
1904 -0.31267521
1902 -0.34062779
1900 -0.37465516
1898 -0.37567839
1896 -0.36125144
1894 -0.31969163
1892 -0.27170259
1890 -0.2493498
1888 -0.24467674
1886 -0.27120921
1884 -0.30853787
1882 -0.34275481
1880 -0.36902201
1878 -0.38064748
1876 -0.365116
1874 -0.31151125
1872 -0.20431679
1870 -0.036954444
1868 0.13016854
1866 0.27686235
1864 0.33564895
1862 0.31079829
1860 0.2429616
1858 0.15477449
1856 0.069067314
1854 -0.012481533
1852 -0.084901735
1850 -0.15296395
1848 -0.18835241
1846 -0.20653571
1844 -0.18249209
1842 -0.1386756
1840 -0.086500868
1838 -0.031647183
1836 0.0059852423
1834 0.039363019
1832 0.083591476
1830 0.13868813
1828 0.21794775
1826 0.29371279
1824 0.33834961
1822 0.34650216
1820 0.30396521
1818 0.240839
1816 0.172952
1814 0.11750408
1812 0.080970906
1810 0.068045869
1808 0.077079423
1806 0.11643025
1804 0.18103933
1802 0.24639641
1800 0.30498719
1798 0.33937094
1796 0.35509288
1794 0.38606289
1792 0.43192241
1790 0.49588272
1788 0.5721975
1786 0.63417482
1784 0.68683225
1782 0.7141003
1780 0.72477907
1778 0.71282458
1776 0.68824202
1774 0.66064572
1772 0.62156039
1770 0.55904227
1768 0.46982732
1766 0.34734917
1764 0.22040561
1762 0.11029786
1760 0.027099775
1758 -0.041410483
1756 -0.072704718
1754 -0.054777734
1752 0.039717395
1750 0.2048064
1748 0.35443038
1746 0.46553856
1744 0.43514532
1742 0.28295091
1740 0.12715164
1738 -0.011238821
1736 -0.0087481979
1734 0.097704425
1732 0.18031918
1730 0.23455317
1728 0.15153509
1726 -0.011740014
1724 -0.11567189
1722 -0.142279
1720 -0.041428134
1718 0.11413923
1716 0.4136453
1714 0.78235006
1712 1.0532655
1710 1.2718282
1708 1.48276
1706 1.8454471
1704 2.4972794
1702 3.6411266
1700 5.373723
1698 7.8501811
1696 11.051314
1694 14.372971
1692 17.523415
1690 20.367064
1688 22.919668
1686 25.930115
1684 29.473614
1682 33.750069
1680 38.615761
1678 42.956463
1676 46.791386
1674 50.496132
1672 54.169945
1670 58.45739
1668 63.207699
1666 67.978149
1664 72.677628
1662 76.996864
1660 80.901703
1658 84.279701
1656 87.162224
1654 89.602646
1652 91.734062
1650 93.746834
1648 95.296333
1646 96.110535
1644 96.167442
1642 95.544434
1640 94.309853
1638 92.585533
1636 90.038574
1634 86.64209
1632 82.83139
1630 78.817307
1628 74.893486
1626 71.115387
1624 67.152321
1622 62.978001
1620 58.726597
1618 54.427944
1616 50.288345
1614 46.345882
1612 42.838043
1610 39.771507
1608 37.091599
1606 34.766731
1604 32.638641
1602 30.742739
1600 29.114851
1598 27.779753
1596 26.730999
1594 25.942501
1592 25.342924
1590 24.896193
1588 24.546738
1586 24.297878
1584 24.139555
1582 24.075529
1580 24.098429
1578 24.251631
1576 24.546286
1574 25.015772
1572 25.667206
1570 26.428364
1568 27.281639
1566 28.164671
1564 29.071585
1562 30.155107
1560 31.504972
1558 33.729752
1556 36.893898
1554 40.492638
1552 44.334438
1550 47.440849
1548 49.848717
1546 51.988071
1544 53.925961
1542 55.884937
1540 57.688519
1538 59.09507
1536 59.844112
1534 59.701279
1532 58.944424
1530 57.909515
1528 56.704456
1526 55.423351
1524 53.971867
1522 52.294605
1520 50.375294
1518 48.202686
1516 46.038429
1514 43.966866
1512 41.887081
1510 39.768158
1508 37.099957
1506 33.7258
1504 30.36305
1502 27.093052
1500 24.348801
1498 22.1819
1496 20.008142
1494 17.800919
1492 15.491732
1490 13.065833
1488 10.564921
1486 8.0612288
1484 5.7213459
1482 3.6890543
1480 2.1212792
1478 1.034394
1476 0.38212329
1474 0.2227332
1472 0.64486217
1470 1.357771
1468 2.0873556
1466 2.7407494
1464 3.2390521
1462 3.6987333
1460 4.160953
1458 4.6446648
1456 5.16502
1454 5.6133728
1452 5.9462399
1450 6.1364613
1448 6.1204276
1446 6.0266213
1444 5.82724
1442 5.6141911
1440 5.3776937
1438 5.1159058
1436 4.7978516
1434 4.3805995
1432 3.8549137
1430 3.2850697
1428 2.709312
1426 2.2113929
1424 1.8136418
1422 1.529081
1420 1.3587641
1418 1.3040795
1416 1.3523457
1414 1.502805
1412 1.7248611
1410 2.0013971
1408 2.3084395
1406 2.6391349
1404 2.9869998
1402 3.3613946
1400 3.751096
1398 4.1637826
1396 4.57375
1394 4.974391
1392 5.3195
1390 5.5681458
1388 5.7105241
1386 5.6833153
1384 5.544909
1382 5.2553897
1380 4.9159513
1378 4.5189333
1376 4.1166201
1374 3.7120771
1372 3.327616
1370 2.9735086
1368 2.6602888
1366 2.3625185
1364 2.0218172
1362 1.6279473
1360 1.1627508
1358 0.70256376
1356 0.3382397
1354 0.08704482
1352 0.015319097
1350 0.038920775
1348 0.14523837
1346 0.24550858
1344 0.39528361
1342 0.56096834
1340 0.74797708
1338 0.92162931
1336 1.0662915
1334 1.180681
1332 1.2508473
1330 1.3278559
1328 1.4239399
1326 1.5615736
1324 1.7620003
1322 2.0158634
1320 2.3352714
1318 2.6882596
1316 3.06551
1314 3.4197664
1312 3.7379634
1310 3.9927263
1308 4.1880245
1306 4.3222127
1304 4.4064398
1302 4.439013
1300 4.4325681
1298 4.3800883
1296 4.3060856
1294 4.215992
1292 4.1315002
1290 4.0728087
1288 4.0249081
1286 3.9963555
1284 3.9667108
1282 3.9323533
1280 3.9015188
1278 3.8800159
1276 3.8686016
1274 3.87695
1272 3.9000933
1270 3.9499164
1268 4.0237722
1266 4.1325836
1264 4.2537484
1262 4.3896589
1260 4.5259938
1258 4.6656199
1256 4.816617
1254 4.9783087
1252 5.1474204
1250 5.3180122
1248 5.4776702
1246 5.6228251
1244 5.7376776
1242 5.8235049
1240 5.851522
1238 5.844677
1236 5.7751527
1234 5.6778789
1232 5.527236
1230 5.3471913
1228 5.0880489
1226 4.7900724
1224 4.3854651
1222 3.9496152
1220 3.4426594
1218 2.9414392
1216 2.4577258
1214 2.013586
1212 1.6397643
1210 1.3090887
1208 1.0397174
1206 0.79522729
1204 0.5777936
1202 0.36050636
1200 0.14581811
1198 -0.05761686
1196 -0.24265
1194 -0.38233551
1192 -0.48578334
1190 -0.54485071
1188 -0.57874501
1186 -0.58895993
1184 -0.58232647
1182 -0.53826416
1180 -0.4628464
1178 -0.2948074
1176 -0.087438002
1174 0.22776192
1172 0.55567825
1170 0.9077909
1168 1.2381994
1166 1.499985
1164 1.7237217
1162 1.850233
1160 1.9295937
1158 1.9116786
1156 1.8517185
1154 1.7219994
1152 1.5675155
1150 1.3773903
1148 1.1640464
1146 0.92527819
1144 0.67767024
1142 0.42996129
1140 0.22076839
1138 0.049497362
1136 -0.056493178
1134 -0.11645642
1132 -0.049269076
1130 0.07877402
1128 0.27065533
1126 0.47371721
1124 0.64359438
1122 0.79401493
1120 0.87283599
1118 0.94154495
1116 0.99175072
1114 1.0483735
1112 1.1325748
1110 1.2133152
1108 1.2818463
1106 1.336115
1104 1.3551611
1102 1.3655171
1100 1.3588263
1098 1.3466566
1096 1.3263143
1094 1.3062139
1092 1.290224
1090 1.3009717
1088 1.3438143
1086 1.43153
1084 1.554096
1082 1.68327
1080 1.8060782
1078 1.858165
1076 1.8636186
1074 1.7624214
1072 1.6209326
1070 1.4380248
1068 1.2545533
1066 1.1317114
1064 1.0305121
1062 1.0314893
1060 1.0481157
1058 1.1331464
1056 1.2121342
1054 1.2629629
1052 1.289139
1050 1.2371279
1048 1.1807582
1046 1.1154071
1044 1.0633929
1042 1.0348476
1040 0.99515545
1038 0.93848658
1036 0.87271798
1034 0.7955147
1032 0.70727575
1030 0.60553181
1028 0.46687016
1026 0.30518949
1024 0.16683018
1022 0.049198031
1020 0.020858187
1018 0.028654503
1016 0.055119544
1014 0.08113502
1012 0.047026839
1010 0.0032082684
1008 -0.034968041
1006 -0.069214977
1004 -0.062854648
1002 -0.062909395
1000 -0.10904972
998 -0.16270941
996 -0.24870357
994 -0.32652777
992 -0.37847775
990 -0.42206568
988 -0.44611612
986 -0.46334258
984 -0.46905372
982 -0.47606796
980 -0.48563641
978 -0.50625193
976 -0.53741944
974 -0.55567408
972 -0.56208766
970 -0.54069299
968 -0.50244296
966 -0.4614675
964 -0.41892913
962 -0.36945376
960 -0.31620246
958 -0.23272808
956 -0.14346609
954 -0.070998244
952 -0.0031194082
950 0.0024944765
948 0.0051863175
946 0.0017093893
944 0.00049035437
942 0.015924223
940 0.068657815
938 0.2270284
936 0.38614225
934 0.54632246
932 0.66785288
930 0.70681429
928 0.73026007
926 0.72896242
924 0.72815382
922 0.72640091
920 0.64723009
918 0.49507493
916 0.26134503
914 -0.028786168
912 -0.24183634
910 -0.41304529
908 -0.438059
906 -0.40761194
904 -0.37152722
902 -0.33467942
900 -0.37651625
898 -0.43116188
896 -0.50937003
