Image.
>Pix99999.
  .
5555
5555
2300
900
5555
2
1
0
701
5555
4.8856001e-002
4.9893517e-002
5.0932027e-002
5.1969547e-002
5.3008057e-002
5.4045580e-002
5.5084087e-002
5.6121610e-002
5.7160113e-002
5.8197640e-002
5.9235159e-002
6.0273658e-002
6.1311189e-002
6.2349685e-002
6.3387223e-002
6.4425714e-002
6.5463252e-002
6.6501744e-002
6.7539282e-002
6.8577766e-002
6.9615319e-002
7.0653796e-002
7.1691342e-002
7.2729833e-002
7.3767379e-002
7.4805856e-002
2.2017770e-002
7.7065715e-004
-3.2152317e-002
-5.6577273e-002
-7.9636186e-002
-1.2516603e-001
-1.7215776e-001
-2.1551153e-001
-2.5977439e-001
-3.1259349e-001
-3.7188023e-001
-4.5863006e-001
-5.3602540e-001
-5.8039826e-001
-5.9181201e-001
-5.3530943e-001
-4.7909179e-001
-4.2990896e-001
-4.1994703e-001
-4.5834023e-001
-5.0157666e-001
-5.4654849e-001
-5.7831454e-001
-6.0013670e-001
-6.3602358e-001
-6.8038213e-001
-7.1676356e-001
-7.4939460e-001
-7.6137388e-001
-7.6672184e-001
-7.9416722e-001
-8.2678694e-001
-8.7179613e-001
-9.1850293e-001
-9.5478827e-001
-9.9034506e-001
-1.0284945e+000
-1.0618390e+000
-1.0657085e+000
-1.0564564e+000
-1.0093086e+000
-9.6198052e-001
-9.2369509e-001
-9.0000319e-001
-9.0229201e-001
-9.1957527e-001
-9.5469123e-001
-9.9952370e-001
-1.0532174e+000
-1.0939107e+000
-1.1222577e+000
-1.1171900e+000
-1.0897206e+000
-1.0425751e+000
-9.8584116e-001
-9.4655681e-001
-9.1508800e-001
-9.2282403e-001
-9.4285637e-001
-9.6451527e-001
-9.8628175e-001
-9.7355616e-001
-9.5551920e-001
-9.4083667e-001
-9.3026340e-001
-9.4694424e-001
-9.7090131e-001
-1.0098289e+000
-1.0501018e+000
-1.0879971e+000
-1.1210566e+000
-1.1441069e+000
-1.1609460e+000
-1.1698968e+000
-1.1556572e+000
-1.1126248e+000
-1.0414723e+000
-9.4558102e-001
-8.7101495e-001
-8.1718451e-001
-8.0448097e-001
-8.1710041e-001
-8.4163851e-001
-8.7061018e-001
-9.1995728e-001
-9.7750676e-001
-1.0436648e+000
-1.1123614e+000
-1.1225792e+000
-1.1173022e+000
-1.0626554e+000
-1.0010625e+000
-9.6914804e-001
-9.5401812e-001
-9.9919766e-001
-1.0609446e+000
-1.1385177e+000
-1.2053542e+000
-1.2357726e+000
-1.2492642e+000
-1.2432640e+000
-1.2338873e+000
-1.2259079e+000
-1.2169138e+000
-1.2073014e+000
-1.2078573e+000
-1.2181371e+000
-1.2320640e+000
-1.2467669e+000
-1.2244172e+000
-1.1778725e+000
-1.0935427e+000
-9.9130070e-001
-9.2770147e-001
-8.8174796e-001
-9.1078824e-001
-9.6513146e-001
-1.0299782e+000
-1.0955669e+000
-1.1296142e+000
-1.1532029e+000
-1.1572890e+000
-1.1573366e+000
-1.1581872e+000
-1.1600500e+000
-1.1624607e+000
-1.1584594e+000
-1.1421965e+000
-1.1176419e+000
-1.0872971e+000
-1.0626589e+000
-1.0479035e+000
-1.0502102e+000
-1.0677754e+000
-1.0883143e+000
-1.1075530e+000
-1.0912255e+000
-1.0471798e+000
-9.7807997e-001
-8.9637995e-001
-8.5510743e-001
-8.3714324e-001
-8.4932679e-001
-8.7372458e-001
-8.9419729e-001
-9.1376579e-001
-9.5079535e-001
-9.9268919e-001
-1.0150980e+000
-1.0217999e+000
-9.7958976e-001
-9.2457747e-001
-8.8908511e-001
-8.7284768e-001
-8.9371771e-001
-9.1840523e-001
-9.2472941e-001
-9.1676402e-001
-8.9063525e-001
-8.5954285e-001
-8.2624477e-001
-7.8336066e-001
-7.3277169e-001
-6.8481153e-001
-6.4457703e-001
-6.1509979e-001
-5.9223461e-001
-5.7125938e-001
-5.4959100e-001
-5.5078083e-001
-5.6519198e-001
-5.8279240e-001
-6.0222697e-001
-5.5703282e-001
-4.8411143e-001
-3.7393424e-001
-2.6036200e-001
-2.2690460e-001
-2.4704829e-001
-3.7139806e-001
-5.3040946e-001
-6.7798513e-001
-7.9099655e-001
-8.3031136e-001
-8.1576800e-001
-7.4283284e-001
-6.2723190e-001
-4.7283876e-001
-3.3998957e-001
-2.5650856e-001
-2.6135942e-001
-3.5107011e-001
-4.6281421e-001
-5.7192880e-001
-6.7508715e-001
-7.7105021e-001
-8.8260919e-001
-1.0026631e+000
-1.0892800e+000
-1.1523750e+000
-1.1417058e+000
-1.0909439e+000
-1.0161936e+000
-9.3195254e-001
-8.3917385e-001
-7.3738581e-001
-5.8984435e-001
-4.1798401e-001
-2.3815462e-001
-8.7245867e-002
-3.8108449e-002
-7.3534280e-002
-1.9848779e-001
-3.5496661e-001
-4.9794403e-001
-6.0769218e-001
-6.7313492e-001
-6.8763328e-001
-6.5992486e-001
-5.6469452e-001
-4.1262019e-001
-2.7417848e-001
-1.5891948e-001
-1.3211934e-001
-1.7123215e-001
-1.6682960e-001
-1.2737840e-001
-3.4137413e-002
8.5133657e-002
1.3912036e-001
1.5103658e-001
1.4776385e-001
1.4064555e-001
1.7684799e-001
2.5050485e-001
3.8691765e-001
5.4093003e-001
6.3184941e-001
6.3968247e-001
5.0968289e-001
3.2186562e-001
1.5459819e-001
3.6173109e-002
-1.0647547e-001
-2.2992343e-001
-2.8059018e-001
-2.2898777e-001
-7.9051889e-002
7.2656810e-002
1.9074108e-001
1.6933583e-001
1.5765481e-002
-1.3998334e-001
-2.7169365e-001
-2.3150800e-001
-5.6782946e-002
9.6677229e-002
2.1558702e-001
1.3196197e-001
-8.2006693e-002
-2.1395677e-001
-2.3959799e-001
3.8035095e-002
5.6443530e-001
1.3313973e+000
2.1634102e+000
2.7572799e+000
3.2004213e+000
3.6064939e+000
4.1963491e+000
5.1847539e+000
6.8079000e+000
9.1662169e+000
1.2415134e+001
1.6479856e+001
2.0570280e+001
2.4333384e+001
2.7653860e+001
3.0603470e+001
3.3996109e+001
3.7928505e+001
4.2465088e+001
4.7458679e+001
5.1821888e+001
5.5601730e+001
5.9374825e+001
6.3214630e+001
6.7549065e+001
7.2204147e+001
7.6510002e+001
8.0447899e+001
8.3888802e+001
8.6869568e+001
8.9445732e+001
9.1614342e+001
9.3384674e+001
9.4751099e+001
9.5729546e+001
9.6108337e+001
9.5714645e+001
9.4679390e+001
9.3197128e+001
9.1259018e+001
8.8938972e+001
8.5862473e+001
8.1966270e+001
7.7726776e+001
7.3352852e+001
6.9107674e+001
6.5041389e+001
6.0769600e+001
5.6263908e+001
5.1826153e+001
4.7489597e+001
4.3496716e+001
3.9863918e+001
3.6684978e+001
3.3958889e+001
3.1617514e+001
2.9638750e+001
2.7885914e+001
2.6392488e+001
2.5182577e+001
2.4270851e+001
2.3637501e+001
2.3259916e+001
2.3068760e+001
2.3041838e+001
2.3133167e+001
2.3346972e+001
2.3676268e+001
2.4144360e+001
2.4757877e+001
2.5594425e+001
2.6674086e+001
2.7985132e+001
2.9504776e+001
3.1075508e+001
3.2656921e+001
3.4176235e+001
3.5628380e+001
3.7165218e+001
3.8849255e+001
4.1099350e+001
4.3924973e+001
4.6723080e+001
4.9333656e+001
5.1262241e+001
5.2545376e+001
5.3639252e+001
5.4533005e+001
5.5267467e+001
5.5704762e+001
5.5634407e+001
5.5049255e+001
5.4032066e+001
5.2762421e+001
5.1492588e+001
5.0233555e+001
4.8993198e+001
4.7665535e+001
4.6174191e+001
4.4470119e+001
4.2496216e+001
4.0457115e+001
3.8416981e+001
3.6334759e+001
3.4217667e+001
3.1605101e+001
2.8356058e+001
2.5098715e+001
2.1894621e+001
1.9233532e+001
1.7176350e+001
1.5158571e+001
1.3182121e+001
1.1193571e+001
9.2166672e+000
7.3003502e+000
5.4777336e+000
3.7821939e+000
2.3017571e+000
1.1561508e+000
3.9092213e-001
6.0944457e-002
2.3445988e-001
8.3262205e-001
1.5957040e+000
2.3616433e+000
3.0316665e+000
3.5499938e+000
4.0521698e+000
4.6022644e+000
5.2444372e+000
6.0135798e+000
6.6981354e+000
7.2092977e+000
7.5033851e+000
7.4785862e+000
7.3752036e+000
7.1673250e+000
6.9415340e+000
6.6944714e+000
6.4264030e+000
6.1284585e+000
5.7686758e+000
5.3445678e+000
4.8860784e+000
4.4151602e+000
4.0112472e+000
3.7047594e+000
3.5351791e+000
3.5061955e+000
3.6013386e+000
3.7753859e+000
3.9801490e+000
4.1885476e+000
4.3982797e+000
4.6286283e+000
4.9054728e+000
5.2347765e+000
5.6347375e+000
6.0521359e+000
6.4773235e+000
6.8210287e+000
7.0049949e+000
7.0763521e+000
6.9441891e+000
6.7314477e+000
6.3884501e+000
5.9769735e+000
5.4775906e+000
4.9666710e+000
4.4537935e+000
3.9696429e+000
3.5261369e+000
3.1018579e+000
2.7028263e+000
2.3348246e+000
1.9852099e+000
1.6434474e+000
1.3011371e+000
9.3896544e-001
5.9479666e-001
3.1560659e-001
1.0920940e-001
2.9854674e-002
2.4899308e-002
1.0785959e-001
2.3191929e-001
4.1777521e-001
6.2912762e-001
8.8307792e-001
1.1126661e+000
1.2809000e+000
1.3918854e+000
1.3849726e+000
1.3698820e+000
1.3481388e+000
1.3678007e+000
1.4617857e+000
1.6121341e+000
1.8414172e+000
2.1080344e+000
2.4007699e+000
2.6519554e+000
2.8365629e+000
2.9253552e+000
2.9252920e+000
2.8637614e+000
2.7602794e+000
2.6337240e+000
2.4992564e+000
2.3649824e+000
2.2494001e+000
2.1798830e+000
2.1506608e+000
2.1989138e+000
2.2780800e+000
2.4080400e+000
2.5413334e+000
2.6714466e+000
2.7887390e+000
2.8761835e+000
2.9539456e+000
3.0174930e+000
3.0881867e+000
3.1757998e+000
3.2812519e+000
3.4126985e+000
3.5623074e+000
3.7358022e+000
3.9340379e+000
4.1644597e+000
4.4315858e+000
4.7321105e+000
5.0526786e+000
5.3761711e+000
5.6667190e+000
5.9283748e+000
6.1435413e+000
6.3390393e+000
6.5253868e+000
6.6973228e+000
6.8307729e+000
6.9167914e+000
6.8728719e+000
6.7620034e+000
6.4763260e+000
6.1317964e+000
5.6307287e+000
5.0929503e+000
4.4712625e+000
3.8619132e+000
3.2846973e+000
2.7635152e+000
2.3416810e+000
1.9763534e+000
1.6911657e+000
1.4369314e+000
1.2177160e+000
1.0082977e+000
8.0782676e-001
6.0791069e-001
4.1052714e-001
2.2115716e-001
4.4541277e-002
-9.7536579e-002
-2.1317662e-001
-2.8245127e-001
-3.2857713e-001
-3.4197289e-001
-3.3667904e-001
-2.8443831e-001
-2.0977581e-001
-6.9537371e-002
7.9943180e-002
2.4917196e-001
4.1212559e-001
5.5428088e-001
6.8812007e-001
7.9880190e-001
8.8455707e-001
9.1718417e-001
9.1363382e-001
8.5178596e-001
7.7753758e-001
6.8699050e-001
5.9139180e-001
4.8816752e-001
3.7158507e-001
2.4572697e-001
1.3085060e-001
2.9120605e-002
-4.2573914e-002
-8.9793988e-002
-5.2003767e-002
2.8008111e-002
1.5961286e-001
2.9968888e-001
4.1102940e-001
5.1358598e-001
5.9629959e-001
6.8637913e-001
8.2511342e-001
9.6731770e-001
1.1188778e+000
1.2475893e+000
1.3037351e+000
1.3473650e+000
1.3635217e+000
1.4058813e+000
1.4990840e+000
1.6004053e+000
1.7112143e+000
1.8016201e+000
1.8710660e+000
1.9668949e+000
2.0945184e+000
2.2692087e+000
2.4779215e+000
2.6740632e+000
2.8567920e+000
2.9943011e+000
3.1075127e+000
3.1900177e+000
3.2555628e+000
3.2719588e+000
3.2665009e+000
3.1830344e+000
3.0848281e+000
2.9517522e+000
2.8200214e+000
2.7081683e+000
2.6048114e+000
2.5397139e+000
2.4904113e+000
2.4911242e+000
2.4886143e+000
2.4751680e+000
2.4249046e+000
2.3060184e+000
2.1783178e+000
2.0405285e+000
1.9311500e+000
1.8530017e+000
1.7672241e+000
1.6731087e+000
1.5602578e+000
1.4381614e+000
1.3502725e+000
1.2813510e+000
1.2258093e+000
1.1678009e+000
1.0305877e+000
8.6546570e-001
6.2831718e-001
3.8154307e-001
1.6301639e-001
-4.8471287e-002
-2.0547055e-001
-3.5345730e-001
-4.4230416e-001
-5.1095837e-001
-4.9113786e-001
-4.6799299e-001
-4.3689045e-001
-4.3743667e-001
-5.1135468e-001
-6.0524631e-001
-7.3192614e-001
-8.3808136e-001
-9.1371679e-001
-9.4085568e-001
-9.1596490e-001
-8.5109246e-001
-7.5388676e-001
-6.4507276e-001
-5.2854645e-001
-4.0461349e-001
-2.7919105e-001
-1.9205032e-001
-1.2113674e-001
-1.2685758e-001
-1.4850856e-001
-1.5632810e-001
-1.6048041e-001
-1.1497751e-001
-6.7552321e-002
-2.1427393e-002
1.4622174e-003
4.5892052e-002
1.4657639e-001
3.1180197e-001
4.8133773e-001
6.6424429e-001
8.6791152e-001
1.1165291e+000
1.3985732e+000
1.7332429e+000
2.0421662e+000
2.3181908e+000
2.4935074e+000
2.5734520e+000
2.5246027e+000
2.3838055e+000
2.1506839e+000
1.8703079e+000
1.6516354e+000
1.4592707e+000
1.4834681e+000
1.5658939e+000
1.7975323e+000
2.0534770e+000
2.3169999e+000
