##TITLE=Methyl Ethyl Ketone
##JCAMP-DX=4.24
##DATA TYPE=INFRARED SPECTRUM
##XUNITS=cm-1
##YUNITS=Absorbance
##FIRSTX=900
##LASTX=2300
##XYDATA=(X++(Y..Y))
2296 0.0098291999
2294 0.010033707
2292 0.010238415
2290 0.010443122
2288 0.010646834
2286 0.010851536
2284 0.011056243
2282 0.01126095
2280 0.011464668
2278 0.011669365
2276 0.011874071
2274 0.012078779
2272 0.012283486
2270 0.012487211
2268 0.0126919
2266 0.012896607
2264 0.013101314
2262 0.013305046
2260 0.013509729
2258 0.013714436
2256 0.013919143
2254 0.01412385
2252 0.014327588
2250 0.014532264
2248 0.014736971
2246 0.014941679
2244 0.018316112
2242 0.0007114886
2240 -0.025763521
2238 -0.1539848
2236 -0.29718414
2234 -0.44535959
2232 -0.588651
2230 -0.61512429
2228 -0.62614757
2226 -0.55863053
2224 -0.49520463
2222 -0.46880236
2220 -0.46446478
2218 -0.52132481
2216 -0.56346971
2214 -0.56589532
2212 -0.53851777
2210 -0.4663302
2208 -0.40547267
2206 -0.36219415
2204 -0.33329195
2202 -0.3171773
2200 -0.31751922
2198 -0.32954261
2196 -0.35210356
2194 -0.38030481
2192 -0.35775673
2190 -0.31278223
2188 -0.26713157
2186 -0.22174029
2184 -0.3007676
2182 -0.40840498
2180 -0.54441679
2178 -0.68257987
2176 -0.6688503
2174 -0.63372576
2172 -0.51442927
2170 -0.4001098
2168 -0.36020064
2166 -0.35938713
2164 -0.47477156
2162 -0.59672111
2160 -0.70576924
2158 -0.75441647
2156 -0.69096398
2154 -0.60251564
2152 -0.49464044
2150 -0.4241491
2148 -0.39805073
2146 -0.3849943
2144 -0.37935874
2142 -0.3830753
2140 -0.39277005
2138 -0.41850272
2136 -0.45262116
2134 -0.44866145
2132 -0.42828542
2130 -0.3685329
2128 -0.2966792
2126 -0.2881057
2124 -0.29449806
2122 -0.37257546
2120 -0.45951417
2118 -0.50074559
2116 -0.53006542
2114 -0.51919359
2112 -0.50819534
2110 -0.52235585
2108 -0.54516089
2106 -0.58297062
2104 -0.6046921
2102 -0.58610612
2100 -0.52072841
2098 -0.386834
2096 -0.24115142
2094 -0.093287125
2092 -0.009385597
2090 0.0079452014
2088 -0.044564389
2086 -0.1468177
2084 -0.26923051
2082 -0.40037948
2080 -0.50131118
2078 -0.58578485
2076 -0.61661971
2074 -0.62601143
2072 -0.56579638
2070 -0.4838461
2068 -0.36354244
2066 -0.23624986
2064 -0.20085183
2062 -0.19155867
2060 -0.26435861
2058 -0.34958139
2056 -0.41406372
2054 -0.46685416
2052 -0.49268842
2050 -0.50354022
2048 -0.4898836
2046 -0.46287072
2044 -0.41944879
2042 -0.39043838
2040 -0.38771674
2038 -0.40837604
2036 -0.450798
2034 -0.47609359
2032 -0.48095241
2030 -0.46366972
2028 -0.43203622
2026 -0.41289631
2024 -0.40343428
2022 -0.39335456
2020 -0.38227996
2018 -0.35190779
2016 -0.31329799
2014 -0.27905312
2012 -0.24631155
2010 -0.23734652
2008 -0.23549503
2006 -0.24931458
2004 -0.26872778
2002 -0.3004331
2000 -0.33822253
1998 -0.39000559
1996 -0.44484928
1994 -0.49898067
1992 -0.54261971
1990 -0.56192988
1988 -0.56620723
1986 -0.55315965
1984 -0.5552929
1982 -0.58432841
1980 -0.63804454
1978 -0.71325952
1976 -0.73076117
1974 -0.69085109
1972 -0.51061136
1970 -0.23215297
1968 0.051020116
1966 0.32577908
1964 0.37604693
1962 0.3089292
1960 0.12027968
1958 -0.11482903
1956 -0.27851102
1954 -0.4127962
1952 -0.48028165
1950 -0.52423847
1948 -0.5497607
1946 -0.57275248
1944 -0.6126079
1942 -0.65915298
1940 -0.70638448
1938 -0.75074691
1936 -0.78603745
1934 -0.81795776
1932 -0.85005718
1930 -0.87040007
1928 -0.87333995
1926 -0.82383728
1924 -0.71306849
1922 -0.52470517
1920 -0.26903766
1918 -0.041037947
1916 0.14875579
1914 0.2484701
1912 0.28591651
1910 0.28509325
1908 0.26683605
1906 0.18735822
1904 0.076083198
1902 -0.036415957
1900 -0.1473332
1898 -0.14056106
1896 -0.083270714
1894 0.02416962
1892 0.13833973
1890 0.1684584
1888 0.13759857
1886 -0.014269684
1884 -0.21953104
1882 -0.44959259
1880 -0.65289074
1878 -0.77423704
1876 -0.809901
1874 -0.74243486
1872 -0.59343934
1870 -0.37448984
1868 -0.17943147
1866 -0.038349219
1864 -0.025721572
1862 -0.12950407
1860 -0.28220445
1858 -0.45290309
1856 -0.60421431
1854 -0.73865253
1852 -0.78957051
1850 -0.78789347
1848 -0.65275526
1846 -0.44569322
1844 -0.32537627
1842 -0.26172805
1840 -0.41689807
1838 -0.6689899
1836 -0.8778013
1834 -1.0311837
1832 -1.0074511
1830 -0.8754034
1828 -0.6362322
1826 -0.3993898
1824 -0.28718114
1822 -0.31432405
1820 -0.52874178
1818 -0.7993989
1816 -1.0442171
1814 -1.1919518
1812 -1.2146339
1810 -1.1689286
1808 -1.0900577
1806 -0.9849
1804 -0.86235905
1802 -0.69658369
1800 -0.49670178
1798 -0.3006933
1796 -0.11429851
1794 0.012089647
1792 0.098719761
1790 0.10453678
1788 0.064310811
1786 0.012639071
1784 -0.039423726
1782 -0.04806938
1780 -0.021197859
1778 0.075283952
1776 0.22033401
1774 0.4138341
1772 0.58375353
1770 0.60967469
1768 0.51862353
1766 0.31655359
1764 0.1279036
1762 0.062302269
1760 0.021842001
1758 -0.064736202
1756 -0.079918653
1754 0.030343965
1752 0.41167599
1750 1.0689069
1748 1.7696117
1746 2.4273465
1744 2.6513326
1742 2.476259
1740 2.1488299
1738 1.7612727
1736 1.6224999
1734 1.6797942
1732 1.6553391
1730 1.5482674
1728 1.1262496
1726 0.51898301
1724 0.069472849
1722 -0.1843048
1720 0.089157552
1718 0.84104514
1716 2.0447016
1714 3.3523049
1712 4.2874231
1710 4.9681306
1708 5.5156021
1706 6.277247
1704 7.5649157
1702 9.6083679
1700 12.494517
1698 16.010195
1696 19.943714
1694 23.51416
1692 26.444592
1690 29.053797
1688 31.514423
1686 34.723007
1684 38.723419
1682 43.357494
1680 48.444
1678 52.711918
1676 56.242329
1674 59.754341
1672 63.341599
1670 67.640381
1668 72.464539
1666 77.236099
1664 81.880814
1662 86.129005
1660 89.979248
1658 93.392776
1656 96.382912
1654 98.975021
1652 101.0428
1650 102.46704
1648 102.72829
1646 101.46465
1644 99.190247
1642 96.422417
1640 93.436462
1638 90.416862
1636 86.884758
1634 82.701752
1632 78.262558
1630 73.741119
1628 69.499596
1626 65.581467
1624 61.606441
1622 57.522858
1620 53.44733
1618 49.391716
1616 45.411541
1614 41.541679
1612 38.013416
1610 34.870461
1608 32.22768
1606 30.056015
1604 28.185043
1602 26.611076
1600 25.272617
1598 24.181568
1596 23.316
1594 22.671299
1592 22.209543
1590 21.917934
1588 21.76302
1586 21.770229
1584 21.940485
1582 22.297649
1580 22.837654
1578 23.635527
1576 24.709143
1574 26.022491
1572 27.555948
1570 29.064295
1568 30.493519
1566 31.785793
1564 32.935715
1562 34.227737
1560 35.749279
1558 38.046982
1556 41.108742
1554 44.125011
1552 46.924286
1550 48.923561
1548 50.216194
1546 51.401249
1544 52.455173
1542 53.376141
1540 53.882179
1538 53.615574
1536 52.674744
1534 51.30468
1532 49.796822
1530 48.451607
1528 47.244339
1526 46.147999
1524 45.000694
1522 43.706486
1520 42.069008
1518 39.986568
1516 37.798828
1514 35.603947
1512 33.496361
1510 31.498928
1508 29.034037
1506 25.94985
1504 22.82375
1502 19.734159
1500 17.239014
1498 15.41858
1496 13.707286
1494 12.111124
1492 10.548529
1490 9.0125818
1488 7.4690027
1486 5.8940563
1484 4.2475181
1482 2.6691215
1480 1.3763955
1478 0.48173141
1476 0.083399855
1474 0.25560397
1472 1.0172042
1470 1.9386029
1468 2.7793341
1466 3.4677672
1464 3.9269338
1462 4.4035864
1460 5.01126
1458 5.7140427
1456 6.53262
1454 7.0937114
1452 7.2351952
1450 7.1255307
1448 6.6750827
1446 6.2086034
1444 5.7307429
1442 5.3215928
1440 5.0115161
1438 4.7935166
1436 4.6575756
1434 4.4751058
1432 4.2172503
1430 3.8614891
1428 3.4634399
1426 3.1655779
1424 3.0093503
1422 3.0325422
1420 3.2018309
1418 3.4671888
1416 3.7630999
1414 4.0223188
1412 4.2513504
1410 4.4402108
1408 4.640347
1406 4.8858194
1404 5.1794705
1402 5.5491705
1400 5.929256
1398 6.3095908
1396 6.5862856
1394 6.6707549
1392 6.6298823
1390 6.3903561
1388 6.1247683
1386 5.8220448
1384 5.5114646
1382 5.192307
1380 4.8797889
1378 4.5780754
1376 4.2948399
1374 4.0181613
1372 3.7148361
1370 3.3825402
1368 3.0273595
1366 2.6562042
1364 2.2780013
1362 1.8873267
1360 1.4773989
1358 1.0751046
1356 0.71473277
1354 0.41197062
1352 0.20453283
1350 0.05541195
1348 -0.031417228
1346 -0.081739038
1344 -0.02803468
1342 0.11074013
1340 0.40765545
1338 0.68175697
1336 0.88815999
1334 0.95065421
1332 0.76784605
1330 0.56931221
1328 0.3694084
1326 0.28311428
1324 0.36652189
1322 0.56069732
1320 0.87949747
1318 1.2123245
1316 1.52994
1314 1.7501034
1312 1.8695772
1310 1.9085515
1308 1.8922131
1306 1.862552
1304 1.8217663
1302 1.768358
1300 1.702468
1298 1.6187136
1296 1.5276287
1294 1.4344202
1292 1.348586
1290 1.2846766
1288 1.237116
1286 1.2250865
1284 1.2207377
1282 1.2319292
1280 1.2520617
1278 1.2961346
1276 1.3772258
1274 1.530776
1272 1.7189674
1270 1.9589725
1268 2.1913872
1266 2.4125857
1264 2.6251493
1262 2.8363299
1260 3.0783861
1258 3.3548391
1256 3.6536601
1254 3.9722164
1252 4.3004093
1250 4.6492467
1248 5.0495582
1246 5.48105
1244 5.933991
1242 6.3638883
1240 6.690793
1238 6.9412684
1236 7.0336456
1234 7.0593228
1232 6.9625158
1230 6.8250389
1228 6.5947208
1226 6.3317828
1224 5.9812317
1222 5.6063457
1220 5.174798
1218 4.7375221
1216 4.286797
1214 3.8185782
1212 3.3161323
1210 2.7781255
1208 2.1953108
1206 1.6208714
1204 1.066218
1202 0.56113535
1200 0.10169354
1198 -0.3495982
1196 -0.79975498
1194 -1.2696333
1192 -1.7362891
1190 -2.1424208
1188 -2.4938834
1186 -2.7290108
1184 -2.9066036
1182 -3.0038385
1180 -3.0556848
1178 -2.9976754
1176 -2.8935401
1174 -2.66324
1172 -2.4202571
1170 -2.1554399
1168 -1.8872554
1166 -1.6071428
1164 -1.3143346
1162 -0.99310338
1160 -0.68743879
1158 -0.41616988
1156 -0.17332457
1154 0.019983426
1152 0.18256846
1150 0.29809433
1148 0.36744457
1146 0.38145822
1144 0.35122573
1142 0.27798706
1140 0.168957
1138 0.041009467
1136 -0.063146994
1134 -0.13327941
1132 -0.077737667
1130 0.049638748
1128 0.30158389
1126 0.6004402
1124 0.96684843
1122 1.3506377
1120 1.763344
1118 2.1716251
1116 2.5412643
1114 2.8800294
1112 3.0901778
1110 3.2632127
1108 3.3197985
1106 3.3731101
1104 3.4217582
1102 3.498661
1100 3.6355524
1098 3.8210423
1096 4.0915713
1094 4.4473724
1092 4.9148941
1090 5.4461284
1088 6.0349231
1086 6.5969253
1084 7.1338291
1082 7.63661
1080 8.1143703
1078 8.5578308
1076 8.9503822
1074 9.0904875
1072 9.1028442
1070 8.7879267
1068 8.4109421
1066 8.1069908
1064 7.8603201
1062 7.9664702
1060 8.1144161
1058 8.4200001
1056 8.7155914
1054 8.9664841
1052 9.1972761
1050 9.3623371
1048 9.5012379
1046 9.5760641
1044 9.6311083
1042 9.6531992
1040 9.7073059
1038 9.8093615
1036 9.9315901
1034 10.068211
1032 10.123348
1030 10.097854
1028 9.9860086
1026 9.8150826
1024 9.6280346
1022 9.4264603
1020 9.1572361
1018 8.8464241
1016 8.3657284
1014 7.8321486
1012 7.2177911
1010 6.5922322
1008 5.9943881
1006 5.3988166
1004 4.8034472
1002 4.2209458
1000 3.7269096
998 3.2566614
996 2.8903
994 2.525877
992 2.1669481
990 1.7992486
988 1.4087536
986 0.9691025
984 0.44191429
982 -0.12115169
980 -0.72477943
978 -1.2056987
976 -1.5490743
974 -1.6985381
972 -1.6872112
970 -1.5564488
968 -1.3495595
966 -1.071359
964 -0.76219636
962 -0.47714514
960 -0.20888966
958 -0.13257909
956 -0.10271265
954 -0.19736803
952 -0.30198839
950 -0.2863434
948 -0.25575617
946 -0.084293999
944 0.0062660575
942 0.18880111
940 0.37255874
938 0.56130493
936 0.75203031
934 0.94880861
932 1.1588354
930 1.3971455
928 1.637584
926 1.8807635
924 2.0878739
922 2.2503152
920 2.3577685
918 2.4133456
916 2.4157
914 2.3804622
912 2.3230069
910 2.254545
908 2.2692959
906 2.3168242
904 2.5581703
902 2.8506532
900 3.2824993
898 3.7366838
896 4.2147002
