##TITLE=Methyl Ethyl Ketone
##JCAMP-DX=4.24
##DATA TYPE=INFRARED SPECTRUM
##XUNITS=cm-1
##YUNITS=Absorbance
##FIRSTX=900
##LASTX=2300
##XYDATA=(X++(Y..Y))
2296 0.14294
2294 0.14597566
2292 0.14901131
2290 0.15204698
2288 0.15508263
2286 0.15812822
2284 0.16116394
2282 0.16419961
2280 0.16723526
2278 0.17027092
2276 0.17330658
2274 0.17634223
2272 0.17937788
2270 0.18242337
2268 0.1854592
2266 0.18849485
2264 0.19153051
2262 0.19456616
2260 0.19760182
2258 0.20063749
2256 0.20368285
2254 0.2067188
2252 0.20975445
2250 0.21279012
2248 0.21582577
2246 0.21886143
2244 0.085865587
2242 0.0031139099
2240 -0.082855679
2238 -0.096351914
2236 -0.099265955
2234 -0.04528166
2232 0.01329024
2230 0.083265819
2228 0.1483665
2226 0.16943699
2224 0.17167005
2222 0.097434744
2220 0.0098290928
2218 -0.10633859
2216 -0.20732771
2214 -0.27159745
2212 -0.33011723
2210 -0.38271669
2208 -0.4827837
2206 -0.64246577
2204 -0.833821
2202 -1.0519178
2200 -1.1722308
2198 -1.21813
2196 -1.09295
2194 -0.87206376
2192 -0.61674756
2190 -0.34918821
2188 -0.19211872
2186 -0.071207702
2184 -0.050222959
2182 -0.05167361
2180 -0.13342416
2178 -0.22705944
2176 -0.32856801
2174 -0.42333114
2172 -0.43381858
2170 -0.43305722
2168 -0.41395268
2166 -0.40914622
2164 -0.4633106
2162 -0.53211725
2160 -0.62330741
2158 -0.68728799
2156 -0.695135
2154 -0.65988237
2152 -0.57060659
2150 -0.49396494
2148 -0.43796906
2146 -0.46000215
2144 -0.54916567
2142 -0.72570288
2140 -0.95828754
2138 -1.1314538
2136 -1.26914
2134 -1.1813923
2132 -0.99982166
2130 -0.734281
2128 -0.44459122
2126 -0.28365073
2124 -0.153274
2122 -0.17109494
2120 -0.21676908
2118 -0.34739
2116 -0.48625284
2114 -0.59514898
2112 -0.69039702
2110 -0.74337566
2108 -0.79451323
2106 -0.85893768
2104 -0.91110283
2102 -0.93229419
2100 -0.92208701
2098 -0.86707616
2096 -0.80903
2094 -0.75610751
2092 -0.74158198
2090 -0.76606953
2088 -0.83531922
2086 -0.93611801
2084 -1.0344676
2082 -1.128069
2080 -1.1904212
2078 -1.2371929
2076 -1.2528814
2074 -1.2565194
2072 -1.2149841
2070 -1.1595368
2068 -1.0895398
2066 -1.0188657
2064 -1.0209823
2062 -1.0459373
2060 -1.1470952
2058 -1.2575021
2056 -1.3359228
2054 -1.3784907
2052 -1.3184952
2050 -1.2292427
2048 -1.1209577
2046 -1.0517322
2044 -1.0677321
2042 -1.1422782
2040 -1.2768846
2038 -1.4230206
2036 -1.5650586
2034 -1.6640507
2032 -1.7227508
2030 -1.710873
2028 -1.6515449
2026 -1.5438607
2024 -1.4120257
2022 -1.2906334
2020 -1.1776602
2018 -1.1707469
2016 -1.20626
2014 -1.3535507
2012 -1.5342584
2010 -1.7114253
2008 -1.8823491
2006 -1.9991229
2004 -2.0918868
2002 -2.1224711
2000 -2.1233132
1998 -2.076416
1996 -2.0158927
1994 -1.9581741
1992 -1.935488
1990 -1.9782355
1988 -2.065412
1986 -2.1869137
1984 -2.2813239
1982 -2.3271172
1980 -2.2985861
1978 -2.2051497
1976 -2.017797
1974 -1.760214
1972 -1.432466
1970 -1.0646605
1968 -0.82410949
1966 -0.66849214
1964 -0.79206806
1962 -1.0518181
1960 -1.353044
1958 -1.6633674
1956 -1.7744642
1954 -1.8086715
1952 -1.7452481
1950 -1.6516573
1948 -1.6134714
1946 -1.6124001
1944 -1.7058492
1942 -1.8474518
1940 -2.0085394
1938 -2.1487224
1936 -2.20788
1934 -2.209434
1932 -2.160428
1930 -2.0965359
1928 -2.0490348
1926 -1.9496671
1924 -1.7868301
1922 -1.5103822
1920 -1.1201389
1918 -0.81197685
1916 -0.58644146
1914 -0.54039073
1912 -0.61835694
1910 -0.7424596
1908 -0.88592553
1906 -1.1028537
1904 -1.355552
1902 -1.58836
1900 -1.8051554
1898 -1.8031034
1896 -1.7046286
1894 -1.5067519
1892 -1.290496
1890 -1.187274
1888 -1.167787
1886 -1.2952757
1884 -1.4893311
1882 -1.7136776
1880 -1.9166726
1878 -2.0574117
1876 -2.0925999
1874 -2.000438
1872 -1.7492869
1870 -1.3383454
1868 -0.98561263
1866 -0.73468316
1864 -0.80755651
1862 -1.1613985
1860 -1.6288557
1858 -2.1451421
1856 -2.5510056
1854 -2.8765817
1852 -2.920552
1850 -2.7989912
1848 -2.3453159
1846 -1.7272999
1844 -1.3316985
1842 -1.0881778
1840 -1.3575628
1838 -1.8472191
1836 -2.2447672
1834 -2.506485
1832 -2.3678021
1830 -2.0067499
1828 -1.463294
1826 -0.99126458
1824 -0.85825235
1822 -1.0175194
1820 -1.505362
1818 -2.0419443
1816 -2.4757714
1814 -2.7155635
1812 -2.7454147
1810 -2.6846538
1808 -2.5906
1806 -2.4665101
1804 -2.3178337
1802 -2.0543554
1800 -1.7054663
1798 -1.2837011
1796 -0.82312
1794 -0.47301337
1792 -0.18816024
1790 -0.16119926
1788 -0.27041045
1786 -0.42882508
1784 -0.58798397
1782 -0.61977351
1780 -0.54462141
1778 -0.29200661
1776 0.07981199
1774 0.5508368
1772 0.96077037
1770 1.1004879
1768 0.99754459
1766 0.66539991
1764 0.32147679
1762 0.11599879
1760 0.037524257
1758 -0.10284373
1756 -0.15941286
1754 -0.018178497
1752 0.52120268
1750 1.4426239
1748 2.4112539
1746 3.3184893
1744 3.6602693
1742 3.5137453
1740 3.2735972
1738 3.028971
1736 3.1111801
1734 3.421545
1732 3.3432066
1730 2.9653974
1728 2.0583439
1726 0.87998486
1724 0.06591849
1722 -0.33647239
1720 0.11734942
1718 1.2682662
1716 3.0135558
1714 4.8048382
1712 5.9502234
1710 6.6980371
1708 7.2513142
1706 8.1140575
1704 9.6825953
1702 12.113786
1700 15.444411
1698 19.043196
1696 22.604286
1694 25.563011
1692 27.775555
1690 29.960743
1688 32.304783
1686 35.562187
1684 39.699097
1682 44.116711
1680 48.680679
1678 52.409645
1676 55.43523
1674 58.80558
1672 62.514343
1670 66.903084
1668 71.737038
1666 76.251854
1664 80.483032
1662 84.381844
1660 88.025757
1658 91.501801
1656 94.882515
1654 98.248375
1652 101.3622
1650 103.97026
1648 104.98017
1646 103.65036
1644 100.75534
1642 97.033463
1640 93.216629
1638 89.682549
1636 85.862541
1634 81.568542
1632 76.936058
1630 72.079956
1628 67.525337
1626 63.323685
1624 59.1996
1622 55.090225
1620 51.021088
1618 46.989296
1616 42.960114
1614 38.979111
1612 35.283504
1610 31.950251
1608 29.182995
1606 26.945135
1604 25.045515
1602 23.457478
1600 22.076942
1598 20.939022
1596 20.054001
1594 19.406797
1592 18.950018
1590 18.613859
1588 18.323013
1586 18.157949
1584 18.151062
1582 18.455811
1580 19.117315
1578 20.218203
1576 21.771856
1574 23.51796
1572 25.39712
1570 27.028818
1568 28.343441
1566 29.5369
1564 30.634832
1562 32.161533
1560 34.230942
1558 37.256134
1556 41.090572
1554 44.355122
1552 46.932522
1550 48.601501
1548 49.628231
1546 50.931431
1544 52.540646
1542 54.445389
1540 55.999519
1538 56.407108
1536 55.619457
1534 53.762779
1532 51.646835
1530 49.962753
1528 48.745384
1526 48.003498
1524 47.37957
1522 46.697247
1520 45.342182
1518 43.09116
1516 40.506798
1514 37.720215
1512 35.373241
1510 33.569218
1508 31.399019
1506 28.658236
1504 25.400555
1502 21.652042
1500 18.459736
1498 15.95873
1496 13.85
1494 12.150923
1492 10.597866
1490 9.122673
1488 7.5336161
1486 5.7999792
1484 3.9109077
1482 2.1270971
1480 0.77049494
1478 0.005017221
1476 0.017689437
1474 0.67538279
1472 1.8101234
1470 2.815639
1468 3.2890832
1466 3.5130143
1464 3.5326726
1462 3.793736
1460 4.5265231
1458 5.4431133
1456 6.5405803
1454 7.1437492
1452 7.005959
1450 6.560235
1448 5.7384233
1446 4.9800539
1444 4.3243442
1442 3.8472149
1440 3.6131353
1438 3.6226234
1436 3.8350756
1434 3.9794369
1432 3.944175
1430 3.5928969
1428 3.053098
1426 2.6193829
1424 2.4119868
1422 2.56108
1420 2.9290895
1418 3.3689477
1416 3.7047372
1414 3.7572069
1412 3.7142296
1410 3.6242123
1408 3.6204481
1406 3.7903821
1404 4.0754189
1402 4.5453606
1400 5.092824
1398 5.754375
1396 6.3139143
1394 6.6828465
1392 6.8161011
1390 6.6209006
1388 6.3538642
1386 5.9981003
1384 5.634532
1382 5.2630444
1380 4.9115319
1378 4.5808568
1376 4.3000145
1374 4.0184793
1372 3.6879599
1370 3.3174541
1368 2.9355035
1366 2.6048114
1364 2.3642757
1362 2.1440907
1360 1.872164
1358 1.531013
1356 1.0900575
1354 0.66878861
1352 0.33032382
1350 0.078457184
1348 -0.041067429
1346 -0.099321544
1344 -0.0041364431
1342 0.18393332
1340 0.52441466
1338 0.82703513
1336 1.0474029
1334 1.090874
1332 0.90189302
1330 0.69804859
1328 0.50754869
1326 0.45557228
1324 0.585352
1322 0.87429202
1320 1.3281417
1318 1.844143
1316 2.3668299
1314 2.7433553
1312 2.9592342
1310 2.9707835
1308 2.850318
1306 2.664223
1304 2.4659896
1302 2.3225288
1300 2.2238936
1298 2.2089615
1296 2.2249858
1294 2.2747672
1292 2.3252871
1290 2.3681192
1288 2.4040079
1286 2.4307842
1284 2.4670868
1282 2.5413678
1280 2.6379571
1278 2.7868836
1276 2.9346814
1274 3.068007
1272 3.1946104
1270 3.3077958
1268 3.4599986
1266 3.6808958
1264 3.9522932
1262 4.2844605
1260 4.5953979
1258 4.8746619
1256 5.1052146
1254 5.3100486
1252 5.5542555
1250 5.8416257
1248 6.1914134
1246 6.5618
1244 6.9113154
1242 7.226923
1240 7.4657359
1238 7.6590195
1236 7.7691598
1234 7.8433623
1232 7.8457642
1230 7.8240008
1228 7.7438664
1226 7.6356578
1224 7.4463968
1222 7.2029042
1220 6.832499
1218 6.4274769
1216 5.9597397
1214 5.5016532
1212 5.0519557
1210 4.5747519
1208 4.0538168
1206 3.4922128
1204 2.896136
1202 2.333992
1200 1.812372
1198 1.3401122
1196 0.90392786
1194 0.47695422
1192 0.063314453
1190 -0.31575379
1188 -0.65162611
1186 -0.86999726
1184 -1.0183663
1182 -1.0360647
1180 -1.0066198
1178 -0.90972328
1176 -0.80157
1174 -0.68803638
1172 -0.58530486
1170 -0.52090085
1168 -0.4551616
1166 -0.37731037
1164 -0.26925951
1162 -0.088010676
1160 0.10006267
1158 0.29240328
1156 0.43450254
1154 0.48590949
1152 0.47040039
1150 0.36489668
1148 0.23815921
1146 0.097139679
1144 -0.0026247352
1142 -0.052842461
1140 -0.027987832
1138 0.051583186
1136 0.21833572
1134 0.44562268
1132 0.73009211
1130 1.0375478
1128 1.3479692
1126 1.6679071
1124 2.0297921
1122 2.3974595
1120 2.757668
1118 3.0873647
1116 3.2586985
1114 3.4013565
1112 3.4368491
1110 3.4868131
1108 3.5843208
1106 3.70207
1104 3.8670156
1102 4.0097175
1100 4.1085978
1098 4.1942077
1096 4.2659717
1094 4.3876252
1092 4.5800724
1090 4.8459678
1088 5.1923938
1086 5.6057849
1084 6.0666304
1082 6.5089483
1080 6.9192028
1078 7.1877627
1076 7.3758812
1074 7.4455814
1072 7.4680557
1070 7.4219933
1068 7.3487549
1066 7.1817398
1064 7.0003119
1062 6.8008871
1060 6.617115
1058 6.5413346
1056 6.4796772
1054 6.4794998
1052 6.4793439
1050 6.4789357
1048 6.4899125
1046 6.5274677
1044 6.5526652
1042 6.5506768
1040 6.4833736
1038 6.3216295
1036 6.1368299
1034 5.9277587
1032 5.7419386
1030 5.5703363
1028 5.3535323
1026 5.0990729
1024 4.7837834
1022 4.4364877
1020 4.0799408
1018 3.7176874
1016 3.3225114
1014 2.916291
1012 2.486907
1010 2.0597477
1008 1.707672
1006 1.3691729
1004 1.1195315
1002 0.86395508
1000 0.56434351
998 0.25414297
996 -0.10109329
994 -0.4379791
992 -0.71558923
990 -0.97495687
988 -1.1905303
986 -1.379415
984 -1.520852
982 -1.6092918
980 -1.6280761
978 -1.6369886
976 -1.6346571
974 -1.6248029
972 -1.6034223
970 -1.4866292
968 -1.3087949
966 -1.0445285
964 -0.74393672
962 -0.4910866
960 -0.2565459
958 -0.10697298
956 0.022292316
954 0.083726607
952 0.13250735
950 0.066939287
948 0.001478266
946 0.00048722466
944 0.0077218264
942 0.23274559
940 0.46196282
938 0.70631146
936 0.93680573
934 1.1266745
932 1.3521632
930 1.6532822
928 1.9398137
926 2.2001655
924 2.349576
922 2.3637352
920 2.3982291
918 2.455848
916 2.7344241
914 3.1704931
912 3.682996
910 4.2321429
908 4.6854348
906 5.0978684
904 5.5968647
902 6.1142173
900 6.4676318
898 6.7921238
896 6.3196001
