Image.
>Pix99999.
  .
5555
5555
2300
900
5555
2
1
0
701
5555
1.1467000e-001
1.1705659e-001
1.1944317e-001
1.2182976e-001
1.2420640e-001
1.2659292e-001
1.2897950e-001
1.3136610e-001
1.3375269e-001
1.3613927e-001
1.3852586e-001
1.4091244e-001
1.4329903e-001
1.4566599e-001
1.4806201e-001
1.5050751e-001
1.5283674e-001
1.5502682e-001
1.5760341e-001
1.6073450e-001
1.6240343e-001
1.6202320e-001
1.6706593e-001
1.7973515e-001
1.7227978e-001
1.2028535e-001
4.6351172e-002
-1.6212475e-002
-4.4191159e-002
-2.2943374e-002
3.9554756e-002
1.3086648e-001
2.4639240e-001
3.7938425e-001
5.0491399e-001
5.9757352e-001
6.5130395e-001
6.6866964e-001
6.6401428e-001
6.5011173e-001
6.1962885e-001
5.6067592e-001
4.6746278e-001
3.4116173e-001
2.0344760e-001
7.9697676e-002
-1.4761032e-002
-7.1167320e-002
-9.4461702e-002
-9.5087878e-002
-8.8883504e-002
-9.1790438e-002
-1.1364736e-001
-1.5747197e-001
-2.0651837e-001
-2.3957615e-001
-2.4270481e-001
-2.1090394e-001
-1.6549706e-001
-1.3289657e-001
-1.2562372e-001
-1.4489858e-001
-1.6510883e-001
-1.5861811e-001
-1.2512778e-001
-7.8840517e-002
-5.5225175e-002
-8.6722456e-002
-1.6513471e-001
-2.6591995e-001
-3.5450399e-001
-4.0099594e-001
-4.0726960e-001
-3.8389793e-001
-3.3209842e-001
-2.5189823e-001
-1.5285549e-001
-5.2770529e-002
1.0872198e-002
4.9019842e-003
-5.7875954e-002
-1.4307426e-001
-1.9550535e-001
-1.6546622e-001
-5.4423198e-002
1.0683475e-001
2.4373615e-001
2.8174391e-001
2.0996366e-001
5.0674628e-002
-1.3532886e-001
-2.8647822e-001
-3.9357394e-001
-4.6846846e-001
-5.2709854e-001
-5.8185089e-001
-6.2689644e-001
-6.5172803e-001
-6.5537059e-001
-6.4139801e-001
-6.1623710e-001
-5.8691263e-001
-5.5915987e-001
-5.3657627e-001
-5.1616263e-001
-4.9227551e-001
-4.5892394e-001
-4.1358554e-001
-3.6842972e-001
-3.3968523e-001
-3.3608145e-001
-3.5803714e-001
-3.8484001e-001
-3.9309290e-001
-3.8325179e-001
-3.7077701e-001
-3.9145595e-001
-4.7909746e-001
-6.2603992e-001
-8.0132711e-001
-9.4995773e-001
-1.0171633e+000
-9.8761344e-001
-8.7145907e-001
-7.1379411e-001
-5.6971967e-001
-4.7746003e-001
-4.6019518e-001
-5.1116085e-001
-6.1062402e-001
-7.3680311e-001
-8.6966395e-001
-9.9758351e-001
-1.1108431e+000
-1.1922003e+000
-1.2219971e+000
-1.1861395e+000
-1.0824986e+000
-9.4865316e-001
-8.3737224e-001
-7.9187000e-001
-8.3621764e-001
-9.3625510e-001
-1.0388610e+000
-1.1217721e+000
-1.1831722e+000
-1.2415360e+000
-1.3152620e+000
-1.3879039e+000
-1.4281886e+000
-1.4141001e+000
-1.3390692e+000
-1.2380348e+000
-1.1627880e+000
-1.1531700e+000
-1.2308999e+000
-1.3697931e+000
-1.5215412e+000
-1.6387033e+000
-1.6812167e+000
-1.6312114e+000
-1.4871340e+000
-1.2719212e+000
-1.0261161e+000
-8.1689024e-001
-7.1278656e-001
-7.3438019e-001
-8.6791509e-001
-1.0586624e+000
-1.2424567e+000
-1.3957642e+000
-1.5148332e+000
-1.5876096e+000
-1.5989616e+000
-1.5452751e+000
-1.4403000e+000
-1.3437285e+000
-1.3222954e+000
-1.3710223e+000
-1.4434704e+000
-1.4819400e+000
-1.4431504e+000
-1.3582580e+000
-1.2873223e+000
-1.2441891e+000
-1.2082878e+000
-1.1316129e+000
-9.7476280e-001
-7.8983378e-001
-6.6621739e-001
-6.3493359e-001
-6.8203861e-001
-7.5489998e-001
-8.0312800e-001
-8.6556727e-001
-1.0146301e+000
-1.2469480e+000
-1.5001297e+000
-1.6582025e+000
-1.6096634e+000
-1.3757286e+000
-1.0591661e+000
-7.8156859e-001
-6.4947909e-001
-6.8702310e-001
-8.6516088e-001
-1.1304754e+000
-1.4220417e+000
-1.6890314e+000
-1.8832206e+000
-1.9382600e+000
-1.7903167e+000
-1.4372617e+000
-9.3976504e-001
-4.7077304e-001
-2.3476514e-001
-2.9670113e-001
-6.1025840e-001
-1.0338482e+000
-1.4008371e+000
-1.6485457e+000
-1.7802336e+000
-1.7893265e+000
-1.6636254e+000
-1.4244720e+000
-1.1284678e+000
-8.9220929e-001
-8.4027100e-001
-9.7678924e-001
-1.2159559e+000
-1.4228257e+000
-1.4615310e+000
-1.2920794e+000
-9.5656353e-001
-5.8091760e-001
-3.2147750e-001
-2.6247674e-001
-4.1452321e-001
-6.8893003e-001
-9.4848293e-001
-1.1005429e+000
-1.1071715e+000
-1.0140353e+000
-9.0551525e-001
-8.1038332e-001
-7.0863104e-001
-5.5326158e-001
-2.9707617e-001
4.9428180e-002
4.3286771e-001
7.8807783e-001
1.0452383e+000
1.1275880e+000
9.8103368e-001
6.7498124e-001
3.5740480e-001
1.4640704e-001
1.1618049e-001
2.8276736e-001
6.2096798e-001
1.0837612e+000
1.5925261e+000
1.9731908e+000
2.0234969e+000
1.7136983e+000
1.1649261e+000
5.8993757e-001
2.0701802e-001
3.8201105e-002
-2.2339344e-002
1.0500770e-002
2.0403838e-001
6.0937607e-001
1.2214394e+000
1.8840066e+000
2.3553250e+000
2.4963396e+000
2.3008740e+000
1.9565948e+000
1.7382598e+000
1.7142199e+000
1.7619877e+000
1.6793525e+000
1.2796956e+000
6.1388528e-001
-7.5398564e-002
-5.1775014e-001
-4.7720489e-001
1.4888141e-001
1.3042973e+000
2.6663015e+000
3.7809756e+000
4.4791226e+000
4.8837895e+000
5.3096380e+000
6.1644721e+000
7.7645388e+000
1.0272825e+001
1.3552734e+001
1.7213495e+001
2.0720856e+001
2.3564600e+001
2.5724932e+001
2.7630302e+001
2.9894138e+001
3.3131050e+001
3.7560581e+001
4.2956703e+001
4.8587200e+001
5.3532753e+001
5.7710373e+001
6.1757103e+001
6.6126869e+001
7.0899193e+001
7.5693687e+001
7.9865952e+001
8.3152855e+001
8.5686501e+001
8.7669731e+001
8.9292336e+001
9.0691566e+001
9.1932800e+001
9.2947655e+001
9.3545341e+001
9.3466064e+001
9.2487854e+001
9.0780075e+001
8.8819672e+001
8.6867561e+001
8.4893700e+001
8.2686768e+001
7.9967972e+001
7.6694267e+001
7.3046104e+001
6.9170784e+001
6.5127151e+001
6.0891479e+001
5.6403568e+001
5.1711815e+001
4.6979923e+001
4.2390942e+001
3.8116955e+001
3.4300713e+001
3.1036690e+001
2.8311184e+001
2.6015886e+001
2.4056644e+001
2.2381374e+001
2.0983412e+001
1.9889662e+001
1.9101000e+001
1.8582064e+001
1.8286064e+001
1.8171137e+001
1.8236063e+001
1.8520578e+001
1.9072001e+001
1.9942499e+001
2.1216232e+001
2.2992514e+001
2.5279800e+001
2.7968542e+001
3.0846699e+001
3.3648857e+001
3.6261478e+001
3.8747021e+001
4.1203018e+001
4.3756119e+001
4.6676048e+001
5.0251137e+001
5.4127056e+001
5.7334251e+001
5.9280029e+001
5.9994591e+001
5.9933655e+001
5.9797035e+001
5.9890091e+001
5.9986771e+001
5.9611782e+001
5.8232719e+001
5.5800144e+001
5.2822197e+001
4.9856277e+001
4.7331318e+001
4.5394497e+001
4.3889351e+001
4.2564575e+001
4.1137985e+001
3.9371887e+001
3.7135403e+001
3.4556999e+001
3.2004978e+001
2.9681240e+001
2.7508896e+001
2.5254923e+001
2.2631071e+001
1.9660954e+001
1.6728523e+001
1.4137849e+001
1.1985150e+001
1.0224643e+001
8.7013464e+000
7.3026271e+000
5.9872870e+000
4.6939735e+000
3.3403327e+000
1.9603080e+000
7.3767567e-001
-1.2244374e-001
-4.3365222e-001
-4.2768180e-002
1.1166049e+000
2.8358321e+000
4.6206512e+000
6.1430621e+000
7.3865113e+000
8.4942369e+000
9.7098970e+000
1.1186700e+001
1.2894382e+001
1.4566800e+001
1.5726420e+001
1.6114376e+001
1.5832053e+001
1.5103143e+001
1.4196964e+001
1.3317245e+001
1.2561940e+001
1.1982314e+001
1.1582244e+001
1.1285214e+001
1.0927229e+001
1.0384040e+001
9.6270161e+000
8.7310104e+000
7.8776164e+000
7.2140450e+000
6.7966418e+000
6.6000948e+000
6.5182061e+000
6.4581056e+000
6.3810749e+000
6.3166451e+000
6.3658342e+000
6.5954103e+000
6.9964142e+000
7.5211716e+000
8.0901480e+000
8.6183319e+000
9.0238276e+000
9.2297783e+000
9.1755419e+000
8.8598166e+000
8.3617954e+000
7.7701387e+000
7.1584353e+000
6.5808048e+000
6.0676713e+000
5.6460037e+000
5.3362927e+000
5.1052284e+000
4.8448234e+000
4.4585958e+000
3.9046230e+000
3.2199383e+000
2.5335655e+000
1.9353220e+000
1.4220231e+000
9.6691668e-001
5.4641682e-001
1.8101712e-001
-4.6857409e-002
-7.5466059e-002
1.0052209e-001
4.6362773e-001
9.8443288e-001
1.6561440e+000
2.4981828e+000
3.4511318e+000
4.3225832e+000
4.9141774e+000
5.0870566e+000
4.8364000e+000
4.3477178e+000
3.8038361e+000
3.3083949e+000
2.9246092e+000
2.6752269e+000
2.5559349e+000
2.5299816e+000
2.5383801e+000
2.5021486e+000
2.3666513e+000
2.1287436e+000
1.8087926e+000
1.4469428e+000
1.0856168e+000
7.6318681e-001
5.1839280e-001
3.9116818e-001
4.1437429e-001
6.0593492e-001
9.6691370e-001
1.4724494e+000
2.0776839e+000
2.7131586e+000
3.3072965e+000
3.7983112e+000
4.1505313e+000
4.3734093e+000
4.5028043e+000
4.6017432e+000
4.7253761e+000
4.9015203e+000
5.1401405e+000
5.4309816e+000
5.7705946e+000
6.1754026e+000
6.6617236e+000
7.2362957e+000
7.8941426e+000
8.6153126e+000
9.3887377e+000
1.0227066e+001
1.1144651e+001
1.2143000e+001
1.3202463e+001
1.4266051e+001
1.5271514e+001
1.6161833e+001
1.6881271e+001
1.7371325e+001
1.7571121e+001
1.7414495e+001
1.6871492e+001
1.5988300e+001
1.4841005e+001
1.3537547e+001
1.2185811e+001
1.0878147e+001
9.7040710e+000
8.7442703e+000
8.0625124e+000
7.6831927e+000
7.5914783e+000
7.7091684e+000
7.9318600e+000
8.1334372e+000
8.1959124e+000
8.0338326e+000
7.6034713e+000
6.9357848e+000
6.1014872e+000
5.2158918e+000
4.3845053e+000
3.6676657e+000
3.0954869e+000
2.6554043e+000
2.3268032e+000
2.0923154e+000
1.9321001e+000
1.8201690e+000
1.7311808e+000
1.6460031e+000
1.5602669e+000
1.4986571e+000
1.4909884e+000
1.5601430e+000
1.7091475e+000
1.8985267e+000
2.0728099e+000
2.1657887e+000
2.1301255e+000
1.9688525e+000
1.7053360e+000
1.3814571e+000
1.0365094e+000
6.9338763e-001
3.6950397e-001
8.0464303e-002
-1.4767915e-001
-2.6559600e-001
-2.4092120e-001
-9.5768362e-002
1.2726577e-001
3.6845872e-001
5.7105219e-001
6.9742608e-001
7.3267561e-001
7.0604551e-001
6.5649629e-001
6.1984712e-001
6.2189114e-001
6.6613257e-001
7.5699115e-001
9.1361701e-001
1.1506280e+000
1.4607329e+000
1.8169311e+000
2.1574318e+000
2.4268000e+000
2.6100764e+000
2.7268720e+000
2.8592217e+000
3.0894315e+000
3.4580564e+000
3.9563251e+000
4.4737844e+000
4.8878589e+000
5.1136150e+000
5.1206026e+000
4.9980202e+000
4.8468924e+000
4.7197752e+000
4.6307106e+000
4.5240245e+000
4.3490839e+000
4.1162457e+000
3.8562315e+000
3.6138358e+000
3.4258344e+000
3.2960360e+000
3.2208912e+000
3.1986301e+000
3.2265480e+000
3.2992284e+000
3.4098463e+000
3.5493355e+000
3.7075539e+000
3.8720622e+000
4.0218601e+000
4.1134577e+000
4.1022425e+000
3.9583457e+000
3.6758385e+000
3.3087065e+000
2.9241641e+000
2.5832200e+000
2.3288217e+000
2.1537948e+000
2.0341201e+000
1.9327555e+000
1.8124020e+000
1.6457704e+000
1.4168240e+000
1.1375325e+000
8.2876503e-001
5.1778078e-001
2.3509075e-001
1.5791193e-002
-1.0969214e-001
-1.3019305e-001
-5.3630784e-002
6.6866703e-002
1.7737195e-001
2.5749928e-001
3.0094770e-001
3.2001442e-001
3.2657060e-001
3.1630486e-001
2.8450885e-001
2.3850493e-001
1.8976560e-001
1.5346867e-001
1.4183292e-001
1.5378651e-001
1.8127532e-001
2.0384483e-001
2.0636246e-001
2.0246047e-001
2.1385556e-001
2.6481488e-001
3.5862839e-001
4.2403087e-001
3.9404169e-001
2.8257358e-001
1.2983063e-001
-1.6727559e-003
-4.8380069e-002
3.6399856e-002
2.6448914e-001
5.3698462e-001
7.5505710e-001
9.2102623e-001
1.0670725e+000
1.2421478e+000
1.4880780e+000
1.8024712e+000
2.1667476e+000
2.5418136e+000
2.8848200e+000
3.1574881e+000
3.3259926e+000
3.3676670e+000
3.2736235e+000
3.0779736e+000
2.8369401e+000
2.6523135e+000
2.6092100e+000
2.6826968e+000
2.8204000e+000
