Image.
>Pix99999.
  .
5555
5555
2300
900
5555
2
1
0
701
5555
-6.0013000e-002
-6.1261214e-002
-6.2509432e-002
-6.3757643e-002
-6.5006852e-002
-6.6255078e-002
-6.7503288e-002
-6.8752490e-002
-7.0000716e-002
-7.1247943e-002
-7.2497129e-002
-7.3747322e-002
-7.4994586e-002
-7.6235920e-002
-7.7490859e-002
-7.8765631e-002
-7.9989024e-002
-8.1142001e-002
-8.2482360e-002
-8.4087193e-002
-8.4992662e-002
-8.4916152e-002
-8.7436125e-002
-9.3618743e-002
-9.0149529e-002
-6.1871499e-002
-2.2593627e-003
8.5323900e-002
1.6750827e-001
2.1028315e-001
2.1102329e-001
1.7719550e-001
1.2057726e-001
5.5308700e-002
4.7740340e-004
-3.0354280e-002
-5.1635634e-002
-8.2300588e-002
-1.2620462e-001
-1.7852606e-001
-2.1773228e-001
-2.2410995e-001
-2.0527861e-001
-1.7451377e-001
-1.3444765e-001
-8.4260270e-002
-2.2860480e-002
4.7216449e-002
1.0850744e-001
1.4351811e-001
1.5325929e-001
1.4468837e-001
1.2492806e-001
1.0059417e-001
7.6307952e-002
5.6644902e-002
4.8553679e-002
5.6196783e-002
6.9220215e-002
7.6513901e-002
8.3089858e-002
9.9762194e-002
1.3914251e-001
2.0750280e-001
2.8317857e-001
3.4037849e-001
3.7431267e-001
3.9043120e-001
4.0641016e-001
4.3788940e-001
4.7599900e-001
5.0574881e-001
5.2155298e-001
5.2194619e-001
5.0794959e-001
4.7995287e-001
4.3230769e-001
3.6188442e-001
2.8455034e-001
2.2028938e-001
1.7815457e-001
1.6079901e-001
1.6121237e-001
1.7168812e-001
1.9538561e-001
2.4009186e-001
3.1601265e-001
4.2890280e-001
5.6310606e-001
6.9133615e-001
7.7086288e-001
7.6602900e-001
6.9297379e-001
5.8973318e-001
5.0407797e-001
4.7388926e-001
4.8377246e-001
5.0054181e-001
5.0169742e-001
4.7600043e-001
4.3891141e-001
4.1267893e-001
4.0557492e-001
4.1868249e-001
4.4724846e-001
4.8410299e-001
5.2050978e-001
5.4632992e-001
5.4800415e-001
5.1567537e-001
4.6059087e-001
4.0307993e-001
3.6579642e-001
3.6573815e-001
3.9395037e-001
4.3172422e-001
4.6400625e-001
4.8193434e-001
4.9422771e-001
5.1402837e-001
5.4295969e-001
5.7509696e-001
5.9455073e-001
5.8631742e-001
5.5574894e-001
5.1726639e-001
4.8619398e-001
4.7228408e-001
4.6200246e-001
4.3556067e-001
3.8926315e-001
3.3047512e-001
2.8157577e-001
2.6488960e-001
2.7629673e-001
2.9992530e-001
3.2087788e-001
3.3021915e-001
3.3945012e-001
3.6565727e-001
4.1101402e-001
4.6692756e-001
5.1003712e-001
5.1652223e-001
4.8732126e-001
4.3628457e-001
3.8221034e-001
3.4161940e-001
3.1463405e-001
2.9510891e-001
2.8313500e-001
2.8193387e-001
2.9339704e-001
3.1760639e-001
3.5045901e-001
3.8526329e-001
4.1269279e-001
4.2263746e-001
4.0652052e-001
3.6294854e-001
3.1771800e-001
3.0594519e-001
3.4601825e-001
4.3790013e-001
5.4160708e-001
6.0563701e-001
6.1122787e-001
5.6383216e-001
4.9703801e-001
4.5162705e-001
4.4403484e-001
4.7402042e-001
5.2668005e-001
5.7971293e-001
6.0685474e-001
5.8552998e-001
5.1586139e-001
4.1340348e-001
3.0910498e-001
2.3552202e-001
2.0132200e-001
2.0019396e-001
2.1789220e-001
2.3744161e-001
2.4387640e-001
2.2651008e-001
1.8738960e-001
1.3772991e-001
9.9321574e-002
9.5203660e-002
1.3130766e-001
1.9999002e-001
2.7696612e-001
3.3363450e-001
3.5885304e-001
3.5637102e-001
3.4979200e-001
3.6745867e-001
4.1403994e-001
4.7738856e-001
5.3382999e-001
5.5678827e-001
5.2992368e-001
4.4684780e-001
3.1702068e-001
1.6015257e-001
3.3914819e-003
-1.2608625e-001
-2.1655130e-001
-2.6985908e-001
-3.0666500e-001
-3.5398731e-001
-4.2200869e-001
-5.0338697e-001
-5.6147152e-001
-5.5193037e-001
-4.6897358e-001
-3.3685839e-001
-2.0354545e-001
-1.2129820e-001
-1.0906428e-001
-1.6155910e-001
-2.6115558e-001
-3.8636243e-001
-5.2227437e-001
-6.5736002e-001
-7.7464229e-001
-8.5471475e-001
-8.8446397e-001
-8.5912323e-001
-7.9171985e-001
-7.0286059e-001
-5.9897220e-001
-4.7701877e-001
-3.3700240e-001
-1.8576379e-001
-4.6956118e-002
4.9723037e-002
9.4547860e-002
9.3361229e-002
5.8458257e-002
3.8069263e-003
-6.0825147e-002
-1.2609170e-001
-1.7069584e-001
-1.7253500e-001
-1.4310637e-001
-1.1748072e-001
-1.3169548e-001
-2.0704140e-001
-3.0762857e-001
-3.6637434e-001
-3.4870201e-001
-2.5579664e-001
-1.2974912e-001
-2.8907618e-002
2.6918795e-002
4.9735211e-002
6.1331969e-002
8.2621083e-002
1.1652932e-001
1.5308951e-001
1.8261465e-001
1.9734168e-001
1.8970554e-001
1.5617299e-001
1.1242240e-001
7.7819683e-002
2.5570264e-002
-9.1525927e-002
-2.5329971e-001
-3.9478365e-001
-4.9133804e-001
-5.5643392e-001
-6.1010438e-001
-6.6972858e-001
-7.4143952e-001
-8.1674594e-001
-8.5763574e-001
-8.1341720e-001
-6.7127401e-001
-4.5822480e-001
-2.4081339e-001
-9.9038109e-002
-5.7263784e-002
-8.8192046e-002
-1.3797435e-001
-1.3438730e-001
1.7063946e-002
4.0863788e-001
1.0511386e+000
1.8827469e+000
2.8086486e+000
3.7425609e+000
4.7139702e+000
5.8547649e+000
7.3382812e+000
9.3465681e+000
1.2015925e+001
1.5376366e+001
1.9143715e+001
2.2828911e+001
2.6134375e+001
2.9027166e+001
3.1811234e+001
3.5010792e+001
3.9035713e+001
4.4035732e+001
4.9556320e+001
5.4788399e+001
5.9498070e+001
6.4017715e+001
6.8715622e+001
7.3795639e+001
7.8983620e+001
8.3667244e+001
8.7494110e+001
9.0428841e+001
9.2580299e+001
9.4118942e+001
9.5157860e+001
9.5741287e+001
9.5867401e+001
9.5514702e+001
9.4720528e+001
9.3586716e+001
9.2256943e+001
9.0870865e+001
8.9408913e+001
8.7701958e+001
8.5565468e+001
8.2856300e+001
7.9581436e+001
7.5867332e+001
7.1778831e+001
6.7308578e+001
6.2483242e+001
5.7394505e+001
5.2231266e+001
4.7250458e+001
4.2648258e+001
3.8543064e+001
3.5005299e+001
3.2058399e+001
2.9648857e+001
2.7658522e+001
2.5984707e+001
2.4562881e+001
2.3378965e+001
2.2460888e+001
2.1838001e+001
2.1526720e+001
2.1503693e+001
2.1710184e+001
2.2095337e+001
2.2626715e+001
2.3288759e+001
2.4088240e+001
2.5083178e+001
2.6379921e+001
2.8094944e+001
3.0317650e+001
3.3007355e+001
3.5991169e+001
3.9065598e+001
4.2032627e+001
4.4741760e+001
4.7135319e+001
4.9382103e+001
5.1813469e+001
5.4460201e+001
5.6987850e+001
5.9012424e+001
6.0232613e+001
6.0647942e+001
6.0529572e+001
5.9963036e+001
5.8783478e+001
5.6896641e+001
5.4384415e+001
5.1550541e+001
4.8858639e+001
4.6532375e+001
4.4483643e+001
4.2574474e+001
4.0682549e+001
3.8692520e+001
3.6509865e+001
3.4128193e+001
3.1648174e+001
2.9224600e+001
2.7011776e+001
2.4975601e+001
2.2878126e+001
2.0546825e+001
1.7971006e+001
1.5336228e+001
1.2981164e+001
1.1058277e+001
9.4533424e+000
7.9996285e+000
6.5541296e+000
5.0803981e+000
3.6630082e+000
2.3909721e+000
1.3241937e+000
5.0351441e-001
-4.9097195e-002
-3.2992354e-001
-3.4061435e-001
-1.8928975e-002
7.5045782e-001
1.9397217e+000
3.3319030e+000
4.7165294e+000
5.9615598e+000
7.0464745e+000
8.0720186e+000
9.1544209e+000
1.0373262e+001
1.1679999e+001
1.2873905e+001
1.3755583e+001
1.4192422e+001
1.4179372e+001
1.3854465e+001
1.3342143e+001
1.2702830e+001
1.1957314e+001
1.1093924e+001
1.0108532e+001
9.0256653e+000
7.9182549e+000
6.9101949e+000
6.0885859e+000
5.4718485e+000
5.0465651e+000
4.7784438e+000
4.6439376e+000
4.6405048e+000
4.7674456e+000
5.0189900e+000
5.3809795e+000
5.8289075e+000
6.3358741e+000
6.8718328e+000
7.3871312e+000
7.8067594e+000
8.0601606e+000
8.0992556e+000
7.9244070e+000
7.5999627e+000
7.2042494e+000
6.8101664e+000
6.4595451e+000
6.1493998e+000
5.8645897e+000
5.5859070e+000
5.2878737e+000
4.9377990e+000
4.5068259e+000
3.9787476e+000
3.3659379e+000
2.7174640e+000
2.0778949e+000
1.4707543e+000
9.0653533e-001
3.8662946e-001
-6.6765547e-002
-3.9789018e-001
-5.5691999e-001
-5.1674706e-001
-2.6534492e-001
1.8989846e-001
8.1666207e-001
1.5497644e+000
2.3165081e+000
3.0459490e+000
3.6800773e+000
4.1818333e+000
4.5240059e+000
4.6892262e+000
4.6712260e+000
4.4808760e+000
4.1478572e+000
3.7266264e+000
3.2779138e+000
2.8601451e+000
2.5098584e+000
2.2270460e+000
1.9993501e+000
1.8080604e+000
1.6363685e+000
1.4737562e+000
1.3162391e+000
1.1693350e+000
1.0443686e+000
9.5838541e-001
9.2589515e-001
9.5578551e-001
1.0634999e+000
1.2778610e+000
1.6293286e+000
2.1409161e+000
2.8041880e+000
3.5570843e+000
4.3159924e+000
4.9853621e+000
5.4966116e+000
5.8374014e+000
6.0267630e+000
6.1168761e+000
6.1640220e+000
6.2175999e+000
6.3203764e+000
6.5048141e+000
6.7951446e+000
7.2041893e+000
7.7376261e+000
8.3919563e+000
9.1592913e+000
1.0027051e+001
1.0980575e+001
1.2002798e+001
1.3079337e+001
1.4195500e+001
1.5329885e+001
1.6444679e+001
1.7485708e+001
1.8376307e+001
1.9043442e+001
1.9427559e+001
1.9480440e+001
1.9170856e+001
1.8486818e+001
1.7456879e+001
1.6142834e+001
1.4659865e+001
1.3140957e+001
1.1724970e+001
1.0529840e+001
9.6246347e+000
9.0400486e+000
8.7499161e+000
8.7004566e+000
8.8063555e+000
8.9663877e+000
9.0630293e+000
8.9891376e+000
8.6724558e+000
8.0894432e+000
7.3032546e+000
6.4062834e+000
5.5067062e+000
4.6876574e+000
3.9705682e+000
3.3560441e+000
2.8314629e+000
2.3885112e+000
2.0341218e+000
1.7738601e+000
1.6031678e+000
1.5152729e+000
1.5033723e+000
1.5570571e+000
1.6569550e+000
1.7744362e+000
1.8657800e+000
1.8921251e+000
1.8344907e+000
1.6904757e+000
1.4838215e+000
1.2446721e+000
1.0026686e+000
7.8056622e-001
5.8570683e-001
4.1978437e-001
2.7948546e-001
1.5606582e-001
3.2041267e-002
-1.0199414e-001
-2.3167300e-001
-3.3833471e-001
-4.0679467e-001
-4.2437634e-001
-3.8340044e-001
-2.8635755e-001
-1.5807255e-001
-3.4986001e-002
3.3378340e-002
1.4859743e-002
-7.1421571e-002
-1.8574971e-001
-2.7040616e-001
-2.8766733e-001
-2.6028898e-001
-2.2340314e-001
-2.0461673e-001
-2.0873371e-001
-1.8878302e-001
-1.0014999e-001
6.3791052e-002
2.9853681e-001
5.9517145e-001
9.5098519e-001
1.3801585e+000
1.8805643e+000
2.3962331e+000
2.8562703e+000
3.1873071e+000
3.3390372e+000
3.3252425e+000
3.1846173e+000
2.9804137e+000
2.7727787e+000
2.5967443e+000
2.4705360e+000
2.3837268e+000
2.3175507e+000
2.2507124e+000
2.1717229e+000
2.0981586e+000
2.0549901e+000
2.0657010e+000
2.1380353e+000
2.2362142e+000
2.3169324e+000
2.3472903e+000
2.3177228e+000
2.2773030e+000
2.2784500e+000
2.3391147e+000
2.4447742e+000
2.5128458e+000
2.4675045e+000
2.3037236e+000
2.0471144e+000
1.7624730e+000
1.5049806e+000
1.2738116e+000
1.0572437e+000
8.5276592e-001
6.6385269e-001
5.0393581e-001
3.7858278e-001
2.6177329e-001
1.2246202e-001
-6.0995117e-002
-2.9341900e-001
-5.3447723e-001
-7.3959786e-001
-8.8671720e-001
-9.7439057e-001
-1.0483351e+000
-1.1518101e+000
-1.2812021e+000
-1.4070828e+000
-1.4553338e+000
-1.3637040e+000
-1.1474628e+000
-8.5163599e-001
-5.5535662e-001
-3.2420507e-001
-1.4996459e-001
-1.1051722e-002
9.7318947e-002
1.6612428e-001
1.5433684e-001
3.2122940e-002
-1.6454078e-001
-3.7820730e-001
-5.3418225e-001
-5.7054603e-001
-4.8554647e-001
-3.0597755e-001
-1.0585047e-001
5.9669897e-002
2.4343048e-001
4.9261212e-001
7.3792481e-001
8.9661342e-001
9.4241464e-001
8.8388258e-001
8.0514783e-001
7.9041654e-001
8.5407090e-001
9.7831118e-001
1.0901572e+000
1.1184721e+000
1.0514648e+000
9.0267098e-001
7.2640043e-001
5.9033942e-001
5.7469219e-001
7.4630332e-001
1.1076357e+000
1.6013839e+000
1.9991858e+000
2.0882249e+000
1.8869058e+000
1.4715000e+000
