Image.
>Pix99999.
  .
5555
5555
2300
900
5555
2
1
0
701
5555
-2.7778000e-003
-2.8356174e-003
-2.8934344e-003
-2.9512518e-003
-3.0089696e-003
-3.0667866e-003
-3.1246035e-003
-3.1823220e-003
-3.2401383e-003
-3.2979557e-003
-3.3556744e-003
-3.4134900e-003
-3.4713075e-003
-3.5291249e-003
-3.5868441e-003
-3.6446592e-003
-3.7024766e-003
-3.7602938e-003
-3.8181110e-003
-3.8758311e-003
-3.9335489e-003
-3.9914600e-003
-4.0491833e-003
-4.1069980e-003
-4.1649118e-003
-4.2226356e-003
-1.5691742e-004
8.7214066e-003
1.5491492e-002
1.7233095e-003
-1.5055856e-002
-3.4502443e-002
-5.3185560e-002
-5.0564881e-002
-4.4380922e-002
-1.7897699e-002
1.0433657e-002
4.2527493e-002
6.8877593e-002
7.7130511e-002
7.4665830e-002
5.1013712e-002
2.7396260e-002
5.8742333e-003
-9.9677015e-003
-1.8887149e-002
-2.5546031e-002
-3.0453714e-002
-2.5950268e-002
-1.4501960e-002
1.1180643e-002
4.4806778e-002
8.0957048e-002
1.1798783e-001
1.3550112e-001
1.4664456e-001
1.4464720e-001
1.3971528e-001
1.3910741e-001
1.3918157e-001
1.3930885e-001
1.3896398e-001
1.3329737e-001
1.2385930e-001
9.5734671e-002
6.3112624e-002
2.0755056e-002
-1.5152388e-002
-3.2061052e-002
-3.8577721e-002
-2.9058199e-002
-1.4615881e-002
4.5587537e-003
3.2055501e-002
6.8374276e-002
1.0832860e-001
1.5068726e-001
1.8009761e-001
2.0031832e-001
2.0277163e-001
1.9604315e-001
1.8124250e-001
1.6339613e-001
1.5356632e-001
1.4637880e-001
1.4114715e-001
1.3632971e-001
1.1560733e-001
9.2256740e-002
6.7128949e-002
4.3283485e-002
3.0839039e-002
1.9683417e-002
6.8654246e-003
-1.0474822e-002
-4.0726729e-002
-7.1906835e-002
-1.0090995e-001
-1.1825440e-001
-1.1654926e-001
-1.0011286e-001
-6.8054549e-002
-3.8146149e-002
-1.2822614e-002
-1.1629852e-002
-2.9864350e-002
-6.2574625e-002
-1.0308282e-001
-1.3459155e-001
-1.6081060e-001
-1.6687344e-001
-1.6482827e-001
-1.4840159e-001
-1.2758228e-001
-1.2672167e-001
-1.3143200e-001
-1.6867657e-001
-2.1276392e-001
-2.6280397e-001
-3.1119868e-001
-3.4413913e-001
-3.6652419e-001
-3.6180678e-001
-3.4733126e-001
-3.2130843e-001
-3.0553749e-001
-3.1399119e-001
-3.4246424e-001
-3.9431232e-001
-4.4003016e-001
-4.7322398e-001
-4.7734427e-001
-4.5549148e-001
-4.2427221e-001
-3.8916507e-001
-3.7426278e-001
-3.7262198e-001
-3.7852910e-001
-3.8728812e-001
-3.8724673e-001
-3.8343000e-001
-3.8219869e-001
-3.8209203e-001
-3.8861486e-001
-3.9785159e-001
-4.2178798e-001
-4.5180312e-001
-4.9797648e-001
-5.4510820e-001
-5.7805985e-001
-5.9609002e-001
-5.7952029e-001
-5.5014020e-001
-5.1182866e-001
-4.8174620e-001
-4.7055134e-001
-4.7096622e-001
-4.8128399e-001
-4.9555394e-001
-5.1143348e-001
-5.2733946e-001
-5.4277182e-001
-5.4834437e-001
-5.4631335e-001
-5.4245478e-001
-5.3834057e-001
-5.4719323e-001
-5.6310296e-001
-5.7598400e-001
-5.8721530e-001
-6.0551989e-001
-6.2711793e-001
-6.6980958e-001
-7.1775329e-001
-7.4899960e-001
-7.7248251e-001
-7.8328025e-001
-7.9645371e-001
-8.3448374e-001
-8.8227993e-001
-9.3618858e-001
-9.8016268e-001
-9.9967343e-001
-1.0001156e+000
-9.8053193e-001
-9.4659764e-001
-9.0069252e-001
-8.5040814e-001
-7.9919338e-001
-7.6890850e-001
-7.5846314e-001
-7.5931227e-001
-7.6537085e-001
-7.6279050e-001
-7.5377637e-001
-7.6908064e-001
-7.9839718e-001
-8.4765774e-001
-9.0570366e-001
-9.2113477e-001
-9.1698861e-001
-8.7632710e-001
-8.2575822e-001
-8.0531681e-001
-8.0671924e-001
-8.5349691e-001
-9.1842133e-001
-9.8735219e-001
-1.0508634e+000
-1.0977287e+000
-1.1249100e+000
-1.1252923e+000
-1.0935594e+000
-1.0260081e+000
-9.5956522e-001
-9.0996474e-001
-9.1928458e-001
-9.8699558e-001
-1.0801423e+000
-1.1819941e+000
-1.2586600e+000
-1.3136617e+000
-1.3264223e+000
-1.3130431e+000
-1.2639800e+000
-1.1955249e+000
-1.1434120e+000
-1.1014255e+000
-1.0968331e+000
-1.1077613e+000
-1.0959600e+000
-1.0644131e+000
-9.8062187e-001
-8.7416613e-001
-7.7146637e-001
-6.9937050e-001
-7.0839363e-001
-7.6934487e-001
-8.6942959e-001
-9.6384245e-001
-1.0205326e+000
-1.0361836e+000
-1.0117586e+000
-9.7384328e-001
-9.3625492e-001
-8.9946151e-001
-8.6356843e-001
-8.1842399e-001
-7.6395696e-001
-7.0048243e-001
-6.3123500e-001
-5.6110227e-001
-4.9188039e-001
-4.5017064e-001
-4.2683133e-001
-4.1382164e-001
-4.0530366e-001
-3.7949434e-001
-3.4101552e-001
-2.7938208e-001
-1.9677943e-001
-7.7042758e-002
5.4385990e-002
1.5936562e-001
2.1882920e-001
1.9647029e-001
1.3286020e-001
6.3720599e-002
1.6516520e-002
-1.0416047e-001
-2.3055170e-001
-2.8679726e-001
-2.4830645e-001
-1.2311746e-001
1.3465907e-002
1.3306047e-001
1.4099166e-001
4.5260504e-002
-6.2494352e-002
-1.6162804e-001
-1.4506200e-001
-3.9516177e-002
3.6678486e-002
8.0806725e-002
1.1069700e-003
-1.5176874e-001
-2.2410440e-001
-2.0439160e-001
3.7875995e-002
4.7601444e-001
1.1204623e+000
1.8446246e+000
2.4613171e+000
3.0191116e+000
3.5768461e+000
4.3099971e+000
5.3794651e+000
7.0133100e+000
9.3165083e+000
1.2419573e+001
1.6265858e+001
2.0152819e+001
2.3762056e+001
2.7032934e+001
3.0021715e+001
3.3602749e+001
3.7851749e+001
4.2929649e+001
4.8655720e+001
5.3669041e+001
5.8010727e+001
6.2220768e+001
6.6425026e+001
7.1440796e+001
7.7058479e+001
8.2620499e+001
8.7984062e+001
9.2660583e+001
9.6658714e+001
9.9943489e+001
1.0252657e+002
1.0443839e+002
1.0551260e+002
1.0559842e+002
1.0443851e+002
1.0190107e+002
9.8630676e+001
9.5216660e+001
9.1594955e+001
8.7763229e+001
8.3277328e+001
7.8031532e+001
7.2750717e+001
6.7684418e+001
6.3025890e+001
5.8763870e+001
5.4468201e+001
5.0076694e+001
4.5892082e+001
4.1931023e+001
3.8339287e+001
3.5121655e+001
3.2293896e+001
2.9860260e+001
2.7771400e+001
2.6017393e+001
2.4506365e+001
2.3262541e+001
2.2290737e+001
2.1599653e+001
2.1158501e+001
2.0942701e+001
2.0886915e+001
2.0955538e+001
2.1096500e+001
2.1312157e+001
2.1596817e+001
2.1963760e+001
2.2415003e+001
2.2998102e+001
2.3725058e+001
2.4611034e+001
2.5653107e+001
2.6800638e+001
2.8039480e+001
2.9330328e+001
3.0672142e+001
3.2215733e+001
3.4052475e+001
3.6769176e+001
4.0409515e+001
4.4299751e+001
4.8215027e+001
5.1214928e+001
5.3353317e+001
5.5211212e+001
5.6827091e+001
5.8368374e+001
5.9598042e+001
6.0178627e+001
5.9939915e+001
5.8797363e+001
5.7087109e+001
5.5226986e+001
5.3319157e+001
5.1447899e+001
4.9511810e+001
4.7446320e+001
4.5161922e+001
4.2600086e+001
4.0088871e+001
3.7740913e+001
3.5555161e+001
3.3559750e+001
3.1143002e+001
2.8156858e+001
2.5079931e+001
2.1955488e+001
1.9294271e+001
1.7153101e+001
1.5072429e+001
1.3049900e+001
1.1015052e+001
8.9728336e+000
6.9393578e+000
4.9792914e+000
3.2068820e+000
1.7380688e+000
6.9770545e-001
1.2121455e-001
3.7594631e-002
5.0396323e-001
1.4469337e+000
2.5296059e+000
3.5340247e+000
4.3551598e+000
4.9031954e+000
5.3668008e+000
5.8134341e+000
6.2686925e+000
6.7415400e+000
7.0964150e+000
7.2588730e+000
7.2779298e+000
7.0936971e+000
6.8628035e+000
6.5710506e+000
6.2807531e+000
5.9888120e+000
5.6763592e+000
5.3148746e+000
4.8416905e+000
4.2525697e+000
3.6239841e+000
3.0070081e+000
2.5209808e+000
2.1947749e+000
2.0435057e+000
2.0519431e+000
2.1866002e+000
2.3926885e+000
2.6153491e+000
2.8409178e+000
3.0625184e+000
3.3054240e+000
3.5947051e+000
3.9238777e+000
4.3070331e+000
4.7137160e+000
5.1479540e+000
5.5636854e+000
5.9361358e+000
6.2269936e+000
6.3705606e+000
6.4041228e+000
6.2613649e+000
6.0115395e+000
5.6149921e+000
5.1634979e+000
4.6523571e+000
4.1420202e+000
3.6451142e+000
3.1853640e+000
2.7726767e+000
2.4106486e+000
2.0738220e+000
1.7129097e+000
1.3241658e+000
8.9769053e-001
4.9721491e-001
2.0404470e-001
1.6760940e-002
-1.0900503e-002
3.9118588e-002
1.6753791e-001
3.3052713e-001
5.3320801e-001
7.5687307e-001
1.0170212e+000
1.2698982e+000
1.5011200e+000
1.6914914e+000
1.8071077e+000
1.9209100e+000
2.0403297e+000
2.2070966e+000
2.4483953e+000
2.7402303e+000
3.0944638e+000
3.4670284e+000
3.8483698e+000
4.1973486e+000
4.4994121e+000
4.7348633e+000
4.9067979e+000
5.0220051e+000
5.0967631e+000
5.1428761e+000
5.1658859e+000
5.1570015e+000
5.1264286e+000
5.0635715e+000
5.0003319e+000
4.9552956e+000
4.9278121e+000
4.9392557e+000
4.9526873e+000
4.9639225e+000
4.9714355e+000
4.9720640e+000
4.9839110e+000
5.0194130e+000
5.0701432e+000
5.1474400e+000
5.2372189e+000
5.3454871e+000
5.4637613e+000
5.5926981e+000
5.7213101e+000
5.8471699e+000
5.9634542e+000
6.0697131e+000
6.1660872e+000
6.2555237e+000
6.3420720e+000
6.4253254e+000
6.5016947e+000
6.5663457e+000
6.6001410e+000
6.6050582e+000
6.5428343e+000
6.4399424e+000
6.2457361e+000
6.0157309e+000
5.6989264e+000
5.3532934e+000
4.9305105e+000
4.4848576e+000
3.9862320e+000
3.4865708e+000
2.9899259e+000
2.5243361e+000
2.1161284e+000
1.7542330e+000
1.4588474e+000
1.1929971e+000
9.6222758e-001
7.4698979e-001
5.5198538e-001
3.8579533e-001
2.4892929e-001
1.4966948e-001
7.8734577e-002
3.7271291e-002
1.3612553e-002
1.0045168e-002
2.2761136e-002
7.5270496e-002
1.6061242e-001
3.4305394e-001
5.6403804e-001
8.8744116e-001
1.2137001e+000
1.5256274e+000
1.7978480e+000
1.9455435e+000
2.0479131e+000
2.0384920e+000
2.0041807e+000
1.9194343e+000
1.8173686e+000
1.6835831e+000
1.5215578e+000
1.3185971e+000
1.0862978e+000
8.2504928e-001
5.7030147e-001
3.3231613e-001
1.5655850e-001
3.9146163e-002
1.5396200e-002
5.6721903e-002
1.9542229e-001
3.8017565e-001
6.1123431e-001
8.4355330e-001
1.0162647e+000
1.1558806e+000
1.1765679e+000
1.1830082e+000
1.1724786e+000
1.1799555e+000
1.2629595e+000
1.3448535e+000
1.4209732e+000
1.4779050e+000
1.4891840e+000
1.5055110e+000
1.5324378e+000
1.5677257e+000
1.6134429e+000
1.6426294e+000
1.6493980e+000
1.6371459e+000
1.6062018e+000
1.5731908e+000
1.5394803e+000
1.5124443e+000
1.4885702e+000
1.4583100e+000
1.4209214e+000
1.3520303e+000
1.2690212e+000
1.1578840e+000
1.0418452e+000
9.3591064e-001
8.3325124e-001
7.4547225e-001
6.5773654e-001
5.6596112e-001
4.8118031e-001
4.2767361e-001
3.8620001e-001
3.8226828e-001
3.7336388e-001
3.5129145e-001
3.1515515e-001
2.5226474e-001
1.8034509e-001
9.5288619e-002
8.6396039e-003
-7.9383992e-002
-1.6352624e-001
-2.4444118e-001
-3.2799578e-001
-4.1391730e-001
-5.0605601e-001
-6.0165757e-001
-6.9923693e-001
-7.9505551e-001
-8.6329257e-001
-9.2031741e-001
-9.3528038e-001
-9.4263393e-001
-9.4448036e-001
-9.4537205e-001
-9.4049799e-001
-9.3377596e-001
-9.1501385e-001
-8.9911956e-001
-8.9572930e-001
-8.9074194e-001
-8.7993443e-001
-8.5304576e-001
-7.8936166e-001
-7.2140259e-001
-6.4775324e-001
-6.0349751e-001
-5.9914660e-001
-6.0970050e-001
-6.3363659e-001
-6.2322843e-001
-5.8425844e-001
-5.2180851e-001
-4.4639328e-001
-3.9578500e-001
-3.5747024e-001
-3.4159410e-001
-3.3227319e-001
-3.0772886e-001
-2.7897042e-001
-2.2783741e-001
-1.7429480e-001
-1.2723352e-001
-7.9919860e-002
-2.6167821e-002
1.3050847e-003
4.0953964e-002
1.3057920e-001
2.7603570e-001
4.0895599e-001
5.0465226e-001
5.7661259e-001
5.9758615e-001
5.9831816e-001
5.6631035e-001
5.1218957e-001
4.3172699e-001
3.7495121e-001
3.4138104e-001
3.9058787e-001
4.9832281e-001
6.2447631e-001
7.5958455e-001
8.0767930e-001
8.2241839e-001
7.9277474e-001
7.5174761e-001
7.3022747e-001
7.1188325e-001
6.9316000e-001
