Image.
>Pix99999.
  .
5555
5555
2300
900
5555
2
1
0
701
5555
2.0854000e-002
2.1297365e-002
2.1740731e-002
2.2184096e-002
2.2626469e-002
2.3069829e-002
2.3513194e-002
2.3955571e-002
2.4398927e-002
2.4842290e-002
2.5285657e-002
2.5728039e-002
2.6171390e-002
2.6614754e-002
2.7057139e-002
2.7500486e-002
2.7943851e-002
2.8387217e-002
2.8829608e-002
2.9272949e-002
2.9716313e-002
3.0158710e-002
3.0602045e-002
3.1045413e-002
3.1488780e-002
3.1931181e-002
1.3947348e-002
5.1118713e-004
-8.1326403e-003
-5.0724849e-002
-9.8339759e-002
-1.0586624e-001
-1.0774228e-001
-4.7598477e-002
7.0588896e-003
-5.6330501e-003
-3.5296485e-002
-1.2680073e-001
-2.1215843e-001
-2.6863018e-001
-3.0467114e-001
-2.9961869e-001
-2.7458960e-001
-2.2093867e-001
-1.6393480e-001
-1.0496443e-001
-6.6277504e-002
-4.7291905e-002
-2.2363612e-002
7.9666199e-003
9.4675571e-002
2.1368879e-001
3.5114875e-001
4.9575022e-001
5.6038648e-001
5.9887069e-001
5.9777719e-001
5.8794117e-001
6.2659216e-001
6.7246598e-001
7.1161485e-001
7.4875963e-001
7.7049202e-001
7.9419369e-001
8.3758187e-001
8.7807012e-001
9.0101832e-001
9.1733485e-001
9.2117029e-001
9.3220109e-001
9.5926404e-001
9.8721915e-001
1.0140486e+000
1.0347143e+000
1.0485152e+000
1.0590072e+000
1.0673206e+000
1.0716710e+000
1.0735217e+000
1.0759178e+000
1.0786800e+000
1.0683001e+000
1.0522445e+000
1.0275592e+000
1.0001416e+000
1.0038309e+000
1.0147994e+000
1.0569208e+000
1.1037040e+000
1.1462600e+000
1.1827971e+000
1.1785259e+000
1.1568755e+000
1.0845153e+000
1.0062964e+000
9.3297642e-001
8.8643855e-001
8.9742506e-001
9.3786681e-001
1.0135456e+000
1.0910000e+000
1.1640393e+000
1.2374609e+000
1.3118231e+000
1.3965337e+000
1.4896400e+000
1.5744011e+000
1.6529077e+000
1.7076777e+000
1.7503691e+000
1.7863001e+000
1.8200721e+000
1.8823520e+000
1.9539126e+000
2.0478911e+000
2.1465521e+000
2.2116892e+000
2.2651250e+000
2.2646711e+000
2.2471960e+000
2.1950314e+000
2.1407306e+000
2.1036735e+000
2.0903814e+000
2.1301074e+000
2.1883678e+000
2.2624040e+000
2.3358102e+000
2.4035034e+000
2.4819360e+000
2.5742571e+000
2.6622934e+000
2.7436578e+000
2.7778349e+000
2.7759931e+000
2.7589221e+000
2.7360239e+000
2.7747509e+000
2.8459959e+000
2.9587545e+000
3.0871599e+000
3.1625516e+000
3.2194009e+000
3.1982348e+000
3.1563017e+000
3.1085122e+000
3.0675926e+000
3.0858068e+000
3.1286800e+000
3.2144165e+000
3.3013144e+000
3.3599474e+000
3.3915327e+000
3.3771174e+000
3.3599560e+000
3.3562329e+000
3.3719537e+000
3.4103210e+000
3.4337275e+000
3.4349177e+000
3.4259999e+000
3.4125121e+000
3.4519324e+000
3.5329223e+000
3.6460216e+000
3.7747271e+000
3.8475046e+000
3.8891296e+000
3.8583519e+000
3.7974789e+000
3.6994200e+000
3.5899982e+000
3.5228457e+000
3.4755957e+000
3.4928038e+000
3.5256000e+000
3.5317531e+000
3.5205905e+000
3.4735248e+000
3.4271424e+000
3.4106543e+000
3.4081070e+000
3.4169281e+000
3.4167025e+000
3.3980296e+000
3.3884892e+000
3.3983877e+000
3.4433668e+000
3.5201056e+000
3.5713429e+000
3.5913713e+000
3.5637057e+000
3.5049736e+000
3.4502614e+000
3.4022980e+000
3.3494051e+000
3.2930322e+000
3.2548962e+000
3.2251160e+000
3.2757750e+000
3.3579144e+000
3.4395692e+000
3.5062549e+000
3.4712601e+000
3.3858159e+000
3.2485492e+000
3.1022475e+000
2.9866612e+000
2.9034777e+000
2.8708787e+000
2.8834100e+000
2.9490306e+000
3.0476789e+000
3.1709473e+000
3.2490857e+000
3.2584863e+000
3.1715372e+000
3.0013750e+000
2.8190656e+000
2.6460986e+000
2.5131259e+000
2.4105980e+000
2.3415186e+000
2.2919817e+000
2.2958999e+000
2.3306215e+000
2.3762155e+000
2.4246695e+000
2.4146097e+000
2.3775060e+000
2.3531456e+000
2.3408020e+000
2.3671172e+000
2.3975780e+000
2.3785386e+000
2.3044837e+000
2.1345012e+000
1.9258906e+000
1.7195721e+000
1.5546999e+000
1.4627857e+000
1.4248940e+000
1.4276921e+000
1.4440110e+000
1.4596320e+000
1.4808600e+000
1.5080141e+000
1.5146054e+000
1.5020456e+000
1.4469122e+000
1.3612642e+000
1.2849263e+000
1.2175200e+000
1.1575123e+000
1.0996085e+000
1.0248572e+000
9.4074994e-001
8.7399065e-001
8.2393485e-001
8.2519668e-001
8.6185712e-001
9.3343979e-001
9.9311745e-001
9.5314497e-001
8.2569200e-001
5.9921217e-001
3.5266140e-001
1.5978894e-001
3.6368750e-002
-3.7412032e-002
-3.5890184e-002
5.4613855e-002
2.4610710e-001
5.2456468e-001
7.4599439e-001
8.7645108e-001
8.1580597e-001
5.9300762e-001
3.8819548e-001
2.2829883e-001
2.3731402e-001
3.7277433e-001
4.3227386e-001
4.2219263e-001
2.3643029e-001
-5.1146783e-002
-2.0694068e-001
-2.2610310e-001
-1.2946352e-002
3.2895970e-001
7.9541838e-001
1.2844362e+000
1.5676765e+000
1.7539577e+000
1.9755260e+000
2.4213178e+000
3.2652526e+000
4.6911831e+000
6.7691445e+000
9.5511761e+000
1.2947286e+001
1.6355200e+001
1.9506495e+001
2.2432775e+001
2.5199097e+001
2.8623392e+001
3.2753273e+001
3.7636677e+001
4.3091919e+001
4.7803856e+001
5.1825329e+001
5.5769955e+001
5.9745773e+001
6.4435104e+001
6.9629745e+001
7.4615097e+001
7.9336632e+001
8.3569427e+001
8.7417992e+001
9.1083031e+001
9.4595314e+001
9.8010452e+001
1.0103144e+002
1.0331329e+002
1.0417389e+002
1.0308858e+002
1.0077567e+002
9.7947517e+001
9.4898766e+001
9.1837959e+001
8.8349899e+001
8.4307838e+001
8.0010590e+001
7.5597549e+001
7.1331970e+001
6.7257736e+001
6.3131840e+001
5.8924149e+001
5.4725655e+001
5.0546314e+001
4.6426800e+001
4.2408367e+001
3.8793003e+001
3.5613590e+001
3.2940983e+001
3.0741280e+001
2.8826735e+001
2.7205400e+001
2.5841085e+001
2.4752590e+001
2.3926498e+001
2.3348198e+001
2.2961811e+001
2.2720354e+001
2.2557720e+001
2.2454571e+001
2.2390903e+001
2.2396891e+001
2.2485163e+001
2.2725243e+001
2.3138914e+001
2.3723717e+001
2.4467731e+001
2.5288769e+001
2.6165840e+001
2.7095915e+001
2.8084234e+001
2.9328085e+001
3.0926542e+001
3.3435955e+001
3.6908085e+001
4.0671921e+001
4.4511917e+001
4.7494873e+001
4.9667545e+001
5.1570286e+001
5.3287296e+001
5.5066952e+001
5.6699680e+001
5.7848408e+001
5.8249855e+001
5.7685272e+001
5.6572750e+001
5.5417347e+001
5.4330345e+001
5.3398499e+001
5.2385750e+001
5.1142349e+001
4.9410576e+001
4.7035847e+001
4.4489758e+001
4.1908493e+001
3.9464600e+001
3.7221863e+001
3.4543293e+001
3.1278908e+001
2.7993210e+001
2.4751171e+001
2.2041782e+001
1.9920971e+001
1.7816713e+001
1.5705924e+001
1.3498135e+001
1.1191899e+001
8.8412371e+000
6.5189385e+000
4.3789639e+000
2.5540242e+000
1.1990724e+000
3.5555151e-001
6.3132554e-002
3.7563780e-001
1.1886289e+000
2.1385250e+000
2.9938610e+000
3.6882637e+000
4.1627364e+000
4.6206136e+000
5.1526713e+000
5.7376127e+000
6.3827000e+000
6.8561549e+000
7.0431585e+000
7.0377593e+000
6.7637029e+000
6.4561038e+000
6.1104884e+000
5.8008838e+000
5.5355792e+000
5.2702365e+000
4.9711370e+000
4.5307508e+000
3.9347389e+000
3.2586689e+000
2.5600901e+000
1.9934950e+000
1.5966811e+000
1.3997469e+000
1.3781526e+000
1.4817808e+000
1.6418029e+000
1.7852950e+000
1.9198574e+000
2.0567822e+000
2.2347167e+000
2.4951286e+000
2.8276711e+000
3.2586839e+000
3.7360759e+000
4.2703233e+000
4.7915072e+000
5.2743979e+000
5.6734433e+000
5.9173818e+000
6.0336595e+000
5.9445500e+000
5.7288251e+000
5.3425407e+000
4.9036293e+000
4.4106688e+000
3.9278429e+000
3.4708784e+000
3.0594299e+000
2.7076924e+000
2.4244263e+000
2.1739764e+000
1.8889101e+000
1.5469992e+000
1.1064517e+000
6.5464854e-001
2.8815496e-001
3.7899397e-002
-7.4056797e-003
4.5708068e-002
1.9744676e-001
3.9086819e-001
6.2566435e-001
8.8073778e-001
1.1706423e+000
1.4481025e+000
1.6924000e+000
1.8907652e+000
2.0036585e+000
2.1207850e+000
2.2528105e+000
2.4343629e+000
2.6926553e+000
2.9932432e+000
3.3472068e+000
3.7158883e+000
4.0922699e+000
4.4432197e+000
4.7583508e+000
5.0274839e+000
5.2480774e+000
5.4190888e+000
5.5427952e+000
5.6067553e+000
5.6334147e+000
5.6242285e+000
5.6060429e+000
5.5931873e+000
5.5839405e+000
5.5802960e+000
5.5750837e+000
5.5628457e+000
5.5517659e+000
5.5448766e+000
5.5492992e+000
5.5801864e+000
5.6304684e+000
5.7198386e+000
5.8243456e+000
5.9553256e+000
6.0972514e+000
6.2552752e+000
6.4231410e+000
6.5980802e+000
6.7604079e+000
6.9046836e+000
7.0243201e+000
7.1253338e+000
7.2276168e+000
7.3338823e+000
7.4520030e+000
7.5719500e+000
7.6770573e+000
7.7643595e+000
7.8097301e+000
7.8224750e+000
7.7659459e+000
7.6692185e+000
7.4836478e+000
7.2657461e+000
6.9716096e+000
6.6472774e+000
6.2403388e+000
5.7991815e+000
5.2794347e+000
4.7636070e+000
4.2621374e+000
3.8042278e+000
3.4183540e+000
3.0493608e+000
2.7001953e+000
2.3400736e+000
1.9731420e+000
1.6308823e+000
1.3252412e+000
1.0854499e+000
9.0483427e-001
7.7692807e-001
6.8393552e-001
6.1210400e-001
5.5565870e-001
5.2432841e-001
5.1103115e-001
5.3801042e-001
5.9317720e-001
7.2629160e-001
9.0016401e-001
1.1963054e+000
1.5106376e+000
1.8657737e+000
2.1883755e+000
2.4068370e+000
2.5670435e+000
2.5798810e+000
2.5329950e+000
2.3643017e+000
2.1509686e+000
1.8673469e+000
1.5798960e+000
1.2923586e+000
1.0318725e+000
8.0253077e-001
5.9135610e-001
3.9749306e-001
2.1660253e-001
5.3786907e-002
-5.8021486e-002
-1.2082947e-001
-5.9557114e-002
7.2382987e-002
3.2643428e-001
6.0791314e-001
8.5858095e-001
1.0769529e+000
1.1533440e+000
1.2072977e+000
1.2121156e+000
1.2297474e+000
1.3053817e+000
1.3928460e+000
1.5162231e+000
1.6294500e+000
1.7153367e+000
1.7757952e+000
1.7853258e+000
1.7740390e+000
1.7310714e+000
1.6856689e+000
1.6393839e+000
1.6072364e+000
1.5886669e+000
1.5694400e+000
1.5482566e+000
1.5156788e+000
1.4771315e+000
1.4435310e+000
1.4102443e+000
1.3625122e+000
1.3067691e+000
1.2279351e+000
1.1482660e+000
1.1005936e+000
1.0619839e+000
1.0603408e+000
1.0561632e+000
1.0240183e+000
9.8691684e-001
9.2870390e-001
8.7172538e-001
8.1840986e-001
7.6154619e-001
6.9665748e-001
6.3650244e-001
5.8534336e-001
5.3917110e-001
4.9880540e-001
4.4579500e-001
3.7818468e-001
3.0598575e-001
2.2940469e-001
1.4805815e-001
6.2905304e-002
-2.8613001e-002
-1.2136790e-001
-1.9174699e-001
-2.5053060e-001
-2.7628943e-001
-2.9202479e-001
-2.9508293e-001
-2.9849571e-001
-3.3065641e-001
-3.6818686e-001
-4.4084752e-001
-5.1329625e-001
-5.8244121e-001
-6.5071946e-001
-7.1450359e-001
-7.6538748e-001
-7.7477616e-001
-7.5423241e-001
-6.6516322e-001
-5.6857437e-001
-4.5922366e-001
-3.5642359e-001
-2.6249599e-001
-1.7354697e-001
-9.1512993e-002
-3.9336644e-002
-1.2725003e-002
-1.9210178e-002
-4.4545416e-002
-4.9524151e-002
-4.2780410e-002
1.3903387e-002
8.4975161e-002
1.2212326e-001
1.4831743e-001
9.2842415e-002
2.7769841e-002
-3.0879863e-002
-8.1780605e-002
-2.6655750e-002
2.0743534e-003
6.4947844e-002
2.0227927e-001
4.0776610e-001
6.1116856e-001
8.0767196e-001
9.6950698e-001
1.0557498e+000
1.0673354e+000
9.5866203e-001
8.0335760e-001
5.9303141e-001
4.6266261e-001
4.0866569e-001
5.0332153e-001
7.0279193e-001
9.1349220e-001
1.1293970e+000
1.2486106e+000
1.3311200e+000
1.3758011e+000
1.4107764e+000
1.4052657e+000
1.3931609e+000
1.2959000e+000
