Image.
>Pix99999.
  .
5555
5555
2300
900
5555
2
1
0
701
5555
4.1389000e-003
4.2249770e-003
4.3111532e-003
4.3972307e-003
4.4833072e-003
4.5694835e-003
4.6555609e-003
4.7417372e-003
4.8277159e-003
4.9138903e-003
4.9999687e-003
5.0859470e-003
5.1721204e-003
5.2582971e-003
5.3443760e-003
5.4305508e-003
5.5166297e-003
5.6027062e-003
5.6887832e-003
5.7748603e-003
5.8610342e-003
5.9471140e-003
6.0331910e-003
6.1193644e-003
6.2054442e-003
6.2915217e-003
2.3379944e-004
1.7410509e-002
4.0332999e-002
2.9517459e-002
1.3644028e-002
-2.1868318e-002
-5.8083449e-002
-7.8537062e-002
-9.9040747e-002
-1.2626949e-001
-1.5118405e-001
-1.6416669e-001
-1.6467814e-001
-1.2924984e-001
-9.6512429e-002
-7.4052773e-002
-7.7724800e-002
-1.2302580e-001
-1.7658508e-001
-2.3723637e-001
-2.8604376e-001
-3.2297876e-001
-3.5909978e-001
-3.9519021e-001
-4.2987645e-001
-4.6378940e-001
-4.8508903e-001
-5.0089872e-001
-4.9140176e-001
-4.7378606e-001
-4.3313122e-001
-3.8729119e-001
-3.5202616e-001
-3.1875998e-001
-3.1809029e-001
-3.2442442e-001
-3.7656042e-001
-4.3752590e-001
-5.2430445e-001
-6.0500604e-001
-6.5445513e-001
-6.8741447e-001
-6.8608826e-001
-6.7969763e-001
-6.7024797e-001
-6.6634065e-001
-6.7094427e-001
-6.8088812e-001
-6.9587719e-001
-7.0632356e-001
-7.1231854e-001
-7.0838100e-001
-6.9790351e-001
-6.8003494e-001
-6.5846974e-001
-6.4220935e-001
-6.2822658e-001
-6.3573283e-001
-6.5000159e-001
-6.7884880e-001
-7.1102697e-001
-7.5344509e-001
-7.9714125e-001
-8.3458656e-001
-8.6621076e-001
-8.6066347e-001
-8.4646332e-001
-8.1749249e-001
-7.9647726e-001
-8.0609828e-001
-8.4308648e-001
-9.3062490e-001
-1.0374554e+000
-1.1643143e+000
-1.2588143e+000
-1.3075255e+000
-1.3050570e+000
-1.2566075e+000
-1.2098451e+000
-1.1696100e+000
-1.1558931e+000
-1.1591593e+000
-1.1563634e+000
-1.1493679e+000
-1.1127157e+000
-1.0641128e+000
-1.0110921e+000
-9.5711654e-001
-9.4369203e-001
-9.4159329e-001
-9.9145049e-001
-1.0522876e+000
-1.1181226e+000
-1.1747180e+000
-1.1750515e+000
-1.1525215e+000
-1.0889963e+000
-1.0250646e+000
-9.8232943e-001
-9.5667106e-001
-9.5687681e-001
-9.6155268e-001
-9.6417773e-001
-9.6531415e-001
-9.6367228e-001
-9.6689343e-001
-9.7556841e-001
-9.9314451e-001
-1.0178305e+000
-1.0600899e+000
-1.1133949e+000
-1.1808826e+000
-1.2552354e+000
-1.3075267e+000
-1.3494400e+000
-1.3429062e+000
-1.3195106e+000
-1.2759875e+000
-1.2277360e+000
-1.1938558e+000
-1.1659149e+000
-1.1575140e+000
-1.1560115e+000
-1.1672924e+000
-1.1803786e+000
-1.1916487e+000
-1.2037075e+000
-1.2143705e+000
-1.2300160e+000
-1.2496049e+000
-1.2642806e+000
-1.2710786e+000
-1.2656186e+000
-1.2505615e+000
-1.2456971e+000
-1.2534080e+000
-1.2845446e+000
-1.3326311e+000
-1.3656571e+000
-1.3869271e+000
-1.3757851e+000
-1.3471434e+000
-1.3349121e+000
-1.3303657e+000
-1.3530985e+000
-1.3840516e+000
-1.3895634e+000
-1.3825006e+000
-1.3513948e+000
-1.3172750e+000
-1.3047583e+000
-1.3086047e+000
-1.3306088e+000
-1.3542464e+000
-1.3637143e+000
-1.3540269e+000
-1.3200080e+000
-1.2701080e+000
-1.2118977e+000
-1.1690257e+000
-1.1527649e+000
-1.1838915e+000
-1.2555652e+000
-1.3252150e+000
-1.3786000e+000
-1.3549612e+000
-1.2759309e+000
-1.1835068e+000
-1.0910525e+000
-1.0716321e+000
-1.0913520e+000
-1.1535738e+000
-1.2318108e+000
-1.2931780e+000
-1.3441285e+000
-1.3627198e+000
-1.3661363e+000
-1.3445060e+000
-1.3098205e+000
-1.2512143e+000
-1.1842995e+000
-1.1174424e+000
-1.0598565e+000
-1.0283283e+000
-1.0193200e+000
-1.0448458e+000
-1.0983378e+000
-1.1823450e+000
-1.2710863e+000
-1.3427436e+000
-1.3695760e+000
-1.3441030e+000
-1.2855788e+000
-1.2137078e+000
-1.1560458e+000
-1.1164184e+000
-1.0958400e+000
-1.0901053e+000
-1.0951440e+000
-1.1103536e+000
-1.1373591e+000
-1.1735501e+000
-1.1954051e+000
-1.2052829e+000
-1.1993057e+000
-1.1823030e+000
-1.1755320e+000
-1.1822383e+000
-1.2121954e+000
-1.2498128e+000
-1.2586532e+000
-1.2368587e+000
-1.1769019e+000
-1.0909090e+000
-9.9719113e-001
-8.9808810e-001
-8.0065918e-001
-7.3284268e-001
-6.9759178e-001
-7.0682353e-001
-7.5128615e-001
-7.8683746e-001
-8.1039882e-001
-7.9224217e-001
-7.4424785e-001
-7.2075647e-001
-7.1219122e-001
-7.2344303e-001
-7.3819792e-001
-6.8942541e-001
-5.9876937e-001
-4.9177021e-001
-3.7901899e-001
-3.0852291e-001
-2.7268973e-001
-2.9088503e-001
-3.3321846e-001
-3.3741102e-001
-3.0368507e-001
-2.0777628e-001
-7.9867102e-002
3.9391007e-002
3.1726222e-002
-6.2926002e-002
-1.6237542e-001
-2.6313108e-001
-3.5150635e-001
-4.3103749e-001
-5.0548244e-001
-5.7259965e-001
-6.4990580e-001
-7.2688228e-001
-8.0630636e-001
-8.9170480e-001
-9.5380402e-001
-1.0053054e+000
-9.5613700e-001
-8.3233279e-001
-6.6916674e-001
-4.7499406e-001
-3.1605831e-001
-1.6543239e-001
3.7123933e-002
3.5071254e-001
9.1147858e-001
1.6350187e+000
2.4890807e+000
3.4244196e+000
4.3607278e+000
5.4211349e+000
6.6940498e+000
8.4312820e+000
1.0771933e+001
1.3943306e+001
1.7977285e+001
2.2078260e+001
2.5877518e+001
2.9187965e+001
3.2032135e+001
3.5303856e+001
3.9121838e+001
4.3833588e+001
4.9287922e+001
5.4235401e+001
5.8681145e+001
6.3021458e+001
6.7349663e+001
7.2348351e+001
7.7794022e+001
8.2909599e+001
8.7587799e+001
9.1359344e+001
9.4291985e+001
9.6444153e+001
9.7857773e+001
9.8595169e+001
9.8676941e+001
9.8186447e+001
9.7266670e+001
9.6150963e+001
9.4964340e+001
9.3792824e+001
9.2325317e+001
9.0397530e+001
8.7628662e+001
8.3981033e+001
7.9929634e+001
7.5701302e+001
7.1463020e+001
6.7245964e+001
6.2711880e+001
5.7849926e+001
5.3000507e+001
4.8204147e+001
4.3690113e+001
3.9496769e+001
3.5832687e+001
3.2718288e+001
3.0116600e+001
2.7994371e+001
2.6168777e+001
2.4645838e+001
2.3389915e+001
2.2415754e+001
2.1698502e+001
2.1241501e+001
2.1012806e+001
2.0997169e+001
2.1155617e+001
2.1492392e+001
2.1985743e+001
2.2648729e+001
2.3467615e+001
2.4570566e+001
2.5998457e+001
2.7817636e+001
3.0044401e+001
3.2458939e+001
3.5011879e+001
3.7451843e+001
3.9736362e+001
4.1799557e+001
4.3665833e+001
4.5920288e+001
4.8560398e+001
5.1306961e+001
5.3970314e+001
5.5754230e+001
5.6673260e+001
5.7122036e+001
5.7048378e+001
5.6528244e+001
5.5460121e+001
5.3884094e+001
5.2041656e+001
5.0294678e+001
4.8703388e+001
4.7253452e+001
4.5844715e+001
4.4395649e+001
4.2749695e+001
4.0823982e+001
3.8539902e+001
3.5874104e+001
3.3298885e+001
3.0970634e+001
2.8831560e+001
2.6865400e+001
2.4461441e+001
2.1471500e+001
1.8511400e+001
1.5676344e+001
1.3355254e+001
1.1608380e+001
9.8975573e+000
8.2199039e+000
6.5566468e+000
4.9391017e+000
3.4532754e+000
2.1696422e+000
1.1558056e+000
4.6569034e-001
6.6936947e-002
-6.7433275e-002
2.7995244e-002
4.5082319e-001
1.2337923e+000
2.2263291e+000
3.3842309e+000
4.5341940e+000
5.5344510e+000
6.4343462e+000
7.2235403e+000
8.0186825e+000
8.8671598e+000
9.6889019e+000
1.0474197e+001
1.0997170e+001
1.1127400e+001
1.1042892e+001
1.0657038e+001
1.0176661e+001
9.5560608e+000
8.8348770e+000
7.9740114e+000
7.0367646e+000
6.0666165e+000
5.2440000e+000
4.6162462e+000
4.1668000e+000
3.8770154e+000
3.6613090e+000
3.5309594e+000
3.5188088e+000
3.6435170e+000
3.9495239e+000
4.3643570e+000
4.8227091e+000
5.2872057e+000
5.7268214e+000
6.1322732e+000
6.4973841e+000
6.7702117e+000
6.8910384e+000
6.8921142e+000
6.7031584e+000
6.4730711e+000
6.1959591e+000
5.9089909e+000
5.6096549e+000
5.2902622e+000
4.9428329e+000
4.5862570e+000
4.2058711e+000
3.7921515e+000
3.3254147e+000
2.8257740e+000
2.3085136e+000
1.8154137e+000
1.3566172e+000
9.2124385e-001
5.1288807e-001
1.5020639e-001
-1.3613012e-001
-2.8275973e-001
-2.9750240e-001
-1.3886240e-001
1.2686706e-001
5.2645838e-001
9.4625717e-001
1.3697320e+000
1.7704911e+000
2.1158330e+000
2.4245915e+000
2.6630685e+000
2.8205466e+000
2.8537569e+000
2.8190229e+000
2.6843081e+000
2.5445957e+000
2.3955081e+000
2.2859046e+000
2.2187142e+000
2.1833997e+000
2.1722398e+000
2.1525464e+000
2.1212256e+000
2.0532489e+000
1.9642534e+000
1.8591365e+000
1.7600366e+000
1.6993380e+000
1.6742880e+000
1.7119354e+000
1.7885144e+000
1.9244027e+000
2.1039429e+000
2.3679335e+000
2.6792440e+000
3.0853043e+000
3.4999967e+000
3.9216456e+000
4.2985468e+000
4.5742431e+000
4.8037543e+000
4.9445372e+000
5.0875936e+000
5.2375531e+000
5.4232025e+000
5.6658392e+000
5.9444451e+000
6.2767367e+000
6.6524940e+000
7.0838470e+000
7.5739284e+000
8.1296968e+000
8.7612381e+000
9.4587288e+000
1.0222137e+001
1.1014500e+001
1.1798135e+001
1.2539465e+001
1.3152268e+001
1.3652025e+001
1.3894600e+001
1.3988195e+001
1.3750960e+001
1.3377284e+001
1.2669123e+001
1.1865264e+001
1.0813189e+001
9.7340307e+000
8.6032047e+000
7.5484457e+000
6.6638541e+000
5.9296737e+000
5.4602995e+000
5.1426878e+000
5.0401378e+000
5.0202003e+000
5.0767016e+000
5.0701175e+000
4.9686298e+000
4.6924043e+000
4.2660503e+000
3.7314882e+000
3.1450703e+000
2.5984001e+000
2.0943525e+000
1.6946650e+000
1.3560159e+000
1.1276972e+000
9.5340610e-001
8.9528191e-001
8.7239200e-001
9.2696989e-001
9.8906386e-001
1.0646156e+000
1.1420531e+000
1.2275944e+000
1.3177683e+000
1.4160550e+000
1.4889314e+000
1.5027975e+000
1.4517486e+000
1.2923174e+000
1.0929029e+000
8.4669554e-001
6.2630558e-001
4.3915284e-001
2.8925771e-001
1.7499915e-001
8.5027978e-002
1.6559495e-002
-2.3787541e-002
-4.8520356e-002
-1.6950635e-002
3.8245115e-002
1.0338090e-001
1.7424744e-001
2.5969285e-001
3.4928036e-001
4.4752601e-001
5.4203653e-001
6.1277914e-001
6.8000281e-001
7.3348039e-001
7.7863556e-001
7.9654849e-001
8.0156654e-001
7.7728540e-001
7.6643652e-001
7.8778291e-001
8.6027002e-001
1.0170085e+000
1.2259251e+000
1.4999800e+000
1.7888840e+000
2.0916839e+000
2.3911479e+000
2.6839139e+000
2.9475226e+000
3.1747160e+000
3.2692630e+000
3.2832913e+000
3.1480184e+000
2.9667320e+000
2.8023272e+000
2.6554818e+000
2.6075377e+000
2.5754881e+000
2.5654380e+000
2.5510013e+000
2.5012250e+000
2.4454856e+000
2.3647568e+000
2.2924187e+000
2.2471180e+000
2.2147806e+000
2.2126322e+000
2.1994748e+000
2.1657133e+000
2.1175747e+000
2.0515430e+000
2.0074298e+000
1.9911392e+000
2.0089047e+000
2.0523510e+000
2.0563033e+000
2.0192380e+000
1.8401685e+000
1.5780709e+000
1.2168183e+000
8.2735747e-001
5.3916687e-001
2.9355067e-001
2.1735854e-001
1.7066821e-001
1.3453880e-001
8.8945247e-002
-7.7253684e-002
-2.5669998e-001
-5.1874816e-001
-7.7308053e-001
-9.9184430e-001
-1.1805990e+000
-1.2748389e+000
-1.3475711e+000
-1.3714569e+000
-1.4037471e+000
-1.4515069e+000
-1.5062745e+000
-1.5681460e+000
-1.5842725e+000
-1.5503972e+000
-1.4694922e+000
-1.3508174e+000
-1.2277665e+000
-1.1012797e+000
-9.5280552e-001
-7.9325575e-001
-6.0812330e-001
-4.1577250e-001
-2.5271297e-001
-1.0004777e-001
-4.6686165e-002
-8.4065050e-003
-4.7358915e-002
-8.2890376e-002
-2.7320143e-002
6.1350912e-003
1.8502612e-001
3.7093282e-001
5.8561879e-001
7.9370058e-001
9.8157036e-001
1.1493143e+000
1.2731837e+000
1.3573754e+000
1.3775178e+000
1.3682899e+000
1.3227751e+000
1.2729812e+000
1.2199212e+000
1.1961600e+000
1.1938796e+000
1.2313595e+000
1.2893790e+000
1.3872573e+000
1.4992243e+000
1.6704617e+000
1.8559128e+000
2.0219653e+000
2.1844647e+000
2.2995999e+000
