Image.
>Pix99999.
  .
5555
5555
2300
900
5555
2
1
0
701
5555
-3.6683001e-003
-3.7446909e-003
-3.8210815e-003
-3.8972732e-003
-3.9735632e-003
-4.0499540e-003
-4.1262452e-003
-4.2025358e-003
-4.2789257e-003
-4.3551191e-003
-4.4315071e-003
-4.5077996e-003
-4.5840903e-003
-4.6604793e-003
-4.7367723e-003
-4.8130630e-003
-4.8893536e-003
-4.9657421e-003
-5.0420356e-003
-5.1183263e-003
-5.1946170e-003
-5.2709081e-003
-5.3471993e-003
-5.4235863e-003
-5.4998808e-003
-5.5762678e-003
-2.0722000e-004
2.2883922e-002
2.4332879e-002
4.5660209e-002
7.0103742e-002
6.5567024e-002
5.7834033e-002
2.5399970e-002
-7.7838479e-003
-3.7307996e-002
-6.6540740e-002
-9.5122918e-002
-1.1641456e-001
-1.1552923e-001
-1.0069012e-001
-5.8118135e-002
-1.9191179e-002
1.1093674e-002
2.6182696e-002
2.2976378e-002
1.8657951e-002
1.4360849e-002
1.0203311e-002
6.1309822e-003
-5.5479500e-003
-2.1594867e-002
-3.6890257e-002
-5.1713444e-002
-5.5563889e-002
-5.5862948e-002
-5.0818201e-002
-4.4607617e-002
-6.1870232e-002
-8.2844272e-002
-1.1938174e-001
-1.5511945e-001
-1.6558434e-001
-1.7002189e-001
-1.5355417e-001
-1.3520485e-001
-1.1727866e-001
-1.0397898e-001
-1.0245206e-001
-1.0399750e-001
-1.0919200e-001
-1.0925578e-001
-1.0133205e-001
-9.6810423e-002
-9.7045407e-002
-1.0401318e-001
-1.1647315e-001
-1.1592310e-001
-1.0587017e-001
-9.0607174e-002
-7.3055401e-002
-7.8125350e-002
-9.2930868e-002
-1.2049914e-001
-1.5189120e-001
-1.8179357e-001
-2.1124063e-001
-2.3729581e-001
-2.6092955e-001
-2.4909253e-001
-2.2780342e-001
-1.7418940e-001
-1.2151246e-001
-9.4096221e-002
-8.2172178e-002
-1.0580541e-001
-1.3633189e-001
-1.7035682e-001
-2.0069200e-001
-2.2387594e-001
-2.3493856e-001
-2.3139098e-001
-2.1732002e-001
-1.9456583e-001
-1.8925902e-001
-1.9965149e-001
-2.2289005e-001
-2.5327486e-001
-2.6382086e-001
-2.6328275e-001
-2.6190272e-001
-2.6066506e-001
-2.7866441e-001
-3.0279240e-001
-3.1890857e-001
-3.3262736e-001
-3.4683201e-001
-3.6311039e-001
-4.0382978e-001
-4.4921860e-001
-4.9389428e-001
-5.3202850e-001
-5.4600483e-001
-5.5262989e-001
-5.5127257e-001
-5.5404389e-001
-5.6721580e-001
-5.8242500e-001
-5.9882814e-001
-6.1690545e-001
-6.3811660e-001
-6.7269462e-001
-7.1944755e-001
-7.6605344e-001
-8.1004947e-001
-8.2554132e-001
-8.2248020e-001
-7.8778327e-001
-7.3771888e-001
-6.9598192e-001
-6.5915000e-001
-6.6157669e-001
-6.7796999e-001
-7.1575165e-001
-7.5971889e-001
-8.0825877e-001
-8.5650897e-001
-8.9170313e-001
-9.1657656e-001
-9.0718699e-001
-8.8290930e-001
-8.3722377e-001
-7.8918433e-001
-7.5159347e-001
-7.2409904e-001
-7.1482515e-001
-7.2018361e-001
-7.3975283e-001
-7.7633923e-001
-8.2637870e-001
-8.7088257e-001
-9.0635890e-001
-9.0777773e-001
-8.8363284e-001
-8.5328835e-001
-8.2217079e-001
-8.3098018e-001
-8.6222601e-001
-9.1189039e-001
-9.6882540e-001
-1.0046766e+000
-1.0327089e+000
-1.0432714e+000
-1.0503722e+000
-1.0596640e+000
-1.0702749e+000
-1.0870731e+000
-1.0997196e+000
-1.1059794e+000
-1.1081675e+000
-1.1082029e+000
-1.1144763e+000
-1.1292800e+000
-1.1548970e+000
-1.1884949e+000
-1.2156043e+000
-1.2280211e+000
-1.2041103e+000
-1.1480812e+000
-1.0815060e+000
-1.0176643e+000
-9.7940928e-001
-9.5979404e-001
-9.6024549e-001
-9.6974504e-001
-1.0111465e+000
-1.0701360e+000
-1.1344383e+000
-1.2018092e+000
-1.2132987e+000
-1.2006285e+000
-1.1473278e+000
-1.0804458e+000
-1.0361950e+000
-1.0081857e+000
-1.0212657e+000
-1.0500951e+000
-1.0820527e+000
-1.1092606e+000
-1.1187043e+000
-1.1137199e+000
-1.0847242e+000
-1.0287526e+000
-9.3897980e-001
-8.4291023e-001
-7.6273918e-001
-7.3966342e-001
-7.8159553e-001
-8.5964519e-001
-9.5115632e-001
-1.0216869e+000
-1.0691715e+000
-1.0865654e+000
-1.0826397e+000
-1.0620160e+000
-1.0284928e+000
-1.0052578e+000
-9.8436934e-001
-9.7751313e-001
-9.7840905e-001
-9.6109170e-001
-9.3358940e-001
-8.6892563e-001
-7.7821481e-001
-6.6217750e-001
-5.4486179e-001
-4.7456312e-001
-4.5487851e-001
-5.0008357e-001
-5.7580906e-001
-6.4951283e-001
-7.0733994e-001
-7.3827249e-001
-7.4002963e-001
-7.1993363e-001
-6.7352003e-001
-6.0751629e-001
-5.6281686e-001
-5.3792763e-001
-5.4475731e-001
-5.7209855e-001
-5.4045367e-001
-4.7018442e-001
-3.5045484e-001
-2.0981729e-001
-1.2243914e-001
-7.2945058e-002
-5.9031136e-002
-6.5123700e-002
-5.3786360e-002
-2.6940743e-002
2.8471515e-002
9.5727861e-002
1.2860908e-001
1.3569313e-001
1.0658920e-001
6.9231980e-002
6.3169420e-002
2.5487183e-002
-7.7241361e-002
-1.7643571e-001
-2.3410420e-001
-2.1803269e-001
-1.2312623e-001
-8.1259832e-003
9.7943179e-002
1.2079286e-001
5.5480987e-002
-3.1390004e-002
-1.1740669e-001
-9.4234794e-002
2.0313699e-002
1.5906680e-001
2.9906842e-001
2.8878441e-001
1.6909422e-001
4.6708457e-002
-5.2372016e-002
1.9750945e-002
2.6824901e-001
7.5177747e-001
1.3718190e+000
1.9594235e+000
2.5123250e+000
3.0496440e+000
3.7345266e+000
4.7354531e+000
6.3142843e+000
8.5950432e+000
1.1754278e+001
1.5723143e+001
1.9728100e+001
2.3422426e+001
2.6723934e+001
2.9711018e+001
3.3300343e+001
3.7577015e+001
4.2739143e+001
4.8588161e+001
5.3696815e+001
5.8100258e+001
6.2268749e+001
6.6346199e+001
7.1087837e+001
7.6321831e+001
8.1474899e+001
8.6442184e+001
9.0886383e+001
9.4813896e+001
9.8213402e+001
1.0106263e+002
1.0335744e+002
1.0487480e+002
1.0537923e+002
1.0455354e+002
1.0218393e+002
9.8965637e+001
9.5557732e+001
9.1992668e+001
8.8331238e+001
8.4117531e+001
7.9216988e+001
7.4227478e+001
6.9359169e+001
6.4846634e+001
6.0703922e+001
5.6570763e+001
5.2392853e+001
4.8366764e+001
4.4498920e+001
4.0838684e+001
3.7401798e+001
3.4320137e+001
3.1612619e+001
2.9314045e+001
2.7412914e+001
2.5799471e+001
2.4492292e+001
2.3475143e+001
2.2749100e+001
2.2271000e+001
2.2011774e+001
2.1899593e+001
2.1912247e+001
2.2007246e+001
2.2186863e+001
2.2448954e+001
2.2780321e+001
2.3173201e+001
2.3666159e+001
2.4268885e+001
2.5031404e+001
2.5952232e+001
2.6995680e+001
2.8146839e+001
2.9341471e+001
3.0578180e+001
3.2022346e+001
3.3771736e+001
3.6419479e+001
4.0023670e+001
4.3874020e+001
4.7732258e+001
5.0665554e+001
5.2708691e+001
5.4449570e+001
5.5911221e+001
5.7234940e+001
5.8256058e+001
5.8698643e+001
5.8471771e+001
5.7574684e+001
5.6203838e+001
5.4668976e+001
5.3002098e+001
5.1233250e+001
4.9301754e+001
4.7155495e+001
4.4854805e+001
4.2386734e+001
4.0040157e+001
3.7926559e+001
3.5887520e+001
3.3932980e+001
3.1497660e+001
2.8431664e+001
2.5316063e+001
2.2190487e+001
1.9549549e+001
1.7447140e+001
1.5382857e+001
1.3351076e+001
1.1272486e+001
9.1624308e+000
7.0649490e+000
5.0604696e+000
3.2921081e+000
1.8447616e+000
8.1373495e-001
2.1298631e-001
4.7124900e-002
4.0984961e-001
1.2374328e+000
2.2429638e+000
3.2376614e+000
4.0663772e+000
4.6365061e+000
5.1184287e+000
5.5779982e+000
6.0787668e+000
6.6432400e+000
7.1287026e+000
7.4558325e+000
7.6288991e+000
7.5717807e+000
7.4350753e+000
7.1894803e+000
6.9008851e+000
6.5610418e+000
6.1893754e+000
5.7758698e+000
5.2846317e+000
4.7250843e+000
4.1608186e+000
3.6246819e+000
3.2117558e+000
2.9366806e+000
2.8035967e+000
2.8096914e+000
2.9231181e+000
3.1141057e+000
3.3487821e+000
3.5900633e+000
3.8365476e+000
4.0875201e+000
4.3532171e+000
4.6413431e+000
4.9526634e+000
5.2883639e+000
5.6557684e+000
6.0273499e+000
6.3912230e+000
6.6990485e+000
6.8837805e+000
6.9536247e+000
6.8329148e+000
6.5878549e+000
6.1734867e+000
5.6963525e+000
5.1535640e+000
4.6061316e+000
4.0769420e+000
3.5872922e+000
3.1488934e+000
2.7711902e+000
2.4177763e+000
2.0389616e+000
1.6312449e+000
1.1763301e+000
7.4038982e-001
4.0225345e-001
1.5312068e-001
4.5860194e-002
1.2774911e-002
5.6157388e-002
1.3559407e-001
2.7596280e-001
4.5781416e-001
7.1938640e-001
9.8825729e-001
1.2568885e+000
1.4923984e+000
1.6435980e+000
1.7823761e+000
1.9047674e+000
2.0565422e+000
2.2671640e+000
2.5198982e+000
2.8348069e+000
3.1725774e+000
3.5283201e+000
3.8582282e+000
4.1418710e+000
4.3614645e+000
4.5139837e+000
4.6150031e+000
4.6757588e+000
4.7041621e+000
4.7079988e+000
4.6737227e+000
4.6222429e+000
4.5501080e+000
4.4808950e+000
4.4288940e+000
4.3864241e+000
4.3607368e+000
4.3367386e+000
4.3108521e+000
4.2875533e+000
4.2693157e+000
4.2573314e+000
4.2617197e+000
4.2724380e+000
4.2988629e+000
4.3386674e+000
4.4001050e+000
4.4886603e+000
4.6089883e+000
4.7501297e+000
4.9087715e+000
5.0609512e+000
5.2024946e+000
5.3238664e+000
5.4296536e+000
5.5258579e+000
5.6166000e+000
5.7007570e+000
5.7749109e+000
5.8208127e+000
5.8402882e+000
5.7993011e+000
5.7205539e+000
5.5570998e+000
5.3556452e+000
5.0590324e+000
4.7266440e+000
4.2981701e+000
3.8417087e+000
3.3195314e+000
2.7945549e+000
2.2679515e+000
1.7676641e+000
1.3182632e+000
9.1748714e-001
5.9053874e-001
3.1606814e-001
1.0449788e-001
-7.4203573e-002
-2.1882406e-001
-3.4135789e-001
-4.4309929e-001
-5.2481937e-001
-5.9200966e-001
-6.4597100e-001
-6.8601191e-001
-6.9295627e-001
-6.6971588e-001
-5.6734163e-001
-4.2109323e-001
-1.6763794e-001
1.1750320e-001
4.7240075e-001
8.2275927e-001
1.1367712e+000
1.4166914e+000
1.5888894e+000
1.7220955e+000
1.7579250e+000
1.7607480e+000
1.6961051e+000
1.6011100e+000
1.4557116e+000
1.2888440e+000
1.0938239e+000
8.9068317e-001
6.8054354e-001
4.7766545e-001
2.8813258e-001
1.4065665e-001
3.5746880e-002
1.0854900e-002
4.1506700e-002
1.4879191e-001
2.9157814e-001
4.6772355e-001
6.5016288e-001
8.1907105e-001
9.7621626e-001
1.0834640e+000
1.1787165e+000
1.2344257e+000
1.2965946e+000
1.3892509e+000
1.4943726e+000
1.6372489e+000
1.7672050e+000
1.8616931e+000
1.9214877e+000
1.9131691e+000
1.8882002e+000
1.8408428e+000
1.8119665e+000
1.8107520e+000
1.8484789e+000
1.9283051e+000
2.0440614e+000
2.1853497e+000
2.3132226e+000
2.4212565e+000
2.4416690e+000
2.4113600e+000
2.2983491e+000
2.1564023e+000
2.0018878e+000
1.8461437e+000
1.7036786e+000
1.5680400e+000
1.4706780e+000
1.3870981e+000
1.3799645e+000
1.3824401e+000
1.4262286e+000
1.4669657e+000
1.4980620e+000
1.5193937e+000
1.5162857e+000
1.5002080e+000
1.4584563e+000
1.4042222e+000
1.3332591e+000
1.2788401e+000
1.2477068e+000
1.2611778e+000
1.3141813e+000
1.3649671e+000
1.4095680e+000
1.4044474e+000
1.3713570e+000
1.3179351e+000
1.2553211e+000
1.1819515e+000
1.1031573e+000
9.9679381e-001
8.8590926e-001
7.7578801e-001
6.6697705e-001
5.7201374e-001
4.7712791e-001
3.8179806e-001
2.8994459e-001
2.1359786e-001
1.4300479e-001
8.9552641e-002
3.5667736e-002
-1.9483056e-002
-7.5783670e-002
-1.3258532e-001
-1.7594756e-001
-1.9916581e-001
-1.9271633e-001
-1.5574743e-001
-1.1443729e-001
-7.2517596e-002
-8.0216110e-002
-1.1885417e-001
-1.8282850e-001
-2.5466460e-001
-2.5841898e-001
-2.3785155e-001
-1.5934165e-001
-7.0613429e-002
-2.4013881e-002
1.5266620e-002
2.8146375e-003
-1.0354063e-002
-3.4115466e-003
4.0028617e-004
1.3206273e-002
6.2583178e-002
1.9944140e-001
3.3994457e-001
4.9090829e-001
6.2179029e-001
7.0966494e-001
7.8548783e-001
8.4200495e-001
8.9003140e-001
9.2732751e-001
9.2603010e-001
8.8810515e-001
8.0921531e-001
7.0154804e-001
6.1767340e-001
5.4804081e-001
5.6239223e-001
6.1063129e-001
6.8915153e-001
7.7636218e-001
7.6517391e-001
7.3833251e-001
5.5137002e-001
