Image.
>Pix99999.
  .
5555
5555
2300
900
5555
2
1
0
701
5555
1.5186000e-002
1.5501549e-002
1.5818095e-002
1.6133646e-002
1.6449194e-002
1.6765734e-002
1.7081292e-002
1.7397830e-002
1.7713388e-002
1.8028937e-002
1.8345471e-002
1.8661033e-002
1.8977566e-002
1.9293131e-002
1.9608680e-002
1.9925207e-002
2.0240776e-002
2.0556325e-002
2.0872850e-002
2.1188423e-002
2.1503972e-002
2.1820489e-002
2.2136068e-002
2.2452584e-002
2.2768166e-002
2.3083715e-002
8.5781433e-004
9.9834744e-003
5.7170559e-003
3.0746832e-002
6.0199056e-002
1.0163863e-001
1.4314103e-001
1.6696525e-001
1.8902899e-001
2.0382750e-001
2.1614154e-001
2.1885371e-001
2.0895489e-001
1.6226108e-001
1.0962515e-001
4.8556224e-002
6.9793402e-003
-1.9895032e-003
9.0117881e-004
1.6072024e-002
1.5932078e-002
2.6914006e-004
-1.4656723e-002
-2.8275430e-002
-2.4968358e-002
-1.1941925e-002
-1.3892400e-002
-2.2689736e-002
-3.9248455e-002
-5.8184344e-002
-4.7905400e-002
-3.0875811e-002
-5.3063356e-003
2.1446405e-002
4.5068458e-002
6.8748616e-002
9.6461952e-002
1.1964376e-001
1.1467583e-001
1.0140608e-001
6.7882001e-002
4.6698008e-002
6.2271353e-002
9.9449940e-002
1.7050400e-001
2.3998940e-001
3.0214635e-001
3.4978035e-001
3.8193727e-001
3.9510748e-001
3.9294824e-001
3.7806860e-001
3.5547853e-001
3.4853187e-001
3.5053086e-001
3.6799747e-001
3.9157867e-001
4.1083103e-001
4.2851919e-001
4.4435328e-001
4.5980185e-001
4.8091316e-001
5.0297046e-001
5.2546781e-001
5.4466188e-001
5.3850049e-001
5.2102983e-001
4.6962979e-001
4.1298342e-001
3.5550800e-001
3.0567610e-001
2.7303654e-001
2.5497103e-001
2.5711447e-001
2.7673143e-001
3.1537503e-001
3.5190925e-001
3.8339654e-001
3.9555880e-001
3.9229149e-001
3.7160644e-001
3.4081590e-001
3.0621544e-001
2.7035505e-001
2.5763470e-001
2.5460190e-001
2.6388121e-001
2.7684623e-001
2.8678381e-001
2.9608884e-001
3.0931669e-001
3.2211733e-001
3.2121024e-001
3.1607649e-001
3.0253914e-001
2.9236990e-001
3.0062425e-001
3.1939179e-001
3.5628393e-001
3.9516714e-001
4.3121922e-001
4.5346755e-001
4.5528033e-001
4.3445006e-001
3.9059773e-001
3.4685159e-001
3.0738902e-001
2.9018182e-001
2.9014826e-001
2.8611350e-001
2.7788138e-001
2.7702057e-001
2.8042537e-001
3.1028584e-001
3.5088202e-001
3.5770473e-001
3.5248932e-001
3.2125360e-001
2.8466976e-001
2.7247250e-001
2.6767066e-001
2.7186498e-001
2.7780372e-001
2.8261149e-001
2.8368998e-001
2.7513206e-001
2.5938314e-001
2.3165670e-001
2.0846641e-001
1.9676614e-001
1.9631429e-001
2.0778289e-001
2.2082666e-001
2.3322161e-001
2.4953544e-001
2.6996410e-001
3.0458298e-001
3.4970081e-001
3.8447076e-001
4.1139978e-001
3.9104989e-001
3.4600207e-001
2.9466638e-001
2.4182744e-001
2.2607230e-001
2.2381505e-001
2.2934885e-001
2.3545329e-001
2.2992940e-001
2.1988750e-001
2.0452937e-001
1.9085589e-001
1.8444359e-001
1.8252872e-001
1.8548885e-001
1.8496402e-001
1.7611679e-001
1.5761876e-001
1.2916012e-001
1.0255477e-001
8.2992747e-002
8.7764323e-002
1.1591793e-001
1.5545291e-001
1.9850028e-001
2.2838041e-001
2.4779919e-001
2.5773692e-001
2.6335764e-001
2.5322434e-001
2.3455000e-001
2.0948204e-001
1.8141295e-001
1.7909287e-001
1.8902001e-001
2.3068123e-001
2.8225675e-001
3.1504601e-001
3.2376668e-001
2.5756693e-001
1.5846232e-001
4.3553546e-002
-5.6492373e-002
-1.0737456e-001
-1.2916400e-001
-1.2595083e-001
-1.0773908e-001
-7.7749111e-002
-4.2621586e-002
-8.9609344e-003
5.9751357e-004
-1.7800229e-002
-5.3677376e-002
-9.7558394e-002
-1.4887914e-001
-2.0318779e-001
-2.5810373e-001
-3.1175980e-001
-3.4262040e-001
-3.5877144e-001
-3.6270735e-001
-3.6014959e-001
-3.6519599e-001
-3.7272197e-001
-3.6043042e-001
-3.3081800e-001
-2.4989103e-001
-1.4105703e-001
-1.7044445e-002
8.9433253e-002
1.2449091e-001
9.8598428e-002
6.2178597e-003
-1.1144887e-001
-2.2458486e-001
-3.0851787e-001
-3.5116825e-001
-3.5330588e-001
-3.2369053e-001
-2.7117300e-001
-2.0501214e-001
-1.5185747e-001
-1.1254164e-001
-9.5617235e-002
-9.3757361e-002
-4.7737088e-002
2.9698081e-002
1.4435640e-001
2.7766195e-001
3.6287686e-001
4.1585481e-001
4.3083689e-001
4.2514825e-001
4.2762569e-001
4.4110230e-001
4.8356086e-001
5.3049028e-001
5.3705490e-001
4.9764517e-001
3.8944286e-001
2.5866479e-001
1.5010844e-001
4.3052286e-002
-7.4870855e-002
-1.5292858e-001
-1.6829161e-001
-1.0215324e-001
3.8793512e-002
1.6585329e-001
2.5196251e-001
2.2187474e-001
8.7842852e-002
-2.3966145e-002
-9.7322002e-002
-1.7845593e-002
1.7695013e-001
3.2823342e-001
4.3202853e-001
3.3711943e-001
1.1515804e-001
-5.1966675e-002
-1.3783480e-001
7.5376034e-003
3.3749726e-001
8.9584100e-001
1.5453290e+000
2.0474327e+000
2.4440103e+000
2.7868760e+000
3.2704248e+000
4.0782142e+000
5.4578996e+000
7.5271349e+000
1.0455305e+001
1.4194285e+001
1.8032280e+001
2.1635468e+001
2.4893055e+001
2.7849915e+001
3.1358192e+001
3.5498585e+001
4.0404259e+001
4.5904240e+001
5.0673161e+001
5.4758427e+001
5.8683163e+001
6.2569775e+001
6.7130753e+001
7.2181404e+001
7.7109848e+001
8.1832535e+001
8.6048012e+001
8.9786942e+001
9.3083549e+001
9.5908081e+001
9.8221931e+001
9.9911858e+001
1.0086698e+002
1.0089902e+002
9.9902855e+001
9.8178688e+001
9.6061485e+001
9.3477776e+001
9.0457779e+001
8.6704239e+001
8.2188866e+001
7.7595955e+001
7.3167145e+001
6.9051590e+001
6.5242302e+001
6.1222717e+001
5.6943031e+001
5.2624565e+001
4.8303726e+001
4.4251457e+001
4.0494812e+001
3.7195141e+001
3.4361401e+001
3.1954222e+001
2.9955200e+001
2.8231279e+001
2.6794701e+001
2.5621143e+001
2.4710321e+001
2.4020000e+001
2.3538080e+001
2.3217173e+001
2.3036045e+001
2.2953711e+001
2.2957672e+001
2.3030636e+001
2.3180000e+001
2.3406097e+001
2.3761059e+001
2.4260284e+001
2.4912838e+001
2.5710358e+001
2.6588099e+001
2.7528080e+001
2.8517237e+001
2.9560478e+001
3.0853065e+001
3.2492516e+001
3.5032410e+001
3.8520271e+001
4.2263603e+001
4.6050953e+001
4.8993393e+001
5.1125797e+001
5.2959965e+001
5.4510807e+001
5.5906548e+001
5.6989021e+001
5.7543262e+001
5.7466515e+001
5.6732994e+001
5.5578682e+001
5.4311588e+001
5.2987892e+001
5.1654701e+001
5.0155289e+001
4.8387680e+001
4.6336399e+001
4.3967499e+001
4.1709656e+001
3.9715477e+001
3.7843719e+001
3.6092567e+001
3.3793827e+001
3.0768559e+001
2.7609303e+001
2.4353081e+001
2.1586914e+001
1.9364830e+001
1.7176428e+001
1.5007421e+001
1.2772135e+001
1.0481386e+001
8.1977015e+000
5.9981499e+000
4.0202799e+000
2.3665774e+000
1.1381656e+000
3.6209184e-001
6.6493526e-002
3.4885192e-001
1.1504946e+000
2.1472099e+000
3.1429801e+000
3.9819694e+000
4.5516458e+000
5.0251217e+000
5.4613791e+000
5.9245067e+000
6.4394002e+000
6.8703465e+000
7.1517873e+000
7.2815204e+000
7.1917839e+000
7.0514250e+000
6.8445044e+000
6.6336422e+000
6.4100103e+000
6.1379142e+000
5.7835417e+000
5.2960863e+000
4.6798058e+000
4.0441065e+000
3.4343300e+000
2.9546628e+000
2.6132441e+000
2.3944230e+000
2.2929738e+000
2.2887549e+000
2.3665199e+000
2.5150471e+000
2.7019792e+000
2.9180439e+000
3.1574507e+000
3.4278913e+000
3.7360489e+000
4.0985489e+000
4.5015001e+000
4.9620399e+000
5.4226003e+000
5.8687968e+000
6.2454953e+000
6.4923339e+000
6.6397815e+000
6.6221552e+000
6.4801955e+000
6.1611242e+000
5.7475114e+000
5.2292190e+000
4.7025628e+000
4.1904535e+000
3.7424860e+000
3.3667755e+000
3.0519845e+000
2.7539806e+000
2.3925881e+000
1.9615049e+000
1.4408731e+000
9.1897690e-001
4.9637157e-001
1.8469755e-001
5.4360915e-002
2.7542233e-002
1.2528527e-001
2.7978891e-001
5.0008678e-001
7.4366462e-001
1.0235128e+000
1.3014377e+000
1.5687943e+000
1.8117188e+000
2.0024371e+000
2.1805210e+000
2.3433125e+000
2.5312378e+000
2.7667470e+000
3.0523787e+000
3.4060924e+000
3.7962387e+000
4.2195702e+000
4.6337214e+000
5.0193038e+000
5.3416972e+000
5.5912895e+000
5.7534199e+000
5.8523769e+000
5.9057207e+000
5.9426489e+000
5.9858375e+000
6.0290713e+000
6.0648360e+000
6.0874786e+000
6.0783286e+000
6.0645838e+000
6.0501280e+000
6.0477490e+000
6.0759716e+000
6.1137457e+000
6.1730900e+000
6.2418499e+000
6.3306561e+000
6.4292316e+000
6.5457911e+000
6.6719217e+000
6.8138618e+000
6.9733934e+000
7.1543097e+000
7.3468099e+000
7.5481315e+000
7.7420716e+000
7.9264154e+000
8.0963650e+000
8.2526083e+000
8.3926144e+000
8.5185003e+000
8.6224880e+000
8.7112341e+000
8.7758017e+000
8.8201084e+000
8.8203812e+000
8.7870703e+000
8.6713915e+000
8.5164022e+000
8.2603226e+000
7.9619155e+000
7.5482473e+000
7.0944571e+000
6.5481706e+000
6.0035024e+000
5.4687171e+000
4.9783640e+000
4.5654292e+000
4.1913762e+000
3.8709137e+000
3.5647538e+000
3.2738681e+000
2.9839234e+000
2.6968348e+000
2.4187257e+000
2.1554072e+000
1.9279535e+000
1.7324150e+000
1.5856240e+000
1.4700271e+000
1.3950986e+000
1.3442897e+000
1.3380762e+000
1.3666600e+000
1.4959446e+000
1.6738200e+000
1.9930513e+000
2.3242509e+000
2.6665704e+000
2.9579308e+000
3.0893729e+000
3.1581795e+000
3.0722311e+000
2.9518559e+000
2.7627339e+000
2.5568585e+000
2.3222737e+000
2.0715544e+000
1.7980473e+000
1.5105860e+000
1.2085482e+000
9.0551889e-001
6.0585272e-001
3.2983232e-001
8.4268868e-002
-8.0581494e-002
-1.7892180e-001
-1.6364968e-001
-8.9103885e-002
6.8746164e-002
2.4489135e-001
3.9801294e-001
5.3626752e-001
6.1740637e-001
6.9249576e-001
7.6300842e-001
8.3109683e-001
8.8860023e-001
9.3561059e-001
9.4874996e-001
9.5170003e-001
9.2835629e-001
8.9157802e-001
8.2842201e-001
7.5917923e-001
6.8336427e-001
6.2700284e-001
5.9671980e-001
5.8579314e-001
5.9284329e-001
5.9606159e-001
5.9741592e-001
6.0568941e-001
6.1857158e-001
6.3436210e-001
6.4512140e-001
6.1050135e-001
5.5574709e-001
4.6309978e-001
3.6286107e-001
2.6869279e-001
1.7728840e-001
1.0068588e-001
3.0688174e-002
-1.3187528e-003
-2.5601972e-002
-1.7671525e-002
-2.7123265e-002
-9.3701825e-002
-1.8853681e-001
-3.4950000e-001
-4.9917626e-001
-6.2641340e-001
-7.3367441e-001
-8.1252778e-001
-8.9214003e-001
-9.7189516e-001
-1.0452863e+000
-1.1139562e+000
-1.1924237e+000
-1.2779129e+000
-1.3686577e+000
-1.4596850e+000
-1.5251245e+000
-1.5829282e+000
-1.6652286e+000
-1.7557619e+000
-1.8645883e+000
-1.9703721e+000
-2.0063081e+000
-2.0335286e+000
-2.0276067e+000
-2.0239980e+000
-2.0382841e+000
-2.0488555e+000
-2.0424786e+000
-2.0312588e+000
-2.0047290e+000
-1.9738539e+000
-1.9313235e+000
-1.8615850e+000
-1.7438023e+000
-1.6088820e+000
-1.4533080e+000
-1.3378365e+000
-1.2647971e+000
-1.2151617e+000
-1.1823940e+000
-1.1205926e+000
-1.0419641e+000
-9.7951150e-001
-9.2760503e-001
-9.4297373e-001
-9.7871166e-001
-9.8479247e-001
-9.7788727e-001
-8.1999576e-001
-6.4169282e-001
-4.0963882e-001
-1.8263286e-001
-6.0194571e-002
9.2135929e-004
2.5005333e-002
-3.0628182e-002
-5.1455639e-002
-6.8160824e-002
-7.3403537e-002
-1.0538883e-001
-1.9466388e-001
-3.0028349e-001
-4.3099892e-001
-5.1793599e-001
-5.5038458e-001
-5.1293659e-001
-4.1128045e-001
-3.3981287e-001
-2.9148638e-001
-3.8214269e-001
-5.4569042e-001
-7.0147765e-001
-8.5215259e-001
-7.7108628e-001
-6.2801480e-001
-2.8187579e-001
9.6939087e-002
3.9477000e-001
