##TITLE=Methyl Ethyl Ketone
##JCAMP-DX=4.24
##DATA TYPE=INFRARED SPECTRUM
##XUNITS=cm-1
##YUNITS=Absorbance
##FIRSTX=900
##LASTX=2300
##XYDATA=(X++(Y..Y))
2296 0.056795999
2294 0.05797831
2292 0.059159622
2290 0.06034093
2288 0.061522238
2286 0.062704541
2284 0.06388586
2282 0.065067172
2280 0.066248477
2278 0.067429796
2276 0.068612084
2274 0.069796368
2272 0.070974775
2270 0.072146215
2268 0.073338121
2266 0.074557811
2264 0.075701848
2262 0.076741762
2260 0.078060851
2258 0.079771236
2256 0.080443598
2254 0.079654962
2252 0.082727492
2250 0.091244079
2248 0.085412197
2246 0.049955178
2244 0.011649325
2242 0.0023461694
2240 0.026839288
2238 0.077949733
2236 0.13140346
2234 0.16053645
2232 0.14831503
2230 0.090038344
2228 0.019385345
2226 -0.026012801
2224 -0.037445806
2222 -0.019573323
2220 0.0036499002
2218 0.0097776344
2216 0.0051002344
2214 0.0019197583
2212 0.001872764
2210 0.0026389088
2208 -0.00063781359
2206 -0.01100601
2204 -0.021260744
2202 -0.02374181
2200 -0.021753
2198 -0.02154864
2196 -0.027404286
2194 -0.042666107
2192 -0.069651872
2190 -0.1102168
2188 -0.16557603
2186 -0.23341721
2184 -0.29771
2182 -0.34026179
2180 -0.3518618
2178 -0.33085263
2176 -0.29427171
2174 -0.26252145
2172 -0.24507132
2170 -0.2454236
2168 -0.25776577
2166 -0.27370384
2164 -0.28630501
2162 -0.28911486
2160 -0.27518737
2158 -0.24113744
2156 -0.198826
2154 -0.16416626
2152 -0.14842223
2150 -0.15833183
2148 -0.18922402
2146 -0.23298785
2144 -0.28338093
2142 -0.33290491
2140 -0.36568132
2138 -0.36666149
2136 -0.33641285
2134 -0.28393197
2132 -0.22969267
2130 -0.19494037
2128 -0.18794321
2126 -0.209527
2124 -0.24955033
2122 -0.29388317
2120 -0.32757452
2118 -0.34045333
2116 -0.34290773
2114 -0.3516669
2112 -0.37824279
2110 -0.42735219
2108 -0.48457932
2106 -0.53135926
2104 -0.56145883
2102 -0.57607234
2100 -0.58682275
2098 -0.60637152
2096 -0.63587004
2094 -0.67124975
2092 -0.70581472
2090 -0.73209023
2088 -0.74288648
2086 -0.73115897
2084 -0.68986118
2082 -0.61529803
2080 -0.51772517
2078 -0.41334802
2076 -0.31998342
2074 -0.25273779
2072 -0.21363881
2070 -0.19986363
2068 -0.21051903
2066 -0.24496636
2064 -0.29920807
2062 -0.3667385
2060 -0.43645528
2058 -0.49876037
2056 -0.55789626
2054 -0.62210995
2052 -0.6919136
2050 -0.76194352
2048 -0.8171767
2046 -0.84133714
2044 -0.82941002
2042 -0.78343242
2040 -0.71405077
2038 -0.63595384
2036 -0.56618845
2034 -0.52049422
2032 -0.50547785
2030 -0.52079427
2028 -0.55387431
2026 -0.58629799
2024 -0.59684753
2022 -0.57065469
2020 -0.52379686
2018 -0.486992
2016 -0.49374399
2014 -0.56497854
2012 -0.66618264
2010 -0.74479985
2008 -0.77891028
2006 -0.76928008
2004 -0.74679601
2002 -0.74697548
2000 -0.76973182
1998 -0.79736835
1996 -0.81147712
1994 -0.79852623
1992 -0.76259732
1990 -0.71524996
1988 -0.664612
1986 -0.61635673
1984 -0.57506293
1982 -0.54490012
1980 -0.53005803
1978 -0.5319894
1976 -0.54031229
1974 -0.53878641
1972 -0.51071775
1970 -0.44552991
1968 -0.35810885
1966 -0.27398092
1964 -0.21024409
1962 -0.17451847
1960 -0.1556116
1958 -0.13842879
1956 -0.13015714
1954 -0.1463799
1952 -0.18736321
1950 -0.24115047
1948 -0.28056353
1946 -0.27932751
1944 -0.24616463
1942 -0.20799501
1940 -0.18979242
1938 -0.20707457
1936 -0.24519287
1934 -0.27742213
1932 -0.29257381
1930 -0.29143682
1928 -0.28567189
1926 -0.28577742
1924 -0.27528495
1922 -0.22781891
1920 -0.13866159
1918 -0.01875625
1916 0.10922364
1914 0.2214071
1912 0.3117356
1910 0.38039514
1908 0.41000581
1906 0.37786222
1904 0.28435799
1902 0.14940181
1900 0.0179043
1898 -0.058623761
1896 -0.055855427
1894 0.025463941
1892 0.14706407
1890 0.25275561
1888 0.29489267
1886 0.24467479
1884 0.12666775
1882 -0.0077444836
1880 -0.12216838
1878 -0.19720259
1876 -0.23735699
1874 -0.25674531
1872 -0.25486359
1870 -0.22558068
1868 -0.18162712
1866 -0.14637564
1864 -0.13638932
1862 -0.15837011
1860 -0.19856697
1858 -0.2361944
1856 -0.27158314
1854 -0.31650105
1852 -0.3711777
1850 -0.4265492
1848 -0.46995002
1846 -0.49036679
1844 -0.49020422
1842 -0.47936732
1840 -0.46345183
1838 -0.44316846
1836 -0.41350013
1834 -0.36604878
1832 -0.29180291
1830 -0.18821599
1828 -0.082007259
1826 -0.016072286
1824 -0.022030666
1822 -0.11263539
1820 -0.2578012
1818 -0.40354681
1816 -0.50852913
1814 -0.54909533
1812 -0.53038985
1810 -0.47311655
1808 -0.38872474
1806 -0.28352699
1804 -0.1776066
1802 -0.10049792
1800 -0.078445867
1798 -0.12367032
1796 -0.20029715
1794 -0.24680115
1792 -0.2308996
1790 -0.15098028
1788 -0.036495786
1786 0.069261149
1784 0.14351246
1782 0.18390149
1780 0.2061556
1778 0.2371297
1776 0.30659944
1774 0.43400484
1772 0.58828431
1770 0.70378113
1768 0.71970803
1766 0.60205746
1764 0.4025318
1762 0.21588112
1760 0.058064114
1758 -0.10567504
1756 -0.24564528
1754 -0.28749907
1752 -0.20637217
1750 -0.033475008
1748 0.14241152
1746 0.21015607
1744 0.12327193
1742 -0.09275604
1740 -0.32386726
1738 -0.41955677
1736 -0.33223599
1734 -0.11528496
1732 0.10592097
1730 0.18812178
1728 0.10119159
1726 -0.082370751
1724 -0.24106473
1722 -0.2351431
1720 0.047964275
1718 0.66571593
1716 1.5321133
1714 2.4628227
1712 3.3176491
1710 4.0406175
1708 4.7332101
1706 5.6124496
1704 6.8919344
1702 8.7508888
1700 11.302094
1698 14.542612
1696 18.162001
1694 21.6555
1692 24.73576
1690 27.402962
1688 29.999458
1686 33.07983
1684 37.04689
1682 42.00996
1680 47.46896
1678 52.583847
1676 57.165558
1674 61.642498
1672 66.421448
1670 71.679398
1668 77.080078
1666 81.942848
1664 85.919853
1662 89.036736
1660 91.421364
1658 93.22081
1656 94.533318
1654 95.403465
1652 95.84584
1650 95.846977
1648 95.348145
1646 94.291183
1644 92.794434
1642 91.110016
1640 89.348831
1638 87.449303
1636 85.265518
1634 82.632774
1632 79.532509
1630 76.070755
1628 72.273643
1626 68.078018
1624 63.464203
1622 58.496876
1620 53.371849
1618 48.381081
1616 43.751316
1614 39.61414
1612 36.029613
1610 32.99118
1608 30.421669
1606 28.197086
1604 26.242037
1602 24.544262
1600 23.128384
1598 22.037184
1596 21.278
1594 20.818459
1592 20.613258
1590 20.616085
1588 20.80785
1586 21.195499
1584 21.780628
1582 22.56608
1580 23.605331
1578 25.002274
1576 26.851429
1574 29.19944
1572 31.950665
1570 34.878544
1568 37.792519
1566 40.582493
1564 43.214054
1562 45.742188
1560 48.373512
1558 51.368946
1556 54.547501
1554 57.284401
1552 59.145164
1550 60.053463
1548 60.229221
1546 60.081966
1544 59.758938
1542 59.074718
1540 57.814499
1538 55.861191
1536 53.371799
1534 50.760559
1532 48.323414
1530 46.142078
1528 44.179218
1526 42.3111
1524 40.389408
1522 38.276798
1520 35.926304
1518 33.408745
1516 30.889999
1514 28.578577
1512 26.488239
1510 24.400738
1508 22.109816
1506 19.522379
1504 16.775835
1502 14.220846
1500 12.05946
1498 10.252918
1496 8.6857862
1494 7.2246318
1492 5.8082747
1490 4.4668231
1488 3.2275748
1486 2.0970836
1484 1.1122272
1482 0.34918165
1480 -0.12874301
1478 -0.27703527
1476 -0.013978571
1474 0.76384974
1472 2.0046229
1470 3.462981
1468 4.9127002
1466 6.222713
1464 7.3724346
1462 8.4558754
1460 9.5771627
1458 10.801054
1456 12.0804
1454 13.23576
1452 14.08386
1450 14.496903
1448 14.457783
1446 14.081392
1444 13.495177
1442 12.79991
1440 12.053246
1438 11.259445
1436 10.39695
1434 9.4355707
1432 8.4048662
1430 7.4153147
1428 6.5654759
1426 5.9078231
1424 5.4543672
1422 5.1759567
1420 5.0414882
1418 5.0294905
1416 5.1189342
1414 5.2882881
1412 5.5251894
1410 5.8297491
1408 6.1992188
1406 6.6194615
1404 7.0567136
1402 7.4523506
1400 7.7427278
1398 7.8696094
1396 7.8031645
1394 7.5567088
1392 7.1735868
1390 6.7232742
1388 6.2590127
1386 5.8012848
1384 5.360939
1382 4.9452066
1380 4.5580006
1378 4.1968884
1376 3.8434885
1374 3.4601684
1372 3.0208402
1370 2.525291
1368 1.9876857
1366 1.4344857
1364 0.89030099
1362 0.37523749
1360 -0.074530393
1358 -0.39902121
1356 -0.54846525
1354 -0.50006634
1352 -0.25219634
1350 0.17079803
1348 0.72696149
1346 1.3579535
1344 2.016356
1342 2.6759803
1340 3.302094
1338 3.8382087
1336 4.2210288
1334 4.391151
1332 4.3303585
1330 4.0877681
1328 3.7324429
1326 3.3396266
1324 2.9758241
1322 2.6865399
1320 2.4895971
1318 2.3635082
1316 2.2732399
1314 2.1779373
1312 2.0511394
1310 1.893543
1308 1.7144449
1306 1.5276092
1304 1.3503131
1302 1.204581
1300 1.1179374
1298 1.1249586
1296 1.2550714
1294 1.5245218
1292 1.9365612
1290 2.4753354
1288 3.1101561
1286 3.7910001
1284 4.4595857
1282 5.0533524
1280 5.5265608
1278 5.8675046
1276 6.0887527
1274 6.231843
1272 6.3404627
1270 6.4497004
1268 6.5884295
1266 6.7769599
1264 7.0322742
1262 7.3685651
1260 7.797996
1258 8.3302402
1256 8.9735432
1254 9.732995
1252 10.604046
1250 11.565155
1248 12.593274
1246 13.666
1244 14.760931
1242 15.84896
1240 16.8822
1238 17.774305
1236 18.436829
1234 18.795454
1232 18.80216
1230 18.453279
1228 17.765169
1226 16.778915
1224 15.556308
1222 14.185713
1220 12.772323
1218 11.43639
1216 10.286566
1214 9.3906412
1212 8.7902441
1210 8.4840021
1208 8.4390059
1206 8.575017
1204 8.7840633
1202 8.9279575
1200 8.8883734
1198 8.6072369
1196 8.0748501
1194 7.3537951
1192 6.5232897
1190 5.6611328
1188 4.8354259
1186 4.0929704
1184 3.4656949
1182 2.9623418
1180 2.5777895
1178 2.2887123
1176 2.07198
1174 1.9141083
1172 1.8046974
1170 1.7350277
1168 1.6948069
1166 1.6701272
1164 1.6502649
1162 1.634111
1160 1.6208223
1158 1.6049396
1156 1.5770485
1154 1.5214539
1152 1.42414
1150 1.2788906
1148 1.086597
1146 0.86011964
1144 0.61959124
1142 0.3935332
1140 0.20267802
1138 0.045075879
1136 -0.083418489
1134 -0.1801683
1132 -0.24750277
1130 -0.3032155
1128 -0.36752206
1126 -0.45578158
1124 -0.56744689
1122 -0.66630882
1120 -0.7081244
1118 -0.65251672
1116 -0.48377687
1114 -0.24463396
1112 0.0088621974
1110 0.22421981
1108 0.3676405
1106 0.45023999
1104 0.49642211
1102 0.53634614
1100 0.5955044
1098 0.68406588
1096 0.80949712
1094 0.98112535
1092 1.202822
1090 1.4634266
1088 1.7487549
1086 2.0468128
1084 2.3489707
1082 2.6525586
1080 2.9407492
1078 3.1574311
1076 3.2455459
1074 3.1745026
1072 2.9496622
1070 2.6540153
1068 2.3808656
1066 2.1968598
1064 2.134568
1062 2.1518631
1060 2.1925926
1058 2.2138054
1056 2.1937656
1054 2.1605248
1052 2.146014
1050 2.1574879
1048 2.1867893
1046 2.1994071
1044 2.1693375
1042 2.112987
1040 2.060719
1038 2.0541494
1036 2.12359
1034 2.2593923
1032 2.4302132
1030 2.5705938
1028 2.6154568
1026 2.5275943
1024 2.3044171
1022 2.0252228
1020 1.7772759
1018 1.6095635
1016 1.5314658
1014 1.4621215
1012 1.3199317
1010 1.0903045
1008 0.79602361
1006 0.52305198
1004 0.34332681
1002 0.23671599
1000 0.15564542
998 0.038812697
996 -0.15397643
994 -0.38559771
992 -0.60243869
990 -0.75970155
988 -0.82967961
986 -0.83235174
984 -0.79485518
982 -0.72932798
980 -0.64352798
978 -0.54312736
976 -0.43843627
974 -0.35650715
972 -0.31967619
970 -0.32068354
968 -0.3401998
966 -0.34332952
964 -0.3006292
962 -0.21452817
960 -0.10075934
958 0.0065103993
956 0.07383313
954 0.086563811
952 0.045439322
950 -0.011442542
948 -0.042211208
946 -0.024310108
944 0.061240733
942 0.23729649
940 0.5128032
938 0.8433907
936 1.1743858
934 1.461762
932 1.6672355
930 1.7626224
928 1.7323531
926 1.5978764
924 1.401484
922 1.2278591
920 1.1580029
918 1.2183914
916 1.4028014
914 1.6330119
912 1.8190925
910 1.8955929
908 1.8240898
906 1.6479443
904 1.4450572
902 1.3511503
900 1.4799213
898 1.8021446
896 2.2528
