Image.
>Pix99999.
  .
5555
5555
2300
900
5555
2
1
0
701
5555
9.1116002e-004
9.3012286e-004
9.4905583e-004
9.6799870e-004
9.8694162e-004
1.0059639e-003
1.0248380e-003
1.0438100e-003
1.0627828e-003
1.0817557e-003
1.1006300e-003
1.1196014e-003
1.1385743e-003
1.1575471e-003
1.1765200e-003
1.1954929e-003
1.2144658e-003
1.2333409e-003
1.2523114e-003
1.2712843e-003
1.2902572e-003
1.3091330e-003
1.3281029e-003
1.3470757e-003
1.3660486e-003
1.3850214e-003
5.1468855e-005
3.6026649e-002
7.7513598e-002
1.2554619e-001
1.7453615e-001
2.1614923e-001
2.5642815e-001
2.7876595e-001
2.9701039e-001
2.8949201e-001
2.8005755e-001
2.6792014e-001
2.6142550e-001
2.7261972e-001
2.9084656e-001
3.2225224e-001
3.4806299e-001
3.6343393e-001
3.6096630e-001
3.3704773e-001
3.1130609e-001
2.8510386e-001
2.7320608e-001
2.7203220e-001
2.7061641e-001
2.6866499e-001
2.5657830e-001
2.4007352e-001
2.2480948e-001
2.1004893e-001
1.9996600e-001
1.9093205e-001
1.9064939e-001
1.9205441e-001
2.2491144e-001
2.6167354e-001
3.0997837e-001
3.5316241e-001
3.6071607e-001
3.5679922e-001
3.2376334e-001
2.8950673e-001
2.5953349e-001
2.3647702e-001
2.2569300e-001
2.2368868e-001
2.3256835e-001
2.4778812e-001
2.6886389e-001
2.7826715e-001
2.7680230e-001
2.5938752e-001
2.3169690e-001
2.1527156e-001
2.0554772e-001
2.0388216e-001
2.0527437e-001
1.9744900e-001
1.8657561e-001
1.9246186e-001
2.0232791e-001
2.2111931e-001
2.3970559e-001
2.2809793e-001
2.1129929e-001
1.8773541e-001
1.6588308e-001
1.5583670e-001
1.4396916e-001
1.2142750e-001
9.3116790e-002
5.5615507e-002
2.3692001e-002
3.4483112e-003
-5.6589274e-003
-2.3786235e-003
1.8314216e-003
5.1380619e-003
4.6538920e-003
1.0239671e-003
3.8523870e-003
1.1185568e-002
2.2198983e-002
3.4905303e-002
4.0805414e-002
4.3821208e-002
4.9131718e-002
5.5323035e-002
7.0344746e-002
8.7441780e-002
9.3805209e-002
9.5685661e-002
7.1124643e-002
4.0035829e-002
1.6492684e-003
-3.2912243e-002
-4.8021711e-002
-5.6878205e-002
-5.8912303e-002
-7.0360683e-002
-1.0239794e-001
-1.3891520e-001
-1.7671131e-001
-1.9458610e-001
-1.8881758e-001
-1.7334904e-001
-1.5258765e-001
-1.4515281e-001
-1.4856648e-001
-1.6473429e-001
-1.8765686e-001
-2.1213564e-001
-2.3672634e-001
-2.4916953e-001
-2.5675398e-001
-2.4979499e-001
-2.3852880e-001
-2.3190315e-001
-2.2778966e-001
-2.3989393e-001
-2.5626317e-001
-2.7222729e-001
-2.8446299e-001
-2.7916750e-001
-2.7058429e-001
-2.6429251e-001
-2.6913279e-001
-2.9950622e-001
-3.3412018e-001
-3.6757758e-001
-3.8338423e-001
-3.7491673e-001
-3.5928077e-001
-3.4084749e-001
-3.2911742e-001
-3.2361129e-001
-3.0511963e-001
-2.7532443e-001
-2.4785657e-001
-2.2326486e-001
-2.4897684e-001
-3.0158558e-001
-3.6209202e-001
-4.2475000e-001
-4.4381386e-001
-4.4727936e-001
-4.4897303e-001
-4.5361140e-001
-4.8223922e-001
-5.1853997e-001
-5.5654234e-001
-5.8929187e-001
-6.0841739e-001
-6.2328798e-001
-6.3962430e-001
-6.6153443e-001
-6.9131041e-001
-7.2014493e-001
-7.4128306e-001
-7.4508226e-001
-7.2748774e-001
-6.9011623e-001
-6.3877279e-001
-5.9541559e-001
-5.6478888e-001
-5.5237091e-001
-5.5148250e-001
-5.6274325e-001
-5.7967013e-001
-6.2390226e-001
-6.8302441e-001
-7.3750448e-001
-7.8972107e-001
-7.9178596e-001
-7.7281284e-001
-7.3117942e-001
-6.8308479e-001
-6.5441090e-001
-6.4084125e-001
-6.6407454e-001
-7.0626551e-001
-7.6535213e-001
-8.2361126e-001
-8.6382037e-001
-8.8546598e-001
-8.8025278e-001
-8.5814863e-001
-8.2153612e-001
-7.9110241e-001
-7.7896732e-001
-7.9624712e-001
-8.4347069e-001
-8.9619815e-001
-9.4510412e-001
-9.7820657e-001
-9.9772543e-001
-1.0100017e+000
-1.0172522e+000
-1.0256960e+000
-1.0328715e+000
-1.0404203e+000
-1.0461408e+000
-1.0455772e+000
-1.0419085e+000
-1.0236800e+000
-9.9586952e-001
-9.4033921e-001
-8.6717069e-001
-7.7906340e-001
-6.9370925e-001
-6.4290589e-001
-6.2674606e-001
-6.5324098e-001
-6.9972318e-001
-7.4687517e-001
-7.8155822e-001
-7.9554743e-001
-7.8752321e-001
-7.6236778e-001
-7.2216702e-001
-6.7212403e-001
-6.3909280e-001
-6.2195504e-001
-6.1975777e-001
-6.2605500e-001
-5.8262545e-001
-5.0553280e-001
-4.0231392e-001
-2.8866339e-001
-2.1238899e-001
-1.6059211e-001
-1.2084793e-001
-8.8406108e-002
-5.1046830e-002
-1.1181012e-002
2.9129444e-002
6.4809300e-002
7.3296256e-002
6.2750578e-002
3.1486772e-002
6.1312201e-003
1.8186012e-002
1.1164880e-002
-4.8535526e-002
-1.0981994e-001
-1.4431338e-001
-1.3599297e-001
-8.3800003e-002
-3.0444950e-002
7.6044286e-003
-3.2887373e-002
-1.4953138e-001
-2.7909470e-001
-4.0450481e-001
-4.1626000e-001
-3.3764496e-001
-2.1841776e-001
-8.2946286e-002
-5.7509586e-002
-1.0761428e-001
-1.4100483e-001
-1.3703640e-001
2.0963542e-002
3.2806173e-001
8.3836174e-001
1.4587121e+000
2.0401762e+000
2.5880344e+000
3.1178339e+000
3.7808485e+000
4.7237363e+000
6.2037230e+000
8.3486519e+000
1.1388241e+001
1.5297857e+001
1.9334702e+001
2.3145868e+001
2.6541126e+001
2.9557108e+001
3.3081501e+001
3.7213833e+001
4.2256863e+001
4.8030640e+001
5.3131599e+001
5.7581787e+001
6.1755409e+001
6.5806557e+001
7.0618454e+001
7.6013885e+001
8.1470299e+001
8.6817032e+001
9.1513206e+001
9.5503342e+001
9.8615906e+001
1.0080423e+002
1.0201734e+002
1.0232540e+002
1.0186683e+002
1.0079320e+002
9.9299820e+001
9.7493721e+001
9.5505051e+001
9.3003708e+001
8.9877151e+001
8.5765213e+001
8.0646049e+001
7.5379097e+001
7.0275200e+001
6.5598640e+001
6.1354385e+001
5.7096722e+001
5.2759251e+001
4.8546234e+001
4.4472168e+001
4.0668484e+001
3.7157974e+001
3.4091675e+001
3.1479620e+001
2.9295143e+001
2.7512192e+001
2.5980286e+001
2.4714918e+001
2.3699572e+001
2.2941544e+001
2.2410999e+001
2.2088360e+001
2.1917753e+001
2.1876966e+001
2.1925486e+001
2.2055771e+001
2.2255045e+001
2.2517021e+001
2.2834625e+001
2.3267647e+001
2.3834858e+001
2.4600260e+001
2.5571203e+001
2.6685638e+001
2.7925440e+001
2.9184307e+001
3.0452450e+001
3.1868153e+001
3.3519833e+001
3.6018490e+001
3.9428928e+001
4.3193771e+001
4.7097588e+001
5.0179668e+001
5.2455013e+001
5.4381966e+001
5.5962807e+001
5.7320251e+001
5.8299599e+001
5.8697216e+001
5.8458000e+001
5.7620358e+001
5.6396973e+001
5.5076664e+001
5.3670658e+001
5.2191101e+001
5.0478622e+001
4.8425854e+001
4.6056530e+001
4.3348331e+001
4.0762142e+001
3.8462841e+001
3.6313358e+001
3.4321629e+001
3.1849611e+001
2.8738571e+001
2.5574823e+001
2.2409039e+001
1.9733606e+001
1.7604250e+001
1.5515714e+001
1.3465658e+001
1.1393128e+001
9.3130016e+000
7.2664185e+000
5.3165193e+000
3.5660899e+000
2.1011140e+000
1.0098040e+000
3.1920272e-001
6.3133411e-002
3.5038859e-001
1.1343739e+000
2.1141748e+000
3.1084113e+000
3.9550500e+000
4.5437527e+000
5.0275917e+000
5.4558115e+000
5.8895226e+000
6.3447399e+000
6.7278671e+000
6.9821601e+000
7.0962830e+000
7.0045676e+000
6.8524928e+000
6.6205397e+000
6.3792529e+000
6.1202607e+000
5.8151808e+000
5.4396386e+000
4.9594293e+000
4.3846502e+000
3.8122683e+000
3.2787099e+000
2.8656635e+000
2.5870275e+000
2.4403422e+000
2.4218471e+000
2.5098474e+000
2.6700115e+000
2.8676050e+000
3.0762057e+000
3.2892685e+000
3.5166039e+000
3.7739201e+000
4.0632367e+000
4.3943748e+000
4.7482963e+000
5.1294746e+000
5.5089717e+000
5.8751984e+000
6.1930399e+000
6.4116421e+000
6.5281763e+000
6.4757199e+000
6.3019748e+000
5.9596133e+000
5.5432024e+000
5.0437174e+000
4.5302200e+000
4.0203586e+000
3.5501001e+000
3.1283343e+000
2.7568691e+000
2.3995001e+000
1.9953572e+000
1.5479306e+000
1.0534420e+000
5.9023190e-001
2.5703859e-001
4.1161045e-002
-2.5150185e-003
3.5013132e-002
1.4891151e-001
2.8849715e-001
4.5670319e-001
6.3998675e-001
8.5100472e-001
1.0615500e+000
1.2642200e+000
1.4449155e+000
1.5755479e+000
1.7041050e+000
1.8356588e+000
2.0066128e+000
2.2456779e+000
2.5364954e+000
2.8938606e+000
3.2685709e+000
3.6496100e+000
3.9892163e+000
4.2733846e+000
4.4934835e+000
4.6524734e+000
4.7654128e+000
4.8397980e+000
4.8758478e+000
4.8823295e+000
4.8478479e+000
4.7957001e+000
4.7281861e+000
4.6678433e+000
4.6343822e+000
4.6184678e+000
4.6377120e+000
4.6636109e+000
4.6986570e+000
4.7282176e+000
4.7444654e+000
4.7550969e+000
4.7588601e+000
4.7737508e+000
4.8129859e+000
4.8807940e+000
4.9889708e+000
5.1134157e+000
5.2510939e+000
5.3748603e+000
5.4824948e+000
5.5775857e+000
5.6653419e+000
5.7617860e+000
5.8617215e+000
5.9558315e+000
6.0400000e+000
6.0979805e+000
6.1422849e+000
6.1724129e+000
6.1882892e+000
6.1706715e+000
6.1186275e+000
5.9756479e+000
5.7902374e+000
5.4966626e+000
5.1718707e+000
4.7647123e+000
4.3349299e+000
3.8520415e+000
3.3645210e+000
2.8717487e+000
2.4031014e+000
1.9803011e+000
1.5992587e+000
1.2800800e+000
9.9774635e-001
7.5880420e-001
5.3832841e-001
3.3810765e-001
1.5527460e-001
-6.0165748e-003
-1.2860961e-001
-2.1664086e-001
-2.5155970e-001
-2.5141647e-001
-2.0283550e-001
-1.3153799e-001
-3.1976484e-002
8.5059404e-002
2.4787574e-001
4.3668801e-001
7.0587015e-001
9.7933090e-001
1.2486640e+000
1.4836097e+000
1.6115786e+000
1.7091473e+000
1.7323540e+000
1.7437258e+000
1.7286055e+000
1.6856729e+000
1.5907241e+000
1.4416189e+000
1.2176619e+000
9.5782918e-001
6.6733468e-001
4.1110879e-001
1.9903952e-001
7.4026592e-002
1.8967895e-002
3.2809027e-002
8.7612338e-002
1.7414474e-001
2.7797860e-001
4.0932766e-001
5.4970241e-001
6.9856793e-001
8.3846986e-001
9.2299443e-001
9.8999429e-001
9.9069244e-001
9.9009639e-001
9.8944402e-001
9.9939662e-001
1.0433806e+000
1.0967300e+000
1.1725389e+000
1.2459382e+000
1.3116652e+000
1.3532503e+000
1.3540572e+000
1.3220596e+000
1.2512879e+000
1.1864827e+000
1.1341795e+000
1.1311686e+000
1.1685275e+000
1.2271993e+000
1.2915131e+000
1.3057470e+000
1.2862543e+000
1.1857147e+000
1.0544153e+000
8.9311779e-001
7.3117340e-001
6.1389524e-001
5.1196760e-001
4.8116258e-001
4.6391022e-001
5.1124334e-001
5.5894232e-001
6.0631645e-001
6.2872666e-001
5.7122928e-001
4.9713567e-001
3.8433108e-001
2.8022265e-001
1.9071828e-001
9.0708949e-002
-2.5183655e-002
-1.4757699e-001
-2.7548099e-001
-3.8640308e-001
-4.8270851e-001
-5.8481467e-001
-6.9120020e-001
-8.0199349e-001
-9.1374779e-001
-1.0104866e+000
-1.1010462e+000
-1.1850629e+000
-1.2656847e+000
-1.3280134e+000
-1.3843136e+000
-1.4075320e+000
-1.4267558e+000
-1.4324626e+000
-1.4359671e+000
-1.4247154e+000
-1.4083805e+000
-1.3696285e+000
-1.3291219e+000
-1.2832863e+000
-1.2293456e+000
-1.1565180e+000
-1.0735040e+000
-9.7396290e-001
-8.9666384e-001
-8.5064560e-001
-8.3594435e-001
-8.5245001e-001
-8.4943986e-001
-8.2859254e-001
-7.6481807e-001
-6.7599744e-001
-6.0869253e-001
-5.5351287e-001
-5.4779029e-001
-5.5585128e-001
-5.1499081e-001
-4.6027070e-001
-3.2589930e-001
-1.8426201e-001
-9.7362459e-002
-1.7466510e-002
-5.7566892e-003
1.2424104e-003
3.6031086e-002
3.0832745e-002
5.7946026e-002
7.4518606e-002
6.0639981e-002
5.5111974e-002
6.8162024e-002
1.1532594e-001
2.1716622e-001
3.2956019e-001
4.5425466e-001
5.4482007e-001
6.0286826e-001
6.1114532e-001
5.8385581e-001
5.2587599e-001
4.5212799e-001
3.7803915e-001
3.0457959e-001
2.3602822e-001
1.6943075e-001
1.3001026e-001
9.5258743e-002
1.3352001e-001
