Image.
>Pix99999.
  .
5555
5555
2300
900
5555
2
1
0
701
5555
3.0414000e-002
3.1046096e-002
3.1679191e-002
3.2312285e-002
3.2944381e-002
3.3577468e-002
3.4209576e-002
3.4842659e-002
3.5475753e-002
3.6107861e-002
3.6740944e-002
3.7373055e-002
3.8006131e-002
3.8639225e-002
3.9271340e-002
3.9904416e-002
4.0537510e-002
4.1169625e-002
4.1802697e-002
4.2434819e-002
4.3067884e-002
4.3700978e-002
4.4333108e-002
4.4966169e-002
4.5599263e-002
4.6231393e-002
2.8506618e-002
1.0731344e-003
-2.6034240e-002
-3.4440570e-002
-4.0043298e-002
-1.9972026e-002
2.2468041e-003
3.1319071e-002
5.9465930e-002
7.7844597e-002
9.0742275e-002
8.1065357e-002
6.8106763e-002
4.8955046e-002
3.4774486e-002
3.2209232e-002
3.2141298e-002
3.5009459e-002
2.9576955e-002
1.3563279e-002
-1.6465450e-002
-5.9384465e-002
-1.0001539e-001
-1.3831601e-001
-1.5466785e-001
-1.5843652e-001
-1.5876108e-001
-1.5792890e-001
-1.6824214e-001
-1.8221271e-001
-1.8694560e-001
-1.8951051e-001
-1.7553098e-001
-1.5898505e-001
-1.3290344e-001
-1.0684659e-001
-9.0974197e-002
-8.0714889e-002
-9.6989371e-002
-1.1782406e-001
-1.4575589e-001
-1.7258634e-001
-1.9477715e-001
-2.1661325e-001
-2.3875000e-001
-2.5368479e-001
-2.5815237e-001
-2.4473287e-001
-2.1239339e-001
-1.7633143e-001
-1.3871725e-001
-1.2597699e-001
-1.3059686e-001
-1.5952115e-001
-2.0073514e-001
-2.3732701e-001
-2.7157661e-001
-2.8157255e-001
-2.8392878e-001
-2.7824479e-001
-2.7078125e-001
-2.7996451e-001
-2.9182148e-001
-3.0428308e-001
-3.1362700e-001
-2.9943189e-001
-2.8025499e-001
-2.5446057e-001
-2.3424365e-001
-2.3371701e-001
-2.4020080e-001
-2.5563475e-001
-2.6600960e-001
-2.6558569e-001
-2.5427714e-001
-2.3066208e-001
-2.0909271e-001
-1.9148172e-001
-1.9819097e-001
-2.2477299e-001
-2.6536310e-001
-3.1346557e-001
-3.4450778e-001
-3.6590523e-001
-3.7141159e-001
-3.7074772e-001
-3.7269878e-001
-3.7561733e-001
-3.8148284e-001
-3.8770309e-001
-3.9256606e-001
-3.9587021e-001
-3.8980341e-001
-3.8049370e-001
-3.6362258e-001
-3.5588765e-001
-3.8519242e-001
-4.4052610e-001
-5.4277438e-001
-6.4762354e-001
-7.3898524e-001
-7.9693997e-001
-8.0941868e-001
-7.9476196e-001
-7.5915825e-001
-7.2079509e-001
-6.8326199e-001
-6.5680861e-001
-6.3817471e-001
-6.3525975e-001
-6.4102417e-001
-6.5118891e-001
-6.6262710e-001
-6.6434097e-001
-6.6245604e-001
-6.4828455e-001
-6.3099754e-001
-6.1403245e-001
-5.9830832e-001
-5.9321922e-001
-5.9243512e-001
-5.9998351e-001
-6.1375183e-001
-6.4138013e-001
-6.7615217e-001
-7.1947581e-001
-7.5937301e-001
-7.9045957e-001
-8.1268519e-001
-8.2810670e-001
-8.3901471e-001
-8.4573364e-001
-8.4765720e-001
-8.4322608e-001
-8.3575261e-001
-8.2557011e-001
-8.0542356e-001
-7.7718776e-001
-7.4710542e-001
-7.1696389e-001
-7.2098005e-001
-7.4430567e-001
-7.8065640e-001
-8.2208312e-001
-8.4146959e-001
-8.5316604e-001
-8.5974634e-001
-8.6668420e-001
-8.7506735e-001
-8.8418001e-001
-8.9774358e-001
-9.0877479e-001
-9.2071551e-001
-9.2879528e-001
-9.2950171e-001
-9.3435264e-001
-9.4673461e-001
-9.7415078e-001
-1.0167876e+000
-1.0574722e+000
-1.0867181e+000
-1.0834132e+000
-1.0511743e+000
-1.0017837e+000
-9.4840413e-001
-8.9562500e-001
-8.4356916e-001
-7.9435873e-001
-7.4534088e-001
-7.3809236e-001
-7.5460559e-001
-7.8628063e-001
-8.2526439e-001
-8.1475353e-001
-7.8428710e-001
-7.3983449e-001
-6.9242972e-001
-6.6926330e-001
-6.5635616e-001
-6.5610552e-001
-6.6052634e-001
-6.6666776e-001
-6.7529875e-001
-6.8421751e-001
-6.9842899e-001
-7.1343154e-001
-7.2519159e-001
-7.2651374e-001
-7.0624697e-001
-6.7355090e-001
-6.4399475e-001
-6.3097078e-001
-6.4114970e-001
-6.6451448e-001
-6.9231004e-001
-7.1687013e-001
-7.4639678e-001
-7.7558744e-001
-8.1240964e-001
-8.4886140e-001
-8.5948050e-001
-8.5186386e-001
-8.1256962e-001
-7.6207083e-001
-7.1491688e-001
-6.7359990e-001
-6.2719113e-001
-5.7048142e-001
-4.9334174e-001
-4.0839830e-001
-3.4694648e-001
-3.1706694e-001
-3.3223578e-001
-3.7121269e-001
-4.1007829e-001
-4.3884632e-001
-4.4811019e-001
-4.3924069e-001
-4.1894537e-001
-3.9103851e-001
-3.5988325e-001
-3.6134338e-001
-3.8907301e-001
-4.4234058e-001
-5.1001215e-001
-5.0539619e-001
-4.5338601e-001
-3.3911684e-001
-1.9637248e-001
-9.5672764e-002
-2.6106490e-002
1.5335461e-002
3.8612965e-002
6.4209603e-002
9.0935059e-002
1.1914004e-001
1.5031917e-001
1.6302921e-001
1.6600372e-001
1.5335657e-001
1.2875740e-001
1.0926843e-001
3.9541487e-002
-1.0873514e-001
-2.6080015e-001
-3.7393838e-001
-4.3647325e-001
-4.4742060e-001
-4.4788802e-001
-4.5857394e-001
-5.0680315e-001
-5.9924835e-001
-6.8506008e-001
-7.5383735e-001
-7.0945001e-001
-5.7261962e-001
-3.7663251e-001
-1.5393744e-001
-5.6890082e-002
-5.5640522e-002
-7.7230722e-002
-9.5190242e-002
2.0143360e-002
2.8570640e-001
7.7989984e-001
1.4216993e+000
2.0714834e+000
2.6996019e+000
3.2924080e+000
3.9942122e+000
4.9571509e+000
6.4714451e+000
8.6849051e+000
1.1848375e+001
1.5924429e+001
2.0091419e+001
2.3970591e+001
2.7390097e+001
3.0413067e+001
3.3948399e+001
3.8099213e+001
4.3124352e+001
4.8839119e+001
5.3902222e+001
5.8337429e+001
6.2637783e+001
6.6929138e+001
7.1974503e+001
7.7577209e+001
8.3085205e+001
8.8396347e+001
9.3173752e+001
9.7422981e+001
1.0113014e+002
1.0420628e+002
1.0652330e+002
1.0780040e+002
1.0775684e+002
1.0635646e+002
1.0365071e+002
1.0034220e+002
9.7068619e+001
9.3621414e+001
8.9921951e+001
8.5474243e+001
8.0155708e+001
7.4742653e+001
6.9506516e+001
6.4703857e+001
6.0341942e+001
5.5991760e+001
5.1587620e+001
4.7360229e+001
4.3320797e+001
3.9594086e+001
3.6193878e+001
3.3227219e+001
3.0700930e+001
2.8583097e+001
2.6854086e+001
2.5379629e+001
2.4175688e+001
2.3227274e+001
2.2541651e+001
2.2089500e+001
2.1850241e+001
2.1764509e+001
2.1805632e+001
2.1925615e+001
2.2107006e+001
2.2335857e+001
2.2606079e+001
2.2916227e+001
2.3335392e+001
2.3886543e+001
2.4618624e+001
2.5529335e+001
2.6542719e+001
2.7634600e+001
2.8743349e+001
2.9867308e+001
3.1164289e+001
3.2725727e+001
3.5131989e+001
3.8467999e+001
4.2222569e+001
4.6176640e+001
4.9347260e+001
5.1726994e+001
5.3728355e+001
5.5335712e+001
5.6641109e+001
5.7548203e+001
5.7923756e+001
5.7744801e+001
5.7082352e+001
5.6006504e+001
5.4688942e+001
5.3137348e+001
5.1368450e+001
4.9334705e+001
4.6990993e+001
4.4443127e+001
4.1696667e+001
3.9126057e+001
3.6877148e+001
3.4738842e+001
3.2713718e+001
3.0240534e+001
2.7180893e+001
2.4145891e+001
2.1186176e+001
1.8683142e+001
1.6682560e+001
1.4688571e+001
1.2703423e+001
1.0699972e+001
8.7009020e+000
6.7517715e+000
4.9149752e+000
3.2844481e+000
1.9276900e+000
9.2183602e-001
2.8933579e-001
5.5745315e-002
3.4567219e-001
1.1267508e+000
2.1335270e+000
3.1997702e+000
4.1215463e+000
4.7784324e+000
5.3053899e+000
5.7424970e+000
6.1637392e+000
6.5775599e+000
6.9089522e+000
7.0904245e+000
7.1476121e+000
7.0208702e+000
6.8491392e+000
6.6184745e+000
6.3724127e+000
6.1011343e+000
5.7664914e+000
5.3477798e+000
4.8183007e+000
4.1992774e+000
3.6074610e+000
3.0743439e+000
2.6766794e+000
2.4115646e+000
2.2518246e+000
2.1943047e+000
2.2089801e+000
2.2942944e+000
2.4471791e+000
2.6379666e+000
2.8785582e+000
3.1494582e+000
3.4584215e+000
3.7971463e+000
4.1629777e+000
4.5376439e+000
4.9142423e+000
5.2827144e+000
5.6267624e+000
5.9354711e+000
6.1561360e+000
6.2741842e+000
6.2180552e+000
6.0304255e+000
5.6635900e+000
5.2302084e+000
4.7265878e+000
4.2171831e+000
3.7233725e+000
3.2642698e+000
2.8488429e+000
2.4831412e+000
2.1289830e+000
1.7345052e+000
1.3073163e+000
8.4565842e-001
4.2585790e-001
1.4580436e-001
-2.1343559e-002
-2.6663279e-002
3.7130713e-002
1.5465374e-001
2.8621322e-001
4.3384638e-001
5.9751487e-001
7.9625440e-001
1.0052806e+000
1.2252600e+000
1.4357293e+000
1.6035234e+000
1.7604620e+000
1.9015726e+000
2.0620294e+000
2.2669268e+000
2.5089078e+000
2.8027761e+000
3.1012864e+000
3.3984599e+000
3.6630192e+000
3.8885727e+000
4.0910215e+000
4.2622375e+000
4.4088330e+000
4.5213971e+000
4.5772209e+000
4.5909190e+000
4.5461416e+000
4.4794855e+000
4.3971777e+000
4.3187952e+000
4.2568803e+000
4.2030239e+000
4.1622472e+000
4.1283584e+000
4.1072512e+000
4.0939131e+000
4.0960727e+000
4.0991883e+000
4.1078677e+000
4.1184311e+000
4.1388884e+000
4.1785870e+000
4.2482214e+000
4.3478189e+000
4.4801784e+000
4.6239181e+000
4.7733693e+000
4.9047141e+000
5.0163698e+000
5.1070070e+000
5.1831069e+000
5.2551770e+000
5.3274498e+000
5.4030638e+000
5.4759340e+000
5.5322542e+000
5.5642114e+000
5.5320930e+000
5.4566331e+000
5.2806158e+000
5.0611453e+000
4.7339048e+000
4.3708730e+000
3.9130042e+000
3.4331968e+000
2.9031298e+000
2.3824799e+000
1.8849372e+000
1.4238250e+000
1.0274332e+000
6.6750997e-001
3.6220157e-001
9.2315786e-002
-1.3030459e-001
-3.0708441e-001
-4.3444011e-001
-5.2219599e-001
-5.7775998e-001
-6.1804265e-001
-6.4722776e-001
-6.6626287e-001
-6.7378259e-001
-6.5251452e-001
-6.0970974e-001
-5.1742160e-001
-3.9214647e-001
-1.7675941e-001
7.5560570e-002
4.2845070e-001
7.8407550e-001
1.1238725e+000
1.4190080e+000
1.5731150e+000
1.6762629e+000
1.6545351e+000
1.6117297e+000
1.5276817e+000
1.4364829e+000
1.3302854e+000
1.1998783e+000
1.0351224e+000
8.4661841e-001
6.3641536e-001
4.4070840e-001
2.6426348e-001
1.2953620e-001
3.0135766e-002
-2.7935628e-002
-5.1539686e-002
1.9643813e-002
1.4252727e-001
3.4742010e-001
5.7032543e-001
7.7142221e-001
9.5235521e-001
1.0467560e+000
1.1224495e+000
1.1408186e+000
1.1576890e+000
1.1738646e+000
1.2089144e+000
1.3053663e+000
1.4240451e+000
1.5922954e+000
1.7280886e+000
1.7936625e+000
1.7938157e+000
1.6941000e+000
1.5879347e+000
1.4812460e+000
1.4285753e+000
1.4333681e+000
1.4787822e+000
1.5540985e+000
1.6218762e+000
1.6808274e+000
1.7061650e+000
1.7084857e+000
1.6527388e+000
1.5689092e+000
1.4224024e+000
1.2601352e+000
1.0862613e+000
9.1699117e-001
7.9372489e-001
6.8463075e-001
6.5211892e-001
6.2780946e-001
6.3876820e-001
6.4468473e-001
6.3435411e-001
6.1507243e-001
5.7329750e-001
5.2023220e-001
4.4568619e-001
3.6972570e-001
2.9261887e-001
2.2849600e-001
1.7875040e-001
1.2426551e-001
6.3819595e-002
-2.0174004e-002
-1.2077600e-001
-2.2912949e-001
-3.4099942e-001
-4.4525480e-001
-5.4576963e-001
-6.3426745e-001
-7.1795535e-001
-7.8444558e-001
-8.4929395e-001
-9.2989683e-001
-1.0143279e+000
-1.1289326e+000
-1.2397373e+000
-1.3226269e+000
-1.3924471e+000
-1.4043572e+000
-1.3982370e+000
-1.3362445e+000
-1.2551407e+000
-1.1305821e+000
-1.0021565e+000
-8.6761558e-001
-7.5382739e-001
-6.6970158e-001
-6.2838453e-001
-6.3401341e-001
-6.8550843e-001
-7.7361774e-001
-8.6413491e-001
-9.5322984e-001
-9.9640101e-001
-1.0161427e+000
-9.8331016e-001
-9.3117130e-001
-8.2032043e-001
-6.9508868e-001
-5.2216089e-001
-3.4495360e-001
-2.0092201e-001
-6.4728498e-002
-2.1333857e-002
1.3823994e-004
3.5092430e-003
-1.0073777e-002
4.7974333e-002
1.3158086e-001
2.9041898e-001
4.5438284e-001
6.2863040e-001
7.7736568e-001
8.8476771e-001
9.5695621e-001
9.8650855e-001
1.0045217e+000
1.0115613e+000
1.0154201e+000
1.0162516e+000
9.7339487e-001
9.0769374e-001
7.8306001e-001
6.3763273e-001
5.1922977e-001
4.0949872e-001
3.9526442e-001
3.9691946e-001
4.8041001e-001
