##TITLE=Methyl Ethyl Ketone
##JCAMP-DX=4.24
##DATA TYPE=INFRARED SPECTRUM
##XUNITS=cm-1
##YUNITS=Absorbance
##FIRSTX=900
##LASTX=2300
##XYDATA=(X++(Y..Y))
2296 0.0089113005
2294 0.0090967342
2292 0.0092820702
2290 0.009467504
2288 0.009652839
2286 0.0098382737
2284 0.010023411
2282 0.01020914
2280 0.010394875
2278 0.010579621
2276 0.010765343
2274 0.010951078
2272 0.011135829
2270 0.011321546
2268 0.011506299
2266 0.011692014
2264 0.011877748
2262 0.012062508
2260 0.012248217
2258 0.012433952
2256 0.012618715
2254 0.012804421
2252 0.012990154
2250 0.013174921
2248 0.013360623
2246 0.013546357
2244 0.00050339714
2242 0.020346712
2240 0.045510523
2238 0.099989325
2236 0.15879057
2234 0.19519052
2232 0.22744982
2230 0.2033072
2228 0.17400141
2226 0.1250985
2224 0.077257335
2222 0.038813256
2220 0.011188059
2218 0.015014476
2216 0.039144512
2214 0.10375974
2212 0.1660452
2210 0.22062179
2208 0.24417354
2206 0.2296135
2204 0.20503207
2202 0.17310879
2200 0.1593896
2198 0.15962811
2196 0.16174357
2194 0.16440329
2192 0.16422971
2190 0.16278584
2188 0.18392339
2186 0.21241221
2184 0.24196801
2182 0.27165833
2180 0.27075076
2178 0.26514801
2176 0.24851371
2174 0.23106152
2172 0.21568629
2170 0.2013907
2168 0.19216909
2166 0.18562779
2164 0.18705069
2162 0.19001807
2160 0.19490555
2158 0.20608193
2156 0.228787
2154 0.25952092
2152 0.30013084
2150 0.32819226
2148 0.34095812
2146 0.33441681
2144 0.31222051
2142 0.29284459
2140 0.27658838
2138 0.27017909
2136 0.26895228
2134 0.26708373
2132 0.264687
2130 0.2644617
2128 0.2649276
2126 0.26607943
2124 0.2673966
2122 0.25592175
2120 0.24235348
2118 0.22735511
2116 0.21353371
2114 0.209866
2112 0.20783417
2110 0.20640802
2108 0.20365018
2106 0.19663821
2104 0.18812765
2102 0.17773132
2100 0.16666099
2098 0.15495169
2096 0.14713429
2094 0.14457826
2092 0.15243571
2090 0.17029721
2088 0.18912983
2086 0.2075175
2084 0.20728303
2082 0.19477987
2080 0.16867782
2078 0.13630503
2076 0.11140871
2074 0.089947246
2072 0.084469959
2070 0.084064163
2068 0.091330402
2066 0.10015344
2064 0.093247123
2062 0.081792437
2060 0.054060198
2058 0.02379407
2056 -0.0027906084
2054 -0.026597498
2052 -0.042702906
2050 -0.055496346
2048 -0.063292891
2046 -0.068779007
2044 -0.071481019
2042 -0.071746394
2040 -0.069482476
2038 -0.068308219
2036 -0.06943199
2034 -0.082694575
2032 -0.10724796
2030 -0.1390629
2028 -0.17479008
2026 -0.199614
2024 -0.21687616
2022 -0.22381426
2020 -0.22587204
2018 -0.22671902
2016 -0.227492
2014 -0.22424808
2012 -0.21991445
2010 -0.21266429
2008 -0.20481074
2006 -0.19720599
2004 -0.18960141
2002 -0.18069459
2000 -0.17229949
1998 -0.1663824
1996 -0.16312072
1994 -0.16527717
1992 -0.17399949
1990 -0.19560505
1988 -0.227394
1986 -0.27296442
1984 -0.32143149
1982 -0.36932242
1980 -0.41136211
1978 -0.44632661
1976 -0.462506
1974 -0.46235499
1972 -0.42907786
1970 -0.37271142
1968 -0.32150179
1966 -0.27630979
1964 -0.28291222
1962 -0.31671789
1960 -0.3601616
1958 -0.40643218
1956 -0.42819157
1954 -0.44105932
1952 -0.44953823
1950 -0.45710453
1948 -0.46336079
1946 -0.46983999
1944 -0.48064509
1942 -0.49381885
1940 -0.51509237
1938 -0.53706306
1936 -0.55537885
1934 -0.56842315
1932 -0.57146436
1930 -0.56786102
1928 -0.55662858
1926 -0.53924119
1924 -0.51559711
1922 -0.49450532
1920 -0.47879863
1918 -0.48436701
1916 -0.50953227
1914 -0.53643572
1912 -0.56127274
1910 -0.57006872
1908 -0.56830835
1906 -0.5801931
1904 -0.60074079
1902 -0.6228385
1900 -0.64565015
1898 -0.62934589
1896 -0.59705144
1894 -0.5549686
1892 -0.51430601
1890 -0.51108652
1888 -0.53000778
1886 -0.58495587
1884 -0.65420008
1882 -0.72664809
1880 -0.7892046
1878 -0.82482147
1876 -0.83055699
1874 -0.79573733
1872 -0.73179108
1870 -0.64261436
1868 -0.57320434
1866 -0.54145873
1864 -0.56970757
1862 -0.65269476
1860 -0.74511093
1858 -0.83210939
1856 -0.89313656
1854 -0.93371797
1852 -0.94873357
1850 -0.94799864
1848 -0.91356999
1846 -0.85937428
1844 -0.81107843
1842 -0.7672618
1840 -0.7707898
1838 -0.79632634
1836 -0.81059927
1834 -0.8106724
1832 -0.75549346
1830 -0.67199278
1828 -0.57801056
1826 -0.50279814
1824 -0.49657303
1822 -0.54023188
1820 -0.62903559
1818 -0.72308969
1816 -0.79252458
1814 -0.82776213
1812 -0.82513845
1810 -0.80033934
1808 -0.76478106
1806 -0.72544199
1804 -0.68587601
1802 -0.65506661
1800 -0.63101149
1798 -0.6090436
1796 -0.58713216
1794 -0.54063731
1792 -0.47840798
1790 -0.42704332
1788 -0.38595676
1786 -0.3646073
1784 -0.35337159
1782 -0.31651863
1780 -0.26206899
1778 -0.17926461
1776 -0.078097433
1774 0.037553295
1772 0.14866205
1770 0.21473394
1768 0.23420297
1766 0.18908271
1764 0.1247404
1762 0.08524742
1760 0.028479595
1758 -0.071361288
1756 -0.15846387
1754 -0.20374119
1752 -0.18584852
1750 -0.10671747
1748 -0.014795633
1746 0.069326282
1744 0.066975832
1742 -0.019053724
1740 -0.12321532
1738 -0.22694249
1736 -0.23234001
1734 -0.15998536
1732 -0.083124064
1730 -0.013594293
1728 -0.047811538
1726 -0.14741336
1724 -0.19665878
1722 -0.17926371
1720 0.033399597
1718 0.42884919
1716 1.0419035
1714 1.7526696
1712 2.3810475
1710 2.9503233
1708 3.492326
1706 4.1781778
1704 5.1693144
1702 6.7170138
1700 8.9434586
1698 12.02703
1696 15.924143
1694 19.89868
1692 23.610893
1690 26.930771
1688 29.906441
1686 33.417065
1684 37.553207
1682 42.552261
1680 48.236439
1678 53.268227
1676 57.673943
1674 61.899986
1672 66.077957
1670 71.027725
1668 76.562775
1666 82.121101
1664 87.560181
1662 92.415825
1660 96.6828
1658 100.30759
1656 103.25114
1654 105.46999
1652 106.6888
1650 106.62684
1648 105.15126
1646 102.27357
1644 98.695885
1642 95.053345
1640 91.260643
1638 87.289917
1636 82.791374
1634 77.681885
1632 72.638168
1630 67.878235
1628 63.513542
1626 59.515965
1624 55.437241
1622 51.218849
1620 47.090744
1618 43.074562
1616 39.338085
1614 35.902927
1612 32.905407
1610 30.356239
1608 28.226555
1606 26.492043
1604 25.007549
1602 23.786602
1600 22.812183
1598 22.099117
1596 21.629501
1594 21.383244
1592 21.299492
1590 21.341152
1588 21.453672
1586 21.629021
1584 21.856365
1582 22.14813
1580 22.508589
1578 23.009977
1576 23.675343
1574 24.547079
1572 25.625835
1570 26.819265
1568 28.103119
1566 29.384743
1564 30.656834
1562 32.085617
1560 33.764484
1558 36.346691
1556 39.888916
1554 43.749321
1552 47.686649
1550 50.666763
1548 52.735729
1546 54.482285
1544 55.94294
1542 57.294552
1540 58.335979
1538 58.781017
1536 58.548916
1534 57.650524
1532 56.345081
1530 54.962303
1528 53.505341
1526 51.9795
1524 50.233894
1522 48.169724
1520 45.777363
1518 43.024006
1516 40.354458
1514 37.924248
1512 35.691879
1510 33.687119
1508 31.299351
1506 28.390587
1504 25.424639
1502 22.442923
1500 19.882
1498 17.784569
1496 15.692142
1494 13.598582
1492 11.472308
1490 9.3285503
1488 7.2176981
1486 5.2061815
1484 3.4027638
1482 1.911263
1480 0.83815432
1478 0.20991859
1476 0.048392199
1474 0.42238373
1472 1.2596366
1470 2.253525
1468 3.2127872
1466 4.0167551
1464 4.5747547
1462 5.0466795
1460 5.4877558
1458 5.9455752
1456 6.4369798
1454 6.8407683
1452 7.0927525
1450 7.190156
1448 7.0630674
1446 6.8730178
1444 6.5999136
1442 6.3216538
1440 6.0323796
1438 5.7109485
1436 5.3290114
1434 4.8316226
1432 4.2183337
1430 3.5741553
1428 2.946172
1426 2.4468265
1424 2.1018972
1422 1.9238839
1420 1.9051462
1418 2.0201344
1416 2.2219086
1414 2.464498
1412 2.7174692
1410 2.9658108
1408 3.2262285
1406 3.5162129
1404 3.8414562
1402 4.217339
1400 4.6221361
1398 5.0643682
1396 5.4914927
1394 5.8789339
1392 6.1809316
1390 6.3258367
1388 6.3555055
1386 6.2027249
1384 5.9547
1382 5.5787339
1380 5.1651187
1378 4.7111993
1376 4.2562456
1374 3.8128905
1372 3.400914
1370 3.0268402
1368 2.6909778
1366 2.3596509
1364 1.974404
1362 1.5398923
1360 1.05502
1358 0.59745944
1356 0.26462141
1354 0.047413576
1352 0.00027324754
1350 0.033268474
1348 0.14019641
1346 0.27250427
1344 0.44021559
1342 0.63126051
1340 0.86606103
1338 1.1102386
1336 1.3664943
1334 1.6026568
1332 1.7957075
1330 1.982401
1328 2.1629508
1326 2.3672299
1324 2.6136556
1322 2.8951886
1320 3.2244496
1318 3.5765057
1316 3.9439099
1314 4.285285
1312 4.5839286
1310 4.816669
1308 4.982584
1306 5.0844507
1304 5.135601
1302 5.1405978
1300 5.1200361
1298 5.0807223
1296 5.0396857
1294 5.0082126
1292 4.9893537
1290 4.9971771
1288 5.015152
1286 5.0490055
1284 5.0788064
1282 5.094408
1280 5.1056662
1278 5.1077189
1276 5.114243
1274 5.1310296
1272 5.1537895
1270 5.1899147
1268 5.2416515
1266 5.3189578
1264 5.4220343
1262 5.5534744
1260 5.687542
1258 5.8178153
1256 5.9237742
1254 6.0094895
1252 6.0894532
1250 6.1695862
1248 6.263144
1246 6.3594999
1244 6.4412656
1242 6.5053258
1240 6.5274801
1238 6.5232592
1236 6.4707403
1234 6.3860507
1232 6.2262998
1230 6.0233011
1228 5.7040834
1226 5.3461127
1224 4.8860803
1222 4.411622
1220 3.9050303
1218 3.409673
1216 2.9393141
1214 2.4933031
1212 2.0905035
1210 1.7137027
1208 1.376264
1206 1.0657041
1204 0.79150999
1202 0.55326164
1200 0.35677513
1198 0.20516625
1196 0.094539285
1194 0.022068977
1192 -0.02132584
1190 -0.033444971
1188 -0.025794582
1186 0.0067446977
1184 0.048769336
1182 0.096338242
1180 0.15699568
1178 0.26619163
1176 0.41117001
1174 0.67462653
1172 0.95401311
1170 1.2659014
1168 1.5435224
1166 1.713225
1164 1.8381075
1162 1.852025
1160 1.8362908
1158 1.7602139
1156 1.6607429
1154 1.5220253
1152 1.3653224
1150 1.1835839
1148 0.9890582
1146 0.78075969
1144 0.56916213
1142 0.36092228
1140 0.18629566
1138 0.047725134
1136 -0.015493542
1134 -0.025459712
1132 0.033660613
1130 0.12792906
1128 0.26823759
1126 0.42181608
1124 0.57948405
1122 0.7284503
1120 0.82761002
1118 0.91166538
1116 0.93960285
1114 0.96636969
1112 0.99316901
1110 1.0336177
1108 1.1182435
1106 1.217945
1104 1.3525497
1102 1.4743317
1100 1.5660117
1098 1.6138018
1096 1.5918715
1094 1.5455656
1092 1.471426
1090 1.4092745
1088 1.3611292
1086 1.3307199
1084 1.31714
1082 1.3261893
1080 1.3504578
1078 1.3874509
1076 1.42343
1074 1.4120799
1072 1.3747965
1070 1.262792
1068 1.1351097
1066 1.0142068
1064 0.90629077
1062 0.8876555
1060 0.88142884
1058 0.92650783
1056 0.96556658
1054 0.97749418
1052 0.97679716
1050 0.9354142
1048 0.88229507
1046 0.80020964
1044 0.70734322
1042 0.59556466
1040 0.49475321
1038 0.41120142
1036 0.344405
1034 0.29424256
1032 0.2210888
1030 0.1254769
1028 0.0058493018
1026 -0.128842
1024 -0.25034148
1022 -0.36328959
1020 -0.4579148
1018 -0.5439285
1016 -0.61233431
1014 -0.67241532
1012 -0.69307917
1010 -0.70502329
1008 -0.69398081
1006 -0.68462914
1004 -0.71787483
1002 -0.75646049
1000 -0.82894707
998 -0.89784694
996 -0.95063353
994 -0.99520218
992 -1.0136976
990 -1.0170165
988 -0.98496044
986 -0.9356451
984 -0.85686833
982 -0.78655726
980 -0.72850418
978 -0.68988115
976 -0.6710068
974 -0.64675933
972 -0.61781043
970 -0.58093745
968 -0.53886259
966 -0.49160451
964 -0.44128355
962 -0.37741342
960 -0.30942494
958 -0.24447154
956 -0.18148114
954 -0.1462376
952 -0.1154404
950 -0.11042166
948 -0.10212269
946 -0.033299681
944 0.0020985603
942 0.065554082
940 0.19916669
938 0.37973207
936 0.55620003
934 0.72018695
932 0.86037707
930 0.94905216
928 0.99952179
926 0.98884135
924 0.96528739
922 0.92631102
920 0.89257282
918 0.863886
916 0.85236716
914 0.85303819
912 0.86696208
910 0.88732249
908 0.82939982
906 0.74164879
904 0.60440242
902 0.45507181
900 0.42992553
898 0.4249489
896 0.47310999
