##TITLE=Methyl Ethyl Ketone
##JCAMP-DX=4.24
##DATA TYPE=INFRARED SPECTRUM
##XUNITS=cm-1
##YUNITS=Absorbance
##FIRSTX=900
##LASTX=2300
##XYDATA=(X++(Y..Y))
2296 0.076940998
2294 0.078541711
2292 0.080142416
2290 0.081743129
2288 0.083343841
2286 0.084944546
2284 0.086545259
2282 0.08814498
2280 0.089745678
2278 0.091346391
2276 0.092947096
2274 0.094548792
2272 0.096148536
2270 0.097745299
2268 0.099349856
2266 0.10096533
2264 0.10255366
2262 0.1040926
2260 0.10574731
2258 0.10757033
2256 0.10896057
2254 0.1097566
2252 0.11213363
2250 0.11672655
2248 0.1154604
2246 0.099116467
2244 0.06355647
2242 0.014161568
2240 -0.01116696
2238 0.023178482
2236 0.10662207
2234 0.21389899
2232 0.31382319
2230 0.37969637
2228 0.40920827
2226 0.412213
2224 0.41893053
2222 0.46021605
2220 0.54559046
2218 0.67163461
2216 0.80846113
2214 0.92080915
2212 0.98340917
2210 0.9804951
2208 0.9222858
2206 0.82874984
2204 0.72741431
2202 0.64651126
2200 0.60794592
2198 0.62764329
2196 0.7051186
2194 0.82966137
2192 0.96962678
2190 1.090368
2188 1.1716597
2186 1.2049743
2184 1.2102439
2182 1.2136232
2180 1.2287577
2178 1.2624247
2176 1.3109314
2174 1.3709755
2172 1.4546828
2170 1.5746851
2168 1.7230852
2166 1.8811357
2164 2.013824
2162 2.0889478
2160 2.1070662
2158 2.0826995
2156 2.0399401
2154 2.0018036
2152 1.9740463
2150 1.956252
2148 1.9489554
2146 1.9529428
2144 1.9692783
2142 1.9962981
2140 2.021081
2138 2.0300987
2136 2.02408
2134 2.012058
2132 2.0164268
2130 2.0575695
2128 2.127856
2126 2.2090065
2124 2.2813649
2122 2.3289819
2120 2.3541715
2118 2.364594
2116 2.3640444
2114 2.3542299
2112 2.3350811
2110 2.3061256
2108 2.2678177
2106 2.2230887
2104 2.1845429
2102 2.1674261
2100 2.182184
2098 2.2340102
2096 2.3124714
2094 2.4021554
2092 2.4894519
2090 2.564188
2088 2.6251342
2086 2.6751249
2084 2.7181249
2082 2.7577081
2080 2.7943149
2078 2.8274238
2076 2.858207
2074 2.8894207
2072 2.927664
2070 2.9792829
2068 3.0424142
2066 3.1092436
2064 3.1590943
2062 3.1710477
2060 3.1424673
2058 3.0828819
2056 3.0211086
2054 2.9895906
2052 3.0050173
2050 3.072258
2048 3.176708
2046 3.2957749
2044 3.406616
2042 3.4895573
2040 3.5381651
2038 3.55161
2036 3.5313215
2034 3.4799044
2032 3.4037988
2030 3.313189
2028 3.2281458
2026 3.1703093
2024 3.1506314
2022 3.172348
2020 3.2266927
2018 3.2991078
2016 3.3713
2014 3.4248099
2012 3.444505
2010 3.4220941
2008 3.3706639
2006 3.3126972
2004 3.2689428
2002 3.2538061
2000 3.2589393
1998 3.2676482
1996 3.2710714
1994 3.2657747
1992 3.2517526
1990 3.2289987
1988 3.1916978
1986 3.1359079
1984 3.0779142
1982 3.0419836
1980 3.0424235
1978 3.0819063
1976 3.1361001
1974 3.1733088
1972 3.1835973
1970 3.1719956
1968 3.1557188
1966 3.1515944
1964 3.1521101
1962 3.1382136
1960 3.0966358
1958 3.0225456
1956 2.93062
1954 2.8439445
1952 2.7802548
1950 2.748282
1948 2.7321806
1946 2.704875
1944 2.6422541
1942 2.5308061
1940 2.3918426
1938 2.2620153
1936 2.1670058
1934 2.1198432
1932 2.111222
1930 2.1238556
1928 2.155427
1926 2.2132158
1924 2.3067923
1922 2.4380991
1920 2.5744965
1918 2.669611
1916 2.6989772
1914 2.6573718
1912 2.563992
1910 2.4459853
1908 2.3107555
1906 2.1579864
1904 2.005208
1902 1.8812703
1900 1.8164549
1898 1.831556
1896 1.9067
1894 1.9993799
1892 2.0679474
1890 2.0791202
1888 2.0254996
1886 1.9163607
1884 1.7698085
1882 1.6074815
1880 1.4493057
1878 1.3140887
1876 1.2212501
1874 1.1881295
1872 1.2206
1870 1.3098979
1868 1.413928
1866 1.47761
1864 1.4740303
1862 1.402344
1860 1.2947897
1858 1.1954018
1856 1.1201142
1854 1.0669438
1852 1.0391574
1850 1.0431169
1848 1.07704
1846 1.1290715
1844 1.1667017
1842 1.1524177
1840 1.0804143
1838 0.96901143
1836 0.84994525
1834 0.75807226
1832 0.71510547
1830 0.72837543
1828 0.78098345
1826 0.84077764
1824 0.87205291
1822 0.84604961
1820 0.76816821
1818 0.66743195
1816 0.57927227
1814 0.53387851
1812 0.53036362
1810 0.54879683
1808 0.57635212
1806 0.60921401
1804 0.65231818
1802 0.7136758
1800 0.79263616
1798 0.87924981
1796 0.95053428
1794 0.97672117
1792 0.93372679
1790 0.81381696
1788 0.66158283
1786 0.54705775
1784 0.4956336
1782 0.49868822
1780 0.55301362
1778 0.66159749
1776 0.81816918
1774 0.99887162
1772 1.1340503
1770 1.1371042
1768 0.98874754
1766 0.73089063
1764 0.4486604
1762 0.22955903
1760 0.061019775
1758 -0.1238694
1756 -0.29592744
1754 -0.3582269
1752 -0.26916006
1750 -0.051467866
1748 0.21126321
1746 0.40741751
1744 0.47007978
1742 0.39060068
1740 0.25301367
1738 0.18564214
1736 0.226614
1734 0.32633555
1732 0.38369724
1730 0.29412797
1728 0.067084573
1726 -0.19259065
1724 -0.35840788
1722 -0.30985618
1720 0.030164167
1718 0.68011045
1716 1.5427172
1714 2.4452639
1712 3.2588458
1710 3.9331481
1708 4.5671902
1706 5.3690987
1704 6.5402684
1702 8.2412605
1700 10.54551
1698 13.413712
1696 16.583857
1694 19.664181
1692 22.444597
1690 24.94174
1688 27.424532
1686 30.302906
1684 33.802353
1682 37.883686
1680 42.107719
1678 45.848755
1676 49.024971
1674 52.051598
1672 55.325394
1670 59.071003
1668 63.161522
1666 67.227646
1664 71.073853
1662 74.70089
1660 78.120682
1658 81.325729
1656 84.330315
1654 87.165672
1652 89.836296
1650 92.281639
1648 94.25103
1646 95.39257
1644 95.651093
1642 95.241516
1640 94.290222
1638 92.782539
1636 90.639954
1634 87.796524
1632 84.403214
1630 80.78054
1628 77.098206
1626 73.340317
1624 69.439644
1622 65.334633
1620 61.066357
1618 56.774868
1616 52.6036
1614 48.676834
1612 45.105396
1610 41.974468
1608 39.278027
1606 36.927734
1604 34.846272
1602 32.989475
1600 31.346109
1598 29.927134
1596 28.728001
1594 27.722811
1592 26.881195
1590 26.17576
1588 25.598419
1586 25.163557
1584 24.891577
1582 24.80829
1580 24.959221
1578 25.396338
1576 26.115343
1574 27.040676
1572 28.036581
1570 28.940809
1568 29.705801
1566 30.414785
1564 31.173872
1562 32.109966
1560 33.455521
1558 35.476353
1556 38.065445
1554 40.72274
1552 43.017452
1550 44.738056
1548 45.984489
1546 47.115463
1544 48.332439
1542 49.584709
1540 50.686237
1538 51.382637
1536 51.538086
1534 51.187572
1532 50.496208
1530 49.713375
1528 48.983257
1526 48.293301
1524 47.544136
1522 46.581284
1520 45.277622
1518 43.582302
1516 41.604713
1514 39.589153
1512 37.623322
1510 35.572124
1508 33.255775
1506 30.543413
1504 27.556114
1502 24.667658
1500 22.109102
1498 19.86587
1496 17.829285
1494 15.850849
1492 13.834435
1490 11.75906
1488 9.6184797
1486 7.4201527
1484 5.2646279
1482 3.35221
1480 1.8179971
1478 0.70468414
1476 0.12048728
1474 0.22841322
1472 0.92466712
1470 1.787895
1468 2.5348711
1466 3.1561384
1464 3.7415404
1462 4.4139485
1460 5.1995292
1458 5.9793277
1456 6.5563998
1454 6.7115908
1452 6.4292121
1450 5.9506779
1448 5.4682226
1446 5.0321927
1444 4.6503739
1442 4.3156171
1440 4.0247388
1438 3.7778897
1436 3.5409684
1434 3.2395065
1432 2.829607
1430 2.3286369
1428 1.80471
1426 1.3699592
1424 1.1056502
1422 1.0309806
1420 1.1205801
1418 1.3081387
1416 1.5309286
1414 1.748225
1412 1.9483718
1410 2.1528473
1408 2.3834891
1406 2.6518013
1404 2.9653583
1402 3.3281727
1400 3.73594
1398 4.1710906
1396 4.5993214
1394 4.9682579
1392 5.2351623
1390 5.3791895
1388 5.3961329
1386 5.3011551
1384 5.1220465
1382 4.8974109
1380 4.6603112
1378 4.428401
1376 4.1967316
1374 3.9348445
1372 3.6278579
1370 3.2930701
1368 2.954808
1366 2.6327693
1364 2.3196554
1362 1.9730844
1360 1.5733445
1358 1.1494819
1356 0.7492733
1354 0.42655003
1352 0.20080706
1350 0.037935525
1348 -0.090049244
1346 -0.18055108
1344 -0.2138932
1342 -0.16080071
1340 -0.030018657
1338 0.10703548
1336 0.17845772
1334 0.14222404
1332 0.0092543587
1330 -0.137621
1328 -0.22240846
1326 -0.20998544
1324 -0.091346055
1322 0.11303647
1320 0.36787254
1318 0.6251564
1316 0.84011197
1314 0.98184204
1312 1.0443617
1310 1.0577537
1308 1.0542641
1306 1.0537894
1304 1.0634137
1302 1.0740269
1300 1.0805489
1298 1.090826
1296 1.1137143
1294 1.1535671
1292 1.2092068
1290 1.2720833
1288 1.33746
1286 1.4102871
1284 1.4966817
1282 1.6004964
1280 1.7206812
1278 1.8489169
1276 1.9793458
1274 2.114224
1272 2.2604325
1270 2.4292181
1268 2.6319113
1266 2.8774228
1264 3.1725783
1262 3.5207865
1260 3.9191959
1258 4.3553967
1256 4.8179002
1254 5.3023405
1252 5.8127871
1250 6.3648672
1248 6.9676857
1246 7.6110001
1244 8.2709208
1242 8.9061537
1240 9.4782381
1238 9.9631567
1236 10.349985
1234 10.646736
1232 10.862679
1230 11.00037
1228 11.054969
1226 11.012535
1224 10.86288
1222 10.609856
1220 10.265179
1218 9.8451777
1216 9.3599367
1214 8.811718
1212 8.2046785
1210 7.5529361
1208 6.8749537
1206 6.1936994
1204 5.52985
1202 4.8967266
1200 4.3020406
1198 3.7442322
1196 3.2169929
1194 2.7084584
1192 2.2114937
1190 1.732263
1188 1.2815604
1186 0.87349492
1184 0.51954949
1182 0.2243045
1180 -0.006145522
1178 -0.15958518
1176 -0.227396
1174 -0.21343462
1172 -0.13552019
1170 -0.034822594
1168 0.049396008
1166 0.09602654
1164 0.10104619
1162 0.088280052
1160 0.081801452
1158 0.090468273
1156 0.11200714
1154 0.1276785
1152 0.12003227
1150 0.084248282
1148 0.024343584
1146 -0.041962788
1144 -0.09209273
1142 -0.10053453
1140 -0.047744285
1138 0.069455728
1136 0.24369857
1134 0.45264971
1132 0.67629284
1130 0.91016769
1128 1.1665595
1126 1.4868801
1124 1.8991828
1122 2.3821685
1120 2.8989601
1118 3.4047811
1116 3.8670528
1114 4.2880359
1112 4.6774855
1110 5.0427847
1108 5.389883
1106 5.7220802
1104 6.0400724
1102 6.3393531
1100 6.6208401
1098 6.9019527
1096 7.2044711
1094 7.5508752
1092 7.9540739
1090 8.4011841
1088 8.8707066
1086 9.3346748
1084 9.7630501
1082 10.124599
1080 10.394052
1078 10.56457
1076 10.647015
1074 10.685704
1072 10.725543
1070 10.789558
1068 10.883778
1066 10.984836
1064 11.05984
1062 11.083376
1060 11.03506
1058 10.907089
1056 10.703657
1054 10.454093
1052 10.189304
1050 9.9235706
1048 9.6592731
1046 9.3777571
1044 9.0647182
1042 8.7317266
1040 8.3923731
1038 8.0461082
1036 7.6841898
1034 7.2842722
1032 6.8312807
1030 6.3403354
1028 5.8378129
1026 5.3600645
1024 4.937108
1022 4.5728598
1020 4.2602339
1018 3.9786928
1016 3.7085056
1014 3.441745
1012 3.174279
1010 2.903919
1008 2.6328521
1006 2.3742979
1004 2.1357255
1002 1.9002534
1000 1.6425314
998 1.3312353
996 0.95100641
994 0.5404138
992 0.14949641
990 -0.17828813
988 -0.40941039
986 -0.53744501
984 -0.56640971
982 -0.51309955
980 -0.4047052
978 -0.29151896
976 -0.21622029
974 -0.17668261
972 -0.14856781
970 -0.071110196
968 0.10571404
966 0.36506552
964 0.66371489
962 0.92563111
960 1.0852292
958 1.140991
956 1.1114542
954 1.0300584
952 0.92109442
950 0.76400959
948 0.54653215
946 0.32405716
944 0.14782189
942 -0.0052078515
940 -0.163021
938 -0.3054961
936 -0.40934628
934 -0.48301506
932 -0.53213078
930 -0.52350831
928 -0.43150419
926 -0.29420108
924 -0.16388911
922 -0.086497858
920 -0.091373004
918 -0.15137404
916 -0.22977972
914 -0.30719084
912 -0.37240121
910 -0.42934421
908 -0.49100322
906 -0.59088832
904 -0.75876981
902 -0.98956203
900 -1.2555243
898 -1.4735044
896 -1.5465
