Image.
>Pix99999.
  .
5555
5555
2300
900
5555
2
1
0
701
5555
9.2369998e-003
9.4292257e-003
9.6213501e-003
9.8134754e-003
1.0005899e-002
1.0197628e-002
1.0390346e-002
1.0582079e-002
1.0773806e-002
1.0966519e-002
1.1158257e-002
1.1350967e-002
1.1542709e-002
1.1735415e-002
1.1927160e-002
1.2119864e-002
1.2311611e-002
1.2503337e-002
1.2696037e-002
1.2887788e-002
1.3080486e-002
1.3272240e-002
1.3464934e-002
1.3656692e-002
1.3848417e-002
1.4041107e-002
5.2178284e-004
8.2443468e-003
2.8536284e-002
4.6204351e-002
6.3430272e-002
5.1774342e-002
3.7189178e-002
3.5329442e-003
-2.7844464e-002
-3.3720650e-002
-3.0195553e-002
1.0400802e-002
5.2146137e-002
9.1355346e-002
1.1977943e-001
1.2495685e-001
1.3026540e-001
1.3801411e-001
1.6297817e-001
2.0920679e-001
2.6099300e-001
3.1684658e-001
3.5500836e-001
3.7974837e-001
3.9029714e-001
3.9318660e-001
3.8139978e-001
3.6339617e-001
3.2096055e-001
2.7072144e-001
2.3293841e-001
1.9814394e-001
2.0873781e-001
2.2633213e-001
2.6378971e-001
3.0250585e-001
3.3510950e-001
3.6661500e-001
3.9517167e-001
4.2406714e-001
4.5527190e-001
4.8161578e-001
4.9488819e-001
4.9705961e-001
4.8064601e-001
4.6318385e-001
4.4698498e-001
4.3742979e-001
4.3521327e-001
4.3506894e-001
4.3607730e-001
4.4566959e-001
4.6115488e-001
4.8161548e-001
5.0444996e-001
5.0699270e-001
5.0087065e-001
4.8321590e-001
4.6212679e-001
4.5542192e-001
4.5214841e-001
4.5125332e-001
4.4985110e-001
4.3236873e-001
4.1246501e-001
3.9155170e-001
3.7539926e-001
3.8090545e-001
3.9118463e-001
4.0632483e-001
4.1231972e-001
3.9658007e-001
3.7027419e-001
3.3165646e-001
2.9875860e-001
2.7574658e-001
2.7374059e-001
2.9201058e-001
3.2895726e-001
3.7888148e-001
4.2166206e-001
4.5851728e-001
4.7079727e-001
4.7060317e-001
4.4606572e-001
4.1203952e-001
3.5093081e-001
2.8140682e-001
2.0538235e-001
1.2856700e-001
7.8951940e-002
3.8008377e-002
3.0595869e-002
3.3397369e-002
5.5994257e-002
8.0478311e-002
9.7959466e-002
1.0882327e-001
1.0651623e-001
1.0462321e-001
1.0871320e-001
1.1814040e-001
1.3361725e-001
1.3504489e-001
1.1785685e-001
7.6181501e-002
1.4139993e-002
-4.0827524e-002
-8.7205373e-002
-9.5263265e-002
-7.9554737e-002
-4.0089518e-002
9.9648051e-003
4.3159064e-002
6.8536602e-002
6.2174980e-002
4.5163177e-002
1.3760757e-002
-2.1569904e-002
-5.9764884e-002
-9.8657392e-002
-1.3666570e-001
-1.7498577e-001
-2.1464720e-001
-2.5602856e-001
-3.0097303e-001
-3.3925641e-001
-3.6146140e-001
-3.6422980e-001
-3.4112236e-001
-3.0725572e-001
-2.6692858e-001
-2.3422626e-001
-2.1130820e-001
-2.1621285e-001
-2.4461859e-001
-3.0406708e-001
-3.8340423e-001
-4.6180189e-001
-5.3733665e-001
-5.8955640e-001
-6.3003665e-001
-6.3947397e-001
-6.3609642e-001
-6.0306615e-001
-5.6005979e-001
-5.2297193e-001
-4.9185967e-001
-4.9438384e-001
-5.1007247e-001
-5.3971380e-001
-5.6642812e-001
-5.7079524e-001
-5.6377423e-001
-5.4576200e-001
-5.3538918e-001
-5.4572719e-001
-5.7459134e-001
-6.2224585e-001
-6.6129142e-001
-6.8149114e-001
-6.6745043e-001
-6.2247467e-001
-5.7907778e-001
-5.4518068e-001
-5.3698993e-001
-5.4666865e-001
-5.4606193e-001
-5.3624111e-001
-5.1055980e-001
-4.7720718e-001
-4.6961042e-001
-4.7483629e-001
-5.0449568e-001
-5.4294425e-001
-5.6965840e-001
-5.8762050e-001
-5.7928729e-001
-5.5562222e-001
-5.1147830e-001
-4.6127424e-001
-4.1630530e-001
-3.7808847e-001
-3.5017708e-001
-3.3116901e-001
-3.1978601e-001
-3.2452035e-001
-3.4841880e-001
-3.8876924e-001
-4.4490743e-001
-4.8637268e-001
-5.0996190e-001
-4.9441639e-001
-4.4689149e-001
-3.8608170e-001
-3.1951067e-001
-2.8966182e-001
-2.8409007e-001
-3.2907081e-001
-4.0024072e-001
-4.6162260e-001
-5.1350623e-001
-5.0253254e-001
-4.6264392e-001
-4.2176899e-001
-3.8833150e-001
-3.8917688e-001
-4.0060106e-001
-3.9702952e-001
-3.6660042e-001
-2.8643206e-001
-1.9817781e-001
-1.3588440e-001
-1.1376391e-001
-1.4086428e-001
-1.9140185e-001
-2.4862371e-001
-2.9135242e-001
-3.1429684e-001
-3.1338251e-001
-2.9393619e-001
-2.7870208e-001
-2.7071080e-001
-2.8213704e-001
-3.0752215e-001
-3.2514486e-001
-3.3695519e-001
-3.1765419e-001
-2.8085217e-001
-2.3609114e-001
-1.8989062e-001
-1.6274118e-001
-1.4936431e-001
-1.5235269e-001
-1.6654314e-001
-1.9084783e-001
-2.0963272e-001
-2.0127618e-001
-1.6871126e-001
-1.1265058e-001
-5.5449881e-002
-1.3631113e-002
1.0530925e-002
-7.4261203e-002
-2.3385799e-001
-4.0850237e-001
-5.8415174e-001
-7.5298524e-001
-8.7819594e-001
-9.5995319e-001
-9.8486286e-001
-9.6916395e-001
-9.6049583e-001
-9.6411198e-001
-9.6590799e-001
-9.6301025e-001
-8.6949110e-001
-7.1303415e-001
-5.3849334e-001
-3.6038008e-001
-2.2398990e-001
-1.1307366e-001
1.2917858e-002
2.0979640e-001
6.2549627e-001
1.2370982e+000
2.0394697e+000
2.9538727e+000
3.8974259e+000
4.9644108e+000
6.2437067e+000
8.0177956e+000
1.0438361e+001
1.3754274e+001
1.7958570e+001
2.2153629e+001
2.5945501e+001
2.9144522e+001
3.1821400e+001
3.4913338e+001
3.8553589e+001
4.3236065e+001
4.8782478e+001
5.3942532e+001
5.8683830e+001
6.3236259e+001
6.7704941e+001
7.2713593e+001
7.8079323e+001
8.3123001e+001
8.7754539e+001
9.1598602e+001
9.4706856e+001
9.7137100e+001
9.8906830e+001
1.0005544e+002
1.0051720e+002
1.0026447e+002
9.9389900e+001
9.8037575e+001
9.6503105e+001
9.5037155e+001
9.3396797e+001
9.1468102e+001
8.8831558e+001
8.5400604e+001
8.1527237e+001
7.7395622e+001
7.3148056e+001
6.8838341e+001
6.4166397e+001
5.9137436e+001
5.4153107e+001
4.9258801e+001
4.4735516e+001
4.0609695e+001
3.7032852e+001
3.4006031e+001
3.1438057e+001
2.9301201e+001
2.7432928e+001
2.5853615e+001
2.4554817e+001
2.3546204e+001
2.2797501e+001
2.2317026e+001
2.2074829e+001
2.2075495e+001
2.2291195e+001
2.2700878e+001
2.3268583e+001
2.3974649e+001
2.4796638e+001
2.5863005e+001
2.7215572e+001
2.8960251e+001
3.1112253e+001
3.3475830e+001
3.6000599e+001
3.8420410e+001
4.0698112e+001
4.2817398e+001
4.4804955e+001
4.7140038e+001
4.9807228e+001
5.2345928e+001
5.4571701e+001
5.5941906e+001
5.6461903e+001
5.6568501e+001
5.6169495e+001
5.5234375e+001
5.3741638e+001
5.1777252e+001
4.9647316e+001
4.7789627e+001
4.6122601e+001
4.4554752e+001
4.2984367e+001
4.1329300e+001
3.9538052e+001
3.7574562e+001
3.5439758e+001
3.3116268e+001
3.0873201e+001
2.8807396e+001
2.6805559e+001
2.4862171e+001
2.2502663e+001
1.9602993e+001
1.6762594e+001
1.4058317e+001
1.1861457e+001
1.0232443e+001
8.6569004e+000
7.1391535e+000
5.6309881e+000
4.1739969e+000
2.8526018e+000
1.7368515e+000
8.9418101e-001
3.3911440e-001
2.5338128e-002
-7.0567369e-002
2.6566952e-002
4.5860040e-001
1.2654340e+000
2.3316488e+000
3.6200957e+000
4.9091978e+000
6.0675879e+000
7.1152391e+000
8.0376396e+000
8.9373636e+000
9.8366003e+000
1.0663580e+001
1.1366632e+001
1.1814844e+001
1.1879194e+001
1.1754857e+001
1.1367340e+001
1.0884730e+001
1.0264989e+001
9.5197849e+000
8.6138258e+000
7.5892673e+000
6.4992218e+000
5.5536709e+000
4.7999201e+000
4.2639723e+000
3.9253635e+000
3.7004898e+000
3.6040251e+000
3.6447277e+000
3.8312171e+000
4.1861849e+000
4.6274247e+000
5.1130714e+000
5.5970702e+000
6.0520658e+000
6.4517851e+000
6.7552118e+000
6.9500999e+000
6.9688969e+000
6.8947215e+000
6.6739783e+000
6.4410715e+000
6.1845746e+000
5.9307160e+000
5.6773000e+000
5.4118958e+000
5.1258860e+000
4.8145833e+000
4.4580579e+000
4.0316200e+000
3.5241919e+000
2.9602540e+000
2.3585050e+000
1.7832686e+000
1.2355356e+000
7.1899211e-001
2.5319445e-001
-1.2977464e-001
-3.9695281e-001
-4.7464672e-001
-4.1368788e-001
-1.8528697e-001
1.4506921e-001
6.0204697e-001
1.0898821e+000
1.5984161e+000
2.0663607e+000
2.4402452e+000
2.7472498e+000
2.9195285e+000
3.0322387e+000
3.0267947e+000
2.9631729e+000
2.8061972e+000
2.6234863e+000
2.4178894e+000
2.2472255e+000
2.1290948e+000
2.0546036e+000
2.0240099e+000
1.9987328e+000
1.9716651e+000
1.9300089e+000
1.8735069e+000
1.8071142e+000
1.7364994e+000
1.6700109e+000
1.6222491e+000
1.6208062e+000
1.6728572e+000
1.8287852e+000
2.0567586e+000
2.4130764e+000
2.8211079e+000
3.3162036e+000
3.8028805e+000
4.2491426e+000
4.6404057e+000
4.9063144e+000
5.1250000e+000
5.2558661e+000
5.3750138e+000
5.4821248e+000
5.6180811e+000
5.8046093e+000
6.0503221e+000
6.3768559e+000
6.7705898e+000
7.2446671e+000
7.7896085e+000
8.4063768e+000
9.0891552e+000
9.8233156e+000
1.0594628e+001
1.1379250e+001
1.2149405e+001
1.2881936e+001
1.3506691e+001
1.4028576e+001
1.4307072e+001
1.4425609e+001
1.4168200e+001
1.3746941e+001
1.2915243e+001
1.1986035e+001
1.0812715e+001
9.6389503e+000
8.4757433e+000
7.4053421e+000
6.5358372e+000
5.8165259e+000
5.3611560e+000
5.0510635e+000
4.9450412e+000
4.9088578e+000
4.9366379e+000
4.9114628e+000
4.8066468e+000
4.5543957e+000
4.1697931e+000
3.6674926e+000
3.1003520e+000
2.5413980e+000
2.0087268e+000
1.5701822e+000
1.1894035e+000
9.1964960e-001
7.0324898e-001
6.0201365e-001
5.4244995e-001
5.8839810e-001
6.5799236e-001
7.9502702e-001
9.3411499e-001
1.0765921e+000
1.1961045e+000
1.2559100e+000
1.2779018e+000
1.2230135e+000
1.1408043e+000
1.0141532e+000
8.7564677e-001
7.2221726e-001
5.6838357e-001
4.1727251e-001
2.8372508e-001
1.6960411e-001
8.2765006e-002
1.4435243e-002
-5.3270318e-002
-1.2324300e-001
-1.4431626e-001
-1.3603403e-001
-7.1540840e-002
2.2371173e-002
1.9062625e-001
3.7460020e-001
5.7210958e-001
7.5466967e-001
8.5062432e-001
9.3491328e-001
9.7670490e-001
1.0203969e+000
1.0694506e+000
1.1128399e+000
1.1440172e+000
1.1890061e+000
1.2664239e+000
1.3919263e+000
1.5950571e+000
1.8356627e+000
2.1233139e+000
2.4251471e+000
2.7395868e+000
3.0482249e+000
3.3440046e+000
3.5811698e+000
3.7697778e+000
3.8586721e+000
3.8903058e+000
3.8316860e+000
3.7366347e+000
3.5915618e+000
3.4384198e+000
3.3072965e+000
3.1863840e+000
3.1200233e+000
3.0556288e+000
2.9865034e+000
2.9117742e+000
2.8133011e+000
2.7211437e+000
2.6506960e+000
2.6000874e+000
2.5987570e+000
2.6235750e+000
2.6979275e+000
2.7912941e+000
2.9111049e+000
3.0256801e+000
3.1316435e+000
3.2105720e+000
3.2615242e+000
3.2691445e+000
3.2396870e+000
3.1310856e+000
2.9699781e+000
2.6901257e+000
2.3583345e+000
1.9594144e+000
1.5477701e+000
1.1940739e+000
8.5911262e-001
6.2429678e-001
4.0260559e-001
2.3694725e-001
7.4069463e-002
-7.2786734e-002
-2.1476114e-001
-3.3423215e-001
-4.3416578e-001
-4.7268143e-001
-4.8901775e-001
-4.5485160e-001
-4.1946384e-001
-3.8186327e-001
-3.4564704e-001
-3.1061262e-001
-2.6682800e-001
-2.1474200e-001
-1.7352259e-001
-1.4337794e-001
-1.5695377e-001
-1.9823663e-001
-2.6498550e-001
-3.4036842e-001
-3.5980073e-001
-3.5722587e-001
-2.6891518e-001
-1.6219804e-001
-5.1457509e-002
5.6047801e-002
7.4772611e-002
8.5802361e-002
3.8426787e-002
2.9503182e-004
9.9362396e-003
5.3996086e-002
2.0961690e-001
3.8751602e-001
6.3084149e-001
8.8225609e-001
1.1500071e+000
1.3833869e+000
1.5605108e+000
1.6712060e+000
1.7009408e+000
1.7026817e+000
1.6784234e+000
1.6609157e+000
1.6480033e+000
1.6327126e+000
1.6167310e+000
1.6399318e+000
1.6792514e+000
1.8124039e+000
1.9704881e+000
2.1541376e+000
2.3420858e+000
2.5418999e+000
