##TITLE=Methyl Ethyl Ketone
##JCAMP-DX=4.24
##DATA TYPE=INFRARED SPECTRUM
##XUNITS=cm-1
##YUNITS=Absorbance
##FIRSTX=900
##LASTX=2300
##XYDATA=(X++(Y..Y))
2296 -0.025432
2294 -0.025961244
2292 -0.026490485
2290 -0.02701973
2288 -0.027547976
2286 -0.028077215
2284 -0.028606458
2282 -0.0291357
2280 -0.029664943
2278 -0.030194186
2276 -0.030722443
2274 -0.031251669
2272 -0.031780913
2270 -0.032310158
2268 -0.032839403
2266 -0.033368643
2264 -0.033896908
2262 -0.03442613
2260 -0.034955371
2258 -0.035484612
2256 -0.036013857
2254 -0.036543101
2252 -0.037071373
2250 -0.037600584
2248 -0.038129829
2246 -0.038659073
2244 -0.0014366115
2242 0.029796593
2240 0.057385281
2238 0.053985465
2236 0.046062071
2234 0.052696537
2232 0.061297473
2230 0.090306394
2228 0.12090041
2226 0.15647601
2224 0.19463824
2222 0.24357881
2220 0.29297501
2218 0.34209996
2216 0.38107398
2214 0.39791861
2212 0.4038308
2210 0.39402279
2208 0.38866493
2206 0.39004365
2204 0.39712977
2202 0.40927139
2200 0.40694314
2198 0.39354119
2196 0.38456428
2194 0.37856331
2192 0.41196561
2190 0.46256724
2188 0.53192979
2186 0.6070047
2184 0.67125875
2182 0.73293239
2180 0.76847249
2178 0.79993767
2176 0.81533426
2174 0.83048761
2172 0.85965502
2170 0.89062458
2168 0.92435688
2166 0.95650762
2164 0.98195982
2162 1.0078114
2160 1.0363926
2158 1.0680457
2156 1.1049501
2154 1.1528199
2152 1.2156657
2150 1.284373
2148 1.3578665
2146 1.4067714
2144 1.4334508
2142 1.4453559
2140 1.4486326
2138 1.4817244
2136 1.5314257
2134 1.5895613
2132 1.6504309
2130 1.6641226
2128 1.662624
2126 1.6198649
2124 1.5678623
2122 1.5245324
2120 1.4852028
2118 1.4933929
2116 1.51299
2114 1.5678
2112 1.624848
2110 1.6686333
2108 1.7033746
2106 1.7168021
2104 1.7275188
2102 1.739251
2100 1.746834
2098 1.7472849
2096 1.7355429
2094 1.7092122
2092 1.6933109
2090 1.6904471
2088 1.7233354
2086 1.7840099
2084 1.8605673
2082 1.9451001
2080 2.0124948
2078 2.0704398
2076 2.11057
2074 2.1438305
2072 2.1851199
2070 2.2292325
2068 2.2744899
2066 2.3190894
2064 2.312968
2062 2.2933097
2060 2.2328639
2058 2.1660221
2056 2.108217
2054 2.0584009
2052 2.0314214
2050 2.0127451
2048 2.0047452
2046 2.0000858
2044 1.998234
2042 2.0070043
2040 2.0303273
2038 2.0690336
2036 2.1219742
2034 2.1776576
2032 2.2337022
2030 2.2809119
2028 2.3218429
2026 2.3508086
2024 2.3731422
2022 2.3896055
2020 2.4037597
2018 2.4003289
2016 2.38936
2014 2.3507447
2012 2.3025398
2010 2.2617261
2008 2.2244909
2006 2.2156315
2004 2.2158542
2002 2.2312469
2000 2.2510715
1998 2.2760019
1996 2.2997499
1994 2.3177974
1992 2.3289156
1990 2.3249049
1988 2.317584
1986 2.3075914
1984 2.3057442
1982 2.3164496
1980 2.3401735
1978 2.3767278
1976 2.4204144
1974 2.4688151
1972 2.5115576
1970 2.5498445
1968 2.5564559
1966 2.5432658
1964 2.4836352
1962 2.4002843
1960 2.322372
1958 2.2478621
1956 2.21506
1954 2.1968484
1952 2.1822417
1950 2.1668544
1948 2.146594
1946 2.1295002
1944 2.1351819
1942 2.1525958
1940 2.1764157
1938 2.1950319
1936 2.1925144
1934 2.1797459
1932 2.162632
1930 2.1415038
1928 2.1195567
1926 2.100925
1924 2.0890305
1922 2.1064804
1920 2.1519074
1918 2.2068529
1916 2.2607598
1914 2.288434
1912 2.2965205
1910 2.3004522
1908 2.3051143
1906 2.3083756
1904 2.3101799
1902 2.2969472
1900 2.2758229
1898 2.2761846
1896 2.2863715
1894 2.3206232
1892 2.3563924
1890 2.334702
1888 2.2762263
1886 2.1486413
1884 2.0038826
1882 1.8843356
1880 1.7954417
1878 1.7594951
1876 1.7473
1874 1.7507967
1872 1.7620354
1870 1.7805883
1868 1.79196
1866 1.7845386
1864 1.7399206
1862 1.655453
1860 1.5664518
1858 1.4852096
1856 1.41768
1854 1.3623804
1852 1.3002169
1850 1.2347071
1848 1.1891119
1846 1.1585357
1844 1.1547463
1842 1.1659167
1840 1.1614691
1838 1.1483511
1836 1.1454101
1834 1.15079
1832 1.1934817
1830 1.2498593
1828 1.2898355
1826 1.2996707
1824 1.233411
1822 1.1243987
1820 0.99200642
1818 0.8711127
1816 0.79322314
1814 0.74963409
1812 0.73627824
1810 0.72705507
1808 0.70862293
1806 0.6894275
1804 0.6715849
1802 0.6572054
1800 0.64861804
1798 0.63650817
1796 0.62148857
1794 0.62696809
1792 0.64349318
1790 0.66545647
1788 0.68505013
1786 0.65936506
1784 0.60249686
1782 0.50974566
1780 0.39727336
1778 0.29861879
1776 0.22004201
1774 0.19713421
1772 0.20947026
1770 0.22601296
1768 0.2296804
1766 0.18763365
1764 0.1225512
1762 0.063092165
1760 0.015970886
1758 -0.065906063
1756 -0.16104186
1754 -0.23645881
1752 -0.26700893
1750 -0.2468484
1748 -0.20424223
1746 -0.15726893
1744 -0.16295058
1742 -0.22724515
1740 -0.3012988
1738 -0.37089503
1736 -0.34266001
1734 -0.23472872
1732 -0.11219524
1730 0.0078859292
1728 0.0045315195
1726 -0.083238319
1724 -0.14045945
1722 -0.14811739
1720 0.010296687
1718 0.30703503
1716 0.78103185
1714 1.3387076
1712 1.8008314
1710 2.2028551
1708 2.6002278
1706 3.1636419
1704 4.0608354
1702 5.5418797
1700 7.7231984
1698 10.787807
1696 14.680429
1694 18.64456
1692 22.333975
1690 25.599802
1688 28.497051
1686 31.865414
1684 35.801006
1682 40.569027
1680 46.000519
1678 50.880131
1676 55.219284
1674 59.434212
1672 63.642582
1670 68.597427
1668 74.110336
1666 79.5802
1664 84.859535
1662 89.465759
1660 93.422531
1658 96.740128
1656 99.483253
1654 101.7691
1652 103.4884
1650 104.52623
1648 104.4264
1646 102.8325
1644 100.25973
1642 97.244728
1640 93.916702
1638 90.411491
1636 86.327888
1634 81.564789
1632 76.670914
1630 71.848038
1628 67.310806
1626 63.075172
1624 58.772678
1622 54.356766
1620 50.045761
1618 45.856861
1616 41.925488
1614 38.275688
1612 35.072636
1610 32.328831
1608 30.029776
1606 28.149521
1604 26.531334
1602 25.1896
1600 24.104383
1598 23.285463
1596 22.709499
1594 22.352907
1592 22.150343
1590 22.075129
1588 22.081749
1586 22.17152
1584 22.340269
1582 22.56991
1580 22.848082
1578 23.21242
1576 23.673485
1574 24.299385
1572 25.097288
1570 26.035351
1568 27.10096
1566 28.242464
1564 29.460022
1562 30.899675
1560 32.652264
1558 35.255978
1556 38.773956
1554 42.605049
1552 46.531429
1550 49.624668
1548 51.891163
1546 53.786144
1544 55.306164
1542 56.568726
1540 57.482841
1538 57.932243
1536 57.833427
1534 57.172401
1532 56.067055
1530 54.726074
1528 53.229515
1526 51.649651
1524 49.954742
1522 48.113926
1520 46.10368
1518 43.882694
1516 41.668499
1514 39.53611
1512 37.433079
1510 35.373299
1508 32.845936
1506 29.709421
1504 26.539902
1502 23.387234
1500 20.725077
1498 18.607689
1496 16.523285
1494 14.461553
1492 12.337517
1490 10.157978
1488 7.9655433
1486 5.8342896
1484 3.90749
1482 2.2865996
1480 1.0884306
1478 0.33878329
1476 0.059570685
1474 0.35208842
1472 1.1622084
1470 2.1813951
1468 3.2152834
1466 4.0803151
1464 4.6554456
1462 5.1042199
1460 5.477571
1458 5.8495421
1456 6.2360601
1454 6.5618691
1452 6.7745318
1450 6.8798828
1448 6.8255925
1446 6.7185678
1444 6.5395937
1442 6.334095
1440 6.0892243
1438 5.7858739
1436 5.4009271
1434 4.9093332
1432 4.3245978
1430 3.7491827
1428 3.2145181
1426 2.7959943
1424 2.4977221
1422 2.3051991
1420 2.2190049
1418 2.2205787
1416 2.2989428
1414 2.4441471
1412 2.6249266
1410 2.8424187
1408 3.0822053
1406 3.3494635
1404 3.6459818
1402 3.9776278
1400 4.3438044
1398 4.7594571
1396 5.1947141
1394 5.6496987
1392 6.0418978
1390 6.302475
1388 6.4163599
1386 6.2951899
1384 6.0445538
1382 5.6230102
1380 5.1626234
1378 4.6644359
1376 4.1730027
1374 3.7057886
1372 3.2742319
1370 2.8860652
1368 2.5434942
1366 2.2104928
1364 1.8321166
1362 1.4143809
1360 0.95564842
1358 0.52904308
1356 0.22676086
1354 0.032230511
1352 -0.0045572273
1350 0.031628557
1348 0.12738341
1346 0.24374571
1344 0.41325882
1342 0.60057712
1340 0.81650364
1338 1.0294894
1336 1.2295429
1334 1.4204191
1332 1.5786991
1330 1.735936
1328 1.8931344
1326 2.0691464
1324 2.2862039
1322 2.5437069
1320 2.8615565
1318 3.2144146
1316 3.59693
1314 3.9581845
1312 4.2764721
1310 4.5224729
1308 4.6931257
1306 4.7954359
1304 4.8443437
1302 4.8472948
1300 4.8236966
1298 4.7751646
1296 4.7182145
1294 4.6555614
1292 4.5962009
1290 4.5468884
1288 4.5076642
1286 4.4899659
1284 4.4828801
1282 4.4971085
1280 4.5139346
1278 4.5347843
1276 4.5495915
1274 4.5565867
1272 4.5679522
1270 4.5928712
1268 4.6411195
1266 4.7227578
1264 4.8222332
1262 4.9398885
1260 5.0596681
1258 5.1806216
1256 5.2989316
1254 5.4129148
1252 5.5185809
1250 5.6148143
1248 5.6964574
1246 5.7660751
1244 5.8165126
1242 5.8523917
1240 5.8615932
1238 5.8485336
1236 5.7872543
1234 5.6874456
1232 5.492672
1230 5.2546496
1228 4.907836
1226 4.5379086
1224 4.1097245
1222 3.6680257
1220 3.1940548
1218 2.7147851
1216 2.2285514
1214 1.7649148
1212 1.343998
1210 0.96031845
1208 0.63192284
1206 0.33736551
1204 0.087608039
1202 -0.12072086
1200 -0.28143722
1198 -0.39305487
1196 -0.46269286
1194 -0.50347012
1192 -0.52493691
1190 -0.53403813
1188 -0.5325079
1186 -0.50970507
1184 -0.47157332
1182 -0.39928779
1180 -0.30034536
1178 -0.1234026
1176 0.089072794
1174 0.40289024
1172 0.72510213
1170 1.0542841
1168 1.3513377
1166 1.54615
1164 1.6945785
1162 1.726382
1160 1.7147292
1158 1.6143066
1156 1.4784729
1154 1.2858061
1152 1.0830504
1150 0.87087703
1148 0.67764199
1146 0.50727463
1144 0.3563031
1142 0.2248275
1140 0.11369742
1138 0.027681891
1136 0.0038999142
1134 0.027996004
1132 0.14874899
1130 0.31252101
1128 0.50859642
1126 0.7055316
1124 0.86144429
1122 0.99951535
1120 1.081404
1118 1.1559583
1116 1.21903
1114 1.2908573
1112 1.3996326
1110 1.5087754
1108 1.6165192
1106 1.6998301
1104 1.7205931
1102 1.712327
1100 1.6479748
1098 1.5777438
1096 1.4997286
1094 1.4312103
1092 1.375618
1090 1.3310887
1088 1.3002366
1086 1.2915128
1084 1.3016483
1082 1.3256311
1080 1.3534532
1078 1.3478349
1076 1.3184286
1074 1.2255311
1072 1.1101463
1070 0.98220861
1068 0.8588593
1066 0.79025149
1064 0.73308557
1062 0.70840287
1060 0.68187815
1058 0.63295096
1056 0.58284998
1054 0.52854198
1052 0.48614296
1050 0.4818759
1048 0.48175663
1046 0.48894858
1044 0.47020724
1042 0.40105447
1040 0.306842
1038 0.17779565
1036 0.062088296
1034 -0.035351213
1032 -0.10154299
1030 -0.14031997
1028 -0.18349846
1026 -0.2325045
1024 -0.31191325
1022 -0.4055742
1020 -0.48118877
1018 -0.54553926
1016 -0.56138086
1014 -0.56408656
1012 -0.56568104
1010 -0.57076812
1008 -0.6183852
1006 -0.67185217
1004 -0.75258017
1002 -0.82617259
1000 -0.84905028
998 -0.85242355
996 -0.77006358
994 -0.68017423
992 -0.56815737
990 -0.46851128
988 -0.39758107
986 -0.33366528
984 -0.28149182
982 -0.23079139
980 -0.18330321
978 -0.16226076
976 -0.17008571
974 -0.203912
972 -0.25743625
970 -0.29298022
968 -0.31578887
966 -0.30904102
964 -0.28808451
962 -0.25113329
960 -0.20946023
958 -0.17194401
956 -0.13676357
954 -0.12977335
952 -0.1262112
950 -0.12191121
948 -0.11281334
946 -0.03637575
944 0.0022452325
942 0.070099935
940 0.21180128
938 0.39899129
936 0.58646488
934 0.7750119
932 0.96343482
930 1.151165
928 1.3217801
926 1.4638858
924 1.5503839
922 1.5686744
920 1.5396434
918 1.4661087
916 1.3711228
914 1.2602313
912 1.0992615
910 0.91227502
908 0.71202672
906 0.50854975
904 0.41361409
902 0.34860215
900 0.4400444
898 0.55707872
896 0.78683001
