Image.
>Pix99999.
  .
5555
5555
2300
900
5555
2
1
0
701
5555
1.0670000e-001
1.0896676e-001
1.1123352e-001
1.1350027e-001
1.1576703e-001
1.1803379e-001
1.2030055e-001
1.2256730e-001
1.2483406e-001
1.2710081e-001
1.2936758e-001
1.3164417e-001
1.3390125e-001
1.3615802e-001
1.3843440e-001
1.4076985e-001
1.4296971e-001
1.4500071e-001
1.4750519e-001
1.5066369e-001
1.5207113e-001
1.5100420e-001
1.5647149e-001
1.7112812e-001
1.6154760e-001
1.0039757e-001
2.5200905e-002
-1.3577159e-002
1.3411360e-002
1.1755999e-001
2.6255685e-001
4.0243974e-001
5.0691187e-001
5.5857676e-001
5.7327807e-001
5.6964445e-001
5.3875268e-001
4.6914196e-001
3.7214041e-001
2.7204981e-001
2.1792172e-001
2.4812768e-001
3.2834160e-001
4.0411705e-001
4.2869240e-001
3.7429884e-001
2.7930239e-001
1.9530427e-001
1.4537469e-001
1.3550700e-001
1.3953215e-001
1.2909733e-001
1.0731035e-001
8.8528864e-002
9.2061594e-002
1.3185218e-001
1.9437520e-001
2.5836369e-001
3.0681410e-001
3.2821015e-001
3.2694915e-001
3.1374481e-001
3.0405194e-001
3.1434110e-001
3.5923314e-001
4.4648027e-001
5.5827481e-001
6.6888118e-001
7.5509137e-001
8.0203652e-001
8.2486498e-001
8.4548551e-001
8.7191051e-001
9.0403467e-001
9.2903811e-001
9.3455428e-001
9.2738634e-001
9.2277652e-001
9.4271272e-001
1.0033157e+000
1.0875800e+000
1.1659437e+000
1.2042991e+000
1.1792010e+000
1.1148441e+000
1.0494928e+000
1.0097598e+000
1.0088029e+000
1.0252120e+000
1.0305550e+000
1.0211529e+000
1.0067370e+000
1.0120091e+000
1.0607928e+000
1.1514683e+000
1.2663857e+000
1.3641989e+000
1.4005446e+000
1.3545060e+000
1.2256849e+000
1.0588000e+000
9.1223240e-001
8.3007312e-001
8.3726680e-001
9.0564162e-001
9.8959601e-001
1.0570480e+000
1.0891645e+000
1.0982742e+000
1.1042658e+000
1.1082343e+000
1.1024894e+000
1.0762680e+000
1.0221081e+000
9.5157230e-001
8.8323915e-001
8.3171052e-001
8.0544877e-001
7.9547113e-001
7.8652906e-001
7.6709598e-001
7.3104215e-001
6.8683386e-001
6.4721972e-001
6.1741179e-001
5.9847748e-001
5.8865041e-001
5.8792126e-001
6.0786486e-001
6.6201597e-001
7.5076187e-001
8.6434090e-001
9.7549051e-001
1.0560571e+000
1.1050303e+000
1.1382407e+000
1.1898034e+000
1.2890302e+000
1.4131051e+000
1.5170003e+000
1.5630600e+000
1.5305700e+000
1.4523848e+000
1.3763559e+000
1.3118955e+000
1.2506565e+000
1.1886940e+000
1.1277469e+000
1.0787257e+000
1.0513680e+000
1.0314357e+000
9.9821085e-001
9.5210052e-001
9.0724093e-001
8.9002943e-001
9.2608452e-001
1.0156357e+000
1.1426111e+000
1.2755477e+000
1.3794625e+000
1.4344486e+000
1.4320570e+000
1.3799800e+000
1.2929817e+000
1.1853166e+000
1.0706722e+000
9.6416968e-001
8.7941766e-001
8.1978321e-001
7.8128302e-001
7.5062013e-001
7.1357948e-001
6.7063826e-001
6.3106096e-001
6.0821700e-001
6.1190248e-001
6.2998569e-001
6.4025301e-001
6.2656605e-001
5.8280814e-001
5.2863371e-001
4.9392986e-001
4.9550200e-001
5.3652519e-001
5.9569973e-001
6.4243919e-001
6.5983909e-001
6.4522904e-001
6.2147373e-001
6.2027597e-001
6.5467787e-001
7.2280365e-001
8.0676395e-001
8.8515389e-001
9.5554245e-001
1.0258104e+000
1.1001040e+000
1.1784264e+000
1.2554462e+000
1.3245950e+000
1.3852857e+000
1.4376428e+000
1.4692878e+000
1.4638040e+000
1.4204371e+000
1.3513814e+000
1.2823700e+000
1.2416714e+000
1.2391959e+000
1.2707287e+000
1.3188400e+000
1.3612348e+000
1.3830086e+000
1.3784254e+000
1.3614475e+000
1.3557693e+000
1.3793777e+000
1.4414430e+000
1.5319422e+000
1.6293278e+000
1.7108172e+000
1.7550708e+000
1.7445557e+000
1.6680794e+000
1.5316401e+000
1.3563250e+000
1.1834817e+000
1.0597663e+000
1.0047296e+000
1.0152291e+000
1.0675657e+000
1.1304770e+000
1.1883389e+000
1.2361209e+000
1.2662446e+000
1.2698150e+000
1.2453617e+000
1.1984813e+000
1.1442640e+000
1.1002792e+000
1.0700144e+000
1.0472645e+000
1.0276340e+000
1.0112419e+000
1.0080845e+000
1.0286350e+000
1.0560278e+000
1.0562694e+000
1.0035009e+000
8.8900441e-001
7.4781859e-001
6.3933361e-001
6.0326278e-001
6.5221369e-001
7.5231969e-001
8.4472513e-001
8.9221466e-001
8.8173288e-001
8.2545686e-001
7.4719769e-001
6.5465915e-001
5.4463750e-001
4.2440140e-001
3.1082010e-001
2.2310886e-001
1.7502935e-001
1.5303940e-001
1.2243313e-001
4.1095886e-002
-1.2128956e-001
-3.2812157e-001
-5.0268275e-001
-6.0855192e-001
-6.5055251e-001
-6.5770704e-001
-6.6943461e-001
-7.1385205e-001
-8.0157882e-001
-9.0916771e-001
-9.9219424e-001
-1.0199400e+000
-9.8150802e-001
-8.9406800e-001
-7.9002833e-001
-6.8298697e-001
-5.6765407e-001
-4.3055448e-001
-2.6063079e-001
-7.5659409e-002
9.6314847e-002
2.8592986e-001
5.5663687e-001
8.9600062e-001
1.2394716e+000
1.5913900e+000
2.0315821e+000
2.6923606e+000
3.7563267e+000
5.4939580e+000
8.1513138e+000
1.1550343e+001
1.5177389e+001
1.8596228e+001
2.1572315e+001
2.4263880e+001
2.7110371e+001
3.0453478e+001
3.4405720e+001
3.8601921e+001
4.2405937e+001
4.5676785e+001
4.8758492e+001
5.2037849e+001
5.5783981e+001
5.9907749e+001
6.4046600e+001
6.7955345e+001
7.1545624e+001
7.4757607e+001
7.7544701e+001
7.9933395e+001
8.2025734e+001
8.3993317e+001
8.6002922e+001
8.7955307e+001
8.9535782e+001
9.0551300e+001
9.0980255e+001
9.0896637e+001
9.0413559e+001
8.9547127e+001
8.8222076e+001
8.6401611e+001
8.4097984e+001
8.1307693e+001
7.8017227e+001
7.4270477e+001
7.0177849e+001
6.5907013e+001
6.1657001e+001
5.7579742e+001
5.3772430e+001
5.0312023e+001
4.7252930e+001
4.4578522e+001
4.2208973e+001
4.0064770e+001
3.8087318e+001
3.6252453e+001
3.4567200e+001
3.3053497e+001
3.1737232e+001
3.0628874e+001
2.9720480e+001
2.8989714e+001
2.8404221e+001
2.7937531e+001
2.7577570e+001
2.7339897e+001
2.7266691e+001
2.7406258e+001
2.7797188e+001
2.8429245e+001
2.9238138e+001
3.0133240e+001
3.1013828e+001
3.1804790e+001
3.2505730e+001
3.3349308e+001
3.4749454e+001
3.6876328e+001
3.9548012e+001
4.2313496e+001
4.4583080e+001
4.6138706e+001
4.7195786e+001
4.7977818e+001
4.8617931e+001
4.9235779e+001
4.9925552e+001
5.0616173e+001
5.1077221e+001
5.1170212e+001
5.0901497e+001
5.0315235e+001
4.9460049e+001
4.8360119e+001
4.7023384e+001
4.5516010e+001
4.3969131e+001
4.2490257e+001
4.1110458e+001
3.9703041e+001
3.7997524e+001
3.5817131e+001
3.3167480e+001
3.0261240e+001
2.7474407e+001
2.5002989e+001
2.2776241e+001
2.0652857e+001
1.8486053e+001
1.6201870e+001
1.3821108e+001
1.1401686e+001
9.0272436e+000
6.8093677e+000
4.8704786e+000
3.2459192e+000
1.8815455e+000
8.3081150e-001
2.8075755e-001
3.0408406e-001
7.8517210e-001
1.5406568e+000
2.3668950e+000
3.1359880e+000
3.8253770e+000
4.4417334e+000
5.0001774e+000
5.5143199e+000
5.9885182e+000
6.3986340e+000
6.6900034e+000
6.8283854e+000
6.8183146e+000
6.6864719e+000
6.4723592e+000
6.1877122e+000
5.8032045e+000
5.2815800e+000
4.5981669e+000
3.7881331e+000
2.9605694e+000
2.2139781e+000
1.6050100e+000
1.1569737e+000
8.6069942e-001
7.0795697e-001
7.0035356e-001
8.3251631e-001
1.0848379e+000
1.4267260e+000
1.8187716e+000
2.2325702e+000
2.6589906e+000
3.0979495e+000
3.5546160e+000
4.0275478e+000
4.5031157e+000
4.9608855e+000
5.3739462e+000
5.7128687e+000
5.9480281e+000
6.0584965e+000
6.0391898e+000
5.9043541e+000
5.6894159e+000
5.4209166e+000
5.1048951e+000
4.7403002e+000
4.3263006e+000
3.8845122e+000
3.4645774e+000
3.0881319e+000
2.7235358e+000
2.3239751e+000
1.8475235e+000
1.3088849e+000
8.0448270e-001
4.1866940e-001
1.8180370e-001
7.4592061e-002
2.3305826e-002
-2.8468050e-002
-8.8005424e-002
-1.3890280e-001
-1.4751911e-001
-9.4661936e-002
8.4879622e-003
1.3924012e-001
2.6873198e-001
3.7516448e-001
4.5179459e-001
5.0232381e-001
5.4230094e-001
5.9133738e-001
6.6963464e-001
7.8745311e-001
9.3755734e-001
1.1051900e+000
1.2703800e+000
1.4165828e+000
1.5354660e+000
1.6211572e+000
1.6697378e+000
1.6817108e+000
1.6650940e+000
1.6328732e+000
1.6023988e+000
1.5870428e+000
1.5915288e+000
1.6172123e+000
1.6637641e+000
1.7324320e+000
1.8272586e+000
1.9501820e+000
2.0977037e+000
2.2616446e+000
2.4278755e+000
2.5844285e+000
2.7263589e+000
2.8599389e+000
3.0082226e+000
3.1964142e+000
3.4452465e+000
3.7651360e+000
4.1504617e+000
4.5948319e+000
5.0977454e+000
5.6605773e+000
6.2838893e+000
6.9590306e+000
7.6613011e+000
8.3687849e+000
9.0724506e+000
9.7670689e+000
1.0446856e+001
1.1093920e+001
1.1670876e+001
1.2147171e+001
1.2516772e+001
1.2778720e+001
1.2927836e+001
1.2950657e+001
1.2820950e+001
1.2526240e+001
1.2084490e+001
1.1528902e+001
1.0910950e+001
1.0280926e+001
9.6754646e+000
9.1172161e+000
8.6019220e+000
8.1153297e+000
7.6353106e+000
7.1404161e+000
6.6148839e+000
6.0459948e+000
5.4261751e+000
4.7585502e+000
4.0671754e+000
3.3830492e+000
2.7404799e+000
2.1629663e+000
1.6499821e+000
1.2011443e+000
8.2862002e-001
5.5268908e-001
4.0206477e-001
3.8683200e-001
4.7125652e-001
6.0242945e-001
7.1589214e-001
7.6414829e-001
7.4456710e-001
6.7457443e-001
5.9149653e-001
5.2678096e-001
4.8722795e-001
4.6763358e-001
4.4926560e-001
4.1463101e-001
3.5695493e-001
2.7633739e-001
1.8334143e-001
9.4098836e-002
3.0532945e-002
4.2828973e-003
1.6196021e-003
1.9314241e-002
9.1647513e-002
2.4831986e-001
4.8633647e-001
7.9044926e-001
1.1354849e+000
1.5009532e+000
1.8826804e+000
2.2784960e+000
2.6797991e+000
3.0666986e+000
3.3972628e+000
3.6400142e+000
3.8034940e+000
3.9191413e+000
4.0479951e+000
4.2378759e+000
4.4841590e+000
4.7653093e+000
5.0507445e+000
5.3214283e+000
5.5939817e+000
5.8924222e+000
6.2375402e+000
6.6410713e+000
7.0922074e+000
7.5707512e+000
8.0467520e+000
8.4889593e+000
8.8702087e+000
9.1702414e+000
9.3842764e+000
9.5161390e+000
9.5827951e+000
9.6042194e+000
9.5997992e+000
9.5853157e+000
9.5667028e+000
9.5427847e+000
9.4993448e+000
9.4182625e+000
9.2794313e+000
9.0666771e+000
8.7774677e+000
8.4239683e+000
8.0499926e+000
7.7027979e+000
7.4149947e+000
7.1989269e+000
7.0190763e+000
6.8304801e+000
6.5966258e+000
6.2923779e+000
5.9210615e+000
5.4995465e+000
5.0631514e+000
4.6447229e+000
4.2544761e+000
3.8930516e+000
3.5496118e+000
3.2190399e+000
2.9220612e+000
2.6744449e+000
2.4582822e+000
2.2407680e+000
1.9712114e+000
1.6144162e+000
1.1978475e+000
7.6945120e-001
3.9299047e-001
1.2028936e-001
-4.7900178e-002
-1.3166697e-001
-1.7720163e-001
-2.2799537e-001
-2.9787043e-001
-3.8888830e-001
-4.8852986e-001
-5.8038080e-001
-6.4706349e-001
-6.7220175e-001
-6.4368248e-001
-5.5505401e-001
-4.1531175e-001
-2.3789702e-001
-3.8272396e-002
1.6759840e-001
3.6401284e-001
5.3612220e-001
6.7192799e-001
7.6056957e-001
7.9276329e-001
7.5826275e-001
6.4284563e-001
4.4834515e-001
2.3651540e-001
7.5230107e-002
1.1669882e-003
4.0748075e-002
2.1064171e-001
5.0025970e-001
8.0932182e-001
1.0314785e+000
1.1201041e+000
1.0556527e+000
8.6381406e-001
5.8353853e-001
2.6104018e-001
-5.4642916e-002
-3.1089103e-001
-4.6032271e-001
-4.7901046e-001
-3.6063835e-001
-1.4422131e-001
1.1711499e-001
3.5943443e-001
5.2008772e-001
5.5223113e-001
4.3102899e-001
2.0344511e-001
-6.5596998e-002
