##TITLE=Methyl Ethyl Ketone
##JCAMP-DX=4.24
##DATA TYPE=INFRARED SPECTRUM
##XUNITS=cm-1
##YUNITS=Absorbance
##FIRSTX=900
##LASTX=2300
##XYDATA=(X++(Y..Y))
2296 -0.0069468999
2294 -0.0070913932
2292 -0.0072358865
2290 -0.0073804795
2288 -0.0075249728
2286 -0.0076694661
2284 -0.0078140581
2282 -0.0079585528
2280 -0.0081030456
2278 -0.0082475394
2276 -0.0083920322
2274 -0.0085366247
2272 -0.0086811194
2270 -0.0088256132
2268 -0.008970106
2266 -0.0091146966
2264 -0.0092591932
2262 -0.009403686
2260 -0.0095481798
2258 -0.0096927695
2256 -0.0098372661
2254 -0.0099818567
2252 -0.010126449
2250 -0.010271235
2248 -0.010415063
2246 -0.010559822
2244 -0.00039241428
2242 0.037967779
2240 0.074493557
2238 0.090204038
2236 0.10287999
2234 0.092659615
2232 0.080960549
2230 0.073048882
2228 0.06712766
2226 0.075773999
2224 0.089757346
2222 0.12483341
2220 0.16529731
2218 0.21874695
2216 0.26769659
2214 0.30518106
2212 0.34082279
2210 0.37454295
2208 0.41326165
2206 0.45836049
2204 0.49345747
2202 0.51850039
2200 0.52765661
2198 0.52541071
2196 0.52526498
2194 0.5267905
2192 0.55200613
2190 0.5875808
2188 0.64328355
2186 0.70529932
2184 0.77008361
2182 0.83541054
2180 0.89092606
2178 0.94446903
2176 0.95614803
2174 0.96133864
2172 0.93649608
2170 0.91327381
2168 0.91568106
2166 0.92859417
2164 0.97077209
2162 1.0156957
2160 1.0603577
2158 1.1010276
2156 1.1343399
2154 1.1638383
2152 1.1887801
2150 1.2112745
2148 1.2315751
2146 1.2463785
2144 1.2565469
2142 1.260537
2140 1.2606333
2138 1.2778993
2136 1.3047228
2134 1.3542365
2132 1.4127418
2130 1.449316
2128 1.478556
2126 1.4622321
2124 1.4353786
2122 1.4045025
2120 1.3744589
2118 1.3715729
2116 1.3752729
2114 1.398507
2112 1.4297812
2110 1.4842943
2108 1.541692
2106 1.5977135
2104 1.6352412
2102 1.6325917
2100 1.61549
2098 1.5842236
2096 1.5645858
2094 1.5628701
2092 1.561206
2090 1.5569769
2088 1.5373983
2086 1.505285
2084 1.4789009
2082 1.4574795
2080 1.4497331
2078 1.4489
2076 1.4495742
2074 1.4506255
2072 1.454412
2070 1.4591252
2068 1.4706992
2066 1.4841657
2064 1.5020846
2062 1.5211909
2060 1.5417769
2058 1.560323
2056 1.5663829
2054 1.5642704
2052 1.5420663
2050 1.5181293
2048 1.500752
2046 1.4947785
2044 1.50886
2042 1.5284714
2040 1.5499954
2038 1.5680304
2036 1.5807272
2034 1.5894028
2032 1.5951194
2030 1.597801
2028 1.598766
2026 1.6035007
2024 1.6111263
2022 1.6171235
2020 1.6222143
2018 1.6026834
2016 1.57248
2014 1.5317816
2012 1.487388
2010 1.4640567
2008 1.4464206
2006 1.4338406
2004 1.4223194
2002 1.4103409
2000 1.4037782
1998 1.4232444
1996 1.4548072
1994 1.5040946
1992 1.5474057
1990 1.5652646
1988 1.564056
1986 1.5374628
1984 1.5058755
1982 1.4757061
1980 1.4508817
1978 1.4328479
1976 1.4385886
1974 1.4656551
1972 1.5254704
1970 1.6075811
1968 1.6678234
1966 1.7115886
1964 1.701008
1962 1.6624154
1960 1.634516
1958 1.6125907
1956 1.6198928
1954 1.6362182
1952 1.619608
1950 1.5896367
1948 1.5430008
1946 1.499725
1944 1.5008286
1942 1.524474
1940 1.5710211
1938 1.6109477
1936 1.6133143
1934 1.5912781
1932 1.545624
1930 1.5006107
1928 1.4704081
1926 1.4569786
1924 1.4619428
1922 1.4727347
1920 1.4830874
1918 1.480544
1916 1.4634458
1914 1.4432572
1912 1.4233583
1910 1.4228251
1908 1.4356874
1906 1.4558436
1904 1.478416
1902 1.4912672
1900 1.4986049
1898 1.5064404
1896 1.5145143
1894 1.527279
1892 1.5408908
1890 1.544558
1888 1.5427287
1886 1.52913
1884 1.5111678
1882 1.4922369
1880 1.4699829
1878 1.4427989
1876 1.40599
1874 1.3593905
1872 1.3138955
1870 1.2777805
1868 1.2715491
1866 1.2931544
1864 1.3257852
1862 1.35641
1860 1.3578945
1858 1.335741
1856 1.2862629
1854 1.2222003
1852 1.1423694
1850 1.0560564
1848 0.956352
1846 0.85210675
1844 0.77136934
1842 0.70717329
1840 0.70238465
1838 0.72651124
1836 0.77569085
1834 0.83466023
1832 0.8997041
1830 0.96383953
1828 1.0102599
1826 1.0340943
1824 1.0059931
1822 0.94851977
1820 0.87488496
1818 0.80849403
1816 0.77157456
1814 0.75004458
1812 0.73798066
1810 0.71457237
1808 0.6718694
1806 0.61922753
1804 0.5616281
1802 0.49155301
1800 0.41368502
1798 0.32673496
1796 0.23467714
1794 0.19688626
1792 0.1950848
1790 0.25274408
1788 0.34120405
1786 0.40776464
1784 0.45603502
1782 0.47184777
1780 0.46594712
1778 0.44618139
1776 0.41685599
1774 0.37934646
1772 0.3394433
1770 0.29103488
1768 0.23744075
1766 0.17365329
1764 0.10624672
1762 0.049035542
1760 0.014697522
1758 -0.048169579
1756 -0.11173298
1754 -0.13909161
1752 -0.13141543
1750 -0.092872061
1748 -0.07173124
1746 -0.08190421
1744 -0.15803176
1742 -0.29529592
1740 -0.42020896
1738 -0.52180463
1736 -0.50397402
1734 -0.39294618
1732 -0.24456377
1730 -0.082748912
1728 -0.03320501
1726 -0.06343092
1724 -0.093885273
1722 -0.1032065
1720 -0.0081706978
1718 0.17817566
1716 0.54465985
1714 1.027379
1712 1.4947498
1710 1.9362679
1708 2.350692
1706 2.87448
1704 3.6430366
1702 4.9252195
1700 6.8593917
1698 9.7091541
1696 13.463572
1694 17.372009
1692 21.073738
1690 24.365711
1688 27.279972
1686 30.682064
1684 34.671654
1682 39.528469
1680 45.077839
1678 50.001633
1676 54.32103
1674 58.477314
1672 62.598915
1670 67.489449
1668 72.951004
1666 78.346695
1664 83.550423
1662 88.142525
1660 92.162827
1658 95.660828
1656 98.632172
1654 101.08674
1652 102.7982
1650 103.53387
1648 103.10823
1646 101.43393
1644 99.096107
1642 96.642189
1640 93.915443
1638 90.87085
1636 87.050125
1634 82.356171
1632 77.476273
1630 72.666855
1628 68.19751
1626 64.089088
1624 59.909397
1622 55.602772
1620 51.329277
1618 47.110355
1616 43.142914
1614 39.455738
1612 36.237679
1610 33.49226
1608 31.161806
1606 29.221558
1604 27.523798
1602 26.092232
1600 24.930187
1598 24.04487
1596 23.4035
1594 22.982498
1592 22.719011
1590 22.591326
1588 22.558931
1586 22.615765
1584 22.750069
1582 22.958479
1580 23.236013
1578 23.634109
1576 24.167315
1574 24.866863
1572 25.729191
1570 26.695057
1568 27.74584
1566 28.803286
1564 29.861773
1562 31.047274
1560 32.449211
1558 34.7267
1556 37.970402
1554 41.720047
1552 45.746284
1550 48.943588
1548 51.307747
1546 53.256962
1544 54.829285
1542 56.235779
1540 57.392399
1538 58.179214
1536 58.434486
1534 58.038113
1532 57.134827
1530 55.959099
1528 54.578728
1526 53.056499
1524 51.310661
1522 49.280739
1520 47.024014
1518 44.537182
1516 42.156227
1514 40.004757
1512 37.89716
1510 35.818089
1508 33.228664
1506 29.979057
1504 26.744297
1502 23.585636
1500 20.914469
1498 18.778511
1496 16.640713
1494 14.493809
1492 12.302381
1490 10.08322
1488 7.8926821
1486 5.8018546
1484 3.93033
1482 2.3654611
1480 1.1948892
1478 0.42768142
1476 0.075532019
1474 0.24478516
1472 0.87691891
1470 1.719468
1468 2.6341703
1466 3.4626422
1464 4.1089387
1462 4.6562529
1460 5.1243157
1458 5.5491133
1456 5.9232202
1454 6.2286558
1452 6.4227452
1450 6.5163684
1448 6.4606223
1446 6.3466358
1444 6.1561451
1442 5.958344
1440 5.7466507
1438 5.4932413
1436 5.1691771
1434 4.7176728
1432 4.1399846
1430 3.5298219
1428 2.9285941
1426 2.4470665
1424 2.1054766
1422 1.9125043
1420 1.8657463
1418 1.9425035
1416 2.1085999
1414 2.3306379
1412 2.57179
1410 2.8208895
1408 3.0792377
1406 3.3559949
1404 3.654078
1402 3.9776411
1400 4.320168
1398 4.6867113
1396 5.0622573
1394 5.4441166
1392 5.7834206
1390 6.0314574
1388 6.1783109
1386 6.1591001
1384 6.030015
1382 5.7466516
1380 5.3882155
1378 4.9418416
1376 4.4653659
1374 3.9768846
1372 3.5247679
1370 3.1193995
1368 2.7674155
1366 2.4285328
1364 2.0364654
1362 1.5964283
1360 1.1059408
1358 0.6428833
1356 0.30395317
1354 0.076190919
1352 0.012488445
1350 0.031092837
1348 0.12396279
1346 0.22812036
1344 0.37051481
1342 0.53287911
1340 0.73204541
1338 0.94134545
1336 1.1642572
1334 1.3799177
1332 1.5686551
1330 1.752987
1328 1.9312971
1326 2.1216443
1324 2.3397226
1322 2.5845523
1320 2.8719201
1318 3.1885242
1316 3.52912
1314 3.8493609
1312 4.1299477
1310 4.3448138
1308 4.4957838
1306 4.597506
1304 4.6571612
1302 4.6734552
1300 4.6574883
1298 4.5984693
1296 4.525557
1294 4.4488382
1292 4.381043
1290 4.3375835
1288 4.305336
1286 4.2923636
1284 4.2832808
1282 4.2788043
1280 4.2723556
1278 4.2612987
1276 4.253273
1274 4.2545772
1272 4.2662764
1270 4.298285
1268 4.341619
1266 4.4025607
1264 4.4814763
1262 4.5823493
1260 4.6986561
1258 4.8293538
1256 4.9610972
1254 5.0932775
1252 5.2246113
1250 5.3540587
1248 5.4790015
1246 5.5971498
1244 5.6970911
1242 5.7786212
1240 5.8198714
1238 5.8283315
1236 5.7661643
1234 5.6639738
1232 5.474956
1230 5.2499895
1228 4.9366379
1226 4.5918322
1224 4.1626
1222 3.7072594
1220 3.1911516
1218 2.6745682
1216 2.1621428
1214 1.6828873
1212 1.2641371
1210 0.88800776
1208 0.5754934
1206 0.30286056
1204 0.079420105
1202 -0.11318623
1200 -0.27375644
1198 -0.413068
1196 -0.52834713
1194 -0.60628241
1192 -0.65330458
1190 -0.65939051
1188 -0.64535105
1186 -0.62258267
1184 -0.5916357
1182 -0.53900397
1180 -0.45678934
1178 -0.27345008
1176 -0.044342011
1174 0.31470898
1172 0.6870327
1170 1.0783868
1168 1.4297411
1166 1.6541944
1164 1.8204495
1162 1.842504
1160 1.827545
1158 1.7389605
1156 1.6335229
1154 1.4997735
1152 1.3529394
1150 1.1870424
1148 1.0046954
1146 0.8040961
1144 0.59554094
1142 0.38522208
1140 0.20216227
1138 0.048782252
1136 -0.042462315
1134 -0.087128699
1132 -0.034131624
1130 0.069099128
1128 0.24042732
1126 0.43008447
1124 0.61900789
1122 0.79668987
1120 0.91548443
1118 1.0180358
1116 1.0628142
1114 1.1072809
1112 1.1555234
1110 1.2151825
1108 1.3106129
1106 1.407575
1104 1.5061635
1102 1.5896193
1100 1.6421034
1098 1.6793777
1096 1.6924
1094 1.6952847
1092 1.687482
1090 1.6904429
1088 1.7081126
1086 1.7571071
1084 1.8281094
1082 1.8857428
1080 1.9261692
1078 1.8994291
1076 1.8353143
1074 1.7179358
1072 1.5824623
1070 1.4422011
1068 1.30788
1066 1.2249229
1064 1.1582559
1062 1.1625367
1060 1.170648
1058 1.1798091
1056 1.1779971
1054 1.1275703
1052 1.0694083
1050 0.98659503
1048 0.89876372
1046 0.79874933
1044 0.69595057
1042 0.58840621
1040 0.4880276
1038 0.39811236
1036 0.31221399
1034 0.2296533
1032 0.13384239
1030 0.024263129
1028 -0.1095718
1026 -0.25977978
1024 -0.4092285
1022 -0.5555827
1020 -0.67235285
1018 -0.77657771
1016 -0.86648685
1014 -0.95135027
1012 -1.0230585
1010 -1.0896744
1008 -1.124692
1006 -1.1545393
1004 -1.1549228
1002 -1.1525842
1000 -1.1339258
998 -1.1155906
996 -1.0990214
994 -1.08258
992 -1.0664864
990 -1.0485228
988 -1.0266331
986 -1.0059888
984 -0.98718077
982 -0.96843469
980 -0.94971442
978 -0.93472338
976 -0.9241094
974 -0.92059034
972 -0.9232592
970 -0.9351297
968 -0.95242566
966 -0.97180355
964 -0.98998123
962 -0.96715856
960 -0.92799491
958 -0.81863219
956 -0.69281471
954 -0.53056931
952 -0.3657428
950 -0.24285063
948 -0.12403418
946 -0.040217467
944 0.0013914183
942 0.043268315
940 0.12497954
938 0.20946759
936 0.28228
934 0.321895
932 0.39262569
930 0.53008795
928 0.69039446
926 0.88567162
924 1.01028
922 1.0478165
920 1.009846
918 0.90169966
916 0.78401899
914 0.65969372
912 0.54822731
910 0.44439781
908 0.378405
906 0.3281545
904 0.33726487
902 0.36281943
900 0.44425938
898 0.5350396
896 0.71648002
