##TITLE=Methyl Ethyl Ketone
##JCAMP-DX=4.24
##DATA TYPE=INFRARED SPECTRUM
##XUNITS=cm-1
##YUNITS=Absorbance
##FIRSTX=900
##LASTX=2300
##XYDATA=(X++(Y..Y))
2296 0.013183
2294 0.013457607
2292 0.013731217
2290 0.014005822
2288 0.014279434
2286 0.014554036
2284 0.014828643
2282 0.01510226
2280 0.015376857
2278 0.015650477
2276 0.015925072
2274 0.016200664
2272 0.016474303
2270 0.016744968
2268 0.01702244
2266 0.017307872
2264 0.017570989
2262 0.017804341
2260 0.018117875
2258 0.018545302
2256 0.0186726
2254 0.018377241
2252 0.019198066
2250 0.021591598
2248 0.019839073
2246 0.010076949
2244 0.002810359
2242 0.0067391894
2240 0.0070590838
2238 -0.011329969
2236 -0.037852999
2234 -0.054895662
2232 -0.046192206
2230 -0.0045508444
2228 0.042438194
2226 0.061143298
2224 0.034237571
2222 -0.042237196
2220 -0.1379652
2218 -0.2165249
2216 -0.25739515
2214 -0.25033695
2212 -0.20679261
2210 -0.14187904
2208 -0.059431121
2206 0.037125513
2204 0.13173659
2202 0.20579669
2200 0.2463444
2198 0.24663571
2196 0.21780428
2194 0.17373951
2192 0.11698075
2190 0.047963195
2188 -0.026443465
2186 -0.095678784
2184 -0.1427108
2182 -0.15239258
2180 -0.12553495
2178 -0.068825901
2176 0.0082647428
2174 0.096045554
2172 0.18712102
2170 0.27261552
2168 0.3345117
2166 0.35442078
2164 0.32506043
2162 0.24891935
2160 0.15301794
2158 0.06911166
2156 0.0148184
2154 -0.0032666815
2152 -0.0031253777
2150 -0.0049142209
2148 -0.0036161023
2146 0.015535483
2144 0.070610419
2142 0.17123771
2140 0.28860223
2138 0.38345054
2136 0.42924085
2134 0.4114641
2132 0.34474474
2130 0.25316128
2128 0.1573416
2126 0.075366683
2124 0.021334533
2122 0.005489524
2120 0.027912101
2118 0.082718976
2116 0.15461652
2114 0.2274821
2112 0.29564804
2110 0.3578853
2108 0.41479105
2106 0.46561614
2104 0.501773
2102 0.51471829
2100 0.50844759
2098 0.49268296
2096 0.48059571
2094 0.48342115
2092 0.49975216
2090 0.52239245
2088 0.5408507
2086 0.54537404
2084 0.53394878
2082 0.5080114
2080 0.47046497
2078 0.42475232
2076 0.37473243
2074 0.3268947
2072 0.29813641
2070 0.30669373
2068 0.35879606
2066 0.45112884
2064 0.56184614
2062 0.6641705
2060 0.7417174
2058 0.78532267
2056 0.79649425
2054 0.78149956
2052 0.74874806
2050 0.70843107
2048 0.67523181
2046 0.6630621
2044 0.67465979
2042 0.70489299
2040 0.73589098
2038 0.74868906
2036 0.74155015
2034 0.7215696
2032 0.70018715
2030 0.68730241
2028 0.68001282
2026 0.67296052
2024 0.67475259
2022 0.69991398
2020 0.76029176
2018 0.8590923
2016 0.96958798
2014 1.0548315
2012 1.0915852
2010 1.0717554
2008 1.0215349
2006 0.97827959
2004 0.96060908
2002 0.97472423
2000 1.0149075
1998 1.0725944
1996 1.1479071
1994 1.2413678
1992 1.3350492
1990 1.4031798
1988 1.425024
1986 1.3886271
1984 1.3078126
1982 1.2082893
1980 1.11484
1978 1.0499381
1976 1.0326571
1974 1.0771381
1972 1.1828749
1970 1.3353375
1968 1.4891292
1966 1.5875771
1964 1.5902171
1962 1.4787046
1960 1.29036
1958 1.0877135
1956 0.92386574
1954 0.83486325
1952 0.81273001
1950 0.82804716
1948 0.85359043
1946 0.87092996
1944 0.88767737
1942 0.92207533
1940 0.9807511
1938 1.0591501
1936 1.1347771
1934 1.1797724
1932 1.182092
1930 1.1422544
1928 1.0759257
1926 1.0068096
1924 0.96136177
1922 0.95985317
1920 0.99172366
1918 1.030916
1916 1.0573828
1914 1.0626456
1912 1.0681331
1910 1.1020961
1908 1.1514994
1906 1.1806614
1904 1.159976
1902 1.0779147
1900 0.97675902
1898 0.92108208
1896 0.94156712
1894 1.0377693
1892 1.1683254
1890 1.274979
1888 1.3180177
1886 1.2784357
1884 1.1731617
1882 1.0372195
1880 0.89857602
1878 0.77712989
1876 0.68313396
1874 0.62395567
1872 0.61678702
1870 0.67795783
1868 0.79204971
1866 0.92320073
1864 1.0314205
1862 1.0840631
1860 1.0836649
1858 1.0505898
1856 0.98965204
1854 0.89390504
1852 0.75508505
1850 0.5696609
1848 0.35360718
1846 0.13830061
1844 -0.029579729
1842 -0.10348745
1840 -0.074301474
1838 0.037003186
1836 0.1834102
1834 0.31227919
1832 0.40749389
1830 0.47866085
1828 0.54018617
1826 0.60200036
1824 0.65234524
1822 0.66864204
1820 0.64250797
1818 0.5787437
1816 0.49291545
1814 0.40490103
1812 0.32789022
1810 0.27164856
1808 0.25331628
1806 0.287406
1804 0.35182512
1802 0.39975244
1800 0.38567451
1798 0.28353176
1796 0.13797186
1794 0.033171792
1792 0.017988492
1790 0.10168736
1788 0.24903286
1786 0.40364721
1784 0.53511274
1782 0.63546318
1780 0.70227551
1778 0.7360844
1776 0.74551255
1774 0.74310154
1772 0.73413569
1770 0.71349132
1768 0.65504581
1766 0.53018856
1764 0.36378801
1762 0.20830385
1760 0.058707312
1758 -0.12258256
1756 -0.30800286
1754 -0.4249773
1752 -0.43990737
1750 -0.3640283
1748 -0.25082669
1746 -0.17480965
1744 -0.18684646
1742 -0.30124328
1740 -0.46070665
1738 -0.56873119
1736 -0.580558
1734 -0.50766897
1732 -0.40942645
1730 -0.36228874
1728 -0.38448566
1726 -0.43773964
1724 -0.44672871
1722 -0.31375319
1720 0.063959822
1718 0.75689137
1716 1.6807085
1714 2.6426656
1712 3.5058737
1710 4.2285776
1708 4.9256983
1706 5.8249817
1704 7.1488118
1702 9.0836487
1700 11.751283
1698 15.156736
1696 18.983429
1694 22.709301
1692 26.012159
1690 28.849928
1688 31.561766
1686 34.736305
1684 38.833382
1682 44.015862
1680 49.738117
1678 55.038784
1676 59.648701
1674 63.976795
1672 68.477081
1670 73.415482
1668 78.503784
1666 83.066055
1664 86.746925
1662 89.565048
1660 91.666565
1658 93.233315
1656 94.363739
1654 95.073456
1652 95.361755
1650 95.223503
1648 94.642044
1646 93.61232
1644 92.2323
1642 90.667839
1640 88.966591
1638 87.040672
1636 84.749512
1634 81.960106
1632 78.69072
1630 75.083168
1628 71.18486
1626 66.940025
1624 62.33704
1622 57.451588
1620 52.489864
1618 47.747639
1616 43.424427
1614 39.596458
1612 36.278336
1610 33.439308
1608 31.013239
1606 28.915508
1604 27.097366
1602 25.553461
1600 24.294817
1598 23.337851
1596 22.679501
1594 22.295362
1592 22.152588
1590 22.216314
1588 22.466045
1586 22.893314
1584 23.486223
1582 24.23913
1580 25.198053
1578 26.461357
1576 28.129799
1574 30.268864
1572 32.817371
1570 35.590294
1568 38.400723
1566 41.097679
1564 43.582058
1562 45.844971
1560 48.096416
1558 50.679806
1556 53.555573
1554 56.249092
1552 58.291965
1550 59.38839
1548 59.607403
1546 59.333675
1544 58.737103
1542 57.680996
1540 56.007759
1538 53.660812
1536 50.867287
1534 48.109509
1532 45.693848
1530 43.64814
1528 41.873051
1526 40.190147
1524 38.413441
1522 36.389393
1520 34.080891
1518 31.593292
1516 29.118359
1514 26.87289
1512 24.87344
1510 22.904385
1508 20.775494
1506 18.419071
1504 15.963028
1502 13.705777
1500 11.802531
1498 10.188031
1496 8.7435999
1494 7.3539181
1492 5.9733396
1490 4.6375804
1488 3.3839486
1486 2.2355728
1484 1.2398953
1482 0.47283813
1480 -0.013810962
1478 -0.19715747
1476 -0.011957705
1474 0.64305973
1472 1.7435846
1470 3.0999351
1468 4.5164332
1466 5.8497372
1464 7.0440607
1462 8.1431732
1460 9.2134428
1458 10.311033
1456 11.4266
1454 12.464245
1452 13.294334
1450 13.783763
1448 13.878348
1446 13.633607
1444 13.138838
1442 12.49127
1440 11.760411
1438 10.969994
1436 10.118011
1434 9.1884546
1432 8.2110996
1430 7.2772427
1428 6.4684162
1426 5.827858
1424 5.3602014
1422 5.0307274
1420 4.8113852
1418 4.6981959
1416 4.7049398
1414 4.8588786
1412 5.1675124
1410 5.6033955
1408 6.1180563
1406 6.6446929
1404 7.1172953
1402 7.4794359
1400 7.6941481
1398 7.7520967
1396 7.6646142
1394 7.4642901
1392 7.1881356
1390 6.8709984
1388 6.5347247
1386 6.1831703
1384 5.8179479
1382 5.4426041
1380 5.0584874
1378 4.6628609
1376 4.25214
1374 3.8239007
1372 3.3823979
1370 2.9387159
1368 2.4896657
1366 2.0103822
1364 1.484804
1362 0.92451555
1360 0.3819682
1358 -0.04292798
1356 -0.27965227
1354 -0.32096073
1352 -0.17703371
1350 0.13502932
1348 0.5866164
1346 1.1347164
1344 1.741812
1342 2.3814211
1340 3.012078
1338 3.5644546
1336 3.9647257
1334 4.1496615
1332 4.1021299
1330 3.8773701
1328 3.5501909
1326 3.1981688
1324 2.8836572
1322 2.6397245
1320 2.4730458
1318 2.3573916
1316 2.25769
1314 2.1395879
1312 1.9845006
1310 1.8010879
1308 1.6087806
1306 1.4344279
1304 1.3032966
1302 1.233938
1300 1.2381815
1298 1.3184782
1296 1.4739572
1294 1.7024558
1292 2.0061204
1290 2.3933368
1288 2.8652601
1286 3.4053521
1284 3.9789557
1282 4.5277848
1280 4.9979315
1278 5.3563256
1276 5.5970039
1274 5.7553639
1272 5.8803487
1270 6.0261297
1268 6.2350659
1266 6.5242457
1264 6.897234
1262 7.3447437
1260 7.861784
1258 8.4567833
1256 9.1416035
1254 9.9280348
1252 10.818624
1250 11.798213
1248 12.848063
1246 13.948
1244 15.065174
1242 16.14658
1240 17.125103
1238 17.913082
1236 18.436642
1234 18.650343
1232 18.528801
1230 18.070137
1228 17.28896
1226 16.225357
1224 14.943406
1222 13.543946
1220 12.141737
1218 10.859825
1216 9.800231
1214 9.0152264
1212 8.5244389
1210 8.3028564
1208 8.302949
1206 8.4504442
1204 8.6518526
1202 8.7895689
1200 8.7589293
1198 8.4988537
1196 7.9933143
1194 7.2998381
1192 6.4923458
1190 5.641808
1188 4.8073683
1186 4.0251637
1184 3.3276434
1182 2.7499382
1180 2.3206966
1178 2.05162
1176 1.93866
1174 1.951075
1172 2.0461385
1170 2.1696591
1168 2.2722762
1166 2.3223658
1164 2.3045082
1162 2.2302279
1160 2.1163034
1158 1.9764051
1156 1.8180101
1154 1.6357634
1152 1.4245749
1150 1.1869103
1148 0.93204123
1146 0.68087858
1144 0.456772
1142 0.27975234
1140 0.14975093
1138 0.02374544
1136 -0.13203429
1134 -0.3050437
1132 -0.46982351
1130 -0.59677601
1128 -0.65915561
1126 -0.6405924
1124 -0.53789341
1122 -0.37348697
1120 -0.17429718
1118 0.036842912
1116 0.23910743
1114 0.41413099
1112 0.54361385
1110 0.60936034
1108 0.60706127
1106 0.56681651
1104 0.52495658
1102 0.51196039
1100 0.54877692
1098 0.6366297
1096 0.78034997
1094 1.0053848
1092 1.3348181
1090 1.7714096
1088 2.2974565
1086 2.8559959
1084 3.3829491
1082 3.8226373
1080 4.1296029
1078 4.2817039
1076 4.2755041
1074 4.1431251
1072 3.929791
1070 3.6924317
1068 3.4770923
1066 3.2916071
1064 3.1295121
1062 2.9707599
1060 2.7990856
1058 2.6182673
1056 2.4399002
1054 2.2833622
1052 2.1642952
1050 2.0822849
1048 2.025475
1046 1.9618714
1044 1.8653605
1042 1.7424159
1040 1.6185051
1038 1.550527
1036 1.58725
1034 1.7300744
1032 1.951407
1030 2.1720519
1028 2.3067472
1026 2.289427
1024 2.0843027
1022 1.7324829
1020 1.3025352
1018 0.88820058
1016 0.56696826
1014 0.34784645
1012 0.21145144
1010 0.10332
1008 -0.031405672
1006 -0.22167906
1004 -0.47850397
1002 -0.77647746
1000 -1.0740514
998 -1.3082966
996 -1.4275
994 -1.4338521
992 -1.3565052
990 -1.2685359
988 -1.2361795
986 -1.2683257
984 -1.3542583
982 -1.4644008
980 -1.5664239
978 -1.6333555
976 -1.6420656
974 -1.5778228
972 -1.4400411
970 -1.2681992
968 -1.1028686
966 -0.95546949
964 -0.82208419
962 -0.67167443
960 -0.47829738
958 -0.25673446
956 -0.037001565
954 0.13349505
952 0.215554
950 0.21394232
948 0.15030524
946 0.067293108
944 0.013900029
942 0.04264459
940 0.19502008
938 0.46949241
936 0.84672463
934 1.281356
932 1.7154955
930 2.0690486
928 2.2777078
926 2.3548415
924 2.3477459
922 2.3570876
920 2.4769464
918 2.7261124
916 3.0897286
914 3.4967535
912 3.8729932
910 4.1861424
908 4.4193573
906 4.5769343
904 4.6651721
902 4.677413
900 4.610342
898 4.4851775
896 4.3295999
