Image.
>Pix99999.
  .
5555
5555
2300
900
5555
2
1
0
701
5555
1.4470001e-001
1.4771567e-001
1.5072140e-001
1.5373705e-001
1.5674281e-001
1.5974849e-001
1.6276412e-001
1.6576990e-001
1.6878548e-001
1.7179130e-001
1.7480686e-001
1.7781271e-001
1.8082823e-001
1.8383411e-001
1.8684961e-001
1.8984571e-001
1.9286098e-001
1.9589616e-001
1.9888312e-001
2.0182021e-001
2.0490171e-001
2.0821039e-001
2.1093482e-001
2.1284790e-001
2.1690805e-001
2.1680893e-001
1.6518123e-001
2.8371757e-002
-1.2562868e-001
-2.1617427e-001
-2.2735271e-001
-1.6637138e-001
-5.8194987e-002
6.7305483e-002
1.8020082e-001
2.5537100e-001
2.8692800e-001
2.8175318e-001
2.7555442e-001
3.0693856e-001
3.9189458e-001
5.3016096e-001
6.8335104e-001
8.0597943e-001
8.6970359e-001
8.6050165e-001
8.0049771e-001
7.2234577e-001
6.5675658e-001
6.2932110e-001
6.4797217e-001
7.1412480e-001
8.2501841e-001
9.7423249e-001
1.1454512e+000
1.3165486e+000
1.4539239e+000
1.5251421e+000
1.5172932e+000
1.4308469e+000
1.2935371e+000
1.1397245e+000
9.9370563e-001
8.7407792e-001
7.8952593e-001
7.4550402e-001
7.4714899e-001
7.9655951e-001
8.8329411e-001
9.9341762e-001
1.1159199e+000
1.2422389e+000
1.3681401e+000
1.4893918e+000
1.5931277e+000
1.6654178e+000
1.6983840e+000
1.6901079e+000
1.6539569e+000
1.6065736e+000
1.5569915e+000
1.5110650e+000
1.4730461e+000
1.4476339e+000
1.4421600e+000
1.4606014e+000
1.4892511e+000
1.5108521e+000
1.5203068e+000
1.5192925e+000
1.5188258e+000
1.5302839e+000
1.5525851e+000
1.5810206e+000
1.6149403e+000
1.6550357e+000
1.7013268e+000
1.7506992e+000
1.7890760e+000
1.8008969e+000
1.7798858e+000
1.7275954e+000
1.6606251e+000
1.6007931e+000
1.5670829e+000
1.5734950e+000
1.6182529e+000
1.6909606e+000
1.7723023e+000
1.8430870e+000
1.8987243e+000
1.9419352e+000
1.9797480e+000
2.0174820e+000
2.0466216e+000
2.0554457e+000
2.0413661e+000
2.0076675e+000
1.9651666e+000
1.9236870e+000
1.8772600e+000
1.8161628e+000
1.7442448e+000
1.6747717e+000
1.6357102e+000
1.6526536e+000
1.7144260e+000
1.7936954e+000
1.8625948e+000
1.9010475e+000
1.9193771e+000
1.9362624e+000
1.9514281e+000
1.9553341e+000
1.9382966e+000
1.8957800e+000
1.8444612e+000
1.8080803e+000
1.7998534e+000
1.8255266e+000
1.8789600e+000
1.9472389e+000
2.0080533e+000
2.0377240e+000
2.0239520e+000
1.9651271e+000
1.8830163e+000
1.8071930e+000
1.7555257e+000
1.7354884e+000
1.7351358e+000
1.7364274e+000
1.7313548e+000
1.7191162e+000
1.7061940e+000
1.6994293e+000
1.6927823e+000
1.6754529e+000
1.6433355e+000
1.5987439e+000
1.5550600e+000
1.5288991e+000
1.5273817e+000
1.5501101e+000
1.5852611e+000
1.6171578e+000
1.6363531e+000
1.6394908e+000
1.6329920e+000
1.6259176e+000
1.6176372e+000
1.6027285e+000
1.5786868e+000
1.5456994e+000
1.5082954e+000
1.4708999e+000
1.4294114e+000
1.3767600e+000
1.3138303e+000
1.2468119e+000
1.1863400e+000
1.1422619e+000
1.1118979e+000
1.0868527e+000
1.0627348e+000
1.0435985e+000
1.0580915e+000
1.1392385e+000
1.2829628e+000
1.4574190e+000
1.6027814e+000
1.6582874e+000
1.6179205e+000
1.5100886e+000
1.3764349e+000
1.2582935e+000
1.1740481e+000
1.1271440e+000
1.1123103e+000
1.1213073e+000
1.1472429e+000
1.1846994e+000
1.2292391e+000
1.2761830e+000
1.3178177e+000
1.3443621e+000
1.3438957e+000
1.3054632e+000
1.2269617e+000
1.1138945e+000
9.8213303e-001
8.5385901e-001
7.5370270e-001
7.0554072e-001
7.2598988e-001
8.2028055e-001
9.6284610e-001
1.1101739e+000
1.2197945e+000
1.2587200e+000
1.2262772e+000
1.1431612e+000
1.0391929e+000
9.4411898e-001
8.7111080e-001
8.2148677e-001
7.9093760e-001
7.7273458e-001
7.5995713e-001
7.4576128e-001
7.2304124e-001
6.8925160e-001
6.6319770e-001
6.7481315e-001
7.4319863e-001
8.7024122e-001
1.0183051e+000
1.1311051e+000
1.1783460e+000
1.1545886e+000
1.0786629e+000
9.8153681e-001
8.8795120e-001
8.1600684e-001
7.7887416e-001
7.8022051e-001
7.9262805e-001
7.7207506e-001
6.9179523e-001
5.5034781e-001
3.9759928e-001
3.0909392e-001
3.2716078e-001
4.5552433e-001
6.4328468e-001
8.1142133e-001
9.0829045e-001
9.1475934e-001
8.5453558e-001
7.7319187e-001
6.9361454e-001
6.1587435e-001
5.2392441e-001
4.0093768e-001
2.6716602e-001
1.6431186e-001
1.0637455e-001
7.6793753e-002
2.6132679e-002
-1.0012130e-001
-2.8520915e-001
-4.6351981e-001
-5.9505618e-001
-6.7126381e-001
-7.0841545e-001
-7.3628783e-001
-7.7928376e-001
-8.5022140e-001
-9.3619907e-001
-1.0063437e+000
-1.0315599e+000
-9.9342000e-001
-9.0473402e-001
-7.9836500e-001
-6.9301504e-001
-5.8912241e-001
-4.6791762e-001
-2.9836741e-001
-5.1221013e-002
3.0134952e-001
7.9568988e-001
1.4552128e+000
2.2092988e+000
2.9350696e+000
3.6146641e+000
4.3356514e+000
5.2393222e+000
6.5084639e+000
8.3890991e+000
1.1093342e+001
1.4452429e+001
1.8000370e+001
2.1346977e+001
2.4288942e+001
2.6991852e+001
2.9887486e+001
3.3313072e+001
3.7383514e+001
4.1728519e+001
4.5697338e+001
4.9120228e+001
5.2305168e+001
5.5632263e+001
5.9394405e+001
6.3541050e+001
6.7753349e+001
7.1805344e+001
7.5606491e+001
7.9104965e+001
8.2271019e+001
8.5121025e+001
8.7710533e+001
9.0101639e+001
9.2314156e+001
9.4182213e+001
9.5417503e+001
9.5913551e+001
9.5752411e+001
9.5013039e+001
9.3726738e+001
9.1876671e+001
8.9435486e+001
8.6496315e+001
8.3243256e+001
7.9752914e+001
7.5988129e+001
7.1931519e+001
6.7622879e+001
6.3193233e+001
5.8839806e+001
5.4712372e+001
5.0896019e+001
4.7443630e+001
4.4378731e+001
4.1668583e+001
3.9237457e+001
3.7043102e+001
3.5086113e+001
3.3378983e+001
3.1932617e+001
3.0726500e+001
2.9711832e+001
2.8852749e+001
2.8136272e+001
2.7571260e+001
2.7178156e+001
2.6949320e+001
2.6850420e+001
2.6865643e+001
2.7010683e+001
2.7337685e+001
2.7917076e+001
2.8748783e+001
2.9750240e+001
3.0812719e+001
3.1827343e+001
3.2740345e+001
3.3592453e+001
3.4600876e+001
3.6098003e+001
3.8162243e+001
4.0550781e+001
4.2883484e+001
4.4760468e+001
4.6077850e+001
4.7046890e+001
4.7835552e+001
4.8483780e+001
4.8985817e+001
4.9313721e+001
4.9424484e+001
4.9274830e+001
4.8878860e+001
4.8302925e+001
4.7567059e+001
4.6625252e+001
4.5418110e+001
4.3905777e+001
4.2130936e+001
4.0226639e+001
3.8338585e+001
3.6570633e+001
3.4853840e+001
3.2941933e+001
3.0666143e+001
2.8032030e+001
2.5246109e+001
2.2671085e+001
2.0474123e+001
1.8540081e+001
1.6694429e+001
1.4781996e+001
1.2748257e+001
1.0659885e+001
8.5988102e+000
6.6374135e+000
4.8559780e+000
3.3353076e+000
2.0995007e+000
1.1185127e+000
4.4407386e-001
2.2010507e-001
4.7038028e-001
1.0430478e+000
1.7674174e+000
2.5093222e+000
3.2075090e+000
3.8773756e+000
4.5083799e+000
5.0374131e+000
5.4049802e+000
5.5813975e+000
5.5956469e+000
5.5363855e+000
5.4538321e+000
5.3329749e+000
5.1640019e+000
4.9598880e+000
4.7220731e+000
4.4290233e+000
4.0493159e+000
3.5540276e+000
2.9649920e+000
2.3694270e+000
1.8486601e+000
1.4505186e+000
1.1847211e+000
1.0208235e+000
9.3532348e-001
9.2872345e-001
1.0161692e+000
1.2210680e+000
1.5411518e+000
1.9356281e+000
2.3585188e+000
2.7707729e+000
3.1464469e+000
3.4759333e+000
3.7517800e+000
3.9670291e+000
4.1294570e+000
4.2662969e+000
4.3982596e+000
4.5264192e+000
4.6286592e+000
4.6591501e+000
4.5900750e+000
4.4293156e+000
4.1969066e+000
3.9181931e+000
3.6133428e+000
3.2940431e+000
2.9767301e+000
2.6832795e+000
2.4121971e+000
2.1257806e+000
1.7869663e+000
1.3791164e+000
9.3020397e-001
5.2548599e-001
2.3259085e-001
6.7207254e-002
8.4090168e-003
-5.0877186e-004
-2.2405398e-003
-3.3940822e-003
3.4448197e-003
3.3394255e-002
9.2471831e-002
1.6853085e-001
2.4140772e-001
2.8668520e-001
2.9188138e-001
2.6661050e-001
2.3151097e-001
2.1594964e-001
2.4374712e-001
3.2463780e-001
4.5575565e-001
6.1832720e-001
7.8906703e-001
9.4429457e-001
1.0673308e+000
1.1543343e+000
1.2092122e+000
1.2440656e+000
1.2701194e+000
1.2937760e+000
1.3188626e+000
1.3471024e+000
1.3827857e+000
1.4350590e+000
1.5108037e+000
1.6105613e+000
1.7277479e+000
1.8461657e+000
1.9520406e+000
2.0405717e+000
2.1145725e+000
2.1866100e+000
2.2696199e+000
2.3734260e+000
2.5057509e+000
2.6713982e+000
2.8735940e+000
3.1141894e+000
3.3968148e+000
3.7289696e+000
4.1183381e+000
4.5708995e+000
5.0849485e+000
5.6457043e+000
6.2373838e+000
6.8487792e+000
7.4761958e+000
8.1271753e+000
8.8041630e+000
9.4935608e+000
1.0167028e+001
1.0775960e+001
1.1274172e+001
1.1632184e+001
1.1837560e+001
1.1901128e+001
1.1843038e+001
1.1684908e+001
1.1446651e+001
1.1134774e+001
1.0754949e+001
1.0315024e+001
9.8233852e+000
9.2921629e+000
8.7362909e+000
8.1721516e+000
7.6132941e+000
7.0653276e+000
6.5277681e+000
5.9915342e+000
5.4484844e+000
4.8970804e+000
4.3373141e+000
3.7693200e+000
3.1971126e+000
2.6329570e+000
2.0961399e+000
1.6161522e+000
1.2155097e+000
8.9700037e-001
6.5691030e-001
4.8789558e-001
3.8533002e-001
3.5091704e-001
3.7676063e-001
4.3051887e-001
4.7398812e-001
4.7084472e-001
4.0273511e-001
2.9082891e-001
1.6822670e-001
7.2368838e-002
2.9719658e-002
3.8627956e-002
8.3843686e-002
1.3486739e-001
1.6270220e-001
1.5158251e-001
1.0085531e-001
3.7822388e-002
-2.6841494e-003
1.5545391e-002
1.2326594e-001
3.3543777e-001
6.4499950e-001
1.0023127e+000
1.3552897e+000
1.6728699e+000
1.9510720e+000
2.2379911e+000
2.5820680e+000
3.0003302e+000
3.4822428e+000
3.9711499e+000
4.4191895e+000
4.8287392e+000
5.2155666e+000
5.5986152e+000
5.9819412e+000
6.3321810e+000
6.6239948e+000
6.8748708e+000
7.1196141e+000
7.4081779e+000
7.7696238e+000
8.1703176e+000
8.5625839e+000
8.9047146e+000
9.1760817e+000
9.4069929e+000
9.6326704e+000
9.8659382e+000
1.0102257e+001
1.0305690e+001
1.0443429e+001
1.0510367e+001
1.0516684e+001
1.0488264e+001
1.0448601e+001
1.0403427e+001
1.0355675e+001
1.0300478e+001
1.0232715e+001
1.0138329e+001
1.0002241e+001
9.8084965e+000
9.5454378e+000
9.2191286e+000
8.8421001e+000
8.4336481e+000
8.0143557e+000
7.6026096e+000
7.2140703e+000
6.8577251e+000
6.5344605e+000
6.2261071e+000
5.9091773e+000
5.5591493e+000
5.1621423e+000
4.7361650e+000
4.3070617e+000
3.8996654e+000
3.5307829e+000
3.1932707e+000
2.8753293e+000
2.5702913e+000
2.2743440e+000
1.9903485e+000
1.7235466e+000
1.4830880e+000
1.2713274e+000
1.0677155e+000
8.4959000e-001
6.0653049e-001
3.4051910e-001
8.3203778e-002
-1.3757586e-001
-3.2951629e-001
-5.0342762e-001
-6.5149403e-001
-7.5373560e-001
-7.6594037e-001
-6.5010166e-001
-4.0885836e-001
-6.1372876e-002
3.5136482e-001
7.8092420e-001
1.1724250e+000
1.4772502e+000
1.6743014e+000
1.7566925e+000
1.7421408e+000
1.6495857e+000
1.4806495e+000
1.2358637e+000
9.2902863e-001
5.8978850e-001
2.9298252e-001
1.0178629e-001
-1.5136972e-003
-4.5517117e-002
-2.5973793e-002
5.9334055e-002
1.7580053e-001
2.8732777e-001
3.8586041e-001
4.6739504e-001
5.1731825e-001
5.2191120e-001
4.8083496e-001
4.0303481e-001
3.1991181e-001
2.6755145e-001
2.7850470e-001
3.7191010e-001
5.1877105e-001
6.7106760e-001
7.5373483e-001
7.0626891e-001
5.5204940e-001
3.3990729e-001
1.3635261e-001
1.2359000e-002
