Image.
>Pix99999.
  .
5555
5555
2300
900
5555
2
1
0
701
5555
-1.1300000e-002
-1.1534665e-002
-1.1770326e-002
-1.2004993e-002
-1.2240651e-002
-1.2475322e-002
-1.2709985e-002
-1.2945640e-002
-1.3180314e-002
-1.3415966e-002
-1.3650643e-002
-1.3885307e-002
-1.4120954e-002
-1.4355636e-002
-1.4591280e-002
-1.4825964e-002
-1.5061606e-002
-1.5296292e-002
-1.5530958e-002
-1.5766595e-002
-1.6001286e-002
-1.6236920e-002
-1.6471615e-002
-1.6706279e-002
-1.6941909e-002
-1.7176608e-002
-6.3830003e-004
7.0300616e-002
1.5265605e-001
2.3895353e-001
3.2577312e-001
3.1116939e-001
2.8649148e-001
2.0009787e-001
1.1666406e-001
8.0355152e-002
5.6444306e-002
7.8231893e-002
1.0053350e-001
1.1693355e-001
1.2821086e-001
1.2901887e-001
1.2696199e-001
1.2124550e-001
1.1664411e-001
1.1370257e-001
1.2442312e-001
1.4820358e-001
1.6392457e-001
1.7297660e-001
1.3326143e-001
6.5675363e-002
-2.1764833e-002
-1.1710181e-001
-1.6649842e-001
-2.0080492e-001
-1.8322681e-001
-1.5392205e-001
-1.2822126e-001
-1.0317221e-001
-7.9856798e-002
-5.2832067e-002
1.8235056e-002
8.6140171e-002
1.1196106e-001
1.0698314e-001
4.6409774e-003
-1.0362082e-001
-2.0216914e-001
-2.6866633e-001
-2.7623200e-001
-2.6749313e-001
-2.4393582e-001
-2.2468971e-001
-2.1203645e-001
-2.1632357e-001
-2.3497902e-001
-2.6069269e-001
-2.9028380e-001
-3.0136591e-001
-3.0215517e-001
-3.2854360e-001
-3.6614007e-001
-4.4837674e-001
-5.4453319e-001
-5.8823514e-001
-6.1947423e-001
-6.2026137e-001
-6.2120390e-001
-7.1443784e-001
-8.2606930e-001
-9.7647750e-001
-1.1192672e+000
-1.2031826e+000
-1.2494735e+000
-1.2079965e+000
-1.1224252e+000
-9.6835530e-001
-8.1402439e-001
-6.7629933e-001
-5.8984572e-001
-5.6728327e-001
-5.8042252e-001
-6.2089097e-001
-6.5620834e-001
-6.8402696e-001
-6.9381183e-001
-6.9237483e-001
-6.8284702e-001
-6.6984278e-001
-6.6193426e-001
-6.5631467e-001
-6.6228920e-001
-6.7192537e-001
-6.8691593e-001
-7.0367700e-001
-7.4547952e-001
-7.9723817e-001
-9.0139329e-001
-1.0195564e+000
-1.1582029e+000
-1.2934544e+000
-1.4023092e+000
-1.4896400e+000
-1.5351748e+000
-1.5506715e+000
-1.5238180e+000
-1.4597089e+000
-1.3516212e+000
-1.2236861e+000
-1.0818542e+000
-9.8152584e-001
-9.2394120e-001
-9.3410820e-001
-9.9166334e-001
-1.0489157e+000
-1.1010137e+000
-1.0894451e+000
-1.0451812e+000
-9.6627641e-001
-8.7461197e-001
-8.1157345e-001
-7.5857580e-001
-7.5633478e-001
-7.6814854e-001
-7.9263598e-001
-8.1949532e-001
-8.4067827e-001
-8.6520672e-001
-9.1068047e-001
-9.6148503e-001
-1.0125532e+000
-1.0452852e+000
-1.0362966e+000
-1.0036457e+000
-9.4704491e-001
-9.0014702e-001
-8.7469578e-001
-8.7845778e-001
-9.0977395e-001
-9.4056970e-001
-9.6539050e-001
-9.5971644e-001
-9.3166798e-001
-8.9622909e-001
-8.5869062e-001
-8.5660046e-001
-8.7332660e-001
-9.0504718e-001
-9.4224846e-001
-9.5948416e-001
-9.6942043e-001
-9.8362476e-001
-9.9886316e-001
-1.0111663e+000
-1.0144501e+000
-9.7498560e-001
-9.1741180e-001
-8.4219122e-001
-7.7368081e-001
-7.3671943e-001
-7.2349840e-001
-7.3937160e-001
-7.8797585e-001
-8.7588763e-001
-1.0068865e+000
-1.1800022e+000
-1.3376094e+000
-1.4664342e+000
-1.5054049e+000
-1.4692315e+000
-1.3906933e+000
-1.2924321e+000
-1.2165972e+000
-1.1576308e+000
-1.0956843e+000
-1.0306400e+000
-9.7277856e-001
-9.1833043e-001
-8.9261073e-001
-8.7607861e-001
-8.2932234e-001
-7.7018136e-001
-7.0660734e-001
-6.5384406e-001
-6.5411115e-001
-6.7800397e-001
-7.1357870e-001
-7.5391006e-001
-7.9572058e-001
-8.5075104e-001
-9.2974162e-001
-1.0020781e+000
-1.0528506e+000
-1.0507480e+000
-9.9036294e-001
-9.0372384e-001
-8.0647063e-001
-7.2984099e-001
-6.7442936e-001
-6.7830116e-001
-7.2454464e-001
-8.7213570e-001
-1.0824131e+000
-1.3501440e+000
-1.6463642e+000
-1.7721235e+000
-1.8019441e+000
-1.6103159e+000
-1.3180294e+000
-1.0504786e+000
-8.0583549e-001
-6.2272000e-001
-4.7391731e-001
-3.4909922e-001
-2.4951622e-001
-1.8893029e-001
-1.5952684e-001
-1.6230120e-001
-1.9255547e-001
-2.4922687e-001
-3.2016253e-001
-3.9805111e-001
-4.3967098e-001
-4.3390673e-001
-3.8792899e-001
-3.1463623e-001
-3.3581585e-001
-4.5030782e-001
-6.4784229e-001
-8.9548576e-001
-9.6742475e-001
-9.0808201e-001
-6.9883138e-001
-4.0498394e-001
-1.9450764e-001
-4.0447552e-002
3.2770000e-002
5.4490633e-002
3.0462008e-002
-9.5357709e-003
-1.3701513e-002
3.0202789e-002
1.6876841e-001
3.1664902e-001
3.7575316e-001
3.5790360e-001
2.6708624e-001
8.4423833e-002
-2.0043346e-001
-4.7509015e-001
-6.7883015e-001
-8.3744192e-001
-9.7158957e-001
-1.1284521e+000
-1.3174714e+000
-1.5756029e+000
-1.8910639e+000
-2.1553783e+000
-2.3660698e+000
-2.3431001e+000
-2.1472423e+000
-1.7565031e+000
-1.2466836e+000
-8.7394935e-001
-6.0415298e-001
-4.2732647e-001
-2.7724931e-001
1.0647222e-001
7.8187972e-001
1.7802615e+000
2.8647952e+000
3.7538424e+000
4.4622288e+000
4.9957080e+000
5.5748143e+000
6.4037151e+000
7.7886715e+000
9.8941154e+000
1.3065360e+001
1.7333714e+001
2.1875771e+001
2.6273540e+001
3.0145103e+001
3.3476547e+001
3.7099186e+001
4.1148853e+001
4.5908554e+001
5.1250763e+001
5.5985352e+001
6.0143555e+001
6.4144730e+001
6.8098137e+001
7.2658554e+001
7.7669861e+001
8.2648094e+001
8.7516335e+001
9.2009811e+001
9.6099396e+001
9.9686172e+001
1.0271629e+002
1.0511452e+002
1.0673580e+002
1.0745464e+002
1.0704359e+002
1.0540071e+002
1.0293277e+002
1.0005852e+002
9.6819519e+001
9.3289391e+001
8.9128487e+001
8.4276764e+001
7.9308952e+001
7.4437019e+001
6.9784126e+001
6.5348022e+001
6.0642159e+001
5.5628250e+001
5.0730713e+001
4.5997467e+001
4.1810574e+001
3.8184715e+001
3.5161201e+001
3.2714672e+001
3.0626486e+001
2.8861671e+001
2.7258497e+001
2.5865915e+001
2.4753851e+001
2.3945009e+001
2.3427502e+001
2.3163265e+001
2.3067017e+001
2.3112579e+001
2.3255421e+001
2.3497871e+001
2.3830828e+001
2.4215979e+001
2.4624733e+001
2.5105928e+001
2.5676516e+001
2.6455147e+001
2.7472759e+001
2.8653671e+001
2.9977160e+001
3.1253113e+001
3.2456047e+001
3.3670555e+001
3.4959183e+001
3.6886246e+001
3.9496887e+001
4.2396309e+001
4.5412022e+001
4.7741566e+001
4.9359928e+001
5.0531498e+001
5.1218849e+001
5.1509922e+001
5.1344120e+001
5.0736458e+001
4.9758057e+001
4.8566380e+001
4.7233536e+001
4.5845753e+001
4.4364063e+001
4.2762501e+001
4.1003613e+001
3.9063164e+001
3.7132980e+001
3.5304176e+001
3.3631729e+001
3.2148281e+001
3.0487120e+001
2.8544453e+001
2.6108337e+001
2.3073479e+001
2.0193771e+001
1.7566051e+001
1.5404281e+001
1.3755930e+001
1.2115286e+001
1.0482878e+001
8.8519621e+000
7.2452922e+000
5.7145500e+000
4.2967663e+000
3.0251200e+000
1.9521360e+000
1.1130810e+000
5.1865137e-001
1.4849029e-001
1.1450180e-001
4.8547760e-001
1.0658717e+000
1.7898557e+000
2.4841435e+000
3.0340447e+000
3.4713717e+000
3.7838242e+000
4.1116533e+000
4.5029197e+000
4.9507513e+000
5.4720964e+000
5.8611956e+000
6.0423779e+000
6.1059785e+000
6.0041637e+000
5.8371940e+000
5.5774956e+000
5.2463293e+000
4.8300886e+000
4.3807435e+000
3.9150624e+000
3.4989882e+000
3.1524060e+000
2.8866301e+000
2.7225292e+000
2.6724381e+000
2.7495246e+000
2.9668574e+000
3.2869229e+000
3.6792471e+000
4.0921965e+000
4.4852309e+000
4.8625326e+000
5.2205114e+000
5.5472994e+000
5.8235521e+000
6.0194640e+000
6.0810666e+000
6.0925641e+000
6.0344491e+000
6.0150952e+000
6.0562620e+000
6.0729389e+000
6.0348802e+000
5.8828230e+000
5.5671115e+000
5.1603770e+000
4.6463547e+000
4.1062055e+000
3.5581644e+000
3.0687542e+000
2.6523366e+000
2.3111320e+000
2.0114000e+000
1.6808343e+000
1.3226800e+000
9.3934709e-001
5.8323473e-001
3.2380944e-001
1.4149968e-001
5.6782261e-002
1.1901355e-002
-2.7221376e-003
-1.5243951e-002
-3.6853522e-002
-5.8900088e-002
-7.8500383e-002
-5.6668866e-002
5.1796228e-002
1.9861747e-001
4.1056824e-001
6.0256273e-001
7.6270825e-001
9.1258532e-001
1.0556837e+000
1.2307826e+000
1.4490166e+000
1.6981081e+000
1.9718500e+000
2.2297485e+000
2.4573605e+000
2.6262794e+000
2.7421489e+000
2.8126006e+000
2.8481433e+000
2.8527479e+000
2.8368905e+000
2.8009677e+000
2.7639999e+000
2.7422974e+000
2.7320850e+000
2.7434807e+000
2.7648201e+000
2.8042378e+000
2.8503950e+000
2.9103570e+000
2.9625647e+000
2.9976225e+000
3.0284972e+000
3.0557950e+000
3.1093068e+000
3.2132285e+000
3.3668776e+000
3.5974956e+000
3.8799291e+000
4.2290359e+000
4.6157718e+000
5.0406265e+000
5.4781742e+000
5.9268665e+000
6.3807864e+000
6.8403358e+000
7.3086762e+000
7.7771249e+000
8.2316322e+000
8.6649990e+000
9.0453053e+000
9.3776150e+000
9.6001520e+000
9.7561865e+000
9.7617683e+000
9.7051964e+000
9.4950047e+000
9.2361145e+000
8.8491430e+000
8.4457235e+000
8.0055733e+000
7.5734444e+000
7.1543031e+000
6.7191648e+000
6.2539606e+000
5.7625136e+000
5.2367435e+000
4.7108736e+000
4.1898317e+000
3.6918354e+000
3.2200036e+000
2.7745037e+000
2.3535643e+000
1.9579099e+000
1.5884166e+000
1.2688991e+000
9.8829019e-001
7.7833664e-001
6.0606420e-001
4.9390495e-001
4.0953395e-001
3.8285115e-001
3.8181999e-001
4.5272249e-001
5.3056389e-001
6.1727881e-001
6.7270809e-001
6.3163215e-001
5.6520921e-001
4.4002098e-001
3.2980895e-001
2.5066614e-001
1.8636043e-001
1.4378631e-001
9.2290059e-002
2.8850419e-002
-3.7989579e-002
-1.0267818e-001
-1.3584125e-001
-1.2870364e-001
-4.5210049e-002
1.0262904e-001
3.5130629e-001
6.6646826e-001
1.0480847e+000
1.4540410e+000
1.8542366e+000
2.2479036e+000
2.6159799e+000
2.9694998e+000
3.2704401e+000
3.5434918e+000
3.6930199e+000
3.8129475e+000
3.8172314e+000
3.8151066e+000
3.7960122e+000
3.8069849e+000
3.8959651e+000
4.0292625e+000
4.2498674e+000
4.4941578e+000
4.7774715e+000
5.0855594e+000
5.4260383e+000
5.7851248e+000
6.1529007e+000
6.4544592e+000
6.6919146e+000
6.8311014e+000
6.9089336e+000
6.9630938e+000
7.0113187e+000
7.0914445e+000
7.1857982e+000
7.3065596e+000
7.4271092e+000
7.5036211e+000
7.5626998e+000
7.5344687e+000
7.4916492e+000
7.3816781e+000
7.2642918e+000
7.1149635e+000
6.9676771e+000
6.8258882e+000
6.6738939e+000
6.4960680e+000
6.3057299e+000
6.0959868e+000
5.9216766e+000
5.7987924e+000
5.6823497e+000
5.5647755e+000
5.3641729e+000
5.0848560e+000
4.7485676e+000
4.3741398e+000
4.0083213e+000
3.6478209e+000
3.2955265e+000
2.9457073e+000
2.5892456e+000
2.2310679e+000
1.8740869e+000
1.5213259e+000
1.2154064e+000
9.1617864e-001
6.4906216e-001
3.7601197e-001
6.0806498e-002
-2.5732484e-001
-5.8646643e-001
-8.8542467e-001
-1.0871292e+000
-1.2205094e+000
-1.1948385e+000
-1.1127652e+000
-9.3434584e-001
-7.6823002e-001
-6.2193424e-001
-5.3280002e-001
-5.0306034e-001
-4.8380938e-001
-4.6828547e-001
-3.7031451e-001
-2.1814895e-001
1.5646040e-002
2.8443813e-001
5.1758575e-001
7.3321784e-001
8.2146937e-001
8.7744999e-001
8.1883597e-001
7.4254239e-001
5.7290000e-001
3.9706659e-001
1.8719514e-001
3.3448481e-003
6.9578364e-004
3.0540586e-002
3.2867458e-001
6.4785260e-001
1.0273716e+000
1.3622766e+000
1.6019999e+000
1.8361520e+000
2.0616157e+000
2.3051159e+000
2.5700033e+000
2.8063002e+000
3.0170310e+000
3.2929015e+000
3.6148846e+000
3.9633474e+000
4.3225904e+000
4.3704882e+000
4.2975931e+000
4.0027804e+000
3.6507053e+000
3.4889245e+000
3.3578398e+000
3.3159001e+000
