Image.
>Pix99999.
  .
5555
5555
2300
900
5555
2
1
0
701
5555
9.9361001e-005
1.0141706e-004
1.0347411e-004
1.0554113e-004
1.0760817e-004
1.0968514e-004
1.1175226e-004
1.1381930e-004
1.1589623e-004
1.1794364e-004
1.2003014e-004
1.2208761e-004
1.2415451e-004
1.2620194e-004
1.2827839e-004
1.3034565e-004
1.3241269e-004
1.3447972e-004
1.3653703e-004
1.3860382e-004
1.4070001e-004
1.4274850e-004
1.4481494e-004
1.4689166e-004
1.4895904e-004
1.5101643e-004
6.2587913e-003
2.5049830e-004
4.5763201e-004
-5.1275878e-003
-1.1621092e-002
-1.2626386e-002
-1.2577931e-002
2.1295387e-003
1.8469943e-002
4.2149652e-002
6.4520426e-002
7.9151526e-002
9.4413154e-002
1.1283238e-001
1.3946857e-001
1.8366672e-001
2.3331061e-001
2.9015586e-001
3.3608574e-001
3.6788100e-001
3.8176346e-001
3.7927902e-001
3.6776972e-001
3.5033020e-001
3.0610570e-001
2.4666150e-001
1.6158326e-001
6.5698296e-002
1.9418355e-002
-1.0505986e-002
3.6945999e-002
1.0196002e-001
1.8667285e-001
2.7409321e-001
3.5361713e-001
4.3205753e-001
5.0645506e-001
5.7726604e-001
6.2968457e-001
6.7058760e-001
6.7599368e-001
6.6873676e-001
6.3811052e-001
6.1110228e-001
5.9548599e-001
5.9403998e-001
6.1141765e-001
6.3337547e-001
6.5828073e-001
6.7088747e-001
6.7234743e-001
6.4510149e-001
5.9868759e-001
5.2793419e-001
4.4500744e-001
3.6567175e-001
2.8838459e-001
2.6826924e-001
2.6634881e-001
3.5281172e-001
4.5951018e-001
5.6207657e-001
6.5883881e-001
6.6193956e-001
6.4944959e-001
6.2059510e-001
5.9719557e-001
6.0856915e-001
6.1563396e-001
5.9431612e-001
5.6373900e-001
5.2189755e-001
5.0695044e-001
5.3992009e-001
5.8648425e-001
6.4156228e-001
6.7016017e-001
6.7005098e-001
6.5749300e-001
6.3813800e-001
6.3658351e-001
6.4743078e-001
6.8802297e-001
7.4336469e-001
8.0928928e-001
8.7886208e-001
9.1309524e-001
9.3575573e-001
9.0925843e-001
8.7076867e-001
8.2771653e-001
7.8620124e-001
7.7020925e-001
7.6040030e-001
7.5696373e-001
7.5356263e-001
7.4542421e-001
7.3535812e-001
7.2234267e-001
7.1056575e-001
7.0212579e-001
7.1030545e-001
7.4303204e-001
7.8387082e-001
8.2930028e-001
8.3430088e-001
7.9922771e-001
7.3171884e-001
6.4402443e-001
6.1286473e-001
6.1986285e-001
7.0111978e-001
8.1792545e-001
8.8425547e-001
9.2755002e-001
8.7110561e-001
7.8210855e-001
6.9669044e-001
6.1539525e-001
5.7454443e-001
5.4821062e-001
5.5065829e-001
5.6925422e-001
6.2488574e-001
6.9507354e-001
7.8025711e-001
8.5877711e-001
9.1498911e-001
9.5360500e-001
9.7247797e-001
9.8742926e-001
1.0034463e+000
1.0235922e+000
1.0475669e+000
1.0667000e+000
1.0802480e+000
1.0722631e+000
1.0483638e+000
1.0082477e+000
9.5969868e-001
9.3298328e-001
9.1888309e-001
9.4998318e-001
1.0003071e+000
1.0506058e+000
1.0987475e+000
1.0872434e+000
1.0558344e+000
1.0111424e+000
9.7273749e-001
9.9139768e-001
1.0308594e+000
1.0853955e+000
1.1278152e+000
1.1275429e+000
1.1069248e+000
1.0693020e+000
1.0247427e+000
9.7523201e-001
9.0897572e-001
8.2162333e-001
7.2130048e-001
6.1380488e-001
5.3318942e-001
4.8000172e-001
4.6338159e-001
4.6987659e-001
4.9516627e-001
5.2923197e-001
6.0440141e-001
7.0160401e-001
8.1270719e-001
9.2957449e-001
1.0138390e+000
1.0843143e+000
1.1410408e+000
1.1853242e+000
1.1842360e+000
1.1515492e+000
1.0600393e+000
9.4629216e-001
8.3226943e-001
7.2327024e-001
6.2496758e-001
5.2847999e-001
4.2581221e-001
3.4195977e-001
2.8792328e-001
2.8254533e-001
3.2963443e-001
3.9277878e-001
4.5987651e-001
5.0721359e-001
5.3471243e-001
5.1682401e-001
4.6600726e-001
3.3050418e-001
1.4123115e-001
-1.0018288e-001
-3.6894214e-001
-4.6394211e-001
-4.6242538e-001
-2.4063811e-001
8.0102734e-002
3.5845685e-001
5.9819925e-001
7.3015898e-001
7.8416544e-001
7.3378086e-001
6.2377328e-001
4.8063576e-001
3.6269978e-001
3.2679221e-001
3.4682113e-001
4.0497085e-001
4.5661443e-001
4.7732705e-001
4.8544100e-001
4.9166918e-001
5.1402801e-001
5.5430543e-001
5.0889266e-001
3.7939417e-001
1.5045625e-001
-1.4376572e-001
-3.0860868e-001
-3.7176639e-001
-2.9834634e-001
-1.4441599e-001
-1.2887297e-002
1.0046347e-001
1.6388188e-001
1.8713754e-001
1.2236249e-001
1.4991686e-002
-7.4536189e-002
-1.1210226e-001
-7.7301450e-003
1.3766898e-001
2.1911000e-001
2.3768760e-001
1.8510403e-001
5.8680516e-002
-1.4261174e-001
-3.5345745e-001
-5.3685457e-001
-7.4195141e-001
-9.8732120e-001
-1.2305840e+000
-1.4569464e+000
-1.6216103e+000
-1.7283194e+000
-1.7732782e+000
-1.7769761e+000
-1.7141600e+000
-1.6073368e+000
-1.4195080e+000
-1.1768478e+000
-9.2992181e-001
-6.8167692e-001
-4.6333379e-001
-2.4944201e-001
7.9330921e-002
5.8621562e-001
1.3277798e+000
2.1608131e+000
2.9456286e+000
3.6672695e+000
4.2965779e+000
4.9813251e+000
5.8517637e+000
7.2092466e+000
9.2233067e+000
1.2295668e+001
1.6498571e+001
2.1015350e+001
2.5421911e+001
2.9327059e+001
3.2702438e+001
3.6405693e+001
4.0571518e+001
4.5447433e+001
5.0902603e+001
5.5723660e+001
5.9948444e+001
6.4079201e+001
6.8215240e+001
7.3006172e+001
7.8263687e+001
8.3370399e+001
8.8256042e+001
9.2640663e+001
9.6529976e+001
9.9888725e+001
1.0269228e+002
1.0489164e+002
1.0635560e+002
1.0699310e+002
1.0654211e+002
1.0487536e+002
1.0238674e+002
9.9472939e+001
9.6243927e+001
9.2802811e+001
8.8853004e+001
8.4339447e+001
7.9728745e+001
7.5194656e+001
7.0779030e+001
6.6471901e+001
6.1829559e+001
5.6828880e+001
5.1909889e+001
4.7122528e+001
4.2809887e+001
3.8989632e+001
3.5722954e+001
3.2998951e+001
3.0661022e+001
2.8675650e+001
2.6882030e+001
2.5322708e+001
2.4050909e+001
2.3093306e+001
2.2443001e+001
2.2068405e+001
2.1888218e+001
2.1871315e+001
2.1966154e+001
2.2173578e+001
2.2480526e+001
2.2876030e+001
2.3343887e+001
2.3946230e+001
2.4702143e+001
2.5645168e+001
2.6781839e+001
2.8017302e+001
2.9329000e+001
3.0632963e+001
3.1918036e+001
3.3273220e+001
3.4767677e+001
3.6969433e+001
3.9915043e+001
4.3124077e+001
4.6397575e+001
4.8843163e+001
5.0443165e+001
5.1534214e+001
5.2100861e+001
5.2293316e+001
5.2075981e+001
5.1512985e+001
5.0639229e+001
4.9552967e+001
4.8315063e+001
4.6988678e+001
4.5554085e+001
4.4000751e+001
4.2281414e+001
4.0368999e+001
3.8402847e+001
3.6454197e+001
3.4650486e+001
3.3045956e+001
3.1348839e+001
2.9475662e+001
2.7080715e+001
2.4030714e+001
2.1020687e+001
1.8133104e+001
1.5748760e+001
1.3931140e+001
1.2179714e+001
1.0496485e+001
8.8272591e+000
7.1863418e+000
5.6059408e+000
4.1287498e+000
2.8048620e+000
1.7049152e+000
8.8047409e-001
3.4540787e-001
7.7607140e-002
1.5761234e-001
6.4253986e-001
1.3341700e+000
2.1418061e+000
2.8924000e+000
3.4596629e+000
3.9050956e+000
4.2256384e+000
4.5694599e+000
4.9918399e+000
5.4579291e+000
5.9790654e+000
6.3329768e+000
6.4294486e+000
6.3934250e+000
6.1750631e+000
5.9138598e+000
5.5885968e+000
5.2094860e+000
4.7530231e+000
4.2327762e+000
3.6604767e+000
3.1194799e+000
2.6437502e+000
2.2723129e+000
2.0319846e+000
1.9361296e+000
2.0050304e+000
2.2645371e+000
2.6492598e+000
3.1021349e+000
3.5420127e+000
3.8881679e+000
4.1863799e+000
4.4452972e+000
4.7032843e+000
4.9806662e+000
5.2331839e+000
5.4364896e+000
5.5868716e+000
5.6491847e+000
5.6852355e+000
5.6790190e+000
5.6243448e+000
5.4893303e+000
5.2824163e+000
4.9717808e+000
4.6023917e+000
4.1573334e+000
3.6754744e+000
3.1705751e+000
2.7167900e+000
2.3292394e+000
2.0139978e+000
1.7349914e+000
1.4098969e+000
1.0482908e+000
6.6375387e-001
3.1875530e-001
9.9076778e-002
-2.1640092e-002
-2.1962835e-002
2.8389592e-002
1.1884116e-001
2.1261464e-001
2.9976359e-001
3.8202438e-001
4.5506388e-001
5.5479604e-001
7.1270573e-001
8.9442492e-001
1.1222371e+000
1.3310550e+000
1.5103097e+000
1.6801386e+000
1.8379682e+000
2.0121839e+000
2.2083845e+000
2.4296896e+000
2.6761799e+000
2.9313018e+000
3.1777844e+000
3.3676062e+000
3.5016260e+000
3.5721478e+000
3.6081834e+000
3.6419508e+000
3.6746421e+000
3.7092776e+000
3.7409427e+000
3.7649975e+000
3.8000324e+000
3.8704915e+000
3.9625959e+000
4.0990491e+000
4.2373962e+000
4.3734460e+000
4.4978189e+000
4.5966763e+000
4.6890516e+000
4.7705250e+000
4.8650980e+000
4.9869013e+000
5.1495728e+000
5.3766551e+000
5.6485028e+000
5.9798517e+000
6.3481059e+000
6.7619038e+000
7.2196398e+000
7.7169185e+000
8.2358847e+000
8.7644548e+000
9.2791758e+000
9.7821999e+000
1.0270060e+001
1.0741496e+001
1.1176183e+001
1.1569530e+001
1.1864514e+001
1.2094072e+001
1.2168160e+001
1.2167911e+001
1.1974912e+001
1.1715172e+001
1.1279806e+001
1.0803271e+001
1.0233461e+001
9.6596928e+000
9.0813599e+000
8.5138988e+000
7.9649310e+000
7.4238696e+000
6.8981991e+000
6.3985190e+000
5.9301062e+000
5.4767537e+000
5.0319366e+000
4.5662770e+000
4.0898213e+000
3.6313486e+000
3.1982915e+000
2.8292851e+000
2.4985554e+000
2.2104185e+000
1.9498909e+000
1.7453772e+000
1.5814226e+000
1.5303291e+000
1.5193800e+000
1.6080253e+000
1.7027228e+000
1.7981555e+000
1.8729229e+000
1.8845714e+000
1.8786114e+000
1.8295020e+000
1.7711365e+000
1.6915892e+000
1.5920900e+000
1.4564197e+000
1.2901046e+000
1.0833178e+000
8.6788499e-001
6.4690787e-001
4.4524980e-001
2.6697969e-001
1.2841259e-001
3.6497168e-002
5.6516662e-002
1.6260260e-001
3.8514128e-001
6.7005968e-001
1.0483648e+000
1.4581186e+000
1.8987646e+000
2.3250544e+000
2.6464679e+000
2.9324272e+000
3.0806959e+000
3.2242255e+000
3.3572435e+000
3.4916930e+000
3.6300671e+000
3.7613599e+000
3.8769782e+000
4.0044303e+000
4.1558542e+000
4.3170524e+000
4.4949999e+000
4.6864314e+000
4.9033761e+000
5.1866260e+000
5.5412602e+000
5.9517059e+000
6.3966713e+000
6.7879286e+000
7.1266093e+000
7.3181796e+000
7.4209986e+000
7.3604183e+000
7.2353044e+000
7.0286608e+000
6.8166146e+000
6.6947942e+000
6.6074600e+000
6.6889715e+000
6.7792411e+000
6.8704596e+000
6.9260969e+000
6.8243141e+000
6.6832156e+000
6.4165549e+000
6.1323514e+000
5.8082681e+000
5.5049434e+000
5.2468576e+000
5.0599670e+000
4.9799662e+000
4.9482503e+000
4.9637885e+000
4.9094219e+000
4.7797523e+000
4.5105953e+000
4.1397257e+000
3.7020543e+000
3.2315300e+000
2.7798946e+000
2.3384099e+000
1.9267628e+000
1.5297048e+000
1.2038472e+000
8.9837003e-001
6.8936604e-001
4.8989436e-001
3.0827338e-001
1.2134608e-001
-1.0283354e-001
-3.3300534e-001
-5.8960354e-001
-8.4998888e-001
-1.1217623e+000
-1.3917668e+000
-1.6551931e+000
-1.8816978e+000
-2.0399559e+000
-2.1198134e+000
-2.0918140e+000
-1.9997399e+000
-1.8388087e+000
-1.6250260e+000
-1.3674440e+000
-1.0783973e+000
-7.7319688e-001
-5.2061248e-001
-2.9786420e-001
-1.9584396e-001
-1.3887103e-001
-2.1403003e-001
-3.1611514e-001
-3.9158696e-001
-4.5628840e-001
-3.4009442e-001
-2.1509844e-001
-7.0892356e-002
6.9970265e-004
2.1543611e-002
5.8233224e-002
1.6271110e-001
2.9531455e-001
5.1036346e-001
7.3664248e-001
9.8625672e-001
1.2122086e+000
1.3993078e+000
1.5334979e+000
1.6035730e+000
1.6883886e+000
1.7881212e+000
1.9746443e+000
2.2224309e+000
2.4733880e+000
2.7244692e+000
2.8507702e+000
2.9278891e+000
2.8702657e+000
2.7768228e+000
2.6656735e+000
2.5517824e+000
2.5395000e+000
