Image.
>Pix99999.
  .
5555
5555
2300
900
5555
2
1
0
701
5555
1.0283000e-001
1.0496695e-001
1.0710388e-001
1.0924083e-001
1.1137778e-001
1.1352465e-001
1.1566166e-001
1.1779860e-001
1.1993554e-001
1.2207249e-001
1.2421929e-001
1.2635636e-001
1.2849331e-001
1.3063025e-001
1.3277699e-001
1.3491414e-001
1.3705108e-001
1.3918802e-001
1.4132497e-001
1.4347164e-001
1.4560886e-001
1.4774580e-001
1.4988273e-001
1.5202935e-001
1.5416662e-001
1.5630357e-001
8.4146455e-002
3.1381713e-003
-5.0086081e-002
-6.4117759e-002
-7.2495975e-002
-4.6260029e-002
-1.7440554e-002
1.3553925e-002
4.3627653e-002
6.5749548e-002
8.6966634e-002
1.0603667e-001
1.2659737e-001
1.5214866e-001
1.8167771e-001
2.1927667e-001
2.6228720e-001
3.1331092e-001
3.6470538e-001
4.1592342e-001
4.3669114e-001
4.2807838e-001
3.8396543e-001
3.1474000e-001
2.7506000e-001
2.5339285e-001
2.8656802e-001
3.4329131e-001
4.0115267e-001
4.5886934e-001
4.9989718e-001
5.3708470e-001
5.8431548e-001
6.3280457e-001
6.5921772e-001
6.7961282e-001
6.5467340e-001
6.2791950e-001
6.1549932e-001
6.1360103e-001
6.4508325e-001
6.7113996e-001
6.7474180e-001
6.5718400e-001
6.0377002e-001
5.5508929e-001
5.1864266e-001
5.0523883e-001
5.1636064e-001
5.2985466e-001
5.4317379e-001
5.6028396e-001
5.8008027e-001
6.0717773e-001
6.3809830e-001
6.4192760e-001
6.3411140e-001
6.1310565e-001
5.8820879e-001
6.0503572e-001
6.3168210e-001
6.7688912e-001
7.2330070e-001
7.3813659e-001
7.4728417e-001
7.4736124e-001
7.5025737e-001
7.7121055e-001
8.0111790e-001
8.5008317e-001
9.0172970e-001
9.5319217e-001
9.8354143e-001
9.7851962e-001
9.4689000e-001
8.8735956e-001
8.3403760e-001
7.9136378e-001
7.7704966e-001
7.8472197e-001
7.9743779e-001
8.1139010e-001
7.9056346e-001
7.5145876e-001
6.9587302e-001
6.3440681e-001
6.2673402e-001
6.3669294e-001
7.1114373e-001
8.0086869e-001
8.7186074e-001
9.3321460e-001
9.3081027e-001
9.1151398e-001
8.6830026e-001
8.2140934e-001
7.7912891e-001
7.3793292e-001
6.9812131e-001
6.6120178e-001
6.2985402e-001
6.0797948e-001
5.9796625e-001
5.8486712e-001
5.6435645e-001
5.2805835e-001
4.7795886e-001
4.4069439e-001
4.1601437e-001
4.2096409e-001
4.4396743e-001
4.7424263e-001
5.0714123e-001
5.2435297e-001
5.3440601e-001
5.2610219e-001
5.1120818e-001
5.0087672e-001
4.9203235e-001
4.9119523e-001
4.9057943e-001
4.7918731e-001
4.6227807e-001
4.3620089e-001
4.0729570e-001
3.7866864e-001
3.5201478e-001
3.2696620e-001
3.0970961e-001
3.0176866e-001
3.0817702e-001
3.3157477e-001
3.6380118e-001
4.0309715e-001
4.3575341e-001
4.6168128e-001
4.7446927e-001
4.7888073e-001
4.5884210e-001
4.2412972e-001
3.6234617e-001
2.8657517e-001
2.3303241e-001
1.8968244e-001
1.8606286e-001
1.9603676e-001
2.0550944e-001
2.1268617e-001
2.1326302e-001
2.1331000e-001
2.1948846e-001
2.3093399e-001
2.4347872e-001
2.5393423e-001
2.5550887e-001
2.5490826e-001
2.5909460e-001
2.6808172e-001
2.8645325e-001
2.9537070e-001
2.9091334e-001
2.6895827e-001
2.2980972e-001
1.9317050e-001
1.5875600e-001
1.4148051e-001
1.3717017e-001
1.3909359e-001
1.4457400e-001
1.3396193e-001
1.1357320e-001
8.7610662e-002
5.8469504e-002
5.5917572e-002
6.4670429e-002
9.2082784e-002
1.2484860e-001
1.3927719e-001
1.4016709e-001
1.0701475e-001
6.0204338e-002
9.0669766e-003
-3.3933189e-002
-5.1379777e-002
-4.8956402e-002
-1.9792892e-002
2.3977123e-002
8.0200255e-002
1.2237269e-001
1.3446979e-001
1.0402311e-001
3.0907277e-002
-5.1411584e-002
-1.2928763e-001
-1.9114886e-001
-2.3823537e-001
-2.7895015e-001
-3.1430423e-001
-3.3567321e-001
-3.4581286e-001
-3.4029388e-001
-3.2476610e-001
-3.1804439e-001
-3.1723738e-001
-3.1030515e-001
-2.9856482e-001
-2.5645182e-001
-1.9728120e-001
-1.3175495e-001
-7.4871510e-002
-6.3833095e-002
-9.2114627e-002
-1.6273659e-001
-2.5513989e-001
-3.4869486e-001
-4.3652523e-001
-5.1184082e-001
-5.6054640e-001
-5.8383906e-001
-5.7120198e-001
-5.2968246e-001
-5.1037681e-001
-5.1521575e-001
-5.4677123e-001
-5.9443927e-001
-5.6244308e-001
-4.7606561e-001
-3.4848458e-001
-2.0449306e-001
-1.2710100e-001
-9.3724906e-002
-9.3975037e-002
-1.1319483e-001
-1.2076040e-001
-1.1424657e-001
-7.2719447e-002
-9.7157639e-003
4.6017654e-002
8.3756134e-002
7.6124340e-002
4.5669883e-002
2.1761315e-002
1.8560572e-002
-5.1174033e-002
-1.4238775e-001
-1.9305320e-001
-1.9397388e-001
-1.4678830e-001
-1.0686245e-001
-9.3824141e-002
-1.5451171e-001
-2.8674549e-001
-4.1685930e-001
-5.2991247e-001
-5.2150398e-001
-4.1629139e-001
-2.6504067e-001
-9.5483407e-002
-4.7491424e-002
-8.6570427e-002
-1.2068892e-001
-1.2691011e-001
-2.9112026e-003
2.2867286e-001
6.3494444e-001
1.1427829e+000
1.5966001e+000
2.0114069e+000
2.4203660e+000
2.9690599e+000
3.8038287e+000
5.1518965e+000
7.1204839e+000
9.9203634e+000
1.3517428e+001
1.7234989e+001
2.0752119e+001
2.3915369e+001
2.6765383e+001
3.0114336e+001
3.4045444e+001
3.8807976e+001
4.4228802e+001
4.9132736e+001
5.3528160e+001
5.7880913e+001
6.2284454e+001
6.7367554e+001
7.2934082e+001
7.8298752e+001
8.3403831e+001
8.8028183e+001
9.2219612e+001
9.6059212e+001
9.9475655e+001
1.0236230e+002
1.0443020e+002
1.0537927e+002
1.0499137e+002
1.0316536e+002
1.0060070e+002
9.7930023e+001
9.5046173e+001
9.1933769e+001
8.8106171e+001
8.3443314e+001
7.8558044e+001
7.3686531e+001
6.9077454e+001
6.4759369e+001
6.0349079e+001
5.5801796e+001
5.1364700e+001
4.7060101e+001
4.3069859e+001
3.9410561e+001
3.6198544e+001
3.3434002e+001
3.1050119e+001
2.9027958e+001
2.7239742e+001
2.5714342e+001
2.4467966e+001
2.3509775e+001
2.2809000e+001
2.2343052e+001
2.2047583e+001
2.1900881e+001
2.1858473e+001
2.1905849e+001
2.2026697e+001
2.2217680e+001
2.2475243e+001
2.2843624e+001
2.3333485e+001
2.3963825e+001
2.4727009e+001
2.5613503e+001
2.6615759e+001
2.7729687e+001
2.8963089e+001
3.0440268e+001
3.2249348e+001
3.4887653e+001
3.8405357e+001
4.2153851e+001
4.5923737e+001
4.8875874e+001
5.1049480e+001
5.2976501e+001
5.4698544e+001
5.6371742e+001
5.7822739e+001
5.8760269e+001
5.8969315e+001
5.8294182e+001
5.7004829e+001
5.5486732e+001
5.3857143e+001
5.2214451e+001
5.0484039e+001
4.8609615e+001
4.6529083e+001
4.4179165e+001
4.1853172e+001
3.9652740e+001
3.7566998e+001
3.5632504e+001
3.3278416e+001
3.0361971e+001
2.7339224e+001
2.4231651e+001
2.1528402e+001
1.9269619e+001
1.7012857e+001
1.4754677e+001
1.2464342e+001
1.0163907e+001
7.9100347e+000
5.7716637e+000
3.8550298e+000
2.2527597e+000
1.0655172e+000
3.2421479e-001
6.3186385e-002
3.9266983e-001
1.2535256e+000
2.3286262e+000
3.4216933e+000
4.3489084e+000
4.9911370e+000
5.5124774e+000
5.9659662e+000
6.4235916e+000
6.9017401e+000
7.2866578e+000
7.5050850e+000
7.5792365e+000
7.4416571e+000
7.2431178e+000
6.9609938e+000
6.6468229e+000
6.2921739e+000
5.9035873e+000
5.4700375e+000
4.9681864e+000
4.4045663e+000
3.8341262e+000
3.2879760e+000
2.8502057e+000
2.5379932e+000
2.3600349e+000
2.3026509e+000
2.3248305e+000
2.4082315e+000
2.5325701e+000
2.6940479e+000
2.9189563e+000
3.1919913e+000
3.5274408e+000
3.8982906e+000
4.2999196e+000
4.7118998e+000
5.1295342e+000
5.5342145e+000
5.9057813e+000
6.2174530e+000
6.4055095e+000
6.4809041e+000
6.3705349e+000
6.1367636e+000
5.7368989e+000
5.2852945e+000
4.7845244e+000
4.3003688e+000
3.8524418e+000
3.4464700e+000
3.0840504e+000
2.7520258e+000
2.4157720e+000
2.0266356e+000
1.5940546e+000
1.1205102e+000
6.7512882e-001
3.4421414e-001
1.1278640e-001
2.9017210e-002
2.6228555e-002
1.1832242e-001
2.5455928e-001
4.3593240e-001
6.2648332e-001
8.2897389e-001
1.0264235e+000
1.2082771e+000
1.3894142e+000
1.5525595e+000
1.7239161e+000
1.9081794e+000
2.1071978e+000
2.3390217e+000
2.5957818e+000
2.8948543e+000
3.2238333e+000
3.5826600e+000
3.9378238e+000
4.2680578e+000
4.5402818e+000
4.7431421e+000
4.8685365e+000
4.9359555e+000
4.9587688e+000
4.9628978e+000
4.9624000e+000
4.9599428e+000
4.9512129e+000
4.9361858e+000
4.9055381e+000
4.8754559e+000
4.8513045e+000
4.8385196e+000
4.8519187e+000
4.8752055e+000
4.9199696e+000
4.9708428e+000
5.0356421e+000
5.1015730e+000
5.1715069e+000
5.2409825e+000
5.3106441e+000
5.3903680e+000
5.4835591e+000
5.5952139e+000
5.7273946e+000
5.8729630e+000
6.0268269e+000
6.1743155e+000
6.3093662e+000
6.4153328e+000
6.5001497e+000
6.5583797e+000
6.6021943e+000
6.6288319e+000
6.6373096e+000
6.6023598e+000
6.5293746e+000
6.3603396e+000
6.1446171e+000
5.8091259e+000
5.4457235e+000
5.0117407e+000
4.5693636e+000
4.1067171e+000
3.6422300e+000
3.1758428e+000
2.7218838e+000
2.2939537e+000
1.8992963e+000
1.5571136e+000
1.2605193e+000
1.0207183e+000
8.1923497e-001
6.5388221e-001
4.9869448e-001
3.5151500e-001
2.0637004e-001
7.1604505e-002
-2.4312261e-002
-8.5595384e-002
-7.4394509e-002
-2.4243779e-002
8.8435836e-002
2.2951294e-001
4.2966369e-001
6.5560997e-001
9.5396292e-001
1.2559837e+000
1.5530049e+000
1.8154194e+000
1.9684743e+000
2.0797057e+000
2.0866430e+000
2.0624976e+000
1.9744757e+000
1.8573029e+000
1.6916918e+000
1.5061537e+000
1.2951832e+000
1.0814813e+000
8.6448354e-001
6.4441347e-001
4.2497402e-001
2.2419572e-001
5.4359235e-002
-1.6614657e-002
-1.4690951e-002
1.2794456e-001
3.2939649e-001
5.5758226e-001
7.8180647e-001
9.4766480e-001
1.0891578e+000
1.1562800e+000
1.2017878e+000
1.1680528e+000
1.1319624e+000
1.0931411e+000
1.0771835e+000
1.1344820e+000
1.2100251e+000
1.3276902e+000
1.4311123e+000
1.5026571e+000
1.5384307e+000
1.5174429e+000
1.4776608e+000
1.4169580e+000
1.3686422e+000
1.3341829e+000
1.3139514e+000
1.3062551e+000
1.3091621e+000
1.3202257e+000
1.3424749e+000
1.3665929e+000
1.3669465e+000
1.3485451e+000
1.2519066e+000
1.1317896e+000
9.6753925e-001
8.0912161e-001
7.3623586e-001
6.8066859e-001
7.0863950e-001
7.2812253e-001
7.0953965e-001
6.7519110e-001
5.9155071e-001
5.0947416e-001
4.3218249e-001
3.6774343e-001
3.2794705e-001
3.0396131e-001
3.0280137e-001
3.0649400e-001
3.1251952e-001
2.8528959e-001
2.2561368e-001
1.2993997e-001
1.1462495e-002
-9.0316691e-002
-1.8105310e-001
-2.4559018e-001
-2.9974473e-001
-3.4824198e-001
-3.9371875e-001
-4.2270756e-001
-4.4784245e-001
-4.6176597e-001
-4.7539127e-001
-4.9708077e-001
-5.1712269e-001
-5.2567905e-001
-5.3327501e-001
-5.3728640e-001
-5.5006605e-001
-5.9034491e-001
-6.3236332e-001
-6.7817104e-001
-7.1836245e-001
-7.4825442e-001
-7.7608031e-001
-7.9867464e-001
-7.8583890e-001
-7.3388660e-001
-6.3297451e-001
-4.9446276e-001
-3.7768969e-001
-2.7701783e-001
-2.3745500e-001
-2.2583178e-001
-2.2335441e-001
-2.2318372e-001
-2.0408186e-001
-1.8160300e-001
-1.6984873e-001
-1.5977719e-001
-1.5735561e-001
-1.4869963e-001
-4.8140034e-002
3.4758821e-003
1.0813805e-001
3.1399691e-001
5.3277618e-001
6.9414002e-001
6.8640608e-001
6.2395406e-001
4.4575611e-001
2.9532188e-001
1.9072565e-001
1.5543041e-001
2.0492694e-001
2.8373611e-001
3.8885471e-001
4.5162886e-001
4.8368236e-001
4.6023378e-001
4.0864938e-001
4.0776843e-001
4.2783248e-001
5.0936371e-001
6.0747278e-001
6.1507088e-001
6.0830301e-001
5.4053003e-001
