Image.
>Pix99999.
  .
5555
5555
2300
900
5555
2
1
0
701
5555
9.7940996e-002
9.9978089e-002
1.0201418e-001
1.0405126e-001
1.0608834e-001
1.0812543e-001
1.1016251e-001
1.1219960e-001
1.1423669e-001
1.1627378e-001
1.1831086e-001
1.2035778e-001
1.2239502e-001
1.2440267e-001
1.2646860e-001
1.2858456e-001
1.3054521e-001
1.3228774e-001
1.3460983e-001
1.3771504e-001
1.3872285e-001
1.3676150e-001
1.4263734e-001
1.5954223e-001
1.4736257e-001
7.7249035e-002
1.4190017e-002
2.9736688e-002
1.1592856e-001
2.4153532e-001
3.7294227e-001
4.8741719e-001
6.0814810e-001
7.6573741e-001
9.6737993e-001
1.2073895e+000
1.4563583e+000
1.6777608e+000
1.8359858e+000
1.9019070e+000
1.8723000e+000
1.7591172e+000
1.6041499e+000
1.4541959e+000
1.3409772e+000
1.2857171e+000
1.2866976e+000
1.3349489e+000
1.4202726e+000
1.5318551e+000
1.6580071e+000
1.7892975e+000
1.9249822e+000
2.0644076e+000
2.1961713e+000
2.3044322e+000
2.3708520e+000
2.3855450e+000
2.3770452e+000
2.3812366e+000
2.4143398e+000
2.4777398e+000
2.5398264e+000
2.5688689e+000
2.5744708e+000
2.5819664e+000
2.6239100e+000
2.7246873e+000
2.8695161e+000
3.0284088e+000
3.1665099e+000
3.2516263e+000
3.2691200e+000
3.2178006e+000
3.1279054e+000
3.0416608e+000
3.0085206e+000
3.0647850e+000
3.1845043e+000
3.3186305e+000
3.4119313e+000
3.4260676e+000
3.3983486e+000
3.3897521e+000
3.4460359e+000
3.5901542e+000
3.7757447e+000
3.9344854e+000
4.0090423e+000
3.9627957e+000
3.8247087e+000
3.6497700e+000
3.5011652e+000
3.4324260e+000
3.4470489e+000
3.5276806e+000
3.6486924e+000
3.7836711e+000
3.9133680e+000
4.0206914e+000
4.0852003e+000
4.0909328e+000
4.0453939e+000
3.9664865e+000
3.8770607e+000
3.7977250e+000
3.7323854e+000
3.6797650e+000
3.6429920e+000
3.6261334e+000
3.6295629e+000
3.6494482e+000
3.6731601e+000
3.6868112e+000
3.6879466e+000
3.6794429e+000
3.6679554e+000
3.6600034e+000
3.6580517e+000
3.6632121e+000
3.6794629e+000
3.7108884e+000
3.7568471e+000
3.8114600e+000
3.8566008e+000
3.8724144e+000
3.8539460e+000
3.8082440e+000
3.7645347e+000
3.7563107e+000
3.7955301e+000
3.8774946e+000
3.9695194e+000
4.0306592e+000
4.0334611e+000
3.9638193e+000
3.8352029e+000
3.6747494e+000
3.5164924e+000
3.3939967e+000
3.3282602e+000
3.3276420e+000
3.3704557e+000
3.4245439e+000
3.4686038e+000
3.4924023e+000
3.5078757e+000
3.5304921e+000
3.5477653e+000
3.5348635e+000
3.4718072e+000
3.3500783e+000
3.1979349e+000
3.0575259e+000
2.9567420e+000
2.9079709e+000
2.8917177e+000
2.8778419e+000
2.8549106e+000
2.8264008e+000
2.8155344e+000
2.8495660e+000
2.9336524e+000
3.0555286e+000
3.1763074e+000
3.2499337e+000
3.2513604e+000
3.1743031e+000
3.0429480e+000
2.8949900e+000
2.7625670e+000
2.6703360e+000
2.6265891e+000
2.6275332e+000
2.6518908e+000
2.6721251e+000
2.6705863e+000
2.6399844e+000
2.5946548e+000
2.5573432e+000
2.5420885e+000
2.5529974e+000
2.5751381e+000
2.5868392e+000
2.5801017e+000
2.5610349e+000
2.5635240e+000
2.6261547e+000
2.7470818e+000
2.8967960e+000
3.0265656e+000
3.0871496e+000
3.0640719e+000
2.9665136e+000
2.8205669e+000
2.6604171e+000
2.5216560e+000
2.4343970e+000
2.4024520e+000
2.4126585e+000
2.4407430e+000
2.4596512e+000
2.4509654e+000
2.4061821e+000
2.3367155e+000
2.2657242e+000
2.2192886e+000
2.2184713e+000
2.2595298e+000
2.3220255e+000
2.3772800e+000
2.3970804e+000
2.3695412e+000
2.2963121e+000
2.1949172e+000
2.0897043e+000
1.9992743e+000
1.9342840e+000
1.8898079e+000
1.8535500e+000
1.8202456e+000
1.7913189e+000
1.7743691e+000
1.7751337e+000
1.7782520e+000
1.7571214e+000
1.6947600e+000
1.5876656e+000
1.4602731e+000
1.3501105e+000
1.2782571e+000
1.2519640e+000
1.2717332e+000
1.3317347e+000
1.4112874e+000
1.4793557e+000
1.4997000e+000
1.4430817e+000
1.3214360e+000
1.1745850e+000
1.0460515e+000
9.6949965e-001
9.3765521e-001
9.1872418e-001
8.9111763e-001
8.4758949e-001
8.0110615e-001
7.7367139e-001
7.7249217e-001
7.9133403e-001
8.1467932e-001
8.2662708e-001
8.3176959e-001
8.4755242e-001
8.8386101e-001
9.3692499e-001
9.7260880e-001
9.4907767e-001
8.8100284e-001
8.2107395e-001
8.0463624e-001
8.3649153e-001
8.6148012e-001
8.0080020e-001
6.5076226e-001
4.6571308e-001
2.9794440e-001
1.7488846e-001
5.1800571e-002
-1.4640455e-001
-4.0090358e-001
-6.2262261e-001
-7.4376374e-001
-7.3462516e-001
-6.2287432e-001
-4.7506571e-001
-3.5895613e-001
-3.2309189e-001
-3.4751227e-001
-3.6674660e-001
-3.3818400e-001
-2.5525862e-001
-1.6620225e-001
-1.4412929e-001
-2.0136777e-001
-2.9212251e-001
-3.4065828e-001
-2.6157060e-001
3.8969219e-003
4.7941461e-001
1.1311135e+000
1.8796294e+000
2.6249292e+000
3.2843738e+000
3.9028618e+000
4.6372457e+000
5.6925130e+000
7.2831621e+000
9.5625906e+000
1.2560720e+001
1.5968000e+001
1.9258789e+001
2.2137478e+001
2.4598862e+001
2.6927954e+001
2.9580528e+001
3.2869350e+001
3.6858334e+001
4.1144962e+001
4.5070110e+001
4.8463413e+001
5.1634277e+001
5.4961586e+001
5.8737461e+001
6.2938267e+001
6.7289101e+001
7.1565872e+001
7.5640518e+001
7.9414665e+001
8.2822304e+001
8.5909286e+001
8.8805740e+001
9.1591301e+001
9.4232742e+001
9.6430275e+001
9.7731888e+001
9.8034744e+001
9.7566696e+001
9.6483192e+001
9.4800369e+001
9.2472229e+001
8.9466087e+001
8.5960052e+001
8.2286530e+001
7.8592110e+001
7.4814583e+001
7.0870079e+001
6.6717850e+001
6.2437115e+001
5.8204437e+001
5.4145370e+001
5.0314224e+001
4.6756451e+001
4.3518753e+001
4.0621059e+001
3.8055801e+001
3.5817116e+001
3.3904484e+001
3.2301834e+001
3.0972277e+001
2.9864000e+001
2.8918257e+001
2.8088730e+001
2.7348999e+001
2.6701406e+001
2.6172300e+001
2.5796469e+001
2.5613739e+001
2.5664919e+001
2.5987444e+001
2.6593771e+001
2.7458475e+001
2.8497694e+001
2.9581091e+001
3.0608358e+001
3.1533443e+001
3.2372917e+001
3.3227570e+001
3.4347450e+001
3.6055107e+001
3.8333858e+001
4.0788811e+001
4.3016705e+001
4.4748009e+001
4.6016613e+001
4.7134426e+001
4.8304447e+001
4.9519867e+001
5.0631561e+001
5.1391911e+001
5.1616657e+001
5.1250469e+001
5.0422623e+001
4.9414726e+001
4.8389126e+001
4.7325302e+001
4.6129372e+001
4.4682629e+001
4.2940590e+001
4.0962109e+001
3.8892159e+001
3.6913349e+001
3.5022800e+001
3.3001232e+001
3.0652920e+001
2.7908928e+001
2.4947948e+001
2.2171080e+001
1.9805330e+001
1.7800369e+001
1.5998857e+001
1.4201087e+001
1.2280592e+001
1.0219944e+001
8.0655909e+000
5.9227009e+000
3.9378059e+000
2.2820771e+000
1.0623031e+000
3.0500335e-001
5.9906799e-002
3.9524931e-001
1.2130563e+000
2.2177160e+000
3.1793015e+000
4.0200062e+000
4.7610941e+000
5.4908824e+000
6.2096810e+000
6.7867045e+000
7.0791197e+000
6.9933128e+000
6.5943785e+000
6.1198330e+000
5.7139759e+000
5.3517070e+000
4.9976521e+000
4.6505761e+000
4.3103189e+000
3.9642801e+000
3.5772529e+000
3.0984354e+000
2.5354433e+000
1.9780879e+000
1.5164820e+000
1.2089107e+000
1.0649257e+000
1.0375917e+000
1.0772771e+000
1.1506691e+000
1.2420057e+000
1.3556180e+000
1.5014994e+000
1.6912159e+000
1.9348121e+000
2.2391243e+000
2.6055481e+000
3.0262959e+000
3.4786921e+000
3.9217565e+000
4.3147926e+000
4.6255546e+000
4.8346667e+000
4.9391556e+000
4.9389920e+000
4.8352799e+000
4.6420608e+000
4.3913131e+000
4.1124921e+000
3.8231030e+000
3.5263743e+000
3.2117944e+000
2.8858039e+000
2.5819943e+000
2.3207006e+000
2.0897386e+000
1.8536137e+000
1.5591017e+000
1.1915433e+000
8.0199552e-001
4.5375600e-001
2.0043954e-001
5.9136942e-002
-5.2293763e-003
-2.6374673e-002
-1.6163964e-002
2.4894238e-002
1.0359915e-001
2.1031055e-001
3.0847335e-001
3.6917570e-001
3.8862491e-001
3.8544059e-001
4.0337661e-001
4.7746056e-001
6.1754584e-001
8.1922531e-001
1.0636775e+000
1.3280629e+000
1.5893762e+000
1.8312800e+000
2.0490634e+000
2.2429481e+000
2.4165692e+000
2.5709763e+000
2.7018292e+000
2.8066583e+000
2.8886070e+000
2.9544144e+000
3.0149603e+000
3.0785856e+000
3.1476951e+000
3.2217972e+000
3.2976604e+000
3.3745999e+000
3.4571600e+000
3.5499854e+000
3.6550417e+000
3.7714176e+000
3.8950257e+000
4.0281358e+000
4.1853342e+000
4.3831024e+000
4.6339064e+000
4.9357028e+000
5.2625408e+000
5.5894094e+000
5.9052582e+000
6.2171497e+000
6.5589204e+000
6.9618740e+000
7.4397697e+000
7.9905438e+000
8.5902748e+000
9.2102861e+000
9.8233004e+000
1.0411437e+001
1.0974187e+001
1.1515491e+001
1.2036365e+001
1.2525586e+001
1.2942120e+001
1.3244520e+001
1.3405498e+001
1.3417183e+001
1.3299386e+001
1.3076120e+001
1.2764609e+001
1.2378633e+001
1.1928150e+001
1.1419457e+001
1.0847263e+001
1.0211718e+001
9.5251989e+000
8.8093443e+000
8.0989676e+000
7.4202824e+000
6.7760234e+000
6.1590114e+000
5.5541358e+000
4.9504571e+000
4.3490181e+000
3.7557967e+000
3.1815219e+000
2.6413977e+000
2.1583993e+000
1.7565103e+000
1.4566226e+000
1.2683551e+000
1.1779823e+000
1.1600400e+000
1.1763133e+000
1.1898806e+000
1.1737076e+000
1.1122515e+000
1.0100168e+000
8.8303185e-001
7.6035982e-001
6.6671962e-001
6.0848123e-001
5.7807225e-001
5.4727173e-001
4.9219945e-001
4.1080326e-001
3.1100920e-001
2.1112429e-001
1.2526716e-001
5.3556181e-002
4.7288658e-003
1.5435107e-002
1.2756132e-001
3.7706050e-001
7.7588761e-001
1.2822663e+000
1.8422749e+000
2.4044642e+000
2.9276481e+000
3.3936634e+000
3.7936480e+000
4.1299396e+000
4.4202428e+000
4.7117205e+000
5.0390382e+000
5.3878026e+000
5.7284822e+000
6.0244451e+000
6.2608957e+000
6.4812002e+000
6.7304912e+000
7.0238070e+000
7.3634429e+000
7.7386875e+000
8.1415224e+000
8.5777769e+000
9.0404510e+000
9.4814835e+000
9.8491106e+000
1.0109592e+001
1.0254251e+001
1.0329670e+001
1.0392185e+001
1.0487072e+001
1.0642892e+001
1.0842970e+001
1.1055851e+001
1.1232600e+001
1.1333640e+001
1.1344818e+001
1.1268655e+001
1.1133791e+001
1.0965743e+001
1.0777864e+001
1.0568923e+001
1.0319010e+001
1.0001451e+001
9.6004572e+000
9.1140823e+000
8.5856066e+000
8.0691185e+000
7.6171293e+000
7.2596397e+000
6.9621339e+000
6.6779046e+000
6.3714485e+000
6.0213017e+000
5.6382084e+000
5.2350340e+000
4.8082733e+000
4.3584833e+000
3.9099083e+000
3.4937370e+000
3.1424637e+000
2.8726642e+000
2.6511254e+000
2.4346960e+000
2.1901655e+000
1.9031659e+000
1.6114839e+000
1.3543457e+000
1.1351235e+000
9.3995857e-001
7.3064679e-001
4.8170185e-001
2.2804065e-001
1.5335642e-002
-1.2487257e-001
-1.8267880e-001
-2.0636292e-001
-2.4336721e-001
-2.9068631e-001
-3.2198173e-001
-2.7570504e-001
-1.0221988e-001
1.7898163e-001
5.2081436e-001
8.4128302e-001
1.0636494e+000
1.1590819e+000
1.1225142e+000
9.9174768e-001
8.1324160e-001
6.2860173e-001
4.6851361e-001
3.3016682e-001
2.0826580e-001
1.1755450e-001
6.2796541e-002
-3.7654266e-003
-1.1809517e-001
-2.2737631e-001
-2.7855885e-001
-2.9772007e-001
-3.3005041e-001
-4.1837490e-001
-5.9246635e-001
-8.3590567e-001
-1.1101900e+000
-1.3372506e+000
-1.4512000e+000
-1.4677777e+000
-1.4283029e+000
-1.3942212e+000
-1.4116378e+000
-1.4496529e+000
-1.4645694e+000
-1.4373714e+000
-1.3633622e+000
-1.2694404e+000
-1.1857245e+000
-1.1244560e+000
-1.0937001e+000
