##TITLE=Methyl Ethyl Ketone
##JCAMP-DX=4.24
##DATA TYPE=INFRARED SPECTRUM
##XUNITS=cm-1
##YUNITS=Absorbance
##FIRSTX=900
##LASTX=2300
##XYDATA=(X++(Y..Y))
2296 -0.059636999
2294 -0.060903188
2292 -0.062170375
2290 -0.063437559
2288 -0.064704753
2286 -0.065971933
2284 -0.067239121
2282 -0.068506315
2280 -0.069772512
2278 -0.071039684
2276 -0.072306871
2274 -0.073574059
2272 -0.074841246
2270 -0.076108433
2268 -0.077375621
2266 -0.078641824
2264 -0.079908997
2262 -0.081176184
2260 -0.082443364
2258 -0.083710559
2256 -0.084977746
2254 -0.086244926
2252 -0.087511145
2250 -0.08877831
2248 -0.090045489
2246 -0.091312677
2244 -0.0033932971
2242 0.081028238
2240 0.16059037
2238 0.24528691
2236 0.33079886
2234 0.38224617
2232 0.4281663
2230 0.40511408
2228 0.38016993
2226 0.36653402
2224 0.36803326
2222 0.43616432
2220 0.5122031
2218 0.6015057
2216 0.67506629
2214 0.71261251
2212 0.74320018
2210 0.76591259
2208 0.7879346
2206 0.80970925
2204 0.79816079
2202 0.75449717
2200 0.68974078
2198 0.61079067
2196 0.58087999
2194 0.5797888
2192 0.64504808
2190 0.73855853
2188 0.83864784
2186 0.94026673
2184 0.98989999
2182 1.0275806
2180 1.0362864
2178 1.0411038
2176 1.0751457
2174 1.1129886
2172 1.1629652
2170 1.213637
2168 1.2613571
2166 1.30761
2164 1.3496683
2162 1.3700579
2160 1.3356857
2158 1.2673479
2156 1.1451
2154 1.0438806
2152 0.9810493
2150 0.97541994
2148 1.0296906
2146 1.0831535
2144 1.1305188
2142 1.154112
2140 1.1616426
2138 1.182793
2136 1.2123258
2134 1.257273
2132 1.308432
2130 1.3769933
2128 1.4508721
2126 1.5327214
2124 1.6163046
2122 1.6732756
2120 1.723964
2118 1.7371083
2116 1.74054
2114 1.710624
2112 1.6732681
2110 1.6246828
2108 1.5806012
2106 1.5552671
2104 1.5465914
2102 1.568614
2100 1.607044
2098 1.6654164
2096 1.7367572
2094 1.8211337
2092 1.9108274
2090 2.0039127
2088 2.0642731
2086 2.0971351
2084 2.0788431
2082 2.0293086
2080 1.979068
2078 1.9307054
2076 1.9188172
2074 1.922123
2072 1.927856
2070 1.9339154
2068 1.9299608
2066 1.92432
2064 1.9458423
2062 1.9747027
2060 2.0220859
2058 2.0712872
2056 2.1100914
2054 2.1364169
2052 2.1254892
2050 2.0831463
2048 1.9795132
2046 1.8584571
2044 1.7270479
2042 1.6404612
2040 1.6241486
2038 1.6613675
2036 1.7463615
2034 1.8308607
2032 1.9064269
2030 1.9644639
2028 2.0102961
2026 2.0482414
2024 2.0826943
2022 2.1388438
2020 2.2066987
2018 2.288842
2016 2.3762
2014 2.3933208
2012 2.3861849
2010 2.3255966
2008 2.2528348
2006 2.210943
2004 2.1776247
2002 2.1503181
2000 2.1184828
1998 2.062361
1996 2.0051785
1994 1.9643383
1992 1.9374548
1990 1.9307934
1988 1.917218
1986 1.8804885
1984 1.8280463
1982 1.7614776
1980 1.6963232
1978 1.6373061
1976 1.5780685
1974 1.517892
1972 1.4635732
1970 1.4144237
1968 1.4000605
1966 1.407125
1964 1.4684163
1962 1.5559139
1960 1.666672
1958 1.7858286
1956 1.8381957
1954 1.8630059
1952 1.7866092
1950 1.679796
1948 1.5969926
1946 1.5444
1944 1.610652
1942 1.7156731
1940 1.8190594
1938 1.8879963
1936 1.8665972
1934 1.8122092
1932 1.748168
1930 1.6759242
1928 1.5976759
1926 1.4727435
1924 1.2906723
1922 1.0891635
1920 0.88140482
1918 0.76481849
1916 0.72937924
1914 0.80443662
1912 0.95018417
1910 1.1332608
1908 1.3323894
1906 1.4807428
1904 1.599488
1902 1.6077279
1900 1.5652397
1898 1.5057502
1896 1.4458001
1894 1.4637736
1892 1.5121331
1890 1.5579079
1888 1.5881182
1886 1.5519229
1884 1.4881991
1882 1.4150813
1880 1.3453085
1878 1.2932746
1876 1.23312
1874 1.1507478
1872 1.05792
1870 0.96288711
1868 0.90976912
1866 0.90489298
1864 0.9260087
1862 0.95544159
1860 0.97246611
1858 0.97823375
1856 0.95873171
1854 0.92375565
1852 0.78099799
1850 0.56999677
1848 0.25048161
1846 -0.12420858
1844 -0.30746913
1842 -0.37903324
1840 -0.18160437
1838 0.13725021
1836 0.43259114
1834 0.70270443
1832 0.91091895
1830 1.0674888
1828 1.1340404
1826 1.1307451
1824 1.0339067
1822 0.92481279
1820 0.87218219
1818 0.86486113
1816 0.90301746
1814 0.92088318
1812 0.88799065
1810 0.82781875
1808 0.75377238
1806 0.70197999
1804 0.67747647
1802 0.5715341
1800 0.38654366
1798 0.11819384
1796 -0.20232104
1794 -0.34321201
1792 -0.3528448
1790 -0.18229496
1788 0.088324197
1786 0.28970164
1784 0.43618816
1782 0.45225018
1780 0.37488046
1778 0.16722932
1776 -0.096482791
1774 -0.30212563
1772 -0.39075756
1770 -0.21788232
1768 0.051718965
1766 0.24086271
1764 0.29899138
1762 0.17714709
1760 0.041388039
1758 -0.21095552
1756 -0.49436301
1754 -0.68350184
1752 -0.90172422
1750 -1.192847
1748 -1.5351638
1746 -1.9105893
1744 -2.1891818
1742 -2.3727136
1740 -2.4611468
1738 -2.4837584
1736 -2.4257798
1734 -2.3100159
1732 -2.0212054
1730 -1.6158146
1728 -1.1879228
1726 -0.76390254
1724 -0.44375244
1722 -0.1984385
1720 0.088664755
1718 0.50522035
1716 1.0614408
1714 1.667385
1712 2.2475984
1710 2.8021369
1708 3.3408339
1706 3.981492
1704 4.8407998
1702 6.2023344
1700 8.2168941
1698 11.306767
1696 15.528857
1694 20.085119
1692 24.558849
1690 28.553474
1688 32.049248
1686 35.908878
1684 40.260277
1682 45.309017
1680 50.911003
1678 55.788071
1676 59.99173
1674 64.088646
1672 68.192719
1670 73.000465
1668 78.333527
1666 83.623199
1664 88.793007
1662 93.591331
1660 97.98793
1658 101.89487
1656 105.22285
1654 107.84197
1652 109.5674
1650 110.22385
1648 109.60931
1646 107.64178
1644 104.8218
1642 101.65091
1640 98.184204
1638 94.511208
1636 90.303131
1634 85.480652
1632 80.551666
1630 75.701935
1628 71.01059
1626 66.478836
1624 61.65448
1622 56.509354
1620 51.520233
1618 46.7342
1616 42.503517
1614 38.833588
1612 35.723293
1610 33.151901
1608 30.941475
1606 29.066942
1604 27.389223
1602 25.945179
1600 24.772663
1598 23.876352
1596 23.221001
1594 22.78801
1592 22.519514
1590 22.431974
1588 22.516558
1586 22.775951
1584 23.195343
1582 23.69043
1580 24.2055
1578 24.739492
1576 25.291
1574 25.977568
1572 26.826914
1570 27.886192
1568 29.159559
1566 30.517399
1564 31.944315
1562 33.401291
1560 34.935219
1558 36.990864
1556 39.621143
1554 42.527729
1552 45.544456
1550 47.932148
1548 49.635269
1546 50.847
1544 51.521023
1542 51.737164
1540 51.50568
1538 50.923931
1536 50.055
1534 49.033878
1532 47.831432
1530 46.463432
1528 44.894932
1526 43.10775
1524 41.147625
1522 39.034512
1520 37.029465
1518 35.242832
1516 33.630745
1514 32.199379
1512 30.53956
1510 28.547087
1508 26.006712
1506 22.803892
1504 19.756336
1502 16.962824
1500 14.724634
1498 13.10627
1496 11.540857
1494 10.030879
1492 8.515914
1490 7.0094142
1488 5.5357962
1486 4.1376529
1484 2.8785701
1482 1.8136075
1480 1.002202
1478 0.44802672
1476 0.11895857
1474 0.10732222
1472 0.46264443
1470 1.0313239
1468 1.73842
1466 2.3864779
1464 2.8568389
1462 3.196696
1460 3.4013689
1458 3.678252
1456 4.1082602
1454 4.6842337
1452 5.4433684
1450 6.0025072
1448 6.2369161
1446 6.2723002
1444 6.0373468
1442 5.744153
1440 5.3763666
1438 4.9677019
1436 4.5134473
1434 4.0284925
1432 3.53666
1430 3.1069264
1428 2.756686
1426 2.5032995
1424 2.3611605
1422 2.3347712
1420 2.4460065
1418 2.7091851
1416 3.0758343
1414 3.498615
1412 3.9042788
1410 4.2398891
1408 4.5264196
1406 4.763495
1404 4.9616437
1402 5.1006422
1400 5.1927199
1398 5.2111526
1396 5.2536569
1394 5.3487411
1392 5.4916773
1390 5.693902
1388 5.8269916
1386 5.8380151
1384 5.728332
1382 5.4446983
1380 5.0594134
1378 4.5494318
1376 3.9822142
1374 3.3885193
1372 2.871558
1370 2.4555905
1368 2.1563194
1366 1.9151349
1364 1.6220603
1362 1.2758223
1360 0.86434019
1358 0.47244811
1356 0.20289806
1354 0.032473855
1352 -0.0020142263
1350 0.014006225
1348 0.059719671
1346 0.092873037
1344 0.086025245
1342 0.061296441
1340 0.010585658
1338 0.0061099865
1336 0.099862859
1334 0.26958936
1332 0.5578711
1330 0.83378708
1328 1.0795017
1326 1.2716293
1324 1.3999009
1322 1.5309653
1320 1.6874748
1318 1.9141611
1316 2.2196701
1314 2.5622027
1312 2.9110155
1310 3.1928971
1308 3.3970754
1306 3.5101843
1304 3.5613325
1302 3.5762899
1300 3.5772595
1298 3.5787902
1296 3.5789714
1294 3.5714552
1292 3.5629807
1290 3.5550175
1288 3.5601439
1286 3.5985329
1284 3.6504052
1282 3.7295537
1280 3.805845
1278 3.8738537
1276 3.9296813
1274 3.965579
1272 4.0067434
1270 4.0676489
1268 4.1812663
1266 4.3783641
1264 4.6434402
1262 4.9868207
1260 5.3484139
1258 5.7268243
1256 6.1053572
1254 6.4921522
1252 6.9095721
1250 7.3518672
1248 7.8160553
1246 8.290575
1244 8.7615023
1242 9.2178383
1240 9.6283684
1238 9.985034
1236 10.206843
1234 10.34924
1232 10.315761
1230 10.220936
1228 9.9835682
1226 9.7062407
1224 9.3250351
1222 8.9142351
1220 8.432045
1218 7.930676
1216 7.3897886
1214 6.8311214
1212 6.2423906
1210 5.6405878
1208 5.0255065
1206 4.4295907
1204 3.8640141
1202 3.3450353
1200 2.8747017
1198 2.4374943
1196 2.0277071
1194 1.6335797
1192 1.252126
1190 0.88669151
1188 0.53851157
1186 0.2323975
1184 -0.036371261
1182 -0.20854811
1180 -0.32625625
1178 -0.31057763
1176 -0.24626181
1174 -0.058320239
1172 0.14193961
1170 0.35987875
1168 0.5498988
1166 0.65301299
1164 0.73393935
1162 0.76066989
1160 0.77922571
1158 0.77847672
1156 0.75253212
1154 0.6806637
1152 0.56740862
1150 0.39937443
1148 0.21706744
1146 0.032252461
1144 -0.084481105
1142 -0.12409242
1140 -0.051321287
1138 0.097782746
1136 0.31313658
1134 0.57761931
1132 0.89343977
1130 1.2404597
1128 1.6485783
1126 2.0730901
1124 2.4966676
1122 2.9016299
1120 3.208776
1118 3.4943271
1116 3.7125273
1114 3.9233694
1112 4.106113
1110 4.2588034
1108 4.3145604
1106 4.340395
1104 4.2968817
1102 4.2799587
1100 4.321013
1098 4.420311
1096 4.6144857
1094 4.8575535
1092 5.1644478
1090 5.5078044
1088 5.8830776
1086 6.2363491
1084 6.5649104
1082 6.8364997
1080 7.0726428
1078 7.2938242
1076 7.5014515
1074 7.6602812
1072 7.7866087
1070 7.7948627
1068 7.7671089
1066 7.6683612
1064 7.5650439
1062 7.4966507
1060 7.4334154
1058 7.390976
1056 7.3345141
1054 7.2167168
1052 7.0993853
1050 6.9856091
1048 6.8940334
1046 6.8522072
1044 6.7828932
1042 6.6549807
1040 6.4461198
1038 6.1162467
1036 5.7374501
1034 5.3070598
1032 4.911901
1030 4.5550375
1028 4.2694449
1026 4.0332594
1024 3.8029819
1022 3.5664542
1020 3.2339196
1018 2.8545449
1016 2.3699772
1014 1.8590832
1012 1.3699132
1010 0.89655972
1008 0.56130481
1006 0.24906208
1004 0.07195662
1002 -0.08851707
1000 -0.14288606
998 -0.18457748
996 -0.17189428
994 -0.1771118
992 -0.23924892
990 -0.32547063
988 -0.46597734
986 -0.59612644
984 -0.70674628
982 -0.79582351
980 -0.85400659
978 -0.87842023
976 -0.86468744
974 -0.79032779
972 -0.66368866
970 -0.46170348
968 -0.21325275
966 0.04756245
964 0.30690676
962 0.42505211
960 0.490897
958 0.4169203
956 0.314908
954 0.25613612
952 0.20456479
950 0.20167735
948 0.19579715
946 0.1198529
944 0.04359331
942 -0.0023827031
940 -0.073295675
938 -0.097268157
936 -0.094098628
934 -0.0095979273
932 0.14301056
930 0.441513
928 0.7824434
926 1.1899414
924 1.544728
922 1.8345454
920 2.0618041
918 2.2316566
916 2.4454
914 2.6908407
912 2.9972801
910 3.3355811
908 3.60307
906 3.8438714
904 4.0355268
902 4.2150879
900 4.4220057
898 4.6335297
896 4.7242999
