Image.
>Pix99999.
  .
5555
5555
2300
900
5555
2
1
0
701
5555
3.8605999e-002
3.9408851e-002
4.0211700e-002
4.1014556e-002
4.1818399e-002
4.2621255e-002
4.3424107e-002
4.4227950e-002
4.5030810e-002
4.5833662e-002
4.6636514e-002
4.7442321e-002
4.8243251e-002
4.9038216e-002
4.9849737e-002
5.0683107e-002
5.1456332e-002
5.2147243e-002
5.3059366e-002
5.4281563e-002
5.4680258e-002
5.3921789e-002
5.6224506e-002
6.2843688e-002
5.8084846e-002
3.0626429e-002
5.6562629e-003
9.2610018e-003
2.9906347e-002
4.7439102e-002
5.0097257e-002
3.4668934e-002
2.2403141e-002
3.7148122e-002
8.4974073e-002
1.6239184e-001
2.4841988e-001
3.1993720e-001
3.6563188e-001
3.8189268e-001
3.8196516e-001
3.8223067e-001
3.9147142e-001
4.1309339e-001
4.3828282e-001
4.5678836e-001
4.6767592e-001
4.7290301e-001
4.7460851e-001
4.7444960e-001
4.7228497e-001
4.6788296e-001
4.6303251e-001
4.6026686e-001
4.6249712e-001
4.7287259e-001
4.9519441e-001
5.3057867e-001
5.6838310e-001
5.9601617e-001
6.0835457e-001
6.0591328e-001
6.0177112e-001
6.1000860e-001
6.3212967e-001
6.6400617e-001
6.9596040e-001
7.1794194e-001
7.2566509e-001
7.1820325e-001
7.0041800e-001
6.7750442e-001
6.4826953e-001
6.0917330e-001
5.5630404e-001
4.8997858e-001
4.2826155e-001
3.9250919e-001
3.9228657e-001
4.2824006e-001
4.8210314e-001
5.3120756e-001
5.6179368e-001
5.6592971e-001
5.4550958e-001
5.0705755e-001
4.6189544e-001
4.2018059e-001
3.8041204e-001
3.3722505e-001
2.8721714e-001
2.3060021e-001
1.7909211e-001
1.4573066e-001
1.3134666e-001
1.3163413e-001
1.4055857e-001
1.5308550e-001
1.7015360e-001
1.9433610e-001
2.2545856e-001
2.6184836e-001
3.0050153e-001
3.3662701e-001
3.5983664e-001
3.5962102e-001
3.3394623e-001
2.8814638e-001
2.4395217e-001
2.2540468e-001
2.3965570e-001
2.8274676e-001
3.3391958e-001
3.6830956e-001
3.7096927e-001
3.3356306e-001
2.5721279e-001
1.4935215e-001
2.8318085e-002
-8.3565690e-002
-1.6547658e-001
-2.0329985e-001
-2.0751217e-001
-1.9943808e-001
-2.0263955e-001
-2.3414035e-001
-2.8158778e-001
-3.2072255e-001
-3.3022097e-001
-2.9687551e-001
-2.3368201e-001
-1.6314457e-001
-1.0023603e-001
-5.2716598e-002
-1.4257940e-002
2.6576098e-002
7.7427290e-002
1.4071144e-001
2.0528795e-001
2.5514224e-001
2.7884600e-001
2.7008414e-001
2.3382278e-001
1.7950116e-001
1.1424869e-001
4.5603264e-002
-1.1485757e-002
-4.2299442e-002
-4.8099622e-002
-3.9963152e-002
-3.8082786e-002
-6.1584301e-002
-1.0881490e-001
-1.6794561e-001
-2.2674720e-001
-2.7552220e-001
-3.1340852e-001
-3.4227651e-001
-3.5765240e-001
-3.5164446e-001
-3.1605515e-001
-2.4467771e-001
-1.3943143e-001
-1.0765931e-002
1.1138600e-001
1.8996565e-001
1.9763052e-001
1.2222646e-001
-6.5652393e-003
-1.4028820e-001
-2.3843485e-001
-2.7458268e-001
-2.5907955e-001
-2.2126159e-001
-1.9312848e-001
-1.9979499e-001
-2.3674749e-001
-2.8344101e-001
-3.1652677e-001
-3.1830138e-001
-2.9660088e-001
-2.7241024e-001
-2.6530442e-001
-2.8837964e-001
-3.3444381e-001
-3.8340086e-001
-4.0536529e-001
-3.7440962e-001
-3.0076990e-001
-2.1516040e-001
-1.5056285e-001
-1.3120072e-001
-1.4489646e-001
-1.6393064e-001
-1.7976780e-001
-1.9832136e-001
-2.3479240e-001
-2.9956034e-001
-3.6408764e-001
-3.8131842e-001
-3.2041857e-001
-1.7468469e-001
5.6898259e-003
1.4510779e-001
1.9429971e-001
1.3421379e-001
-2.9681250e-004
-1.5054870e-001
-2.8268903e-001
-3.8407084e-001
-4.5958000e-001
-5.1883703e-001
-5.5416250e-001
-5.5031765e-001
-5.0755000e-001
-4.3920121e-001
-3.7116960e-001
-3.3073950e-001
-3.2263598e-001
-3.3780485e-001
-3.6949429e-001
-4.1351515e-001
-4.6454021e-001
-5.1622409e-001
-5.6206840e-001
-5.9607643e-001
-6.1438578e-001
-6.1457652e-001
-5.9469026e-001
-5.5377340e-001
-4.9470559e-001
-4.2230880e-001
-3.3947244e-001
-2.5080377e-001
-1.7537834e-001
-1.3925436e-001
-1.5763904e-001
-2.3264381e-001
-3.4357461e-001
-4.5814246e-001
-5.5432743e-001
-6.2059116e-001
-6.5524250e-001
-6.5972424e-001
-6.2466908e-001
-5.3985500e-001
-4.2650703e-001
-3.2758257e-001
-2.8548577e-001
-3.2402235e-001
-3.9611429e-001
-4.1559824e-001
-3.3470958e-001
-1.5173911e-001
7.0694290e-002
2.4149987e-001
3.2268956e-001
3.2472220e-001
2.8903848e-001
2.6897740e-001
2.9793429e-001
3.8283765e-001
4.8273659e-001
5.3179026e-001
4.9518880e-001
3.7490821e-001
2.2173500e-001
1.0397138e-001
2.5932062e-002
-4.9242981e-002
-1.1671927e-001
-1.3850912e-001
-9.4141826e-002
9.5832124e-003
1.2219776e-001
1.6959536e-001
1.0546534e-001
-7.4117348e-002
-2.9085153e-001
-4.2207310e-001
-4.0757799e-001
-2.5905609e-001
-6.6651799e-002
4.4985138e-002
2.9888988e-002
-7.8735068e-002
-1.9214018e-001
-1.8929699e-001
4.8795670e-002
6.0457033e-001
1.4191773e+000
2.3307958e+000
3.2048576e+000
3.9746611e+000
4.7146220e+000
5.6073160e+000
6.8484979e+000
8.6201763e+000
1.1068135e+001
1.4242699e+001
1.7870714e+001
2.1463301e+001
2.4712357e+001
2.7571987e+001
3.0361641e+001
3.3638123e+001
3.7818531e+001
4.3026493e+001
4.8742199e+001
5.4076649e+001
5.8793697e+001
6.3286606e+001
6.7959984e+001
7.3026215e+001
7.8229919e+001
8.2990845e+001
8.6986603e+001
9.0193375e+001
9.2668831e+001
9.4485931e+001
9.5689316e+001
9.6298630e+001
9.6349159e+001
9.5905159e+001
9.5075066e+001
9.3996895e+001
9.2794556e+001
9.1543938e+001
9.0176048e+001
8.8499367e+001
8.6334518e+001
8.3570732e+001
8.0264755e+001
7.6595573e+001
7.2635536e+001
6.8338524e+001
6.3689121e+001
5.8748917e+001
5.3706703e+001
4.8844925e+001
4.4365486e+001
4.0364708e+001
3.6880016e+001
3.3901089e+001
3.1364382e+001
2.9169329e+001
2.7250759e+001
2.5592434e+001
2.4211468e+001
2.3144211e+001
2.2404999e+001
2.1977896e+001
2.1819115e+001
2.1867409e+001
2.2083803e+001
2.2456772e+001
2.2994125e+001
2.3724600e+001
2.4712414e+001
2.6048687e+001
2.7801201e+001
2.9991488e+001
3.2545612e+001
3.5301666e+001
3.8098843e+001
4.0803207e+001
4.3325779e+001
4.5655552e+001
4.7974979e+001
5.0582130e+001
5.3396889e+001
5.5927101e+001
5.7768749e+001
5.8758511e+001
5.9022823e+001
5.8904144e+001
5.8514469e+001
5.7665512e+001
5.6166222e+001
5.3945751e+001
5.1218998e+001
4.8457005e+001
4.5970055e+001
4.3807453e+001
4.1901718e+001
4.0110901e+001
3.8277126e+001
3.6263195e+001
3.4031029e+001
3.1663717e+001
2.9323700e+001
2.7199242e+001
2.5291000e+001
2.3381804e+001
2.1274746e+001
1.8889057e+001
1.6351126e+001
1.3976072e+001
1.1944171e+001
1.0216063e+001
8.6849718e+000
7.2298698e+000
5.8011179e+000
4.4380255e+000
3.1817343e+000
2.0559971e+000
1.0994673e+000
3.7080327e-001
-8.5097075e-002
-2.3715276e-001
-1.1645019e-002
6.9426191e-001
1.8392692e+000
3.2003632e+000
4.5733213e+000
5.8421545e+000
6.9836173e+000
8.0671520e+000
9.1651812e+000
1.0312728e+001
1.1455200e+001
1.2436821e+001
1.3114097e+001
1.3402454e+001
1.3309840e+001
1.2947036e+001
1.2426014e+001
1.1824690e+001
1.1178714e+001
1.0479127e+001
9.6983385e+000
8.8052273e+000
7.8254786e+000
6.8612990e+000
6.0149498e+000
5.3580832e+000
4.9129286e+000
4.6430964e+000
4.5037770e+000
4.4602623e+000
4.4995942e+000
4.6360350e+000
4.8858757e+000
5.2570572e+000
5.7391415e+000
6.2954984e+000
6.8702655e+000
7.3883147e+000
7.7713079e+000
7.9492035e+000
7.8920569e+000
7.6305966e+000
7.2331200e+000
6.7970181e+000
6.3894596e+000
6.0213251e+000
5.6835217e+000
5.3562121e+000
5.0221472e+000
4.6699800e+000
4.2811055e+000
3.8281369e+000
3.3026640e+000
2.7285242e+000
2.1367836e+000
1.5568972e+000
1.0087204e+000
5.0129294e-001
6.1276913e-002
-2.5684631e-001
-4.1156071e-001
-3.9254707e-001
-2.0260938e-001
1.4383692e-001
6.1879039e-001
1.1781811e+000
1.7828159e+000
2.4054382e+000
3.0119717e+000
3.5519753e+000
3.9645972e+000
4.1838713e+000
4.1768284e+000
3.9691949e+000
3.6163268e+000
3.1993780e+000
2.7955837e+000
2.4620728e+000
2.2292194e+000
2.0877538e+000
2.0086300e+000
1.9461849e+000
1.8616874e+000
1.7369363e+000
1.5718869e+000
1.3900907e+000
1.2215965e+000
1.0979280e+000
1.0459106e+000
1.0833124e+000
1.2220000e+000
1.4663125e+000
1.8154808e+000
2.2610626e+000
2.7844920e+000
3.3523779e+000
3.9258854e+000
4.4645581e+000
4.9353137e+000
5.3203502e+000
5.6129942e+000
5.8209257e+000
5.9632263e+000
6.0737448e+000
6.1907301e+000
6.3535295e+000
6.5964365e+000
6.9429951e+000
7.4121923e+000
8.0177870e+000
8.7649174e+000
9.6439686e+000
1.0634780e+001
1.1703419e+001
1.2817371e+001
1.3949750e+001
1.5068694e+001
1.6134142e+001
1.7094627e+001
1.7883457e+001
1.8435057e+001
1.8698345e+001
1.8632561e+001
1.8216148e+001
1.7449301e+001
1.6373285e+001
1.5056692e+001
1.3604043e+001
1.2134686e+001
1.0772056e+001
9.6230450e+000
8.7561626e+000
8.2087049e+000
7.9686451e+000
7.9916677e+000
8.1894398e+000
8.4527102e+000
8.6524210e+000
8.6726332e+000
8.4396420e+000
7.9289141e+000
7.1998711e+000
6.3425016e+000
5.4658160e+000
4.6554780e+000
3.9368315e+000
3.3122177e+000
2.7665505e+000
2.2922966e+000
1.9071505e+000
1.6302400e+000
1.4694958e+000
1.4209257e+000
1.4588858e+000
1.5504909e+000
1.6575407e+000
1.7441202e+000
1.7832819e+000
1.7605016e+000
1.6846014e+000
1.5720242e+000
1.4424453e+000
1.3084903e+000
1.1649525e+000
1.0028806e+000
8.1632715e-001
6.0913390e-001
4.0556580e-001
2.2152197e-001
4.3387160e-002
-1.3784543e-001
-3.0408889e-001
-4.3387231e-001
-5.1332247e-001
-5.3186721e-001
-4.8318771e-001
-3.6708397e-001
-1.9644916e-001
6.8107694e-003
2.0726997e-001
3.7446758e-001
4.9918205e-001
5.8737540e-001
6.6881227e-001
7.6721805e-001
8.7709999e-001
9.8560905e-001
1.0804420e+000
1.1621971e+000
1.2632771e+000
1.4160286e+000
1.6317817e+000
1.9117520e+000
2.2437944e+000
2.6169326e+000
3.0300856e+000
3.4685135e+000
3.8762689e+000
4.1870446e+000
4.3370099e+000
4.2952199e+000
4.1171112e+000
3.8780308e+000
3.6490760e+000
3.4799924e+000
3.3661799e+000
3.2912281e+000
3.2427161e+000
3.2103236e+000
3.1872246e+000
3.1691370e+000
3.1572809e+000
3.1538908e+000
3.1611381e+000
3.1763508e+000
3.1847286e+000
3.1722269e+000
3.1365561e+000
3.0853360e+000
3.0460045e+000
3.0484600e+000
3.1151607e+000
3.2505608e+000
3.4124246e+000
3.5457628e+000
3.5929322e+000
3.5157821e+000
3.3354509e+000
3.0858231e+000
2.7942197e+000
2.4775715e+000
2.1267309e+000
1.7395272e+000
1.3542235e+000
1.0163864e+000
7.6054263e-001
5.9849852e-001
4.7904086e-001
3.4406176e-001
1.6287546e-001
-7.5053841e-002
-3.3803889e-001
-5.8861566e-001
-8.0438381e-001
-9.7344691e-001
-1.1056592e+000
-1.2097051e+000
-1.2731372e+000
-1.2816160e+000
-1.2324240e+000
-1.1375200e+000
-1.0482662e+000
-1.0133811e+000
-1.0393735e+000
-1.1076120e+000
-1.1499549e+000
-1.1022990e+000
-9.5653313e-001
-7.3136604e-001
-4.8901498e-001
-2.9163045e-001
-1.6331029e-001
-1.0779431e-001
-9.0669408e-002
-7.2451651e-002
-2.9165536e-002
5.7923287e-002
2.0232995e-001
4.0764773e-001
6.4671451e-001
8.9277482e-001
1.1480362e+000
1.4138029e+000
1.6612304e+000
1.8583125e+000
1.9883386e+000
2.0449259e+000
2.0455704e+000
2.0113382e+000
1.9551566e+000
1.8889685e+000
1.8311911e+000
1.7998937e+000
1.8085970e+000
1.8687260e+000
1.9886786e+000
2.1675594e+000
2.3700948e+000
2.5551908e+000
2.6916852e+000
2.7511001e+000
