Image.
>Pix99999.
  .
5555
5555
2300
900
5555
2
1
0
701
5555
-5.6130001e-003
-5.7297330e-003
-5.8464659e-003
-5.9632985e-003
-6.0800319e-003
-6.1968639e-003
-6.3135978e-003
-6.4303312e-003
-6.5471632e-003
-6.6638971e-003
-6.7807287e-003
-6.8974630e-003
-7.0142946e-003
-7.1310289e-003
-7.2477618e-003
-7.3644952e-003
-7.4812281e-003
-7.5980583e-003
-7.7147940e-003
-7.8315269e-003
-7.9483576e-003
-8.0650924e-003
-8.1818262e-003
-8.2986550e-003
-8.4153917e-003
-8.5322214e-003
-3.1706630e-004
1.1009319e-002
-1.2696840e-002
-2.0042991e-002
-2.4745699e-002
-1.7526657e-003
2.2917667e-002
4.0501937e-002
5.4309659e-002
4.0808503e-002
2.4274029e-002
3.1931687e-004
-2.3004184e-002
-4.3148104e-002
-6.4681455e-002
-8.9651473e-002
-1.1620908e-001
-1.4503795e-001
-1.7341611e-001
-2.0108186e-001
-2.2933765e-001
-2.5821555e-001
-2.8348297e-001
-3.0603200e-001
-3.0900213e-001
-3.0077499e-001
-2.7109885e-001
-2.3232542e-001
-1.9440985e-001
-1.5696406e-001
-1.3113040e-001
-1.0796693e-001
-9.5492415e-002
-8.4744185e-002
-8.6376481e-002
-9.0765677e-002
-1.1359043e-001
-1.4118630e-001
-1.8611212e-001
-2.2964114e-001
-2.6185489e-001
-2.8424120e-001
-2.8434080e-001
-2.8278688e-001
-2.8241500e-001
-2.8459150e-001
-2.9031256e-001
-2.9351965e-001
-2.9349807e-001
-3.0139750e-001
-3.1658611e-001
-3.3564830e-001
-3.5685876e-001
-3.6426234e-001
-3.6403200e-001
-3.5386568e-001
-3.3988100e-001
-3.2950911e-001
-3.2041121e-001
-3.3615464e-001
-3.5762802e-001
-3.9276397e-001
-4.2928141e-001
-4.5206034e-001
-4.7242615e-001
-4.8958638e-001
-5.0513601e-001
-5.1574469e-001
-5.2402902e-001
-5.2744353e-001
-5.3433317e-001
-5.5041051e-001
-5.6774241e-001
-5.8486015e-001
-5.9142858e-001
-5.8416188e-001
-5.6802380e-001
-5.4478413e-001
-5.2400267e-001
-5.0621003e-001
-4.9185577e-001
-4.7953498e-001
-4.7654828e-001
-4.7826496e-001
-5.0068599e-001
-5.3145647e-001
-5.5747157e-001
-5.8162928e-001
-5.8076340e-001
-5.7384789e-001
-5.7574016e-001
-5.8058923e-001
-5.9957349e-001
-6.1838090e-001
-6.2089998e-001
-6.1490726e-001
-5.8937097e-001
-5.6007195e-001
-5.3040707e-001
-5.0947356e-001
-5.0532377e-001
-5.1283002e-001
-5.3357762e-001
-5.5230260e-001
-5.6618017e-001
-5.6489336e-001
-5.4966956e-001
-5.2303439e-001
-4.8898700e-001
-4.5339692e-001
-4.1734314e-001
-3.8075250e-001
-3.4376597e-001
-3.1853008e-001
-2.9851401e-001
-3.0682215e-001
-3.2491019e-001
-3.6201471e-001
-4.0368965e-001
-4.3699130e-001
-4.6492147e-001
-4.6882620e-001
-4.6455908e-001
-4.4957608e-001
-4.3757358e-001
-4.4159645e-001
-4.5766979e-001
-4.9362603e-001
-5.3127402e-001
-5.6569350e-001
-5.9344012e-001
-6.1290258e-001
-6.2609500e-001
-6.3338852e-001
-6.1974341e-001
-5.8734900e-001
-5.2595323e-001
-4.4485724e-001
-3.6769971e-001
-2.9542479e-001
-2.7569690e-001
-2.8389385e-001
-3.1594682e-001
-3.5708311e-001
-3.6450672e-001
-3.5953403e-001
-3.4788382e-001
-3.3775184e-001
-3.5351169e-001
-3.7908751e-001
-4.1450241e-001
-4.4843730e-001
-4.7297114e-001
-4.9199668e-001
-5.0574970e-001
-5.1986086e-001
-5.3543860e-001
-5.5356592e-001
-5.7262158e-001
-5.8570606e-001
-5.8914334e-001
-5.6885660e-001
-5.2700549e-001
-4.7449279e-001
-4.1950101e-001
-3.8127053e-001
-3.5601097e-001
-3.4394398e-001
-3.3805066e-001
-3.4790871e-001
-3.6628562e-001
-3.9253548e-001
-4.2268911e-001
-4.1666922e-001
-3.9400142e-001
-3.3435461e-001
-2.6351747e-001
-2.1773510e-001
-1.9226080e-001
-2.1657079e-001
-2.6229507e-001
-3.1763878e-001
-3.7268990e-001
-4.1706800e-001
-4.5334700e-001
-4.7741994e-001
-4.7959635e-001
-4.5247900e-001
-4.0607417e-001
-3.5179156e-001
-3.2441142e-001
-3.3216962e-001
-3.6491922e-001
-4.1018537e-001
-4.5686314e-001
-5.0044161e-001
-5.4326063e-001
-5.8408177e-001
-6.1375958e-001
-6.3486677e-001
-6.4212954e-001
-6.4098126e-001
-6.4159256e-001
-6.4492780e-001
-6.5110129e-001
-6.5761721e-001
-6.4637887e-001
-6.1971903e-001
-5.7006335e-001
-5.1239538e-001
-4.6944714e-001
-4.5007396e-001
-4.6719301e-001
-5.0574464e-001
-5.5169970e-001
-5.8869350e-001
-6.0655284e-001
-5.9873438e-001
-5.6863695e-001
-5.1927048e-001
-4.5724478e-001
-4.1386324e-001
-3.8857886e-001
-3.8738528e-001
-4.0164286e-001
-3.6766598e-001
-3.0017319e-001
-2.0119934e-001
-8.8427901e-002
-2.7831059e-002
-1.5500905e-003
-4.6410575e-003
-2.3160350e-002
-2.7484979e-002
-1.6491687e-002
2.8547099e-002
9.0846486e-002
1.4097798e-001
1.6823441e-001
1.4765307e-001
1.0818486e-001
8.1419401e-002
2.8158762e-002
-7.3799513e-002
-1.7536071e-001
-2.4917546e-001
-2.7120978e-001
-2.3886259e-001
-1.8569772e-001
-1.3017857e-001
-1.4277205e-001
-2.2586173e-001
-3.2740521e-001
-4.3054619e-001
-4.2590600e-001
-3.3480626e-001
-1.9639829e-001
-3.6945913e-002
9.3000308e-003
-2.5243888e-002
-6.9896489e-002
-9.6831523e-002
2.0894691e-002
2.9303247e-001
7.9324198e-001
1.4223416e+000
2.0312915e+000
2.6132076e+000
3.1689939e+000
3.8510265e+000
4.8069806e+000
6.2898836e+000
8.4256554e+000
1.1451221e+001
1.5347428e+001
1.9402069e+001
2.3268963e+001
2.6761751e+001
2.9908743e+001
3.3567421e+001
3.7830002e+001
4.2929298e+001
4.8691441e+001
5.3781364e+001
5.8229786e+001
6.2473988e+001
6.6651398e+001
7.1575294e+001
7.7068268e+001
8.2601402e+001
8.8025948e+001
9.2869896e+001
9.7104416e+001
1.0062503e+002
1.0339800e+002
1.0536755e+002
1.0633540e+002
1.0612837e+002
1.0465960e+002
1.0195750e+002
9.8665253e+001
9.5353653e+001
9.1860352e+001
8.8127991e+001
8.3712288e+001
7.8507919e+001
7.3253227e+001
6.8203758e+001
6.3587967e+001
5.9401627e+001
5.5209679e+001
5.0947182e+001
4.6830185e+001
4.2872540e+001
3.9219574e+001
3.5885700e+001
3.2967606e+001
3.0469151e+001
2.8339720e+001
2.6565248e+001
2.5036779e+001
2.3782515e+001
2.2814274e+001
2.2136171e+001
2.1709000e+001
2.1503193e+001
2.1445938e+001
2.1507069e+001
2.1640547e+001
2.1828993e+001
2.2055418e+001
2.2322571e+001
2.2631763e+001
2.3066929e+001
2.3656458e+001
2.4453693e+001
2.5462034e+001
2.6598083e+001
2.7838480e+001
2.9091520e+001
3.0350155e+001
3.1772095e+001
3.3454330e+001
3.6076572e+001
3.9713657e+001
4.3761219e+001
4.7969101e+001
5.1218494e+001
5.3531723e+001
5.5450069e+001
5.6978573e+001
5.8261261e+001
5.9122139e+001
5.9335037e+001
5.8883484e+001
5.7859978e+001
5.6475285e+001
5.5012524e+001
5.3463589e+001
5.1825851e+001
4.9961617e+001
4.7777515e+001
4.5327389e+001
4.2607109e+001
4.0043514e+001
3.7793678e+001
3.5695919e+001
3.3753117e+001
3.1357571e+001
2.8359678e+001
2.5322491e+001
2.2294176e+001
1.9726826e+001
1.7668341e+001
1.5620857e+001
1.3575950e+001
1.1484100e+001
9.3616114e+000
7.2664757e+000
5.2692356e+000
3.4862919e+000
2.0085304e+000
9.2697769e-001
2.6731595e-001
5.4204259e-002
3.8572401e-001
1.2140876e+000
2.2374420e+000
3.2688115e+000
4.1407099e+000
4.7373509e+000
5.2102356e+000
5.6035986e+000
5.9815679e+000
6.3546801e+000
6.6605802e+000
6.8511963e+000
6.9398961e+000
6.8799462e+000
6.7832537e+000
6.6371722e+000
6.4769201e+000
6.2893124e+000
6.0372500e+000
5.6884103e+000
5.2088833e+000
4.6033320e+000
3.9774671e+000
3.3736219e+000
2.8952301e+000
2.5538394e+000
2.3420196e+000
2.2522662e+000
2.2576494e+000
2.3474171e+000
2.5145509e+000
2.7290959e+000
2.9902847e+000
3.2793515e+000
3.5987420e+000
3.9449174e+000
4.3230200e+000
4.7148156e+000
5.1198144e+000
5.5085144e+000
5.8588729e+000
6.1483283e+000
6.3170409e+000
6.3701425e+000
6.2344851e+000
5.9751916e+000
5.5500145e+000
5.0761342e+000
4.5528450e+000
4.0376029e+000
3.5499866e+000
3.1123419e+000
2.7358463e+000
2.4218206e+000
2.1302564e+000
1.7916528e+000
1.4033084e+000
9.5142877e-001
5.1742625e-001
1.9938466e-001
-2.0962432e-003
-2.1086264e-002
4.9074158e-002
2.0975745e-001
3.9791965e-001
6.0247880e-001
8.0124468e-001
9.8517978e-001
1.1619461e+000
1.3223400e+000
1.4829347e+000
1.6337600e+000
1.7935230e+000
1.9690132e+000
2.1636837e+000
2.3955891e+000
2.6594856e+000
2.9711611e+000
3.3129013e+000
3.6809700e+000
4.0352039e+000
4.3559413e+000
4.6121297e+000
4.8014765e+000
4.9274964e+000
5.0069752e+000
5.0522380e+000
5.0732818e+000
5.0635166e+000
5.0331998e+000
4.9704137e+000
4.9014506e+000
4.8341007e+000
4.7833557e+000
4.7749629e+000
4.7844148e+000
4.8310037e+000
4.8775172e+000
4.9237518e+000
4.9749374e+000
5.0401101e+000
5.1246347e+000
5.2405820e+000
5.3546615e+000
5.4606695e+000
5.5458031e+000
5.6058245e+000
5.6641421e+000
5.7241483e+000
5.7972169e+000
5.8821211e+000
5.9747930e+000
6.0719767e+000
6.1687894e+000
6.2610250e+000
6.3361759e+000
6.3951192e+000
6.4204068e+000
6.4211631e+000
6.3722658e+000
6.2852497e+000
6.1045799e+000
5.8783035e+000
5.5352473e+000
5.1641202e+000
4.7214618e+000
4.2685409e+000
3.7919326e+000
3.3191509e+000
2.8567629e+000
2.4149168e+000
2.0120900e+000
1.6444352e+000
1.3312309e+000
1.0608251e+000
8.4251183e-001
6.5316743e-001
4.9102503e-001
3.3594775e-001
1.8920700e-001
5.5938784e-002
-6.3075051e-002
-1.5422790e-001
-2.2636819e-001
-2.7060729e-001
-2.8909680e-001
-2.3955025e-001
-1.4256191e-001
8.5513398e-002
3.5469401e-001
7.1807706e-001
1.0762929e+000
1.3905993e+000
1.6632406e+000
1.8050321e+000
1.8994820e+000
1.8764480e+000
1.8212806e+000
1.7025762e+000
1.5733228e+000
1.4274362e+000
1.2798263e+000
1.1280795e+000
9.6315777e-001
7.8266072e-001
5.9115368e-001
3.9345413e-001
2.1246873e-001
5.3273968e-002
-4.8114572e-002
-1.0082685e-001
-5.3963736e-002
4.5372456e-002
2.2065149e-001
4.1226512e-001
5.8129025e-001
7.3032916e-001
7.9479283e-001
8.3957422e-001
8.2090741e-001
8.0440706e-001
8.0280012e-001
8.2150024e-001
9.0383911e-001
9.8891449e-001
1.0763383e+000
1.1289694e+000
1.1113569e+000
1.0636382e+000
9.7098571e-001
8.8217050e-001
8.0255401e-001
7.5638509e-001
7.4746555e-001
7.7593029e-001
8.3205962e-001
8.8291848e-001
9.2441070e-001
9.2031020e-001
8.8964045e-001
8.1458765e-001
7.2271442e-001
6.1475486e-001
5.0539970e-001
4.1262308e-001
3.2590878e-001
2.6848623e-001
2.1542504e-001
1.8117003e-001
1.5083657e-001
1.3800412e-001
1.3142535e-001
1.4420719e-001
1.5095508e-001
1.4048071e-001
1.0025590e-001
2.5307760e-003
-1.2252028e-001
-2.8496104e-001
-4.2793700e-001
-5.4535079e-001
-6.2659234e-001
-6.7687285e-001
-7.3852438e-001
-8.0867094e-001
-8.8743156e-001
-9.6896970e-001
-1.0315245e+000
-1.0868970e+000
-1.1406944e+000
-1.1923888e+000
-1.2239283e+000
-1.2503921e+000
-1.2587440e+000
-1.2677500e+000
-1.3026923e+000
-1.3373531e+000
-1.3692166e+000
-1.3918104e+000
-1.3735071e+000
-1.3445879e+000
-1.2832543e+000
-1.2248018e+000
-1.1741037e+000
-1.1447693e+000
-1.1524737e+000
-1.1669313e+000
-1.1889800e+000
-1.1906754e+000
-1.1702400e+000
-1.1279738e+000
-1.0672913e+000
-9.8737031e-001
-8.9567327e-001
-8.0607897e-001
-7.1811640e-001
-6.4468175e-001
-5.7561308e-001
-4.9651265e-001
-4.1566956e-001
-3.4090015e-001
-2.6732400e-001
-2.0374449e-001
-1.3850121e-001
-4.5094822e-002
7.4046850e-004
2.3239657e-002
7.4224994e-002
1.5829439e-001
2.5579768e-001
3.9264476e-001
5.2656758e-001
6.5369773e-001
7.5844175e-001
8.2681811e-001
8.6131001e-001
8.5375589e-001
7.8916162e-001
6.7112184e-001
5.2350855e-001
3.5574955e-001
2.4969286e-001
1.7730039e-001
1.7959085e-001
2.1130887e-001
2.6570845e-001
3.2651523e-001
3.6733812e-001
4.0501279e-001
3.6502001e-001
