Image.
>Pix99999.
  .
5555
5555
2300
900
5555
2
1
0
701
5555
8.0541998e-002
8.2217604e-002
8.3893210e-002
8.5567810e-002
8.7243408e-002
8.8919014e-002
9.0594620e-002
9.2270218e-002
9.3945824e-002
9.5621422e-002
9.7297035e-002
9.8972633e-002
1.0065118e-001
1.0231898e-001
1.0399640e-001
1.0567400e-001
1.0735160e-001
1.0900968e-001
1.1069654e-001
1.1242305e-001
1.1405343e-001
1.1554530e-001
1.1740123e-001
1.1975212e-001
1.2077640e-001
1.1477357e-001
8.2559071e-002
1.2074262e-002
-6.4954244e-002
-1.1020789e-001
-1.0867043e-001
-5.8539964e-002
1.6040241e-002
8.7748483e-002
1.4628407e-001
1.8824950e-001
2.1775217e-001
2.4006766e-001
2.5639927e-001
2.6762882e-001
2.7836627e-001
2.9362860e-001
3.1554899e-001
3.4360173e-001
3.6999688e-001
3.8529271e-001
3.8221258e-001
3.5769436e-001
3.2300538e-001
2.9385179e-001
2.8618500e-001
3.0949414e-001
3.4726846e-001
3.7639049e-001
3.8033032e-001
3.5157478e-001
3.1007439e-001
2.8164893e-001
2.8018206e-001
3.1172308e-001
3.6680743e-001
4.3016851e-001
4.8324454e-001
5.0779808e-001
4.9096256e-001
4.2664951e-001
3.2914516e-001
2.2008005e-001
1.2333520e-001
6.0830642e-002
4.4078600e-002
7.6759018e-002
1.4505817e-001
2.2616729e-001
2.8466901e-001
2.8931999e-001
2.4337731e-001
1.6740100e-001
1.0297590e-001
9.0436265e-002
1.3585800e-001
2.2769183e-001
3.3270708e-001
4.1458893e-001
4.5461559e-001
4.4716772e-001
4.1335133e-001
3.8016912e-001
3.5979459e-001
3.5413316e-001
3.4660015e-001
3.2030389e-001
2.8443629e-001
2.5727707e-001
2.5330594e-001
2.7942514e-001
3.1843394e-001
3.4933186e-001
3.7299219e-001
3.9858010e-001
4.3353856e-001
4.7700900e-001
4.9777782e-001
4.6098858e-001
3.6556074e-001
2.3040150e-001
1.0053642e-001
2.2563778e-002
8.9453394e-003
5.5151422e-002
1.4426380e-001
2.5639609e-001
3.7762520e-001
4.9457139e-001
5.8545494e-001
6.2805468e-001
6.1307985e-001
5.4353577e-001
4.5072421e-001
3.7428710e-001
3.4064570e-001
3.6274993e-001
4.2251465e-001
4.8898932e-001
5.3095996e-001
5.2324283e-001
4.6392259e-001
3.6447582e-001
2.5072461e-001
1.5130590e-001
8.2772739e-002
5.1835690e-002
4.7292117e-002
5.0208870e-002
4.0929124e-002
5.5525796e-003
-4.5873638e-002
-9.1968074e-002
-1.0851406e-001
-7.9053231e-002
-2.2994000e-002
2.5553944e-002
3.8998991e-002
3.0576773e-003
-5.6691114e-002
-1.0070947e-001
-1.0692640e-001
-6.8263523e-002
-2.3691552e-003
6.4859241e-002
1.1913364e-001
1.5258899e-001
1.5858428e-001
1.3318828e-001
8.3253816e-002
2.2259530e-002
-2.9921288e-002
-5.5310324e-002
-5.5717293e-002
-4.0911287e-002
-1.2932152e-002
3.1747721e-002
1.0151301e-001
2.0041111e-001
3.0498993e-001
3.8020384e-001
4.0031508e-001
3.5272491e-001
2.5721520e-001
1.4727378e-001
4.7244668e-002
-2.7574457e-002
-7.5793870e-002
-1.0325564e-001
-1.1822274e-001
-1.2914750e-001
-1.4209777e-001
-1.6059504e-001
-1.8286125e-001
-2.0497520e-001
-2.2534285e-001
-2.4333121e-001
-2.5632259e-001
-2.6012981e-001
-2.4887635e-001
-2.1737672e-001
-1.6699274e-001
-1.0543986e-001
-5.2530747e-002
-2.9879238e-002
-3.9652959e-002
-7.2362408e-002
-1.1622790e-001
-1.6284624e-001
-2.1989597e-001
-2.9849213e-001
-3.8577801e-001
-4.5341620e-001
-4.6720648e-001
-4.0037185e-001
-2.6757857e-001
-1.1044791e-001
1.4818482e-002
5.3916689e-002
-1.2021655e-002
-1.7288661e-001
-3.8300478e-001
-5.8167809e-001
-7.2397077e-001
-7.8168744e-001
-7.5215799e-001
-6.4802313e-001
-4.8802087e-001
-2.9845870e-001
-1.2927906e-001
-3.7295058e-002
-4.8473574e-002
-1.6034211e-001
-3.3228260e-001
-5.0909626e-001
-6.6408688e-001
-7.9044038e-001
-8.8323677e-001
-9.3746656e-001
-9.5143443e-001
-9.2871535e-001
-8.8681746e-001
-8.4788644e-001
-8.1719422e-001
-7.8535527e-001
-7.2853500e-001
-6.1950582e-001
-4.5093125e-001
-2.3733541e-001
-3.0846834e-002
1.0180908e-001
1.2946521e-001
5.2791204e-002
-9.8525882e-002
-2.8087169e-001
-4.5962945e-001
-6.0809535e-001
-7.0059085e-001
-7.1449262e-001
-6.4200664e-001
-4.9349248e-001
-3.1680351e-001
-1.7782952e-001
-1.1632577e-001
-1.3971621e-001
-2.0127286e-001
-2.3025386e-001
-2.0190841e-001
-1.2805294e-001
-2.5579147e-002
9.0561733e-002
2.1016160e-001
3.2546425e-001
4.2555973e-001
5.0298017e-001
5.7790917e-001
6.8119031e-001
8.0238062e-001
8.9526284e-001
8.9458156e-001
7.4794257e-001
5.0510359e-001
2.7216047e-001
7.2953425e-002
-1.2621528e-001
-3.0595398e-001
-4.0225428e-001
-3.6546177e-001
-1.7926750e-001
9.6876204e-002
3.5303178e-001
4.9238974e-001
4.6026117e-001
3.1792358e-001
1.9612801e-001
1.5819000e-001
1.9169427e-001
2.2258408e-001
1.5728423e-001
-1.3399012e-002
-2.2087859e-001
-3.5841572e-001
-3.0228519e-001
6.1588168e-002
7.9850149e-001
1.7932442e+000
2.8088529e+000
3.6873412e+000
4.3892021e+000
5.0429721e+000
5.8921633e+000
7.1577172e+000
9.0083380e+000
1.1537058e+001
1.4728095e+001
1.8303858e+001
2.1820980e+001
2.5000401e+001
2.7801361e+001
3.0531435e+001
3.3728207e+001
3.7791981e+001
4.2837189e+001
4.8351238e+001
5.3464970e+001
5.7967373e+001
6.2274685e+001
6.6808128e+001
7.1781860e+001
7.6905502e+001
8.1542053e+001
8.5351311e+001
8.8338173e+001
9.0613693e+001
9.2317818e+001
9.3555656e+001
9.4389885e+001
9.4849602e+001
9.4927528e+001
9.4549652e+001
9.3624825e+001
9.2238647e+001
9.0614532e+001
8.8853485e+001
8.6901024e+001
8.4618614e+001
8.1848595e+001
7.8589821e+001
7.4974205e+001
7.1050652e+001
6.6774864e+001
6.2130001e+001
5.7170841e+001
5.2089912e+001
4.7181686e+001
4.2670742e+001
3.8679661e+001
3.5247307e+001
3.2339832e+001
2.9865320e+001
2.7698879e+001
2.5774656e+001
2.4095837e+001
2.2695927e+001
2.1619204e+001
2.0870499e+001
2.0409969e+001
2.0186338e+001
2.0150299e+001
2.0284719e+001
2.0606972e+001
2.1132092e+001
2.1874889e+001
2.2893934e+001
2.4285786e+001
2.6116943e+001
2.8394621e+001
3.1018721e+001
3.3801666e+001
3.6608921e+001
3.9380199e+001
4.2064930e+001
4.4645889e+001
4.7303528e+001
5.0335430e+001
5.3615158e+001
5.6559299e+001
5.8688744e+001
5.9810001e+001
6.0092770e+001
5.9983860e+001
5.9664848e+001
5.8959034e+001
5.7651058e+001
5.5626045e+001
5.3086399e+001
5.0528172e+001
4.8280621e+001
4.6393143e+001
4.4776829e+001
4.3248199e+001
4.1610409e+001
3.9697975e+001
3.7462730e+001
3.5005402e+001
3.2533470e+001
3.0294838e+001
2.8308960e+001
2.6322018e+001
2.4088432e+001
2.1487236e+001
1.8663406e+001
1.6014187e+001
1.3781457e+001
1.1943510e+001
1.0381543e+001
8.9388790e+000
7.5268407e+000
6.1465683e+000
4.7917051e+000
3.4380472e+000
2.1338880e+000
1.0186099e+000
2.2468513e-001
-1.4845970e-001
-7.4310005e-003
7.0875245e-001
1.8798989e+000
3.1866300e+000
4.3941150e+000
5.4419928e+000
6.3618140e+000
7.2532210e+000
8.2146130e+000
9.3067112e+000
1.0493800e+001
1.1622130e+001
1.2508277e+001
1.2985229e+001
1.3005680e+001
1.2679464e+001
1.2140749e+001
1.1503990e+001
1.0845543e+001
1.0188731e+001
9.5232382e+000
8.8141470e+000
8.0539351e+000
7.2801743e+000
6.5477839e+000
5.9174623e+000
5.4279594e+000
5.0839672e+000
4.8731976e+000
4.7725368e+000
4.7680373e+000
4.8620558e+000
5.0606561e+000
5.3672886e+000
5.7714562e+000
6.2416592e+000
6.7330236e+000
7.1883073e+000
7.5489278e+000
7.7621136e+000
7.7949643e+000
7.6463299e+000
7.3457971e+000
6.9553943e+000
6.5304127e+000
6.1046052e+000
5.6988058e+000
5.3200817e+000
4.9629159e+000
4.6061649e+000
4.2190571e+000
3.7665517e+000
3.2409239e+000
2.6769402e+000
2.1145492e+000
1.5842779e+000
1.0977521e+000
6.4451396e-001
2.3284853e-001
-9.3248621e-002
-2.8807771e-001
-3.1886196e-001
-1.7381737e-001
1.2947106e-001
5.6276429e-001
1.0925531e+000
1.6917040e+000
2.3405252e+000
2.9935453e+000
3.5613229e+000
3.9480429e+000
4.0745597e+000
3.9320626e+000
3.6184850e+000
3.2409801e+000
2.8789451e+000
2.5853043e+000
2.3779221e+000
2.2573996e+000
2.2063184e+000
2.1896999e+000
2.1515455e+000
2.0454743e+000
1.8539251e+000
1.5919346e+000
1.3184956e+000
1.0955527e+000
9.6963608e-001
9.6379423e-001
1.0666015e+000
1.2603571e+000
1.5314263e+000
1.8737246e+000
2.2909751e+000
2.7765200e+000
3.3008127e+000
3.8249376e+000
4.3039784e+000
4.7032471e+000
5.0102220e+000
5.2276611e+000
5.3771958e+000
5.4889851e+000
5.6001954e+000
5.7453303e+000
5.9498672e+000
6.2321172e+000
6.6010447e+000
7.0619640e+000
7.6178932e+000
8.2732458e+000
9.0344696e+000
9.9004145e+000
1.0852615e+001
1.1859715e+001
1.2876249e+001
1.3859894e+001
1.4790485e+001
1.5646378e+001
1.6401228e+001
1.7012444e+001
1.7409595e+001
1.7523840e+001
1.7303192e+001
1.6727407e+001
1.5835950e+001
1.4697989e+001
1.3411738e+001
1.2082375e+001
1.0817384e+001
9.7084341e+000
8.8237200e+000
8.2084017e+000
7.8730683e+000
7.7953734e+000
7.8993063e+000
8.0813055e+000
8.2102604e+000
8.1756191e+000
7.9278879e+000
7.4632854e+000
6.8432536e+000
6.1390266e+000
5.4083009e+000
4.6942315e+000
4.0159631e+000
3.3915479e+000
2.8475115e+000
2.4076450e+000
2.0838730e+000
1.8739001e+000
1.7508851e+000
1.6848226e+000
1.6526338e+000
1.6380618e+000
1.6358871e+000
1.6383749e+000
1.6259041e+000
1.5788468e+000
1.4845989e+000
1.3422371e+000
1.1732763e+000
9.9780321e-001
8.2062143e-001
6.4135557e-001
4.5777178e-001
2.7894297e-001
1.3879636e-001
5.5788446e-002
3.9489940e-004
-5.0466254e-002
-7.7659950e-002
-5.1657908e-002
5.5628330e-002
2.5241193e-001
4.9905869e-001
7.3604202e-001
8.8604176e-001
8.9155960e-001
7.5626647e-001
5.2073914e-001
2.7819997e-001
1.1555114e-001
7.0465833e-002
1.4691260e-001
2.9525602e-001
4.6334371e-001
6.2606931e-001
7.7435589e-001
9.2305547e-001
1.0892285e+000
1.2812295e+000
1.5061259e+000
1.7732770e+000
2.0866377e+000
2.4344320e+000
2.7949152e+000
3.1312580e+000
3.4008446e+000
3.5577390e+000
3.5701244e+000
3.4475429e+000
3.2239537e+000
2.9710481e+000
2.7529809e+000
2.5877986e+000
2.4721520e+000
2.3756671e+000
2.2673066e+000
2.1345057e+000
1.9750428e+000
1.8042705e+000
1.6460954e+000
1.5350280e+000
1.4975686e+000
1.5286893e+000
1.6079452e+000
1.6934240e+000
1.7533932e+000
1.8010118e+000
1.8625200e+000
1.9682152e+000
2.1245451e+000
2.2647057e+000
2.3134191e+000
2.2239592e+000
1.9860016e+000
1.6754130e+000
1.3764811e+000
1.1352277e+000
9.7139174e-001
8.5401314e-001
7.4272370e-001
6.0717082e-001
4.2534441e-001
1.9386554e-001
-7.9766840e-002
-3.6835128e-001
-6.3945639e-001
-8.5963207e-001
-1.0003278e+000
-1.0499480e+000
-1.0131170e+000
-9.3193340e-001
-8.5516530e-001
-8.2173449e-001
-8.5392433e-001
-9.2773747e-001
-1.0076400e+000
-1.0582887e+000
-1.0533571e+000
-9.9647570e-001
-9.0695757e-001
-8.2971358e-001
-8.1045341e-001
-8.7454802e-001
-1.0238534e+000
-1.1975240e+000
-1.3222281e+000
-1.3358738e+000
-1.2021321e+000
-9.6327925e-001
-6.7998880e-001
-4.0910059e-001
-1.9687359e-001
-5.5359535e-002
1.7340308e-002
4.2365417e-002
3.5783313e-002
-2.1371730e-002
-1.4198285e-001
-2.8539869e-001
-4.0317661e-001
-4.6736747e-001
-4.6220496e-001
-3.9824301e-001
-2.9624021e-001
-1.9050163e-001
-1.1748429e-001
-1.0837030e-001
-1.6919601e-001
-2.1497652e-001
-1.4580068e-001
1.0795450e-001
5.7785189e-001
1.1770693e+000
1.8017108e+000
2.3974447e+000
2.9201391e+000
3.3180139e+000
3.5374999e+000
