##TITLE=Methyl Ethyl Ketone
##JCAMP-DX=4.24
##DATA TYPE=INFRARED SPECTRUM
##XUNITS=cm-1
##YUNITS=Absorbance
##FIRSTX=900
##LASTX=2300
##XYDATA=(X++(Y..Y))
2296 0.081354
2294 0.083046578
2292 0.084739156
2290 0.086431734
2288 0.088124312
2286 0.0898159
2284 0.09150847
2282 0.093201049
2280 0.094893627
2278 0.096586205
2276 0.098278783
2274 0.099971361
2272 0.101661
2270 0.10335843
2268 0.1050462
2266 0.10674357
2264 0.10843137
2262 0.11012872
2260 0.11181654
2258 0.11351386
2256 0.11520171
2254 0.116899
2252 0.11858688
2250 0.12028414
2248 0.12197205
2246 0.12366928
2244 0.054539084
2242 0.0020007
2240 -0.0278304
2238 -0.070033148
2236 -0.1142783
2234 -0.13416655
2232 -0.15210079
2230 -0.16538337
2228 -0.18028094
2226 -0.2103935
2224 -0.23855691
2222 -0.25476596
2220 -0.26927447
2218 -0.28073043
2216 -0.27667397
2214 -0.23899646
2212 -0.17333281
2210 -0.065198675
2208 0.023145428
2206 0.083574116
2204 0.087970369
2202 0.040150031
2200 -0.014233897
2198 -0.07095959
2196 -0.065972358
2194 -0.025375918
2192 0.049928688
2190 0.1393771
2188 0.18420558
2186 0.21425806
2184 0.2104228
2182 0.19903249
2180 0.20116077
2178 0.20530431
2176 0.2031
2174 0.19744676
2172 0.15925154
2170 0.1161324
2168 0.062205873
2166 0.015072407
2164 -0.0036335099
2162 -0.0051473919
2160 0.030177092
2158 0.065528907
2156 0.093962103
2154 0.090726554
2152 0.042639382
2150 -0.015933355
2148 -0.081073098
2146 -0.11374557
2144 -0.11713308
2142 -0.1075669
2140 -0.091202311
2138 -0.082801566
2136 -0.079069853
2134 -0.08096762
2132 -0.084794663
2130 -0.10875043
2128 -0.13901401
2126 -0.18287829
2124 -0.22991008
2122 -0.23790053
2120 -0.23599805
2118 -0.16451596
2116 -0.083785623
2114 -0.0073621254
2112 0.052904885
2110 0.045069844
2108 0.018864423
2106 -0.032828514
2104 -0.082581148
2102 -0.12005176
2100 -0.1490542
2098 -0.16706774
2096 -0.17632428
2094 -0.1765815
2092 -0.1737988
2090 -0.1692307
2088 -0.15418194
2086 -0.13008149
2084 -0.067675292
2082 0.019401684
2080 0.11135662
2078 0.20384996
2076 0.20213929
2074 0.1611395
2072 0.03397844
2070 -0.11988985
2068 -0.22244525
2066 -0.31069857
2064 -0.30152145
2062 -0.27358663
2060 -0.23910497
2058 -0.2099196
2056 -0.21669714
2054 -0.22599491
2052 -0.22128843
2050 -0.19583018
2048 -0.1269168
2046 -0.046218932
2044 0.03935774
2042 0.098039053
2040 0.11712606
2038 0.086059608
2036 0.0066972263
2034 -0.085334919
2032 -0.18154784
2030 -0.23536231
2028 -0.25701526
2026 -0.25205824
2024 -0.23472281
2022 -0.22482505
2020 -0.22053409
2018 -0.22617328
2016 -0.23444401
2014 -0.25574887
2012 -0.27935314
2010 -0.30766904
2008 -0.33499098
2006 -0.34275171
2004 -0.33794245
2002 -0.28603899
2000 -0.21369794
1998 -0.11350255
1996 -0.018848782
1994 0.032312542
1992 0.042225868
1990 -0.0080234678
1988 -0.075040057
1986 -0.13461687
1984 -0.16988823
1982 -0.17408715
1980 -0.15367797
1978 -0.11808772
1976 -0.0604554
1974 0.01189081
1972 0.086368471
1970 0.15821823
1968 0.19271772
1966 0.204192
1964 0.18645746
1962 0.15812868
1960 0.14847721
1958 0.14866166
1956 0.16208857
1954 0.18183504
1952 0.21968651
1950 0.26830143
1948 0.32721835
1946 0.37108999
1944 0.3240504
1942 0.22447318
1940 0.072392032
1938 -0.064619094
1936 -0.11223172
1934 -0.10114411
1932 -0.037455417
1930 0.054923333
1928 0.15688857
1926 0.31983307
1924 0.5516274
1922 0.80043936
1920 1.0546087
1918 1.16438
1916 1.1542914
1914 1.0758941
1912 0.96475029
1910 0.90421045
1908 0.87679702
1906 0.81711364
1904 0.7388652
1902 0.63945228
1900 0.53455937
1898 0.48864004
1896 0.4710457
1894 0.49259651
1892 0.52476567
1890 0.54248047
1888 0.53769505
1886 0.47909406
1884 0.39080501
1882 0.27729839
1880 0.17612086
1878 0.11571793
1876 0.11367
1874 0.17341432
1872 0.28088811
1870 0.41789159
1868 0.50427699
1866 0.53954393
1864 0.48030159
1862 0.35808548
1860 0.23056874
1858 0.10432528
1856 0.018569484
1854 -0.045884293
1852 0.0046148747
1850 0.1202298
1848 0.38383919
1846 0.71731395
1844 0.9227398
1842 1.040916
1840 0.88872516
1838 0.61787057
1836 0.35513315
1834 0.13459721
1832 0.052844137
1830 0.060032535
1828 0.18276095
1826 0.32160664
1824 0.41646981
1822 0.4340581
1820 0.3228226
1818 0.17576194
1816 0.029075287
1814 -0.054235175
1812 -0.057616569
1810 -0.029153477
1808 0.0116808
1806 0.042014401
1804 0.059914019
1802 0.14132093
1800 0.27405691
1798 0.47684282
1796 0.72353858
1794 0.850052
1792 0.89866
1790 0.78261644
1788 0.58450544
1786 0.43274048
1784 0.32505709
1782 0.29202273
1780 0.31854871
1778 0.42088002
1776 0.56199455
1774 0.69185889
1772 0.74209017
1770 0.61796391
1768 0.39609945
1766 0.17314181
1764 0.025215141
1762 -0.0057610972
1760 0.0041559637
1758 -0.081611067
1756 -0.19645858
1754 -0.28160578
1752 -0.18940595
1750 0.092609003
1748 0.46869946
1746 0.89319253
1744 1.1396577
1742 1.2295561
1740 1.2570206
1738 1.2509654
1736 1.27534
1734 1.3101621
1732 1.1266569
1730 0.79255331
1728 0.35437179
1726 -0.10092279
1724 -0.32351092
1722 -0.31394601
1720 -0.016262412
1718 0.46863997
1716 1.263754
1714 2.193449
1712 3.0269189
1710 3.8221054
1708 4.593956
1706 5.5875349
1704 6.977623
1702 8.9571791
1700 11.614231
1698 14.698007
1696 18.068142
1694 21.11484
1692 23.623966
1690 25.906593
1688 28.072578
1686 30.850937
1684 34.274261
1682 38.188667
1680 42.472759
1678 46.143383
1676 49.265156
1674 52.344707
1672 55.447567
1670 59.113056
1668 63.202549
1666 67.37925
1664 71.575508
1662 75.519562
1660 79.207123
1658 82.564232
1656 85.697769
1654 88.75753
1652 91.705238
1650 94.52092
1648 96.519592
1646 97.223396
1644 96.918877
1642 95.915413
1640 94.528893
1638 92.954735
1636 90.838249
1634 88.118866
1632 84.931602
1630 81.405098
1628 77.809669
1626 74.199257
1624 70.339317
1622 66.221741
1620 61.998905
1618 57.70327
1616 53.500744
1614 49.434647
1612 45.731655
1610 42.431858
1608 39.588112
1606 37.159565
1604 34.958839
1602 32.978745
1600 31.17065
1598 29.570847
1596 28.200001
1594 27.067471
1592 26.155771
1590 25.435272
1588 24.857903
1586 24.457087
1584 24.229389
1582 24.236179
1580 24.479481
1578 24.992615
1576 25.775002
1574 26.69516
1572 27.729244
1570 28.700287
1568 29.577801
1566 30.462015
1564 31.36488
1562 32.553959
1560 34.100342
1558 36.274582
1556 38.982258
1554 41.34824
1552 43.289654
1550 44.61005
1548 45.469788
1546 46.436642
1544 47.549923
1542 48.867458
1540 50.063801
1538 50.768688
1536 50.866745
1534 50.298882
1532 49.459389
1530 48.658638
1528 47.911285
1526 47.228699
1524 46.455399
1522 45.527752
1520 44.183968
1518 42.349083
1516 40.367069
1514 38.321079
1512 36.487919
1510 34.889355
1508 32.875477
1506 30.274565
1504 27.358532
1502 24.158993
1500 21.352474
1498 19.0037
1496 16.769857
1494 14.640176
1492 12.52106
1490 10.398042
1488 8.2808743
1486 6.2084551
1484 4.2454863
1482 2.5516858
1480 1.2561152
1478 0.40896425
1476 0.10045595
1474 0.33933359
1472 0.98603523
1470 1.6603079
1468 2.1884916
1466 2.7011127
1464 3.2106869
1462 3.851387
1460 4.6946445
1458 5.4837704
1456 6.1448202
1454 6.4413404
1452 6.239563
1450 5.9364281
1448 5.5337625
1446 5.1553183
1444 4.8076382
1442 4.4916062
1440 4.2096677
1438 3.9795778
1436 3.75193
1434 3.4249706
1432 2.9573166
1430 2.3787403
1428 1.785748
1426 1.3429328
1424 1.1042726
1422 1.0936528
1420 1.2284726
1418 1.4268266
1416 1.6073172
1414 1.697202
1412 1.7948391
1410 1.9225304
1408 2.1288016
1406 2.452697
1404 2.8478677
1402 3.3571215
1400 3.8941321
1398 4.4666133
1396 4.9637289
1394 5.3276534
1392 5.544251
1390 5.5550838
1388 5.4754496
1386 5.2725101
1384 5.0400553
1382 4.7764082
1380 4.5477757
1378 4.3531761
1376 4.180171
1374 3.984035
1372 3.721432
1370 3.3977938
1368 3.0456119
1366 2.6997857
1364 2.3737919
1362 2.0302835
1360 1.6334372
1358 1.2048063
1356 0.76729685
1354 0.39592397
1352 0.15259518
1350 0.013853071
1348 0.011249621
1346 0.044748127
1344 0.20791921
1342 0.41928548
1340 0.69477141
1338 0.92085403
1336 1.0467657
1334 1.0493377
1332 0.89101022
1330 0.7223832
1328 0.56299543
1326 0.49860322
1324 0.55821055
1322 0.72855264
1320 1.0116334
1318 1.3322124
1316 1.65608
1314 1.894094
1312 2.0431228
1310 2.0819094
1308 2.0565803
1306 2.0041642
1304 1.9524589
1302 1.936151
1300 1.9407308
1298 1.9782026
1296 2.0250857
1294 2.0846581
1292 2.1497002
1290 2.22943
1288 2.3118439
1286 2.400485
1284 2.4882634
1282 2.5810621
1280 2.6824903
1278 2.8068442
1276 2.9410501
1274 3.0857759
1272 3.2336919
1270 3.3818934
1268 3.5449073
1266 3.741375
1264 3.981432
1262 4.2928472
1260 4.6702962
1258 5.1235929
1256 5.6328516
1254 6.1977654
1252 6.8089476
1250 7.4545164
1248 8.1175823
1246 8.7688503
1244 9.3595409
1242 9.9013834
1240 10.363605
1238 10.789828
1236 11.166857
1234 11.509047
1232 11.763041
1230 11.956441
1228 11.979135
1226 11.928721
1224 11.68068
1222 11.374543
1220 10.932394
1218 10.46954
1216 9.9697199
1214 9.4782352
1212 8.9964714
1210 8.5046911
1208 7.9937716
1206 7.4511127
1204 6.873096
1202 6.2825451
1200 5.6841893
1198 5.1015959
1196 4.5350928
1194 3.99312
1192 3.4720583
1190 2.9807889
1188 2.5156593
1186 2.1055343
1184 1.7274075
1182 1.407266
1180 1.114452
1178 0.87598813
1176 0.67463201
1174 0.5918774
1172 0.54698968
1170 0.62428927
1168 0.69875038
1166 0.76595366
1164 0.81103963
1162 0.80154973
1160 0.77915186
1158 0.72861266
1156 0.66323698
1154 0.57167715
1152 0.46733713
1150 0.34546173
1148 0.2218798
1146 0.10172965
1144 0.010079075
1142 -0.043483116
1140 -0.022782944
1138 0.057868183
1136 0.20099314
1134 0.3784712
1132 0.60760891
1130 0.85935915
1128 1.1239936
1126 1.3970629
1124 1.6930059
1122 2.0005126
1120 2.3482881
1118 2.6989036
1116 3.04531
1114 3.3783352
1112 3.6554818
1110 3.9232328
1108 4.1626334
1106 4.4094849
1104 4.6750646
1102 4.9412932
1100 5.2087269
1098 5.4715371
1096 5.7281284
1094 5.9919243
1092 6.2658658
1090 6.5488043
1088 6.8416743
1086 7.1415334
1084 7.4462094
1082 7.7493963
1080 8.0474529
1078 8.3220329
1076 8.5691185
1074 8.6981077
1072 8.7646875
1070 8.655118
1068 8.5091133
1066 8.3753357
1064 8.2652321
1062 8.3172789
1060 8.3762836
1058 8.4288673
1056 8.4494915
1054 8.3289318
1052 8.1753283
1050 7.9140248
1048 7.6235361
1046 7.262311
1044 6.8807011
1042 6.4630418
1040 6.0439281
1038 5.6275616
1036 5.2488799
1034 4.9138966
1032 4.5962882
1030 4.2841835
1028 3.8832738
1026 3.4203436
1024 2.9482794
1022 2.485199
1020 2.1620743
1018 1.8976502
1016 1.6781886
1014 1.4680135
1012 1.2283752
1010 0.98595715
1008 0.77224839
1006 0.55846542
1004 0.3171019
1002 0.063536167
1000 -0.26993561
998 -0.59083581
996 -0.85409927
994 -1.0760729
992 -1.1696332
990 -1.2598326
988 -1.3432319
986 -1.4447465
984 -1.5766406
982 -1.6692493
980 -1.7053139
978 -1.65149
976 -1.5011172
974 -1.2887974
972 -1.0277872
970 -0.77971327
968 -0.54146737
966 -0.32307649
964 -0.11455083
962 0.081192061
960 0.27146846
958 0.41715536
956 0.5492174
954 0.5758779
952 0.58278197
950 0.41533902
948 0.24346028
946 0.10728642
944 0.00088710897
942 0.027900498
940 0.090959996
938 0.19817671
936 0.2655077
934 0.21444994
932 0.12549344
930 -0.043646038
928 -0.19491601
926 -0.31602064
924 -0.34739059
922 -0.2687161
920 -0.092709184
918 0.17381495
916 0.42819428
914 0.67269468
912 0.77468604
910 0.79933214
908 0.78941166
906 0.76430053
904 0.94640791
902 1.180619
900 1.5112877
898 1.8562936
896 2.0615001
