Image.
>Pix99999.
  .
5555
5555
2300
900
5555
2
1
0
701
5555
6.6686999e-003
6.8074018e-003
6.9462028e-003
7.0849047e-003
7.2236066e-003
7.3624072e-003
7.5010103e-003
7.6398100e-003
7.7786115e-003
7.9173138e-003
8.0561144e-003
8.1947185e-003
8.3335163e-003
8.4723188e-003
8.6109238e-003
8.7497216e-003
8.8884253e-003
9.0271272e-003
9.1659259e-003
9.3045328e-003
9.4434265e-003
9.5821330e-003
9.7208349e-003
9.8595368e-003
9.9982377e-003
1.0137036e-002
3.7670287e-004
1.6002016e-002
5.7190560e-002
9.2218153e-002
1.2623154e-001
1.9892895e-001
2.7696010e-001
4.1191041e-001
5.4553038e-001
6.4700103e-001
7.2620672e-001
7.1137238e-001
6.7998147e-001
6.1362255e-001
5.6159228e-001
5.4517937e-001
5.4962283e-001
5.8466834e-001
6.2567210e-001
6.7174327e-001
7.2743309e-001
7.9207420e-001
8.7023848e-001
9.5804942e-001
1.0372821e+000
1.1111377e+000
1.1638041e+000
1.2072519e+000
1.2409543e+000
1.2716036e+000
1.2963561e+000
1.3198864e+000
1.3222585e+000
1.3213843e+000
1.3096886e+000
1.3002017e+000
1.3270162e+000
1.3636429e+000
1.4363240e+000
1.5083421e+000
1.5647237e+000
1.6046245e+000
1.6062233e+000
1.5989689e+000
1.5820900e+000
1.5792217e+000
1.5981194e+000
1.6326352e+000
1.6820980e+000
1.7160714e+000
1.7350109e+000
1.7205241e+000
1.6838458e+000
1.6417964e+000
1.5980287e+000
1.5912313e+000
1.6000935e+000
1.6543620e+000
1.7225721e+000
1.7814180e+000
1.8378708e+000
1.8282490e+000
1.8060538e+000
1.7456788e+000
1.6813543e+000
1.6279470e+000
1.5848069e+000
1.5796468e+000
1.5906945e+000
1.6342314e+000
1.6815268e+000
1.7265059e+000
1.7671000e+000
1.8010328e+000
1.8381000e+000
1.8807236e+000
1.9183522e+000
1.9500532e+000
1.9643914e+000
1.9648249e+000
1.9524654e+000
1.9327642e+000
1.9261326e+000
1.9271041e+000
1.9544557e+000
1.9923998e+000
2.0176680e+000
2.0385745e+000
2.0265803e+000
2.0066350e+000
1.9797732e+000
1.9531125e+000
1.9385566e+000
1.9283659e+000
1.9290199e+000
1.9303272e+000
1.9274448e+000
1.9241623e+000
1.9229417e+000
1.9288785e+000
1.9485680e+000
1.9705267e+000
1.9910063e+000
2.0017967e+000
1.9999800e+000
1.9932661e+000
1.9841914e+000
1.9713839e+000
1.9565905e+000
1.9327143e+000
1.9037703e+000
1.8902788e+000
1.8854294e+000
1.9052166e+000
1.9345400e+000
1.9479469e+000
1.9549814e+000
1.9326673e+000
1.9029303e+000
1.8849864e+000
1.8727986e+000
1.8817760e+000
1.8914241e+000
1.8835182e+000
1.8610214e+000
1.8097976e+000
1.7519509e+000
1.6924361e+000
1.6431860e+000
1.6087085e+000
1.5842366e+000
1.5688829e+000
1.5487108e+000
1.5225236e+000
1.4882200e+000
1.4484841e+000
1.4284937e+000
1.4251466e+000
1.4450085e+000
1.4774679e+000
1.4830827e+000
1.4723253e+000
1.4284639e+000
1.3706167e+000
1.3163985e+000
1.2640005e+000
1.2286469e+000
1.1984885e+000
1.1797285e+000
1.1650500e+000
1.1506954e+000
1.1396285e+000
1.1282260e+000
1.1155988e+000
1.0969971e+000
1.0751661e+000
1.0546000e+000
1.0434176e+000
1.0509566e+000
1.0736021e+000
1.1117806e+000
1.1501424e+000
1.1819429e+000
1.1948910e+000
1.1879572e+000
1.1825913e+000
1.1820903e+000
1.1822724e+000
1.1835289e+000
1.1277286e+000
1.0397600e+000
9.3675357e-001
8.2727003e-001
7.9625618e-001
7.9865712e-001
8.4061921e-001
8.9285660e-001
9.0457809e-001
8.8877553e-001
8.1468457e-001
7.1371263e-001
5.9546512e-001
4.8220161e-001
3.9834395e-001
3.4295800e-001
3.2838550e-001
3.3909267e-001
3.7170205e-001
3.9933008e-001
4.0376428e-001
3.7296093e-001
3.0440411e-001
2.2325175e-001
1.4263679e-001
7.6354913e-002
2.4559276e-002
-1.1726506e-002
-3.6184255e-002
-5.6730479e-002
-7.2094500e-002
-1.0505117e-001
-1.4385279e-001
-1.7827280e-001
-2.0890909e-001
-2.0243570e-001
-1.7786030e-001
-1.2601572e-001
-6.1726883e-002
-3.3101207e-003
4.3096166e-002
4.7247440e-002
2.0499237e-002
-3.3745296e-002
-8.9936048e-002
-1.2217800e-001
-1.3754088e-001
-1.3713123e-001
-1.4751378e-001
-1.7978692e-001
-2.1418451e-001
-2.4477175e-001
-2.5982648e-001
-2.5808349e-001
-2.4361877e-001
-2.2079358e-001
-1.5948018e-001
-7.6480716e-002
1.7060827e-002
1.0973915e-001
1.5866400e-001
1.7847617e-001
1.8546788e-001
1.8797691e-001
2.2312260e-001
2.8079915e-001
3.6195242e-001
4.3925202e-001
4.4647068e-001
4.0025532e-001
2.9556993e-001
1.7371599e-001
8.2587212e-002
2.0395182e-002
-9.5404923e-002
-2.1898928e-001
-2.9487440e-001
-2.8970003e-001
-2.0070168e-001
-8.6147800e-002
2.4621714e-002
4.9331304e-002
-1.5774731e-002
-1.0346447e-001
-1.9163874e-001
-1.6064599e-001
-3.2021005e-002
1.1301444e-001
2.5372097e-001
2.3499885e-001
1.0484120e-001
-1.1922497e-002
-8.9674629e-002
7.3557645e-003
2.6350838e-001
7.4396998e-001
1.3517382e+000
1.9084754e+000
2.4232216e+000
2.9234419e+000
3.5762792e+000
4.5493393e+000
6.0954556e+000
8.3335953e+000
1.1420362e+001
1.5286142e+001
1.9179829e+001
2.2765018e+001
2.5979099e+001
2.8898245e+001
3.2417019e+001
3.6615421e+001
4.1591682e+001
4.7159641e+001
5.1956604e+001
5.6035301e+001
6.0048523e+001
6.4111763e+001
6.8947693e+001
7.4329758e+001
7.9455849e+001
8.4228470e+001
8.8281128e+001
9.1699677e+001
9.4635544e+001
9.7121681e+001
9.9229172e+001
1.0076960e+002
1.0155004e+002
1.0131103e+002
9.9854996e+001
9.7681412e+001
9.5282387e+001
9.2604683e+001
8.9674522e+001
8.6033829e+001
8.1573959e+001
7.6852753e+001
7.2093483e+001
6.7605652e+001
6.3432064e+001
5.9236599e+001
5.4971664e+001
5.0806610e+001
4.6752968e+001
4.2919914e+001
3.9331432e+001
3.6161240e+001
3.3421833e+001
3.1107012e+001
2.9194786e+001
2.7543140e+001
2.6165436e+001
2.5041267e+001
2.4174885e+001
2.3532000e+001
2.3099012e+001
2.2824543e+001
2.2690830e+001
2.2659908e+001
2.2722706e+001
2.2866474e+001
2.3089300e+001
2.3387251e+001
2.3819031e+001
2.4401543e+001
2.5172449e+001
2.6127064e+001
2.7177200e+001
2.8297039e+001
2.9410780e+001
3.0516197e+001
3.1816183e+001
3.3406853e+001
3.5883476e+001
3.9301098e+001
4.2970650e+001
4.6674530e+001
4.9532284e+001
5.1580540e+001
5.3362213e+001
5.4873573e+001
5.6190868e+001
5.7121578e+001
5.7378666e+001
5.6976887e+001
5.6054115e+001
5.4826141e+001
5.3594345e+001
5.2337498e+001
5.1039650e+001
4.9578373e+001
4.7864849e+001
4.5893417e+001
4.3623150e+001
4.1377026e+001
3.9266468e+001
3.7212959e+001
3.5232697e+001
3.2789967e+001
2.9741199e+001
2.6649261e+001
2.3553442e+001
2.0898800e+001
1.8727600e+001
1.6554571e+001
1.4377275e+001
1.2168677e+001
9.9499350e+000
7.7722998e+000
5.7022724e+000
3.8452640e+000
2.2870378e+000
1.1233311e+000
3.7544692e-001
6.6368043e-002
2.9885238e-001
1.0106006e+000
1.9226370e+000
2.8652701e+000
3.6844630e+000
4.2885070e+000
4.7998734e+000
5.2597561e+000
5.7040019e+000
6.1313400e+000
6.4822631e+000
6.6985235e+000
6.8035460e+000
6.7422862e+000
6.6164074e+000
6.4048810e+000
6.1763778e+000
5.9270897e+000
5.6503282e+000
5.3256230e+000
4.8916998e+000
4.3514967e+000
3.7830324e+000
3.2264481e+000
2.7954984e+000
2.5027492e+000
2.3461514e+000
2.3099880e+000
2.3487997e+000
2.4417143e+000
2.5639470e+000
2.7037518e+000
2.8780277e+000
3.0833223e+000
3.3358850e+000
3.6308546e+000
3.9756830e+000
4.3559842e+000
4.7824802e+000
5.2085786e+000
5.6174006e+000
5.9531488e+000
6.1417565e+000
6.2098970e+000
6.0822949e+000
5.8406620e+000
5.4469318e+000
5.0104103e+000
4.5341740e+000
4.0716887e+000
3.6417289e+000
3.2481201e+000
2.8971169e+000
2.5880086e+000
2.2895634e+000
1.9589031e+000
1.5906632e+000
1.1649203e+000
7.4407548e-001
3.9894211e-001
1.4177266e-001
3.9847590e-002
3.1473227e-002
1.2616150e-001
2.4001428e-001
4.0650758e-001
5.8975613e-001
7.9985791e-001
1.0039842e+000
1.1870915e+000
1.3471169e+000
1.4471674e+000
1.5470830e+000
1.6508389e+000
1.7897543e+000
1.9929602e+000
2.2395899e+000
2.5483320e+000
2.8812113e+000
3.2333601e+000
3.5627732e+000
3.8503270e+000
4.0761442e+000
4.2384329e+000
4.3505754e+000
4.4227567e+000
4.4599919e+000
4.4698954e+000
4.4387827e+000
4.3911285e+000
4.3288350e+000
4.2756133e+000
4.2529750e+000
4.2414079e+000
4.2457547e+000
4.2415147e+000
4.2097769e+000
4.1757383e+000
4.1377773e+000
4.1171904e+000
4.1349201e+000
4.1741233e+000
4.2520943e+000
4.3432784e+000
4.4527535e+000
4.5736866e+000
4.7095361e+000
4.8654437e+000
5.0439391e+000
5.2392111e+000
5.4457865e+000
5.6477790e+000
5.8378434e+000
5.9967570e+000
6.1282501e+000
6.2145247e+000
6.2747378e+000
6.3021474e+000
6.3078365e+000
6.2727571e+000
6.2010646e+000
6.0361719e+000
5.8247910e+000
5.4936986e+000
5.1327639e+000
4.6953754e+000
4.2426929e+000
3.7528670e+000
3.2556942e+000
2.7470143e+000
2.2561328e+000
1.8013332e+000
1.3879572e+000
1.0373836e+000
7.3131561e-001
4.8064980e-001
2.6799107e-001
9.3194515e-002
-6.2693991e-002
-2.0405643e-001
-3.4227842e-001
-4.7385156e-001
-5.8498412e-001
-6.7290276e-001
-7.0223904e-001
-6.9139957e-001
-5.9448993e-001
-4.5629600e-001
-2.2815326e-001
2.6968002e-002
3.4229761e-001
6.6036892e-001
9.7310042e-001
1.2621795e+000
1.4744372e+000
1.6429131e+000
1.7014920e+000
1.7207023e+000
1.6614386e+000
1.5811515e+000
1.4655455e+000
1.3317280e+000
1.1718137e+000
9.9244678e-001
7.9238141e-001
5.8881724e-001
3.8606396e-001
2.0523354e-001
5.0272405e-002
-4.3962114e-002
-8.5271604e-002
5.9636682e-004
1.5338314e-001
4.0285042e-001
6.7200398e-001
9.0681058e-001
1.1170352e+000
1.2293600e+000
1.3269243e+000
1.3942372e+000
1.4723021e+000
1.5975263e+000
1.7328424e+000
1.8980380e+000
2.0469251e+000
2.1523762e+000
2.2246537e+000
2.2323253e+000
2.2280536e+000
2.2074430e+000
2.2007003e+000
2.2130079e+000
2.2428713e+000
2.2905192e+000
2.3454514e+000
2.4041638e+000
2.4487891e+000
2.4806738e+000
2.4782119e+000
2.4542341e+000
2.3847563e+000
2.2975109e+000
2.1896682e+000
2.0799148e+000
1.9918056e+000
1.9091240e+000
1.8471265e+000
1.7895712e+000
1.7539971e+000
1.7266486e+000
1.7351624e+000
1.7466066e+000
1.7659130e+000
1.7696847e+000
1.7339892e+000
1.6722186e+000
1.5606354e+000
1.4362811e+000
1.2945216e+000
1.1642700e+000
1.0500720e+000
9.6553475e-001
9.0888065e-001
8.6517453e-001
8.2770497e-001
7.6160866e-001
6.7899489e-001
5.8115238e-001
4.7895560e-001
3.9526314e-001
3.1617153e-001
2.3296580e-001
1.4791718e-001
4.8822403e-002
-4.9407892e-002
-1.2440303e-001
-1.9556813e-001
-2.4213257e-001
-2.8683457e-001
-3.2311574e-001
-3.5307789e-001
-3.6393210e-001
-3.7317541e-001
-3.7951571e-001
-3.9561802e-001
-4.2747834e-001
-4.4996217e-001
-4.5845261e-001
-4.4797164e-001
-4.1835743e-001
-3.9208516e-001
-3.6859757e-001
-3.4650776e-001
-3.2463035e-001
-2.9712051e-001
-2.6688865e-001
-2.3498152e-001
-2.0284863e-001
-1.7138006e-001
-1.4108914e-001
-1.2928559e-001
-1.2013680e-001
-1.1948048e-001
-1.1406550e-001
-3.6637072e-002
2.6492551e-003
8.2552776e-002
2.4408932e-001
4.3539071e-001
6.0606575e-001
7.1604300e-001
8.0082226e-001
8.3106238e-001
8.2315880e-001
7.5375611e-001
6.4877784e-001
5.0105023e-001
3.6248368e-001
2.3248690e-001
1.1934853e-001
1.8265154e-002
-5.3924229e-002
-1.0950107e-001
-9.4384588e-002
-5.0672036e-002
3.8449503e-002
1.4047587e-001
2.5601771e-001
3.7405783e-001
4.9834999e-001
