##TITLE=Methyl Ethyl Ketone
##JCAMP-DX=4.24
##DATA TYPE=INFRARED SPECTRUM
##XUNITS=cm-1
##YUNITS=Absorbance
##FIRSTX=900
##LASTX=2300
##XYDATA=(X++(Y..Y))
2296 0.073022999
2294 0.074542828
2292 0.076061659
2290 0.077580482
2288 0.079100303
2286 0.080619134
2284 0.082137965
2282 0.083657779
2280 0.085176617
2278 0.086694457
2276 0.088215247
2274 0.089738041
2272 0.091252998
2270 0.092758015
2268 0.094291285
2266 0.095865205
2264 0.097331494
2262 0.098645136
2260 0.10036544
2258 0.10264757
2256 0.10342886
2254 0.1021017
2252 0.10635077
2250 0.11846323
2248 0.10985988
2246 0.059215855
2244 0.0090783872
2242 0.0081013879
2240 0.057532836
2238 0.14021549
2236 0.21933343
2234 0.26308936
2232 0.2820608
2230 0.29891658
2228 0.33559787
2226 0.407502
2224 0.50470966
2222 0.60642642
2220 0.67770791
2218 0.68842107
2216 0.64444029
2214 0.56851631
2212 0.50815219
2210 0.5064202
2208 0.55894506
2206 0.6420331
2204 0.71240485
2202 0.7328006
2200 0.71374661
2198 0.68014711
2196 0.6549893
2194 0.65330487
2192 0.66117853
2190 0.66108906
2188 0.6576708
2186 0.66270667
2184 0.68777919
2182 0.73913705
2180 0.80236226
2178 0.85890502
2176 0.9008131
2174 0.92547828
2172 0.93766242
2170 0.9449563
2168 0.95720059
2166 0.98392421
2164 1.0307026
2162 1.0979669
2160 1.1699669
2158 1.2259476
2156 1.24489
2154 1.2123442
2152 1.140048
2150 1.051317
2148 0.98050725
2146 0.9570536
2144 0.97415984
2142 1.0103178
2140 1.0354702
2138 1.0276316
2136 1.0092943
2134 1.0147048
2132 1.0640806
2130 1.1612871
2128 1.2666039
2126 1.3318386
2124 1.3375211
2122 1.2820424
2120 1.1935909
2118 1.1082436
2116 1.0514886
2114 1.042699
2112 1.0929508
2110 1.2052641
2108 1.3616322
2106 1.5343907
2104 1.6895994
2102 1.7920773
2100 1.811736
2098 1.7288318
2096 1.5596
2094 1.3402231
2092 1.1333257
2090 0.99917614
2088 0.94717097
2086 0.95908999
2084 0.98586422
2082 0.97703403
2080 0.92360735
2078 0.84043187
2076 0.77075154
2074 0.76057768
2072 0.82298321
2070 0.9494592
2068 1.0990839
2066 1.2251886
2064 1.3098406
2062 1.352433
2060 1.3738645
2058 1.397999
2056 1.4266599
2054 1.4507242
2052 1.4570946
2050 1.4341903
2048 1.3817211
2046 1.3058679
2044 1.219276
2042 1.1374232
2040 1.0772035
2038 1.0536224
2036 1.0717714
2034 1.1305737
2032 1.2210594
2030 1.3316209
2028 1.4508946
2026 1.5687586
2024 1.679384
2022 1.7783744
2020 1.8592806
2018 1.9136097
2016 1.92834
2014 1.8923067
2012 1.8106788
2010 1.7002358
2008 1.5954239
2006 1.5335678
2004 1.5299437
2002 1.5835451
2000 1.6684291
1998 1.749763
1996 1.8010929
1994 1.8079119
1992 1.7871588
1990 1.7704256
1988 1.788672
1986 1.8610343
1984 1.9607228
1982 2.0419235
1980 2.0715532
1978 2.0361934
1976 1.97394
1974 1.9427299
1972 1.9807863
1970 2.1002562
1968 2.251209
1966 2.3598778
1964 2.3788433
1962 2.2899311
1960 2.1351759
1958 1.978711
1956 1.8545529
1954 1.774758
1952 1.7317508
1950 1.71266
1948 1.7177663
1946 1.751575
1944 1.8050926
1942 1.8620377
1940 1.9093606
1938 1.9392072
1936 1.9576343
1934 1.974775
1932 1.987218
1930 1.985864
1928 1.9705417
1926 1.9524307
1924 1.9687005
1922 2.0577204
1920 2.2047942
1918 2.3642621
1916 2.4843099
1914 2.5243435
1912 2.4969587
1910 2.4397321
1908 2.3713939
1906 2.29827
1904 2.2285681
1902 2.1737871
1900 2.1512661
1898 2.1760275
1896 2.2404857
1894 2.3231769
1892 2.3990517
1890 2.4421649
1888 2.4276338
1886 2.3367908
1884 2.1748307
1882 1.9636104
1880 1.7380623
1878 1.5385509
1876 1.40124
1874 1.3551831
1872 1.4122063
1870 1.561824
1868 1.739916
1866 1.8601056
1864 1.8747182
1862 1.775771
1860 1.6149395
1858 1.4665866
1856 1.3568799
1854 1.2795633
1852 1.2294565
1850 1.2061149
1848 1.213096
1846 1.2487286
1844 1.2791837
1842 1.25852
1840 1.1765274
1838 1.0554903
1836 0.95486987
1834 0.94492131
1832 1.0522667
1830 1.2599134
1828 1.488786
1826 1.63551
1824 1.6506212
1822 1.5355927
1820 1.347098
1818 1.164094
1816 1.0238734
1814 0.92954922
1812 0.867751
1810 0.82428622
1808 0.81438816
1806 0.86471099
1804 0.96168888
1802 1.0620316
1800 1.1202726
1798 1.1076709
1796 1.0633428
1794 1.0588871
1792 1.107236
1790 1.1733204
1788 1.2114534
1786 1.1844357
1784 1.1019229
1782 1.0044116
1780 0.92357391
1778 0.88173091
1776 0.90486687
1774 1.0078155
1772 1.1367903
1770 1.1960238
1768 1.1211697
1766 0.89582211
1764 0.5922848
1762 0.3202529
1760 0.086824343
1758 -0.16406323
1756 -0.40280688
1754 -0.53324437
1752 -0.48925856
1750 -0.25792491
1748 0.075017959
1746 0.36511642
1744 0.51141721
1742 0.47986746
1740 0.3536182
1738 0.27948925
1736 0.32156
1734 0.45203853
1732 0.55821514
1730 0.49983978
1728 0.25819212
1726 -0.070832357
1724 -0.32403952
1722 -0.31303701
1720 0.095848218
1718 0.9436599
1716 2.0608702
1714 3.1474738
1712 4.0256128
1710 4.6803842
1708 5.3022022
1706 6.2163391
1704 7.7066679
1702 9.969717
1700 13.051077
1698 16.81575
1696 20.809286
1694 24.415951
1692 27.393671
1690 29.907427
1688 32.432838
1686 35.591599
1684 39.759411
1682 44.951595
1680 50.572357
1678 55.711594
1676 60.194
1674 64.513474
1672 69.081764
1670 74.030708
1668 79.02314
1666 83.432304
1664 86.985718
1662 89.787399
1660 92.008698
1658 93.797287
1656 95.220543
1654 96.26371
1652 96.836121
1650 96.801727
1648 96.063423
1646 94.612572
1644 92.670273
1642 90.610039
1640 88.591949
1638 86.528931
1636 84.217911
1634 81.42878
1632 78.113235
1630 74.392097
1628 70.356415
1626 66.036469
1624 61.45536
1622 56.658112
1620 51.782997
1618 47.043243
1616 42.596256
1614 38.528217
1612 34.905701
1610 31.778202
1608 29.134731
1606 26.908415
1604 25.030655
1602 23.446274
1600 22.130617
1598 21.087706
1596 20.32
1594 19.821024
1592 19.575354
1590 19.564058
1588 19.780102
1586 20.226957
1584 20.899771
1582 21.79096
1580 22.940586
1578 24.43663
1576 26.368343
1574 28.792244
1572 31.63916
1570 34.718056
1568 37.835121
1566 40.838558
1564 43.668236
1562 46.381767
1560 49.196259
1558 52.36697
1556 55.612228
1554 58.13464
1552 59.477875
1550 59.724468
1548 59.271626
1546 58.669678
1544 58.125576
1542 57.417328
1540 56.19878
1538 54.164394
1536 51.416027
1534 48.478275
1532 45.77647
1530 43.487984
1528 41.595737
1526 39.920101
1524 38.275295
1522 36.516525
1520 34.548218
1518 32.344593
1516 29.996101
1514 27.692263
1512 25.518082
1510 23.402229
1508 21.217501
1506 18.842485
1504 16.338417
1502 13.962923
1500 11.890032
1498 10.128473
1496 8.598671
1494 7.170547
1492 5.7779989
1490 4.4461927
1488 3.2061176
1486 2.076375
1484 1.0944895
1482 0.32437253
1480 -0.16880049
1478 -0.31858528
1476 -0.024888009
1474 0.82243389
1472 2.1667182
1470 3.7460489
1468 5.3147926
1466 6.7264228
1464 7.9683571
1462 9.1678457
1460 10.446155
1458 11.849712
1456 13.2634
1454 14.401562
1452 15.056837
1450 15.189959
1448 14.876394
1446 14.288321
1444 13.571732
1442 12.80653
1440 12.043571
1438 11.30587
1436 10.570857
1434 9.7727079
1432 8.8849621
1430 7.9526973
1428 7.0604
1426 6.3185773
1424 5.8025408
1422 5.5255189
1420 5.4586592
1418 5.534246
1416 5.6837459
1414 5.8561621
1412 6.0433321
1410 6.2884669
1408 6.6245885
1406 7.048707
1404 7.5191808
1402 7.9525824
1400 8.2712679
1398 8.424016
1396 8.3940792
1394 8.2077522
1392 7.9090896
1390 7.5511966
1388 7.1717162
1386 6.7825098
1384 6.3906131
1382 6.0039425
1380 5.6279354
1378 5.2603817
1376 4.87676
1374 4.4262862
1372 3.8785281
1370 3.2453067
1368 2.5614858
1366 1.8794301
1364 1.2373955
1362 0.64912373
1360 0.14223665
1358 -0.22861931
1356 -0.42038888
1354 -0.41868246
1352 -0.22105783
1350 0.1621688
1348 0.69467247
1346 1.3097036
1344 1.9719081
1342 2.6989398
1340 3.4708776
1338 4.1876688
1336 4.7293572
1334 4.9860578
1332 4.925036
1330 4.6352839
1328 4.2282062
1326 3.8038621
1324 3.4410086
1322 3.1834977
1320 3.0439754
1318 2.9940584
1316 2.98159
1314 2.9346783
1312 2.8052537
1310 2.5954127
1308 2.3353021
1306 2.0805879
1304 1.8748388
1302 1.7310699
1300 1.6543797
1298 1.6500602
1296 1.7343714
1294 1.9409119
1292 2.2959528
1290 2.8024812
1288 3.437124
1286 4.1393571
1284 4.8396735
1282 5.4707804
1280 5.9856052
1278 6.3746572
1276 6.649827
1274 6.8460188
1272 7.001194
1270 7.1489091
1268 7.3195009
1266 7.5385962
1264 7.8260069
1262 8.192174
1260 8.6414776
1258 9.1723814
1256 9.7916689
1254 10.52401
1252 11.392946
1250 12.40797
1248 13.559258
1246 14.799
1244 16.069201
1242 17.306889
1240 18.441664
1238 19.390902
1236 20.068727
1234 20.391655
1232 20.301121
1230 19.793087
1228 18.900183
1226 17.706543
1224 16.313787
1222 14.833905
1220 13.379942
1218 12.05974
1216 10.958143
1214 10.117377
1212 9.5485182
1210 9.2282696
1208 9.1159105
1206 9.1536322
1204 9.2658482
1202 9.3496132
1200 9.3020468
1198 9.0390129
1196 8.5181856
1194 7.7783608
1192 6.895442
1190 5.9814997
1188 5.1381884
1186 4.4246068
1184 3.8681715
1182 3.4491427
1180 3.1329124
1178 2.8780317
1176 2.6544001
1174 2.4613321
1172 2.3121545
1170 2.2337081
1168 2.2416697
1166 2.3190329
1164 2.4358733
1162 2.5517759
1160 2.6335423
1158 2.6686532
1156 2.6465313
1154 2.5495346
1152 2.3615115
1150 2.0754242
1148 1.7008179
1146 1.2809589
1144 0.86746126
1142 0.51135361
1140 0.24385318
1138 0.051666602
1136 -0.079127342
1134 -0.13943079
1132 -0.11894171
1130 -0.018562257
1128 0.14961159
1126 0.35296321
1124 0.55328202
1122 0.71238786
1120 0.80680716
1118 0.84894788
1116 0.86036915
1114 0.8636204
1112 0.87724948
1110 0.90966052
1108 0.96974146
1106 1.072445
1104 1.2227851
1102 1.3974353
1100 1.5692294
1098 1.7200944
1096 1.8451713
1094 1.9683677
1092 2.1161962
1090 2.3045566
1088 2.5465686
1086 2.85272
1084 3.2144113
1082 3.57359
1080 3.8525004
1078 3.957969
1076 3.8370388
1074 3.555218
1072 3.2142234
1070 2.9334204
1068 2.7994661
1066 2.7975144
1064 2.880316
1062 2.9797122
1060 3.0365343
1058 3.0305009
1056 2.9564428
1054 2.8255076
1052 2.6574442
1050 2.4852309
1048 2.3442302
1046 2.2666893
1044 2.2653105
1042 2.2997034
1040 2.3259525
1038 2.3278208
1036 2.3087702
1034 2.3069739
1032 2.3466647
1030 2.385745
1028 2.3718352
1026 2.2702515
1024 2.0658665
1022 1.7879031
1020 1.4745811
1018 1.1587404
1016 0.8720206
1014 0.64541906
1012 0.49481171
1010 0.39045548
1008 0.28942442
1006 0.14362082
1004 -0.079082698
1002 -0.35777023
1000 -0.66575354
998 -0.99882722
996 -1.3560642
994 -1.7285371
992 -2.0923989
990 -2.3837688
988 -2.5477333
986 -2.5908008
984 -2.5435336
982 -2.4638903
980 -2.3966658
978 -2.3205228
976 -2.2036116
974 -2.0331428
972 -1.8129957
970 -1.5867409
968 -1.3970269
966 -1.2497499
964 -1.13506
962 -1.0219165
960 -0.88093686
958 -0.70681447
956 -0.50504422
954 -0.29767528
952 -0.11152881
950 0.02457381
948 0.090598993
946 0.099219456
944 0.067121968
942 -0.0029651597
940 -0.090717509
938 -0.10106122
936 0.043293834
934 0.28761747
932 0.54640484
930 0.74233204
928 0.82881194
926 0.86517918
924 0.92329383
922 1.0230405
920 1.159436
918 1.2830299
916 1.3546872
914 1.4172834
912 1.5255046
910 1.701377
908 1.9490436
906 2.2337685
904 2.5230503
902 2.8289928
900 3.153338
898 3.4110212
896 3.4956
