Image.
>Pix99999.
  .
5555
5555
2300
900
5555
2
1
0
701
5555
-6.1685000e-002
-6.2968165e-002
-6.4251326e-002
-6.5535486e-002
-6.6818655e-002
-6.8101823e-002
-6.9384985e-002
-7.0668146e-002
-7.1951315e-002
-7.3234484e-002
-7.4517645e-002
-7.5800806e-002
-7.7084951e-002
-7.8368135e-002
-7.9651304e-002
-8.0934465e-002
-8.2217626e-002
-8.3500788e-002
-8.4783956e-002
-8.6067125e-002
-8.7350287e-002
-8.8634424e-002
-8.9917615e-002
-9.1200776e-002
-9.2483945e-002
-9.3767107e-002
-3.4844829e-003
1.3611905e-001
2.8049201e-001
2.5991929e-001
2.1500985e-001
3.5858661e-002
-1.4893112e-001
-2.4417622e-001
-3.1717265e-001
-2.4680799e-001
-1.5065245e-001
3.0181389e-002
2.2214425e-001
4.3424276e-001
6.2026685e-001
7.4684161e-001
8.1583679e-001
7.9660666e-001
7.1473938e-001
5.6155396e-001
3.9653280e-001
2.2444229e-001
1.5503556e-001
1.6269331e-001
2.6202786e-001
4.1126743e-001
4.6654731e-001
4.7915724e-001
3.3187371e-001
1.3352807e-001
2.0312840e-002
-7.2589926e-002
8.9472614e-002
2.8958112e-001
4.9974197e-001
7.0067704e-001
7.8757173e-001
8.5961246e-001
9.0860933e-001
9.3937856e-001
9.1198409e-001
8.5221457e-001
7.2438842e-001
5.8755893e-001
4.4676098e-001
3.4070513e-001
2.8559846e-001
2.8802085e-001
3.4928218e-001
3.8918784e-001
4.0476206e-001
3.4559768e-001
2.3624417e-001
1.7866041e-001
1.5203944e-001
2.4581556e-001
3.8896161e-001
5.2203798e-001
6.5045244e-001
7.0635092e-001
7.4549198e-001
7.6500708e-001
7.7889538e-001
7.4230647e-001
6.9301039e-001
6.0231793e-001
5.1795125e-001
4.8792613e-001
4.7937152e-001
5.1164538e-001
5.4293418e-001
5.5888158e-001
5.7564938e-001
5.9769690e-001
6.1304140e-001
6.1873102e-001
5.6652951e-001
4.5585090e-001
3.0566594e-001
1.2957101e-001
-4.9766712e-004
-9.7894847e-002
-1.5020715e-001
-1.8095885e-001
-2.2752656e-001
-2.8169382e-001
-3.2134041e-001
-3.5597622e-001
-3.1437886e-001
-2.5253493e-001
-1.1752270e-001
3.1783454e-002
1.7915763e-001
3.0482331e-001
3.1294373e-001
2.7761170e-001
1.7041269e-001
5.9799120e-002
-2.2191353e-002
-1.0518321e-001
-2.0054160e-001
-2.9956692e-001
-4.0130997e-001
-4.6782455e-001
-4.9226743e-001
-4.8830813e-001
-4.6417096e-001
-4.1696578e-001
-3.5387558e-001
-2.7638379e-001
-1.9096817e-001
-1.2400300e-001
-6.7018598e-002
-2.5290824e-002
1.0172600e-002
3.8461648e-002
6.3924216e-002
6.8270318e-002
6.7236826e-002
7.4304774e-002
8.9231752e-002
1.4701284e-001
2.2122583e-001
3.2219845e-001
4.2904499e-001
5.3500724e-001
6.1481285e-001
6.3358724e-001
5.8579481e-001
4.4420743e-001
2.7700800e-001
1.0525885e-001
-2.9690377e-003
-3.6887664e-002
-1.8201999e-002
3.5070959e-002
6.4731255e-002
7.1581811e-002
6.3757561e-002
4.9151134e-002
5.9014704e-002
8.1458554e-002
1.2330776e-001
1.7261823e-001
2.2406657e-001
2.7411541e-001
2.7123743e-001
2.4689865e-001
1.9145674e-001
1.4085750e-001
1.6663395e-001
2.2846638e-001
3.2316917e-001
3.9895985e-001
3.9644170e-001
3.6433348e-001
3.2352680e-001
3.0012098e-001
3.1246945e-001
2.9579413e-001
2.3060131e-001
1.1974921e-001
-2.8716464e-002
-1.1311255e-001
-1.3512157e-001
-7.9660155e-002
2.4593035e-002
1.5498009e-001
2.9730129e-001
4.4416144e-001
5.9184200e-001
6.5355402e-001
6.7400980e-001
6.3119471e-001
5.6699431e-001
5.5076057e-001
5.5685991e-001
5.8206952e-001
6.1379290e-001
6.3624310e-001
6.5528971e-001
6.7317343e-001
6.7239195e-001
6.3199180e-001
5.5381900e-001
4.3749851e-001
3.3578616e-001
2.7863649e-001
2.8702176e-001
3.5266843e-001
4.1617864e-001
4.5348591e-001
4.7052497e-001
4.7811481e-001
4.7422856e-001
4.6618676e-001
3.1643552e-001
7.5225264e-002
-3.5865360e-001
-8.9367467e-001
-1.2160171e+000
-1.4062042e+000
-1.1451809e+000
-6.7559528e-001
-2.1199474e-001
2.0763071e-001
4.3164566e-001
5.3634548e-001
5.2064127e-001
4.5159951e-001
3.6401868e-001
2.9168445e-001
2.6892459e-001
2.6907277e-001
2.8306773e-001
2.7541348e-001
2.3278843e-001
1.8629590e-001
1.4746651e-001
1.3020751e-001
1.3242134e-001
1.4546894e-002
-2.1486790e-001
-5.8207566e-001
-1.0390143e+000
-1.2938797e+000
-1.3981280e+000
-1.1961106e+000
-8.1717277e-001
-4.7023088e-001
-1.6625984e-001
-6.6235207e-002
-1.0322858e-001
-2.8554702e-001
-5.1939940e-001
-6.4117986e-001
-6.1876464e-001
-3.4180766e-001
1.7891079e-002
2.6813281e-001
3.6142701e-001
2.5291118e-001
6.8577372e-002
-2.7135146e-001
-6.7384988e-001
-1.0200069e+000
-1.3689433e+000
-1.7408971e+000
-2.1395400e+000
-2.5624535e+000
-2.9077022e+000
-3.1807833e+000
-3.3261573e+000
-3.3730261e+000
-3.2568400e+000
-3.0215762e+000
-2.5694244e+000
-1.9769733e+000
-1.4132246e+000
-8.9488339e-001
-5.2347755e-001
-2.4991938e-001
4.7301039e-002
4.5256707e-001
1.1142554e+000
1.9261413e+000
2.7439194e+000
3.4642730e+000
3.9722681e+000
4.3996644e+000
4.8879495e+000
5.8177528e+000
7.4165244e+000
1.0225917e+001
1.4342000e+001
1.8870140e+001
2.3335573e+001
2.7237730e+001
3.0545446e+001
3.4111862e+001
3.8087761e+001
4.2735268e+001
4.7924038e+001
5.2439331e+001
5.6324001e+001
6.0112373e+001
6.3916435e+001
6.8424057e+001
7.3448273e+001
7.8370697e+001
8.3124512e+001
8.7479004e+001
9.1436729e+001
9.4986320e+001
9.8057602e+001
1.0055307e+002
1.0238700e+002
1.0350393e+002
1.0378017e+002
1.0314679e+002
1.0180048e+002
9.9990555e+001
9.7723366e+001
9.5085556e+001
9.1817596e+001
8.7889641e+001
8.3692520e+001
7.9394890e+001
7.5095032e+001
7.0823502e+001
6.6212242e+001
6.1254330e+001
5.6358337e+001
5.1573650e+001
4.7268997e+001
4.3456223e+001
4.0182724e+001
3.7430080e+001
3.5036388e+001
3.2985744e+001
3.1165043e+001
2.9602171e+001
2.8311327e+001
2.7281139e+001
2.6451500e+001
2.5825279e+001
2.5375017e+001
2.5121147e+001
2.5055874e+001
2.5149307e+001
2.5363245e+001
2.5618521e+001
2.5868120e+001
2.6128529e+001
2.6406401e+001
2.6818905e+001
2.7391680e+001
2.8163246e+001
2.9135160e+001
3.0213799e+001
3.1391459e+001
3.2692650e+001
3.4173977e+001
3.6221359e+001
3.8880100e+001
4.1738449e+001
4.4621513e+001
4.6829380e+001
4.8313278e+001
4.9317463e+001
4.9829628e+001
4.9986084e+001
4.9849621e+001
4.9551987e+001
4.9073086e+001
4.8421204e+001
4.7517281e+001
4.6344814e+001
4.4906780e+001
4.3217350e+001
4.1339268e+001
3.9300152e+001
3.7365772e+001
3.5642601e+001
3.4129169e+001
3.2851124e+001
3.1379000e+001
2.9616150e+001
2.7310440e+001
2.4339235e+001
2.1437710e+001
1.8674183e+001
1.6388254e+001
1.4636220e+001
1.2938143e+001
1.1300913e+001
9.6716623e+000
8.0671015e+000
6.5039067e+000
5.0241394e+000
3.6878238e+000
2.5377550e+000
1.6215514e+000
9.2648482e-001
4.0294713e-001
1.5442336e-001
2.7844143e-001
6.8459052e-001
1.2719901e+000
1.8382078e+000
2.2739131e+000
2.5984724e+000
2.8012385e+000
3.0751343e+000
3.4941800e+000
4.0828695e+000
4.8901567e+000
5.5638928e+000
6.0069008e+000
6.2603393e+000
6.2481599e+000
6.1233101e+000
5.8443804e+000
5.4473696e+000
4.9132915e+000
4.3013797e+000
3.6511579e+000
3.1004677e+000
2.6638920e+000
2.3419237e+000
2.1260903e+000
1.9822072e+000
1.9687874e+000
2.1487069e+000
2.5248029e+000
3.1145861e+000
3.7611237e+000
4.3644304e+000
4.8846269e+000
5.2724366e+000
5.5492935e+000
5.6628299e+000
5.6526518e+000
5.4538960e+000
5.2571926e+000
5.0911217e+000
5.0410647e+000
5.1635365e+000
5.2813649e+000
5.3723803e+000
5.3675513e+000
5.2160745e+000
4.9446640e+000
4.5200925e+000
4.0023799e+000
3.4258211e+000
2.9244819e+000
2.5187430e+000
2.2183120e+000
1.9513358e+000
1.5911077e+000
1.1673839e+000
7.1126908e-001
3.1289297e-001
9.2021093e-002
-2.0810723e-002
-2.0966239e-002
9.7869430e-003
2.9710243e-002
1.7238654e-002
-1.9872604e-002
-6.6308141e-002
-1.2323963e-001
-1.4237632e-001
-8.1823573e-002
6.3036472e-002
3.4038156e-001
6.3963711e-001
9.6249717e-001
1.2467279e+000
1.4780937e+000
1.6639086e+000
1.8041915e+000
1.9396995e+000
2.0853801e+000
2.2742379e+000
2.4892759e+000
2.6906986e+000
2.8520346e+000
2.9348142e+000
2.9597194e+000
2.9415240e+000
2.9119923e+000
2.8969879e+000
2.8987999e+000
2.9290459e+000
2.9653211e+000
2.9979589e+000
3.0354600e+000
3.0857251e+000
3.1598227e+000
3.2909701e+000
3.4301710e+000
3.5834644e+000
3.7165170e+000
3.8132591e+000
3.8998058e+000
3.9798076e+000
4.0960054e+000
4.2673850e+000
4.4789181e+000
4.7367549e+000
5.0112262e+000
5.3129354e+000
5.6613712e+000
6.0572386e+000
6.4970040e+000
6.9595613e+000
7.4070559e+000
7.8399501e+000
8.2451591e+000
8.6336498e+000
8.9985380e+000
9.3321257e+000
9.5848513e+000
9.7763681e+000
9.8190241e+000
9.8067675e+000
9.6656027e+000
9.4955158e+000
9.2504978e+000
8.9745493e+000
8.6223116e+000
8.2369461e+000
7.7844973e+000
7.3114657e+000
6.8055568e+000
6.2960482e+000
5.7817845e+000
5.2683301e+000
4.7537460e+000
4.2320414e+000
3.7083960e+000
3.2041273e+000
2.7248073e+000
2.2921097e+000
1.8955531e+000
1.5397360e+000
1.2180046e+000
9.6331292e-001
7.5481021e-001
6.4556223e-001
5.7858413e-001
5.9330285e-001
6.3499999e-001
7.4149728e-001
8.6017025e-001
1.0089619e+000
1.1359543e+000
1.1912186e+000
1.1967155e+000
1.0803211e+000
9.4283187e-001
7.7169478e-001
6.4498985e-001
5.9371823e-001
5.7723367e-001
5.9558702e-001
5.5791801e-001
4.5375249e-001
2.9978731e-001
1.2052042e-001
2.8632469e-002
2.7624294e-002
2.0463686e-001
4.8969609e-001
9.0125203e-001
1.3552861e+000
1.7788875e+000
2.1890321e+000
2.5730858e+000
2.9530435e+000
3.3356600e+000
3.7051494e+000
4.0019398e+000
4.2711453e+000
4.4281697e+000
4.5481267e+000
4.5529780e+000
4.5651097e+000
4.6028771e+000
4.7122235e+000
4.9601412e+000
5.2297897e+000
5.5298429e+000
5.8125963e+000
6.0786657e+000
6.3748050e+000
6.6986470e+000
7.0140038e+000
7.3117142e+000
7.5291786e+000
7.6877928e+000
7.7626882e+000
7.7970071e+000
7.8083577e+000
7.8241596e+000
7.9274373e+000
8.0429945e+000
8.1087008e+000
8.1329002e+000
7.8990011e+000
7.6496181e+000
7.3825674e+000
7.1531229e+000
7.0877528e+000
7.0333495e+000
7.0115361e+000
6.9608369e+000
6.8382001e+000
6.6793189e+000
6.4547849e+000
6.2409010e+000
6.0423517e+000
5.8485403e+000
5.6533294e+000
5.3887606e+000
5.0625401e+000
4.7263503e+000
4.3863406e+000
4.0730805e+000
3.7658961e+000
3.3777912e+000
2.9543612e+000
2.4887629e+000
2.0206530e+000
1.6495692e+000
1.3066592e+000
1.0974327e+000
9.0648925e-001
7.9836655e-001
6.7675096e-001
4.5696497e-001
2.0570411e-001
-1.8260717e-001
-5.5840421e-001
-8.9482510e-001
-1.2125046e+000
-1.4861665e+000
-1.7349107e+000
-1.9315245e+000
-1.9880021e+000
-1.8524200e+000
-1.6237936e+000
-1.3030601e+000
-1.0394198e+000
-8.2071465e-001
-5.9483683e-001
-3.6123627e-001
-6.9896907e-002
2.4424459e-001
4.9265605e-001
7.0918095e-001
7.0548320e-001
6.4767241e-001
4.3465361e-001
2.0752475e-001
9.2377245e-002
-1.0591082e-002
-3.4906177e-003
3.0503981e-004
8.5302703e-003
-1.0764450e-003
3.6700521e-002
7.5744852e-002
1.1856239e-001
1.5508606e-001
1.7875072e-001
2.2399536e-001
3.0431277e-001
4.1135699e-001
5.5121410e-001
7.0216531e-001
8.6322415e-001
1.0229700e+000
1.1817921e+000
1.3521252e+000
1.5295080e+000
1.7501469e+000
1.9892457e+000
2.3173161e+000
2.6698332e+000
3.0736799e+000
3.4858623e+000
3.7391000e+000
