Image.
>Pix99999.
  .
5555
5555
2300
900
5555
2
1
0
701
5555
4.7396000e-002
4.8382588e-002
4.9368180e-002
5.0353773e-002
5.1340353e-002
5.2325953e-002
5.3312533e-002
5.4298133e-002
5.5283722e-002
5.6270298e-002
5.7255901e-002
5.8242474e-002
5.9228081e-002
6.0214654e-002
6.1200261e-002
6.2185850e-002
6.3172415e-002
6.4158030e-002
6.5144591e-002
6.6130206e-002
6.7116767e-002
6.8102390e-002
6.9087982e-002
7.0074536e-002
7.1060158e-002
7.2046712e-002
4.2154476e-002
1.5814286e-003
-1.2188160e-002
-1.8769508e-002
-2.4411144e-002
-2.0791870e-002
-1.6447544e-002
-1.0673786e-002
-1.7857637e-003
3.1618048e-002
7.1194366e-002
1.3345020e-001
1.9211537e-001
2.3623422e-001
2.7123514e-001
2.8811282e-001
3.0282980e-001
3.1578940e-001
3.2424581e-001
3.2722092e-001
3.2546535e-001
3.1946233e-001
3.3430612e-001
3.6492962e-001
4.2008787e-001
4.8880965e-001
5.3622288e-001
5.7390177e-001
5.8414823e-001
5.8569145e-001
5.9925723e-001
6.1570585e-001
6.4031875e-001
6.6599053e-001
6.8042970e-001
6.9357491e-001
7.0396185e-001
7.1526128e-001
7.3335296e-001
7.5251436e-001
7.7324754e-001
7.9241949e-001
8.0718696e-001
8.2211947e-001
8.3816195e-001
8.5235101e-001
8.6369240e-001
8.6980122e-001
8.7035316e-001
8.7250179e-001
8.7657535e-001
8.8784462e-001
9.0402800e-001
9.3147522e-001
9.6476460e-001
9.9716711e-001
1.0288866e+000
1.0455570e+000
1.0574200e+000
1.0718029e+000
1.0870203e+000
1.1007221e+000
1.1128914e+000
1.1012199e+000
1.0859672e+000
1.0698190e+000
1.0563217e+000
1.0549468e+000
1.0524029e+000
1.0409371e+000
1.0239275e+000
9.9762124e-001
9.7215104e-001
9.5042831e-001
9.3393004e-001
9.2367911e-001
9.2009175e-001
9.2249030e-001
9.2405981e-001
9.2401201e-001
9.1186088e-001
8.9178294e-001
8.6565650e-001
8.3701259e-001
8.2062411e-001
8.0949926e-001
8.1805962e-001
8.3287364e-001
8.4360427e-001
8.5287350e-001
8.3150393e-001
8.0394816e-001
7.7095336e-001
7.4023360e-001
7.2781199e-001
7.1960014e-001
7.1450084e-001
7.0695263e-001
6.9264877e-001
6.7522573e-001
6.5487736e-001
6.3544255e-001
6.1723691e-001
6.0296053e-001
5.9194624e-001
5.8625269e-001
5.8532506e-001
5.9119874e-001
6.0244459e-001
6.1659658e-001
6.3252896e-001
6.4849424e-001
6.6464037e-001
6.7901188e-001
6.9213998e-001
7.0046377e-001
7.0642978e-001
7.0158827e-001
6.9232959e-001
6.6374546e-001
6.2892586e-001
5.8731771e-001
5.4781055e-001
5.2825433e-001
5.2047932e-001
5.3521508e-001
5.5789191e-001
5.8258164e-001
6.0795224e-001
6.2934947e-001
6.4304137e-001
6.4746410e-001
6.3463902e-001
6.0652089e-001
5.8465803e-001
5.7268244e-001
5.8510506e-001
6.1544412e-001
6.3017845e-001
6.3276917e-001
5.9955263e-001
5.4733950e-001
4.9784121e-001
4.5018891e-001
4.2022842e-001
3.9616531e-001
3.7510869e-001
3.5342401e-001
3.3190203e-001
3.0974001e-001
2.8131104e-001
2.5297654e-001
2.1899261e-001
1.8569748e-001
1.5576571e-001
1.2823661e-001
1.0810020e-001
9.2393301e-002
8.5026540e-002
8.3283998e-002
8.8718489e-002
1.0219777e-001
1.1984292e-001
1.3633859e-001
1.4632928e-001
1.4992157e-001
1.5009989e-001
1.4914155e-001
1.4922757e-001
1.3145250e-001
1.0301280e-001
7.0695013e-002
3.5823442e-002
3.9392620e-002
5.8865428e-002
9.7402617e-002
1.4059691e-001
1.5864010e-001
1.6111377e-001
1.3076115e-001
8.7237254e-002
3.9234512e-002
-7.1526570e-003
-4.2465970e-002
-7.4721403e-002
-1.0074108e-001
-1.1811743e-001
-1.2107856e-001
-1.0394404e-001
-7.6441631e-002
-5.4655358e-002
-5.0277218e-002
-6.2704898e-002
-8.2852304e-002
-1.0229629e-001
-1.1605772e-001
-1.3784987e-001
-1.6218817e-001
-2.0885241e-001
-2.6408181e-001
-3.2153270e-001
-3.7527063e-001
-4.0199405e-001
-4.1560370e-001
-4.0129173e-001
-3.7333611e-001
-3.1741381e-001
-2.4445108e-001
-1.6252163e-001
-8.5738517e-002
-5.1375691e-002
-5.7768274e-002
-1.1233956e-001
-1.8850538e-001
-2.6002401e-001
-3.1125671e-001
-3.3133563e-001
-3.2055959e-001
-2.8721634e-001
-2.4226500e-001
-1.9327115e-001
-1.8079831e-001
-1.9892092e-001
-2.5080419e-001
-3.2310072e-001
-3.4244171e-001
-3.2664040e-001
-2.5935632e-001
-1.6848090e-001
-1.0373536e-001
-5.9989978e-002
-3.9326735e-002
-3.4166478e-002
-2.9985931e-002
-2.4243657e-002
-7.8991521e-003
1.8453781e-002
3.7040289e-002
4.9139217e-002
4.2620413e-002
2.4275200e-002
1.2122221e-002
8.8799996e-003
-6.9167048e-002
-1.7798313e-001
-2.5788167e-001
-2.9191884e-001
-2.7671129e-001
-2.5728789e-001
-2.5343928e-001
-2.9924944e-001
-3.9807072e-001
-4.8294553e-001
-5.4345381e-001
-5.0607598e-001
-3.8980171e-001
-2.5637609e-001
-1.2307465e-001
-8.8314563e-002
-1.2509686e-001
-1.4503092e-001
-1.3295510e-001
3.3928081e-003
2.5731897e-001
7.1206546e-001
1.2960076e+000
1.8626457e+000
2.3956823e+000
2.8939400e+000
3.5054450e+000
4.3829556e+000
5.7979131e+000
7.8865895e+000
1.0908166e+001
1.4835714e+001
1.8914480e+001
2.2784121e+001
2.6239021e+001
2.9317446e+001
3.2896458e+001
3.7075287e+001
4.2156830e+001
4.7957520e+001
5.3116634e+001
5.7651588e+001
6.1922985e+001
6.6074661e+001
7.0875374e+001
7.6162262e+001
8.1408554e+001
8.6487144e+001
9.0989967e+001
9.4889694e+001
9.8091942e+001
1.0060178e+002
1.0244048e+002
1.0355820e+002
1.0394000e+002
1.0336526e+002
1.0168072e+002
9.9329247e+001
9.6752075e+001
9.3814178e+001
9.0503860e+001
8.6305931e+001
8.1111092e+001
7.5725983e+001
7.0446587e+001
6.5611153e+001
6.1244942e+001
5.6916599e+001
5.2555954e+001
4.8339886e+001
4.4277905e+001
4.0493317e+001
3.7005772e+001
3.3962952e+001
3.1372820e+001
2.9206280e+001
2.7439306e+001
2.5923882e+001
2.4674986e+001
2.3674109e+001
2.2932072e+001
2.2426500e+001
2.2139303e+001
2.2013115e+001
2.2019272e+001
2.2109268e+001
2.2273064e+001
2.2498840e+001
2.2775471e+001
2.3097092e+001
2.3518007e+001
2.4055799e+001
2.4776688e+001
2.5684368e+001
2.6728495e+001
2.7891081e+001
2.9097736e+001
3.0346861e+001
3.1809763e+001
3.3587387e+001
3.6317261e+001
4.0069572e+001
4.4154953e+001
4.8310646e+001
5.1449348e+001
5.3592823e+001
5.5333893e+001
5.6691200e+001
5.7830811e+001
5.8632278e+001
5.8914696e+001
5.8593430e+001
5.7664509e+001
5.6285847e+001
5.4717693e+001
5.3018326e+001
5.1239449e+001
4.9310242e+001
4.7174416e+001
4.4863762e+001
4.2356632e+001
3.9970657e+001
3.7825642e+001
3.5750839e+001
3.3747612e+001
3.1249561e+001
2.8106985e+001
2.4957748e+001
2.1851278e+001
1.9223568e+001
1.7125999e+001
1.5050428e+001
1.2999085e+001
1.0935856e+001
8.8792114e+000
6.8630223e+000
4.9536958e+000
3.2560661e+000
1.8529932e+000
8.3846331e-001
2.3203872e-001
5.0149333e-002
3.9854866e-001
1.2288768e+000
2.2607510e+000
3.3160043e+000
4.2124062e+000
4.8372788e+000
5.3424325e+000
5.7768149e+000
6.2226481e+000
6.7003999e+000
7.1107726e+000
7.3894887e+000
7.5165462e+000
7.4180188e+000
7.2574677e+000
7.0149293e+000
6.7563801e+000
6.4685960e+000
6.1054831e+000
5.6385331e+000
5.0395536e+000
4.3338594e+000
3.6672258e+000
3.0814581e+000
2.6630366e+000
2.4103281e+000
2.2890501e+000
2.2898443e+000
2.3750527e+000
2.5187342e+000
2.6904809e+000
2.8691657e+000
3.0628374e+000
3.2848337e+000
3.5616751e+000
3.8844402e+000
4.2596960e+000
4.6489320e+000
5.0434098e+000
5.4216642e+000
5.7603679e+000
6.0472808e+000
6.2217813e+000
6.2906933e+000
6.1844702e+000
5.9615650e+000
5.5805001e+000
5.1446619e+000
4.6541362e+000
4.1693769e+000
3.7155514e+000
3.3154700e+000
2.9750035e+000
2.6851022e+000
2.3956785e+000
2.0309806e+000
1.5966020e+000
1.0851181e+000
5.9543234e-001
2.4560606e-001
2.1538366e-002
-1.2474285e-002
4.5659430e-002
1.9565666e-001
3.8546789e-001
6.1973161e-001
8.6790717e-001
1.1388632e+000
1.4015613e+000
1.6394886e+000
1.8652780e+000
2.0488832e+000
2.2353170e+000
2.4271948e+000
2.6385942e+000
2.8914392e+000
3.1726887e+000
3.4995623e+000
3.8498056e+000
4.2234802e+000
4.5905914e+000
4.9338112e+000
5.2328024e+000
5.4739261e+000
5.6480389e+000
5.7629480e+000
5.8136401e+000
5.8269057e+000
5.8053994e+000
5.7718859e+000
5.7299609e+000
5.6888213e+000
5.6520658e+000
5.6235080e+000
5.6130996e+000
5.6116123e+000
5.6267910e+000
5.6402140e+000
5.6482644e+000
5.6543012e+000
5.6623797e+000
5.6866460e+000
5.7440004e+000
5.8268242e+000
5.9442000e+000
6.0739627e+000
6.2149963e+000
6.3569798e+000
6.4991035e+000
6.6385312e+000
6.7732038e+000
6.8984871e+000
7.0147061e+000
7.1203704e+000
7.2180748e+000
7.3029346e+000
7.3752179e+000
7.4186735e+000
7.4351621e+000
7.3899813e+000
7.3024769e+000
7.1155238e+000
6.8840036e+000
6.5406866e+000
6.1629920e+000
5.6955066e+000
5.2111964e+000
4.6884656e+000
4.1755581e+000
3.6851172e+000
3.2216730e+000
2.8068044e+000
2.4223318e+000
2.0841331e+000
1.7793586e+000
1.5169841e+000
1.2876765e+000
1.0947524e+000
9.3456680e-001
8.0502713e-001
7.0592272e-001
6.2703747e-001
5.6048477e-001
5.0098300e-001
4.4783294e-001
4.0818429e-001
4.1504717e-001
4.5953122e-001
6.1544859e-001
8.1626397e-001
1.1380491e+000
1.4698397e+000
1.8100032e+000
2.1125424e+000
2.2952220e+000
2.4233980e+000
2.4162281e+000
2.3700829e+000
2.2460742e+000
2.1007128e+000
1.9187851e+000
1.7154514e+000
1.4819424e+000
1.2289881e+000
9.5669639e-001
6.8833721e-001
4.3125752e-001
2.1947196e-001
5.5933818e-002
-8.3155632e-003
1.1368990e-003
1.2587179e-001
3.0386022e-001
5.3063118e-001
7.5730139e-001
9.1442215e-001
1.0384506e+000
1.0523241e+000
1.0514613e+000
1.0259957e+000
1.0155618e+000
1.0707743e+000
1.1457956e+000
1.2816491e+000
1.4110551e+000
1.5195411e+000
1.5848838e+000
1.5641508e+000
1.5146959e+000
1.4255571e+000
1.3635702e+000
1.3400400e+000
1.3573292e+000
1.4142834e+000
1.4750586e+000
1.5339600e+000
1.5588642e+000
1.5567732e+000
1.5046149e+000
1.4256572e+000
1.3142377e+000
1.1936594e+000
1.0848424e+000
9.8068982e-001
8.9369345e-001
8.0709201e-001
7.0755351e-001
6.0971916e-001
5.2701610e-001
4.5452484e-001
4.2663747e-001
4.0262303e-001
3.9086038e-001
3.7544608e-001
3.5088751e-001
3.2270348e-001
2.8694597e-001
2.4736410e-001
2.0218104e-001
1.5917400e-001
1.1848260e-001
7.3921427e-002
2.3614839e-002
-5.5102035e-002
-1.5577136e-001
-2.8472120e-001
-4.2796969e-001
-5.6489098e-001
-6.9544709e-001
-7.8113973e-001
-8.5060745e-001
-8.7427241e-001
-8.9061588e-001
-9.1292155e-001
-9.3775535e-001
-9.8705214e-001
-1.0338881e+000
-1.0623384e+000
-1.0829873e+000
-1.0688000e+000
-1.0494781e+000
-1.0155240e+000
-9.9126571e-001
-9.9058288e-001
-1.0110193e+000
-1.0671257e+000
-1.1213573e+000
-1.1705120e+000
-1.1833768e+000
-1.1566943e+000
-1.0882266e+000
-9.8591781e-001
-8.7234747e-001
-7.5334781e-001
-6.6768801e-001
-5.9904557e-001
-5.7208532e-001
-5.5928630e-001
-5.5559224e-001
-5.5232614e-001
-5.1009703e-001
-4.6044841e-001
-3.4318092e-001
-2.2114344e-001
-7.1846999e-002
1.6869605e-003
5.2824743e-002
1.6474268e-001
3.3339509e-001
4.9689627e-001
6.4459062e-001
7.5197673e-001
7.7292985e-001
7.6613408e-001
7.1509731e-001
6.5940577e-001
5.9786689e-001
5.1399153e-001
4.0895420e-001
2.8639758e-001
1.5167341e-001
4.4154942e-002
-4.8034132e-002
-1.1455519e-001
-1.6972879e-001
-1.9887184e-001
-2.1965845e-001
-1.2371072e-001
-8.3818436e-003
2.8119001e-001
