Image.
>Pix99999.
  .
5555
5555
2300
900
5555
2
1
0
701
5555
4.6557002e-002
4.7525615e-002
4.8494227e-002
4.9462844e-002
5.0431456e-002
5.1400069e-002
5.2368686e-002
5.3337298e-002
5.4305915e-002
5.5274528e-002
5.6243140e-002
5.7211757e-002
5.8180369e-002
5.9148986e-002
6.0117599e-002
6.1085235e-002
6.2053826e-002
6.3022442e-002
6.3991055e-002
6.4959668e-002
6.5928280e-002
6.6896901e-002
6.7865513e-002
6.8834126e-002
6.9802739e-002
7.0771351e-002
2.9307820e-002
1.0686986e-003
-2.6140800e-002
1.5863538e-002
6.8103299e-002
1.4987539e-001
2.3038000e-001
2.3495568e-001
2.2957687e-001
1.7379151e-001
1.1651686e-001
6.4192601e-002
7.9669766e-003
-6.0892291e-002
-1.3308965e-001
-2.1102858e-001
-2.7541339e-001
-3.1712952e-001
-3.4282303e-001
-3.5030308e-001
-3.5612887e-001
-3.6149144e-001
-3.7011176e-001
-3.8121039e-001
-3.7926999e-001
-3.6970514e-001
-3.6178645e-001
-3.5479546e-001
-3.8341385e-001
-4.2359170e-001
-4.3622160e-001
-4.4235852e-001
-3.5784754e-001
-2.6003626e-001
-1.7762800e-001
-1.0529935e-001
-1.3114211e-001
-1.6910389e-001
-2.2316651e-001
-2.6794749e-001
-2.7315122e-001
-2.7456310e-001
-2.7637029e-001
-2.8156194e-001
-2.9310799e-001
-2.9397056e-001
-2.7840045e-001
-2.5728154e-001
-2.3184118e-001
-2.1879642e-001
-2.1709646e-001
-2.2862780e-001
-2.4851562e-001
-2.7389571e-001
-3.0179828e-001
-3.2776383e-001
-3.5286441e-001
-3.6804304e-001
-3.8010040e-001
-3.7574777e-001
-3.6759955e-001
-3.5254106e-001
-3.3674502e-001
-3.2744548e-001
-3.1930402e-001
-3.1297910e-001
-3.1028783e-001
-3.2266894e-001
-3.3917132e-001
-3.6143821e-001
-3.7584028e-001
-3.7093669e-001
-3.6934400e-001
-3.7807754e-001
-4.0764430e-001
-4.6244061e-001
-5.2280498e-001
-5.8514267e-001
-6.2304616e-001
-6.4065552e-001
-6.1994308e-001
-5.7583946e-001
-5.4437339e-001
-5.2109712e-001
-5.5677068e-001
-6.1651623e-001
-6.8683803e-001
-7.5972503e-001
-7.8161919e-001
-7.9060835e-001
-7.8742647e-001
-7.8617853e-001
-8.3060807e-001
-8.8563693e-001
-9.4947231e-001
-1.0034685e+000
-1.0152074e+000
-1.0085462e+000
-9.7496617e-001
-9.4916892e-001
-9.4837284e-001
-9.6449733e-001
-9.9944353e-001
-1.0208565e+000
-1.0223086e+000
-1.0192989e+000
-1.0154543e+000
-1.0381900e+000
-1.0816220e+000
-1.1331365e+000
-1.1872921e+000
-1.2163181e+000
-1.2318794e+000
-1.2273872e+000
-1.2155200e+000
-1.2074100e+000
-1.2013766e+000
-1.1978924e+000
-1.1950760e+000
-1.1886328e+000
-1.1817975e+000
-1.1777929e+000
-1.1769423e+000
-1.1849289e+000
-1.2010858e+000
-1.2340754e+000
-1.2776418e+000
-1.3374333e+000
-1.3906341e+000
-1.4276264e+000
-1.4384193e+000
-1.4179903e+000
-1.3908168e+000
-1.3632145e+000
-1.3531200e+000
-1.3587760e+000
-1.3669486e+000
-1.3742467e+000
-1.3681663e+000
-1.3537244e+000
-1.3397777e+000
-1.3273866e+000
-1.3256400e+000
-1.3287308e+000
-1.3489829e+000
-1.3757554e+000
-1.4106103e+000
-1.4453218e+000
-1.4465615e+000
-1.4316000e+000
-1.3883246e+000
-1.3406073e+000
-1.3154025e+000
-1.3032826e+000
-1.3090200e+000
-1.3150882e+000
-1.3087261e+000
-1.3001176e+000
-1.2912920e+000
-1.2854421e+000
-1.2821440e+000
-1.2731920e+000
-1.2587898e+000
-1.2508770e+000
-1.2524142e+000
-1.2476101e+000
-1.2361834e+000
-1.2019179e+000
-1.1530452e+000
-1.1196101e+000
-1.0962881e+000
-1.0778843e+000
-1.0618409e+000
-1.0154163e+000
-9.5845431e-001
-9.1913646e-001
-8.9574641e-001
-9.3677509e-001
-1.0092438e+000
-1.1149257e+000
-1.2234178e+000
-1.3037817e+000
-1.3573531e+000
-1.3704985e+000
-1.3624300e+000
-1.3370950e+000
-1.3006903e+000
-1.2538664e+000
-1.2130891e+000
-1.1888050e+000
-1.1999400e+000
-1.2477270e+000
-1.2998843e+000
-1.3456030e+000
-1.3700972e+000
-1.3772581e+000
-1.3654623e+000
-1.3413059e+000
-1.2702401e+000
-1.1706357e+000
-1.0599349e+000
-9.4602263e-001
-9.1017908e-001
-9.1592467e-001
-9.5015144e-001
-9.9295580e-001
-9.9921286e-001
-9.8117965e-001
-9.3842417e-001
-8.9259362e-001
-8.7679285e-001
-8.8608307e-001
-9.2172241e-001
-9.5648879e-001
-9.6697140e-001
-9.5551646e-001
-9.2289376e-001
-8.9212853e-001
-8.7359142e-001
-8.5026950e-001
-8.1854534e-001
-7.7067888e-001
-7.0807481e-001
-6.4938933e-001
-5.9583569e-001
-5.4437447e-001
-4.9639601e-001
-4.5914102e-001
-4.3160233e-001
-4.0135071e-001
-3.6937952e-001
-3.1531075e-001
-2.4903832e-001
-1.7379780e-001
-9.0486795e-002
7.7602006e-003
1.0895424e-001
1.8378524e-001
2.2367400e-001
2.0309743e-001
1.5448660e-001
1.1185075e-001
3.7069760e-002
-9.1261178e-002
-1.9412556e-001
-2.3111326e-001
-1.7512715e-001
-3.0744273e-002
1.1663269e-001
2.3603606e-001
2.1711233e-001
6.8383373e-002
-1.2004142e-001
-3.1765297e-001
-3.8395399e-001
-3.4483236e-001
-2.4840608e-001
-1.2469965e-001
-1.0376900e-001
-1.5296113e-001
-1.7946203e-001
-1.6192470e-001
2.7992234e-002
3.8156840e-001
9.3886673e-001
1.5893136e+000
2.1569355e+000
2.6719077e+000
3.1786201e+000
3.8476608e+000
4.8424363e+000
6.3886442e+000
8.5892706e+000
1.1604053e+001
1.5381715e+001
1.9241390e+001
2.2866407e+001
2.6136457e+001
2.9098743e+001
3.2606373e+001
3.6741211e+001
4.1755421e+001
4.7468239e+001
5.2503731e+001
5.6888573e+001
6.1009514e+001
6.5014954e+001
6.9748505e+001
7.5033363e+001
8.0327850e+001
8.5496712e+001
9.0104889e+001
9.4180023e+001
9.7745102e+001
1.0078165e+002
1.0327031e+002
1.0498820e+002
1.0571848e+002
1.0517006e+002
1.0317429e+002
1.0032233e+002
9.7178024e+001
9.3697533e+001
8.9912712e+001
8.5320160e+001
7.9807533e+001
7.4205757e+001
6.8807259e+001
6.4009804e+001
5.9825272e+001
5.5785480e+001
5.1798492e+001
4.7915375e+001
4.4135208e+001
4.0526516e+001
3.7113110e+001
3.4070244e+001
3.1417181e+001
2.9176559e+001
2.7334328e+001
2.5774757e+001
2.4510447e+001
2.3514664e+001
2.2780567e+001
2.2255001e+001
2.1916895e+001
2.1710388e+001
2.1632086e+001
2.1660059e+001
2.1799049e+001
2.2044024e+001
2.2375731e+001
2.2777597e+001
2.3281979e+001
2.3895287e+001
2.4647360e+001
2.5537296e+001
2.6523241e+001
2.7591961e+001
2.8739206e+001
2.9970657e+001
3.1469578e+001
3.3335651e+001
3.6119301e+001
3.9865959e+001
4.3835781e+001
4.7784996e+001
5.0743008e+001
5.2760910e+001
5.4467823e+001
5.5935162e+001
5.7402531e+001
5.8686520e+001
5.9486992e+001
5.9574886e+001
5.8770851e+001
5.7369583e+001
5.5766312e+001
5.4039619e+001
5.2257900e+001
5.0292461e+001
4.8055523e+001
4.5547840e+001
4.2740349e+001
4.0080231e+001
3.7730534e+001
3.5601559e+001
3.3719940e+001
3.1442131e+001
2.8622494e+001
2.5700863e+001
2.2705564e+001
2.0116880e+001
1.7977940e+001
1.5850572e+001
1.3726633e+001
1.1556468e+001
9.3585300e+000
7.1979661e+000
5.1539030e+000
3.3560681e+000
1.8942993e+000
8.4901762e-001
2.3295037e-001
5.2895099e-002
3.9008808e-001
1.1773262e+000
2.1324720e+000
3.0842140e+000
3.9055107e+000
4.5103283e+000
5.0437860e+000
5.5592413e+000
6.0817180e+000
6.6166801e+000
7.0298681e+000
7.2390194e+000
7.2942624e+000
7.1283693e+000
6.9049964e+000
6.6074367e+000
6.3129210e+000
6.0231109e+000
5.7246666e+000
5.3950658e+000
4.9600301e+000
4.4154835e+000
3.8271472e+000
3.2366741e+000
2.7575791e+000
2.4156868e+000
2.2296870e+000
2.1962085e+000
2.2927911e+000
2.4727201e+000
2.6885910e+000
2.9061942e+000
3.1099248e+000
3.3217428e+000
3.5624907e+000
3.8547254e+000
4.2269897e+000
4.6455722e+000
5.1245394e+000
5.5858717e+000
5.9998188e+000
6.3484573e+000
6.5708418e+000
6.6895056e+000
6.6339803e+000
6.4409018e+000
6.0602551e+000
5.6122012e+000
5.0949240e+000
4.5880370e+000
4.1057820e+000
3.6560321e+000
3.2417998e+000
2.8560908e+000
2.4709406e+000
2.0432372e+000
1.5821302e+000
1.0930312e+000
6.4144540e-001
3.1300515e-001
9.0668544e-002
1.9737016e-002
2.8520603e-002
1.2344101e-001
2.5697142e-001
4.4308642e-001
6.5807390e-001
9.2577028e-001
1.2127762e+000
1.5299058e+000
1.8252194e+000
2.0667582e+000
2.2764270e+000
2.4394388e+000
2.6169884e+000
2.8282423e+000
3.0821028e+000
3.3932047e+000
3.7255056e+000
4.0747399e+000
4.4067097e+000
4.7067509e+000
4.9565167e+000
5.1477118e+000
5.2721009e+000
5.3446584e+000
5.3726449e+000
5.3784838e+000
5.3718009e+000
5.3589568e+000
5.3369193e+000
5.3101716e+000
5.2748122e+000
5.2383838e+000
5.2014875e+000
5.1682053e+000
5.1437721e+000
5.1351395e+000
5.1625590e+000
5.2103143e+000
5.2954350e+000
5.3707438e+000
5.4259515e+000
5.4473166e+000
5.4259114e+000
5.4172254e+000
5.4371977e+000
5.5242920e+000
5.6827168e+000
5.8777685e+000
6.0959468e+000
6.2970924e+000
6.4758630e+000
6.6136441e+000
6.7142000e+000
6.7547736e+000
6.7589369e+000
6.7155681e+000
6.6489091e+000
6.5492568e+000
6.4280052e+000
6.2568402e+000
6.0597887e+000
5.7944498e+000
5.4923024e+000
5.0887184e+000
4.6491995e+000
4.1268177e+000
3.6070659e+000
3.0959113e+000
2.6095080e+000
2.1667364e+000
1.7475753e+000
1.3696828e+000
1.0441984e+000
7.8800082e-001
5.9313202e-001
4.5863578e-001
3.5181069e-001
2.6898357e-001
2.0371197e-001
1.5739679e-001
1.4897880e-001
1.6268027e-001
1.9888557e-001
2.3547570e-001
2.4350600e-001
2.5575483e-001
3.1206504e-001
4.1020802e-001
6.5388083e-001
9.1141599e-001
1.1876101e+000
1.4330091e+000
1.5832628e+000
1.7148352e+000
1.7997870e+000
1.8708103e+000
1.9095076e+000
1.9089229e+000
1.8358039e+000
1.6923308e+000
1.4498849e+000
1.1494082e+000
7.9617214e-001
4.8065317e-001
2.1762097e-001
7.1518198e-002
1.7894492e-002
4.8760854e-002
1.2911050e-001
2.5078711e-001
3.9354575e-001
5.6439984e-001
7.4049008e-001
9.0430009e-001
1.0502605e+000
1.1135280e+000
1.1512980e+000
1.0936657e+000
1.0343271e+000
9.7691429e-001
9.4532973e-001
9.9693918e-001
1.0721600e+000
1.2028109e+000
1.3202107e+000
1.4070997e+000
1.4508978e+000
1.4258572e+000
1.3740917e+000
1.2915241e+000
1.2198917e+000
1.1613772e+000
1.1228379e+000
1.0991818e+000
1.0727800e+000
1.0424542e+000
9.9540597e-001
9.3659127e-001
8.4704989e-001
7.4227095e-001
6.0083330e-001
4.5392203e-001
3.2692635e-001
2.1337280e-001
1.8031661e-001
1.5993381e-001
1.9515997e-001
2.2422485e-001
2.2586820e-001
2.1996841e-001
1.9189070e-001
1.7995195e-001
2.0746142e-001
2.4754366e-001
3.0936548e-001
3.6060771e-001
3.9290157e-001
3.8876697e-001
3.3804178e-001
2.2924666e-001
6.5898992e-002
-1.3475157e-001
-3.5938257e-001
-5.6965643e-001
-7.6601851e-001
-8.9393544e-001
-9.9125344e-001
-1.0409800e+000
-1.0814406e+000
-1.1595014e+000
-1.2463887e+000
-1.3617320e+000
-1.4727771e+000
-1.5051060e+000
-1.5268778e+000
-1.4821434e+000
-1.4450232e+000
-1.4414928e+000
-1.4424571e+000
-1.4567537e+000
-1.4584005e+000
-1.4317966e+000
-1.4076951e+000
-1.3872480e+000
-1.3639107e+000
-1.3352859e+000
-1.2872171e+000
-1.2210515e+000
-1.1849147e+000
-1.1754714e+000
-1.2171162e+000
-1.2877526e+000
-1.3308351e+000
-1.3565903e+000
-1.2849491e+000
-1.1770508e+000
-9.6084177e-001
-7.2200143e-001
-4.9117607e-001
-2.6685759e-001
-1.7417556e-001
-8.8563293e-002
-2.9188929e-002
3.0948315e-004
9.5615610e-003
2.5204379e-002
2.2408770e-002
3.7165716e-002
1.0438586e-001
2.0819820e-001
3.8896269e-001
5.3198779e-001
6.1315256e-001
6.1264837e-001
5.1401204e-001
4.5835656e-001
4.4336200e-001
4.8730084e-001
5.7162946e-001
5.7810903e-001
5.4440850e-001
5.5639893e-001
5.8797723e-001
8.1576079e-001
1.0955875e+000
1.3955684e+000
1.6987224e+000
1.7842000e+000
