##TITLE=Methyl Ethyl Ketone
##JCAMP-DX=4.24
##DATA TYPE=INFRARED SPECTRUM
##XUNITS=cm-1
##YUNITS=Absorbance
##FIRSTX=900
##LASTX=2300
##XYDATA=(X++(Y..Y))
2296 -0.011029
2294 -0.011258671
2292 -0.011487345
2290 -0.011717015
2288 -0.011946686
2286 -0.012176357
2284 -0.012405037
2282 -0.012634699
2280 -0.012864372
2278 -0.013094043
2276 -0.013322729
2274 -0.013552385
2272 -0.013782057
2270 -0.014011729
2268 -0.0142414
2266 -0.014470093
2264 -0.014699743
2262 -0.014929414
2260 -0.015159086
2258 -0.015387785
2256 -0.015617428
2254 -0.0158471
2252 -0.016076772
2250 -0.016306443
2248 -0.016535148
2246 -0.016764786
2244 -0.00062299718
2242 0.041505832
2240 0.072678521
2238 0.070111096
2236 0.062684201
2234 0.039986685
2232 0.017323976
2230 0.019901235
2228 0.026226228
2226 0.053034548
2224 0.085376143
2222 0.13841376
2220 0.19626383
2218 0.26551056
2216 0.32023942
2214 0.34183791
2212 0.34126037
2210 0.30769932
2208 0.27788302
2206 0.25525713
2204 0.24686024
2202 0.25168729
2200 0.25235876
2198 0.2492552
2196 0.2375057
2194 0.22096056
2192 0.21399057
2190 0.21137641
2188 0.23486206
2186 0.26673114
2184 0.30920801
2182 0.35397896
2180 0.36947113
2178 0.38042057
2176 0.37980315
2174 0.37875628
2172 0.38478568
2170 0.38457921
2168 0.34494078
2166 0.293589
2164 0.21360195
2162 0.14672109
2160 0.12067937
2158 0.12743808
2156 0.188467
2154 0.25643158
2152 0.32634738
2150 0.37658221
2148 0.40444794
2146 0.43137321
2144 0.45955199
2142 0.48397219
2140 0.50573206
2138 0.50409347
2136 0.48984256
2134 0.47442546
2132 0.45892921
2130 0.43963128
2128 0.41909039
2126 0.37647685
2124 0.32880083
2122 0.27147806
2120 0.21269332
2118 0.15393108
2116 0.09847001
2114 0.067276336
2112 0.047767721
2110 0.064144187
2108 0.0822023
2106 0.089517996
2104 0.075834654
2102 0.019442592
2100 -0.044759102
2098 -0.11140071
2096 -0.15063286
2094 -0.15339081
2092 -0.13395235
2090 -0.097030908
2088 -0.063977987
2086 -0.036458451
2084 -0.010761952
2082 0.014133887
2080 0.031188801
2078 0.04432283
2076 0.024468999
2074 -0.0088372771
2072 -0.061570119
2070 -0.12003651
2068 -0.17985554
2066 -0.23979121
2064 -0.31103674
2062 -0.38152167
2060 -0.42517182
2058 -0.4540849
2056 -0.43114656
2054 -0.39995748
2052 -0.37479633
2050 -0.37148374
2048 -0.42001286
2046 -0.48725465
2044 -0.57041699
2042 -0.63256127
2040 -0.65939629
2038 -0.65761656
2036 -0.6308521
2034 -0.60890287
2032 -0.5958342
2030 -0.60409284
2028 -0.62706155
2026 -0.6476028
2024 -0.66445088
2022 -0.64657795
2020 -0.61057407
2018 -0.56543505
2016 -0.51802599
2014 -0.51498437
2012 -0.52789956
2010 -0.58008838
2008 -0.64261526
2006 -0.70058012
2004 -0.75579941
2002 -0.79702508
2000 -0.83569431
1998 -0.87462288
1996 -0.90973645
1994 -0.9305476
1992 -0.93486279
1990 -0.91389239
1988 -0.88862818
1986 -0.87178731
1984 -0.87566864
1982 -0.90547282
1980 -0.9430235
1978 -0.98051167
1976 -0.99825716
1974 -0.99644929
1972 -0.98471427
1970 -0.96747458
1968 -0.97530359
1966 -0.99986732
1964 -1.0452057
1962 -1.1013868
1960 -1.1278161
1958 -1.1411304
1956 -1.1262314
1954 -1.1027408
1952 -1.099112
1950 -1.1057476
1948 -1.1318208
1946 -1.163725
1944 -1.197376
1942 -1.2264717
1940 -1.2528632
1938 -1.2766186
1936 -1.2993629
1934 -1.3241065
1932 -1.348016
1930 -1.3721211
1928 -1.3915473
1926 -1.4039249
1924 -1.4055251
1922 -1.3979913
1920 -1.386696
1918 -1.380945
1916 -1.3864843
1914 -1.3972622
1912 -1.4096892
1910 -1.4179078
1908 -1.4215071
1906 -1.4221278
1904 -1.422532
1902 -1.3981967
1900 -1.364002
1898 -1.2909592
1896 -1.2043715
1894 -1.1286882
1892 -1.0652008
1890 -1.063136
1888 -1.0921452
1886 -1.1624558
1884 -1.2434515
1882 -1.3120559
1880 -1.3668051
1878 -1.3954376
1876 -1.41485
1874 -1.4248215
1872 -1.4302251
1870 -1.4281127
1868 -1.4087957
1866 -1.3818078
1864 -1.3529719
1862 -1.334378
1860 -1.3279655
1858 -1.3261068
1856 -1.3300886
1854 -1.3332633
1852 -1.3553783
1850 -1.3860472
1848 -1.43378
1846 -1.4856964
1844 -1.4917783
1842 -1.46808
1840 -1.3848286
1838 -1.27835
1836 -1.1825643
1834 -1.100508
1832 -1.0357217
1830 -0.97441006
1828 -0.90675026
1826 -0.83378738
1824 -0.77543163
1822 -0.74058497
1820 -0.74138939
1818 -0.77097934
1816 -0.81499916
1814 -0.86882406
1812 -0.92402112
1810 -0.96388382
1808 -0.98728824
1806 -0.98132348
1804 -0.95087528
1802 -0.93499136
1800 -0.93384367
1798 -0.95665711
1796 -0.99462146
1794 -0.97166133
1792 -0.90950477
1790 -0.7684291
1788 -0.58783245
1786 -0.42179513
1784 -0.27259433
1782 -0.16205192
1780 -0.079018086
1778 -0.015982799
1776 0.033299208
1774 0.071364604
1772 0.10583248
1770 0.12062944
1768 0.1238472
1766 0.10786536
1764 0.08124616
1762 0.066119738
1760 0.024065252
1758 -0.061203234
1756 -0.14522648
1754 -0.20292073
1752 -0.23367538
1750 -0.23616269
1748 -0.24027497
1746 -0.26006535
1744 -0.30972955
1742 -0.39535654
1740 -0.47529197
1738 -0.54032642
1736 -0.52180797
1734 -0.43308213
1732 -0.29839134
1730 -0.14337337
1728 -0.079922847
1726 -0.088073023
1724 -0.10258111
1722 -0.104493
1720 -0.00062863529
1718 0.21522364
1716 0.65013409
1714 1.2368767
1712 1.8334833
1710 2.3964436
1708 2.8953519
1706 3.4697864
1704 4.2694535
1702 5.5734158
1700 7.5263739
1698 10.410463
1696 14.207428
1694 18.165499
1692 21.924145
1690 25.278143
1688 28.267361
1686 31.77165
1684 35.888077
1682 40.917999
1680 46.673317
1678 51.795319
1676 56.299873
1674 60.660236
1672 65.005074
1670 70.115974
1668 75.792458
1666 81.36235
1664 86.721489
1662 91.524773
1660 95.773521
1658 99.445663
1656 102.45828
1654 104.71082
1652 106.0468
1650 106.3192
1648 105.4004
1646 103.23607
1644 100.39576
1642 97.425911
1640 94.278076
1638 90.969673
1636 86.969673
1634 82.131004
1632 77.046906
1630 71.948853
1628 67.179825
1626 62.784519
1624 58.350838
1622 53.822243
1620 49.418941
1618 45.160889
1616 41.261715
1614 37.738388
1612 34.700897
1610 32.141552
1608 29.966446
1606 28.149372
1604 26.540668
1602 25.158882
1600 24.000612
1598 23.082817
1596 22.397499
1594 21.946512
1592 21.695412
1590 21.616058
1588 21.65398
1586 21.774914
1584 21.948811
1582 22.160229
1580 22.403028
1578 22.725986
1576 23.145058
1574 23.73634
1572 24.505285
1570 25.447128
1568 26.5536
1566 27.714113
1564 28.920866
1562 30.29892
1560 31.946732
1558 34.547733
1556 38.182598
1554 42.201611
1552 46.345177
1550 49.515114
1548 51.73674
1546 53.597858
1544 55.118275
1542 56.450481
1540 57.445557
1538 57.863636
1536 57.675884
1534 56.952335
1532 55.862938
1530 54.680779
1528 53.39077
1526 51.984798
1524 50.322079
1522 48.299271
1520 45.940735
1518 43.205338
1516 40.605213
1514 38.326462
1512 36.224522
1510 34.326923
1508 31.950954
1506 28.934143
1504 25.842457
1502 22.710457
1500 20.062529
1498 17.9527
1496 15.880428
1494 13.846639
1492 11.789366
1490 9.7198496
1488 7.6591954
1486 5.6699762
1484 3.8627579
1482 2.3235815
1480 1.1650554
1478 0.40624219
1476 0.072440431
1474 0.27180576
1472 0.93280315
1470 1.78291
1468 2.656482
1466 3.4006715
1464 3.930584
1462 4.3606582
1460 4.7288961
1458 5.0888958
1456 5.4449601
1454 5.7818899
1452 6.0670505
1450 6.2805972
1448 6.3791962
1446 6.4156499
1444 6.365222
1442 6.2643509
1440 6.091567
1438 5.8296227
1436 5.4497414
1434 4.932559
1432 4.2904243
1430 3.6405625
1428 3.0147979
1426 2.5087643
1424 2.1293628
1422 1.8692714
1420 1.7376992
1418 1.7199923
1416 1.8052257
1414 1.98287
1412 2.1931655
1410 2.4223747
1408 2.6600366
1406 2.91189
1404 3.2039433
1402 3.5532131
1400 3.944824
1398 4.3916922
1396 4.8484073
1394 5.3047891
1392 5.7131186
1390 6.0108948
1388 6.1944337
1386 6.1872101
1384 6.0497165
1382 5.729187
1380 5.3177524
1378 4.8009624
1376 4.2458544
1374 3.6840525
1372 3.184752
1370 2.7674615
1368 2.4472046
1366 2.1618378
1364 1.8112
1362 1.4007539
1360 0.92241681
1358 0.47405091
1356 0.17468627
1354 -0.006581299
1352 -0.021248091
1350 0.039848231
1348 0.16520011
1346 0.30774465
1344 0.47585961
1342 0.64064747
1340 0.79637516
1338 0.95838767
1336 1.1294428
1334 1.3271219
1332 1.5456963
1330 1.764559
1328 1.9794126
1326 2.1885278
1324 2.4060271
1322 2.6431136
1320 2.9176531
1318 3.216193
1316 3.5394101
1314 3.856215
1312 4.1500583
1310 4.4056668
1308 4.6108866
1306 4.7636261
1304 4.8711796
1302 4.9333401
1300 4.9647593
1298 4.9564738
1296 4.9273572
1294 4.8688059
1292 4.8113461
1290 4.7715559
1288 4.750916
1286 4.7722034
1284 4.7991357
1282 4.8295059
1280 4.8522811
1278 4.8568277
1276 4.8592329
1274 4.8635759
1272 4.8810921
1270 4.9285841
1268 5.0072479
1266 5.1302299
1264 5.2768598
1262 5.4439025
1260 5.5998559
1258 5.7398438
1256 5.8586574
1254 5.9615989
1252 6.0666051
1250 6.1744995
1248 6.2894464
1246 6.4020748
1244 6.4907346
1242 6.5549822
1240 6.5648484
1238 6.5410838
1236 6.4571829
1234 6.3427672
1232 6.1668758
1230 5.9565287
1228 5.6547041
1226 5.3131886
1224 4.8644485
1222 4.3910899
1220 3.8603578
1218 3.3308909
1216 2.8070941
1214 2.3071918
1212 1.853204
1210 1.4413403
1208 1.093559
1206 0.79124081
1204 0.54352599
1202 0.32554924
1200 0.13690701
1198 -0.038497671
1196 -0.19866785
1194 -0.33557662
1192 -0.44942132
1190 -0.52171421
1188 -0.56830072
1186 -0.58441395
1184 -0.58001232
1182 -0.53257632
1180 -0.44972622
1178 -0.26096636
1176 -0.030877218
1174 0.30893227
1172 0.65600419
1170 1.0031619
1168 1.3149731
1166 1.5140986
1164 1.6669209
1162 1.705341
1160 1.7174588
1158 1.6759136
1156 1.6129714
1154 1.5122988
1152 1.3820897
1150 1.2106472
1148 1.0142392
1146 0.79161143
1144 0.56671649
1142 0.3477695
1140 0.17366618
1138 0.042829879
1136 -0.014396258
1134 -0.01650368
1132 0.083349563
1130 0.23831749
1128 0.47883189
1126 0.73621213
1124 0.9606657
1122 1.1573179
1120 1.237684
1118 1.2971611
1116 1.3023785
1114 1.3202072
1112 1.3962388
1110 1.5002568
1108 1.6911563
1106 1.87972
1104 2.056747
1102 2.1868181
1100 2.2214959
1098 2.2077615
1096 2.118957
1094 2.0149183
1092 1.8975559
1090 1.8190632
1088 1.7862663
1086 1.8144243
1084 1.8906769
1082 1.9794472
1080 2.0678473
1078 2.098563
1076 2.0906441
1074 1.9902444
1072 1.8543526
1070 1.6820042
1068 1.5094451
1066 1.396265
1064 1.300352
1062 1.2754152
1060 1.2518071
1058 1.2135855
1056 1.1619858
1054 1.0524594
1052 0.94069022
1050 0.82374221
1048 0.72101682
1046 0.65328932
1044 0.60005867
1042 0.57251006
1040 0.54246879
1038 0.50637066
1036 0.449011
1034 0.36670712
1032 0.27105182
1030 0.16255072
1028 0.037683569
1026 -0.098672733
1024 -0.24065731
1022 -0.38018352
1020 -0.46105003
1018 -0.51525277
1016 -0.52199316
1014 -0.51744086
1012 -0.52906239
1010 -0.54452449
1008 -0.57373559
1006 -0.60703099
1004 -0.67592889
1002 -0.75145435
1000 -0.87024307
998 -0.98466516
996 -1.0793715
994 -1.161373
992 -1.2041337
990 -1.2294667
988 -1.2139044
986 -1.171195
984 -1.0809454
982 -0.98938066
980 -0.89755559
978 -0.83852106
976 -0.8144654
974 -0.80750215
972 -0.81394136
970 -0.8161909
968 -0.81555432
966 -0.81684196
964 -0.81871635
962 -0.81737524
960 -0.8127597
958 -0.75324261
956 -0.67881942
954 -0.52695596
952 -0.3669332
950 -0.23307058
948 -0.10426328
946 -0.033129003
944 0.0010514054
942 0.032980919
940 0.10477138
938 0.22056639
936 0.32863629
934 0.41409424
932 0.48479134
930 0.5241251
928 0.56596142
926 0.61217773
924 0.6715858
922 0.74662012
920 0.78692561
918 0.79343504
916 0.7121489
914 0.56791848
912 0.35770607
910 0.11413509
908 -0.074889719
906 -0.24028715
904 -0.2438305
902 -0.20333558
900 -0.071786523
898 0.074720673
896 0.15347999
