Image.
>Pix99999.
  .
5555
5555
2300
900
5555
2
1
0
701
5555
-3.1961001e-002
-3.2625049e-002
-3.3290096e-002
-3.3955146e-002
-3.4620192e-002
-3.5285242e-002
-3.5950292e-002
-3.6615338e-002
-3.7279401e-002
-3.7944436e-002
-3.8609486e-002
-3.9276503e-002
-3.9939616e-002
-4.0598743e-002
-4.1268580e-002
-4.1956238e-002
-4.2599306e-002
-4.3180890e-002
-4.3926690e-002
-4.4902321e-002
-4.5268029e-002
-4.4775538e-002
-4.6550889e-002
-5.1525954e-002
-4.8069641e-002
-2.6746001e-002
-9.6426572e-004
1.4273369e-002
2.3364080e-002
3.3815634e-002
4.3398455e-002
4.7787596e-002
4.5614913e-002
3.9313193e-002
4.3102898e-002
6.9344856e-002
1.0908946e-001
1.4945352e-001
1.8704483e-001
2.2189392e-001
2.5625485e-001
2.9142419e-001
3.2218820e-001
3.4528801e-001
3.7339795e-001
4.2104000e-001
4.9060836e-001
5.7699829e-001
6.6007680e-001
7.1855611e-001
7.4516857e-001
7.4237627e-001
7.3422551e-001
7.4666017e-001
7.8613931e-001
8.4771329e-001
9.0576482e-001
9.3590713e-001
9.4521368e-001
9.5139927e-001
9.7340488e-001
1.0233268e+000
1.0841351e+000
1.1320970e+000
1.1543806e+000
1.1471286e+000
1.1267271e+000
1.1148434e+000
1.1260788e+000
1.1690459e+000
1.2375001e+000
1.3198104e+000
1.4021348e+000
1.4717772e+000
1.5216469e+000
1.5474143e+000
1.5464234e+000
1.5187660e+000
1.4722154e+000
1.4185394e+000
1.3753772e+000
1.3563631e+000
1.3522929e+000
1.3456537e+000
1.3203360e+000
1.2685030e+000
1.2126801e+000
1.1818931e+000
1.1863686e+000
1.2249455e+000
1.2803329e+000
1.3323309e+000
1.3713108e+000
1.3927624e+000
1.3955597e+000
1.3806478e+000
1.3525006e+000
1.3174747e+000
1.2852380e+000
1.2656891e+000
1.2668858e+000
1.2933426e+000
1.3386203e+000
1.3922513e+000
1.4455109e+000
1.4930100e+000
1.5389494e+000
1.5897820e+000
1.6442143e+000
1.6963495e+000
1.7344900e+000
1.7475886e+000
1.7374920e+000
1.7121555e+000
1.6821671e+000
1.6559728e+000
1.6292742e+000
1.5940676e+000
1.5512340e+000
1.5057861e+000
1.4662657e+000
1.4391869e+000
1.4182206e+000
1.3918673e+000
1.3520285e+000
1.2961999e+000
1.2403539e+000
1.2073163e+000
1.2161732e+000
1.2763184e+000
1.3652543e+000
1.4478724e+000
1.4960874e+000
1.4932700e+000
1.4572443e+000
1.4193550e+000
1.4051096e+000
1.4278502e+000
1.4659142e+000
1.4839782e+000
1.4555401e+000
1.3691407e+000
1.2559546e+000
1.1623363e+000
1.1166794e+000
1.1307485e+000
1.1856060e+000
1.2506610e+000
1.3034555e+000
1.3311385e+000
1.3424786e+000
1.3560643e+000
1.3919451e+000
1.4653115e+000
1.5717520e+000
1.6946442e+000
1.8054988e+000
1.8751447e+000
1.8942846e+000
1.8694911e+000
1.8325400e+000
1.8212050e+000
1.8493751e+000
1.9124905e+000
1.9796138e+000
2.0152006e+000
2.0152209e+000
1.9934267e+000
1.9671360e+000
1.9486629e+000
1.9249629e+000
1.8765067e+000
1.8119103e+000
1.7556998e+000
1.7345846e+000
1.7686501e+000
1.8494691e+000
1.9548352e+000
2.0674131e+000
2.1728125e+000
2.2542944e+000
2.2923064e+000
2.2609379e+000
2.1399162e+000
1.9470000e+000
1.7275150e+000
1.5562277e+000
1.5059263e+000
1.5778103e+000
1.7265340e+000
1.8786914e+000
1.9617469e+000
1.9593942e+000
1.8890250e+000
1.7764945e+000
1.6501850e+000
1.5409160e+000
1.4787427e+000
1.4843174e+000
1.5669216e+000
1.7100856e+000
1.8794371e+000
2.0240912e+000
2.0919650e+000
2.0602105e+000
1.9336536e+000
1.7623066e+000
1.6109999e+000
1.5034611e+000
1.4325024e+000
1.3700299e+000
1.2869711e+000
1.1933503e+000
1.1201047e+000
1.0847008e+000
1.0890628e+000
1.1105560e+000
1.1182450e+000
1.1051794e+000
1.0770053e+000
1.0254142e+000
9.3162125e-001
7.7627474e-001
5.5126476e-001
2.9554400e-001
7.6998569e-002
-3.6651649e-002
2.3707133e-003
1.6689670e-001
3.8351199e-001
5.8003414e-001
7.0259082e-001
7.5331688e-001
7.6910758e-001
7.8622973e-001
8.2870996e-001
8.8469428e-001
9.2147553e-001
9.1420996e-001
8.5019118e-001
7.3697567e-001
5.9599638e-001
4.5562607e-001
3.4805560e-001
3.0845296e-001
3.5983250e-001
4.6292615e-001
5.3898942e-001
5.1926357e-001
3.7050042e-001
1.6761093e-001
4.2449445e-002
5.9995919e-002
2.1670231e-001
4.4404578e-001
6.4827609e-001
7.9305786e-001
8.8552350e-001
9.2886889e-001
9.2110300e-001
8.7467402e-001
8.1122059e-001
7.4331719e-001
6.7176491e-001
5.7919729e-001
4.4539908e-001
2.9167941e-001
1.6005404e-001
4.4120457e-002
-9.2234001e-002
-2.4236670e-001
-3.6898291e-001
-4.6050394e-001
-5.3247309e-001
-6.1628652e-001
-7.4626070e-001
-9.3120474e-001
-1.1487874e+000
-1.3249115e+000
-1.3607494e+000
-1.2090801e+000
-8.8685429e-001
-5.0576162e-001
-2.2407530e-001
-1.1311501e-001
-1.5129167e-001
-2.3591709e-001
-2.1694060e-001
3.8272277e-002
6.1065257e-001
1.4371493e+000
2.3488562e+000
3.1905320e+000
3.8701038e+000
4.4649544e+000
5.1871500e+000
6.2739286e+000
7.9534721e+000
1.0409826e+001
1.3707803e+001
1.7514286e+001
2.1230900e+001
2.4492752e+001
2.7254887e+001
2.9862709e+001
3.2919594e+001
3.6923294e+001
4.2089020e+001
4.7913280e+001
5.3451797e+001
5.8392601e+001
6.3061626e+001
6.7872704e+001
7.3103256e+001
7.8520958e+001
8.3518852e+001
8.7731766e+001
9.1098961e+001
9.3684677e+001
9.5605896e+001
9.6946091e+001
9.7744576e+001
9.8019440e+001
9.7780182e+001
9.7044800e+001
9.5860176e+001
9.4368950e+001
9.2762108e+001
9.1071938e+001
8.9166618e+001
8.6871414e+001
8.4034149e+001
8.0669739e+001
7.6928009e+001
7.2863747e+001
6.8427177e+001
6.3616280e+001
5.8518650e+001
5.3352470e+001
4.8423874e+001
4.3941372e+001
3.9989609e+001
3.6589649e+001
3.3714169e+001
3.1285818e+001
2.9196566e+001
2.7377308e+001
2.5811316e+001
2.4510172e+001
2.3496763e+001
2.2768002e+001
2.2292013e+001
2.2040411e+001
2.1998238e+001
2.2166906e+001
2.2555414e+001
2.3145155e+001
2.3897720e+001
2.4827625e+001
2.6012745e+001
2.7554399e+001
2.9540379e+001
3.1938770e+001
3.4594040e+001
3.7334122e+001
4.0009113e+001
4.2535137e+001
4.4932831e+001
4.7412949e+001
5.0281136e+001
5.3407501e+001
5.6198448e+001
5.8175457e+001
5.9147396e+001
5.9253899e+001
5.8886677e+001
5.8218719e+001
5.7132458e+001
5.5528301e+001
5.3425064e+001
5.1017200e+001
4.8633884e+001
4.6445454e+001
4.4403908e+001
4.2404369e+001
4.0331951e+001
3.8104382e+001
3.5695778e+001
3.3175331e+001
3.0707045e+001
2.8437599e+001
2.6438007e+001
2.4614241e+001
2.2716770e+001
2.0584314e+001
1.8226528e+001
1.5810085e+001
1.3615346e+001
1.1768083e+001
1.0174720e+001
8.7004423e+000
7.2325234e+000
5.7433271e+000
4.3035460e+000
2.9897571e+000
1.8580514e+000
9.4954121e-001
2.8950089e-001
-1.1130270e-001
-2.4254945e-001
-2.4332285e-002
6.8265504e-001
1.8777028e+000
3.3667810e+000
4.9279442e+000
6.3777027e+000
7.6512651e+000
8.8237267e+000
9.9800444e+000
1.1163926e+001
1.2332200e+001
1.3344764e+001
1.4071117e+001
1.4431485e+001
1.4423566e+001
1.4131071e+001
1.3644929e+001
1.3036820e+001
1.2341572e+001
1.1551993e+001
1.0646528e+001
9.6072159e+000
8.4817762e+000
7.4016385e+000
6.4863782e+000
5.8072033e+000
5.3857436e+000
5.1876197e+000
5.1610460e+000
5.2482948e+000
5.3992343e+000
5.5809507e+000
5.7882719e+000
6.0485764e+000
6.3856850e+000
6.8028927e+000
7.2690430e+000
7.7102523e+000
8.0462360e+000
8.2085552e+000
8.1729002e+000
7.9766688e+000
7.6760278e+000
7.3309708e+000
6.9810619e+000
6.6351547e+000
6.2977200e+000
5.9748831e+000
5.6599641e+000
5.3259130e+000
4.9382401e+000
4.4625483e+000
3.8919599e+000
3.2603357e+000
2.6043496e+000
1.9501328e+000
1.3167045e+000
7.1984839e-001
1.9605245e-001
-1.8917269e-001
-3.9120072e-001
-4.0577507e-001
-2.2291212e-001
1.8277717e-001
7.9372060e-001
1.5214536e+000
2.2793841e+000
3.0089948e+000
3.6561856e+000
4.1661386e+000
4.4994402e+000
4.6445117e+000
4.6121674e+000
4.4399819e+000
4.1751943e+000
3.8702772e+000
3.5730176e+000
3.3186610e+000
3.1208863e+000
2.9622560e+000
2.8215799e+000
2.6846881e+000
2.5503759e+000
2.4355943e+000
2.3541729e+000
2.3075349e+000
2.2921033e+000
2.3014631e+000
2.3354485e+000
2.4062362e+000
2.5317001e+000
2.7342865e+000
3.0332847e+000
3.4393306e+000
3.9503160e+000
4.5428209e+000
5.1760435e+000
5.7879648e+000
6.3182397e+000
6.7221384e+000
6.9850988e+000
7.1414261e+000
7.2416129e+000
7.3430958e+000
7.4882836e+000
7.6886592e+000
7.9493232e+000
8.2777500e+000
8.6891880e+000
9.2114735e+000
9.8688965e+000
1.0671722e+001
1.1616966e+001
1.2683269e+001
1.3841977e+001
1.5055500e+001
1.6284008e+001
1.7484957e+001
1.8604366e+001
1.9575581e+001
2.0320257e+001
2.0752731e+001
2.0799000e+001
2.0419184e+001
1.9615990e+001
1.8463072e+001
1.7054264e+001
1.5497799e+001
1.3906286e+001
1.2398060e+001
1.1083743e+001
1.0055599e+001
9.3702354e+000
9.0156479e+000
8.9365225e+000
9.0230989e+000
9.1538057e+000
9.2121611e+000
9.1061831e+000
8.7956676e+000
8.2737074e+000
7.5793486e+000
6.7678890e+000
5.9057798e+000
5.0558991e+000
4.2663541e+000
3.5715029e+000
2.9831755e+000
2.5066972e+000
2.1444731e+000
1.8967800e+000
1.7600367e+000
1.7203317e+000
1.7432942e+000
1.7897880e+000
1.8229629e+000
1.8182575e+000
1.7782869e+000
1.7120749e+000
1.6274910e+000
1.5236629e+000
1.3802041e+000
1.1804597e+000
9.2816061e-001
6.4302939e-001
3.7013108e-001
1.5605427e-001
3.3582486e-002
4.6551907e-003
8.5506365e-003
-1.3483915e-002
-7.9356641e-002
-1.8888965e-001
-3.2199293e-001
-4.5373383e-001
-5.5956692e-001
-6.2038821e-001
-6.3178527e-001
-6.0795563e-001
-5.9771079e-001
-6.3827229e-001
-7.1568096e-001
-7.8309882e-001
-7.4719822e-001
-5.4708338e-001
-2.3129171e-001
1.2038988e-001
4.1945750e-001
6.1303300e-001
7.4295360e-001
8.6359286e-001
1.0026110e+000
1.1756459e+000
1.3848252e+000
1.6384921e+000
1.9668714e+000
2.3786931e+000
2.8123667e+000
3.1847155e+000
3.4036560e+000
3.4120414e+000
3.2531397e+000
3.0031056e+000
2.7591856e+000
2.5984223e+000
2.5266614e+000
2.5162721e+000
2.4959466e+000
2.4032660e+000
2.2301972e+000
2.0028429e+000
1.8040534e+000
1.7073455e+000
1.7205501e+000
1.8167388e+000
1.9169500e+000
1.9531735e+000
1.9251466e+000
1.8653772e+000
1.8511316e+000
1.9469000e+000
2.1462286e+000
2.4007473e+000
2.5913980e+000
2.6069529e+000
2.4126585e+000
2.0235600e+000
1.5462210e+000
1.0899153e+000
7.0503938e-001
4.1554254e-001
2.0966956e-001
7.4231580e-002
1.6641524e-002
2.6199441e-002
2.1743774e-002
-8.1475511e-002
-3.2351488e-001
-6.9932485e-001
-1.0982320e+000
-1.4056858e+000
-1.5784669e+000
-1.6103206e+000
-1.5564696e+000
-1.4794892e+000
-1.4164064e+000
-1.3909349e+000
-1.4025377e+000
-1.4362260e+000
-1.4499453e+000
-1.4066714e+000
-1.3098850e+000
-1.1813191e+000
-1.0686704e+000
-1.0095904e+000
-9.8656350e-001
-9.7188431e-001
-9.4915634e-001
-9.0939283e-001
-8.5895115e-001
-8.0184656e-001
-7.2111011e-001
-6.0033119e-001
-4.4338977e-001
-2.6299509e-001
-8.4519744e-002
8.3877936e-002
3.0554879e-001
6.2435484e-001
9.5108557e-001
1.1920800e+000
1.3584217e+000
1.5009594e+000
1.7206998e+000
2.0974655e+000
2.5860436e+000
3.1090760e+000
3.5850768e+000
3.9473624e+000
4.1880145e+000
4.3145456e+000
4.3376594e+000
4.2799611e+000
4.2071390e+000
4.1815453e+000
4.2103648e+000
4.2752023e+000
4.3102369e+000
4.2722492e+000
4.2547874e+000
4.3857002e+000
