Image.
>Pix99999.
  .
5555
5555
2300
900
5555
2
1
0
701
5555
1.6998000e-002
1.7351493e-002
1.7704988e-002
1.8058483e-002
1.8411977e-002
1.8765470e-002
1.9119956e-002
1.9473460e-002
1.9826954e-002
2.0179460e-002
2.0533929e-002
2.0890391e-002
2.1240983e-002
2.1584611e-002
2.1948701e-002
2.2341557e-002
2.2656823e-002
2.2864997e-002
2.3359092e-002
2.4254382e-002
2.4085686e-002
2.2420330e-002
2.4712943e-002
3.2584172e-002
2.5749069e-002
-5.0546569e-003
-2.2977314e-004
9.1397248e-002
2.0937696e-001
2.7531603e-001
2.6609144e-001
1.9165461e-001
1.3062930e-001
1.6276363e-001
2.9338002e-001
4.9583098e-001
7.0220971e-001
8.4705961e-001
9.2263198e-001
9.4452864e-001
9.5321769e-001
9.8746789e-001
1.0499462e+000
1.1319829e+000
1.2238795e+000
1.3167214e+000
1.4051040e+000
1.4817038e+000
1.5277828e+000
1.5281960e+000
1.4978215e+000
1.4627718e+000
1.4561269e+000
1.5050644e+000
1.6035082e+000
1.7344108e+000
1.8794041e+000
2.0215371e+000
2.1495771e+000
2.2527704e+000
2.3154256e+000
2.3254294e+000
2.2929974e+000
2.2388399e+000
2.1968212e+000
2.1974545e+000
2.2410121e+000
2.3150396e+000
2.3967953e+000
2.4646549e+000
2.5139499e+000
2.5460165e+000
2.5620189e+000
2.5638583e+000
2.5580871e+000
2.5544536e+000
2.5688977e+000
2.6156452e+000
2.6931741e+000
2.7936645e+000
2.9065371e+000
3.0212042e+000
3.1302898e+000
3.2263832e+000
3.2959440e+000
3.3267429e+000
3.3219180e+000
3.2930398e+000
3.2628715e+000
3.2548230e+000
3.2778158e+000
3.3333261e+000
3.4140601e+000
3.5114675e+000
3.6233048e+000
3.7474134e+000
3.8720121e+000
3.9804976e+000
4.0529060e+000
4.0756936e+000
4.0676999e+000
4.0575285e+000
4.0615673e+000
4.0855269e+000
4.1109557e+000
4.1174197e+000
4.1132331e+000
4.1197701e+000
4.1634703e+000
4.2646623e+000
4.4136386e+000
4.5864596e+000
4.7526636e+000
4.8823957e+000
4.9578862e+000
4.9700375e+000
4.9249983e+000
4.8377948e+000
4.7347169e+000
4.6439600e+000
4.5820198e+000
4.5560050e+000
4.5554900e+000
4.5630240e+000
4.5627718e+000
4.5438356e+000
4.5133958e+000
4.4876270e+000
4.4895740e+000
4.5405140e+000
4.6429811e+000
4.7863789e+000
4.9388299e+000
5.0615792e+000
5.1249180e+000
5.1104050e+000
5.0291047e+000
4.9051361e+000
4.7637887e+000
4.6282487e+000
4.5146599e+000
4.4351630e+000
4.3978019e+000
4.4065614e+000
4.4543829e+000
4.5274048e+000
4.6033320e+000
4.6550450e+000
4.6496959e+000
4.5616331e+000
4.4050145e+000
4.2172899e+000
4.0531826e+000
3.9641874e+000
3.9566779e+000
4.0112200e+000
4.0913024e+000
4.1603441e+000
4.2104397e+000
4.2497048e+000
4.2949200e+000
4.3615479e+000
4.4472947e+000
4.5383701e+000
4.6106963e+000
4.6388345e+000
4.6109653e+000
4.5265560e+000
4.4033360e+000
4.2668138e+000
4.1376972e+000
4.0314283e+000
3.9535966e+000
3.9038270e+000
3.8764431e+000
3.8634000e+000
3.8569326e+000
3.8502953e+000
3.8385074e+000
3.8186512e+000
3.7922742e+000
3.7638950e+000
3.7411821e+000
3.7322547e+000
3.7422047e+000
3.7752607e+000
3.8405511e+000
3.9446785e+000
4.0716558e+000
4.1942348e+000
4.2903957e+000
4.3462672e+000
4.3652668e+000
4.3578324e+000
4.3252301e+000
4.2670908e+000
4.2030363e+000
4.1609845e+000
4.1549425e+000
4.1855011e+000
4.2328143e+000
4.2696977e+000
4.2844915e+000
4.2766471e+000
4.2522349e+000
4.2198572e+000
4.1856942e+000
4.1526403e+000
4.1167130e+000
4.0690556e+000
3.9956100e+000
3.8835485e+000
3.7377036e+000
3.5769508e+000
3.4348600e+000
3.3459771e+000
3.3142285e+000
3.3222961e+000
3.3437684e+000
3.3532362e+000
3.3462086e+000
3.3303199e+000
3.3100185e+000
3.2836430e+000
3.2374399e+000
3.1552641e+000
3.0403633e+000
2.9102623e+000
2.7888155e+000
2.6954219e+000
2.6180429e+000
2.5302191e+000
2.4303041e+000
2.3367577e+000
2.2786741e+000
2.2799444e+000
2.3193521e+000
2.3504145e+000
2.3448341e+000
2.2953246e+000
2.2200372e+000
2.1479738e+000
2.0907426e+000
2.0459676e+000
2.0074017e+000
1.9678150e+000
1.9202932e+000
1.8588121e+000
1.7799560e+000
1.6821789e+000
1.5640285e+000
1.4293000e+000
1.3055639e+000
1.2318244e+000
1.2261791e+000
1.2806336e+000
1.3435372e+000
1.3476192e+000
1.2825606e+000
1.1764270e+000
1.0360234e+000
8.4895432e-001
6.0806555e-001
3.2478702e-001
6.6871755e-002
-7.5447857e-002
-8.8468723e-002
-2.7547268e-002
9.5088156e-003
-7.2846785e-002
-2.5565970e-001
-4.3834686e-001
-5.4040289e-001
-5.2269477e-001
-4.1568813e-001
-2.9739642e-001
-2.4611074e-001
-3.1618276e-001
-4.8056102e-001
-6.5592259e-001
-7.7505398e-001
-8.0259877e-001
-7.5592005e-001
-6.8429434e-001
-6.1385417e-001
-5.4337168e-001
-4.5089585e-001
-2.9960629e-001
-4.1714847e-002
3.7251556e-001
9.7102726e-001
1.7456046e+000
2.6024284e+000
3.4075811e+000
4.1409359e+000
4.8953099e+000
5.8269324e+000
7.1288443e+000
9.0017004e+000
1.1579226e+001
1.4676428e+001
1.7873909e+001
2.0856134e+001
2.3500320e+001
2.6003469e+001
2.8778572e+001
3.2123550e+001
3.6104687e+001
4.0319962e+001
4.4108948e+001
4.7308514e+001
5.0249908e+001
5.3369709e+001
5.7034054e+001
6.1234531e+001
6.5651299e+001
6.9990562e+001
7.4051048e+001
7.7702255e+001
8.0885437e+001
8.3653229e+001
8.6154716e+001
8.8579979e+001
9.1073280e+001
9.3457039e+001
9.5298889e+001
9.6324791e+001
9.6470665e+001
9.5781685e+001
9.4362801e+001
9.2294930e+001
8.9645485e+001
8.6584610e+001
8.3346916e+001
8.0010284e+001
7.6495735e+001
7.2733078e+001
6.8711449e+001
6.4517693e+001
6.0315956e+001
5.6249657e+001
5.2424557e+001
4.8927525e+001
4.5821430e+001
4.3100143e+001
4.0694263e+001
3.8538803e+001
3.6591045e+001
3.4835251e+001
3.3278919e+001
3.1923000e+001
3.0754044e+001
2.9742201e+001
2.8849113e+001
2.8064159e+001
2.7406693e+001
2.6902107e+001
2.6574810e+001
2.6453091e+001
2.6565426e+001
2.6922600e+001
2.7507093e+001
2.8243561e+001
2.9011997e+001
2.9728439e+001
3.0360006e+001
3.0893505e+001
3.1363354e+001
3.2008091e+001
3.3224865e+001
3.5179485e+001
3.7710487e+001
4.0406998e+001
4.2731613e+001
4.4492901e+001
4.5888966e+001
4.7076977e+001
4.8073208e+001
4.8848698e+001
4.9365753e+001
4.9623970e+001
4.9668480e+001
4.9547142e+001
4.9288559e+001
4.8858810e+001
4.8157299e+001
4.7085510e+001
4.5588970e+001
4.3737354e+001
4.1729546e+001
3.9772972e+001
3.8010029e+001
3.6356720e+001
3.4502842e+001
3.2231281e+001
2.9531406e+001
2.6621702e+001
2.3900454e+001
2.1564899e+001
1.9519810e+001
1.7603714e+001
1.5661578e+001
1.3616446e+001
1.1488421e+001
9.3254566e+000
7.1925344e+000
5.1953340e+000
3.4708691e+000
2.0836623e+000
1.0189254e+000
3.5333401e-001
2.6492280e-001
7.6289809e-001
1.6228399e+000
2.6248007e+000
3.6309092e+000
4.5836349e+000
5.4863925e+000
6.2477198e+000
6.6588640e+000
6.6123400e+000
6.1870203e+000
5.6042080e+000
5.1805997e+000
5.0376506e+000
5.0205569e+000
4.9812207e+000
4.8627777e+000
4.6387434e+000
4.2980580e+000
3.8382459e+000
3.2701375e+000
2.6403263e+000
2.0358546e+000
1.5279119e+000
1.1491685e+000
8.9959538e-001
7.4730814e-001
6.6316575e-001
6.3555253e-001
6.7737746e-001
8.2592404e-001
1.0970199e+000
1.4669797e+000
1.8962034e+000
2.3374164e+000
2.7568517e+000
3.1427009e+000
3.4868400e+000
3.7800245e+000
4.0154285e+000
4.1910396e+000
4.3094020e+000
4.3782969e+000
4.4078627e+000
4.4100599e+000
4.3971996e+000
4.3786836e+000
4.3474956e+000
4.2741380e+000
4.1313314e+000
3.9069707e+000
3.6145759e+000
3.2977853e+000
2.9820840e+000
2.6537721e+000
2.2858431e+000
1.8511649e+000
1.3631063e+000
8.9482874e-001
5.1273644e-001
2.4698180e-001
9.1317967e-002
-1.2044497e-003
-6.4050354e-002
-9.5308676e-002
-8.8780001e-002
-4.7008108e-002
8.2979538e-003
3.1895876e-002
-1.4191978e-003
-7.4051276e-002
-1.4938849e-001
-1.7928691e-001
-1.3615054e-001
-3.0477852e-002
1.1917812e-001
2.9589090e-001
4.8745698e-001
6.8830776e-001
8.9028603e-001
1.0789438e+000
1.2420834e+000
1.3744807e+000
1.4755254e+000
1.5500321e+000
1.6020663e+000
1.6326690e+000
1.6447926e+000
1.6459258e+000
1.6464143e+000
1.6589042e+000
1.6924994e+000
1.7486503e+000
1.8231159e+000
1.9050871e+000
1.9859943e+000
2.0646334e+000
2.1455019e+000
2.2396505e+000
2.3538613e+000
2.4845109e+000
2.6241224e+000
2.7644794e+000
2.9082892e+000
3.0791485e+000
3.3056252e+000
3.6151316e+000
4.0218520e+000
4.5159211e+000
5.0800257e+000
5.6938639e+000
6.3414969e+000
7.0172896e+000
7.7201624e+000
8.4526501e+000
9.2097311e+000
9.9687233e+000
1.0694858e+001
1.1340800e+001
1.1870614e+001
1.2281465e+001
1.2583200e+001
1.2794024e+001
1.2922992e+001
1.2955743e+001
1.2877343e+001
1.2686266e+001
1.2386214e+001
1.1992660e+001
1.1517486e+001
1.0965898e+001
1.0345584e+001
9.6710300e+000
8.9624548e+000
8.2478933e+000
7.5473099e+000
6.8609591e+000
6.1819386e+000
5.4995923e+000
4.8121214e+000
4.1380577e+000
3.4990103e+000
2.9116840e+000
2.3841176e+000
1.9085950e+000
1.4793332e+000
1.1026391e+000
7.9021215e-001
5.5838841e-001
4.1551000e-001
3.4964350e-001
3.3899918e-001
3.5103878e-001
3.5413235e-001
3.2574046e-001
2.5661203e-001
1.6289258e-001
7.0405453e-002
1.1552142e-002
5.9905611e-003
4.0269796e-002
8.7547377e-002
1.1019000e-001
8.3658583e-002
2.0626605e-002
-4.8659299e-002
-7.6107651e-002
-3.0512493e-002
7.0823833e-002
2.0769572e-001
3.8071990e-001
5.9886646e-001
8.7825364e-001
1.2284657e+000
1.6385850e+000
2.0863371e+000
2.5359273e+000
2.9648120e+000
3.3901508e+000
3.8353014e+000
4.3145633e+000
4.8257565e+000
5.3332963e+000
5.8043017e+000
6.2333002e+000
6.6293497e+000
7.0204225e+000
7.4327955e+000
7.8754888e+000
8.3506851e+000
8.8522882e+000
9.3702660e+000
9.8893423e+000
1.0389086e+001
1.0838250e+001
1.1212628e+001
1.1513151e+001
1.1748365e+001
1.1937450e+001
1.2099257e+001
1.2238130e+001
1.2353817e+001
1.2444327e+001
1.2506317e+001
1.2527450e+001
1.2501200e+001
1.2431669e+001
1.2323366e+001
1.2176708e+001
1.1986457e+001
1.1737902e+001
1.1420437e+001
1.1042140e+001
1.0612732e+001
1.0147864e+001
9.6609125e+000
9.1656437e+000
8.6772938e+000
8.2143393e+000
7.7915802e+000
7.4091845e+000
7.0565958e+000
6.7021561e+000
6.3180356e+000
5.9048457e+000
5.4783893e+000
5.0783339e+000
4.7355666e+000
4.4373527e+000
4.1607771e+000
3.8843992e+000
3.5948901e+000
3.3009393e+000
3.0081961e+000
2.6966865e+000
2.3445127e+000
1.9438813e+000
1.5014943e+000
1.0579969e+000
6.5511644e-001
3.1152451e-001
2.8501749e-002
-2.2878057e-001
-4.9312642e-001
-7.6166821e-001
-1.0145268e+000
-1.2053409e+000
-1.2873780e+000
-1.2350132e+000
-1.0345645e+000
-6.9557571e-001
-2.4710312e-001
2.3571312e-001
6.6997528e-001
9.8587948e-001
1.1383346e+000
1.1552482e+000
1.0820385e+000
9.6215504e-001
8.2922900e-001
6.8557823e-001
5.2861476e-001
3.6602217e-001
2.1241455e-001
9.7379610e-002
3.8544554e-002
-1.9300282e-003
-6.0641114e-002
-1.2039310e-001
-1.5867315e-001
-1.8226816e-001
-2.0922269e-001
-2.7197662e-001
-4.0435153e-001
-6.3154495e-001
-9.5667779e-001
-1.3085287e+000
-1.6038183e+000
-1.7831485e+000
-1.8167400e+000
-1.7635067e+000
-1.7026114e+000
-1.7047701e+000
-1.8224995e+000
-2.0442986e+000
-2.3377943e+000
-2.6512334e+000
-2.9385388e+000
-3.1967387e+000
-3.4335001e+000
