Image.
>Pix99999.
  .
5555
5555
2300
900
5555
2
1
0
701
5555
-1.4482000e-002
-1.4783569e-002
-1.5085137e-002
-1.5385710e-002
-1.5687276e-002
-1.5988844e-002
-1.6289420e-002
-1.6590981e-002
-1.6892549e-002
-1.7194116e-002
-1.7494699e-002
-1.7796254e-002
-1.8097823e-002
-1.8398410e-002
-1.8699959e-002
-1.9001529e-002
-1.9303096e-002
-1.9603688e-002
-1.9905234e-002
-2.0206802e-002
-2.0507401e-002
-2.0808941e-002
-2.1110509e-002
-2.1412078e-002
-2.1712679e-002
-2.2014214e-002
-8.1807142e-004
5.3110275e-002
1.1559524e-001
1.0688513e-001
8.7618940e-002
-5.9186402e-003
-1.0460813e-001
-1.9920358e-001
-2.8632963e-001
-3.1541151e-001
-3.3576733e-001
-3.2969642e-001
-3.2493079e-001
-3.2848546e-001
-3.2718256e-001
-3.1423008e-001
-2.9841819e-001
-2.7909216e-001
-2.7515355e-001
-2.9069936e-001
-2.9703069e-001
-2.9330474e-001
-2.4470612e-001
-1.6305789e-001
-6.5415785e-002
4.0183451e-002
1.2400497e-001
1.9803576e-001
2.4094802e-001
2.7395192e-001
2.4855961e-001
2.0987399e-001
1.1921959e-001
2.1121226e-002
-6.0023975e-002
-1.3928548e-001
-2.1520425e-001
-2.9899609e-001
-4.2975867e-001
-5.6055027e-001
-6.7475301e-001
-7.5188118e-001
-7.3830777e-001
-6.7821831e-001
-5.4741102e-001
-3.9233357e-001
-2.1266143e-001
-5.6253649e-002
7.1044289e-002
1.1278907e-001
8.1589781e-002
1.3166936e-003
-1.0780475e-001
-1.5562715e-001
-1.6846342e-001
-1.4750360e-001
-1.1375532e-001
-1.4691798e-001
-2.0179960e-001
-2.8058136e-001
-3.6452577e-001
-3.8482058e-001
-3.9183417e-001
-3.4024239e-001
-2.7714357e-001
-1.9041640e-001
-1.0707845e-001
-5.3923961e-002
-2.2830341e-002
-4.5005526e-002
-8.3587475e-002
-1.4102289e-001
-1.9417740e-001
-2.3545226e-001
-2.5419000e-001
-2.4572635e-001
-2.2670759e-001
-2.0088784e-001
-2.0551389e-001
-2.3609699e-001
-2.9120237e-001
-3.6013159e-001
-4.0812913e-001
-4.4414762e-001
-4.5352671e-001
-4.5242727e-001
-4.3444002e-001
-4.1134843e-001
-3.7993264e-001
-3.4761655e-001
-3.6690640e-001
-3.9882454e-001
-4.5675471e-001
-5.1378870e-001
-5.3765744e-001
-5.6312829e-001
-6.1785173e-001
-6.9409734e-001
-8.1082547e-001
-9.1707075e-001
-9.8748738e-001
-1.0230533e+000
-1.0163879e+000
-9.9591744e-001
-9.6854627e-001
-9.3287605e-001
-8.9038193e-001
-8.4785891e-001
-8.0622387e-001
-7.8127962e-001
-7.6690686e-001
-7.2316015e-001
-6.6327864e-001
-5.8577168e-001
-5.0176001e-001
-5.2044022e-001
-5.7400620e-001
-7.2868997e-001
-9.0781015e-001
-1.0569624e+000
-1.1841997e+000
-1.2107900e+000
-1.1958594e+000
-1.1121411e+000
-1.0213786e+000
-9.6181124e-001
-9.4731635e-001
-1.0170412e+000
-1.1048939e+000
-1.1887993e+000
-1.2231314e+000
-1.1896900e+000
-1.1279843e+000
-1.0517578e+000
-9.6876115e-001
-8.8238370e-001
-7.4628341e-001
-5.7259458e-001
-4.4176435e-001
-3.4254786e-001
-4.1840819e-001
-5.8406121e-001
-7.7669239e-001
-9.7605395e-001
-1.0734628e+000
-1.1323513e+000
-1.1392851e+000
-1.1290197e+000
-1.1087414e+000
-1.0955499e+000
-1.1374903e+000
-1.2044759e+000
-1.2999526e+000
-1.3835123e+000
-1.4130542e+000
-1.4164258e+000
-1.3992320e+000
-1.3820477e+000
-1.3740457e+000
-1.3161707e+000
-1.1897223e+000
-9.6864265e-001
-6.6495275e-001
-3.9549950e-001
-1.7530957e-001
-4.4289418e-002
2.7142331e-002
2.5534619e-002
-1.5719075e-002
-1.9239596e-001
-4.3994358e-001
-6.4391309e-001
-8.2379174e-001
-7.6951516e-001
-6.1951143e-001
-4.2264622e-001
-2.3429666e-001
-2.2655980e-001
-3.2216823e-001
-5.6504709e-001
-8.4890729e-001
-1.0903385e+000
-1.2686327e+000
-1.3352699e+000
-1.3166500e+000
-1.2117009e+000
-1.0261084e+000
-7.6178944e-001
-5.2092218e-001
-3.4048721e-001
-3.3483341e-001
-4.9572602e-001
-7.1328181e-001
-9.4283569e-001
-1.0950058e+000
-1.1849796e+000
-1.1739182e+000
-1.1028538e+000
-9.2201316e-001
-6.8203604e-001
-5.3745258e-001
-4.5212936e-001
-5.9014606e-001
-8.2807702e-001
-1.0211722e+000
-1.1598409e+000
-1.1207737e+000
-9.7140819e-001
-7.1193606e-001
-4.4662270e-001
-2.9447553e-001
-2.8038964e-001
-4.6037978e-001
-7.2028524e-001
-9.8699999e-001
-1.1832651e+000
-1.2741783e+000
-1.2671552e+000
-1.1836926e+000
-1.0325875e+000
-8.3460248e-001
-6.4738762e-001
-4.8115823e-001
-3.4572902e-001
-2.3122428e-001
-4.5070540e-002
1.9425359e-001
3.9645016e-001
5.6999540e-001
5.9960693e-001
5.4726207e-001
4.8449928e-001
4.3733841e-001
5.3050011e-001
7.2478515e-001
1.0317699e+000
1.3141295e+000
1.3377355e+000
1.1537383e+000
7.6891756e-001
3.8514239e-001
1.8631059e-001
5.3768460e-002
-9.7941667e-002
-1.6683458e-001
-1.0849685e-001
2.2349915e-001
8.3598185e-001
1.5177991e+000
2.1813927e+000
2.4747622e+000
2.4196515e+000
2.2662733e+000
2.0910645e+000
2.1392601e+000
2.3621380e+000
2.3136914e+000
2.0476725e+000
1.3985023e+000
5.3443956e-001
-3.1845063e-002
-2.9100782e-001
1.0693642e-001
1.0501349e+000
2.3979399e+000
3.7694378e+000
4.6027145e+000
5.0934057e+000
5.4595580e+000
6.0846348e+000
7.3197017e+000
9.4013338e+000
1.2410829e+001
1.6065802e+001
2.0101286e+001
2.3660851e+001
2.6457230e+001
2.8899920e+001
3.1204435e+001
3.4302994e+001
3.8238461e+001
4.2780560e+001
4.7738400e+001
5.1885475e+001
5.5304371e+001
5.8801907e+001
6.2448643e+001
6.6746399e+001
7.1499359e+001
7.6033752e+001
8.0323624e+001
8.4231995e+001
8.7803909e+001
9.1109238e+001
9.4172745e+001
9.7038177e+001
9.9494324e+001
1.0131247e+002
1.0184960e+002
1.0061268e+002
9.8241417e+001
9.5369270e+001
9.2354851e+001
8.9430595e+001
8.6071526e+001
8.2103935e+001
7.7794106e+001
7.3283211e+001
6.8972420e+001
6.4929634e+001
6.0829041e+001
5.6627701e+001
5.2474613e+001
4.8383244e+001
4.4448715e+001
4.0697224e+001
3.7300549e+001
3.4292233e+001
3.1750332e+001
2.9649487e+001
2.7833296e+001
2.6304274e+001
2.5014263e+001
2.3978153e+001
2.3179501e+001
2.2603210e+001
2.2198891e+001
2.1939882e+001
2.1779652e+001
2.1766357e+001
2.1921097e+001
2.2316240e+001
2.2974964e+001
2.3949366e+001
2.5242800e+001
2.6720562e+001
2.8327988e+001
2.9820522e+001
3.1144880e+001
3.2347076e+001
3.3438995e+001
3.4793549e+001
3.6513035e+001
3.9088211e+001
4.2481174e+001
4.5621231e+001
4.8328804e+001
5.0153648e+001
5.1240685e+001
5.2373215e+001
5.3570240e+001
5.4851700e+001
5.5778320e+001
5.5685909e+001
5.4595112e+001
5.2704464e+001
5.0580853e+001
4.8840374e+001
4.7492748e+001
4.6528450e+001
4.5631222e+001
4.4605793e+001
4.3054703e+001
4.0763283e+001
3.8265160e+001
3.5712734e+001
3.3414520e+001
3.1472696e+001
2.9166004e+001
2.6339214e+001
2.3314795e+001
2.0122515e+001
1.7444529e+001
1.5360070e+001
1.3422571e+001
1.1647937e+001
9.9367619e+000
8.2886381e+000
6.6599898e+000
5.0425944e+000
3.4132061e+000
1.9202616e+000
7.8932571e-001
1.2091568e-001
3.5709336e-002
5.1445413e-001
1.3999932e+000
2.2895169e+000
2.9047852e+000
3.3290422e+000
3.5866578e+000
3.9708300e+000
4.6445465e+000
5.4867849e+000
6.5113401e+000
7.2201324e+000
7.3997388e+000
7.2969952e+000
6.8132501e+000
6.3289857e+000
5.8546166e+000
5.4474921e+000
5.1418200e+000
4.9381213e+000
4.8321872e+000
4.6838775e+000
4.4625993e+000
4.1316991e+000
3.7491519e+000
3.4784279e+000
3.3692188e+000
3.4732919e+000
3.7459576e+000
4.1127491e+000
4.4823833e+000
4.7531743e+000
4.9559917e+000
5.1021409e+000
5.2637110e+000
5.4920678e+000
5.7827005e+000
6.1625390e+000
6.5758758e+000
7.0260553e+000
7.3927002e+000
7.5934114e+000
7.6300936e+000
7.3921037e+000
7.0685573e+000
6.6188698e+000
6.1465611e+000
5.6556277e+000
5.2083869e+000
4.8245378e+000
4.4984202e+000
4.2192006e+000
3.9108820e+000
3.5660963e+000
3.1830692e+000
2.7746336e+000
2.3707509e+000
1.9603713e+000
1.5256840e+000
1.0899421e+000
6.7924631e-001
3.3470023e-001
1.2575649e-001
1.6340895e-002
3.2405466e-002
9.6094750e-002
2.8468680e-001
5.4031718e-001
9.1015017e-001
1.2205598e+000
1.3890171e+000
1.3952134e+000
1.1170107e+000
8.3072197e-001
5.5620450e-001
4.0891415e-001
4.5455629e-001
6.1873585e-001
9.2157757e-001
1.2471368e+000
1.5699000e+000
1.8057226e+000
1.9376919e+000
1.9581314e+000
1.8818723e+000
1.7366949e+000
1.5518080e+000
1.3597920e+000
1.1864848e+000
1.0744255e+000
1.0127857e+000
1.0347126e+000
1.0908169e+000
1.1870339e+000
1.2832761e+000
1.3644136e+000
1.4343112e+000
1.4777006e+000
1.5173949e+000
1.5497863e+000
1.5885614e+000
1.6435089e+000
1.7261206e+000
1.8589989e+000
2.0272286e+000
2.2438507e+000
2.4692240e+000
2.7033038e+000
2.9340799e+000
3.1655552e+000
3.4118171e+000
3.6815975e+000
3.9964709e+000
4.3553381e+000
4.7712851e+000
5.2136750e+000
5.6506777e+000
6.0647225e+000
6.4088554e+000
6.7033281e+000
6.8978643e+000
7.0163140e+000
6.9475999e+000
6.7912302e+000
6.4120088e+000
5.9938078e+000
5.4814987e+000
4.9719167e+000
4.4701800e+000
3.9812500e+000
3.5190856e+000
3.0706646e+000
2.6466706e+000
2.2369697e+000
1.8508989e+000
1.4898100e+000
1.1592674e+000
8.4555590e-001
5.4443002e-001
2.3312993e-001
-8.9051932e-002
-4.2702296e-001
-7.7352744e-001
-1.1182029e+000
-1.4499974e+000
-1.7320415e+000
-1.9694109e+000
-2.0903664e+000
-2.1469343e+000
-2.0487292e+000
-1.9087000e+000
-1.6850058e+000
-1.4703220e+000
-1.3097728e+000
-1.1629057e+000
-1.0541624e+000
-9.1736388e-001
-7.0900416e-001
-4.6770346e-001
-1.6699494e-001
1.0548031e-001
3.2063788e-001
4.5446274e-001
4.7244424e-001
4.1702279e-001
2.8567180e-001
1.5153167e-001
3.0578366e-002
-6.0402360e-003
2.5481224e-002
1.2872629e-001
2.9643440e-001
5.3817016e-001
8.1895101e-001
1.1560972e+000
1.5090364e+000
1.8643260e+000
2.2084780e+000
2.4912000e+000
2.7552531e+000
2.9497030e+000
3.1372528e+000
3.3011646e+000
3.4655590e+000
3.6309042e+000
3.7930751e+000
3.9464333e+000
4.0919757e+000
4.2256885e+000
4.3822165e+000
4.5834713e+000
4.8604445e+000
5.2372279e+000
5.6764584e+000
6.1777930e+000
6.6951556e+000
7.2228389e+000
7.7380843e+000
8.2293530e+000
8.6024904e+000
8.8858328e+000
8.9070377e+000
8.8147440e+000
8.5204172e+000
8.1884928e+000
7.9072952e+000
7.6587720e+000
7.6037316e+000
7.5834346e+000
7.7261105e+000
7.8840342e+000
8.1071558e+000
8.3191681e+000
8.4946527e+000
8.6513033e+000
8.7646465e+000
8.8897085e+000
9.0365534e+000
9.1870146e+000
9.3372288e+000
9.4342403e+000
9.4686890e+000
9.4738989e+000
9.4544392e+000
9.4462528e+000
9.4346104e+000
9.3082485e+000
9.0990105e+000
8.6485081e+000
8.0979090e+000
7.4692259e+000
6.8338599e+000
6.3571644e+000
5.9143825e+000
5.5530000e+000
5.1910977e+000
4.7422085e+000
4.2879648e+000
3.8023903e+000
3.3211524e+000
2.8578429e+000
2.3814681e+000
1.8640451e+000
1.3375018e+000
7.9402685e-001
3.1180969e-001
-5.8928818e-002
-3.3770710e-001
-4.9259520e-001
-6.2060761e-001
-7.1907997e-001
-7.8464127e-001
-8.2044035e-001
-7.9044318e-001
-7.2219634e-001
-6.8400598e-001
-6.5963620e-001
-6.4073241e-001
-6.1625683e-001
-4.3662584e-001
-2.2063583e-001
6.8529427e-002
3.5777280e-001
4.3704146e-001
4.8858482e-001
2.6540786e-001
5.7566229e-002
-2.0176582e-003
-5.1715791e-002
2.5744581e-001
6.1059541e-001
1.0911398e+000
1.5240345e+000
1.8546638e+000
2.1520977e+000
2.3956108e+000
2.5906260e+000
2.7245157e+000
2.7395663e+000
2.6443334e+000
2.5447328e+000
2.4439692e+000
2.4812605e+000
2.5915232e+000
2.7136877e+000
2.8399372e+000
2.9009516e+000
2.9456768e+000
3.1733356e+000
3.4307451e+000
3.9516001e+000
