##TITLE=Methyl Ethyl Ketone
##JCAMP-DX=4.24
##DATA TYPE=INFRARED SPECTRUM
##XUNITS=cm-1
##YUNITS=Absorbance
##FIRSTX=900
##LASTX=2300
##XYDATA=(X++(Y..Y))
2296 0.019285001
2294 0.019686427
2292 0.020087851
2290 0.020489277
2288 0.020890703
2286 0.021291135
2284 0.021692554
2282 0.02209398
2280 0.022495406
2278 0.022895845
2276 0.023297258
2274 0.023700653
2272 0.024100143
2270 0.024493683
2268 0.024901818
2266 0.025329808
2264 0.025705429
2262 0.026006715
2260 0.02650504
2258 0.027276829
2256 0.027320342
2254 0.02634033
2252 0.028067956
2250 0.033613533
2248 0.029095041
2246 0.0067539606
2244 0.00022035743
2242 0.041900981
2240 0.11255608
2238 0.17589667
2236 0.18596613
2234 0.1108368
2232 -0.014335245
2230 -0.13677084
2228 -0.21031977
2226 -0.20294051
2224 -0.13095205
2222 -0.025641948
2220 0.078250341
2218 0.15032989
2216 0.18120629
2214 0.17281379
2212 0.14759959
2210 0.1321767
2208 0.14543024
2206 0.19768523
2204 0.27448601
2202 0.35513613
2200 0.42444736
2198 0.47313899
2196 0.50842071
2194 0.54204124
2192 0.58332372
2190 0.63860673
2188 0.70565277
2186 0.77873552
2184 0.84903961
2182 0.90752298
2180 0.94801527
2178 0.96731162
2176 0.97048146
2174 0.9650259
2172 0.95759052
2170 0.95275223
2168 0.94822419
2166 0.94089758
2164 0.93365073
2162 0.93278915
2160 0.95021325
2158 0.99626899
2156 1.0676999
2154 1.1539946
2152 1.2358377
2150 1.2947184
2148 1.3294855
2146 1.3457572
2144 1.3538965
2142 1.362888
2140 1.3704754
2138 1.372542
2136 1.37518
2134 1.3881452
2132 1.4217594
2130 1.4817945
2128 1.55486
2126 1.6213465
2124 1.6651751
2122 1.6771182
2120 1.6711057
2118 1.6680052
2116 1.6837343
2114 1.7259459
2112 1.7794108
2110 1.8221529
2108 1.8413649
2106 1.832005
2104 1.8059536
2102 1.7783246
2100 1.7511081
2098 1.7221439
2096 1.6938286
2094 1.6717445
2092 1.6678457
2090 1.6914095
2088 1.7312599
2086 1.76895
2084 1.7908775
2082 1.789903
2080 1.7753303
2078 1.7602202
2076 1.7463528
2074 1.7311579
2072 1.714504
2070 1.6996406
2068 1.6984719
2066 1.7211807
2064 1.7572194
2062 1.7878195
2060 1.7956101
2058 1.770221
2056 1.7257086
2054 1.685176
2052 1.6676657
2050 1.6854302
2048 1.7310897
2046 1.7880535
2044 1.834252
2042 1.8500401
2040 1.8330057
2038 1.7907062
2036 1.74049
2034 1.7005992
2032 1.675992
2030 1.66461
2028 1.6602317
2026 1.6562101
2024 1.6483903
2022 1.633188
2020 1.6037269
2018 1.5548242
2016 1.49438
2014 1.4382181
2012 1.4091048
2010 1.4270188
2008 1.487288
2006 1.5725986
2004 1.6613206
2002 1.7343891
2000 1.7893537
1998 1.830505
1996 1.8570857
1994 1.8628843
1992 1.831003
1990 1.7461451
1988 1.619756
1986 1.4781414
1984 1.3555297
1982 1.2835002
1980 1.2704322
1978 1.3101475
1976 1.3820485
1974 1.46073
1972 1.5258597
1970 1.5626307
1968 1.5693469
1966 1.5506514
1964 1.5140042
1962 1.4678514
1960 1.420604
1958 1.3802468
1956 1.3515414
1954 1.3371383
1952 1.3361593
1950 1.3448309
1948 1.3545634
1946 1.3550251
1944 1.33868
1942 1.3026924
1940 1.2583699
1938 1.2222385
1936 1.2025086
1934 1.2006019
1932 1.210772
1930 1.2253263
1928 1.2430109
1926 1.2649686
1924 1.2861528
1922 1.2988553
1920 1.3000371
1918 1.290886
1916 1.2784472
1914 1.2694737
1912 1.2553532
1910 1.2222632
1908 1.1716429
1906 1.1157115
1904 1.074584
1902 1.0674306
1900 1.0932415
1898 1.1386425
1896 1.1865143
1894 1.2181065
1892 1.2135903
1890 1.1573249
1888 1.0558063
1886 0.93130881
1884 0.81839317
1882 0.75203067
1880 0.74252522
1878 0.78356814
1876 0.86142701
1874 0.95919478
1872 1.0589595
1870 1.1408699
1868 1.1781106
1866 1.1477785
1864 1.0617348
1862 0.95343041
1860 0.8568781
1858 0.79754257
1856 0.77079684
1854 0.75625271
1852 0.74389696
1850 0.73211133
1848 0.71990681
1846 0.70518857
1844 0.68295121
1842 0.64895767
1840 0.61026609
1838 0.58079243
1836 0.57257283
1834 0.59325641
1832 0.63961637
1830 0.69894958
1828 0.74607879
1826 0.75317222
1824 0.71293986
1822 0.63548726
1820 0.54611981
1818 0.47459319
1816 0.43342572
1814 0.42004305
1812 0.41883332
1810 0.41070911
1808 0.39328748
1806 0.37602749
1804 0.36804137
1802 0.37464103
1800 0.39122859
1798 0.40713462
1796 0.41344714
1794 0.40331909
1792 0.37039641
1790 0.31261066
1788 0.24704571
1786 0.19962071
1784 0.17669308
1782 0.16941346
1780 0.16866885
1778 0.1704776
1776 0.18636371
1774 0.23242094
1772 0.29711735
1770 0.3473579
1768 0.34662384
1766 0.27229151
1764 0.1642762
1762 0.089470454
1760 0.033482533
1758 -0.067442164
1756 -0.20764558
1754 -0.33026701
1752 -0.41428158
1750 -0.47366288
1748 -0.52618521
1746 -0.58563608
1744 -0.65610713
1742 -0.73188037
1740 -0.79374146
1738 -0.81865782
1736 -0.80804396
1734 -0.78314018
1732 -0.76608026
1730 -0.76994151
1728 -0.77562642
1726 -0.73964691
1724 -0.61742806
1722 -0.369167
1720 0.035245016
1718 0.60656887
1716 1.2980053
1714 2.0236993
1712 2.7190199
1710 3.3627393
1708 4.0279078
1706 4.861228
1704 6.0227461
1702 7.6783361
1700 10.023001
1698 13.192487
1696 16.939285
1694 20.731409
1692 24.174719
1690 27.119762
1688 29.811852
1686 32.769558
1684 36.41024
1682 40.89291
1680 45.768761
1678 50.2299
1676 54.040329
1674 57.544437
1672 61.196491
1670 65.35511
1668 69.923584
1666 74.446953
1664 78.602249
1662 82.270622
1660 85.463509
1658 88.276062
1656 90.821541
1654 93.185661
1652 95.30928
1650 96.989006
1648 97.932228
1646 97.872108
1644 96.942886
1642 95.594017
1640 94.043739
1638 92.219955
1636 89.945488
1634 87.040535
1632 83.537628
1630 79.652893
1628 75.52095
1626 71.167343
1624 66.617676
1622 61.933525
1620 57.259144
1618 52.795597
1616 48.67157
1614 44.931843
1612 41.598671
1610 38.67878
1608 36.136124
1606 33.898941
1604 31.912292
1602 30.148886
1600 28.601383
1598 27.277269
1596 26.179501
1594 25.303596
1592 24.637617
1590 24.161654
1588 23.857269
1586 23.709023
1584 23.709349
1582 23.866089
1580 24.219116
1578 24.829741
1576 25.726086
1574 26.888214
1572 28.239174
1570 29.661442
1568 31.07884
1566 32.467598
1564 33.816166
1562 35.147934
1560 36.650646
1558 38.620789
1556 41.056126
1554 43.60606
1552 45.881199
1550 47.587841
1548 48.743637
1546 49.654716
1544 50.498913
1542 51.227928
1540 51.688759
1538 51.688969
1536 51.162113
1534 50.207752
1532 49.005695
1530 47.765759
1528 46.596886
1526 45.476601
1524 44.3312
1522 43.06599
1520 41.613228
1518 39.955727
1516 38.152157
1514 36.311977
1512 34.419762
1510 32.310356
1508 29.839655
1506 26.964849
1504 23.862635
1502 20.91021
1500 18.324926
1498 16.07444
1496 14.050571
1494 12.129148
1492 10.242489
1490 8.3952484
1488 6.598074
1486 4.8610096
1484 3.24963
1482 1.8911901
1480 0.88065982
1478 0.25826684
1476 0.067051202
1474 0.34363762
1472 0.99478084
1470 1.780823
1468 2.5267916
1466 3.1881094
1464 3.7810874
1462 4.3618546
1460 4.9794016
1458 5.6519489
1456 6.3385601
1454 6.9329886
1452 7.336194
1450 7.4892077
1448 7.4038796
1446 7.1712928
1444 6.8779397
1442 6.5748649
1440 6.2717166
1438 5.9322243
1436 5.5075841
1434 4.9558496
1432 4.2921515
1430 3.6053748
1428 2.9881001
1426 2.5102043
1424 2.2064424
1422 2.068783
1420 2.0740283
1418 2.1905534
1416 2.3849142
1414 2.626518
1412 2.9009237
1410 3.2158947
1408 3.5810492
1406 3.9995759
1404 4.4622335
1402 4.9433193
1400 5.4103317
1398 5.8271866
1396 6.1622572
1394 6.3936672
1392 6.5125475
1390 6.5258045
1388 6.442616
1386 6.2711101
1384 6.0236535
1382 5.719471
1380 5.379333
1378 5.0217552
1376 4.65376
1374 4.2670655
1372 3.8573802
1370 3.4312263
1368 2.9948468
1366 2.5493214
1364 2.0892131
1362 1.6051056
1360 1.1114125
1358 0.65969402
1356 0.30303898
1354 0.079503544
1352 -0.0017361509
1350 0.029402338
1348 0.14165425
1346 0.31617677
1344 0.54072243
1342 0.80710393
1340 1.09582
1338 1.3674135
1336 1.5768714
1334 1.6821505
1332 1.6708955
1330 1.577858
1328 1.4471874
1326 1.3193364
1324 1.2266603
1322 1.1888213
1320 1.2154634
1318 1.3028389
1316 1.43458
1314 1.5782071
1312 1.7010691
1310 1.7781682
1308 1.798362
1306 1.7721229
1304 1.7184812
1302 1.661944
1300 1.6237191
1298 1.6162993
1296 1.6475714
1294 1.7208216
1292 1.83946
1290 2.0077336
1288 2.224252
1286 2.4766815
1284 2.7470057
1282 3.0117183
1280 3.2533915
1278 3.4676526
1276 3.6576142
1274 3.834388
1272 4.0111976
1270 4.2013521
1268 4.4171839
1266 4.669004
1264 4.9651737
1262 5.3108239
1260 5.70859
1258 6.1572657
1256 6.6547084
1254 7.1988072
1252 7.7887573
1250 8.4258242
1248 9.1088209
1246 9.8301754
1244 10.575677
1242 11.319673
1240 12.028926
1238 12.65938
1236 13.168171
1234 13.520632
1232 13.69488
1230 13.689122
1228 13.508198
1226 13.16675
1224 12.681005
1222 12.066301
1220 11.346254
1218 10.558481
1216 9.7494202
1214 8.9745798
1212 8.2810402
1210 7.6919518
1208 7.2080655
1206 6.7954712
1204 6.4086318
1202 5.9964476
1200 5.5214276
1198 4.9784541
1196 4.3818927
1194 3.769573
1192 3.1768527
1190 2.621547
1188 2.1126873
1186 1.6503607
1184 1.238622
1182 0.89456272
1180 0.63596815
1178 0.47352251
1176 0.404208
1174 0.39859581
1172 0.42090449
1170 0.43687284
1168 0.42634833
1166 0.39993513
1164 0.3773194
1162 0.38073638
1160 0.42082036
1158 0.48041826
1156 0.53349584
1154 0.54993296
1152 0.50859547
1150 0.4120141
1148 0.275233
1146 0.12937321
1144 0.010147259
1142 -0.046944786
1140 -0.023639124
1138 0.058863968
1136 0.17709401
1134 0.32378569
1132 0.49012405
1130 0.65550232
1128 0.80536062
1126 0.94687992
1124 1.0964348
1122 1.2790828
1120 1.512344
1118 1.7906972
1116 2.0988042
1114 2.4126439
1112 2.7132189
1110 2.9983995
1108 3.2673421
1106 3.51246
1104 3.7290835
1102 3.9244745
1100 4.114696
1098 4.3305731
1096 4.601357
1094 4.9436412
1092 5.3639398
1090 5.8510842
1088 6.3813262
1086 6.9098949
1084 7.3873386
1082 7.7665267
1080 8.0153952
1078 8.1405382
1076 8.1647854
1074 8.1301107
1072 8.0775032
1070 8.0328789
1068 8.0121031
1066 8.0120363
1064 8.0223598
1062 8.0251007
1060 8.0037832
1058 7.9510379
1056 7.8641372
1054 7.7469082
1052 7.601789
1050 7.4236908
1048 7.2082391
1046 6.9583216
1044 6.6845131
1042 6.4135938
1040 6.1716628
1038 5.9711628
1036 5.81566
1034 5.6919374
1032 5.5811176
1030 5.4598994
1028 5.3027039
1026 5.0808983
1024 4.7748222
1022 4.393239
1020 3.9605057
1018 3.526896
1016 3.1372714
1014 2.8007283
1012 2.507936
1010 2.2203012
1008 1.902312
1006 1.5496393
1004 1.1734091
1002 0.80960727
1000 0.49658036
998 0.26051691
996 0.11496565
994 0.042636372
992 0.01287232
990 -0.022707872
988 -0.10518974
986 -0.23761651
984 -0.40477204
982 -0.56282878
980 -0.66707546
978 -0.69332248
976 -0.63016599
974 -0.49187118
972 -0.30234361
970 -0.096409447
968 0.090276033
966 0.22871351
964 0.29873285
962 0.3048037
960 0.26093686
958 0.19293547
956 0.125424
954 0.068887025
952 0.028948272
950 0.0063523385
948 -0.0013685708
946 -0.0035677322
944 -0.0049524484
942 0.012170594
940 0.062941842
938 0.13323399
936 0.19884914
934 0.22571932
932 0.18835419
930 0.1018586
928 -0.0017511174
926 -0.065569177
924 -0.038986467
922 0.081627712
920 0.27674812
918 0.48378539
916 0.63935369
914 0.7182501
912 0.71622616
910 0.67312402
908 0.63484854
906 0.62798941
904 0.66289222
902 0.70510703
900 0.72069478
898 0.72236735
896 0.73448002
