Image.
>Pix99999.
  .
5555
5555
2300
900
5555
2
1
0
701
5555
-4.0495001e-002
-4.1337792e-002
-4.2179588e-002
-4.3022383e-002
-4.3865174e-002
-4.4706982e-002
-4.5549765e-002
-4.6392560e-002
-4.7234368e-002
-4.8076164e-002
-4.8918940e-002
-4.9762722e-002
-5.0604548e-002
-5.1442418e-002
-5.2289039e-002
-5.3146593e-002
-5.3974077e-002
-5.4759912e-002
-5.5656832e-002
-5.6710254e-002
-5.7350028e-002
-5.7406802e-002
-5.9003238e-002
-6.2769793e-002
-6.0815848e-002
-4.3243106e-002
-1.5820999e-003
6.8253741e-002
1.5437567e-001
2.4340250e-001
3.3407557e-001
4.1955933e-001
4.5645371e-001
4.0471810e-001
2.8048745e-001
1.1968651e-001
-2.8140424e-002
-1.1873675e-001
-1.4442161e-001
-1.1140908e-001
-3.8102459e-002
5.4403495e-002
1.4836280e-001
2.3207098e-001
3.1412882e-001
4.0777114e-001
5.2027452e-001
6.5191394e-001
7.8239208e-001
8.8759500e-001
9.5339572e-001
9.7078729e-001
9.3820584e-001
8.6165959e-001
7.6849228e-001
6.9147629e-001
6.5786558e-001
6.8214452e-001
7.3454010e-001
7.7587169e-001
7.8673887e-001
7.6422602e-001
7.4497539e-001
7.7056539e-001
8.5002518e-001
9.7490746e-001
1.1105300e+000
1.2203394e+000
1.2945223e+000
1.3334007e+000
1.3410400e+000
1.3209227e+000
1.2704234e+000
1.1879581e+000
1.0835797e+000
9.7332674e-001
8.7885022e-001
8.2294607e-001
8.2521498e-001
8.9775807e-001
1.0269097e+000
1.1866270e+000
1.3378402e+000
1.4445125e+000
1.4999720e+000
1.5117863e+000
1.5011095e+000
1.4868897e+000
1.4605325e+000
1.4062871e+000
1.3210814e+000
1.2129431e+000
1.1165068e+000
1.0705416e+000
1.0905057e+000
1.1752971e+000
1.2935274e+000
1.4060047e+000
1.4876200e+000
1.5269904e+000
1.5446429e+000
1.5690486e+000
1.6100469e+000
1.6662922e+000
1.7216434e+000
1.7591250e+000
1.7812715e+000
1.7967530e+000
1.8068652e+000
1.8082156e+000
1.7905843e+000
1.7448920e+000
1.6786040e+000
1.6055295e+000
1.5396880e+000
1.4910915e+000
1.4555681e+000
1.4257638e+000
1.4060174e+000
1.4049920e+000
1.4282686e+000
1.4741089e+000
1.5159763e+000
1.5206920e+000
1.4699235e+000
1.3584750e+000
1.2079420e+000
1.0511025e+000
9.2141318e-001
8.4780419e-001
8.4238899e-001
9.0715849e-001
1.0323883e+000
1.2012269e+000
1.3867306e+000
1.5570893e+000
1.6790372e+000
1.7249091e+000
1.6938686e+000
1.5995281e+000
1.4663200e+000
1.3224273e+000
1.1949919e+000
1.1088891e+000
1.0824771e+000
1.1221179e+000
1.1961186e+000
1.2597049e+000
1.2887601e+000
1.2800547e+000
1.2747715e+000
1.3223767e+000
1.4221057e+000
1.5436223e+000
1.6372000e+000
1.6564450e+000
1.6027440e+000
1.5032901e+000
1.3958417e+000
1.3182728e+000
1.2941915e+000
1.3335110e+000
1.4198598e+000
1.5208089e+000
1.5890348e+000
1.5775315e+000
1.4689503e+000
1.2702380e+000
1.0270553e+000
8.0017704e-001
6.3702875e-001
5.6720412e-001
5.7839948e-001
6.3579768e-001
6.9713283e-001
7.2661251e-001
7.2616017e-001
7.1808654e-001
7.2778702e-001
7.7351487e-001
8.4235084e-001
9.0588361e-001
9.3963438e-001
9.2589396e-001
8.6167830e-001
7.5633025e-001
6.3989592e-001
5.5049658e-001
5.1579636e-001
5.5000991e-001
6.3719416e-001
7.4605447e-001
8.4759146e-001
9.1652340e-001
9.3233871e-001
8.8402253e-001
7.9154241e-001
6.9401675e-001
6.3966799e-001
6.6927636e-001
7.7522284e-001
9.1859329e-001
1.0446987e+000
1.1002390e+000
1.0660480e+000
9.5024049e-001
7.9270017e-001
6.4464271e-001
5.3495562e-001
4.7195926e-001
4.3735301e-001
4.0348870e-001
3.6434570e-001
3.3004674e-001
3.1957686e-001
3.4932849e-001
4.0690377e-001
4.6165749e-001
4.8015118e-001
4.3560195e-001
3.3045512e-001
1.8891028e-001
5.3038925e-002
-3.2495294e-002
-5.1972482e-002
-1.2960736e-002
5.6892227e-002
1.2412605e-001
1.7613330e-001
2.1665923e-001
2.5911728e-001
3.2014349e-001
4.1025513e-001
5.2975148e-001
6.5271223e-001
7.3904783e-001
7.5810456e-001
6.9465530e-001
5.6734580e-001
4.1462308e-001
2.6930001e-001
1.5447158e-001
7.6905273e-002
3.5856888e-002
4.2047709e-002
1.0738655e-001
2.0951283e-001
3.0258232e-001
3.4245977e-001
3.0242658e-001
2.1657571e-001
1.5395516e-001
1.5798479e-001
2.4480999e-001
4.0843061e-001
6.2728679e-001
8.6557645e-001
1.0807979e+000
1.2377329e+000
1.3133531e+000
1.3131458e+000
1.2602017e+000
1.1713905e+000
1.0529175e+000
8.9477056e-001
6.8577003e-001
4.5843861e-001
2.6227427e-001
7.4419774e-002
-1.6019654e-001
-3.8523015e-001
-4.7451791e-001
-3.8726395e-001
-1.7239872e-001
4.9800195e-002
1.3438606e-001
1.7705996e-002
-2.7462029e-001
-6.0903251e-001
-8.0509782e-001
-7.9521400e-001
-6.2277400e-001
-4.0691519e-001
-2.8817049e-001
-3.0331698e-001
-3.9271036e-001
-4.4449109e-001
-3.2328761e-001
8.7452963e-002
8.4518301e-001
1.8174558e+000
2.7506566e+000
3.5014749e+000
4.0651793e+000
4.5816159e+000
5.2885814e+000
6.4266768e+000
8.2155390e+000
1.0835302e+001
1.4353726e+001
1.8443001e+001
2.2507219e+001
2.6155336e+001
2.9296026e+001
3.2241474e+001
3.5564247e+001
3.9679676e+001
4.4702312e+001
5.0159199e+001
5.5252556e+001
5.9808956e+001
6.4242378e+001
6.8931046e+001
7.4028038e+001
7.9220863e+001
8.3887398e+001
8.7705956e+001
9.0690346e+001
9.2938141e+001
9.4558685e+001
9.5639969e+001
9.6243950e+001
9.6402786e+001
9.6119102e+001
9.5354248e+001
9.4071960e+001
9.2400749e+001
9.0584740e+001
8.8706062e+001
8.6661263e+001
8.4272713e+001
8.1366470e+001
7.7949081e+001
7.4179710e+001
7.0137451e+001
6.5801262e+001
6.1175240e+001
5.6325184e+001
5.1415653e+001
4.6682232e+001
4.2298603e+001
3.8360325e+001
3.4928169e+001
3.2028091e+001
2.9613617e+001
2.7579601e+001
2.5850914e+001
2.4397831e+001
2.3221041e+001
2.2337450e+001
2.1737000e+001
2.1379354e+001
2.1221193e+001
2.1228146e+001
2.1393078e+001
2.1733393e+001
2.2253281e+001
2.2949610e+001
2.3877703e+001
2.5154329e+001
2.6893343e+001
2.9158476e+001
3.1850075e+001
3.4717812e+001
3.7552361e+001
4.0231800e+001
4.2702965e+001
4.5008404e+001
4.7404491e+001
5.0261944e+001
5.3472313e+001
5.6408058e+001
5.8523468e+001
5.9553463e+001
5.9647724e+001
5.9294144e+001
5.8728001e+001
5.7826897e+001
5.6427402e+001
5.4447453e+001
5.2052570e+001
4.9636387e+001
4.7454437e+001
4.5534840e+001
4.3784508e+001
4.2026649e+001
4.0077515e+001
3.7797932e+001
3.5217243e+001
3.2554195e+001
3.0063572e+001
2.7943321e+001
2.6110161e+001
2.4190754e+001
2.1928137e+001
1.9315664e+001
1.6586931e+001
1.4153387e+001
1.2209748e+001
1.0643872e+001
9.2867289e+000
7.9939404e+000
6.6982188e+000
5.4175572e+000
4.1662378e+000
2.9423935e+000
1.7980859e+000
8.5023052e-001
1.9279732e-001
-1.1956657e-001
-3.4987181e-003
6.3920635e-001
1.7424840e+000
3.0408270e+000
4.3064590e+000
5.4306602e+000
6.4107132e+000
7.3456354e+000
8.3405790e+000
9.4603443e+000
1.0657400e+001
1.1754021e+001
1.2575272e+001
1.3006084e+001
1.3038394e+001
1.2782143e+001
1.2348980e+001
1.1809071e+001
1.1189491e+001
1.0474286e+001
9.6382570e+000
8.6670790e+000
7.6059666e+000
6.5738349e+000
5.6771579e+000
4.9766130e+000
4.4874477e+000
4.1776600e+000
4.0165782e+000
3.9909291e+000
4.0975027e+000
4.3385091e+000
4.6999006e+000
5.1433616e+000
5.6285892e+000
6.1192207e+000
6.5742693e+000
6.9445467e+000
7.1802640e+000
7.2399492e+000
7.1217141e+000
6.8790731e+000
6.5766644e+000
6.2716122e+000
5.9858809e+000
5.6948452e+000
5.3828249e+000
5.0617404e+000
4.7434273e+000
4.4274483e+000
4.0947886e+000
3.7063935e+000
3.2433879e+000
2.7240739e+000
2.1734581e+000
1.6130686e+000
1.0587826e+000
5.2335846e-001
4.3295205e-002
-3.1074110e-001
-4.8176914e-001
-4.5009193e-001
-2.2614868e-001
1.4570156e-001
6.1711788e-001
1.1473253e+000
1.7079520e+000
2.2859049e+000
2.8603730e+000
3.3894119e+000
3.8101344e+000
4.0402794e+000
4.0341797e+000
3.8168039e+000
3.4462543e+000
3.0084963e+000
2.5907698e+000
2.2665100e+000
2.0728490e+000
1.9888011e+000
1.9627200e+000
1.9185225e+000
1.8012623e+000
1.6040672e+000
1.3479774e+000
1.0820936e+000
8.5323602e-001
6.9180989e-001
6.1582398e-001
6.2799990e-001
7.2816288e-001
9.1745770e-001
1.1994071e+000
1.5799687e+000
2.0577919e+000
2.6158850e+000
3.2223091e+000
3.8245122e+000
4.3663597e+000
4.7963061e+000
5.0834970e+000
5.2352500e+000
5.2853050e+000
5.2993722e+000
5.3462672e+000
5.4844465e+000
5.7531514e+000
6.1594920e+000
6.6945844e+000
7.3342605e+000
8.0554056e+000
8.8435841e+000
9.6889248e+000
1.0586422e+001
1.1530645e+001
1.2513750e+001
1.3519809e+001
1.4518223e+001
1.5461805e+001
1.6276403e+001
1.6885542e+001
1.7222900e+001
1.7241840e+001
1.6929207e+001
1.6294821e+001
1.5377299e+001
1.4232348e+001
1.2934917e+001
1.1577117e+001
1.0271885e+001
9.1239109e+000
8.2115040e+000
7.5816736e+000
7.2280684e+000
7.1146202e+000
7.1680408e+000
7.2948799e+000
7.3800626e+000
7.3172569e+000
7.0341630e+000
6.5033641e+000
5.7767091e+000
4.9328661e+000
4.0663052e+000
3.2578461e+000
2.5506537e+000
1.9707944e+000
1.5255902e+000
1.2124814e+000
1.0171163e+000
9.2010403e-001
8.9835411e-001
9.3410403e-001
1.0233248e+000
1.1635634e+000
1.3473229e+000
1.5542114e+000
1.7393401e+000
1.8575331e+000
1.8794678e+000
1.7973557e+000
1.6434938e+000
1.4542811e+000
1.2525244e+000
1.0477109e+000
8.2796603e-001
5.9152669e-001
3.7018073e-001
1.8820350e-001
3.4115478e-002
-1.0615898e-001
-2.3268990e-001
-3.4073436e-001
-4.2194322e-001
-4.6638966e-001
-4.6387264e-001
-4.1776055e-001
-3.6316541e-001
-3.3245841e-001
-3.3095115e-001
-3.4092343e-001
-3.0642036e-001
-1.8464753e-001
1.0451108e-002
2.3807332e-001
4.2766500e-001
5.3305387e-001
5.8827990e-001
6.5445089e-001
8.0938947e-001
1.1051999e+000
1.5174009e+000
1.9988600e+000
2.4923525e+000
2.9474492e+000
3.3370523e+000
3.6423516e+000
3.8501050e+000
3.9503286e+000
3.9380441e+000
3.8141716e+000
3.5940642e+000
3.3074977e+000
3.0130811e+000
2.7715025e+000
2.6286085e+000
2.6124122e+000
2.7107599e+000
2.8949580e+000
3.1170015e+000
3.3255057e+000
3.4743195e+000
3.5337186e+000
3.5157120e+000
3.4399102e+000
3.3180141e+000
3.1560197e+000
2.9513886e+000
2.7193875e+000
2.5303700e+000
2.4529099e+000
2.5084176e+000
2.6812434e+000
2.8804021e+000
3.0148070e+000
3.0467906e+000
2.9710858e+000
2.8381450e+000
2.6996415e+000
2.5696328e+000
2.4387772e+000
2.2569776e+000
1.9821005e+000
1.6274530e+000
1.2298312e+000
8.5580415e-001
5.6180978e-001
3.4944445e-001
2.0434210e-001
1.0372661e-001
1.6597569e-002
-1.0707742e-001
-3.1221449e-001
-6.1112833e-001
-9.8413259e-001
-1.3351929e+000
-1.5654080e+000
-1.6294080e+000
-1.5236580e+000
-1.3391253e+000
-1.1722457e+000
-1.0611081e+000
-1.0068774e+000
-9.3767291e-001
-7.8564340e-001
-5.5851448e-001
-2.9649639e-001
-8.5795902e-002
-3.7325583e-003
-5.7327628e-002
-2.2087657e-001
-4.1569287e-001
-5.5408162e-001
-5.6383014e-001
-4.0775061e-001
-1.5788604e-001
1.1079937e-001
4.0896124e-001
7.4747831e-001
1.0622211e+000
1.2903628e+000
1.4414821e+000
1.5432777e+000
1.6241614e+000
1.7140422e+000
1.8484628e+000
2.0528519e+000
2.3105929e+000
2.5952115e+000
2.8810978e+000
3.1544542e+000
3.4454315e+000
3.7821498e+000
4.1445627e+000
4.4894829e+000
4.7308574e+000
4.7938046e+000
4.6892390e+000
4.4653301e+000
4.2314296e+000
4.1124001e+000
