Image.
>Pix99999.
  .
5555
5555
2300
900
5555
2
1
0
701
5555
-4.2133000e-002
-4.3008748e-002
-4.3885492e-002
-4.4762239e-002
-4.5638982e-002
-4.6514735e-002
-4.7391474e-002
-4.8268221e-002
-4.9144965e-002
-5.0021712e-002
-5.0897472e-002
-5.1774200e-002
-5.2650951e-002
-5.3527694e-002
-5.4403462e-002
-5.5280186e-002
-5.6156933e-002
-5.7033677e-002
-5.7909448e-002
-5.8786169e-002
-5.9662912e-002
-6.0539659e-002
-6.1415438e-002
-6.2292151e-002
-6.3168898e-002
-6.4045638e-002
5.3114269e-002
2.2230644e-003
-7.4601606e-002
-2.4529703e-001
-4.2986026e-001
-4.8279503e-001
-5.2328050e-001
-4.9810651e-001
-4.8031980e-001
-5.4717702e-001
-6.1682701e-001
-6.8010843e-001
-7.1052527e-001
-6.4217454e-001
-5.5818999e-001
-4.5219350e-001
-3.7179041e-001
-3.3519551e-001
-3.3350360e-001
-3.7194106e-001
-4.1709000e-001
-4.6616316e-001
-4.7209734e-001
-4.4557109e-001
-3.9360285e-001
-3.2827187e-001
-2.8021839e-001
-2.4018525e-001
-2.1230976e-001
-1.8819866e-001
-2.3496960e-001
-2.9796100e-001
-4.3062535e-001
-5.7233626e-001
-6.1473829e-001
-6.3976330e-001
-5.7157242e-001
-5.0031197e-001
-4.6233988e-001
-4.3832293e-001
-4.5364311e-001
-4.6683592e-001
-4.6448275e-001
-4.4613454e-001
-4.0027699e-001
-3.6440825e-001
-3.4713888e-001
-3.4137702e-001
-3.4644350e-001
-3.2240358e-001
-2.7166834e-001
-2.1504880e-001
-1.5637983e-001
-1.1215078e-001
-7.5839199e-002
-5.3408038e-002
-3.6210079e-002
-1.0300107e-001
-1.9636920e-001
-3.2707971e-001
-4.6612316e-001
-4.3410113e-001
-3.6845544e-001
-1.8265542e-001
4.0962566e-003
7.1042195e-002
9.5182113e-002
7.4117044e-003
-8.6726256e-002
-1.5074316e-001
-1.8809949e-001
-1.7680494e-001
-1.5463199e-001
-1.2648132e-001
-9.7878002e-002
-7.0230484e-002
-4.7650658e-002
-3.0198466e-002
-4.5118615e-002
-8.5467853e-002
-1.4438187e-001
-2.1296918e-001
-2.6036400e-001
-2.9633141e-001
-3.2537216e-001
-3.5226297e-001
-3.4061560e-001
-3.1682697e-001
-2.3385395e-001
-1.3852051e-001
-9.1830485e-002
-6.0375132e-002
-7.6118462e-002
-9.8666400e-002
-1.0709315e-001
-1.1009477e-001
-1.0660611e-001
-9.8965630e-002
-8.7409958e-002
-8.2842179e-002
-9.5119745e-002
-1.2543382e-001
-1.7504285e-001
-2.4593411e-001
-3.3441186e-001
-4.3965128e-001
-5.5861348e-001
-6.2769377e-001
-6.5774781e-001
-6.0701883e-001
-5.1020908e-001
-3.9630246e-001
-2.7804634e-001
-2.3671409e-001
-2.2651200e-001
-3.3805189e-001
-4.8714978e-001
-6.3206482e-001
-7.6832467e-001
-8.1213087e-001
-8.2601124e-001
-8.0290872e-001
-7.6412916e-001
-7.0870137e-001
-6.5306711e-001
-6.1611170e-001
-6.2322229e-001
-7.0911533e-001
-8.2318521e-001
-9.3963248e-001
-1.0084627e+000
-1.0107157e+000
-9.9185741e-001
-9.7189194e-001
-9.6688086e-001
-9.7907311e-001
-9.0049976e-001
-7.5218165e-001
-5.1706445e-001
-2.3449856e-001
-1.0575794e-001
-5.8762200e-002
-1.7175961e-001
-3.4894478e-001
-4.8171356e-001
-5.9221810e-001
-6.1400557e-001
-6.0209316e-001
-5.8295512e-001
-5.7501251e-001
-6.3088661e-001
-7.1635854e-001
-7.9609340e-001
-8.5622078e-001
-8.6036432e-001
-8.4722018e-001
-8.4714258e-001
-8.4104985e-001
-8.3361483e-001
-7.3045439e-001
-5.1151329e-001
-1.9813804e-001
1.9222754e-001
4.3526891e-001
5.4250085e-001
4.9342081e-001
3.4701377e-001
2.0784982e-001
8.1146255e-002
-1.1228640e-001
-3.4100360e-001
-5.4851776e-001
-7.4015707e-001
-6.9586176e-001
-5.4825854e-001
-2.9316548e-001
-2.1892134e-002
9.6389815e-002
1.0271717e-001
-9.7290106e-002
-3.8674444e-001
-7.0953715e-001
-9.8978472e-001
-1.1539383e+000
-1.1711100e+000
-1.0150455e+000
-6.9296825e-001
-2.2104122e-001
1.5773684e-001
3.9015928e-001
2.7908725e-001
-1.2458189e-001
-5.8206046e-001
-1.0301151e+000
-1.2906115e+000
-1.4194292e+000
-1.3558880e+000
-1.1911457e+000
-8.8007563e-001
-5.0528181e-001
-2.7694044e-001
-1.4640981e-001
-2.8031242e-001
-5.2618146e-001
-7.4303317e-001
-9.0024364e-001
-8.9006162e-001
-7.7175480e-001
-5.1124418e-001
-2.6129901e-001
-1.4904931e-001
-2.0795049e-001
-5.1367623e-001
-8.7857622e-001
-1.2087212e+000
-1.4013610e+000
-1.4274231e+000
-1.3693051e+000
-1.2690023e+000
-1.1353750e+000
-9.7709179e-001
-7.2672272e-001
-4.0977725e-001
-4.5072854e-002
3.4230429e-001
6.3923198e-001
8.8451040e-001
9.0025359e-001
7.9344237e-001
6.2595558e-001
4.4988719e-001
4.1426209e-001
4.8983780e-001
7.3248351e-001
1.0707234e+000
1.4316701e+000
1.6784363e+000
1.5994645e+000
1.2849343e+000
8.1795305e-001
4.1478902e-001
2.3717678e-001
7.8213885e-002
-9.0103626e-002
-1.3635172e-001
-5.4061566e-002
3.7457407e-001
1.1545044e+000
1.9935728e+000
2.7922499e+000
3.0552092e+000
2.8479507e+000
2.5751939e+000
2.3203008e+000
2.4476199e+000
2.8465099e+000
2.8518476e+000
2.5501120e+000
1.7173052e+000
6.1105633e-001
-1.0211802e-001
-3.9706880e-001
1.1949173e-001
1.2747756e+000
2.9057486e+000
4.5106487e+000
5.4358139e+000
5.9617581e+000
6.3413620e+000
7.0651021e+000
8.5243053e+000
1.0887127e+001
1.4191243e+001
1.7815985e+001
2.1439857e+001
2.4432999e+001
2.6631496e+001
2.8737385e+001
3.0954412e+001
3.4083214e+001
3.8102493e+001
4.2480255e+001
4.7068478e+001
5.0789974e+001
5.3770256e+001
5.6965317e+001
6.0398808e+001
6.4478874e+001
6.8993744e+001
7.3269653e+001
7.7329704e+001
8.1114807e+001
8.4674553e+001
8.8048927e+001
9.1285599e+001
9.4430519e+001
9.7345901e+001
9.9899643e+001
1.0119949e+002
1.0063643e+002
9.8688339e+001
9.5848991e+001
9.2659683e+001
8.9435143e+001
8.5756531e+001
8.1524101e+001
7.7063042e+001
7.2534744e+001
6.8353111e+001
6.4540131e+001
6.0730442e+001
5.6858051e+001
5.3000378e+001
4.9163406e+001
4.5344799e+001
4.1578785e+001
3.8030018e+001
3.4767281e+001
3.1981241e+001
2.9650942e+001
2.7642828e+001
2.5947065e+001
2.4496819e+001
2.3319471e+001
2.2407000e+001
2.1735338e+001
2.1246616e+001
2.0888893e+001
2.0598957e+001
2.0451765e+001
2.0477720e+001
2.0797911e+001
2.1441610e+001
2.2458080e+001
2.3849428e+001
2.5380436e+001
2.6996334e+001
2.8385681e+001
2.9493559e+001
3.0517206e+001
3.1482895e+001
3.2883400e+001
3.4831181e+001
3.7712585e+001
4.1399757e+001
4.4575912e+001
4.7120213e+001
4.8790581e+001
4.9829899e+001
5.1110001e+001
5.2670650e+001
5.4529778e+001
5.6067280e+001
5.6491405e+001
5.5731800e+001
5.3885677e+001
5.1755295e+001
5.0052959e+001
4.8821514e+001
4.8076099e+001
4.7458809e+001
4.6786846e+001
4.5503136e+001
4.3399357e+001
4.0995354e+001
3.8413944e+001
3.6173962e+001
3.4351379e+001
3.2129738e+001
2.9318707e+001
2.6135218e+001
2.2626062e+001
1.9662357e+001
1.7344931e+001
1.5251286e+001
1.3378786e+001
1.1562080e+001
9.7744007e+000
7.9740295e+000
6.1426554e+000
4.2467780e+000
2.4925742e+000
1.1115568e+000
2.4049065e-001
3.6564730e-003
3.5627216e-001
1.2457137e+000
2.1068830e+000
2.6309614e+000
2.9839993e+000
3.1638978e+000
3.5176549e+000
4.2192626e+000
5.0942903e+000
6.1672001e+000
6.8430738e+000
6.9164748e+000
6.6919270e+000
6.0918283e+000
5.5295677e+000
5.0285048e+000
4.6481018e+000
4.4282351e+000
4.3723364e+000
4.4440570e+000
4.4611282e+000
4.3441129e+000
4.0093651e+000
3.5552881e+000
3.1884472e+000
2.9981468e+000
3.0750549e+000
3.3226483e+000
3.6463556e+000
3.9028344e+000
3.9488599e+000
3.9290240e+000
3.8748410e+000
3.9035914e+000
4.0952702e+000
4.3840518e+000
4.8220549e+000
5.2956200e+000
5.8124371e+000
6.2346001e+000
6.4893212e+000
6.5674067e+000
6.4006515e+000
6.1417923e+000
5.7598801e+000
5.3507504e+000
4.9218435e+000
4.5678244e+000
4.3114448e+000
4.1592112e+000
4.0692358e+000
3.9509799e+000
3.7864797e+000
3.5425034e+000
3.2494001e+000
2.9091735e+000
2.4952989e+000
1.9866207e+000
1.4360580e+000
9.0106487e-001
4.6232352e-001
1.9455442e-001
3.0094963e-002
-2.8885383e-002
-5.7085361e-002
5.1109038e-002
2.6021585e-001
6.4405286e-001
9.6964121e-001
1.1640258e+000
1.1406925e+000
8.0520421e-001
4.7377908e-001
1.9223912e-001
9.9239342e-002
2.5654304e-001
5.6595874e-001
1.0240563e+000
1.4954541e+000
1.9296901e+000
2.2212977e+000
2.3687549e+000
2.3656287e+000
2.2674532e+000
2.1185429e+000
1.9430137e+000
1.7582409e+000
1.5700797e+000
1.4028739e+000
1.2659000e+000
1.2125119e+000
1.2128483e+000
1.3155643e+000
1.4276561e+000
1.5307835e+000
1.5887297e+000
1.5408938e+000
1.4810600e+000
1.4040014e+000
1.3719571e+000
1.4194330e+000
1.5076743e+000
1.6509877e+000
1.7962794e+000
1.9497601e+000
2.1041613e+000
2.2744269e+000
2.4712980e+000
2.7034681e+000
2.9755943e+000
3.2912626e+000
3.6529021e+000
4.0498128e+000
4.4671063e+000
4.8808250e+000
5.2591562e+000
5.6054015e+000
5.8974071e+000
6.1601410e+000
6.3732314e+000
6.5433617e+000
6.5998158e+000
6.5914469e+000
6.4076552e+000
6.1827378e+000
5.8512006e+000
5.4991860e+000
5.1001620e+000
4.6844130e+000
4.2368946e+000
3.7807114e+000
3.3079052e+000
2.8266392e+000
2.3376732e+000
1.8637178e+000
1.4138319e+000
9.9182546e-001
5.9615135e-001
2.0968306e-001
-1.6295207e-001
-4.9960101e-001
-8.0444729e-001
-1.0609390e+000
-1.2918925e+000
-1.5037507e+000
-1.6967875e+000
-1.8381120e+000
-1.9400523e+000
-1.9334686e+000
-1.8889000e+000
-1.7529213e+000
-1.6028976e+000
-1.4147317e+000
-1.2195017e+000
-9.9710977e-001
-7.5628966e-001
-4.7006011e-001
-1.7426965e-001
1.3305463e-001
4.0192997e-001
5.9668088e-001
7.1168578e-001
7.1184266e-001
6.3968998e-001
4.8876536e-001
3.1221640e-001
1.3106254e-001
3.4362927e-002
2.1709129e-002
1.6143057e-001
3.9329129e-001
7.4727356e-001
1.1471376e+000
1.5402263e+000
1.9308665e+000
2.3151557e+000
2.6912632e+000
3.0312040e+000
3.3492126e+000
3.5687230e+000
3.7711976e+000
3.9085269e+000
4.0312772e+000
4.1104255e+000
4.2050052e+000
4.3452859e+000
4.5518723e+000
4.8873000e+000
5.2415466e+000
5.6163859e+000
5.9351401e+000
6.1844001e+000
6.4164867e+000
6.6364450e+000
6.8838849e+000
7.1510248e+000
7.4139028e+000
7.6714053e+000
7.9159441e+000
8.1453905e+000
8.3109245e+000
8.4353971e+000
8.4093170e+000
8.3485641e+000
8.2716074e+000
8.2091722e+000
8.2679472e+000
8.3312426e+000
8.3849487e+000
8.4173746e+000
8.3565788e+000
8.2919083e+000
8.2158022e+000
8.1600294e+000
8.1528111e+000
8.1444693e+000
8.1334085e+000
8.0991602e+000
8.0312748e+000
7.9483199e+000
7.8406363e+000
7.6618848e+000
7.4108238e+000
7.0753326e+000
6.6829491e+000
6.3035340e+000
5.9326811e+000
5.5746517e+000
5.2171621e+000
4.8039460e+000
4.3662591e+000
3.8239005e+000
3.2561493e+000
2.6049480e+000
1.9579849e+000
1.4469403e+000
9.7047043e-001
7.2351438e-001
4.8777103e-001
2.9982856e-001
8.8025510e-002
-1.9712034e-001
-5.0172347e-001
-8.4972894e-001
-1.1921422e+000
-1.5236959e+000
-1.8053362e+000
-2.0153759e+000
-2.1125460e+000
-2.0861144e+000
-1.9428235e+000
-1.7035345e+000
-1.4080100e+000
-1.0785733e+000
-7.3204398e-001
-3.8136733e-001
-9.6966848e-002
1.5604994e-001
1.7804068e-001
1.4371064e-001
-6.4072400e-002
-2.8509599e-001
-3.2781956e-001
-3.4545872e-001
-1.1386286e-001
7.5767934e-003
2.2778715e-001
4.3210757e-001
5.6822515e-001
7.4532002e-001
1.0420835e+000
1.3667922e+000
1.7490557e+000
2.0526776e+000
2.2302549e+000
2.3812680e+000
2.5004978e+000
2.6733282e+000
2.8952341e+000
3.0492270e+000
3.1547375e+000
3.1648142e+000
3.1217160e+000
3.0132198e+000
2.8749607e+000
2.6316319e+000
2.3588676e+000
2.3747754e+000
2.4372106e+000
3.2832999e+000
