Image.
>Pix99999.
  .
5555
5555
2300
900
5555
2
1
0
701
5555
6.0179001e-003
6.1431206e-003
6.2683420e-003
6.3934629e-003
6.5186834e-003
6.6439039e-003
6.7691253e-003
6.8943459e-003
7.0195668e-003
7.1446886e-003
7.2699087e-003
7.3950314e-003
7.5202505e-003
7.6455693e-003
7.7707921e-003
7.8959148e-003
8.0211330e-003
8.1463549e-003
8.2714772e-003
8.3966963e-003
8.5219173e-003
8.6471383e-003
8.7722624e-003
8.8974796e-003
9.0227006e-003
9.1479216e-003
3.3994630e-004
8.8235112e-003
1.5301821e-002
2.4420910e-002
3.3960029e-002
4.6121463e-002
5.8406577e-002
6.9265574e-002
8.0462396e-002
9.4974905e-002
1.1130451e-001
1.3521293e-001
1.6097508e-001
1.9120905e-001
2.1075828e-001
2.0642678e-001
1.8327621e-001
1.3172846e-001
8.3677061e-002
4.2170290e-002
1.6530361e-002
5.7798624e-003
1.0711303e-003
1.4696046e-004
6.2217820e-003
1.6189704e-002
4.0119588e-002
7.0060723e-002
9.4647080e-002
1.1736193e-001
1.0959040e-001
9.4832622e-002
6.2604994e-002
2.7805364e-002
-8.3505139e-003
-4.4261131e-002
-7.6052785e-002
-1.0427432e-001
-1.1426754e-001
-1.1847622e-001
-1.0804294e-001
-9.1411494e-002
-6.2637337e-002
-2.2770245e-002
3.5777599e-002
9.0617441e-002
1.3729030e-001
1.6021988e-001
1.5738566e-001
1.4163928e-001
1.1688355e-001
8.7962270e-002
5.6807864e-002
3.0284643e-002
6.4049601e-003
6.6256677e-003
1.6866017e-002
4.5776818e-002
8.0346324e-002
1.1739149e-001
1.5492812e-001
1.8884264e-001
2.2051378e-001
2.2072545e-001
2.1179685e-001
1.6808660e-001
1.2417429e-001
1.0167697e-001
9.1816016e-002
1.1065446e-001
1.3174605e-001
1.4849484e-001
1.6257221e-001
1.7327461e-001
1.8110572e-001
1.8584958e-001
1.9109169e-001
1.9728711e-001
2.1473771e-001
2.4129251e-001
2.5619593e-001
2.6254904e-001
2.3554292e-001
1.9160753e-001
1.4983229e-001
1.0980700e-001
1.0630240e-001
1.1454647e-001
1.3720135e-001
1.6292322e-001
1.7436989e-001
1.8179657e-001
1.7600769e-001
1.6389960e-001
1.3132629e-001
9.4040342e-002
5.4624256e-002
3.2768089e-002
5.7494909e-002
9.9807501e-002
1.5870400e-001
1.9530846e-001
1.9306275e-001
1.7471652e-001
1.4558057e-001
1.3596144e-001
1.4723520e-001
1.7074740e-001
2.0115894e-001
2.2989072e-001
2.5693536e-001
2.8587642e-001
3.1601670e-001
3.3289942e-001
3.4400800e-001
3.2630545e-001
2.9888636e-001
2.6326910e-001
2.2644766e-001
2.0433521e-001
1.8664043e-001
1.7419520e-001
1.6093829e-001
1.3928388e-001
1.1457714e-001
8.7585479e-002
5.6798857e-002
1.7926520e-002
-2.1493711e-002
-5.9500314e-002
-7.6110482e-002
-6.3360982e-002
-3.4686171e-002
4.8419964e-003
3.4728058e-002
5.3764071e-002
7.5913332e-002
1.0231534e-001
1.3305566e-001
1.6601656e-001
1.6974531e-001
1.5758680e-001
1.3299121e-001
1.0373630e-001
9.0112470e-002
8.2063004e-002
7.0615947e-002
5.7843540e-002
4.7173250e-002
3.7834503e-002
3.1381451e-002
1.8513357e-002
-2.3755133e-002
-7.6905429e-002
-1.3565718e-001
-1.7305766e-001
-1.6287300e-001
-1.1666328e-001
-3.3580262e-002
5.4111812e-002
1.3520031e-001
1.9026396e-001
2.1846543e-001
2.1862249e-001
1.9820642e-001
1.7142719e-001
1.4332971e-001
1.0788749e-001
6.8208173e-002
1.7898045e-002
-3.8070038e-002
-6.9811404e-002
-9.0262458e-002
-7.6697424e-002
-4.9790144e-002
-1.8588567e-002
9.9660028e-003
7.8111151e-003
-1.4687597e-002
-7.5824976e-002
-1.5280607e-001
-2.3459461e-001
-3.1102809e-001
-3.7006274e-001
-4.0690401e-001
-4.1199800e-001
-3.7845057e-001
-3.0141130e-001
-2.2346900e-001
-1.6357315e-001
-1.7424132e-001
-2.5593230e-001
-3.7633756e-001
-5.1418555e-001
-6.2715828e-001
-7.1689111e-001
-7.4798954e-001
-7.4187869e-001
-6.8642324e-001
-6.0428572e-001
-5.4447842e-001
-4.9828851e-001
-5.0310779e-001
-5.3206611e-001
-5.5691230e-001
-5.7374299e-001
-5.5271029e-001
-5.0894779e-001
-4.4614434e-001
-3.8783386e-001
-3.6826211e-001
-3.8515440e-001
-4.4527560e-001
-5.1967132e-001
-5.8721632e-001
-6.3281935e-001
-6.4930052e-001
-6.4104819e-001
-6.1509025e-001
-5.7275903e-001
-5.1908547e-001
-4.7811198e-001
-4.5054528e-001
-4.4500586e-001
-4.5445713e-001
-4.3172792e-001
-3.8553321e-001
-3.2364291e-001
-2.5533447e-001
-2.2005364e-001
-2.0541154e-001
-2.0041139e-001
-1.9689977e-001
-1.6412340e-001
-1.0249623e-001
1.6224321e-002
1.5699247e-001
2.6993430e-001
3.2747874e-001
2.7966437e-001
1.8243119e-001
8.5887350e-002
2.9147783e-002
-3.6212932e-002
-7.9473652e-002
-6.1709046e-002
1.6710002e-002
1.4453579e-001
2.6447350e-001
3.5868716e-001
3.6975604e-001
3.0565098e-001
2.3744461e-001
1.7983174e-001
2.0886001e-001
3.0485868e-001
3.6267740e-001
3.8299954e-001
2.7000874e-001
7.4080177e-002
-6.5737009e-002
-1.2930490e-001
-2.4420321e-003
2.7707690e-001
7.8348017e-001
1.4014198e+000
1.9282395e+000
2.3830123e+000
2.7896459e+000
3.3256564e+000
4.1571436e+000
5.5214677e+000
7.5335078e+000
1.0348258e+001
1.3921143e+001
1.7579960e+001
2.1011381e+001
2.4128565e+001
2.6975080e+001
3.0406027e+001
3.4494568e+001
3.9465157e+001
4.5133598e+001
5.0171516e+001
5.4601986e+001
5.8862213e+001
6.3077911e+001
6.8026581e+001
7.3521301e+001
7.8977249e+001
8.4285446e+001
8.9081253e+001
9.3402275e+001
9.7296478e+001
1.0074823e+002
1.0374352e+002
1.0599360e+002
1.0716853e+002
1.0689137e+002
1.0494215e+002
1.0207249e+002
9.8983383e+001
9.5679581e+001
9.2199150e+001
8.7992157e+001
8.2914742e+001
7.7655075e+001
7.2472870e+001
6.7754829e+001
6.3527420e+001
5.9311878e+001
5.5032845e+001
5.0767040e+001
4.6530014e+001
4.2509743e+001
3.8737606e+001
3.5414284e+001
3.2549591e+001
3.0105862e+001
2.8061350e+001
2.6277374e+001
2.4771915e+001
2.3535978e+001
2.2578270e+001
2.1867500e+001
2.1396044e+001
2.1117502e+001
2.1003222e+001
2.1003691e+001
2.1091129e+001
2.1235559e+001
2.1443499e+001
2.1714151e+001
2.2108059e+001
2.2644285e+001
2.3330336e+001
2.4159325e+001
2.5090651e+001
2.6112360e+001
2.7207972e+001
2.8380505e+001
2.9765802e+001
3.1458599e+001
3.4060040e+001
3.7629532e+001
4.1547680e+001
4.5586945e+001
4.8731602e+001
5.1032227e+001
5.3055214e+001
5.4856903e+001
5.6638577e+001
5.8140942e+001
5.8974682e+001
5.8987057e+001
5.8119156e+001
5.6753181e+001
5.5350395e+001
5.3955544e+001
5.2604599e+001
5.1112122e+001
4.9357941e+001
4.7265820e+001
4.4774742e+001
4.2294842e+001
3.9962212e+001
3.7747520e+001
3.5668156e+001
3.3136868e+001
3.0004551e+001
2.6823481e+001
2.3645113e+001
2.0935152e+001
1.8747311e+001
1.6596144e+001
1.4478467e+001
1.2342160e+001
1.0189579e+001
8.0362740e+000
5.9420853e+000
4.0164900e+000
2.3756700e+000
1.1525279e+000
3.7363824e-001
6.9898546e-002
3.1965759e-001
1.0425048e+000
1.9353609e+000
2.8222642e+000
3.5894222e+000
4.1535358e+000
4.6661797e+000
5.1861191e+000
5.7269492e+000
6.2970200e+000
6.7327600e+000
6.9464726e+000
6.9883232e+000
6.7874675e+000
6.5477109e+000
6.2617869e+000
6.0057240e+000
5.7843332e+000
5.5526080e+000
5.2814698e+000
4.8906889e+000
4.3737507e+000
3.8068709e+000
3.2376220e+000
2.7858934e+000
2.4777281e+000
2.3280749e+000
2.3221738e+000
2.4268689e+000
2.5934772e+000
2.7722330e+000
2.9446554e+000
3.0995777e+000
3.2584388e+000
3.4382484e+000
3.6509073e+000
3.9144337e+000
4.2213240e+000
4.5927835e+000
4.9896784e+000
5.4188409e+000
5.7972350e+000
6.0761728e+000
6.2440224e+000
6.2316098e+000
6.1008091e+000
5.8038263e+000
5.4281220e+000
4.9609737e+000
4.4713459e+000
3.9721048e+000
3.5046480e+000
3.0787997e+000
2.7008452e+000
2.3430264e+000
1.9540794e+000
1.5361773e+000
1.0873072e+000
6.6657281e-001
3.5031539e-001
1.2704766e-001
3.6513247e-002
2.0652782e-002
9.1879860e-002
2.1432179e-001
4.1489840e-001
6.4821464e-001
9.3457085e-001
1.2055981e+000
1.4370086e+000
1.6254764e+000
1.7336097e+000
1.8396300e+000
1.9497035e+000
2.1011393e+000
2.3200109e+000
2.5879843e+000
2.9158783e+000
3.2560740e+000
3.5996199e+000
3.9109435e+000
4.1838050e+000
4.4189453e+000
4.6146455e+000
4.7707477e+000
4.8894892e+000
4.9621730e+000
5.0026083e+000
5.0060029e+000
4.9947286e+000
4.9745741e+000
4.9595790e+000
4.9630728e+000
4.9716320e+000
4.9862342e+000
4.9965072e+000
4.9939003e+000
4.9889474e+000
4.9792442e+000
4.9763770e+000
4.9902020e+000
5.0251241e+000
5.0983276e+000
5.1958570e+000
5.3266635e+000
5.4647717e+000
5.6058769e+000
5.7289381e+000
5.8287768e+000
5.9040289e+000
5.9615731e+000
6.0232253e+000
6.0937815e+000
6.1872501e+000
6.2881498e+000
6.3749080e+000
6.4377580e+000
6.4379983e+000
6.4049706e+000
6.3195314e+000
6.2131138e+000
6.0705400e+000
5.8971715e+000
5.6352191e+000
5.3311071e+000
4.9125476e+000
4.4703770e+000
3.9744742e+000
3.4845841e+000
3.0100000e+000
2.5602896e+000
2.1555161e+000
1.7807400e+000
1.4527080e+000
1.1622587e+000
9.2124981e-001
7.2263259e-001
5.6577343e-001
4.2824811e-001
3.0379999e-001
1.7591688e-001
5.1266555e-002
-5.1572964e-002
-1.3020389e-001
-1.4833064e-001
-1.3133863e-001
-5.1339578e-002
6.1366066e-002
2.4950185e-001
4.6867800e-001
7.7198714e-001
1.0792512e+000
1.3806074e+000
1.6470771e+000
1.8039300e+000
1.9179822e+000
1.9262309e+000
1.9102765e+000
1.8447280e+000
1.7594200e+000
1.6371387e+000
1.4762635e+000
1.2622815e+000
1.0245392e+000
7.6701319e-001
5.3548849e-001
3.3260196e-001
1.6925253e-001
4.1511536e-002
-3.4830198e-002
-6.6521570e-002
8.0631152e-003
1.3392860e-001
3.1576538e-001
4.9930957e-001
6.1167920e-001
6.9866121e-001
7.1790117e-001
7.3614413e-001
7.8229570e-001
8.3635843e-001
9.2100543e-001
1.0001042e+000
1.0604348e+000
1.1068350e+000
1.1184092e+000
1.1188688e+000
1.0972782e+000
1.0676832e+000
1.0259614e+000
9.8361886e-001
9.4370735e-001
9.2727387e-001
9.3504888e-001
9.5491064e-001
9.8114157e-001
9.8730600e-001
9.8028934e-001
9.6320200e-001
9.3634343e-001
8.7189907e-001
7.8697234e-001
6.4335704e-001
4.9263331e-001
3.8466901e-001
2.9193720e-001
2.7090845e-001
2.4879424e-001
1.9710408e-001
1.4274919e-001
7.7738471e-002
2.4137774e-002
6.3901888e-003
-1.3523836e-002
-4.0128782e-002
-8.2766227e-002
-1.5678823e-001
-2.4993102e-001
-3.7156120e-001
-5.0372601e-001
-6.4713395e-001
-7.8502166e-001
-9.1787207e-001
-1.0499080e+000
-1.1777079e+000
-1.2683372e+000
-1.3335789e+000
-1.3342655e+000
-1.3117423e+000
-1.3057543e+000
-1.3084564e+000
-1.3596300e+000
-1.4183609e+000
-1.4693400e+000
-1.5187308e+000
-1.5558695e+000
-1.5901736e+000
-1.6050795e+000
-1.6091672e+000
-1.5659715e+000
-1.5184649e+000
-1.4587921e+000
-1.4111303e+000
-1.3909565e+000
-1.3739479e+000
-1.3618435e+000
-1.3428738e+000
-1.3147359e+000
-1.2853018e+000
-1.2530400e+000
-1.1930203e+000
-1.1084552e+000
-9.7918940e-001
-8.2224512e-001
-6.5571398e-001
-4.8615086e-001
-3.4267628e-001
-2.1028337e-001
-1.3292225e-001
-7.0335567e-002
-7.4519075e-002
-8.7402798e-002
-1.1543853e-001
-1.3611360e-001
-4.4602074e-002
2.9357821e-003
9.1470733e-002
2.7009383e-001
4.7987199e-001
6.7689145e-001
8.3618432e-001
9.7733116e-001
1.0792092e+000
1.1525332e+000
1.1797907e+000
1.1882120e+000
1.1740444e+000
1.1712303e+000
1.1792752e+000
1.2161157e+000
1.2731534e+000
1.3316789e+000
1.3905691e+000
1.4073077e+000
1.4079765e+000
1.3766737e+000
1.3372687e+000
1.3299946e+000
1.3281412e+000
1.3570000e+000
