Image.
>Pix99999.
  .
5555
5555
2300
900
5555
2
1
0
701
5555
8.5816998e-003
8.7602446e-003
8.9387884e-003
9.1173332e-003
9.2957793e-003
9.4743231e-003
9.6528670e-003
9.8315105e-003
1.0009957e-002
1.0187712e-002
1.0367429e-002
1.0547171e-002
1.0723966e-002
1.0896787e-002
1.1081300e-002
1.1279736e-002
1.1438388e-002
1.1542498e-002
1.1793443e-002
1.2250433e-002
1.2160028e-002
1.1302430e-002
1.2476060e-002
1.6512202e-002
1.3002429e-002
-2.7820822e-003
-1.2487058e-004
5.1514305e-002
1.4198643e-001
2.4740319e-001
3.3506185e-001
3.7816545e-001
3.8341588e-001
3.6961111e-001
3.6535215e-001
3.8921452e-001
4.0815189e-001
3.8391602e-001
3.1834331e-001
2.3166673e-001
1.6987799e-001
1.7327419e-001
2.2857720e-001
3.0458462e-001
3.6335626e-001
3.7467158e-001
3.4704998e-001
3.0237311e-001
2.6839519e-001
2.6605490e-001
2.8212357e-001
2.9439300e-001
2.8768766e-001
2.5490561e-001
2.1211648e-001
1.7944935e-001
1.6369280e-001
1.6524979e-001
1.7624809e-001
1.8655112e-001
1.8726371e-001
1.7163101e-001
1.3985324e-001
9.5559604e-002
4.7134440e-002
2.9444969e-003
-3.4901537e-002
-6.5117940e-002
-8.1045359e-002
-7.4894719e-002
-4.1878600e-002
1.6900837e-002
8.0577850e-002
1.2351745e-001
1.2827763e-001
8.6369462e-002
1.3764230e-002
-6.6620894e-002
-1.3805977e-001
-1.8903288e-001
-2.1934657e-001
-2.3187922e-001
-2.2565751e-001
-2.0194677e-001
-1.7747959e-001
-1.7232843e-001
-1.9714138e-001
-2.5053191e-001
-2.9634085e-001
-2.9552069e-001
-2.4938028e-001
-1.7925221e-001
-1.2572475e-001
-1.2535547e-001
-1.7053202e-001
-2.3653308e-001
-2.9769498e-001
-3.3541811e-001
-3.5948420e-001
-3.8826695e-001
-4.3091571e-001
-4.9029726e-001
-5.5974764e-001
-6.3077641e-001
-7.0197392e-001
-7.7388048e-001
-8.4307325e-001
-9.0480143e-001
-9.5584673e-001
-9.9439621e-001
-1.0216771e+000
-1.0384055e+000
-1.0389520e+000
-1.0180550e+000
-9.8271549e-001
-9.4654936e-001
-9.2938548e-001
-9.4875431e-001
-1.0028177e+000
-1.0808769e+000
-1.1691228e+000
-1.2537318e+000
-1.3245138e+000
-1.3750590e+000
-1.4074098e+000
-1.4277965e+000
-1.4453681e+000
-1.4663448e+000
-1.4800240e+000
-1.4711879e+000
-1.4366171e+000
-1.3832922e+000
-1.3369972e+000
-1.3267560e+000
-1.3609877e+000
-1.4313500e+000
-1.4988937e+000
-1.5185169e+000
-1.4740357e+000
-1.3726995e+000
-1.2644000e+000
-1.2078427e+000
-1.2213998e+000
-1.2989529e+000
-1.4127142e+000
-1.5311158e+000
-1.6434486e+000
-1.7469430e+000
-1.8309126e+000
-1.8827279e+000
-1.9014715e+000
-1.8945101e+000
-1.8797657e+000
-1.8734305e+000
-1.8648000e+000
-1.8332479e+000
-1.7720543e+000
-1.6878614e+000
-1.6129256e+000
-1.5829113e+000
-1.5967743e+000
-1.6312830e+000
-1.6468403e+000
-1.6084715e+000
-1.5285108e+000
-1.4437529e+000
-1.3941723e+000
-1.4094942e+000
-1.4765561e+000
-1.5623577e+000
-1.6420757e+000
-1.7001728e+000
-1.7371126e+000
-1.7609606e+000
-1.7800263e+000
-1.8018501e+000
-1.8329766e+000
-1.8772881e+000
-1.9281772e+000
-1.9748929e+000
-2.0123258e+000
-2.0391684e+000
-2.0559819e+000
-2.0616941e+000
-2.0450034e+000
-1.9899485e+000
-1.8842857e+000
-1.7266417e+000
-1.5512640e+000
-1.4088731e+000
-1.3367158e+000
-1.3536582e+000
-1.4357394e+000
-1.5404055e+000
-1.6439760e+000
-1.7369399e+000
-1.8184919e+000
-1.8863448e+000
-1.9164915e+000
-1.8790729e+000
-1.7747285e+000
-1.6301339e+000
-1.5072448e+000
-1.4753000e+000
-1.5549434e+000
-1.7275021e+000
-1.9308478e+000
-2.0901704e+000
-2.1721549e+000
-2.1746402e+000
-2.1176500e+000
-2.0286276e+000
-1.9215897e+000
-1.8044230e+000
-1.6959331e+000
-1.6202729e+000
-1.5913966e+000
-1.6125920e+000
-1.6692392e+000
-1.7395178e+000
-1.8141086e+000
-1.8911374e+000
-1.9646609e+000
-2.0250831e+000
-2.0611279e+000
-2.0630143e+000
-2.0290577e+000
-1.9643296e+000
-1.8800189e+000
-1.7894682e+000
-1.7013199e+000
-1.6172570e+000
-1.5247811e+000
-1.4083732e+000
-1.2783926e+000
-1.1639850e+000
-1.1008588e+000
-1.1180855e+000
-1.2037959e+000
-1.3194530e+000
-1.4271057e+000
-1.4970430e+000
-1.5225354e+000
-1.5098785e+000
-1.4572937e+000
-1.3599600e+000
-1.2308269e+000
-1.0951651e+000
-9.7686201e-001
-8.9124262e-001
-8.2625645e-001
-7.5807697e-001
-6.9188321e-001
-6.4964586e-001
-6.2987846e-001
-6.1165357e-001
-5.7097471e-001
-4.8731428e-001
-3.5483527e-001
-1.7835070e-001
3.5214566e-002
2.7187473e-001
4.8619869e-001
6.1584133e-001
6.2239516e-001
5.0284827e-001
3.2552040e-001
1.8249373e-001
5.2662000e-002
-1.4744511e-001
-3.8384557e-001
-5.3924221e-001
-5.5901515e-001
-4.6035469e-001
-3.2022792e-001
-2.4255821e-001
-2.9013473e-001
-4.7010726e-001
-6.9564599e-001
-8.3081710e-001
-8.1386399e-001
-6.6289204e-001
-4.6590865e-001
-3.3778507e-001
-3.1572983e-001
-3.6132321e-001
-3.8812888e-001
-2.8104401e-001
8.1716225e-002
7.8836215e-001
1.7644985e+000
2.8214235e+000
3.8281782e+000
4.7481990e+000
5.6861200e+000
6.8512940e+000
8.4672909e+000
1.0736604e+001
1.3779828e+001
1.7578588e+001
2.1756714e+001
2.5717339e+001
2.9139647e+001
3.2048225e+001
3.4835285e+001
3.8111767e+001
4.2312855e+001
4.7552582e+001
5.3299438e+001
5.8658379e+001
6.3400299e+001
6.7933388e+001
7.2665565e+001
7.7790512e+001
8.2989799e+001
8.7598045e+001
9.1264885e+001
9.4002220e+001
9.5940689e+001
9.7240692e+001
9.7997200e+001
9.8239960e+001
9.7987961e+001
9.7263283e+001
9.6095192e+001
9.4533607e+001
9.2700500e+001
9.0747879e+001
8.8674644e+001
8.6332169e+001
8.3555717e+001
8.0232178e+001
7.6443542e+001
7.2415527e+001
6.8233879e+001
6.3831322e+001
5.9154598e+001
5.4218067e+001
4.9173496e+001
4.4280651e+001
3.9749714e+001
3.5712963e+001
3.2246635e+001
2.9372120e+001
2.7028879e+001
2.5092865e+001
2.3470015e+001
2.2114216e+001
2.1023273e+001
2.0224575e+001
1.9723499e+001
1.9494644e+001
1.9497692e+001
1.9688322e+001
2.0049429e+001
2.0592922e+001
2.1323919e+001
2.2245270e+001
2.3409472e+001
2.4918425e+001
2.6878742e+001
2.9362988e+001
3.2297516e+001
3.5465050e+001
3.8643799e+001
4.1651806e+001
4.4378304e+001
4.6823708e+001
4.9209538e+001
5.1885853e+001
5.4789200e+001
5.7394478e+001
5.9224922e+001
6.0028439e+001
5.9922253e+001
5.9326355e+001
5.8424171e+001
5.7078796e+001
5.5163681e+001
5.2683674e+001
4.9884888e+001
4.7208549e+001
4.4891552e+001
4.2884346e+001
4.1065842e+001
3.9305050e+001
3.7480511e+001
3.5497341e+001
3.3329350e+001
3.1034039e+001
2.8735128e+001
2.6579603e+001
2.4548880e+001
2.2436670e+001
2.0078341e+001
1.7443407e+001
1.4715195e+001
1.2258610e+001
1.0260309e+001
8.6395235e+000
7.2445002e+000
5.9232774e+000
4.6145496e+000
3.3657179e+000
2.2272651e+000
1.2283547e+000
4.1140422e-001
-1.6313346e-001
-4.5327470e-001
-4.3633434e-001
-4.7752559e-002
8.0907112e-001
2.0998657e+000
3.6198008e+000
5.1594110e+000
6.5684762e+000
7.8051200e+000
8.9484615e+000
1.0086538e+001
1.1266129e+001
1.2425000e+001
1.3380508e+001
1.3984957e+001
1.4183631e+001
1.4009451e+001
1.3583393e+001
1.3017531e+001
1.2382380e+001
1.1710166e+001
1.0990546e+001
1.0191895e+001
9.2761288e+000
8.2666359e+000
7.2703838e+000
6.3928461e+000
5.7051477e+000
5.2288108e+000
4.9291148e+000
4.7728024e+000
4.7467618e+000
4.8483057e+000
5.0805240e+000
5.4330153e+000
5.8743606e+000
6.3683214e+000
6.8770266e+000
7.3566928e+000
7.7563848e+000
8.0280724e+000
8.1350508e+000
8.0683069e+000
7.8570476e+000
7.5470519e+000
7.1925483e+000
6.8290067e+000
6.4625249e+000
6.0967126e+000
5.7392001e+000
5.3890777e+000
5.0287943e+000
4.6266460e+000
4.1405220e+000
3.5584841e+000
2.9175074e+000
2.2621977e+000
1.6296272e+000
1.0409973e+000
4.9988467e-001
3.0679941e-002
-3.0773240e-001
-4.7147802e-001
-4.5118189e-001
-2.3788126e-001
1.8264744e-001
7.8938174e-001
1.5072787e+000
2.2727001e+000
3.0549538e+000
3.8028500e+000
4.4229684e+000
4.8310714e+000
4.9811678e+000
4.8835845e+000
4.6238022e+000
4.2887783e+000
3.9385386e+000
3.6216509e+000
3.3754678e+000
3.2216368e+000
3.1565144e+000
3.1518102e+000
3.1506581e+000
3.1091795e+000
3.0190341e+000
2.8947310e+000
2.7747343e+000
2.6913996e+000
2.6576109e+000
2.6827214e+000
2.7775438e+000
2.9544716e+000
3.2275872e+000
3.6058586e+000
4.0874019e+000
4.6598120e+000
5.2940960e+000
5.9454217e+000
6.5489898e+000
7.0460577e+000
7.4014859e+000
7.6117187e+000
7.7212548e+000
7.7891107e+000
7.8779511e+000
8.0371323e+000
8.2885952e+000
8.6409721e+000
9.0902252e+000
9.6316738e+000
1.0264000e+001
1.0985628e+001
1.1793471e+001
1.2680029e+001
1.3633099e+001
1.4639737e+001
1.5684750e+001
1.6742504e+001
1.7772448e+001
1.8717154e+001
1.9500969e+001
2.0047173e+001
2.0287481e+001
2.0169321e+001
1.9671530e+001
1.8806770e+001
1.7642256e+001
1.6263617e+001
1.4769427e+001
1.3260345e+001
1.1843910e+001
1.0624160e+001
9.6896505e+000
9.0989428e+000
8.8435316e+000
8.8719063e+000
9.0743370e+000
9.3221579e+000
9.4790049e+000
9.4300756e+000
9.1140499e+000
8.5216427e+000
7.7276907e+000
6.8327456e+000
5.9462051e+000
5.1516948e+000
4.4717207e+000
3.9038124e+000
3.4241011e+000
3.0165360e+000
2.6920860e+000
2.4666400e+000
2.3512967e+000
2.3400838e+000
2.3926849e+000
2.4633212e+000
2.5139928e+000
2.5213716e+000
2.4914820e+000
2.4357736e+000
2.3617747e+000
2.2699986e+000
2.1473906e+000
1.9789320e+000
1.7540253e+000
1.4717780e+000
1.1513785e+000
8.2156682e-001
5.2056873e-001
2.7088395e-001
5.5314802e-002
-1.3649601e-001
-2.7753511e-001
-3.4222582e-001
-3.3074668e-001
-2.6051536e-001
-1.7398849e-001
-1.0629123e-001
-5.9741154e-002
-2.3988720e-002
2.1694493e-002
8.7478146e-002
1.5216416e-001
1.9338399e-001
2.0516419e-001
1.9195688e-001
1.7430900e-001
1.7525245e-001
2.1405847e-001
3.0596316e-001
4.5757639e-001
6.6664571e-001
9.1411090e-001
1.1827140e+000
1.4704137e+000
1.7809857e+000
2.1223600e+000
2.4908144e+000
2.8486633e+000
3.1510904e+000
3.3562200e+000
3.4329472e+000
3.3782809e+000
3.2093995e+000
2.9810901e+000
2.7587867e+000
2.6108851e+000
2.5816679e+000
2.6469104e+000
2.7581151e+000
2.8472836e+000
2.8571913e+000
2.7746639e+000
2.6090679e+000
2.4031141e+000
2.2064056e+000
2.0648036e+000
2.0067854e+000
2.0134027e+000
2.0542417e+000
2.0985110e+000
2.1266100e+000
2.1506231e+000
2.1835680e+000
2.2179918e+000
2.2367578e+000
2.2093992e+000
2.1081073e+000
1.9226921e+000
1.6574188e+000
1.3455923e+000
1.0272305e+000
7.4130619e-001
5.1287341e-001
3.2569531e-001
1.5778680e-001
6.2774122e-004
-1.4983337e-001
-2.9445812e-001
-4.4144914e-001
-6.2360090e-001
-8.6524069e-001
-1.1442701e+000
-1.4209119e+000
-1.6365274e+000
-1.7427891e+000
-1.7414999e+000
-1.6552943e+000
-1.5353518e+000
-1.4310160e+000
-1.3621780e+000
-1.3341914e+000
-1.3289496e+000
-1.3259603e+000
-1.3173592e+000
-1.2990549e+000
-1.2702850e+000
-1.2264329e+000
-1.1484432e+000
-1.0146396e+000
-8.0668986e-001
-5.2250296e-001
-2.1303751e-001
5.7206005e-002
2.2327374e-001
2.4699903e-001
1.8458036e-001
9.9256113e-002
-4.0486604e-003
-1.2688802e-001
-2.4222919e-001
-3.1674972e-001
-3.2046330e-001
-2.2977725e-001
-4.1976407e-002
2.2961637e-001
5.3168440e-001
8.0858880e-001
1.0334938e+000
1.1935891e+000
1.3031902e+000
1.3852071e+000
1.4699941e+000
1.5865674e+000
1.7501590e+000
1.9555248e+000
2.1324430e+000
2.2076435e+000
2.1623676e+000
2.0150084e+000
1.8784152e+000
1.8891000e+000
