Image.
>Pix99999.
  .
5555
5555
2300
900
5555
2
1
0
701
5555
-1.2535000e-002
-1.2795627e-002
-1.3056254e-002
-1.3316882e-002
-1.3577509e-002
-1.3838136e-002
-1.4099754e-002
-1.4360391e-002
-1.4621017e-002
-1.4881644e-002
-1.5142271e-002
-1.5402898e-002
-1.5663525e-002
-1.5924154e-002
-1.6185760e-002
-1.6449343e-002
-1.6707104e-002
-1.6955951e-002
-1.7227979e-002
-1.7531721e-002
-1.7750800e-002
-1.7851090e-002
-1.8266611e-002
-1.9126249e-002
-1.8814104e-002
-1.4513821e-002
-5.3318572e-004
2.2944491e-002
2.8838761e-002
-7.6435129e-003
-7.1472004e-002
-1.4038584e-001
-2.0899034e-001
-2.7631444e-001
-3.3917311e-001
-3.9458400e-001
-4.4306114e-001
-4.8589775e-001
-5.2335894e-001
-5.5440730e-001
-5.7410973e-001
-5.8028376e-001
-5.8639979e-001
-6.0868561e-001
-6.5534651e-001
-7.2645324e-001
-7.9908997e-001
-8.4764898e-001
-8.6367232e-001
-8.4926569e-001
-8.2716143e-001
-8.2152623e-001
-8.3649355e-001
-8.6725092e-001
-8.9880461e-001
-9.1849834e-001
-9.3591362e-001
-9.6697903e-001
-1.0240792e+000
-1.1120553e+000
-1.2099400e+000
-1.2906070e+000
-1.3357799e+000
-1.3354050e+000
-1.2993840e+000
-1.2449093e+000
-1.1918783e+000
-1.1595906e+000
-1.1618463e+000
-1.2053982e+000
-1.2752600e+000
-1.3484552e+000
-1.3992319e+000
-1.4085890e+000
-1.3898728e+000
-1.3673321e+000
-1.3647217e+000
-1.3975410e+000
-1.4497607e+000
-1.4964312e+000
-1.5229456e+000
-1.5245504e+000
-1.5200740e+000
-1.5328096e+000
-1.5710319e+000
-1.6340735e+000
-1.7074471e+000
-1.7736965e+000
-1.8237658e+000
-1.8528434e+000
-1.8614286e+000
-1.8531519e+000
-1.8388582e+000
-1.8302231e+000
-1.8328360e+000
-1.8464507e+000
-1.8579051e+000
-1.8519918e+000
-1.8261180e+000
-1.7854390e+000
-1.7461429e+000
-1.7260529e+000
-1.7330825e+000
-1.7679614e+000
-1.8192514e+000
-1.8718250e+000
-1.9135580e+000
-1.9368818e+000
-1.9476960e+000
-1.9570363e+000
-1.9745985e+000
-2.0065453e+000
-2.0478680e+000
-2.0891652e+000
-2.1213329e+000
-2.1381671e+000
-2.1421685e+000
-2.1399181e+000
-2.1389010e+000
-2.1450250e+000
-2.1579001e+000
-2.1738653e+000
-2.1871865e+000
-2.1918728e+000
-2.1847475e+000
-2.1641250e+000
-2.1313000e+000
-2.0900469e+000
-2.0502682e+000
-2.0244203e+000
-2.0249228e+000
-2.0598960e+000
-2.1206863e+000
-2.1899431e+000
-2.2446988e+000
-2.2646701e+000
-2.2492936e+000
-2.2101743e+000
-2.1726365e+000
-2.1642978e+000
-2.1965599e+000
-2.2673080e+000
-2.3483064e+000
-2.4042082e+000
-2.4175565e+000
-2.3858929e+000
-2.3333964e+000
-2.2917011e+000
-2.2755778e+000
-2.2875686e+000
-2.3151286e+000
-2.3415208e+000
-2.3594475e+000
-2.3664165e+000
-2.3587420e+000
-2.3336434e+000
-2.2958033e+000
-2.2547631e+000
-2.2268398e+000
-2.2272737e+000
-2.2542257e+000
-2.2958879e+000
-2.3339221e+000
-2.3511989e+000
-2.3456304e+000
-2.3237636e+000
-2.2959061e+000
-2.2725770e+000
-2.2598000e+000
-2.2608895e+000
-2.2767644e+000
-2.3049271e+000
-2.3333936e+000
-2.3467500e+000
-2.3366518e+000
-2.3011751e+000
-2.2493789e+000
-2.1941082e+000
-2.1427398e+000
-2.0988889e+000
-2.0647259e+000
-2.0415490e+000
-2.0291960e+000
-2.0258138e+000
-2.0255737e+000
-2.0222156e+000
-2.0152726e+000
-2.0074105e+000
-2.0014966e+000
-1.9974719e+000
-1.9836043e+000
-1.9448425e+000
-1.8787600e+000
-1.7928349e+000
-1.7046946e+000
-1.6339679e+000
-1.5865520e+000
-1.5591477e+000
-1.5431468e+000
-1.5286359e+000
-1.5103999e+000
-1.4871924e+000
-1.4625989e+000
-1.4424360e+000
-1.4317857e+000
-1.4332771e+000
-1.4424924e+000
-1.4504187e+000
-1.4457932e+000
-1.4192216e+000
-1.3731201e+000
-1.3178813e+000
-1.2672371e+000
-1.2332896e+000
-1.2157048e+000
-1.2067114e+000
-1.1982080e+000
-1.1836700e+000
-1.1607037e+000
-1.1288562e+000
-1.0853601e+000
-1.0283848e+000
-9.6820611e-001
-9.2104882e-001
-8.9664680e-001
-8.9498001e-001
-8.9355481e-001
-8.6140960e-001
-7.8984421e-001
-6.8929428e-001
-5.8716100e-001
-5.1533478e-001
-4.8541984e-001
-4.9151811e-001
-5.1139301e-001
-5.1771295e-001
-5.0021815e-001
-4.6340606e-001
-4.2418739e-001
-4.0235123e-001
-4.0056458e-001
-4.0807977e-001
-4.0758562e-001
-3.8141289e-001
-3.2364959e-001
-2.4016500e-001
-1.5335517e-001
-9.2762455e-002
-7.4820682e-002
-1.0115221e-001
-1.5155071e-001
-1.9474062e-001
-2.1071720e-001
-1.9239379e-001
-1.4899801e-001
-9.8936364e-002
-5.6765683e-002
-3.0801941e-002
-1.8726934e-002
-1.3265699e-002
-1.5996572e-002
-3.3000968e-002
-5.8593743e-002
-7.9056703e-002
-8.6046062e-002
-7.5809926e-002
-4.2677462e-002
9.5353592e-003
2.4034772e-002
-7.2874352e-002
-2.5589857e-001
-4.3295324e-001
-5.5860859e-001
-6.3539428e-001
-6.8185484e-001
-7.2277176e-001
-7.8555161e-001
-8.9216596e-001
-1.0341508e+000
-1.1778377e+000
-1.2794400e+000
-1.2969321e+000
-1.2174371e+000
-1.0552905e+000
-8.4649372e-001
-6.3473171e-001
-4.3793866e-001
-2.4249791e-001
1.1845075e-002
4.0715671e-001
9.7402358e-001
1.6884168e+000
2.4799566e+000
3.2681398e+000
4.0626740e+000
4.9581394e+000
6.0931053e+000
7.6440749e+000
9.8578329e+000
1.2947855e+001
1.6723715e+001
2.0677950e+001
2.4373646e+001
2.7570475e+001
3.0437395e+001
3.3445915e+001
3.6996124e+001
4.1264816e+001
4.5883518e+001
5.0155815e+001
5.3884155e+001
5.7375328e+001
6.1023285e+001
6.5132431e+001
6.9622017e+001
7.4111603e+001
7.8343948e+001
8.2229469e+001
8.5720222e+001
8.8785103e+001
9.1420288e+001
9.3648468e+001
9.5509155e+001
9.7024918e+001
9.8097290e+001
9.8547432e+001
9.8321297e+001
9.7477203e+001
9.5991051e+001
9.3755516e+001
9.0727798e+001
8.6978531e+001
8.2773453e+001
7.8488838e+001
7.4252136e+001
6.9938324e+001
6.5438843e+001
6.0738377e+001
5.5973122e+001
5.1395355e+001
4.7191856e+001
4.3452461e+001
4.0201485e+001
3.7410709e+001
3.5013393e+001
3.2922985e+001
3.1092745e+001
2.9519802e+001
2.8206108e+001
2.7144657e+001
2.6307499e+001
2.5650328e+001
2.5140760e+001
2.4762850e+001
2.4514040e+001
2.4398836e+001
2.4406942e+001
2.4517910e+001
2.4740198e+001
2.5116957e+001
2.5703829e+001
2.6548958e+001
2.7636015e+001
2.8880819e+001
3.0185280e+001
3.1455166e+001
3.2618473e+001
3.3671471e+001
3.4838440e+001
3.6518612e+001
3.8854698e+001
4.1634102e+001
4.4411377e+001
4.6643192e+001
4.8158268e+001
4.9199249e+001
4.9967468e+001
5.0521259e+001
5.0888500e+001
5.1088360e+001
5.1096428e+001
5.0849892e+001
5.0334259e+001
4.9596786e+001
4.8671833e+001
4.7562702e+001
4.6251301e+001
4.4711929e+001
4.2972233e+001
4.1123299e+001
3.9262257e+001
3.7448933e+001
3.5587078e+001
3.3430676e+001
3.0831646e+001
2.7831764e+001
2.4685452e+001
2.1807272e+001
1.9393936e+001
1.7333830e+001
1.5447143e+001
1.3568177e+001
1.1624788e+001
9.6544962e+000
7.7116203e+000
5.8482075e+000
4.1433983e+000
2.7009094e+000
1.5696446e+000
7.3594952e-001
2.4190167e-001
1.9212282e-001
5.7285666e-001
1.2082477e+000
1.9230286e+000
2.5978806e+000
3.1803966e+000
3.6868207e+000
4.1338787e+000
4.5219846e+000
4.8596396e+000
5.1659007e+000
5.4367404e+000
5.6365290e+000
5.7344499e+000
5.7178893e+000
5.5926123e+000
5.3807311e+000
5.0914359e+000
4.7131605e+000
4.2384443e+000
3.6769159e+000
3.0704503e+000
2.4955015e+000
2.0094540e+000
1.6315136e+000
1.3650223e+000
1.2041806e+000
1.1487399e+000
1.2074256e+000
1.3826228e+000
1.6635399e+000
2.0305197e+000
2.4564891e+000
2.9197571e+000
3.4077971e+000
3.9042885e+000
4.3846211e+000
4.8221922e+000
5.1921692e+000
5.4813285e+000
5.6919680e+000
5.8276711e+000
5.8881817e+000
5.8692589e+000
5.7635550e+000
5.5720062e+000
5.3087769e+000
4.9891467e+000
4.6260338e+000
4.2344284e+000
3.8333359e+000
3.4444280e+000
3.0875990e+000
2.7556572e+000
2.4031079e+000
1.9905938e+000
1.5084834e+000
9.9385393e-001
5.4043990e-001
2.1984944e-001
4.5242429e-002
-5.5858507e-003
1.3077794e-002
5.8424789e-002
1.1785465e-001
1.8832920e-001
2.7063805e-001
3.6250466e-001
4.5542803e-001
5.4005772e-001
6.0876656e-001
6.5925926e-001
6.9765198e-001
7.3379958e-001
7.8036082e-001
8.4924805e-001
9.4924963e-001
1.0836880e+000
1.2474983e+000
1.4310100e+000
1.6195863e+000
1.7965429e+000
1.9440718e+000
2.0477586e+000
2.1008737e+000
2.1063967e+000
2.0810409e+000
2.0461583e+000
2.0249851e+000
2.0353000e+000
2.0839744e+000
2.1719608e+000
2.2936034e+000
2.4429278e+000
2.6161666e+000
2.8086987e+000
3.0138104e+000
3.2218800e+000
3.4190509e+000
3.5956271e+000
3.7523930e+000
3.9008241e+000
4.0667186e+000
4.2743907e+000
4.5383930e+000
4.8632216e+000
5.2389541e+000
5.6541781e+000
6.1011410e+000
6.5775599e+000
7.0892272e+000
7.6430998e+000
8.2431412e+000
8.8850479e+000
9.5490751e+000
1.0209831e+001
1.0837579e+001
1.1400120e+001
1.1868073e+001
1.2214771e+001
1.2418521e+001
1.2464520e+001
1.2349936e+001
1.2082308e+001
1.1681972e+001
1.1175457e+001
1.0594396e+001
9.9664145e+000
9.3077965e+000
8.6308746e+000
7.9422178e+000
7.2521467e+000
6.5802646e+000
5.9428029e+000
5.3438425e+000
4.7766819e+000
4.2184792e+000
3.6490972e+000
3.0628068e+000
2.4630215e+000
1.8656638e+000
1.2894468e+000
7.5247777e-001
2.7163365e-001
-1.3845167e-001
-4.6751690e-001
-7.1372879e-001
-8.7949532e-001
-9.7225368e-001
-1.0020560e+000
-9.8211908e-001
-9.2592412e-001
-8.4619957e-001
-7.5340796e-001
-6.5358108e-001
-5.5187690e-001
-4.5375571e-001
-3.6397064e-001
-2.8537944e-001
-2.1916458e-001
-1.6390145e-001
-1.1885643e-001
-8.6220786e-002
-6.7845598e-002
-6.2614605e-002
-6.3547835e-002
-5.2601885e-002
-1.6958095e-002
3.8985107e-002
1.1683174e-001
2.4104990e-001
4.3296936e-001
6.9315428e-001
1.0144455e+000
1.3826407e+000
1.7794734e+000
2.1811373e+000
2.5600319e+000
2.8852773e+000
3.1363230e+000
3.3217826e+000
3.4615927e+000
3.5863509e+000
3.7267699e+000
3.9060650e+000
4.1383615e+000
4.4195232e+000
4.7372103e+000
5.0699010e+000
5.3983998e+000
5.7155743e+000
6.0248442e+000
6.3491559e+000
6.7127461e+000
7.1287270e+000
7.5907502e+000
8.0489235e+000
8.4506006e+000
8.7655973e+000
8.9815407e+000
9.1179819e+000
9.1955080e+000
9.2163334e+000
9.1819611e+000
9.1029825e+000
8.9946280e+000
8.8774796e+000
8.7664900e+000
8.6573124e+000
8.5390577e+000
8.3954449e+000
8.2137537e+000
7.9947095e+000
7.7448463e+000
7.4768143e+000
7.2012887e+000
6.9190240e+000
6.6312828e+000
6.3470001e+000
6.0765300e+000
5.8284950e+000
5.6007810e+000
5.3623114e+000
5.0820837e+000
4.7501855e+000
4.3743939e+000
3.9989541e+000
3.6637499e+000
3.3689668e+000
3.0967743e+000
2.8053586e+000
2.4610424e+000
2.0730424e+000
1.6689360e+000
1.2999429e+000
1.0112499e+000
8.1082654e-001
6.8652797e-001
5.9188402e-001
4.7643429e-001
3.0454400e-001
5.9055656e-002
-2.2957593e-001
-5.1485115e-001
-7.3718202e-001
-8.4875840e-001
-8.5096663e-001
-7.6613122e-001
-6.4485085e-001
-5.3294861e-001
-4.3713945e-001
-3.4885526e-001
-2.4112926e-001
-9.1634274e-002
9.0692148e-002
2.8457263e-001
4.5336899e-001
5.6437844e-001
6.1168325e-001
5.9920317e-001
5.4187924e-001
4.5486319e-001
3.4448576e-001
2.1907780e-001
1.0168672e-001
1.9631039e-002
2.0960905e-003
6.7802593e-002
1.9609261e-001
3.5395455e-001
4.9944034e-001
6.0480893e-001
7.0221102e-001
8.3063632e-001
9.9896342e-001
1.2003621e+000
1.3974584e+000
1.5559548e+000
1.6811438e+000
1.7852914e+000
1.8682380e+000
1.9251355e+000
1.9452720e+000
1.9222869e+000
1.8741164e+000
1.8204896e+000
1.7662934e+000
1.7182623e+000
1.7051806e+000
1.7615000e+000
