Image.
>Pix99999.
  .
5555
5555
2300
900
5555
2
1
0
701
5555
1.2951000e-002
1.3220615e-002
1.3490229e-002
1.3759843e-002
1.4029457e-002
1.4298079e-002
1.4567685e-002
1.4837300e-002
1.5106915e-002
1.5375542e-002
1.5646130e-002
1.5917726e-002
1.6184423e-002
1.6444173e-002
1.6723400e-002
1.7029421e-002
1.7263675e-002
1.7394867e-002
1.7797457e-002
1.8581422e-002
1.8355286e-002
1.6708700e-002
1.8816946e-002
2.6222778e-002
1.9668542e-002
-9.0435361e-003
-3.7506857e-004
9.7892657e-002
2.3204400e-001
3.2840967e-001
3.5388529e-001
3.0216146e-001
2.2730879e-001
1.8571618e-001
1.7355457e-001
1.6728249e-001
1.3489930e-001
5.4906111e-002
-4.2764224e-002
-1.1825210e-001
-1.5329686e-001
-1.4178288e-001
-1.0007598e-001
-4.9126819e-002
-1.6084972e-003
3.4548331e-002
6.0041260e-002
8.1786394e-002
1.2139090e-001
2.0043209e-001
3.2216716e-001
4.7933087e-001
6.4555579e-001
7.9280406e-001
9.1031998e-001
9.9236298e-001
1.0308000e+000
1.0170656e+000
9.4409955e-001
8.1177503e-001
6.4670885e-001
4.8257491e-001
3.4664986e-001
2.6030099e-001
2.3035200e-001
2.5582951e-001
3.2360065e-001
4.1370800e-001
4.9459603e-001
5.3801954e-001
5.4491699e-001
5.2900386e-001
5.1502264e-001
5.2355450e-001
5.4346317e-001
5.5387640e-001
5.3942049e-001
4.9279970e-001
4.3067688e-001
3.7964869e-001
3.7270486e-001
4.3995678e-001
5.9151155e-001
8.1770027e-001
1.0571495e+000
1.2380806e+000
1.3215525e+000
1.2999128e+000
1.2420063e+000
1.2317687e+000
1.3005913e+000
1.4445189e+000
1.5984337e+000
1.6859035e+000
1.6773274e+000
1.5761307e+000
1.4475794e+000
1.3664572e+000
1.3536340e+000
1.3990477e+000
1.4536572e+000
1.4637249e+000
1.4150640e+000
1.3141650e+000
1.1872588e+000
1.0650500e+000
9.6866173e-001
9.1022497e-001
8.8335747e-001
8.7546217e-001
8.7835699e-001
8.8577306e-001
8.9071077e-001
8.8446665e-001
8.5274172e-001
7.8601509e-001
7.0421356e-001
6.3965231e-001
6.2543094e-001
6.8615448e-001
8.1190139e-001
9.7732210e-001
1.1526561e+000
1.3084441e+000
1.4213355e+000
1.4711143e+000
1.4419020e+000
1.3274220e+000
1.1567143e+000
9.7776264e-001
8.5540217e-001
8.4577405e-001
9.4094759e-001
1.0944470e+000
1.2174155e+000
1.2253171e+000
1.1251531e+000
9.7233415e-001
8.4974587e-001
8.2606566e-001
8.6729199e-001
8.9584750e-001
8.4872729e-001
6.9205499e-001
4.7567761e-001
2.8189093e-001
1.6985464e-001
1.7148401e-001
2.5810361e-001
3.7407461e-001
4.6581930e-001
4.9476805e-001
4.7498670e-001
4.4460982e-001
4.3897980e-001
4.8341164e-001
5.7278055e-001
6.8642962e-001
7.9891217e-001
8.8645005e-001
9.3832088e-001
9.5425600e-001
9.5102352e-001
9.4885027e-001
9.4866532e-001
9.3858141e-001
8.9507675e-001
7.9618162e-001
6.4858639e-001
4.7699627e-001
3.2002002e-001
2.1523282e-001
1.6998293e-001
1.7044298e-001
1.7992552e-001
1.6065000e-001
1.1574200e-001
7.0564806e-002
5.1585604e-002
7.4879274e-002
1.1644551e-001
1.3555466e-001
1.0997500e-001
3.6448598e-002
-5.5562936e-002
-1.1954832e-001
-1.0673972e-001
1.6256273e-002
2.1664141e-001
4.2470270e-001
5.6592673e-001
5.8472240e-001
5.0630593e-001
3.9747795e-001
3.1282496e-001
2.8699851e-001
3.1368920e-001
3.7001219e-001
4.5639509e-001
5.8570832e-001
7.5964570e-001
9.6191013e-001
1.1307486e+000
1.1912301e+000
1.1202406e+000
9.3663907e-001
7.0338589e-001
4.9379814e-001
3.2843319e-001
1.9582422e-001
8.8058896e-002
8.1215864e-003
-1.5810166e-002
4.6712071e-002
1.7260541e-001
3.0494684e-001
3.8413033e-001
3.6824769e-001
2.8632724e-001
2.0221426e-001
1.4495772e-001
1.1147060e-001
6.8948053e-002
-2.0495977e-002
-1.4798152e-001
-2.7157679e-001
-3.3767781e-001
-3.0195096e-001
-1.7945275e-001
-2.3082783e-002
1.1288379e-001
1.8981360e-001
2.2487572e-001
2.6567972e-001
3.3938426e-001
4.4602478e-001
5.3987968e-001
5.5927294e-001
4.9461320e-001
3.7723714e-001
2.5692543e-001
1.8408792e-001
1.7674376e-001
2.2790833e-001
3.1790096e-001
4.1664550e-001
4.7322384e-001
4.3266845e-001
2.8144217e-001
5.3418532e-002
-1.3562679e-001
-1.3938069e-001
9.1925606e-002
5.1267409e-001
9.7095525e-001
1.2776250e+000
1.3656377e+000
1.2695578e+000
1.0660001e+000
8.4354377e-001
6.6490400e-001
5.6279284e-001
5.2579021e-001
5.1268017e-001
4.7618422e-001
3.8086107e-001
2.4849080e-001
1.3155198e-001
3.5242766e-002
-6.8492055e-002
-1.7909400e-001
-2.7050796e-001
-3.1916925e-001
-3.1512800e-001
-2.8658035e-001
-2.8963965e-001
-3.8346496e-001
-6.0411686e-001
-8.8768089e-001
-1.1008728e+000
-1.1332800e+000
-9.3106490e-001
-5.7569504e-001
-2.3598480e-001
-2.9846363e-002
1.1765994e-003
-7.4743181e-002
-1.1217310e-001
3.8778007e-002
4.9140623e-001
1.2241533e+000
2.1116676e+000
3.0272257e+000
3.8865180e+000
4.7368999e+000
5.7270412e+000
7.0049901e+000
8.7148838e+000
1.1057323e+001
1.4200874e+001
1.7937571e+001
2.1771879e+001
2.5320770e+001
2.8431654e+001
3.1388445e+001
3.4786320e+001
3.9112343e+001
4.4562237e+001
5.0609238e+001
5.6296593e+001
6.1362701e+001
6.6218445e+001
7.1269165e+001
7.6694290e+001
8.2148529e+001
8.6938248e+001
9.0731323e+001
9.3591988e+001
9.5677460e+001
9.7144394e+001
9.8075195e+001
9.8495415e+001
9.8464737e+001
9.8076942e+001
9.7396454e+001
9.6449860e+001
9.5246605e+001
9.3775826e+001
9.1969460e+001
8.9717300e+001
8.6939079e+001
8.3616241e+001
7.9866982e+001
7.5892265e+001
7.1723373e+001
6.7232109e+001
6.2353600e+001
5.7143570e+001
5.1817387e+001
4.6701824e+001
4.2040512e+001
3.7958862e+001
3.4494770e+001
3.1613369e+001
2.9217703e+001
2.7174906e+001
2.5405100e+001
2.3890034e+001
2.2635794e+001
2.1657301e+001
2.0952000e+001
2.0500971e+001
2.0294737e+001
2.0335289e+001
2.0626106e+001
2.1164270e+001
2.1915749e+001
2.2825710e+001
2.3895164e+001
2.5196896e+001
2.6852629e+001
2.8995361e+001
3.1635698e+001
3.4643353e+001
3.7819401e+001
4.0935593e+001
4.3826664e+001
4.6437588e+001
4.8908176e+001
5.1504375e+001
5.4204128e+001
5.6657112e+001
5.8537544e+001
5.9665600e+001
6.0096611e+001
6.0067966e+001
5.9615337e+001
5.8527397e+001
5.6660999e+001
5.4057961e+001
5.1046200e+001
4.8172634e+001
4.5709042e+001
4.3555172e+001
4.1534790e+001
3.9478851e+001
3.7262482e+001
3.4832211e+001
3.2255577e+001
2.9720612e+001
2.7404085e+001
2.5401484e+001
2.3594879e+001
2.1664368e+001
1.9411438e+001
1.6864851e+001
1.4261074e+001
1.1984241e+001
1.0210982e+001
8.8243046e+000
7.6389003e+000
6.4799361e+000
5.2703371e+000
4.0501022e+000
2.8761721e+000
1.7981637e+000
8.7738657e-001
1.8729003e-001
-2.1966171e-001
-3.1132260e-001
-1.2445152e-002
7.8501779e-001
2.0526018e+000
3.5825353e+000
5.1544499e+000
6.5985613e+000
7.8469858e+000
8.9525023e+000
1.0002790e+001
1.1082805e+001
1.2198600e+001
1.3249419e+001
1.4088746e+001
1.4560725e+001
1.4628406e+001
1.4407464e+001
1.4014029e+001
1.3511160e+001
1.2906606e+001
1.2154509e+001
1.1213443e+001
1.0079333e+001
8.8340197e+000
7.6557627e+000
6.6880040e+000
5.9868684e+000
5.5400591e+000
5.2723913e+000
5.1274033e+000
5.0959616e+000
5.1876912e+000
5.4200048e+000
5.7881293e+000
6.2530556e+000
6.7688112e+000
7.2867141e+000
7.7394805e+000
8.0385246e+000
8.1153479e+000
7.9479532e+000
7.5822930e+000
7.1427402e+000
6.7363696e+000
6.4125924e+000
6.1698270e+000
5.9529247e+000
5.7135029e+000
5.4300451e+000
5.0806055e+000
4.6365600e+000
4.0825114e+000
3.4301076e+000
2.7234440e+000
2.0409749e+000
1.4310188e+000
8.8496780e-001
3.8454947e-001
-7.7502519e-002
-4.7071218e-001
-7.1601987e-001
-7.6011896e-001
-6.0828841e-001
-2.8543863e-001
1.7213410e-001
7.1951675e-001
1.3055215e+000
1.8974040e+000
2.4917324e+000
3.0771222e+000
3.6167107e+000
4.0579114e+000
4.3361869e+000
4.4115195e+000
4.2904849e+000
4.0047784e+000
3.6108642e+000
3.1753039e+000
2.7691524e+000
2.4469948e+000
2.2295465e+000
2.1032400e+000
2.0113609e+000
1.8989954e+000
1.7349366e+000
1.5184134e+000
1.2907071e+000
1.0993128e+000
9.8410469e-001
9.7320551e-001
1.0756640e+000
1.2895428e+000
1.6015356e+000
1.9975402e+000
2.4660327e+000
2.9956961e+000
3.5723329e+000
4.1691875e+000
4.7389669e+000
5.2351599e+000
5.6239204e+000
5.8935027e+000
6.0681262e+000
6.1850886e+000
6.2885423e+000
6.4139295e+000
6.5774288e+000
6.7893925e+000
7.0588002e+000
7.4052782e+000
7.8681097e+000
8.4849110e+000
9.2785578e+000
1.0249557e+001
1.1362417e+001
1.2572800e+001
1.3836500e+001
1.5115923e+001
1.6383705e+001
1.7591480e+001
1.8644751e+001
1.9430344e+001
1.9829107e+001
1.9767759e+001
1.9273575e+001
1.8410278e+001
1.7273220e+001
1.5947160e+001
1.4485332e+001
1.2953146e+001
1.1453700e+001
1.0100960e+001
9.0142832e+000
8.2908573e+000
7.9747009e+000
8.0472155e+000
8.3824263e+000
8.8072023e+000
9.1115704e+000
9.1366062e+000
8.8531427e+000
8.2986574e+000
7.5826697e+000
6.8035955e+000
5.9994850e+000
5.1898117e+000
4.3872442e+000
3.6188920e+000
2.9445591e+000
2.4223433e+000
2.0868716e+000
1.9475600e+000
1.9705023e+000
2.1097074e+000
2.3153794e+000
2.5434251e+000
2.7636843e+000
2.9455583e+000
3.0522549e+000
3.0577118e+000
2.9651461e+000
2.7909386e+000
2.5639992e+000
2.3001714e+000
1.9797212e+000
1.5889580e+000
1.1496036e+000
7.0771343e-001
3.4406403e-001
1.1809315e-001
2.0418409e-002
2.5462858e-002
1.0750493e-001
2.3621413e-001
3.7220687e-001
4.9006280e-001
6.0228181e-001
7.2413564e-001
8.5472625e-001
9.8095965e-001
1.0714759e+000
1.1080942e+000
1.1152942e+000
1.1226549e+000
1.1454226e+000
1.1829946e+000
1.2045051e+000
1.1874652e+000
1.1504506e+000
1.1345162e+000
1.2113900e+000
1.4334142e+000
1.7854578e+000
2.2323661e+000
2.7307456e+000
3.2417395e+000
3.7422335e+000
4.2033758e+000
4.5726466e+000
4.8059916e+000
4.8970442e+000
4.8480301e+000
4.6611104e+000
4.3428512e+000
3.9147189e+000
3.4168663e+000
2.9298737e+000
2.5279520e+000
2.2398319e+000
2.0679731e+000
1.9740182e+000
1.9132600e+000
1.8528504e+000
1.7714686e+000
1.6717521e+000
1.5672216e+000
1.4857036e+000
1.4612957e+000
1.5351517e+000
1.7368400e+000
2.0575104e+000
2.4659801e+000
2.8946261e+000
3.2717886e+000
3.5405278e+000
3.6507962e+000
3.5651629e+000
3.2697852e+000
2.8134019e+000
2.2743769e+000
1.7717422e+000
1.4040686e+000
1.1769423e+000
1.0587894e+000
9.7500324e-001
8.5276240e-001
6.5823102e-001
3.6959061e-001
-2.5763988e-002
-5.1635617e-001
-1.0228863e+000
-1.4580572e+000
-1.7642200e+000
-1.9261291e+000
-2.0389011e+000
-2.1990533e+000
-2.4181056e+000
-2.6704772e+000
-2.8792148e+000
-2.9747579e+000
-2.9528718e+000
-2.8261056e+000
-2.6088989e+000
-2.3197477e+000
-1.9889228e+000
-1.6482702e+000
-1.3249249e+000
-1.0292813e+000
-7.1989334e-001
-3.5371995e-001
7.1557730e-002
5.2623582e-001
9.0490091e-001
1.0997441e+000
1.0618665e+000
7.9618561e-001
4.4646466e-001
1.6323468e-001
-1.2400597e-003
-3.6423445e-002
6.1705336e-003
7.2918169e-002
1.5851173e-001
2.6978844e-001
4.1401586e-001
5.9922469e-001
8.3580744e-001
1.1349500e+000
1.5080266e+000
1.9385273e+000
2.3041208e+000
2.4801700e+000
2.4333868e+000
2.1746788e+000
1.7970409e+000
1.4125330e+000
1.1265600e+000
1.0387001e+000
1.2323260e+000
1.7516489e+000
2.5028222e+000
3.3571000e+000
