##TITLE=Methyl Ethyl Ketone
##JCAMP-DX=4.24
##DATA TYPE=INFRARED SPECTRUM
##XUNITS=cm-1
##YUNITS=Absorbance
##FIRSTX=900
##LASTX=2300
##XYDATA=(X++(Y..Y))
2296 -0.056566
2294 -0.057768278
2292 -0.058969561
2290 -0.060171839
2288 -0.061373126
2286 -0.0625754
2284 -0.063776687
2282 -0.064978957
2280 -0.066181242
2278 -0.067381546
2276 -0.068584792
2274 -0.069788061
2272 -0.070988394
2270 -0.072181806
2268 -0.073391765
2266 -0.074622579
2264 -0.075796165
2262 -0.076887503
2260 -0.07819616
2258 -0.079809919
2256 -0.080614626
2254 -0.080282949
2252 -0.08295688
2250 -0.089869134
2248 -0.085610427
2246 -0.054958358
2244 -0.0019993628
2242 0.061306458
2240 0.11316184
2238 0.13824488
2236 0.15828715
2234 0.19875436
2232 0.25757042
2230 0.3254945
2228 0.39683279
2226 0.4672755
2224 0.53364289
2222 0.59258097
2220 0.63881403
2218 0.6688537
2216 0.68871486
2214 0.70743412
2212 0.73464322
2210 0.77708155
2208 0.82916558
2206 0.88150209
2204 0.92416608
2202 0.95050329
2200 0.9673357
2198 0.98421353
2196 1.0048071
2194 1.0307765
2192 1.0636189
2190 1.1063064
2188 1.1682014
2186 1.2549229
2184 1.348748
2182 1.425101
2180 1.4627497
2178 1.4504907
2176 1.4128028
2174 1.3826532
2172 1.3812848
2170 1.419347
2168 1.4826114
2166 1.5506486
2164 1.6123391
2162 1.6622292
2160 1.7050909
2158 1.7486826
2156 1.7999799
2154 1.8638767
2152 1.9387726
2150 2.0179884
2148 2.0841603
2146 2.1196609
2144 2.1224761
2142 2.1000609
2140 2.0761518
2138 2.0760727
2136 2.1062486
2134 2.1643951
2132 2.2379792
2130 2.3114967
2128 2.370712
2126 2.4050114
2124 2.4166067
2122 2.4133215
2120 2.4050062
2118 2.4004085
2116 2.3996387
2114 2.4007308
2112 2.4050691
2110 2.4134176
2108 2.4167643
2106 2.4064693
2104 2.3907354
2102 2.3846235
2100 2.4059298
2098 2.4657364
2096 2.5461428
2094 2.6181567
2092 2.6538432
2090 2.6328702
2088 2.5614924
2086 2.4600401
2084 2.3641796
2082 2.3093219
2080 2.3058903
2078 2.3492365
2076 2.4136558
2074 2.4697213
2072 2.5065241
2070 2.5235562
2068 2.5284789
2066 2.5302534
2064 2.5297492
2062 2.5273514
2060 2.5336347
2058 2.5618091
2056 2.6154401
2054 2.6895034
2052 2.7602046
2050 2.7995014
2048 2.7939446
2046 2.7409821
2044 2.657676
2042 2.5682104
2040 2.4947
2038 2.4533498
2036 2.4404671
2034 2.4447713
2032 2.4579468
2030 2.4751179
2028 2.498795
2026 2.533222
2024 2.5754292
2022 2.6192884
2020 2.6588902
2018 2.6884592
2016 2.70158
2014 2.6932783
2012 2.6653509
2010 2.6232519
2008 2.574465
2006 2.5264599
2004 2.4843097
2002 2.450362
2000 2.4212046
1998 2.3912709
1996 2.358007
1994 2.3234069
1992 2.3021216
1990 2.3095527
1988 2.338908
1986 2.3708251
1984 2.3804424
1982 2.3488526
1980 2.2918041
1978 2.2395663
1976 2.2140286
1974 2.2252769
1972 2.2552629
1970 2.2764018
1968 2.2767479
1966 2.2560344
1964 2.226809
1962 2.2048283
1960 2.195488
1958 2.1974134
1956 2.2056928
1954 2.2134411
1952 2.2122581
1950 2.1945112
1948 2.1602204
1946 2.1154499
1944 2.0754039
1942 2.0561123
1940 2.0563793
1938 2.0646708
1936 2.0642772
1934 2.0407605
1932 1.996344
1930 1.9423616
1928 1.8884366
1926 1.8407779
1924 1.7974194
1922 1.7543674
1920 1.7174194
1918 1.6982449
1916 1.71041
1914 1.7624736
1912 1.8395263
1910 1.9143934
1908 1.9630697
1906 1.9708536
1904 1.949728
1902 1.9240358
1900 1.90696
1898 1.899994
1896 1.8873714
1894 1.8479413
1892 1.7763455
1890 1.68058
1888 1.5833315
1886 1.5112329
1884 1.4756806
1882 1.4756134
1880 1.4980692
1878 1.5243968
1876 1.53826
1874 1.5279065
1872 1.4937868
1870 1.4458491
1868 1.406
1866 1.3977944
1864 1.4226851
1862 1.465937
1860 1.5024277
1858 1.5061157
1856 1.4697
1854 1.3975728
1852 1.2937591
1850 1.1616867
1848 1.0079864
1846 0.84624749
1844 0.71215206
1842 0.64861101
1840 0.67057472
1838 0.76766992
1836 0.90101713
1834 1.0203145
1832 1.0955114
1830 1.1161009
1828 1.093733
1826 1.0528386
1824 1.0182469
1822 1.0104489
1820 1.034766
1818 1.084041
1816 1.1392143
1814 1.1760633
1812 1.1774869
1810 1.1364441
1808 1.0672611
1806 0.99354249
1804 0.91981846
1802 0.83550364
1800 0.72636306
1798 0.5844245
1796 0.43343213
1794 0.31550303
1792 0.25845358
1790 0.2709704
1788 0.33091012
1786 0.39943415
1784 0.45106921
1782 0.47292113
1780 0.45627743
1778 0.39538631
1776 0.29134029
1774 0.15636311
1772 0.032672752
1770 -0.027458638
1768 -0.019838326
1766 0.022559697
1764 0.065016642
1762 0.076777659
1760 0.028769417
1758 -0.098157167
1756 -0.28081512
1754 -0.47266775
1752 -0.6606158
1750 -0.85693324
1748 -1.0592027
1746 -1.2511643
1744 -1.4212172
1742 -1.5648096
1740 -1.6850406
1738 -1.785593
1736 -1.8489801
1734 -1.8424973
1732 -1.7399935
1730 -1.5302099
1728 -1.2370503
1726 -0.90907383
1724 -0.59016889
1722 -0.30948961
1720 -0.061269484
1718 0.19448163
1716 0.53685743
1714 1.0467722
1712 1.6891845
1710 2.3520076
1708 3.0054798
1706 3.7134821
1704 4.6076632
1702 5.8846903
1700 7.8517599
1698 10.798059
1696 14.542428
1694 18.524319
1692 22.236509
1690 25.374626
1688 28.098394
1686 30.918621
1684 34.311207
1682 38.530991
1680 43.201
1678 47.543888
1676 51.293587
1674 54.724758
1672 58.257339
1670 62.258018
1668 66.659149
1666 71.044601
1664 75.112686
1662 78.738945
1660 81.8834
1658 84.559471
1656 86.814056
1654 88.723412
1652 90.406487
1650 91.974709
1648 93.345833
1646 94.281822
1644 94.633797
1642 94.371925
1640 93.51236
1638 92.090073
1636 90.123398
1634 87.628571
1632 84.70649
1630 81.510384
1628 78.064468
1626 74.274101
1624 70.095642
1622 65.581421
1620 60.912636
1618 56.362839
1616 52.143429
1614 48.37151
1612 45.0774
1610 42.21632
1608 39.696056
1606 37.404736
1604 35.288883
1602 33.361664
1600 31.657972
1598 30.214634
1596 29.041
1594 28.114658
1592 27.399275
1590 26.851536
1588 26.437517
1586 26.136772
1584 25.930897
1582 25.807819
1580 25.78994
1578 25.935326
1576 26.316029
1574 26.996159
1572 27.963211
1570 29.122639
1568 30.364359
1566 31.587021
1564 32.719929
1562 33.762947
1560 34.922375
1558 36.559093
1556 38.801071
1554 41.45277
1552 44.100147
1550 46.233154
1548 47.677532
1546 48.639141
1544 49.298611
1542 49.720657
1540 49.960979
1538 50.0811
1536 50.083801
1534 49.912579
1532 49.541759
1530 48.990814
1528 48.258896
1526 47.30965
1524 46.096767
1522 44.5868
1520 42.841454
1518 41.022285
1516 39.269012
1514 37.638489
1512 36.014038
1510 34.119331
1508 31.78199
1506 29.027851
1504 26.084976
1502 23.331573
1500 20.953192
1498 18.858881
1496 16.894001
1494 14.9149
1492 12.864811
1490 10.788795
1488 8.7473793
1486 6.7963133
1484 5.0092077
1482 3.4722943
1480 2.2133291
1478 1.2011309
1476 0.48717088
1474 0.22014269
1472 0.44395471
1470 1.0373886
1468 1.8220788
1466 2.6054907
1464 3.2659206
1462 3.7842176
1460 4.1971579
1458 4.5847778
1456 5.0301399
1454 5.5882125
1452 6.2029862
1450 6.6973119
1448 6.9657526
1446 7.0346856
1444 6.9652796
1442 6.8186769
1440 6.6088004
1438 6.2888198
1436 5.8154268
1434 5.1779656
1432 4.4239507
1430 3.6641426
1428 2.984966
1426 2.417767
1424 1.9677937
1422 1.6241115
1420 1.3916086
1418 1.2997811
1416 1.3705599
1414 1.6041729
1412 1.976956
1410 2.4404955
1408 2.9544616
1406 3.4963586
1404 4.0406213
1402 4.551651
1400 4.9925842
1398 5.3322725
1396 5.5660572
1394 5.7243862
1392 5.8352809
1390 5.9097252
1388 5.9429617
1386 5.9143348
1384 5.8105774
1382 5.6336093
1380 5.3816772
1378 5.0446839
1376 4.6214085
1374 4.12995
1372 3.6108
1370 3.1250591
1368 2.7006297
1366 2.3074336
1364 1.9029895
1362 1.4534992
1360 0.97286707
1358 0.54170489
1356 0.22748604
1354 0.049620006
1352 -0.0052738581
1350 0.017012678
1348 0.078270555
1346 0.16434036
1344 0.2688452
1342 0.38901243
1340 0.52143842
1338 0.6594286
1336 0.78974599
1334 0.89104813
1332 0.94795692
1330 0.95911914
1328 0.9339267
1326 0.89360583
1324 0.85789227
1322 0.83892542
1320 0.84300685
1318 0.86939019
1316 0.91484797
1314 0.97403353
1312 1.0374017
1310 1.0897415
1308 1.1185663
1306 1.1197529
1304 1.0967789
1302 1.063562
1300 1.0368909
1298 1.0338459
1296 1.0689429
1294 1.1509595
1292 1.2809571
1290 1.4490025
1288 1.643648
1286 1.8555692
1284 2.0773005
1282 2.3036597
1280 2.5264227
1278 2.7316694
1276 2.9088256
1274 3.0567839
1272 3.1854503
1270 3.3207812
1268 3.4921565
1266 3.7268057
1264 4.0432591
1262 4.4446549
1260 4.9285498
1258 5.4888406
1256 6.1192088
1254 6.8133192
1252 7.5618019
1250 8.3498631
1248 9.162077
1246 9.9851751
1244 10.80584
1242 11.609018
1240 12.374897
1238 13.076365
1236 13.682557
1234 14.162122
1232 14.48196
1230 14.60965
1228 14.525137
1226 14.237407
1224 13.772348
1222 13.169959
1220 12.472891
1218 11.71883
1216 10.943914
1214 10.190502
1212 9.4937296
1210 8.8781214
1208 8.351737
1206 7.8957214
1204 7.4778481
1202 7.0523572
1200 6.5776405
1198 6.0293922
1196 5.4023428
1194 4.7236619
1192 4.0300169
1190 3.3613091
1188 2.7492044
1186 2.2057493
1184 1.7354783
1182 1.3375181
1180 1.0132618
1178 0.77103066
1176 0.61646402
1174 0.54407221
1172 0.53789133
1170 0.56536186
1168 0.59690106
1166 0.61909658
1164 0.62903464
1162 0.63788092
1160 0.65285999
1158 0.66482967
1156 0.66090775
1154 0.62902278
1152 0.56194681
1150 0.46331307
1148 0.34099579
1146 0.20749196
1144 0.082848087
1142 0.00067669712
1140 -0.014226241
1138 0.034625448
1136 0.13647801
1134 0.27950519
1132 0.45272708
1130 0.64782929
1128 0.85794103
1126 1.0781943
1124 1.3053294
1122 1.5394142
1120 1.785048
1118 2.0555665
1116 2.3608601
1114 2.6975703
1112 3.0586348
1110 3.4366851
1108 3.8266895
1106 4.230165
1104 4.6441522
1102 5.051868
1100 5.4357033
1098 5.7865176
1096 6.1081429
1094 6.4328213
1092 6.7961779
1090 7.2238126
1088 7.7228141
1086 8.2597227
1084 8.7929592
1082 9.2866783
1080 9.7145815
1078 10.0707
1076 10.347686
1074 10.524155
1072 10.583103
1070 10.54295
1068 10.436503
1066 10.32365
1064 10.25192
1062 10.221407
1060 10.215946
1058 10.202909
1056 10.153714
1054 10.058122
1052 9.9111261
1050 9.7056446
1048 9.4406424
1046 9.1335144
1044 8.8102188
1042 8.5073395
1040 8.2494087
1038 8.018693
1036 7.7878699
1034 7.5320072
1032 7.2384501
1030 6.9277244
1028 6.6185622
1026 6.3015513
1024 5.9614987
1022 5.5896449
1020 5.1922212
1018 4.815836
1016 4.5034342
1014 4.2562308
1012 4.0515704
1010 3.8267727
1008 3.5234799
1006 3.1284986
1004 2.6553531
1002 2.1663482
1000 1.7258892
998 1.3671359
996 1.1024663
994 0.90282643
992 0.73171002
990 0.56094223
988 0.37174395
986 0.16896348
984 -0.034597501
982 -0.2191301
980 -0.3626036
978 -0.44168851
976 -0.43806773
974 -0.35142905
972 -0.19298732
970 0.0026159286
968 0.19691874
966 0.35868201
964 0.46769685
962 0.53518099
960 0.57983106
958 0.61887622
956 0.66008598
954 0.67983949
952 0.64932442
950 0.54932839
948 0.38070834
946 0.2061719
944 0.083382666
942 -0.0023018047
940 -0.070970863
938 -0.098069534
936 -0.059122741
934 0.029736519
932 0.14116657
930 0.24386382
928 0.31135389
926 0.33880994
924 0.33577842
922 0.34503284
920 0.39909631
918 0.46050799
916 0.47692499
914 0.40604353
912 0.23285662
910 0.037581488
908 -0.083279356
906 -0.062498868
904 0.13226634
902 0.42521432
900 0.71959996
898 0.94306338
896 1.0293
