Image.
>Pix99999.
  .
5555
5555
2300
900
5555
2
1
0
701
5555
5.6795999e-002
5.7978310e-002
5.9159622e-002
6.0340930e-002
6.1522238e-002
6.2704541e-002
6.3885860e-002
6.5067172e-002
6.6248477e-002
6.7429796e-002
6.8612084e-002
6.9796368e-002
7.0974775e-002
7.2146215e-002
7.3338121e-002
7.4557811e-002
7.5701848e-002
7.6741762e-002
7.8060851e-002
7.9771236e-002
8.0443598e-002
7.9654962e-002
8.2727492e-002
9.1244079e-002
8.5412197e-002
4.9955178e-002
1.1649325e-002
2.3461694e-003
2.6839288e-002
7.7949733e-002
1.3140346e-001
1.6053645e-001
1.4831503e-001
9.0038344e-002
1.9385345e-002
-2.6012801e-002
-3.7445806e-002
-1.9573323e-002
3.6499002e-003
9.7776344e-003
5.1002344e-003
1.9197583e-003
1.8727640e-003
2.6389088e-003
-6.3781359e-004
-1.1006010e-002
-2.1260744e-002
-2.3741810e-002
-2.1753000e-002
-2.1548640e-002
-2.7404286e-002
-4.2666107e-002
-6.9651872e-002
-1.1021680e-001
-1.6557603e-001
-2.3341721e-001
-2.9771000e-001
-3.4026179e-001
-3.5186180e-001
-3.3085263e-001
-2.9427171e-001
-2.6252145e-001
-2.4507132e-001
-2.4542360e-001
-2.5776577e-001
-2.7370384e-001
-2.8630501e-001
-2.8911486e-001
-2.7518737e-001
-2.4113744e-001
-1.9882600e-001
-1.6416626e-001
-1.4842223e-001
-1.5833183e-001
-1.8922402e-001
-2.3298785e-001
-2.8338093e-001
-3.3290491e-001
-3.6568132e-001
-3.6666149e-001
-3.3641285e-001
-2.8393197e-001
-2.2969267e-001
-1.9494037e-001
-1.8794321e-001
-2.0952700e-001
-2.4955033e-001
-2.9388317e-001
-3.2757452e-001
-3.4045333e-001
-3.4290773e-001
-3.5166690e-001
-3.7824279e-001
-4.2735219e-001
-4.8457932e-001
-5.3135926e-001
-5.6145883e-001
-5.7607234e-001
-5.8682275e-001
-6.0637152e-001
-6.3587004e-001
-6.7124975e-001
-7.0581472e-001
-7.3209023e-001
-7.4288648e-001
-7.3115897e-001
-6.8986118e-001
-6.1529803e-001
-5.1772517e-001
-4.1334802e-001
-3.1998342e-001
-2.5273779e-001
-2.1363881e-001
-1.9986363e-001
-2.1051903e-001
-2.4496636e-001
-2.9920807e-001
-3.6673850e-001
-4.3645528e-001
-4.9876037e-001
-5.5789626e-001
-6.2210995e-001
-6.9191360e-001
-7.6194352e-001
-8.1717670e-001
-8.4133714e-001
-8.2941002e-001
-7.8343242e-001
-7.1405077e-001
-6.3595384e-001
-5.6618845e-001
-5.2049422e-001
-5.0547785e-001
-5.2079427e-001
-5.5387431e-001
-5.8629799e-001
-5.9684753e-001
-5.7065469e-001
-5.2379686e-001
-4.8699200e-001
-4.9374399e-001
-5.6497854e-001
-6.6618264e-001
-7.4479985e-001
-7.7891028e-001
-7.6928008e-001
-7.4679601e-001
-7.4697548e-001
-7.6973182e-001
-7.9736835e-001
-8.1147712e-001
-7.9852623e-001
-7.6259732e-001
-7.1524996e-001
-6.6461200e-001
-6.1635673e-001
-5.7506293e-001
-5.4490012e-001
-5.3005803e-001
-5.3198940e-001
-5.4031229e-001
-5.3878641e-001
-5.1071775e-001
-4.4552991e-001
-3.5810885e-001
-2.7398092e-001
-2.1024409e-001
-1.7451847e-001
-1.5561160e-001
-1.3842879e-001
-1.3015714e-001
-1.4637990e-001
-1.8736321e-001
-2.4115047e-001
-2.8056353e-001
-2.7932751e-001
-2.4616463e-001
-2.0799501e-001
-1.8979242e-001
-2.0707457e-001
-2.4519287e-001
-2.7742213e-001
-2.9257381e-001
-2.9143682e-001
-2.8567189e-001
-2.8577742e-001
-2.7528495e-001
-2.2781891e-001
-1.3866159e-001
-1.8756250e-002
1.0922364e-001
2.2140710e-001
3.1173560e-001
3.8039514e-001
4.1000581e-001
3.7786222e-001
2.8435799e-001
1.4940181e-001
1.7904300e-002
-5.8623761e-002
-5.5855427e-002
2.5463941e-002
1.4706407e-001
2.5275561e-001
2.9489267e-001
2.4467479e-001
1.2666775e-001
-7.7444836e-003
-1.2216838e-001
-1.9720259e-001
-2.3735699e-001
-2.5674531e-001
-2.5486359e-001
-2.2558068e-001
-1.8162712e-001
-1.4637564e-001
-1.3638932e-001
-1.5837011e-001
-1.9856697e-001
-2.3619440e-001
-2.7158314e-001
-3.1650105e-001
-3.7117770e-001
-4.2654920e-001
-4.6995002e-001
-4.9036679e-001
-4.9020422e-001
-4.7936732e-001
-4.6345183e-001
-4.4316846e-001
-4.1350013e-001
-3.6604878e-001
-2.9180291e-001
-1.8821599e-001
-8.2007259e-002
-1.6072286e-002
-2.2030666e-002
-1.1263539e-001
-2.5780120e-001
-4.0354681e-001
-5.0852913e-001
-5.4909533e-001
-5.3038985e-001
-4.7311655e-001
-3.8872474e-001
-2.8352699e-001
-1.7760660e-001
-1.0049792e-001
-7.8445867e-002
-1.2367032e-001
-2.0029715e-001
-2.4680115e-001
-2.3089960e-001
-1.5098028e-001
-3.6495786e-002
6.9261149e-002
1.4351246e-001
1.8390149e-001
2.0615560e-001
2.3712970e-001
3.0659944e-001
4.3400484e-001
5.8828431e-001
7.0378113e-001
7.1970803e-001
6.0205746e-001
4.0253180e-001
2.1588112e-001
5.8064114e-002
-1.0567504e-001
-2.4564528e-001
-2.8749907e-001
-2.0637217e-001
-3.3475008e-002
1.4241152e-001
2.1015607e-001
1.2327193e-001
-9.2756040e-002
-3.2386726e-001
-4.1955677e-001
-3.3223599e-001
-1.1528496e-001
1.0592097e-001
1.8812178e-001
1.0119159e-001
-8.2370751e-002
-2.4106473e-001
-2.3514310e-001
4.7964275e-002
6.6571593e-001
1.5321133e+000
2.4628227e+000
3.3176491e+000
4.0406175e+000
4.7332101e+000
5.6124496e+000
6.8919344e+000
8.7508888e+000
1.1302094e+001
1.4542612e+001
1.8162001e+001
2.1655500e+001
2.4735760e+001
2.7402962e+001
2.9999458e+001
3.3079830e+001
3.7046890e+001
4.2009960e+001
4.7468960e+001
5.2583847e+001
5.7165558e+001
6.1642498e+001
6.6421448e+001
7.1679398e+001
7.7080078e+001
8.1942848e+001
8.5919853e+001
8.9036736e+001
9.1421364e+001
9.3220810e+001
9.4533318e+001
9.5403465e+001
9.5845840e+001
9.5846977e+001
9.5348145e+001
9.4291183e+001
9.2794434e+001
9.1110016e+001
8.9348831e+001
8.7449303e+001
8.5265518e+001
8.2632774e+001
7.9532509e+001
7.6070755e+001
7.2273643e+001
6.8078018e+001
6.3464203e+001
5.8496876e+001
5.3371849e+001
4.8381081e+001
4.3751316e+001
3.9614140e+001
3.6029613e+001
3.2991180e+001
3.0421669e+001
2.8197086e+001
2.6242037e+001
2.4544262e+001
2.3128384e+001
2.2037184e+001
2.1278000e+001
2.0818459e+001
2.0613258e+001
2.0616085e+001
2.0807850e+001
2.1195499e+001
2.1780628e+001
2.2566080e+001
2.3605331e+001
2.5002274e+001
2.6851429e+001
2.9199440e+001
3.1950665e+001
3.4878544e+001
3.7792519e+001
4.0582493e+001
4.3214054e+001
4.5742188e+001
4.8373512e+001
5.1368946e+001
5.4547501e+001
5.7284401e+001
5.9145164e+001
6.0053463e+001
6.0229221e+001
6.0081966e+001
5.9758938e+001
5.9074718e+001
5.7814499e+001
5.5861191e+001
5.3371799e+001
5.0760559e+001
4.8323414e+001
4.6142078e+001
4.4179218e+001
4.2311100e+001
4.0389408e+001
3.8276798e+001
3.5926304e+001
3.3408745e+001
3.0889999e+001
2.8578577e+001
2.6488239e+001
2.4400738e+001
2.2109816e+001
1.9522379e+001
1.6775835e+001
1.4220846e+001
1.2059460e+001
1.0252918e+001
8.6857862e+000
7.2246318e+000
5.8082747e+000
4.4668231e+000
3.2275748e+000
2.0970836e+000
1.1122272e+000
3.4918165e-001
-1.2874301e-001
-2.7703527e-001
-1.3978571e-002
7.6384974e-001
2.0046229e+000
3.4629810e+000
4.9127002e+000
6.2227130e+000
7.3724346e+000
8.4558754e+000
9.5771627e+000
1.0801054e+001
1.2080400e+001
1.3235760e+001
1.4083860e+001
1.4496903e+001
1.4457783e+001
1.4081392e+001
1.3495177e+001
1.2799910e+001
1.2053246e+001
1.1259445e+001
1.0396950e+001
9.4355707e+000
8.4048662e+000
7.4153147e+000
6.5654759e+000
5.9078231e+000
5.4543672e+000
5.1759567e+000
5.0414882e+000
5.0294905e+000
5.1189342e+000
5.2882881e+000
5.5251894e+000
5.8297491e+000
6.1992188e+000
6.6194615e+000
7.0567136e+000
7.4523506e+000
7.7427278e+000
7.8696094e+000
7.8031645e+000
7.5567088e+000
7.1735868e+000
6.7232742e+000
6.2590127e+000
5.8012848e+000
5.3609390e+000
4.9452066e+000
4.5580006e+000
4.1968884e+000
3.8434885e+000
3.4601684e+000
3.0208402e+000
2.5252910e+000
1.9876857e+000
1.4344857e+000
8.9030099e-001
3.7523749e-001
-7.4530393e-002
-3.9902121e-001
-5.4846525e-001
-5.0006634e-001
-2.5219634e-001
1.7079803e-001
7.2696149e-001
1.3579535e+000
2.0163560e+000
2.6759803e+000
3.3020940e+000
3.8382087e+000
4.2210288e+000
4.3911510e+000
4.3303585e+000
4.0877681e+000
3.7324429e+000
3.3396266e+000
2.9758241e+000
2.6865399e+000
2.4895971e+000
2.3635082e+000
2.2732399e+000
2.1779373e+000
2.0511394e+000
1.8935430e+000
1.7144449e+000
1.5276092e+000
1.3503131e+000
1.2045810e+000
1.1179374e+000
1.1249586e+000
1.2550714e+000
1.5245218e+000
1.9365612e+000
2.4753354e+000
3.1101561e+000
3.7910001e+000
4.4595857e+000
5.0533524e+000
5.5265608e+000
5.8675046e+000
6.0887527e+000
6.2318430e+000
6.3404627e+000
6.4497004e+000
6.5884295e+000
6.7769599e+000
7.0322742e+000
7.3685651e+000
7.7979960e+000
8.3302402e+000
8.9735432e+000
9.7329950e+000
1.0604046e+001
1.1565155e+001
1.2593274e+001
1.3666000e+001
1.4760931e+001
1.5848960e+001
1.6882200e+001
1.7774305e+001
1.8436829e+001
1.8795454e+001
1.8802160e+001
1.8453279e+001
1.7765169e+001
1.6778915e+001
1.5556308e+001
1.4185713e+001
1.2772323e+001
1.1436390e+001
1.0286566e+001
9.3906412e+000
8.7902441e+000
8.4840021e+000
8.4390059e+000
8.5750170e+000
8.7840633e+000
8.9279575e+000
8.8883734e+000
8.6072369e+000
8.0748501e+000
7.3537951e+000
6.5232897e+000
5.6611328e+000
4.8354259e+000
4.0929704e+000
3.4656949e+000
2.9623418e+000
2.5777895e+000
2.2887123e+000
2.0719800e+000
1.9141083e+000
1.8046974e+000
1.7350277e+000
1.6948069e+000
1.6701272e+000
1.6502649e+000
1.6341110e+000
1.6208223e+000
1.6049396e+000
1.5770485e+000
1.5214539e+000
1.4241400e+000
1.2788906e+000
1.0865970e+000
8.6011964e-001
6.1959124e-001
3.9353320e-001
2.0267802e-001
4.5075879e-002
-8.3418489e-002
-1.8016830e-001
-2.4750277e-001
-3.0321550e-001
-3.6752206e-001
-4.5578158e-001
-5.6744689e-001
-6.6630882e-001
-7.0812440e-001
-6.5251672e-001
-4.8377687e-001
-2.4463396e-001
8.8621974e-003
2.2421981e-001
3.6764050e-001
4.5023999e-001
4.9642211e-001
5.3634614e-001
5.9550440e-001
6.8406588e-001
8.0949712e-001
9.8112535e-001
1.2028220e+000
1.4634266e+000
1.7487549e+000
2.0468128e+000
2.3489707e+000
2.6525586e+000
2.9407492e+000
3.1574311e+000
3.2455459e+000
3.1745026e+000
2.9496622e+000
2.6540153e+000
2.3808656e+000
2.1968598e+000
2.1345680e+000
2.1518631e+000
2.1925926e+000
2.2138054e+000
2.1937656e+000
2.1605248e+000
2.1460140e+000
2.1574879e+000
2.1867893e+000
2.1994071e+000
2.1693375e+000
2.1129870e+000
2.0607190e+000
2.0541494e+000
2.1235900e+000
2.2593923e+000
2.4302132e+000
2.5705938e+000
2.6154568e+000
2.5275943e+000
2.3044171e+000
2.0252228e+000
1.7772759e+000
1.6095635e+000
1.5314658e+000
1.4621215e+000
1.3199317e+000
1.0903045e+000
7.9602361e-001
5.2305198e-001
3.4332681e-001
2.3671599e-001
1.5564542e-001
3.8812697e-002
-1.5397643e-001
-3.8559771e-001
-6.0243869e-001
-7.5970155e-001
-8.2967961e-001
-8.3235174e-001
-7.9485518e-001
-7.2932798e-001
-6.4352798e-001
-5.4312736e-001
-4.3843627e-001
-3.5650715e-001
-3.1967619e-001
-3.2068354e-001
-3.4019980e-001
-3.4332952e-001
-3.0062920e-001
-2.1452817e-001
-1.0075934e-001
6.5103993e-003
7.3833130e-002
8.6563811e-002
4.5439322e-002
-1.1442542e-002
-4.2211208e-002
-2.4310108e-002
6.1240733e-002
2.3729649e-001
5.1280320e-001
8.4339070e-001
1.1743858e+000
1.4617620e+000
1.6672355e+000
1.7626224e+000
1.7323531e+000
1.5978764e+000
1.4014840e+000
1.2278591e+000
1.1580029e+000
1.2183914e+000
1.4028014e+000
1.6330119e+000
1.8190925e+000
1.8955929e+000
1.8240898e+000
1.6479443e+000
1.4450572e+000
1.3511503e+000
1.4799213e+000
1.8021446e+000
2.2528000e+000
