##TITLE=Methyl Ethyl Ketone
##JCAMP-DX=4.24
##DATA TYPE=INFRARED SPECTRUM
##XUNITS=cm-1
##YUNITS=Absorbance
##FIRSTX=900
##LASTX=2300
##XYDATA=(X++(Y..Y))
2296 0.16588999
2294 0.16934505
2292 0.17279014
2290 0.17624517
2288 0.17970023
2286 0.18314536
2284 0.18660034
2282 0.19004551
2280 0.19350046
2278 0.19695552
2276 0.20040071
2274 0.20385562
2272 0.20730086
2270 0.21075575
2268 0.21421079
2266 0.21765608
2264 0.22111093
2262 0.22455621
2260 0.22801103
2258 0.2314661
2256 0.23491143
2254 0.2383662
2252 0.24182124
2250 0.24526665
2248 0.24872138
2246 0.25216681
2244 0.098095171
2242 0.0035542415
2240 -0.070507199
2238 0.0010221007
2236 0.093923353
2234 0.25427571
2232 0.4151791
2230 0.47995919
2228 0.52358776
2226 0.43511599
2224 0.33102509
2222 0.18623951
2220 0.065800838
2218 0.026135746
2216 0.04540354
2214 0.18347958
2212 0.3485752
2210 0.54631245
2208 0.70519727
2206 0.81313026
2204 0.86123079
2202 0.85479277
2200 0.81244791
2198 0.74594468
2196 0.66369927
2194 0.57329583
2192 0.45876798
2190 0.33389032
2188 0.28020206
2186 0.24987151
2184 0.42433199
2182 0.64556104
2180 0.89876366
2178 1.1540558
2176 1.2170172
2174 1.2563188
2172 1.2276176
2170 1.1941971
2168 1.1707572
2166 1.1413043
2164 1.0866026
2162 1.0416827
2160 1.0285617
2158 1.0299437
2156 1.0527
2154 1.0315676
2152 0.94376117
2150 0.81680477
2148 0.65361756
2146 0.56106496
2144 0.53430492
2142 0.61629838
2140 0.7691558
2138 0.9078843
2136 1.034984
2134 1.0663784
2132 1.0580057
2130 0.98410249
2128 0.89045084
2126 0.71441841
2124 0.51956582
2122 0.3431733
2120 0.18198028
2118 0.24902113
2116 0.36509627
2114 0.60407919
2112 0.83253032
2110 0.93546969
2108 0.98680258
2106 0.93775755
2104 0.88308108
2102 0.84858334
2100 0.82536739
2098 0.81604105
2096 0.81058711
2094 0.8074882
2092 0.81653839
2090 0.83782542
2088 0.87646067
2086 0.92803401
2084 0.98896688
2082 1.0549059
2080 1.1132212
2078 1.1671693
2076 1.2068543
2074 1.240972
2072 1.22278
2070 1.1879438
2068 1.1103569
2066 1.0234421
2064 0.97816467
2062 0.94799209
2060 0.98996282
2058 1.0555996
2056 1.1734886
2054 1.2999681
2052 1.4196471
2050 1.5226462
2048 1.5857863
2046 1.6211464
2044 1.617844
2042 1.5762812
2040 1.4884006
2038 1.3862736
2036 1.2778729
2034 1.2201898
2032 1.212736
2030 1.2415121
2028 1.2916204
2026 1.2864028
2024 1.2433811
2022 1.1199328
2020 0.95740032
2018 0.79919696
2016 0.64507198
2014 0.60953051
2012 0.6139977
2010 0.64741176
2008 0.68183142
2006 0.61717564
2004 0.53772038
2002 0.53208059
2000 0.5701049
1998 0.71521622
1996 0.84553361
1994 0.84909433
1992 0.78673911
1990 0.64770114
1988 0.57528758
1986 0.65305352
1984 0.80761987
1982 1.0194752
1980 1.1405375
1978 1.1438653
1976 1.0442228
1974 0.8726027
1972 0.76434302
1970 0.7155239
1968 0.75105315
1966 0.83323991
1964 0.83033186
1962 0.77884704
1960 0.66303003
1958 0.52188671
1956 0.49081641
1954 0.50267088
1952 0.591847
1950 0.69257128
1948 0.66729653
1946 0.57934499
1944 0.37133887
1942 0.1538029
1940 0.039637789
1938 -0.015620684
1936 0.00090034213
1934 0.0037761712
1932 -0.065256447
1930 -0.18385525
1928 -0.34973446
1926 -0.46226028
1924 -0.48868713
1922 -0.32981858
1920 0.0053988546
1918 0.4115046
1916 0.84405941
1914 1.1504557
1912 1.3564086
1910 1.397053
1908 1.3431952
1906 1.114525
1904 0.79827517
1902 0.52300692
1900 0.2719264
1898 0.2650215
1896 0.36032572
1894 0.53516144
1892 0.72295052
1890 0.79109079
1888 0.78246075
1886 0.6427356
1884 0.44950402
1882 0.2424531
1880 0.03856089
1878 -0.14720133
1876 -0.34418401
1874 -0.57533193
1872 -0.78829139
1870 -0.95794582
1868 -1.0008858
1866 -0.89989078
1864 -0.74205106
1862 -0.5658139
1860 -0.45209759
1858 -0.39967126
1856 -0.42474458
1854 -0.49991062
1852 -0.61732101
1850 -0.75754297
1848 -0.85978162
1846 -0.93898433
1844 -1.0329138
1842 -1.1388447
1840 -1.3156348
1838 -1.5228431
1836 -1.70968
1834 -1.86324
1832 -1.8978652
1830 -1.8104086
1828 -1.4736238
1826 -1.0329863
1824 -0.59785295
1822 -0.31778947
1820 -0.36238781
1818 -0.58784473
1816 -0.90943885
1814 -1.1697
1812 -1.2920529
1810 -1.2863795
1808 -1.1800543
1806 -1.0404745
1804 -0.8976357
1802 -0.80543166
1800 -0.76127356
1798 -0.7903055
1796 -0.86984211
1794 -0.89351135
1792 -0.87005758
1790 -0.64875358
1788 -0.30469865
1786 0.025697857
1784 0.33269051
1782 0.48158351
1780 0.54592371
1778 0.62420613
1776 0.71098715
1774 0.80191052
1772 0.83733457
1770 0.69755918
1768 0.48812521
1766 0.31918329
1764 0.23324379
1762 0.27221435
1760 0.11763669
1758 -0.24596554
1756 -0.62736773
1754 -0.98498452
1752 -1.1083937
1750 -0.95689863
1748 -0.59427959
1746 -0.094818212
1744 0.19795994
1742 0.26250404
1740 0.1212293
1738 -0.15569945
1736 -0.18642201
1734 -0.01370085
1732 0.30596215
1730 0.69858557
1728 0.70389652
1726 0.44968849
1724 0.15718523
1722 -0.087839425
1720 0.081026793
1718 0.67568481
1716 1.7507467
1714 3.0014067
1712 4.0416818
1710 4.8878169
1708 5.5427799
1706 6.3330183
1704 7.5554461
1702 9.5292721
1700 12.407854
1698 16.005093
1696 20.106857
1694 23.85393
1692 26.93376
1690 29.677526
1688 32.266834
1686 35.571636
1684 39.636066
1682 44.245529
1680 49.2314
1678 53.416847
1676 56.887459
1674 60.379452
1672 63.978806
1670 68.301628
1668 73.179138
1666 78.1306
1664 83.067421
1662 87.704956
1660 91.985535
1658 95.751785
1656 98.99926
1654 101.72026
1652 103.8344
1650 105.28782
1648 105.61737
1646 104.50643
1644 102.34963
1642 99.574379
1640 96.412254
1638 93.051918
1636 89.157799
1634 84.659027
1632 80.007683
1630 75.381653
1628 70.955719
1626 66.740219
1624 62.299839
1622 57.598118
1620 52.980965
1618 48.483505
1616 44.331001
1614 40.537785
1612 37.163929
1610 34.224339
1608 31.705719
1606 29.586821
1604 27.730974
1602 26.145529
1600 24.798599
1598 23.704067
1596 22.844
1594 22.219257
1592 21.796896
1590 21.561172
1588 21.472115
1586 21.532972
1584 21.728367
1582 22.047569
1580 22.472254
1578 23.068949
1576 23.856544
1574 24.860878
1572 26.08378
1570 27.326824
1568 28.54512
1566 29.66523
1564 30.68121
1562 31.907593
1560 33.443188
1558 35.851337
1556 39.139656
1554 42.496628
1552 45.743141
1550 48.195515
1548 49.90358
1546 51.362785
1544 52.528851
1542 53.406464
1540 53.764019
1538 53.350246
1536 52.293999
1534 50.875843
1532 49.361183
1530 48.024853
1528 46.797447
1526 45.619202
1524 44.297173
1522 42.713165
1520 40.863914
1518 38.739346
1516 36.724197
1514 34.953888
1512 33.201599
1510 31.415642
1508 28.997028
1506 25.761621
1504 22.483303
1502 19.246561
1500 16.650444
1498 14.78395
1496 13.048857
1494 11.452125
1492 9.8900394
1490 8.3649645
1488 6.8632798
1486 5.3830857
1484 3.9105761
1482 2.5415761
1480 1.4091287
1478 0.59032339
1476 0.14661014
1474 0.17893228
1472 0.73398972
1470 1.452968
1468 2.1549225
1466 2.7774351
1464 3.263128
1462 3.8004246
1460 4.4850717
1458 5.2316456
1456 6.03478
1454 6.5973606
1452 6.7783046
1450 6.8103342
1448 6.6483498
1446 6.4762177
1444 6.2835879
1442 6.048346
1440 5.7589149
1438 5.4585114
1436 5.1363401
1434 4.7846174
1432 4.3955722
1430 3.9793918
1428 3.5763519
1426 3.2688186
1424 3.085367
1422 3.0453696
1420 3.1380017
1418 3.3445835
1416 3.6384687
1414 4.0008321
1412 4.385982
1410 4.7548599
1408 5.0830994
1406 5.3386817
1404 5.5236359
1402 5.6080856
1400 5.6414042
1398 5.6092949
1396 5.6085286
1394 5.6760378
1392 5.7720966
1390 5.9092307
1388 5.9769163
1386 5.9317899
1384 5.80164
1382 5.5518298
1380 5.2454438
1378 4.8694205
1376 4.4690742
1374 4.0604525
1372 3.708936
1370 3.4191942
1368 3.1740885
1366 2.9268816
1364 2.5831852
1362 2.1576939
1360 1.665864
1358 1.1832323
1356 0.80079514
1354 0.49309862
1352 0.27193069
1350 0.093606703
1348 -0.040344231
1346 -0.12397642
1344 -0.1162488
1342 -0.058361892
1340 0.086109109
1338 0.22964749
1336 0.3635883
1334 0.46152386
1332 0.50202894
1330 0.54301971
1328 0.59324461
1326 0.68529087
1324 0.84465539
1322 1.071237
1320 1.3805789
1318 1.7273663
1316 2.0898101
1314 2.3846035
1312 2.5930908
1310 2.6923575
1308 2.7071147
1306 2.6793814
1304 2.6365182
1302 2.615849
1300 2.604774
1298 2.5957158
1296 2.5708714
1294 2.5023415
1292 2.4252646
1290 2.3529935
1288 2.307476
1286 2.3309278
1284 2.3787758
1282 2.4775546
1280 2.5679309
1278 2.6375899
1276 2.6846485
1274 2.692482
1272 2.720392
1270 2.7913699
1268 2.927115
1266 3.1565092
1264 3.4212978
1262 3.7260141
1260 4.03093
1258 4.3393292
1256 4.6607199
1254 4.9939637
1252 5.3342538
1250 5.6780267
1248 6.0187097
1246 6.3646498
1244 6.7349324
1242 7.1192327
1240 7.5200601
1238 7.9103589
1236 8.2510529
1234 8.5418768
1232 8.700592
1230 8.7869701
1228 8.6808271
1226 8.5108356
1224 8.1707973
1222 7.7891245
1220 7.3094945
1218 6.8143353
1216 6.2893572
1214 5.7628598
1212 5.2296638
1210 4.6735892
1208 4.0851536
1206 3.4843659
1204 2.8861082
1202 2.3615353
1200 1.9237418
1198 1.5829473
1196 1.3128715
1194 1.0490338
1192 0.78095233
1190 0.47967702
1188 0.17281473
1186 -0.096841842
1184 -0.3276059
1182 -0.44876951
1180 -0.51286954
1178 -0.4459646
1176 -0.33802
1174 -0.13656843
1172 0.06893602
1170 0.26882762
1168 0.45413244
1166 0.5955137
1164 0.73268121
1162 0.85815388
1160 0.97117472
1158 1.0570053
1156 1.1221914
1154 1.1521618
1152 1.1649177
1150 1.1466776
1148 1.0757262
1146 0.93802214
1144 0.73064995
1142 0.47057891
1140 0.23637822
1138 0.059036087
1136 0.094184637
1134 0.28553131
1132 0.74786317
1130 1.3139366
1128 1.8799434
1126 2.4115171
1124 2.76157
1122 3.0742071
1120 3.358304
1118 3.6519477
1116 4.0096216
1114 4.3566117
1112 4.6524935
1110 4.9183221
1108 5.0887618
1106 5.2444448
1104 5.3666978
1102 5.5071383
1100 5.6882429
1098 5.9146366
1096 6.2119999
1094 6.5264778
1092 6.8618102
1090 7.1979399
1088 7.5423422
1086 7.9408278
1084 8.3838043
1082 8.8515434
1080 9.3146887
1078 9.6437216
1076 9.8807487
1074 9.8905373
1072 9.8185225
1070 9.6898384
1068 9.5642939
1066 9.5516434
1064 9.5525122
1062 9.5449209
1060 9.5296488
1058 9.4685202
1056 9.4193888
1054 9.4220619
1052 9.4153557
1050 9.3762465
1048 9.3046007
1046 9.1587114
1044 9.0457497
1042 8.996913
1040 8.9849167
1038 9.0139713
1036 8.9228506
1034 8.6783199
1032 8.2486362
1030 7.6561518
1028 7.0664034
1026 6.4993978
1024 6.1460376
1022 5.9143248
1020 5.7910633
1018 5.6965485
1016 5.4632797
1014 5.1788597
1012 4.7412457
1010 4.2703991
1008 3.7154839
1006 3.1544914
1004 2.604804
1002 2.0747035
1000 1.67844
998 1.2949072
996 0.96690857
994 0.63001239
992 0.26749077
990 -0.068464994
988 -0.34170592
986 -0.57864881
984 -0.75429749
982 -0.94998014
980 -1.169224
978 -1.3360186
976 -1.4342686
974 -1.2803414
972 -0.91575974
970 -0.36307266
968 0.29180068
966 0.72815299
964 1.0468568
962 0.98646462
960 0.79956794
958 0.51988
956 0.22732025
954 0.089030005
952 -0.025708679
950 -0.021414539
948 -0.012365084
946 -0.0040764213
944 0.003949374
942 0.12010214
940 0.27468115
938 0.5911721
936 0.87392682
934 1.0565856
932 1.1854728
930 1.2017201
928 1.2916406
926 1.5018964
924 1.8595459
922 2.3979745
920 3.0381122
918 3.7710323
916 4.3947244
914 4.9369335
912 5.1159549
910 5.1029992
908 5.0628629
906 5.0162287
904 5.5663419
902 6.2738709
900 7.2691803
898 8.3102369
896 8.9651003
