##TITLE=Methyl Ethyl Ketone
##JCAMP-DX=4.24
##DATA TYPE=INFRARED SPECTRUM
##XUNITS=cm-1
##YUNITS=Absorbance
##FIRSTX=900
##LASTX=2300
##XYDATA=(X++(Y..Y))
2296 -0.014482
2294 -0.014783569
2292 -0.015085137
2290 -0.01538571
2288 -0.015687276
2286 -0.015988844
2284 -0.01628942
2282 -0.016590981
2280 -0.016892549
2278 -0.017194116
2276 -0.017494699
2274 -0.017796254
2272 -0.018097823
2270 -0.01839841
2268 -0.018699959
2266 -0.019001529
2264 -0.019303096
2262 -0.019603688
2260 -0.019905234
2258 -0.020206802
2256 -0.020507401
2254 -0.020808941
2252 -0.021110509
2250 -0.021412078
2248 -0.021712679
2246 -0.022014214
2244 -0.00081807142
2242 0.053110275
2240 0.11559524
2238 0.10688513
2236 0.08761894
2234 -0.0059186402
2232 -0.10460813
2230 -0.19920358
2228 -0.28632963
2226 -0.31541151
2224 -0.33576733
2222 -0.32969642
2220 -0.32493079
2218 -0.32848546
2216 -0.32718256
2214 -0.31423008
2212 -0.29841819
2210 -0.27909216
2208 -0.27515355
2206 -0.29069936
2204 -0.29703069
2202 -0.29330474
2200 -0.24470612
2198 -0.16305789
2196 -0.065415785
2194 0.040183451
2192 0.12400497
2190 0.19803576
2188 0.24094802
2186 0.27395192
2184 0.24855961
2182 0.20987399
2180 0.11921959
2178 0.021121226
2176 -0.060023975
2174 -0.13928548
2172 -0.21520425
2170 -0.29899609
2168 -0.42975867
2166 -0.56055027
2164 -0.67475301
2162 -0.75188118
2160 -0.73830777
2158 -0.67821831
2156 -0.54741102
2154 -0.39233357
2152 -0.21266143
2150 -0.056253649
2148 0.071044289
2146 0.11278907
2144 0.081589781
2142 0.0013166936
2140 -0.10780475
2138 -0.15562715
2136 -0.16846342
2134 -0.1475036
2132 -0.11375532
2130 -0.14691798
2128 -0.2017996
2126 -0.28058136
2124 -0.36452577
2122 -0.38482058
2120 -0.39183417
2118 -0.34024239
2116 -0.27714357
2114 -0.1904164
2112 -0.10707845
2110 -0.053923961
2108 -0.022830341
2106 -0.045005526
2104 -0.083587475
2102 -0.14102289
2100 -0.1941774
2098 -0.23545226
2096 -0.25419
2094 -0.24572635
2092 -0.22670759
2090 -0.20088784
2088 -0.20551389
2086 -0.23609699
2084 -0.29120237
2082 -0.36013159
2080 -0.40812913
2078 -0.44414762
2076 -0.45352671
2074 -0.45242727
2072 -0.43444002
2070 -0.41134843
2068 -0.37993264
2066 -0.34761655
2064 -0.3669064
2062 -0.39882454
2060 -0.45675471
2058 -0.5137887
2056 -0.53765744
2054 -0.56312829
2052 -0.61785173
2050 -0.69409734
2048 -0.81082547
2046 -0.91707075
2044 -0.98748738
2042 -1.0230533
2040 -1.0163879
2038 -0.99591744
2036 -0.96854627
2034 -0.93287605
2032 -0.89038193
2030 -0.84785891
2028 -0.80622387
2026 -0.78127962
2024 -0.76690686
2022 -0.72316015
2020 -0.66327864
2018 -0.58577168
2016 -0.50176001
2014 -0.52044022
2012 -0.5740062
2010 -0.72868997
2008 -0.90781015
2006 -1.0569624
2004 -1.1841997
2002 -1.21079
2000 -1.1958594
1998 -1.1121411
1996 -1.0213786
1994 -0.96181124
1992 -0.94731635
1990 -1.0170412
1988 -1.1048939
1986 -1.1887993
1984 -1.2231314
1982 -1.18969
1980 -1.1279843
1978 -1.0517578
1976 -0.96876115
1974 -0.8823837
1972 -0.74628341
1970 -0.57259458
1968 -0.44176435
1966 -0.34254786
1964 -0.41840819
1962 -0.58406121
1960 -0.77669239
1958 -0.97605395
1956 -1.0734628
1954 -1.1323513
1952 -1.1392851
1950 -1.1290197
1948 -1.1087414
1946 -1.0955499
1944 -1.1374903
1942 -1.2044759
1940 -1.2999526
1938 -1.3835123
1936 -1.4130542
1934 -1.4164258
1932 -1.399232
1930 -1.3820477
1928 -1.3740457
1926 -1.3161707
1924 -1.1897223
1922 -0.96864265
1920 -0.66495275
1918 -0.3954995
1916 -0.17530957
1914 -0.044289418
1912 0.027142331
1910 0.025534619
1908 -0.015719075
1906 -0.19239596
1904 -0.43994358
1902 -0.64391309
1900 -0.82379174
1898 -0.76951516
1896 -0.61951143
1894 -0.42264622
1892 -0.23429666
1890 -0.2265598
1888 -0.32216823
1886 -0.56504709
1884 -0.84890729
1882 -1.0903385
1880 -1.2686327
1878 -1.3352699
1876 -1.31665
1874 -1.2117009
1872 -1.0261084
1870 -0.76178944
1868 -0.52092218
1866 -0.34048721
1864 -0.33483341
1862 -0.49572602
1860 -0.71328181
1858 -0.94283569
1856 -1.0950058
1854 -1.1849796
1852 -1.1739182
1850 -1.1028538
1848 -0.92201316
1846 -0.68203604
1844 -0.53745258
1842 -0.45212936
1840 -0.59014606
1838 -0.82807702
1836 -1.0211722
1834 -1.1598409
1832 -1.1207737
1830 -0.97140819
1828 -0.71193606
1826 -0.4466227
1824 -0.29447553
1822 -0.28038964
1820 -0.46037978
1818 -0.72028524
1816 -0.98699999
1814 -1.1832651
1812 -1.2741783
1810 -1.2671552
1808 -1.1836926
1806 -1.0325875
1804 -0.83460248
1802 -0.64738762
1800 -0.48115823
1798 -0.34572902
1796 -0.23122428
1794 -0.04507054
1792 0.19425359
1790 0.39645016
1788 0.5699954
1786 0.59960693
1784 0.54726207
1782 0.48449928
1780 0.43733841
1778 0.53050011
1776 0.72478515
1774 1.0317699
1772 1.3141295
1770 1.3377355
1768 1.1537383
1766 0.76891756
1764 0.38514239
1762 0.18631059
1760 0.05376846
1758 -0.097941667
1756 -0.16683458
1754 -0.10849685
1752 0.22349915
1750 0.83598185
1748 1.5177991
1746 2.1813927
1744 2.4747622
1742 2.4196515
1740 2.2662733
1738 2.0910645
1736 2.1392601
1734 2.362138
1732 2.3136914
1730 2.0476725
1728 1.3985023
1726 0.53443956
1724 -0.031845063
1722 -0.29100782
1720 0.10693642
1718 1.0501349
1716 2.3979399
1714 3.7694378
1712 4.6027145
1710 5.0934057
1708 5.459558
1706 6.0846348
1704 7.3197017
1702 9.4013338
1700 12.410829
1698 16.065802
1696 20.101286
1694 23.660851
1692 26.45723
1690 28.89992
1688 31.204435
1686 34.302994
1684 38.238461
1682 42.78056
1680 47.7384
1678 51.885475
1676 55.304371
1674 58.801907
1672 62.448643
1670 66.746399
1668 71.499359
1666 76.033752
1664 80.323624
1662 84.231995
1660 87.803909
1658 91.109238
1656 94.172745
1654 97.038177
1652 99.494324
1650 101.31247
1648 101.8496
1646 100.61268
1644 98.241417
1642 95.36927
1640 92.354851
1638 89.430595
1636 86.071526
1634 82.103935
1632 77.794106
1630 73.283211
1628 68.97242
1626 64.929634
1624 60.829041
1622 56.627701
1620 52.474613
1618 48.383244
1616 44.448715
1614 40.697224
1612 37.300549
1610 34.292233
1608 31.750332
1606 29.649487
1604 27.833296
1602 26.304274
1600 25.014263
1598 23.978153
1596 23.179501
1594 22.60321
1592 22.198891
1590 21.939882
1588 21.779652
1586 21.766357
1584 21.921097
1582 22.31624
1580 22.974964
1578 23.949366
1576 25.2428
1574 26.720562
1572 28.327988
1570 29.820522
1568 31.14488
1566 32.347076
1564 33.438995
1562 34.793549
1560 36.513035
1558 39.088211
1556 42.481174
1554 45.621231
1552 48.328804
1550 50.153648
1548 51.240685
1546 52.373215
1544 53.57024
1542 54.8517
1540 55.77832
1538 55.685909
1536 54.595112
1534 52.704464
1532 50.580853
1530 48.840374
1528 47.492748
1526 46.52845
1524 45.631222
1522 44.605793
1520 43.054703
1518 40.763283
1516 38.26516
1514 35.712734
1512 33.41452
1510 31.472696
1508 29.166004
1506 26.339214
1504 23.314795
1502 20.122515
1500 17.444529
1498 15.36007
1496 13.422571
1494 11.647937
1492 9.9367619
1490 8.2886381
1488 6.6599898
1486 5.0425944
1484 3.4132061
1482 1.9202616
1480 0.78932571
1478 0.12091568
1476 0.035709336
1474 0.51445413
1472 1.3999932
1470 2.2895169
1468 2.9047852
1466 3.3290422
1464 3.5866578
1462 3.97083
1460 4.6445465
1458 5.4867849
1456 6.5113401
1454 7.2201324
1452 7.3997388
1450 7.2969952
1448 6.8132501
1446 6.3289857
1444 5.8546166
1442 5.4474921
1440 5.14182
1438 4.9381213
1436 4.8321872
1434 4.6838775
1432 4.4625993
1430 4.1316991
1428 3.7491519
1426 3.4784279
1424 3.3692188
1422 3.4732919
1420 3.7459576
1418 4.1127491
1416 4.4823833
1414 4.7531743
1412 4.9559917
1410 5.1021409
1408 5.263711
1406 5.4920678
1404 5.7827005
1402 6.162539
1400 6.5758758
1398 7.0260553
1396 7.3927002
1394 7.5934114
1392 7.6300936
1390 7.3921037
1388 7.0685573
1386 6.6188698
1384 6.1465611
1382 5.6556277
1380 5.2083869
1378 4.8245378
1376 4.4984202
1374 4.2192006
1372 3.910882
1370 3.5660963
1368 3.1830692
1366 2.7746336
1364 2.3707509
1362 1.9603713
1360 1.525684
1358 1.0899421
1356 0.67924631
1354 0.33470023
1352 0.12575649
1350 0.016340895
1348 0.032405466
1346 0.09609475
1344 0.2846868
1342 0.54031718
1340 0.91015017
1338 1.2205598
1336 1.3890171
1334 1.3952134
1332 1.1170107
1330 0.83072197
1328 0.5562045
1326 0.40891415
1324 0.45455629
1322 0.61873585
1320 0.92157757
1318 1.2471368
1316 1.5699
1314 1.8057226
1312 1.9376919
1310 1.9581314
1308 1.8818723
1306 1.7366949
1304 1.551808
1302 1.359792
1300 1.1864848
1298 1.0744255
1296 1.0127857
1294 1.0347126
1292 1.0908169
1290 1.1870339
1288 1.2832761
1286 1.3644136
1284 1.4343112
1282 1.4777006
1280 1.5173949
1278 1.5497863
1276 1.5885614
1274 1.6435089
1272 1.7261206
1270 1.8589989
1268 2.0272286
1266 2.2438507
1264 2.469224
1262 2.7033038
1260 2.9340799
1258 3.1655552
1256 3.4118171
1254 3.6815975
1252 3.9964709
1250 4.3553381
1248 4.7712851
1246 5.213675
1244 5.6506777
1242 6.0647225
1240 6.4088554
1238 6.7033281
1236 6.8978643
1234 7.016314
1232 6.9475999
1230 6.7912302
1228 6.4120088
1226 5.9938078
1224 5.4814987
1222 4.9719167
1220 4.47018
1218 3.98125
1216 3.5190856
1214 3.0706646
1212 2.6466706
1210 2.2369697
1208 1.8508989
1206 1.48981
1204 1.1592674
1202 0.8455559
1200 0.54443002
1198 0.23312993
1196 -0.089051932
1194 -0.42702296
1192 -0.77352744
1190 -1.1182029
1188 -1.4499974
1186 -1.7320415
1184 -1.9694109
1182 -2.0903664
1180 -2.1469343
1178 -2.0487292
1176 -1.9087
1174 -1.6850058
1172 -1.470322
1170 -1.3097728
1168 -1.1629057
1166 -1.0541624
1164 -0.91736388
1162 -0.70900416
1160 -0.46770346
1158 -0.16699494
1156 0.10548031
1154 0.32063788
1152 0.45446274
1150 0.47244424
1148 0.41702279
1146 0.2856718
1144 0.15153167
1142 0.030578366
1140 -0.006040236
1138 0.025481224
1136 0.12872629
1134 0.2964344
1132 0.53817016
1130 0.81895101
1128 1.1560972
1126 1.5090364
1124 1.864326
1122 2.208478
1120 2.4912
1118 2.7552531
1116 2.949703
1114 3.1372528
1112 3.3011646
1110 3.465559
1108 3.6309042
1106 3.7930751
1104 3.9464333
1102 4.0919757
1100 4.2256885
1098 4.3822165
1096 4.5834713
1094 4.8604445
1092 5.2372279
1090 5.6764584
1088 6.177793
1086 6.6951556
1084 7.2228389
1082 7.7380843
1080 8.229353
1078 8.6024904
1076 8.8858328
1074 8.9070377
1072 8.814744
1070 8.5204172
1068 8.1884928
1066 7.9072952
1064 7.658772
1062 7.6037316
1060 7.5834346
1058 7.7261105
1056 7.8840342
1054 8.1071558
1052 8.3191681
1050 8.4946527
1048 8.6513033
1046 8.7646465
1044 8.8897085
1042 9.0365534
1040 9.1870146
1038 9.3372288
1036 9.4342403
1034 9.468689
1032 9.4738989
1030 9.4544392
1028 9.4462528
1026 9.4346104
1024 9.3082485
1022 9.0990105
1020 8.6485081
1018 8.097909
1016 7.4692259
1014 6.8338599
1012 6.3571644
1010 5.9143825
1008 5.553
1006 5.1910977
1004 4.7422085
1002 4.2879648
1000 3.8023903
998 3.3211524
996 2.8578429
994 2.3814681
992 1.8640451
990 1.3375018
988 0.79402685
986 0.31180969
984 -0.058928818
982 -0.3377071
980 -0.4925952
978 -0.62060761
976 -0.71907997
974 -0.78464127
972 -0.82044035
970 -0.79044318
968 -0.72219634
966 -0.68400598
964 -0.6596362
962 -0.64073241
960 -0.61625683
958 -0.43662584
956 -0.22063583
954 0.068529427
952 0.3577728
950 0.43704146
948 0.48858482
946 0.26540786
944 0.057566229
942 -0.0020176582
940 -0.051715791
938 0.25744581
936 0.61059541
934 1.0911398
932 1.5240345
930 1.8546638
928 2.1520977
926 2.3956108
924 2.590626
922 2.7245157
920 2.7395663
918 2.6443334
916 2.5447328
914 2.4439692
912 2.4812605
910 2.5915232
908 2.7136877
906 2.8399372
904 2.9009516
902 2.9456768
900 3.1733356
898 3.4307451
896 3.9516001
