Image.
>Pix99999.
  .
5555
5555
2300
900
5555
2
1
0
701
5555
6.2641002e-002
6.3944139e-002
6.5247275e-002
6.6551402e-002
6.7854539e-002
6.9157682e-002
7.0460819e-002
7.1763948e-002
7.3067084e-002
7.4370220e-002
7.5673357e-002
7.6976493e-002
7.8279629e-002
7.9582766e-002
8.0885902e-002
8.2189038e-002
8.3492167e-002
8.4795304e-002
8.6098440e-002
8.7401576e-002
8.8704720e-002
9.0007849e-002
9.1310985e-002
9.2614122e-002
9.3917258e-002
9.5220387e-002
6.4822420e-002
2.4549942e-003
-5.6791682e-002
-1.1891726e-001
-1.8145542e-001
-1.8181762e-001
-1.7577435e-001
-1.2671325e-001
-7.6420315e-002
-3.2560751e-002
8.1215138e-003
3.5919193e-002
6.3407481e-002
9.2135251e-002
1.2911610e-001
1.8396118e-001
2.4294440e-001
3.0692524e-001
3.5738105e-001
3.9056450e-001
4.0492520e-001
4.0219849e-001
3.7338242e-001
3.2586810e-001
2.5961357e-001
1.8327874e-001
1.2800469e-001
8.2282029e-002
8.5148580e-002
1.0360131e-001
1.4676920e-001
1.9538163e-001
2.1176060e-001
2.2287045e-001
2.0032942e-001
1.7498907e-001
1.5304758e-001
1.3301189e-001
1.2213428e-001
1.1429850e-001
1.1441420e-001
1.2302741e-001
1.5136783e-001
1.9604713e-001
2.6790300e-001
3.4738252e-001
4.3382159e-001
5.1108927e-001
5.7720435e-001
6.3381213e-001
6.8304992e-001
7.1876693e-001
7.4563283e-001
7.3407847e-001
7.0208138e-001
6.2524527e-001
5.3028357e-001
4.5427075e-001
3.8480601e-001
3.9053321e-001
4.1368809e-001
4.4134638e-001
4.6609515e-001
4.2500091e-001
3.7508571e-001
3.2937211e-001
2.9752970e-001
3.2427081e-001
3.5915747e-001
3.9278492e-001
4.0525967e-001
3.7153739e-001
3.2491380e-001
2.6815096e-001
2.2732000e-001
2.0941369e-001
1.9987771e-001
1.9554825e-001
1.6315103e-001
1.0678040e-001
4.5970529e-002
-1.5653066e-002
-3.4650366e-003
4.7710568e-002
1.3015330e-001
2.2368425e-001
2.5389880e-001
2.6335603e-001
2.4118000e-001
2.1189122e-001
1.8220165e-001
1.5282564e-001
1.2400811e-001
9.9622630e-002
9.8952688e-002
1.0605898e-001
1.2508680e-001
1.3881034e-001
1.3373178e-001
1.1298321e-001
6.9402441e-002
2.4191326e-002
-1.7630583e-002
-4.6095811e-002
-6.0236771e-002
-5.9725959e-002
-4.7403462e-002
-3.5463389e-002
-2.4887007e-002
-2.5958108e-002
-3.3934180e-002
-2.4393015e-004
5.5925060e-002
1.5858619e-001
2.7918601e-001
3.5793099e-001
4.2129591e-001
4.1504973e-001
3.8797587e-001
3.2377851e-001
2.5037956e-001
1.8067640e-001
1.1917382e-001
9.1918357e-002
7.8822710e-002
8.4198959e-002
9.0347745e-002
8.5193761e-002
6.6662863e-002
2.5988027e-002
-2.9387552e-002
-9.7818188e-002
-1.6459894e-001
-2.2467944e-001
-2.5424400e-001
-2.5605699e-001
-2.0729338e-001
-1.2349960e-001
-4.4274811e-002
2.7835200e-002
9.0647778e-003
-5.7995398e-002
-1.6048688e-001
-2.7610078e-001
-3.5496742e-001
-4.2007959e-001
-4.6823132e-001
-5.1048785e-001
-5.3455347e-001
-5.4817498e-001
-5.3912807e-001
-5.1908863e-001
-4.9595436e-001
-4.7841078e-001
-4.8049200e-001
-4.9602953e-001
-5.2306062e-001
-5.5105823e-001
-5.7138485e-001
-5.7105768e-001
-5.4415947e-001
-4.9623126e-001
-4.3518543e-001
-4.0642869e-001
-4.1347471e-001
-4.3239284e-001
-4.5405713e-001
-4.4847727e-001
-4.2385504e-001
-4.4704041e-001
-4.9871680e-001
-5.7279104e-001
-6.5687925e-001
-6.4581263e-001
-5.9413284e-001
-4.9726391e-001
-3.9303488e-001
-3.6321831e-001
-3.7827560e-001
-4.6969637e-001
-5.9027201e-001
-7.1431124e-001
-8.2990295e-001
-9.1995585e-001
-9.8257899e-001
-1.0045308e+000
-9.8123813e-001
-9.0624428e-001
-8.2455450e-001
-7.6220477e-001
-7.6782876e-001
-8.4615505e-001
-9.6637690e-001
-1.1046116e+000
-1.2478428e+000
-1.3886948e+000
-1.5140600e+000
-1.6264164e+000
-1.6830599e+000
-1.7047678e+000
-1.6617166e+000
-1.5840024e+000
-1.4927989e+000
-1.3974113e+000
-1.2965386e+000
-1.1876280e+000
-1.0296749e+000
-8.4853691e-001
-6.6899043e-001
-5.2465296e-001
-4.8838297e-001
-5.2979136e-001
-6.4058799e-001
-7.7365237e-001
-8.9053917e-001
-9.8001868e-001
-1.0347455e+000
-1.0423144e+000
-1.0083412e+000
-9.2095548e-001
-7.9143083e-001
-7.1121597e-001
-6.8317813e-001
-7.2889429e-001
-8.2350355e-001
-7.7213961e-001
-6.1522162e-001
-3.8492325e-001
-1.2221254e-001
-1.0357070e-002
9.3260696e-003
-2.0060688e-005
-1.9382358e-002
1.4603728e-002
9.4305918e-002
2.4930757e-001
4.4154298e-001
6.1151248e-001
7.0428312e-001
6.2484103e-001
4.4449541e-001
2.3074242e-001
5.5177368e-002
-1.7464119e-001
-3.7137842e-001
-4.4263718e-001
-3.6474925e-001
-1.5363394e-001
6.2977992e-002
2.3834857e-001
2.2706611e-001
4.0354535e-002
-1.6174205e-001
-3.4330171e-001
-3.1191200e-001
-1.1385623e-001
7.1429215e-002
2.2437325e-001
1.3869134e-001
-1.0050567e-001
-2.4982134e-001
-2.7857637e-001
7.2179049e-002
7.5625938e-001
1.7312900e+000
2.7549365e+000
3.4429600e+000
3.9004235e+000
4.2581420e+000
4.7891340e+000
5.7579155e+000
7.4459314e+000
9.9775810e+000
1.3502449e+001
1.7926144e+001
2.2333191e+001
2.6323097e+001
2.9804722e+001
3.2872566e+001
3.6456566e+001
4.0665424e+001
4.5536694e+001
5.0903919e+001
5.5466843e+001
5.9292786e+001
6.2994579e+001
6.6677605e+001
7.0858032e+001
7.5366302e+001
7.9554649e+001
8.3398979e+001
8.6760506e+001
8.9687187e+001
9.2263237e+001
9.4514656e+001
9.6495979e+001
9.8139977e+001
9.9380882e+001
9.9806435e+001
9.9071999e+001
9.7432678e+001
9.5211510e+001
9.2536392e+001
8.9562187e+001
8.5913437e+001
8.1514130e+001
7.6881226e+001
7.2219391e+001
6.7778130e+001
6.3592068e+001
5.9209839e+001
5.4590790e+001
5.0068161e+001
4.5677814e+001
4.1691570e+001
3.8117664e+001
3.4995617e+001
3.2321369e+001
3.0010126e+001
2.8047892e+001
2.6325142e+001
2.4879726e+001
2.3744343e+001
2.2928492e+001
2.2397499e+001
2.2117788e+001
2.2007553e+001
2.2039640e+001
2.2165535e+001
2.2392450e+001
2.2718355e+001
2.3172050e+001
2.3765617e+001
2.4598732e+001
2.5700172e+001
2.7037271e+001
2.8579880e+001
3.0115330e+001
3.1591200e+001
3.3011993e+001
3.4385593e+001
3.5959335e+001
3.7809307e+001
4.0286530e+001
4.3365326e+001
4.6194363e+001
4.8611385e+001
5.0266479e+001
5.1239304e+001
5.2135178e+001
5.2950565e+001
5.3696613e+001
5.4183418e+001
5.4101479e+001
5.3447201e+001
5.2318089e+001
5.0929451e+001
4.9572983e+001
4.8251530e+001
4.6964752e+001
4.5641449e+001
4.4227455e+001
4.2675732e+001
4.0935177e+001
3.9083057e+001
3.7138176e+001
3.5110558e+001
3.3010807e+001
3.0467737e+001
2.7356878e+001
2.4181793e+001
2.0985188e+001
1.8281683e+001
1.6141399e+001
1.4113571e+001
1.2217117e+001
1.0378759e+001
8.6055241e+000
6.8577657e+000
5.1509809e+000
3.5038621e+000
2.0318193e+000
9.1465795e-001
2.2409794e-001
3.0575633e-002
3.6173171e-001
1.1277905e+000
2.0032210e+000
2.7506862e+000
3.3189964e+000
3.6700959e+000
4.0506258e+000
4.5858202e+000
5.3070064e+000
6.2735801e+000
7.0835605e+000
7.5845551e+000
7.7610879e+000
7.4725142e+000
7.1318893e+000
6.7323122e+000
6.3834658e+000
6.1073079e+000
5.8679237e+000
5.6637144e+000
5.4119048e+000
5.1001878e+000
4.7242632e+000
4.3062220e+000
3.9409742e+000
3.6693063e+000
3.5509481e+000
3.5945802e+000
3.7892833e+000
4.0638771e+000
4.3410821e+000
4.5989418e+000
4.8343253e+000
5.0979986e+000
5.4386373e+000
5.8327069e+000
6.2857871e+000
6.7245440e+000
7.1154623e+000
7.3998361e+000
7.4857435e+000
7.4492497e+000
7.1964517e+000
6.8905354e+000
6.5007954e+000
6.0839520e+000
5.6292925e+000
5.1549158e+000
4.6630816e+000
4.1742997e+000
3.7064447e+000
3.2730460e+000
2.8792751e+000
2.5226839e+000
2.1768970e+000
1.8064691e+000
1.4155951e+000
1.0011352e+000
6.1371493e-001
3.1778741e-001
1.0662240e-001
2.8183794e-002
2.8051361e-002
1.2593512e-001
2.7013248e-001
4.6346360e-001
6.7763323e-001
9.2739815e-001
1.1548922e+000
1.3250772e+000
1.4332875e+000
1.4134274e+000
1.3753400e+000
1.3164080e+000
1.3043678e+000
1.3779783e+000
1.5250027e+000
1.7716863e+000
2.0612345e+000
2.3829100e+000
2.6655979e+000
2.8832200e+000
3.0041406e+000
3.0304592e+000
2.9799523e+000
2.8821099e+000
2.7698731e+000
2.6616459e+000
2.5767782e+000
2.5156999e+000
2.4938455e+000
2.5035594e+000
2.5711856e+000
2.6578002e+000
2.7711422e+000
2.8813393e+000
2.9763551e+000
3.0666058e+000
3.1449826e+000
3.2182314e+000
3.2875011e+000
3.3748646e+000
3.5016789e+000
3.6749380e+000
3.9116695e+000
4.1653028e+000
4.4319134e+000
4.6837578e+000
4.9208899e+000
5.1547031e+000
5.3886366e+000
5.6330514e+000
5.8904934e+000
6.1719708e+000
6.4665999e+000
6.7630486e+000
7.0431776e+000
7.2639484e+000
7.4397702e+000
7.5223098e+000
7.5510063e+000
7.4620600e+000
7.3144684e+000
7.0145774e+000
6.6572866e+000
6.1458936e+000
5.5920515e+000
4.9394455e+000
4.2855291e+000
3.6367915e+000
3.0389082e+000
2.5365062e+000
2.1143219e+000
1.8087206e+000
1.5618907e+000
1.3784480e+000
1.1978287e+000
1.0130715e+000
7.9833186e-001
5.5604500e-001
2.8611368e-001
2.3407489e-003
-2.7376050e-001
-5.2802026e-001
-7.0608193e-001
-8.3452475e-001
-8.6169970e-001
-8.5119045e-001
-7.7935743e-001
-6.8641597e-001
-5.4106790e-001
-3.7619042e-001
-1.4855582e-001
8.2716882e-002
3.2108185e-001
5.3329939e-001
6.7746431e-001
7.7935910e-001
7.9496360e-001
7.7630115e-001
7.0031160e-001
5.9939790e-001
4.6723509e-001
3.3540040e-001
2.0984000e-001
1.1756772e-001
5.6910951e-002
2.0224398e-002
2.9607927e-003
4.3636370e-003
2.2951357e-002
1.0543790e-001
2.2054958e-001
3.7929076e-001
5.5335814e-001
7.4632418e-001
9.4208926e-001
1.1347320e+000
1.3207028e+000
1.4719672e+000
1.6129805e+000
1.7128422e+000
1.8039522e+000
1.8674037e+000
1.9283050e+000
1.9820503e+000
2.0283968e+000
2.0601926e+000
2.0860529e+000
2.1066144e+000
2.1539576e+000
2.2394361e+000
2.3683405e+000
2.5402875e+000
2.7235842e+000
2.9098427e+000
3.0560548e+000
3.1729727e+000
3.2474411e+000
3.3009529e+000
3.3394594e+000
3.3630178e+000
3.3156326e+000
3.2330117e+000
3.0095141e+000
2.7643681e+000
2.4939518e+000
2.2455325e+000
2.1476831e+000
2.0777857e+000
2.1300135e+000
2.1927416e+000
2.2886300e+000
2.3802161e+000
2.4572713e+000
2.4914429e+000
2.4405630e+000
2.3286285e+000
2.1297357e+000
1.9391899e+000
1.7619565e+000
1.6211600e+000
1.5107285e+000
1.3791155e+000
1.2347679e+000
1.1073154e+000
9.9147117e-001
9.0744311e-001
8.2793051e-001
6.6788775e-001
4.8304904e-001
2.6309311e-001
4.5653641e-002
-7.6792002e-002
-1.8921258e-001
-2.7747333e-001
-3.6674032e-001
-4.6300206e-001
-5.3386825e-001
-4.9266714e-001
-4.3428510e-001
-3.2635799e-001
-2.6685423e-001
-3.2047501e-001
-4.1986445e-001
-5.9562320e-001
-7.3602456e-001
-8.2463062e-001
-8.3885568e-001
-7.7587831e-001
-6.9827580e-001
-6.1227846e-001
-5.8306581e-001
-5.8673507e-001
-5.6844449e-001
-5.3446680e-001
-3.8704759e-001
-2.0491171e-001
-5.5654623e-002
7.9539098e-002
6.1240122e-002
2.3805361e-002
-2.7514920e-002
-7.2717085e-002
-2.3102356e-002
2.0570755e-003
6.4570144e-002
2.0650114e-001
4.4046032e-001
6.8832231e-001
9.7695291e-001
1.2604200e+000
1.5335982e+000
1.8304617e+000
2.1658216e+000
2.5310459e+000
2.9306448e+000
3.2161856e+000
3.3936908e+000
3.4297886e+000
3.3666005e+000
3.3435841e+000
3.3418810e+000
3.3099349e+000
3.2661164e+000
3.0444698e+000
2.7772074e+000
2.5459559e+000
2.3211105e+000
2.3285000e+000
