##TITLE=Methyl Ethyl Ketone
##JCAMP-DX=4.24
##DATA TYPE=INFRARED SPECTRUM
##XUNITS=cm-1
##YUNITS=Absorbance
##FIRSTX=900
##LASTX=2300
##XYDATA=(X++(Y..Y))
2296 0.012951
2294 0.013220615
2292 0.013490229
2290 0.013759843
2288 0.014029457
2286 0.014298079
2284 0.014567685
2282 0.0148373
2280 0.015106915
2278 0.015375542
2276 0.01564613
2274 0.015917726
2272 0.016184423
2270 0.016444173
2268 0.0167234
2266 0.017029421
2264 0.017263675
2262 0.017394867
2260 0.017797457
2258 0.018581422
2256 0.018355286
2254 0.0167087
2252 0.018816946
2250 0.026222778
2248 0.019668542
2246 -0.0090435361
2244 -0.00037506857
2242 0.097892657
2240 0.232044
2238 0.32840967
2236 0.35388529
2234 0.30216146
2232 0.22730879
2230 0.18571618
2228 0.17355457
2226 0.16728249
2224 0.1348993
2222 0.054906111
2220 -0.042764224
2218 -0.1182521
2216 -0.15329686
2214 -0.14178288
2212 -0.10007598
2210 -0.049126819
2208 -0.0016084972
2206 0.034548331
2204 0.06004126
2202 0.081786394
2200 0.1213909
2198 0.20043209
2196 0.32216716
2194 0.47933087
2192 0.64555579
2190 0.79280406
2188 0.91031998
2186 0.99236298
2184 1.0308
2182 1.0170656
2180 0.94409955
2178 0.81177503
2176 0.64670885
2174 0.48257491
2172 0.34664986
2170 0.26030099
2168 0.230352
2166 0.25582951
2164 0.32360065
2162 0.413708
2160 0.49459603
2158 0.53801954
2156 0.54491699
2154 0.52900386
2152 0.51502264
2150 0.5235545
2148 0.54346317
2146 0.5538764
2144 0.53942049
2142 0.4927997
2140 0.43067688
2138 0.37964869
2136 0.37270486
2134 0.43995678
2132 0.59151155
2130 0.81770027
2128 1.0571495
2126 1.2380806
2124 1.3215525
2122 1.2999128
2120 1.2420063
2118 1.2317687
2116 1.3005913
2114 1.4445189
2112 1.5984337
2110 1.6859035
2108 1.6773274
2106 1.5761307
2104 1.4475794
2102 1.3664572
2100 1.353634
2098 1.3990477
2096 1.4536572
2094 1.4637249
2092 1.415064
2090 1.314165
2088 1.1872588
2086 1.06505
2084 0.96866173
2082 0.91022497
2080 0.88335747
2078 0.87546217
2076 0.87835699
2074 0.88577306
2072 0.89071077
2070 0.88446665
2068 0.85274172
2066 0.78601509
2064 0.70421356
2062 0.63965231
2060 0.62543094
2058 0.68615448
2056 0.81190139
2054 0.9773221
2052 1.1526561
2050 1.3084441
2048 1.4213355
2046 1.4711143
2044 1.441902
2042 1.327422
2040 1.1567143
2038 0.97776264
2036 0.85540217
2034 0.84577405
2032 0.94094759
2030 1.094447
2028 1.2174155
2026 1.2253171
2024 1.1251531
2022 0.97233415
2020 0.84974587
2018 0.82606566
2016 0.86729199
2014 0.8958475
2012 0.84872729
2010 0.69205499
2008 0.47567761
2006 0.28189093
2004 0.16985464
2002 0.17148401
2000 0.25810361
1998 0.37407461
1996 0.4658193
1994 0.49476805
1992 0.4749867
1990 0.44460982
1988 0.4389798
1986 0.48341164
1984 0.57278055
1982 0.68642962
1980 0.79891217
1978 0.88645005
1976 0.93832088
1974 0.954256
1972 0.95102352
1970 0.94885027
1968 0.94866532
1966 0.93858141
1964 0.89507675
1962 0.79618162
1960 0.64858639
1958 0.47699627
1956 0.32002002
1954 0.21523282
1952 0.16998293
1950 0.17044298
1948 0.17992552
1946 0.16065
1944 0.115742
1942 0.070564806
1940 0.051585604
1938 0.074879274
1936 0.11644551
1934 0.13555466
1932 0.109975
1930 0.036448598
1928 -0.055562936
1926 -0.11954832
1924 -0.10673972
1922 0.016256273
1920 0.21664141
1918 0.4247027
1916 0.56592673
1914 0.5847224
1912 0.50630593
1910 0.39747795
1908 0.31282496
1906 0.28699851
1904 0.3136892
1902 0.37001219
1900 0.45639509
1898 0.58570832
1896 0.7596457
1894 0.96191013
1892 1.1307486
1890 1.1912301
1888 1.1202406
1886 0.93663907
1884 0.70338589
1882 0.49379814
1880 0.32843319
1878 0.19582422
1876 0.088058896
1874 0.0081215864
1872 -0.015810166
1870 0.046712071
1868 0.17260541
1866 0.30494684
1864 0.38413033
1862 0.36824769
1860 0.28632724
1858 0.20221426
1856 0.14495772
1854 0.1114706
1852 0.068948053
1850 -0.020495977
1848 -0.14798152
1846 -0.27157679
1844 -0.33767781
1842 -0.30195096
1840 -0.17945275
1838 -0.023082783
1836 0.11288379
1834 0.1898136
1832 0.22487572
1830 0.26567972
1828 0.33938426
1826 0.44602478
1824 0.53987968
1822 0.55927294
1820 0.4946132
1818 0.37723714
1816 0.25692543
1814 0.18408792
1812 0.17674376
1810 0.22790833
1808 0.31790096
1806 0.4166455
1804 0.47322384
1802 0.43266845
1800 0.28144217
1798 0.053418532
1796 -0.13562679
1794 -0.13938069
1792 0.091925606
1790 0.51267409
1788 0.97095525
1786 1.277625
1784 1.3656377
1782 1.2695578
1780 1.0660001
1778 0.84354377
1776 0.664904
1774 0.56279284
1772 0.52579021
1770 0.51268017
1768 0.47618422
1766 0.38086107
1764 0.2484908
1762 0.13155198
1760 0.035242766
1758 -0.068492055
1756 -0.179094
1754 -0.27050796
1752 -0.31916925
1750 -0.315128
1748 -0.28658035
1746 -0.28963965
1744 -0.38346496
1742 -0.60411686
1740 -0.88768089
1738 -1.1008728
1736 -1.13328
1734 -0.9310649
1732 -0.57569504
1730 -0.2359848
1728 -0.029846363
1726 0.0011765994
1724 -0.074743181
1722 -0.1121731
1720 0.038778007
1718 0.49140623
1716 1.2241533
1714 2.1116676
1712 3.0272257
1710 3.886518
1708 4.7368999
1706 5.7270412
1704 7.0049901
1702 8.7148838
1700 11.057323
1698 14.200874
1696 17.937571
1694 21.771879
1692 25.32077
1690 28.431654
1688 31.388445
1686 34.78632
1684 39.112343
1682 44.562237
1680 50.609238
1678 56.296593
1676 61.362701
1674 66.218445
1672 71.269165
1670 76.69429
1668 82.148529
1666 86.938248
1664 90.731323
1662 93.591988
1660 95.67746
1658 97.144394
1656 98.075195
1654 98.495415
1652 98.464737
1650 98.076942
1648 97.396454
1646 96.44986
1644 95.246605
1642 93.775826
1640 91.96946
1638 89.7173
1636 86.939079
1634 83.616241
1632 79.866982
1630 75.892265
1628 71.723373
1626 67.232109
1624 62.3536
1622 57.14357
1620 51.817387
1618 46.701824
1616 42.040512
1614 37.958862
1612 34.49477
1610 31.613369
1608 29.217703
1606 27.174906
1604 25.4051
1602 23.890034
1600 22.635794
1598 21.657301
1596 20.952
1594 20.500971
1592 20.294737
1590 20.335289
1588 20.626106
1586 21.16427
1584 21.915749
1582 22.82571
1580 23.895164
1578 25.196896
1576 26.852629
1574 28.995361
1572 31.635698
1570 34.643353
1568 37.819401
1566 40.935593
1564 43.826664
1562 46.437588
1560 48.908176
1558 51.504375
1556 54.204128
1554 56.657112
1552 58.537544
1550 59.6656
1548 60.096611
1546 60.067966
1544 59.615337
1542 58.527397
1540 56.660999
1538 54.057961
1536 51.0462
1534 48.172634
1532 45.709042
1530 43.555172
1528 41.53479
1526 39.478851
1524 37.262482
1522 34.832211
1520 32.255577
1518 29.720612
1516 27.404085
1514 25.401484
1512 23.594879
1510 21.664368
1508 19.411438
1506 16.864851
1504 14.261074
1502 11.984241
1500 10.210982
1498 8.8243046
1496 7.6389003
1494 6.4799361
1492 5.2703371
1490 4.0501022
1488 2.8761721
1486 1.7981637
1484 0.87738657
1482 0.18729003
1480 -0.21966171
1478 -0.3113226
1476 -0.012445152
1474 0.78501779
1472 2.0526018
1470 3.5825353
1468 5.1544499
1466 6.5985613
1464 7.8469858
1462 8.9525023
1460 10.00279
1458 11.082805
1456 12.1986
1454 13.249419
1452 14.088746
1450 14.560725
1448 14.628406
1446 14.407464
1444 14.014029
1442 13.51116
1440 12.906606
1438 12.154509
1436 11.213443
1434 10.079333
1432 8.8340197
1430 7.6557627
1428 6.688004
1426 5.9868684
1424 5.5400591
1422 5.2723913
1420 5.1274033
1418 5.0959616
1416 5.1876912
1414 5.4200048
1412 5.7881293
1410 6.2530556
1408 6.7688112
1406 7.2867141
1404 7.7394805
1402 8.0385246
1400 8.1153479
1398 7.9479532
1396 7.582293
1394 7.1427402
1392 6.7363696
1390 6.4125924
1388 6.169827
1386 5.9529247
1384 5.7135029
1382 5.4300451
1380 5.0806055
1378 4.63656
1376 4.0825114
1374 3.4301076
1372 2.723444
1370 2.0409749
1368 1.4310188
1366 0.8849678
1364 0.38454947
1362 -0.077502519
1360 -0.47071218
1358 -0.71601987
1356 -0.76011896
1354 -0.60828841
1352 -0.28543863
1350 0.1721341
1348 0.71951675
1346 1.3055215
1344 1.897404
1342 2.4917324
1340 3.0771222
1338 3.6167107
1336 4.0579114
1334 4.3361869
1332 4.4115195
1330 4.2904849
1328 4.0047784
1326 3.6108642
1324 3.1753039
1322 2.7691524
1320 2.4469948
1318 2.2295465
1316 2.10324
1314 2.0113609
1312 1.8989954
1310 1.7349366
1308 1.5184134
1306 1.2907071
1304 1.0993128
1302 0.98410469
1300 0.97320551
1298 1.075664
1296 1.2895428
1294 1.6015356
1292 1.9975402
1290 2.4660327
1288 2.9956961
1286 3.5723329
1284 4.1691875
1282 4.7389669
1280 5.2351599
1278 5.6239204
1276 5.8935027
1274 6.0681262
1272 6.1850886
1270 6.2885423
1268 6.4139295
1266 6.5774288
1264 6.7893925
1262 7.0588002
1260 7.4052782
1258 7.8681097
1256 8.484911
1254 9.2785578
1252 10.249557
1250 11.362417
1248 12.5728
1246 13.8365
1244 15.115923
1242 16.383705
1240 17.59148
1238 18.644751
1236 19.430344
1234 19.829107
1232 19.767759
1230 19.273575
1228 18.410278
1226 17.27322
1224 15.94716
1222 14.485332
1220 12.953146
1218 11.4537
1216 10.10096
1214 9.0142832
1212 8.2908573
1210 7.9747009
1208 8.0472155
1206 8.3824263
1204 8.8072023
1202 9.1115704
1200 9.1366062
1198 8.8531427
1196 8.2986574
1194 7.5826697
1192 6.8035955
1190 5.999485
1188 5.1898117
1186 4.3872442
1184 3.618892
1182 2.9445591
1180 2.4223433
1178 2.0868716
1176 1.94756
1174 1.9705023
1172 2.1097074
1170 2.3153794
1168 2.5434251
1166 2.7636843
1164 2.9455583
1162 3.0522549
1160 3.0577118
1158 2.9651461
1156 2.7909386
1154 2.5639992
1152 2.3001714
1150 1.9797212
1148 1.588958
1146 1.1496036
1144 0.70771343
1142 0.34406403
1140 0.11809315
1138 0.020418409
1136 0.025462858
1134 0.10750493
1132 0.23621413
1130 0.37220687
1128 0.4900628
1126 0.60228181
1124 0.72413564
1122 0.85472625
1120 0.98095965
1118 1.0714759
1116 1.1080942
1114 1.1152942
1112 1.1226549
1110 1.1454226
1108 1.1829946
1106 1.2045051
1104 1.1874652
1102 1.1504506
1100 1.1345162
1098 1.21139
1096 1.4334142
1094 1.7854578
1092 2.2323661
1090 2.7307456
1088 3.2417395
1086 3.7422335
1084 4.2033758
1082 4.5726466
1080 4.8059916
1078 4.8970442
1076 4.8480301
1074 4.6611104
1072 4.3428512
1070 3.9147189
1068 3.4168663
1066 2.9298737
1064 2.527952
1062 2.2398319
1060 2.0679731
1058 1.9740182
1056 1.91326
1054 1.8528504
1052 1.7714686
1050 1.6717521
1048 1.5672216
1046 1.4857036
1044 1.4612957
1042 1.5351517
1040 1.73684
1038 2.0575104
1036 2.4659801
1034 2.8946261
1032 3.2717886
1030 3.5405278
1028 3.6507962
1026 3.5651629
1024 3.2697852
1022 2.8134019
1020 2.2743769
1018 1.7717422
1016 1.4040686
1014 1.1769423
1012 1.0587894
1010 0.97500324
1008 0.8527624
1006 0.65823102
1004 0.36959061
1002 -0.025763988
1000 -0.51635617
998 -1.0228863
996 -1.4580572
994 -1.76422
992 -1.9261291
990 -2.0389011
988 -2.1990533
986 -2.4181056
984 -2.6704772
982 -2.8792148
980 -2.9747579
978 -2.9528718
976 -2.8261056
974 -2.6088989
972 -2.3197477
970 -1.9889228
968 -1.6482702
966 -1.3249249
964 -1.0292813
962 -0.71989334
960 -0.35371995
958 0.07155773
956 0.52623582
954 0.90490091
952 1.0997441
950 1.0618665
948 0.79618561
946 0.44646466
944 0.16323468
942 -0.0012400597
940 -0.036423445
938 0.0061705336
936 0.072918169
934 0.15851173
932 0.26978844
930 0.41401586
928 0.59922469
926 0.83580744
924 1.13495
922 1.5080266
920 1.9385273
918 2.3041208
916 2.48017
914 2.4333868
912 2.1746788
910 1.7970409
908 1.412533
906 1.12656
904 1.0387001
902 1.232326
900 1.7516489
898 2.5028222
896 3.3571
