Image.
>Pix99999.
  .
5555
5555
2300
900
5555
2
1
0
701
5555
1.0584000e-001
1.0803685e-001
1.1024369e-001
1.1244058e-001
1.1464737e-001
1.1684429e-001
1.1905106e-001
1.2124800e-001
1.2345474e-001
1.2565172e-001
1.2785843e-001
1.3005543e-001
1.3226213e-001
1.3445914e-001
1.3666581e-001
1.3886285e-001
1.4106949e-001
1.4326656e-001
1.4547317e-001
1.4767028e-001
1.4987686e-001
1.5207401e-001
1.5428054e-001
1.5647772e-001
1.5868422e-001
1.6088143e-001
2.2782296e-002
8.4542790e-003
-3.7860277e-003
8.4175974e-002
1.8683453e-001
2.9613051e-001
4.0185800e-001
4.1731435e-001
4.1193163e-001
2.7411750e-001
1.2303863e-001
-5.8417693e-002
-2.0656252e-001
-2.4856094e-001
-2.5011742e-001
-1.7637615e-001
-1.2974380e-001
-1.3458733e-001
-2.0252617e-001
-3.4516141e-001
-4.9146679e-001
-6.3663417e-001
-7.2551483e-001
-7.7233440e-001
-7.8111213e-001
-7.6960844e-001
-7.6160675e-001
-7.5576234e-001
-7.7969342e-001
-8.1323361e-001
-8.5794556e-001
-9.0505761e-001
-9.1493565e-001
-9.1884983e-001
-8.9360571e-001
-8.6517531e-001
-8.3090848e-001
-8.0125707e-001
-8.0151016e-001
-8.2440603e-001
-9.1948324e-001
-1.0203463e+000
-1.1176674e+000
-1.1663122e+000
-1.1230800e+000
-1.0532826e+000
-9.5879775e-001
-9.2446345e-001
-9.6087128e-001
-1.0404117e+000
-1.1514686e+000
-1.1720880e+000
-1.1276051e+000
-9.8927212e-001
-8.0348545e-001
-7.2940218e-001
-7.0408177e-001
-8.5870939e-001
-1.0692688e+000
-1.2966442e+000
-1.5270323e+000
-1.6897346e+000
-1.8380195e+000
-1.9183983e+000
-1.9799471e+000
-1.9720399e+000
-1.9483331e+000
-1.8982743e+000
-1.8350884e+000
-1.7439471e+000
-1.6254725e+000
-1.4562272e+000
-1.2633120e+000
-1.0434942e+000
-8.4196573e-001
-6.7001981e-001
-6.1917192e-001
-6.8928057e-001
-9.0457863e-001
-1.2249050e+000
-1.4704564e+000
-1.6569386e+000
-1.6207869e+000
-1.4719191e+000
-1.2927785e+000
-1.1068370e+000
-1.0634240e+000
-1.0663346e+000
-1.1496911e+000
-1.2530322e+000
-1.3759874e+000
-1.5001910e+000
-1.5896592e+000
-1.6563050e+000
-1.6352000e+000
-1.5814528e+000
-1.4754868e+000
-1.3534831e+000
-1.2198092e+000
-1.1064929e+000
-1.0389659e+000
-1.0418246e+000
-1.1352577e+000
-1.2581168e+000
-1.3924500e+000
-1.4600686e+000
-1.4614422e+000
-1.3962390e+000
-1.2897080e+000
-1.1801828e+000
-1.0745194e+000
-1.0056015e+000
-9.5635474e-001
-9.1579211e-001
-8.7644398e-001
-8.3268613e-001
-7.8521770e-001
-8.4591639e-001
-9.3990397e-001
-1.1251403e+000
-1.3219372e+000
-1.4427431e+000
-1.5193788e+000
-1.4974403e+000
-1.4497072e+000
-1.4052836e+000
-1.3893241e+000
-1.4264151e+000
-1.4752860e+000
-1.5099021e+000
-1.4928417e+000
-1.4088939e+000
-1.2946148e+000
-1.1684105e+000
-1.0661457e+000
-9.9143928e-001
-8.8598228e-001
-7.5488341e-001
-5.8375919e-001
-3.8980258e-001
-3.0687612e-001
-2.8134605e-001
-3.9648882e-001
-5.6885332e-001
-7.8692311e-001
-1.0156369e+000
-1.1551257e+000
-1.2472210e+000
-1.2023743e+000
-1.1181000e+000
-1.0481937e+000
-1.0092111e+000
-1.0281475e+000
-1.0599751e+000
-1.0706972e+000
-1.0576870e+000
-1.0222380e+000
-9.6248841e-001
-8.8719320e-001
-7.4985307e-001
-5.4504603e-001
-2.7785131e-001
4.4668466e-002
2.5962663e-001
3.7814015e-001
3.8569167e-001
3.2393241e-001
3.0132201e-001
3.0867490e-001
2.5836819e-001
1.7602880e-001
2.4432551e-002
-1.5407380e-001
-2.0940067e-001
-2.0575428e-001
-9.9983282e-002
2.7855713e-002
5.4463670e-002
-2.9192232e-003
-2.3366410e-001
-5.4165959e-001
-8.8370705e-001
-1.1887499e+000
-1.3890656e+000
-1.4492900e+000
-1.3393644e+000
-1.0687593e+000
-6.5344757e-001
-3.0636743e-001
-7.5109273e-002
-1.1889147e-001
-3.9462420e-001
-6.9454503e-001
-9.7158366e-001
-1.0658087e+000
-1.0333960e+000
-8.1446743e-001
-4.9658400e-001
-7.6928191e-002
3.8189447e-001
5.7835990e-001
6.1692816e-001
3.0157846e-001
-1.6633132e-001
-5.9099227e-001
-9.4186449e-001
-1.0788521e+000
-1.0690825e+000
-8.5504866e-001
-6.0038960e-001
-4.2277205e-001
-3.9219555e-001
-6.0991597e-001
-9.1216737e-001
-1.2198428e+000
-1.4204803e+000
-1.4761699e+000
-1.4479406e+000
-1.3698308e+000
-1.2710600e+000
-1.1637031e+000
-9.8264211e-001
-7.4687833e-001
-4.4292569e-001
-9.7417414e-002
1.6787833e-001
3.8504118e-001
4.1801107e-001
3.5509706e-001
2.3749386e-001
1.0863674e-001
6.6357329e-002
1.1291641e-001
3.7951818e-001
7.8490543e-001
1.2775888e+000
1.6720346e+000
1.6811478e+000
1.4001571e+000
9.0082276e-001
4.3404379e-001
1.9412793e-001
5.2761547e-002
-1.0603832e-001
-1.5288229e-001
-3.4397647e-002
4.3097246e-001
1.2341098e+000
2.1304715e+000
3.0263178e+000
3.4283628e+000
3.3875439e+000
3.1455991e+000
2.8020480e+000
2.7380400e+000
2.8824208e+000
2.8147783e+000
2.5727143e+000
1.8631520e+000
9.0152025e-001
1.9600396e-001
-2.0241554e-001
9.8389268e-002
1.0048432e+000
2.4942441e+000
4.1091037e+000
5.2932196e+000
6.1848021e+000
6.8762422e+000
7.8070612e+000
9.3298368e+000
1.1681486e+001
1.4956569e+001
1.8631863e+001
2.2421429e+001
2.5589781e+001
2.7923294e+001
3.0071743e+001
3.2246902e+001
3.5316486e+001
3.9280098e+001
4.3739803e+001
4.8533680e+001
5.2527367e+001
5.5821754e+001
5.9227448e+001
6.2784874e+001
6.6937119e+001
7.1504242e+001
7.5944855e+001
8.0262276e+001
8.4364685e+001
8.8250267e+001
9.1852913e+001
9.5161720e+001
9.8131966e+001
1.0059294e+002
1.0239093e+002
1.0291497e+002
1.0183107e+002
9.9688324e+001
9.6995987e+001
9.4042656e+001
9.0981339e+001
8.7293472e+001
8.2857567e+001
7.8144188e+001
7.3369247e+001
6.8978088e+001
6.4997704e+001
6.0928921e+001
5.6698772e+001
5.2452312e+001
4.8213730e+001
4.4144112e+001
4.0274628e+001
3.6734184e+001
3.3575851e+001
3.0913948e+001
2.8722929e+001
2.6852112e+001
2.5282564e+001
2.3924011e+001
2.2803036e+001
2.1916500e+001
2.1266287e+001
2.0826937e+001
2.0552942e+001
2.0385157e+001
2.0355585e+001
2.0460680e+001
2.0787430e+001
2.1354776e+001
2.2252342e+001
2.3503000e+001
2.4954109e+001
2.6573992e+001
2.8007381e+001
2.9187080e+001
3.0177422e+001
3.0985689e+001
3.2133377e+001
3.3746410e+001
3.6455803e+001
4.0175529e+001
4.3623680e+001
4.6626884e+001
4.8612274e+001
4.9791157e+001
5.1038322e+001
5.2373722e+001
5.3836063e+001
5.4923859e+001
5.5044899e+001
5.4229515e+001
5.2666763e+001
5.0906773e+001
4.9404114e+001
4.8119534e+001
4.7013351e+001
4.5862080e+001
4.4561073e+001
4.2834354e+001
4.0606033e+001
3.8325802e+001
3.6121372e+001
3.4188400e+001
3.2534550e+001
3.0435085e+001
2.7709278e+001
2.4765486e+001
2.1671667e+001
1.9080004e+001
1.7057581e+001
1.5100714e+001
1.3195856e+001
1.1297866e+001
9.4088707e+000
7.5818343e+000
5.8001938e+000
4.0017419e+000
2.3593502e+000
1.0500760e+000
2.1805146e-001
1.5992709e-003
3.9157873e-001
1.3747063e+000
2.3765521e+000
3.0640380e+000
3.5342765e+000
3.7421205e+000
4.0524898e+000
4.6331229e+000
5.3415194e+000
6.1957397e+000
6.7154574e+000
6.7352076e+000
6.5197453e+000
6.0067282e+000
5.4697571e+000
4.9031553e+000
4.3925080e+000
3.9718692e+000
3.7379389e+000
3.6808772e+000
3.6547773e+000
3.5886698e+000
3.3450847e+000
3.0004120e+000
2.7078729e+000
2.5456576e+000
2.5979784e+000
2.7881181e+000
3.0469284e+000
3.2703857e+000
3.3602891e+000
3.4164734e+000
3.4472659e+000
3.5415583e+000
3.7566621e+000
4.0706463e+000
4.5526118e+000
5.0931282e+000
5.7125754e+000
6.2196069e+000
6.5188303e+000
6.6112251e+000
6.4075308e+000
6.1245322e+000
5.7373800e+000
5.3342352e+000
4.9192557e+000
4.5501637e+000
4.2418694e+000
4.0149827e+000
3.8258832e+000
3.5903261e+000
3.2797453e+000
2.8484726e+000
2.3523858e+000
1.8509769e+000
1.3697985e+000
9.7328991e-001
6.4948666e-001
4.1613656e-001
2.5053486e-001
1.2740399e-001
3.4700632e-002
-2.2326216e-002
-2.4552174e-002
1.2217165e-001
3.6372334e-001
7.6442897e-001
1.0955946e+000
1.2747315e+000
1.2614033e+000
9.7411621e-001
6.9291377e-001
4.5541227e-001
3.6068243e-001
4.5523557e-001
6.8359017e-001
1.0567145e+000
1.4987583e+000
1.9678700e+000
2.3320234e+000
2.5655279e+000
2.5990613e+000
2.4907055e+000
2.2946043e+000
2.0676541e+000
1.8784970e+000
1.7336649e+000
1.6863818e+000
1.6964571e+000
1.7948498e+000
1.9179466e+000
2.0616381e+000
2.1865680e+000
2.2592185e+000
2.2955637e+000
2.2560782e+000
2.2140377e+000
2.1762979e+000
2.1948085e+000
2.3177130e+000
2.5020545e+000
2.7738812e+000
3.0430477e+000
3.3065515e+000
3.5377388e+000
3.7467611e+000
3.9811358e+000
4.2524242e+000
4.5748401e+000
4.9417553e+000
5.3267021e+000
5.7293530e+000
6.1519389e+000
6.5814500e+000
7.0115380e+000
7.4183455e+000
7.7546864e+000
8.0387449e+000
8.2127161e+000
8.3300104e+000
8.3251877e+000
8.2714081e+000
8.0962114e+000
7.8909402e+000
7.6060371e+000
7.2958646e+000
6.9250917e+000
6.5211358e+000
6.0516429e+000
5.5602689e+000
5.0331812e+000
4.5071049e+000
3.9856863e+000
3.4801536e+000
2.9993780e+000
2.5467985e+000
2.1229887e+000
1.7180244e+000
1.3205372e+000
9.0119845e-001
4.7074449e-001
4.5844376e-002
-3.5530072e-001
-6.6699177e-001
-9.2999995e-001
-1.1124212e+000
-1.2480162e+000
-1.2706294e+000
-1.2241600e+000
-9.6278942e-001
-6.7466116e-001
-3.3157104e-001
-4.5186285e-002
7.1105115e-002
1.5187494e-001
1.4942549e-001
1.6080584e-001
1.9567566e-001
2.1656114e-001
2.1123825e-001
1.8528005e-001
1.3299817e-001
8.6357713e-002
4.7054037e-002
1.5726568e-002
-4.3687792e-003
-4.8129009e-003
4.4549378e-003
7.9671452e-003
1.0800881e-002
4.9897894e-002
1.2385732e-001
3.0597097e-001
5.2975261e-001
8.1453967e-001
1.1009912e+000
1.3401000e+000
1.5721161e+000
1.7905285e+000
2.0194035e+000
2.2917640e+000
2.5534585e+000
2.7776372e+000
2.9609799e+000
3.0464892e+000
3.1357729e+000
3.2417121e+000
3.4189935e+000
3.7081714e+000
4.0280175e+000
4.3856440e+000
4.7450628e+000
5.1098099e+000
5.4977322e+000
5.8902178e+000
6.1945801e+000
6.4247313e+000
6.5028996e+000
6.5110731e+000
6.5064702e+000
6.5088415e+000
6.5862947e+000
6.6789217e+000
6.7560678e+000
6.8215361e+000
6.8140497e+000
6.8127747e+000
6.8768339e+000
6.9764056e+000
7.2303734e+000
7.4910340e+000
7.7667170e+000
7.9842963e+000
8.0604792e+000
8.0965157e+000
8.0633945e+000
8.0573759e+000
8.0924768e+000
8.1411304e+000
8.1971140e+000
8.1800470e+000
8.0789833e+000
7.7922091e+000
7.3671236e+000
6.8280621e+000
6.2343659e+000
5.6842651e+000
5.1503935e+000
4.6022086e+000
4.0447717e+000
3.4286239e+000
2.8028469e+000
2.1841800e+000
1.5769857e+000
1.0990870e+000
6.5818805e-001
4.6318206e-001
2.8724435e-001
1.9290221e-001
6.4461738e-002
-1.6842663e-001
-4.1197681e-001
-6.7876661e-001
-9.3653601e-001
-1.1805131e+000
-1.4272801e+000
-1.6736519e+000
-1.8319418e+000
-1.8931344e+000
-1.8503911e+000
-1.7255635e+000
-1.6150666e+000
-1.5148355e+000
-1.4245200e+000
-1.3363029e+000
-1.1935959e+000
-1.0318245e+000
-8.5524803e-001
-6.7781705e-001
-5.6764567e-001
-4.6609241e-001
-3.8240778e-001
-2.9169363e-001
-9.6136391e-002
5.4202229e-003
1.6221192e-001
2.8237653e-001
2.4593049e-001
2.2786772e-001
2.6347259e-001
3.2694158e-001
4.4749546e-001
4.7550806e-001
3.5656261e-001
2.7703100e-001
2.4914634e-001
4.6365818e-001
9.0320355e-001
1.3341872e+000
1.7576033e+000
2.0209250e+000
2.2003119e+000
2.6216784e+000
3.1333649e+000
3.8697338e+000
4.6600442e+000
4.9963508e+000
5.2582512e+000
5.2244000e+000
