Image.
>Pix99999.
  .
5555
5555
2300
900
5555
2
1
0
701
5555
2.4196999e-002
2.4700278e-002
2.5203560e-002
2.5706839e-002
2.6210120e-002
2.6713399e-002
2.7216680e-002
2.7719960e-002
2.8223241e-002
2.8727507e-002
2.9229814e-002
2.9733080e-002
3.0237343e-002
3.0743584e-002
3.1243982e-002
3.1736434e-002
3.2250229e-002
3.2793764e-002
3.3258095e-002
3.3612445e-002
3.4260228e-002
3.5318840e-002
3.5288043e-002
3.3723097e-002
3.6205001e-002
4.5686178e-002
4.7804695e-002
2.9984660e-002
6.3935602e-003
3.2850562e-003
6.5090418e-002
2.2185433e-001
4.2499074e-001
6.1152565e-001
7.5194865e-001
8.3623749e-001
8.9304161e-001
9.5351470e-001
1.0137281e+000
1.0597761e+000
1.0809686e+000
1.0724033e+000
1.0491461e+000
1.0290225e+000
1.0167418e+000
1.0135671e+000
1.0236771e+000
1.0501469e+000
1.0883257e+000
1.1296879e+000
1.1591572e+000
1.1642596e+000
1.1506143e+000
1.1291658e+000
1.1123651e+000
1.1119293e+000
1.1370239e+000
1.1929364e+000
1.2722638e+000
1.3627878e+000
1.4476657e+000
1.5125926e+000
1.5578383e+000
1.5886360e+000
1.6113794e+000
1.6326314e+000
1.6593261e+000
1.6957203e+000
1.7349629e+000
1.7646711e+000
1.7652500e+000
1.7221382e+000
1.6507320e+000
1.5771754e+000
1.5292572e+000
1.5271786e+000
1.5603045e+000
1.6087110e+000
1.6596060e+000
1.7059312e+000
1.7521971e+000
1.8044556e+000
1.8593338e+000
1.9097832e+000
1.9502840e+000
1.9798635e+000
2.0139999e+000
2.0706677e+000
2.1532011e+000
2.2528570e+000
2.3352528e+000
2.3650751e+000
2.3415086e+000
2.2820897e+000
2.2244275e+000
2.2059963e+000
2.2357080e+000
2.3084083e+000
2.4069340e+000
2.5114357e+000
2.6071286e+000
2.6825538e+000
2.7311013e+000
2.7482607e+000
2.7313685e+000
2.6816049e+000
2.6120481e+000
2.5414612e+000
2.4912052e+000
2.4798629e+000
2.5105386e+000
2.5789180e+000
2.6756241e+000
2.7868941e+000
2.8873239e+000
2.9492643e+000
2.9549627e+000
2.8997478e+000
2.8159668e+000
2.7472501e+000
2.7192972e+000
2.7416897e+000
2.7904499e+000
2.8322418e+000
2.8522012e+000
2.8471143e+000
2.8275239e+000
2.8061645e+000
2.7826886e+000
2.7517893e+000
2.7121699e+000
2.6673524e+000
2.6312113e+000
2.6193728e+000
2.6350801e+000
2.6742914e+000
2.7269337e+000
2.7818356e+000
2.8332245e+000
2.8759785e+000
2.8965001e+000
2.8805940e+000
2.8274932e+000
2.7466891e+000
2.6635714e+000
2.6051335e+000
2.5771260e+000
2.5724421e+000
2.5724788e+000
2.5572295e+000
2.5195501e+000
2.4623234e+000
2.4036942e+000
2.3673444e+000
2.3724780e+000
2.4306893e+000
2.5310862e+000
2.6508904e+000
2.7627423e+000
2.8424821e+000
2.8876286e+000
2.9079809e+000
2.9194162e+000
2.9343810e+000
2.9417224e+000
2.9207120e+000
2.8597372e+000
2.7583053e+000
2.6399920e+000
2.5371909e+000
2.4691043e+000
2.4438422e+000
2.4543297e+000
2.4850996e+000
2.5163178e+000
2.5280750e+000
2.5075669e+000
2.4502161e+000
2.3711820e+000
2.2953694e+000
2.2468114e+000
2.2436919e+000
2.2844579e+000
2.3555086e+000
2.4369354e+000
2.5094643e+000
2.5671310e+000
2.6110075e+000
2.6398664e+000
2.6502230e+000
2.6360085e+000
2.5917342e+000
2.5187349e+000
2.4249682e+000
2.3283780e+000
2.2523820e+000
2.2204120e+000
2.2475200e+000
2.3151050e+000
2.3850393e+000
2.4169858e+000
2.3806117e+000
2.2874215e+000
2.1731172e+000
2.0751159e+000
2.0225649e+000
2.0140288e+000
2.0302830e+000
2.0512490e+000
2.0588028e+000
2.0383301e+000
1.9803301e+000
1.8895555e+000
1.7817279e+000
1.6844811e+000
1.6266686e+000
1.6130543e+000
1.6320820e+000
1.6668657e+000
1.7013069e+000
1.7310057e+000
1.7583756e+000
1.7821276e+000
1.7971045e+000
1.7925720e+000
1.7560607e+000
1.6806051e+000
1.5661167e+000
1.4265891e+000
1.2834870e+000
1.1541457e+000
1.0530320e+000
9.9757367e-001
1.0036367e+000
1.0703180e+000
1.1804086e+000
1.2932874e+000
1.3610855e+000
1.3653520e+000
1.3117511e+000
1.2205313e+000
1.1167532e+000
1.0148621e+000
9.2244786e-001
8.5087287e-001
8.1238598e-001
8.0811620e-001
8.3081496e-001
8.7055719e-001
9.1500074e-001
9.4461930e-001
9.3990040e-001
9.0300238e-001
8.5461372e-001
8.2997805e-001
8.6078823e-001
9.2568797e-001
9.7118628e-001
9.6888113e-001
9.1298962e-001
7.9960573e-001
6.2705374e-001
4.1085237e-001
1.8332458e-001
-2.5231652e-003
-9.1669232e-002
-7.9916000e-002
-1.0748776e-002
2.8009240e-002
-5.1780831e-002
-2.1606085e-001
-3.5146251e-001
-4.0395698e-001
-3.8400942e-001
-3.4230280e-001
-3.4357536e-001
-4.1635314e-001
-5.4905176e-001
-6.8239504e-001
-7.3765737e-001
-6.9130802e-001
-5.7252407e-001
-4.4233128e-001
-3.6662433e-001
-3.5250297e-001
-3.5854715e-001
-3.3739200e-001
-2.4375871e-001
-3.1104542e-002
3.4433600e-001
9.0717399e-001
1.6485906e+000
2.4732606e+000
3.2445731e+000
3.9398038e+000
4.6522732e+000
5.5528045e+000
6.8619976e+000
8.8176651e+000
1.1583652e+001
1.4940143e+001
1.8385870e+001
2.1542322e+001
2.4249990e+001
2.6692978e+001
2.9295557e+001
3.2403145e+001
3.6160839e+001
4.0249882e+001
4.4071507e+001
4.7440857e+001
5.0599609e+001
5.3902622e+001
5.7665356e+001
6.1880154e+001
6.6270599e+001
7.0598946e+001
7.4717209e+001
7.8525673e+001
8.1966270e+001
8.5054718e+001
8.7863396e+001
9.0449295e+001
9.2807175e+001
9.4744247e+001
9.5956070e+001
9.6363922e+001
9.6109184e+001
9.5299156e+001
9.3959831e+001
9.2071815e+001
8.9612793e+001
8.6680824e+001
8.3466614e+001
8.0050499e+001
7.6395355e+001
7.2484276e+001
6.8354477e+001
6.4110802e+001
5.9904144e+001
5.5842628e+001
5.1985786e+001
4.8400711e+001
4.5158360e+001
4.2276737e+001
3.9724335e+001
3.7471424e+001
3.5500626e+001
3.3795486e+001
3.2334072e+001
3.1074001e+001
2.9957514e+001
2.8951727e+001
2.8058079e+001
2.7314230e+001
2.6780449e+001
2.6482542e+001
2.6402269e+001
2.6505363e+001
2.6753963e+001
2.7119486e+001
2.7583469e+001
2.8126091e+001
2.8725893e+001
2.9373520e+001
3.0070486e+001
3.0809196e+001
3.1606028e+001
3.2651291e+001
3.4263824e+001
3.6500229e+001
3.9081490e+001
4.1598015e+001
4.3635670e+001
4.5099773e+001
4.6233788e+001
4.7232178e+001
4.8148132e+001
4.8962318e+001
4.9600540e+001
4.9964657e+001
4.9965111e+001
4.9632122e+001
4.9113605e+001
4.8493385e+001
4.7745350e+001
4.6782150e+001
4.5492840e+001
4.3855812e+001
4.1968315e+001
3.9986584e+001
3.8066917e+001
3.6174561e+001
3.4071533e+001
3.1608643e+001
2.8825485e+001
2.5958908e+001
2.3384428e+001
2.1246912e+001
1.9378441e+001
1.7567572e+001
1.5647472e+001
1.3558497e+001
1.1363419e+001
9.1476574e+000
6.9985380e+000
5.0206518e+000
3.3286636e+000
1.9732440e+000
9.4173324e-001
3.1095272e-001
2.5317442e-001
7.7550840e-001
1.6556610e+000
2.6678104e+000
3.6587558e+000
4.5634141e+000
5.3930368e+000
6.0811915e+000
6.4586892e+000
6.4429598e+000
6.1082883e+000
5.6321402e+000
5.2523708e+000
5.0520358e+000
4.9029536e+000
4.7043362e+000
4.4516101e+000
4.1521659e+000
3.7999465e+000
3.3767357e+000
2.8596451e+000
2.2665281e+000
1.6697290e+000
1.1387466e+000
7.1959269e-001
4.3709478e-001
2.9353231e-001
2.8530037e-001
4.0568811e-001
6.3779026e-001
9.5149899e-001
1.3151577e+000
1.7007959e+000
2.0910504e+000
2.4817898e+000
2.8674052e+000
3.2348554e+000
3.5633280e+000
3.8256283e+000
4.0065928e+000
4.1124744e+000
4.1612549e+000
4.1790876e+000
4.1811070e+000
4.1641650e+000
4.1240940e+000
4.0610189e+000
3.9721828e+000
3.8496392e+000
3.6859598e+000
3.4786961e+000
3.2397521e+000
2.9971712e+000
2.7592652e+000
2.4988737e+000
2.1823492e+000
1.7854836e+000
1.3264583e+000
8.8245368e-001
5.2139997e-001
2.7142054e-001
1.2341938e-001
2.7072828e-002
-5.7187770e-002
-1.3608000e-001
-2.0309880e-001
-2.4434985e-001
-2.5636014e-001
-2.5405347e-001
-2.5003713e-001
-2.4545704e-001
-2.3323101e-001
-1.9826090e-001
-1.3119927e-001
-3.4514796e-002
9.0531975e-002
2.4841253e-001
4.4039065e-001
6.5896893e-001
8.8734001e-001
1.0975372e+000
1.2668332e+000
1.3866330e+000
1.4571891e+000
1.4888043e+000
1.4957172e+000
1.4953730e+000
1.5059935e+000
1.5443356e+000
1.6175715e+000
1.7161293e+000
1.8245677e+000
1.9257064e+000
2.0104120e+000
2.0847292e+000
2.1582725e+000
2.2398899e+000
2.3328171e+000
2.4311764e+000
2.5282328e+000
2.6202059e+000
2.7091160e+000
2.8065934e+000
2.9287760e+000
3.0952470e+000
3.3229897e+000
3.6216855e+000
3.9954319e+000
4.4403706e+000
4.9503140e+000
5.5177674e+000
6.1344314e+000
6.7904692e+000
7.4744725e+000
8.1722755e+000
8.8664045e+000
9.5339355e+000
1.0151812e+001
1.0699723e+001
1.1164144e+001
1.1543050e+001
1.1835279e+001
1.2033106e+001
1.2130507e+001
1.2125436e+001
1.2020532e+001
1.1823759e+001
1.1540537e+001
1.1168571e+001
1.0709686e+001
1.0173394e+001
9.5747042e+000
8.9297705e+000
8.2547836e+000
7.5633640e+000
6.8697357e+000
6.1899366e+000
5.5345631e+000
4.9015298e+000
4.2862573e+000
3.6849310e+000
3.0991778e+000
2.5406630e+000
2.0207510e+000
1.5449471e+000
1.1183250e+000
7.4861085e-001
4.4630539e-001
2.2652194e-001
9.9149004e-002
5.9358761e-002
9.0165243e-002
1.5594581e-001
2.1983960e-001
2.5328556e-001
2.3975188e-001
1.8552330e-001
1.0453938e-001
1.5574638e-002
-6.4217970e-002
-1.2441379e-001
-1.6050766e-001
-1.7760499e-001
-1.8125260e-001
-1.7234786e-001
-1.4800692e-001
-1.0000944e-001
-2.6423533e-002
5.8747128e-002
1.5291658e-001
2.8866309e-001
5.0043905e-001
8.0574328e-001
1.2051966e+000
1.6687272e+000
2.1613727e+000
2.6547306e+000
3.1274319e+000
3.5717878e+000
3.9819443e+000
4.3495789e+000
4.6773767e+000
4.9955297e+000
5.3379974e+000
5.7294502e+000
6.1754422e+000
6.6395555e+000
7.0834274e+000
7.4918356e+000
7.8640141e+000
8.2223215e+000
8.5888443e+000
8.9696207e+000
9.3594685e+000
9.7340193e+000
1.0067138e+001
1.0341963e+001
1.0554525e+001
1.0732360e+001
1.0906943e+001
1.1105497e+001
1.1339931e+001
1.1592450e+001
1.1830834e+001
1.2013386e+001
1.2102039e+001
1.2080535e+001
1.1947931e+001
1.1726600e+001
1.1442314e+001
1.1120080e+001
1.0785006e+001
1.0455350e+001
1.0141397e+001
9.8305397e+000
9.4987535e+000
9.1077738e+000
8.6344624e+000
8.1095428e+000
7.5765100e+000
7.0773358e+000
6.6365657e+000
6.2299719e+000
5.8326416e+000
5.4526701e+000
5.1060143e+000
4.8059139e+000
4.5517292e+000
4.3036575e+000
4.0260253e+000
3.7253423e+000
3.4225318e+000
3.1499703e+000
2.9270802e+000
2.7247365e+000
2.5063291e+000
2.2507765e+000
1.9507766e+000
1.6310083e+000
1.3185786e+000
1.0249391e+000
7.5425476e-001
5.0104076e-001
2.6051742e-001
3.7952796e-002
-1.5601914e-001
-3.0140299e-001
-3.7659338e-001
-3.6256698e-001
-2.4838135e-001
-4.7860831e-002
2.1510029e-001
5.0358683e-001
7.8146213e-001
1.0262250e+000
1.2218040e+000
1.3631438e+000
1.4483309e+000
1.4771194e+000
1.4505600e+000
1.3729800e+000
1.2444479e+000
1.0481195e+000
7.8165126e-001
5.0833714e-001
2.7154920e-001
-1.3108671e-002
-4.1163230e-001
-8.1054688e-001
-1.0857886e+000
-1.2365336e+000
-1.2910115e+000
-1.2708194e+000
-1.2016521e+000
-1.1306129e+000
-1.1047040e+000
-1.1513939e+000
-1.2809119e+000
-1.4564192e+000
-1.6352857e+000
-1.7946739e+000
-1.9245601e+000
-2.0435140e+000
-2.1749473e+000
-2.3321657e+000
-2.5232806e+000
-2.7471645e+000
-2.9951952e+000
-3.2380905e+000
-3.4412999e+000
