##TITLE=Methyl Ethyl Ketone
##JCAMP-DX=4.24
##DATA TYPE=INFRARED SPECTRUM
##XUNITS=cm-1
##YUNITS=Absorbance
##FIRSTX=900
##LASTX=2300
##XYDATA=(X++(Y..Y))
2296 0.026301
2294 0.026848217
2292 0.027395433
2290 0.027942652
2288 0.028489869
2286 0.029037086
2284 0.029584302
2282 0.030131521
2280 0.030678738
2278 0.031224966
2276 0.031773157
2274 0.032320388
2272 0.032866623
2270 0.033410877
2268 0.033961959
2266 0.034522954
2264 0.03505582
2262 0.035551958
2260 0.03614857
2258 0.036888778
2256 0.037249971
2254 0.037078612
2252 0.038315676
2250 0.0415379
2248 0.039527223
2246 0.027499678
2244 0.019178903
2242 0.022723598
2240 0.0029763361
2238 -0.07842093
2236 -0.22328927
2234 -0.41342297
2232 -0.5922609
2230 -0.70174682
2228 -0.72182113
2226 -0.65345854
2224 -0.5377273
2222 -0.423581
2220 -0.34489077
2218 -0.32253307
2216 -0.34352285
2214 -0.38471067
2212 -0.42256221
2210 -0.43815708
2208 -0.43102679
2206 -0.40926799
2204 -0.39290816
2202 -0.40072215
2200 -0.43196672
2198 -0.47570732
2196 -0.50440288
2194 -0.4926205
2192 -0.44405085
2190 -0.37544757
2188 -0.31892142
2186 -0.30479914
2184 -0.3369236
2182 -0.40602821
2180 -0.48453772
2178 -0.5428012
2176 -0.56614739
2174 -0.54892993
2172 -0.50190401
2170 -0.43916079
2168 -0.36683714
2166 -0.28941914
2164 -0.21596323
2162 -0.1595061
2160 -0.14301041
2158 -0.18596098
2156 -0.28007901
2154 -0.40284261
2152 -0.51240861
2150 -0.56782097
2148 -0.55794704
2146 -0.48901823
2144 -0.39540961
2142 -0.31762591
2140 -0.28224298
2138 -0.30240366
2136 -0.35736486
2134 -0.41500485
2132 -0.44542769
2130 -0.42812204
2128 -0.37647718
2126 -0.31574273
2124 -0.26985115
2122 -0.25719282
2120 -0.27720404
2118 -0.32140267
2116 -0.37742871
2114 -0.43310368
2112 -0.48184639
2110 -0.52081263
2108 -0.5535661
2106 -0.58258855
2104 -0.59619439
2102 -0.57969308
2100 -0.52876759
2098 -0.44861534
2096 -0.36677429
2094 -0.31482443
2092 -0.30597973
2090 -0.33900231
2088 -0.38371286
2086 -0.40446699
2084 -0.38883847
2082 -0.34082156
2080 -0.29260239
2078 -0.27990192
2076 -0.30824986
2074 -0.36685622
2072 -0.42958
2070 -0.4707897
2068 -0.49074519
2066 -0.50175864
2064 -0.52141058
2062 -0.56440079
2060 -0.62633622
2058 -0.69414496
2056 -0.75185853
2054 -0.78507936
2052 -0.7893694
2050 -0.76646322
2048 -0.72628474
2046 -0.68229896
2044 -0.64914221
2042 -0.63855761
2040 -0.64878196
2038 -0.67202282
2036 -0.69977683
2034 -0.72512567
2032 -0.74791789
2030 -0.76915812
2028 -0.78221411
2026 -0.77640969
2024 -0.7388007
2022 -0.66186595
2020 -0.56434411
2018 -0.47865066
2016 -0.44497198
2014 -0.49536407
2012 -0.6153574
2010 -0.76848477
2008 -0.91557074
2006 -1.0237094
2004 -1.0864623
2002 -1.1096081
2000 -1.0987635
1998 -1.0598935
1996 -1.0040822
1994 -0.94468302
1992 -0.89472038
1990 -0.86430037
1988 -0.85242999
1986 -0.85375315
1984 -0.86672235
1982 -0.89054477
1980 -0.91815645
1978 -0.93618333
1976 -0.91781175
1974 -0.83666003
1972 -0.69553655
1970 -0.5194726
1968 -0.36560872
1966 -0.29497364
1964 -0.32148194
1962 -0.42674866
1960 -0.55908322
1958 -0.66222787
1956 -0.72463173
1954 -0.75968069
1952 -0.78569698
1950 -0.81699049
1948 -0.84725183
1946 -0.86172247
1944 -0.85525692
1942 -0.83055305
1940 -0.7991209
1938 -0.77533954
1936 -0.76796943
1934 -0.78069729
1932 -0.80939305
1930 -0.84486908
1928 -0.87289065
1926 -0.8768214
1924 -0.84001482
1922 -0.7535491
1920 -0.64122677
1918 -0.54123646
1916 -0.47735772
1914 -0.45850173
1912 -0.46958983
1910 -0.4887681
1908 -0.51877826
1906 -0.57211775
1904 -0.6398688
1902 -0.69617373
1900 -0.69889379
1898 -0.60982275
1896 -0.44279569
1894 -0.24683145
1892 -0.092889026
1890 -0.04967228
1888 -0.13304566
1886 -0.32012641
1884 -0.55497557
1882 -0.77261728
1880 -0.9397462
1878 -1.0447497
1876 -1.08398
1874 -1.0549413
1872 -0.94941086
1870 -0.7660802
1868 -0.55040962
1866 -0.37259999
1864 -0.28749433
1862 -0.32332629
1860 -0.44365218
1858 -0.58053166
1856 -0.69405031
1854 -0.77030009
1852 -0.81815404
1850 -0.85718322
1848 -0.90205002
1846 -0.95984107
1844 -1.0228438
1842 -1.0739775
1840 -1.0942966
1838 -1.065443
1836 -0.97367126
1834 -0.81060481
1832 -0.57863212
1830 -0.29831344
1828 -0.042588606
1826 0.095235586
1824 0.077424332
1822 -0.080935761
1820 -0.30438381
1818 -0.49418339
1816 -0.602826
1814 -0.62814975
1812 -0.6039685
1810 -0.57480586
1808 -0.54631716
1806 -0.50001252
1804 -0.43459657
1802 -0.36550722
1800 -0.31704554
1798 -0.3061305
1796 -0.29718858
1794 -0.23150568
1792 -0.10866264
1790 0.029074669
1788 0.14566348
1786 0.22191386
1784 0.27124166
1782 0.32466376
1780 0.39639601
1778 0.49025729
1776 0.62811488
1774 0.83224082
1772 1.060482
1770 1.2233108
1768 1.2304617
1766 1.026167
1764 0.6869514
1762 0.36098507
1760 0.094447032
1758 -0.1378338
1756 -0.29410356
1754 -0.28546137
1752 -0.082422711
1750 0.27606875
1748 0.67294085
1746 0.9547407
1744 1.0326639
1742 0.89901757
1740 0.66896451
1738 0.51847756
1736 0.51665801
1734 0.62279773
1732 0.71320206
1730 0.64167887
1728 0.38796216
1726 0.047248363
1724 -0.22670096
1722 -0.25738701
1720 0.098542511
1718 0.90810513
1716 2.0208228
1714 3.1460454
1712 4.1064405
1710 4.8756208
1708 5.6040902
1706 6.5582914
1704 7.9752359
1702 10.027868
1700 12.784463
1698 16.180647
1696 19.889
1694 23.43059
1692 26.560305
1690 29.321585
1688 32.087563
1686 35.424858
1684 39.698189
1682 44.943245
1680 50.588322
1678 55.74353
1676 60.235229
1674 64.552582
1672 69.141037
1670 74.18943
1668 79.368454
1666 84.001701
1664 87.732315
1662 90.571327
1660 92.649918
1658 94.13327
1656 95.133034
1654 95.701744
1652 95.867897
1650 95.639107
1648 94.977921
1646 93.83432
1644 92.285645
1642 90.507744
1640 88.567856
1638 86.401588
1636 83.875824
1634 80.853813
1632 77.363792
1630 73.569664
1628 69.54528
1626 65.254425
1624 60.673481
1622 55.836514
1620 50.892658
1618 46.081203
1616 41.589912
1614 37.531757
1612 33.980843
1610 30.971048
1608 28.464422
1606 26.364227
1604 24.594236
1602 23.116249
1600 21.924006
1598 21.032946
1596 20.4375
1594 20.103306
1592 19.985064
1590 20.037451
1588 20.246826
1586 20.634529
1584 21.222052
1582 22.032169
1580 23.132883
1578 24.630732
1576 26.5968
1574 29.035402
1572 31.828875
1570 34.759289
1568 37.663639
1566 40.462456
1564 43.113735
1562 45.635868
1560 48.253937
1558 51.299652
1556 54.608398
1554 57.497139
1552 59.443474
1550 60.289188
1548 60.274971
1546 59.931286
1544 59.483906
1542 58.742878
1540 57.408543
1538 55.232193
1536 52.35957
1534 49.337845
1532 46.601742
1530 44.329453
1528 42.490532
1526 40.8736
1524 39.241493
1522 37.393433
1520 35.245399
1518 32.861393
1516 30.416372
1514 28.138523
1512 26.060001
1510 23.977808
1508 21.7083
1506 19.185207
1504 16.552332
1502 14.141506
1500 12.126566
1498 10.437651
1496 8.9496717
1494 7.5463853
1492 6.1826677
1490 4.891789
1488 3.6804285
1486 2.5146728
1484 1.4195359
1482 0.50334501
1480 -0.11666949
1478 -0.33269674
1476 -0.030563384
1474 0.87661231
1472 2.2732127
1470 3.8166289
1468 5.2479558
1466 6.4943151
1464 7.60356
1462 8.7183867
1460 9.946414
1458 11.301831
1456 12.6678
1454 13.795924
1452 14.495034
1450 14.703803
1448 14.467206
1446 13.934072
1444 13.253997
1442 12.54178
1440 11.859155
1438 11.205293
1436 10.534215
1434 9.7688951
1432 8.8952818
1430 7.9920788
1428 7.1629362
1426 6.5073981
1424 6.0759301
1422 5.8484173
1420 5.770947
1418 5.7689877
1416 5.7921944
1414 5.8350892
1412 5.9257007
1410 6.1193733
1408 6.443059
1406 6.8711376
1404 7.3494802
1402 7.7994566
1400 8.1378593
1398 8.2886629
1396 8.2118855
1394 7.9238482
1392 7.4866228
1390 7.0042334
1388 6.5515347
1386 6.1447101
1384 5.7765636
1382 5.4254999
1380 5.0742717
1378 4.7149587
1376 4.3309889
1374 3.8929684
1372 3.38831
1370 2.8346505
1368 2.2596731
1366 1.6941292
1364 1.1579757
1362 0.65662301
1360 0.21183057
1358 -0.12605757
1356 -0.3135483
1354 -0.33039737
1352 -0.17606948
1350 0.127
1348 0.55135387
1346 1.0715089
1344 1.672992
1342 2.3527706
1340 3.0781016
1338 3.7626541
1336 4.2989883
1334 4.5763392
1332 4.5478134
1330 4.2734842
1328 3.8428433
1326 3.3515842
1324 2.8835802
1322 2.4965932
1320 2.2201138
1318 2.0434792
1316 1.92952
1314 1.8143308
1312 1.6460823
1310 1.4073907
1308 1.1118594
1306 0.81173998
1304 0.56141347
1302 0.40119469
1300 0.35157079
1298 0.40435821
1296 0.54600143
1294 0.7660957
1292 1.0619991
1290 1.4418106
1288 1.905256
1286 2.4312809
1284 2.9843585
1282 3.5127354
1280 3.9694228
1278 4.32549
1276 4.5711746
1274 4.7258263
1272 4.8241062
1270 4.9161482
1268 5.0494976
1266 5.2593756
1264 5.5672426
1262 5.9743719
1260 6.4750042
1258 7.0597391
1256 7.72264
1254 8.4664421
1252 9.2976475
1250 10.225167
1248 11.247801
1246 12.343
1244 13.46866
1242 14.556839
1240 15.534086
1238 16.332169
1236 16.892942
1234 17.177519
1232 17.15328
1230 16.790268
1228 16.076447
1226 15.043121
1224 13.753845
1222 12.323864
1220 10.880027
1218 9.5448732
1216 8.420866
1214 7.563818
1212 7.0026116
1210 6.7296457
1208 6.7104201
1206 6.8709936
1204 7.112144
1202 7.3042145
1200 7.3283958
1198 7.1085896
1196 6.6154499
1194 5.8987184
1192 5.0400419
1190 4.1470871
1188 3.3159933
1186 2.6027186
1184 2.0364497
1182 1.6097211
1180 1.3065277
1178 1.1114882
1176 1.004372
1174 0.95533657
1172 0.93359452
1170 0.91328001
1168 0.8821013
1166 0.85466617
1164 0.84617412
1162 0.85818642
1160 0.88294238
1158 0.89966512
1156 0.88983899
1154 0.84730965
1152 0.77066571
1150 0.66304314
1148 0.53172743
1146 0.39123642
1144 0.25946414
1142 0.15603276
1140 0.083701238
1138 0.0072711855
1136 -0.096118681
1134 -0.1993961
1132 -0.26878273
1130 -0.28417239
1128 -0.24046263
1126 -0.16052184
1124 -0.071950965
1122 0.0037524849
1120 0.05815516
1118 0.11081512
1116 0.18453428
1114 0.29269364
1112 0.43782896
1110 0.60135806
1108 0.76105887
1106 0.8983525
1104 0.99693269
1102 1.0453591
1100 1.0467786
1098 1.0394042
1096 1.0780429
1094 1.2351528
1092 1.5574601
1090 2.012341
1088 2.5380158
1086 3.0476763
1084 3.4668982
1082 3.7694626
1080 3.9414268
1078 3.9713681
1076 3.8604872
1074 3.6419528
1072 3.363111
1070 3.0876896
1068 2.8641455
1066 2.6900115
1064 2.548816
1062 2.4211431
1060 2.2996182
1058 2.2121425
1056 2.1849058
1054 2.2161112
1052 2.2850416
1050 2.3390419
1048 2.3356476
1046 2.2835891
1044 2.2097631
1042 2.1566663
1040 2.1596525
1038 2.2216442
1036 2.3317099
1034 2.4614694
1032 2.5753267
1030 2.6308358
1028 2.5993919
1026 2.499002
1024 2.359313
1022 2.210736
1020 2.0702193
1018 1.9148818
1016 1.7215314
1014 1.4954175
1012 1.2519392
1010 1.0143111
1008 0.79603601
1006 0.57386541
1004 0.31947657
1002 0.017034799
1000 -0.33153844
998 -0.6787945
996 -0.97330141
994 -1.187041
992 -1.3081411
990 -1.3579022
988 -1.3593794
986 -1.3152357
984 -1.228968
982 -1.1221992
980 -1.0194566
978 -0.93893677
976 -0.88653773
974 -0.83229274
972 -0.74609345
970 -0.62660658
968 -0.48005036
966 -0.3139295
964 -0.13379671
962 0.062076584
960 0.26645124
958 0.43544787
956 0.52238274
954 0.50297517
952 0.37628001
950 0.20351407
948 0.058640387
946 0.0059979111
944 0.097715646
942 0.350283
940 0.75157273
938 1.218503
936 1.6548829
934 1.9819442
932 2.1496909
930 2.1985223
928 2.1960492
926 2.2265258
924 2.3551061
922 2.5607588
920 2.8003173
918 3.0277255
916 3.2065899
914 3.338274
912 3.4371662
910 3.5305681
908 3.6476073
906 3.8120108
904 4.037415
902 4.3021626
900 4.5729647
898 4.8052092
896 4.9516001
