Image.
>Pix99999.
  .
5555
5555
2300
900
5555
2
1
0
701
5555
7.3652002e-003
7.5216759e-003
7.6782522e-003
7.8347288e-003
7.9912050e-003
8.1476802e-003
8.3041573e-003
8.4606325e-003
8.6171087e-003
8.7735858e-003
8.9300610e-003
9.0865372e-003
9.2430143e-003
9.3994895e-003
9.5559657e-003
9.7124428e-003
9.8689180e-003
1.0025200e-002
1.0181963e-002
1.0338739e-002
1.0494542e-002
1.0651290e-002
1.0808066e-002
1.0963874e-002
1.1120617e-002
1.1277393e-002
4.1908285e-004
4.9886607e-002
1.1213952e-001
1.6562684e-001
2.1781200e-001
1.9193289e-001
1.6007377e-001
1.2046713e-001
8.6669087e-002
1.0239650e-001
1.3133080e-001
2.0927496e-001
2.9505113e-001
3.9676479e-001
4.7103572e-001
4.8336160e-001
4.4891140e-001
3.4405661e-001
2.5107598e-001
1.7827414e-001
1.7499669e-001
2.3745151e-001
3.1323156e-001
3.9574441e-001
4.2350215e-001
4.1946954e-001
4.0119076e-001
3.7760487e-001
3.5267243e-001
3.2740942e-001
2.7480158e-001
2.1589197e-001
1.8263774e-001
1.5356007e-001
1.4982171e-001
1.4646849e-001
1.2109572e-001
9.7209476e-002
9.3896866e-002
1.0268787e-001
1.4844191e-001
1.9823384e-001
2.4888417e-001
2.9942328e-001
3.4949100e-001
3.9326435e-001
4.2798138e-001
4.2904156e-001
3.9327472e-001
3.3058894e-001
2.4754006e-001
2.0610650e-001
1.9514583e-001
2.4699289e-001
3.3133283e-001
3.8316786e-001
4.1982251e-001
3.7902477e-001
3.1391442e-001
2.4507165e-001
1.7586645e-001
1.4825943e-001
1.3004017e-001
1.6356222e-001
2.0854200e-001
2.8356633e-001
3.5602891e-001
3.9745358e-001
4.2524949e-001
4.2564535e-001
4.2403692e-001
4.2707315e-001
4.2207742e-001
4.0254900e-001
3.5528570e-001
2.7469653e-001
1.8355069e-001
8.6519770e-002
2.5504421e-002
-5.3812652e-003
-1.2555368e-002
-6.9433283e-003
-1.7346783e-002
-3.6885880e-002
-4.0648174e-002
-3.7334640e-002
-4.6163555e-003
3.7464373e-002
5.4923605e-002
6.5240726e-002
1.0430218e-002
-5.8905870e-002
-1.5168434e-001
-2.4336119e-001
-3.0366197e-001
-3.5960913e-001
-4.2088458e-001
-4.9355671e-001
-5.9134442e-001
-6.7573428e-001
-7.2373176e-001
-7.2645235e-001
-6.7262441e-001
-6.0395473e-001
-5.3191143e-001
-4.7883201e-001
-4.4446835e-001
-4.0830600e-001
-3.6719957e-001
-3.1956771e-001
-2.6761663e-001
-2.2735406e-001
-1.9309007e-001
-1.6449483e-001
-1.3860200e-001
-1.3864078e-001
-1.4837377e-001
-2.1262550e-001
-2.9205725e-001
-3.7686014e-001
-4.5740905e-001
-4.9498352e-001
-5.1671422e-001
-5.1250738e-001
-5.0909215e-001
-5.2491492e-001
-5.5451888e-001
-6.0877639e-001
-6.4988500e-001
-6.6330898e-001
-6.4057320e-001
-5.7646865e-001
-5.1716298e-001
-4.7154215e-001
-4.6347401e-001
-4.8603821e-001
-4.8295370e-001
-4.5446345e-001
-3.9846766e-001
-3.2817701e-001
-3.5524994e-001
-4.3640688e-001
-5.6655198e-001
-7.1563804e-001
-7.8371799e-001
-8.2131267e-001
-8.1373906e-001
-7.9654509e-001
-8.0273670e-001
-8.2459503e-001
-8.9389700e-001
-9.6987301e-001
-1.0341148e+000
-1.0764198e+000
-1.0750514e+000
-1.0751814e+000
-1.0985520e+000
-1.1418253e+000
-1.1998817e+000
-1.1892464e+000
-1.0797371e+000
-8.4912169e-001
-5.1904094e-001
-2.4431920e-001
-4.7496516e-002
-8.9056063e-003
-7.7189416e-002
-2.0411712e-001
-3.5380498e-001
-5.4552966e-001
-7.5938398e-001
-9.5498431e-001
-1.1426228e+000
-1.1765473e+000
-1.1429714e+000
-1.0002438e+000
-8.2546067e-001
-7.2967792e-001
-7.0032066e-001
-8.3581972e-001
-1.0426763e+000
-1.2818574e+000
-1.5019726e+000
-1.6455269e+000
-1.7066500e+000
-1.6541903e+000
-1.4840646e+000
-1.1872268e+000
-8.9098173e-001
-6.5695816e-001
-6.2572736e-001
-8.0067515e-001
-1.0846585e+000
-1.4141911e+000
-1.6826028e+000
-1.8906778e+000
-1.9607991e+000
-1.9413952e+000
-1.7871560e+000
-1.5562322e+000
-1.3779057e+000
-1.2320917e+000
-1.2705646e+000
-1.4004153e+000
-1.5387757e+000
-1.6607081e+000
-1.6443143e+000
-1.5219315e+000
-1.2510192e+000
-9.4813740e-001
-7.5597006e-001
-7.2396463e-001
-9.3346995e-001
-1.2468867e+000
-1.5642772e+000
-1.7958497e+000
-1.8957622e+000
-1.8787234e+000
-1.7759914e+000
-1.5867050e+000
-1.3350180e+000
-1.0805416e+000
-8.3345550e-001
-6.6627359e-001
-5.6028211e-001
-4.5291448e-001
-3.4372839e-001
-2.5038308e-001
-1.7576580e-001
-1.6619444e-001
-1.9288664e-001
-1.5657312e-001
-6.9531336e-002
1.4436591e-001
4.2875513e-001
7.2781730e-001
9.5967865e-001
9.2771667e-001
7.2786641e-001
4.1460103e-001
1.4065588e-001
6.4788379e-002
2.6309559e-002
-7.7401444e-002
-1.5483329e-001
-1.5890172e-001
5.2493438e-002
5.0343573e-001
1.0391631e+000
1.5816679e+000
1.7871412e+000
1.6571567e+000
1.3808169e+000
1.0433472e+000
1.0030560e+000
1.2070496e+000
1.3752594e+000
1.4803696e+000
1.1584357e+000
5.5932528e-001
8.9447469e-002
-2.0159362e-001
1.0481188e-001
9.5184058e-001
2.2644386e+000
3.6947699e+000
4.7161880e+000
5.4587374e+000
6.0911899e+000
6.9350944e+000
8.3085566e+000
1.0416844e+001
1.3324537e+001
1.6863245e+001
2.0799715e+001
2.4373699e+001
2.7323257e+001
2.9958513e+001
3.2476418e+001
3.5719135e+001
3.9723797e+001
4.4327370e+001
4.9339283e+001
5.3657734e+001
5.7344128e+001
6.1100498e+001
6.4986572e+001
6.9338852e+001
7.4004829e+001
7.8399101e+001
8.2540237e+001
8.6454727e+001
9.0140213e+001
9.3596748e+001
9.6758484e+001
9.9533760e+001
1.0170900e+002
1.0305010e+002
1.0317457e+002
1.0178964e+002
9.9465736e+001
9.6782288e+001
9.3871216e+001
9.0863388e+001
8.7228683e+001
8.2809837e+001
7.8113281e+001
7.3345573e+001
6.8935402e+001
6.4943825e+001
6.0857121e+001
5.6612961e+001
5.2314430e+001
4.7988178e+001
4.3873257e+001
3.9997269e+001
3.6560890e+001
3.3579983e+001
3.1067623e+001
2.8999207e+001
2.7214478e+001
2.5724974e+001
2.4498491e+001
2.3544775e+001
2.2840000e+001
2.2372545e+001
2.2089525e+001
2.1961308e+001
2.1934391e+001
2.2028278e+001
2.2251125e+001
2.2664440e+001
2.3295862e+001
2.4203651e+001
2.5394314e+001
2.6781240e+001
2.8312809e+001
2.9815109e+001
3.1244720e+001
3.2597836e+001
3.3881741e+001
3.5372559e+001
3.7154007e+001
3.9609299e+001
4.2717415e+001
4.5554901e+001
4.7963322e+001
4.9644707e+001
5.0693810e+001
5.1759785e+001
5.2815022e+001
5.3792587e+001
5.4357578e+001
5.3958092e+001
5.2698971e+001
5.0872654e+001
4.8843395e+001
4.7078030e+001
4.5532135e+001
4.4159050e+001
4.2810684e+001
4.1378536e+001
3.9732925e+001
3.7765881e+001
3.5690441e+001
3.3571045e+001
3.1496040e+001
2.9525839e+001
2.7179707e+001
2.4335394e+001
2.1406296e+001
1.8424116e+001
1.5953265e+001
1.4058880e+001
1.2247857e+001
1.0526043e+001
8.7969389e+000
7.0939732e+000
5.4728093e+000
3.9583120e+000
2.5612280e+000
1.3591731e+000
4.7506180e-001
-5.0596371e-003
1.1714563e-002
5.5983758e-001
1.5425115e+000
2.6063728e+000
3.4806855e+000
4.1614537e+000
4.6512709e+000
5.1924081e+000
5.9172950e+000
6.7035508e+000
7.5215802e+000
8.0323753e+000
8.0336866e+000
7.8481975e+000
7.4118285e+000
6.9767179e+000
6.5472503e+000
6.1226993e+000
5.7249560e+000
5.3920689e+000
5.1410899e+000
4.8863540e+000
4.6198750e+000
4.3035135e+000
3.9714522e+000
3.7485366e+000
3.6667304e+000
3.7629774e+000
3.9976690e+000
4.2828112e+000
4.5526114e+000
4.7220249e+000
4.8402247e+000
4.9694324e+000
5.1485829e+000
5.4307327e+000
5.7688332e+000
6.1533823e+000
6.5435519e+000
6.9231615e+000
7.2355642e+000
7.4135795e+000
7.4915104e+000
7.3778696e+000
7.1908665e+000
6.8793249e+000
6.4860497e+000
5.9901915e+000
5.4904566e+000
5.0137634e+000
4.6202798e+000
4.3257051e+000
4.0547619e+000
3.7855458e+000
3.4675241e+000
3.0886106e+000
2.6622047e+000
2.1950066e+000
1.6809891e+000
1.1716993e+000
7.2381884e-001
3.5666651e-001
1.4596048e-001
2.5218256e-002
1.4784358e-002
6.8677716e-002
2.0226440e-001
3.8735399e-001
6.6847372e-001
9.1125214e-001
1.0535514e+000
1.0902653e+000
9.1553777e-001
7.4642360e-001
5.9936839e-001
5.4325742e-001
6.3571680e-001
8.0480826e-001
1.0783013e+000
1.3832527e+000
1.7107100e+000
1.9974188e+000
2.2197309e+000
2.3605180e+000
2.4181900e+000
2.4145594e+000
2.3681996e+000
2.2980571e+000
2.2255065e+000
2.1659973e+000
2.1222000e+000
2.1012201e+000
2.0966027e+000
2.1175609e+000
2.1490920e+000
2.1963449e+000
2.2364125e+000
2.2512324e+000
2.2592156e+000
2.2535636e+000
2.2703543e+000
2.3381081e+000
2.4382944e+000
2.5942299e+000
2.7569587e+000
2.9305158e+000
3.1230788e+000
3.3441892e+000
3.6117079e+000
3.9283731e+000
4.2695227e+000
4.6371355e+000
5.0338793e+000
5.4597135e+000
5.9258728e+000
6.4058752e+000
6.8602872e+000
7.2795811e+000
7.6099639e+000
7.8817887e+000
8.0430698e+000
8.1417532e+000
8.1049080e+000
8.0048923e+000
7.7443261e+000
7.4251070e+000
6.9495730e+000
6.4381404e+000
5.8440404e+000
5.2569041e+000
4.6873031e+000
4.1480818e+000
3.6619434e+000
3.2008142e+000
2.7752028e+000
2.3647473e+000
1.9711660e+000
1.5835527e+000
1.1985874e+000
8.0119663e-001
3.9315435e-001
-2.4746567e-002
-4.3797159e-001
-8.0803871e-001
-1.1365080e+000
-1.3717850e+000
-1.5528525e+000
-1.6369087e+000
-1.6800449e+000
-1.6441134e+000
-1.5776600e+000
-1.4301598e+000
-1.2594280e+000
-1.0187273e+000
-7.7614307e-001
-5.2997506e-001
-2.8436279e-001
-3.8376674e-002
2.2070509e-001
5.0058770e-001
7.4665302e-001
9.2442918e-001
1.0040884e+000
9.4702291e-001
8.1564379e-001
6.0840821e-001
4.0416503e-001
2.1365800e-001
8.6895950e-002
1.8914081e-002
3.9856315e-002
1.2607542e-001
3.5466123e-001
6.5463531e-001
1.0445466e+000
1.4554435e+000
1.8490098e+000
2.2240407e+000
2.5167120e+000
2.7772667e+000
2.9057758e+000
3.0179842e+000
3.0737309e+000
3.1624026e+000
3.3564334e+000
3.5757749e+000
3.8516400e+000
4.0913758e+000
4.2616196e+000
4.4270406e+000
4.5939856e+000
4.8272376e+000
5.1479478e+000
5.5241857e+000
5.9593449e+000
6.4357381e+000
6.9398975e+000
7.4171467e+000
7.8517537e+000
8.0938053e+000
8.2275143e+000
8.2029610e+000
8.1312351e+000
8.0936089e+000
8.0694675e+000
8.0911512e+000
8.1199121e+000
8.1576958e+000
8.2044907e+000
8.3060417e+000
8.4110823e+000
8.5300322e+000
8.6298571e+000
8.6684132e+000
8.6911497e+000
8.6764641e+000
8.6669149e+000
8.6652718e+000
8.6549034e+000
8.6305208e+000
8.5948896e+000
8.5463371e+000
8.4925852e+000
8.4288664e+000
8.3042383e+000
8.1322203e+000
7.8968058e+000
7.6273170e+000
7.3486342e+000
7.0612020e+000
6.7218742e+000
6.3560295e+000
5.8519268e+000
5.3125987e+000
4.6395998e+000
3.9588864e+000
3.3180232e+000
2.7069285e+000
2.2970498e+000
1.9106377e+000
1.6267715e+000
1.3315160e+000
9.9970639e-001
6.5031487e-001
2.6004291e-001
-1.4127544e-001
-5.5835050e-001
-9.3356395e-001
-1.2464920e+000
-1.4578847e+000
-1.5614715e+000
-1.6035267e+000
-1.5952457e+000
-1.5583035e+000
-1.5040137e+000
-1.4578600e+000
-1.4172679e+000
-1.4193684e+000
-1.4307584e+000
-1.3392869e+000
-1.2191033e+000
-9.3875515e-001
-6.4153355e-001
-3.9871049e-001
-1.6636959e-001
-5.3429145e-002
2.5422871e-003
7.9339132e-002
2.3856245e-001
4.4404840e-001
6.3261002e-001
7.7130705e-001
8.8142949e-001
9.3047643e-001
9.6900010e-001
9.9189973e-001
1.0639460e+000
1.1981037e+000
1.4420297e+000
1.7885528e+000
2.2056742e+000
2.6716874e+000
3.0976458e+000
3.5025871e+000
3.8105407e+000
4.0822525e+000
4.2152610e+000
4.3125834e+000
4.2620888e+000
4.1884613e+000
4.2314000e+000
