##TITLE=Methyl Ethyl Ketone
##JCAMP-DX=4.24
##DATA TYPE=INFRARED SPECTRUM
##XUNITS=cm-1
##YUNITS=Absorbance
##FIRSTX=900
##LASTX=2300
##XYDATA=(X++(Y..Y))
2296 0.030414
2294 0.031046096
2292 0.031679191
2290 0.032312285
2288 0.032944381
2286 0.033577468
2284 0.034209576
2282 0.034842659
2280 0.035475753
2278 0.036107861
2276 0.036740944
2274 0.037373055
2272 0.038006131
2270 0.038639225
2268 0.03927134
2266 0.039904416
2264 0.04053751
2262 0.041169625
2260 0.041802697
2258 0.042434819
2256 0.043067884
2254 0.043700978
2252 0.044333108
2250 0.044966169
2248 0.045599263
2246 0.046231393
2244 0.028506618
2242 0.0010731344
2240 -0.02603424
2238 -0.03444057
2236 -0.040043298
2234 -0.019972026
2232 0.0022468041
2230 0.031319071
2228 0.05946593
2226 0.077844597
2224 0.090742275
2222 0.081065357
2220 0.068106763
2218 0.048955046
2216 0.034774486
2214 0.032209232
2212 0.032141298
2210 0.035009459
2208 0.029576955
2206 0.013563279
2204 -0.01646545
2202 -0.059384465
2200 -0.10001539
2198 -0.13831601
2196 -0.15466785
2194 -0.15843652
2192 -0.15876108
2190 -0.1579289
2188 -0.16824214
2186 -0.18221271
2184 -0.1869456
2182 -0.18951051
2180 -0.17553098
2178 -0.15898505
2176 -0.13290344
2174 -0.10684659
2172 -0.090974197
2170 -0.080714889
2168 -0.096989371
2166 -0.11782406
2164 -0.14575589
2162 -0.17258634
2160 -0.19477715
2158 -0.21661325
2156 -0.23875
2154 -0.25368479
2152 -0.25815237
2150 -0.24473287
2148 -0.21239339
2146 -0.17633143
2144 -0.13871725
2142 -0.12597699
2140 -0.13059686
2138 -0.15952115
2136 -0.20073514
2134 -0.23732701
2132 -0.27157661
2130 -0.28157255
2128 -0.28392878
2126 -0.27824479
2124 -0.27078125
2122 -0.27996451
2120 -0.29182148
2118 -0.30428308
2116 -0.313627
2114 -0.29943189
2112 -0.28025499
2110 -0.25446057
2108 -0.23424365
2106 -0.23371701
2104 -0.2402008
2102 -0.25563475
2100 -0.2660096
2098 -0.26558569
2096 -0.25427714
2094 -0.23066208
2092 -0.20909271
2090 -0.19148172
2088 -0.19819097
2086 -0.22477299
2084 -0.2653631
2082 -0.31346557
2080 -0.34450778
2078 -0.36590523
2076 -0.37141159
2074 -0.37074772
2072 -0.37269878
2070 -0.37561733
2068 -0.38148284
2066 -0.38770309
2064 -0.39256606
2062 -0.39587021
2060 -0.38980341
2058 -0.3804937
2056 -0.36362258
2054 -0.35588765
2052 -0.38519242
2050 -0.4405261
2048 -0.54277438
2046 -0.64762354
2044 -0.73898524
2042 -0.79693997
2040 -0.80941868
2038 -0.79476196
2036 -0.75915825
2034 -0.72079509
2032 -0.68326199
2030 -0.65680861
2028 -0.63817471
2026 -0.63525975
2024 -0.64102417
2022 -0.65118891
2020 -0.6626271
2018 -0.66434097
2016 -0.66245604
2014 -0.64828455
2012 -0.63099754
2010 -0.61403245
2008 -0.59830832
2006 -0.59321922
2004 -0.59243512
2002 -0.59998351
2000 -0.61375183
1998 -0.64138013
1996 -0.67615217
1994 -0.71947581
1992 -0.75937301
1990 -0.79045957
1988 -0.81268519
1986 -0.8281067
1984 -0.83901471
1982 -0.84573364
1980 -0.8476572
1978 -0.84322608
1976 -0.83575261
1974 -0.82557011
1972 -0.80542356
1970 -0.77718776
1968 -0.74710542
1966 -0.71696389
1964 -0.72098005
1962 -0.74430567
1960 -0.7806564
1958 -0.82208312
1956 -0.84146959
1954 -0.85316604
1952 -0.85974634
1950 -0.8666842
1948 -0.87506735
1946 -0.88418001
1944 -0.89774358
1942 -0.90877479
1940 -0.92071551
1938 -0.92879528
1936 -0.92950171
1934 -0.93435264
1932 -0.94673461
1930 -0.97415078
1928 -1.0167876
1926 -1.0574722
1924 -1.0867181
1922 -1.0834132
1920 -1.0511743
1918 -1.0017837
1916 -0.94840413
1914 -0.895625
1912 -0.84356916
1910 -0.79435873
1908 -0.74534088
1906 -0.73809236
1904 -0.75460559
1902 -0.78628063
1900 -0.82526439
1898 -0.81475353
1896 -0.7842871
1894 -0.73983449
1892 -0.69242972
1890 -0.6692633
1888 -0.65635616
1886 -0.65610552
1884 -0.66052634
1882 -0.66666776
1880 -0.67529875
1878 -0.68421751
1876 -0.69842899
1874 -0.71343154
1872 -0.72519159
1870 -0.72651374
1868 -0.70624697
1866 -0.6735509
1864 -0.64399475
1862 -0.63097078
1860 -0.6411497
1858 -0.66451448
1856 -0.69231004
1854 -0.71687013
1852 -0.74639678
1850 -0.77558744
1848 -0.81240964
1846 -0.8488614
1844 -0.8594805
1842 -0.85186386
1840 -0.81256962
1838 -0.76207083
1836 -0.71491688
1834 -0.6735999
1832 -0.62719113
1830 -0.57048142
1828 -0.49334174
1826 -0.4083983
1824 -0.34694648
1822 -0.31706694
1820 -0.33223578
1818 -0.37121269
1816 -0.41007829
1814 -0.43884632
1812 -0.44811019
1810 -0.43924069
1808 -0.41894537
1806 -0.39103851
1804 -0.35988325
1802 -0.36134338
1800 -0.38907301
1798 -0.44234058
1796 -0.51001215
1794 -0.50539619
1792 -0.45338601
1790 -0.33911684
1788 -0.19637248
1786 -0.095672764
1784 -0.02610649
1782 0.015335461
1780 0.038612965
1778 0.064209603
1776 0.090935059
1774 0.11914004
1772 0.15031917
1770 0.16302921
1768 0.16600372
1766 0.15335657
1764 0.1287574
1762 0.10926843
1760 0.039541487
1758 -0.10873514
1756 -0.26080015
1754 -0.37393838
1752 -0.43647325
1750 -0.4474206
1748 -0.44788802
1746 -0.45857394
1744 -0.50680315
1742 -0.59924835
1740 -0.68506008
1738 -0.75383735
1736 -0.70945001
1734 -0.57261962
1732 -0.37663251
1730 -0.15393744
1728 -0.056890082
1726 -0.055640522
1724 -0.077230722
1722 -0.095190242
1720 0.02014336
1718 0.2857064
1716 0.77989984
1714 1.4216993
1712 2.0714834
1710 2.6996019
1708 3.292408
1706 3.9942122
1704 4.9571509
1702 6.4714451
1700 8.6849051
1698 11.848375
1696 15.924429
1694 20.091419
1692 23.970591
1690 27.390097
1688 30.413067
1686 33.948399
1684 38.099213
1682 43.124352
1680 48.839119
1678 53.902222
1676 58.337429
1674 62.637783
1672 66.929138
1670 71.974503
1668 77.577209
1666 83.085205
1664 88.396347
1662 93.173752
1660 97.422981
1658 101.13014
1656 104.20628
1654 106.5233
1652 107.8004
1650 107.75684
1648 106.35646
1646 103.65071
1644 100.3422
1642 97.068619
1640 93.621414
1638 89.921951
1636 85.474243
1634 80.155708
1632 74.742653
1630 69.506516
1628 64.703857
1626 60.341942
1624 55.99176
1622 51.58762
1620 47.360229
1618 43.320797
1616 39.594086
1614 36.193878
1612 33.227219
1610 30.70093
1608 28.583097
1606 26.854086
1604 25.379629
1602 24.175688
1600 23.227274
1598 22.541651
1596 22.0895
1594 21.850241
1592 21.764509
1590 21.805632
1588 21.925615
1586 22.107006
1584 22.335857
1582 22.606079
1580 22.916227
1578 23.335392
1576 23.886543
1574 24.618624
1572 25.529335
1570 26.542719
1568 27.6346
1566 28.743349
1564 29.867308
1562 31.164289
1560 32.725727
1558 35.131989
1556 38.467999
1554 42.222569
1552 46.17664
1550 49.34726
1548 51.726994
1546 53.728355
1544 55.335712
1542 56.641109
1540 57.548203
1538 57.923756
1536 57.744801
1534 57.082352
1532 56.006504
1530 54.688942
1528 53.137348
1526 51.36845
1524 49.334705
1522 46.990993
1520 44.443127
1518 41.696667
1516 39.126057
1514 36.877148
1512 34.738842
1510 32.713718
1508 30.240534
1506 27.180893
1504 24.145891
1502 21.186176
1500 18.683142
1498 16.68256
1496 14.688571
1494 12.703423
1492 10.699972
1490 8.700902
1488 6.7517715
1486 4.9149752
1484 3.2844481
1482 1.92769
1480 0.92183602
1478 0.28933579
1476 0.055745315
1474 0.34567219
1472 1.1267508
1470 2.133527
1468 3.1997702
1466 4.1215463
1464 4.7784324
1462 5.3053899
1460 5.742497
1458 6.1637392
1456 6.5775599
1454 6.9089522
1452 7.0904245
1450 7.1476121
1448 7.0208702
1446 6.8491392
1444 6.6184745
1442 6.3724127
1440 6.1011343
1438 5.7664914
1436 5.3477798
1434 4.8183007
1432 4.1992774
1430 3.607461
1428 3.0743439
1426 2.6766794
1424 2.4115646
1422 2.2518246
1420 2.1943047
1418 2.2089801
1416 2.2942944
1414 2.4471791
1412 2.6379666
1410 2.8785582
1408 3.1494582
1406 3.4584215
1404 3.7971463
1402 4.1629777
1400 4.5376439
1398 4.9142423
1396 5.2827144
1394 5.6267624
1392 5.9354711
1390 6.156136
1388 6.2741842
1386 6.2180552
1384 6.0304255
1382 5.66359
1380 5.2302084
1378 4.7265878
1376 4.2171831
1374 3.7233725
1372 3.2642698
1370 2.8488429
1368 2.4831412
1366 2.128983
1364 1.7345052
1362 1.3073163
1360 0.84565842
1358 0.4258579
1356 0.14580436
1354 -0.021343559
1352 -0.026663279
1350 0.037130713
1348 0.15465374
1346 0.28621322
1344 0.43384638
1342 0.59751487
1340 0.7962544
1338 1.0052806
1336 1.22526
1334 1.4357293
1332 1.6035234
1330 1.760462
1328 1.9015726
1326 2.0620294
1324 2.2669268
1322 2.5089078
1320 2.8027761
1318 3.1012864
1316 3.3984599
1314 3.6630192
1312 3.8885727
1310 4.0910215
1308 4.2622375
1306 4.408833
1304 4.5213971
1302 4.5772209
1300 4.590919
1298 4.5461416
1296 4.4794855
1294 4.3971777
1292 4.3187952
1290 4.2568803
1288 4.2030239
1286 4.1622472
1284 4.1283584
1282 4.1072512
1280 4.0939131
1278 4.0960727
1276 4.0991883
1274 4.1078677
1272 4.1184311
1270 4.1388884
1268 4.178587
1266 4.2482214
1264 4.3478189
1262 4.4801784
1260 4.6239181
1258 4.7733693
1256 4.9047141
1254 5.0163698
1252 5.107007
1250 5.1831069
1248 5.255177
1246 5.3274498
1244 5.4030638
1242 5.475934
1240 5.5322542
1238 5.5642114
1236 5.532093
1234 5.4566331
1232 5.2806158
1230 5.0611453
1228 4.7339048
1226 4.370873
1224 3.9130042
1222 3.4331968
1220 2.9031298
1218 2.3824799
1216 1.8849372
1214 1.423825
1212 1.0274332
1210 0.66750997
1208 0.36220157
1206 0.092315786
1204 -0.13030459
1202 -0.30708441
1200 -0.43444011
1198 -0.52219599
1196 -0.57775998
1194 -0.61804265
1192 -0.64722776
1190 -0.66626287
1188 -0.67378259
1186 -0.65251452
1184 -0.60970974
1182 -0.5174216
1180 -0.39214647
1178 -0.17675941
1176 0.07556057
1174 0.4284507
1172 0.7840755
1170 1.1238725
1168 1.419008
1166 1.573115
1164 1.6762629
1162 1.6545351
1160 1.6117297
1158 1.5276817
1156 1.4364829
1154 1.3302854
1152 1.1998783
1150 1.0351224
1148 0.84661841
1146 0.63641536
1144 0.4407084
1142 0.26426348
1140 0.1295362
1138 0.030135766
1136 -0.027935628
1134 -0.051539686
1132 0.019643813
1130 0.14252727
1128 0.3474201
1126 0.57032543
1124 0.77142221
1122 0.95235521
1120 1.046756
1118 1.1224495
1116 1.1408186
1114 1.157689
1112 1.1738646
1110 1.2089144
1108 1.3053663
1106 1.4240451
1104 1.5922954
1102 1.7280886
1100 1.7936625
1098 1.7938157
1096 1.6941
1094 1.5879347
1092 1.481246
1090 1.4285753
1088 1.4333681
1086 1.4787822
1084 1.5540985
1082 1.6218762
1080 1.6808274
1078 1.706165
1076 1.7084857
1074 1.6527388
1072 1.5689092
1070 1.4224024
1068 1.2601352
1066 1.0862613
1064 0.91699117
1062 0.79372489
1060 0.68463075
1058 0.65211892
1056 0.62780946
1054 0.6387682
1052 0.64468473
1050 0.63435411
1048 0.61507243
1046 0.5732975
1044 0.5202322
1042 0.44568619
1040 0.3697257
1038 0.29261887
1036 0.228496
1034 0.1787504
1032 0.12426551
1030 0.063819595
1028 -0.020174004
1026 -0.120776
1024 -0.22912949
1022 -0.34099942
1020 -0.4452548
1018 -0.54576963
1016 -0.63426745
1014 -0.71795535
1012 -0.78444558
1010 -0.84929395
1008 -0.92989683
1006 -1.0143279
1004 -1.1289326
1002 -1.2397373
1000 -1.3226269
998 -1.3924471
996 -1.4043572
994 -1.398237
992 -1.3362445
990 -1.2551407
988 -1.1305821
986 -1.0021565
984 -0.86761558
982 -0.75382739
980 -0.66970158
978 -0.62838453
976 -0.63401341
974 -0.68550843
972 -0.77361774
970 -0.86413491
968 -0.95322984
966 -0.99640101
964 -1.0161427
962 -0.98331016
960 -0.9311713
958 -0.82032043
956 -0.69508868
954 -0.52216089
952 -0.3449536
950 -0.20092201
948 -0.064728498
946 -0.021333857
944 0.00013823994
942 0.003509243
940 -0.010073777
938 0.047974333
936 0.13158086
934 0.29041898
932 0.45438284
930 0.6286304
928 0.77736568
926 0.88476771
924 0.95695621
922 0.98650855
920 1.0045217
918 1.0115613
916 1.0154201
914 1.0162516
912 0.97339487
910 0.90769374
908 0.78306001
906 0.63763273
904 0.51922977
902 0.40949872
900 0.39526442
898 0.39691946
896 0.48041001
