Image.
>Pix99999.
  .
5555
5555
2300
900
5555
2
1
0
701
5555
3.6417998e-002
3.7175916e-002
3.7932836e-002
3.8690750e-002
3.9448664e-002
4.0205587e-002
4.0963497e-002
4.1721411e-002
4.2478338e-002
4.3236241e-002
4.3994155e-002
4.4752073e-002
4.5509007e-002
4.6266902e-002
4.7024820e-002
4.7781758e-002
4.8539650e-002
4.9297567e-002
5.0055481e-002
5.0812427e-002
5.1570315e-002
5.2328233e-002
5.3085178e-002
5.3843062e-002
5.4600980e-002
5.5357929e-002
2.0571572e-003
2.3752093e-002
2.2194600e-002
3.2052435e-002
4.3750484e-002
-1.0739667e-002
-7.0361920e-002
-1.3795127e-001
-2.0146154e-001
-2.2942050e-001
-2.5542131e-001
-2.8073218e-001
-3.0260146e-001
-3.1412938e-001
-3.2429114e-001
-3.3273092e-001
-3.7411001e-001
-4.6940392e-001
-5.8242613e-001
-7.1342307e-001
-7.8491950e-001
-7.9795092e-001
-7.4554372e-001
-6.4709622e-001
-5.6054074e-001
-4.8260424e-001
-4.7113729e-001
-4.8858264e-001
-5.5245358e-001
-6.3080382e-001
-7.1548843e-001
-8.0141741e-001
-8.9919049e-001
-9.9869585e-001
-1.0950543e+000
-1.1842705e+000
-1.1965572e+000
-1.1866261e+000
-1.0918354e+000
-9.9007100e-001
-8.9309174e-001
-8.1838310e-001
-7.9946810e-001
-7.9494387e-001
-8.0695599e-001
-7.9889500e-001
-7.5929773e-001
-6.9932783e-001
-6.2011880e-001
-5.8532357e-001
-5.9158456e-001
-6.6704500e-001
-7.8765690e-001
-8.7747186e-001
-9.4799513e-001
-9.3273473e-001
-8.8212401e-001
-8.3924836e-001
-7.9987800e-001
-8.3878350e-001
-8.9585096e-001
-9.8642057e-001
-1.0792538e+000
-1.1169984e+000
-1.1338714e+000
-1.0534980e+000
-9.5168501e-001
-8.1694812e-001
-6.9760221e-001
-6.3928294e-001
-6.1294138e-001
-6.3729095e-001
-6.7457062e-001
-7.2097689e-001
-7.7837139e-001
-8.4840429e-001
-9.1757339e-001
-9.8393124e-001
-1.0358382e+000
-1.0760100e+000
-1.1335628e+000
-1.2035401e+000
-1.2735308e+000
-1.3425556e+000
-1.3339143e+000
-1.2929406e+000
-1.2013960e+000
-1.0946505e+000
-1.0507463e+000
-1.0241221e+000
-1.0775491e+000
-1.1459675e+000
-1.2078676e+000
-1.2586869e+000
-1.2558143e+000
-1.2377843e+000
-1.2037008e+000
-1.1762631e+000
-1.1737750e+000
-1.1745286e+000
-1.1718941e+000
-1.1571387e+000
-1.1249098e+000
-1.1076326e+000
-1.1123657e+000
-1.1231040e+000
-1.1357486e+000
-1.1037750e+000
-1.0365126e+000
-9.6830845e-001
-9.0329474e-001
-8.9511532e-001
-9.1625947e-001
-9.6577346e-001
-1.0256040e+000
-1.0802840e+000
-1.1329297e+000
-1.1545808e+000
-1.1657400e+000
-1.1395156e+000
-1.1036876e+000
-1.0673651e+000
-1.0341502e+000
-1.0148631e+000
-9.9561286e-001
-9.6561819e-001
-9.3101907e-001
-8.9200562e-001
-8.6627281e-001
-8.6550742e-001
-8.8188976e-001
-9.1389871e-001
-9.5186263e-001
-9.9251896e-001
-1.0474914e+000
-1.1150540e+000
-1.1924551e+000
-1.2754166e+000
-1.3165932e+000
-1.3305372e+000
-1.2700168e+000
-1.1723775e+000
-1.0814760e+000
-9.9557388e-001
-1.0110939e+000
-1.0641131e+000
-1.1545880e+000
-1.2507697e+000
-1.2912326e+000
-1.3039501e+000
-1.2629577e+000
-1.2026749e+000
-1.1332848e+000
-1.0784299e+000
-1.0688715e+000
-1.0880650e+000
-1.1380600e+000
-1.1900331e+000
-1.2310115e+000
-1.2687365e+000
-1.3061622e+000
-1.3454876e+000
-1.3867737e+000
-1.3975620e+000
-1.3802786e+000
-1.3395061e+000
-1.2854520e+000
-1.2487508e+000
-1.2248694e+000
-1.2118021e+000
-1.2034841e+000
-1.2015156e+000
-1.2022454e+000
-1.1881857e+000
-1.1643571e+000
-1.0855291e+000
-9.8762023e-001
-9.0530628e-001
-8.5171193e-001
-8.9532608e-001
-9.8159087e-001
-1.0872434e+000
-1.1776720e+000
-1.2163897e+000
-1.2324001e+000
-1.2397436e+000
-1.2387297e+000
-1.2295601e+000
-1.1858008e+000
-1.1016550e+000
-1.0003259e+000
-8.9277780e-001
-7.9524601e-001
-7.0826900e-001
-6.7969233e-001
-6.9452649e-001
-8.5754240e-001
-1.1143532e+000
-1.4753200e+000
-1.8891250e+000
-2.0900569e+000
-2.1695757e+000
-1.9576114e+000
-1.6112242e+000
-1.2799200e+000
-9.7237420e-001
-7.5274944e-001
-5.9949666e-001
-5.4337031e-001
-5.4852104e-001
-6.0551465e-001
-6.5846670e-001
-6.5753978e-001
-6.2757319e-001
-5.8397281e-001
-5.6094301e-001
-5.7485354e-001
-5.8622891e-001
-5.7928061e-001
-5.2824348e-001
-4.3661195e-001
-4.2179334e-001
-4.8721257e-001
-6.6153103e-001
-9.0901428e-001
-1.0130043e+000
-1.0058455e+000
-8.3334482e-001
-5.6504703e-001
-3.5669836e-001
-1.9236784e-001
-1.1424786e-001
-9.5952742e-002
-1.5782771e-001
-2.5638342e-001
-3.2914415e-001
-3.3540049e-001
-1.7397313e-001
4.3959282e-002
2.0135328e-001
2.7270019e-001
2.2787067e-001
7.3454976e-002
-1.8118626e-001
-4.1868129e-001
-5.7672882e-001
-7.4098241e-001
-9.4706523e-001
-1.2265518e+000
-1.5709037e+000
-1.9021646e+000
-2.2045915e+000
-2.3944032e+000
-2.4934621e+000
-2.4199800e+000
-2.2246950e+000
-1.8656213e+000
-1.4028885e+000
-1.0071812e+000
-6.6885835e-001
-4.2937165e-001
-2.3793851e-001
9.5027596e-002
6.4802653e-001
1.4723159e+000
2.3867300e+000
3.1960657e+000
3.8905892e+000
4.4509258e+000
5.0526495e+000
5.8585091e+000
7.1548920e+000
9.0986395e+000
1.2106441e+001
1.6250286e+001
2.0778400e+001
2.5283413e+001
2.9317488e+001
3.2833035e+001
3.6604771e+001
4.0763264e+001
4.5582714e+001
5.0945160e+001
5.5748913e+001
6.0022858e+001
6.4232330e+001
6.8467003e+001
7.3329361e+001
7.8643883e+001
8.3833954e+001
8.8831429e+001
9.3374619e+001
9.7447655e+001
1.0097536e+002
1.0391743e+002
1.0619872e+002
1.0769100e+002
1.0829002e+002
1.0773228e+002
1.0590357e+002
1.0324126e+002
1.0018207e+002
9.6828224e+001
9.3278809e+001
8.9173637e+001
8.4433235e+001
7.9527527e+001
7.4639725e+001
6.9891647e+001
6.5291771e+001
6.0455360e+001
5.5356247e+001
5.0450222e+001
4.5773319e+001
4.1577599e+001
3.7874611e+001
3.4698730e+001
3.2048241e+001
2.9821239e+001
2.7986794e+001
2.6380760e+001
2.5020496e+001
2.3900755e+001
2.3039909e+001
2.2424999e+001
2.2057383e+001
2.1903114e+001
2.1939016e+001
2.2117596e+001
2.2406614e+001
2.2768148e+001
2.3180149e+001
2.3623812e+001
2.4169720e+001
2.4843885e+001
2.5695192e+001
2.6733072e+001
2.7878750e+001
2.9112080e+001
3.0321842e+001
3.1493689e+001
3.2684517e+001
3.3960335e+001
3.5946186e+001
3.8712627e+001
4.1921749e+001
4.5368198e+001
4.8038357e+001
4.9887810e+001
5.1176426e+001
5.1880775e+001
5.2153080e+001
5.1969181e+001
5.1403225e+001
5.0527401e+001
4.9489864e+001
4.8330494e+001
4.7102947e+001
4.5763393e+001
4.4280998e+001
4.2587994e+001
4.0642090e+001
3.8618538e+001
3.6594879e+001
3.4752014e+001
3.3167110e+001
3.1477560e+001
2.9591961e+001
2.7164360e+001
2.4061237e+001
2.1044662e+001
1.8203882e+001
1.5877392e+001
1.4128090e+001
1.2437714e+001
1.0815915e+001
9.2346048e+000
7.7055440e+000
6.2283273e+000
4.8201365e+000
3.4888561e+000
2.3052793e+000
1.3521882e+000
6.6011012e-001
2.3355515e-001
1.5196185e-001
5.0241590e-001
1.1207234e+000
1.8681283e+000
2.5432222e+000
3.0080967e+000
3.3331699e+000
3.5176709e+000
3.7519584e+000
4.1094799e+000
4.5988255e+000
5.2670240e+000
5.8062782e+000
6.1323814e+000
6.3031464e+000
6.2547216e+000
6.1149678e+000
5.8434424e+000
5.4610801e+000
4.9465470e+000
4.3768973e+000
3.7917280e+000
3.3249860e+000
2.9949920e+000
2.7775328e+000
2.6653869e+000
2.6189699e+000
2.6774051e+000
2.8914979e+000
3.2416229e+000
3.7205510e+000
4.2210569e+000
4.6565847e+000
5.0369210e+000
5.3479733e+000
5.6270308e+000
5.8757329e+000
6.0741000e+000
6.1879182e+000
6.2588930e+000
6.2638297e+000
6.2664938e+000
6.2596312e+000
6.2000976e+000
6.0513048e+000
5.8204679e+000
5.4720783e+000
5.0593362e+000
4.5644732e+000
4.0269485e+000
3.4703643e+000
2.9871421e+000
2.6039310e+000
2.3410153e+000
2.1453235e+000
1.9043452e+000
1.6064047e+000
1.2284124e+000
8.4443891e-001
5.3833258e-001
3.0181348e-001
1.6188875e-001
5.7617478e-002
-1.0274284e-002
-3.5323679e-002
-4.5438480e-002
-3.5208270e-002
1.7025512e-002
1.1142231e-001
2.9024059e-001
4.9791682e-001
7.5373924e-001
9.9146867e-001
1.1990771e+000
1.3913207e+000
1.5654229e+000
1.7483358e+000
1.9441829e+000
2.1533775e+000
2.3785000e+000
2.6152575e+000
2.8589010e+000
3.0937960e+000
3.3114438e+000
3.4932773e+000
3.6478305e+000
3.7788191e+000
3.8941476e+000
3.9935777e+000
4.0764284e+000
4.1282077e+000
4.1703548e+000
4.2058377e+000
4.2459321e+000
4.3006444e+000
4.3577223e+000
4.4183908e+000
4.4799447e+000
4.5441360e+000
4.6140771e+000
4.6983690e+000
4.8067384e+000
4.9599223e+000
5.1514359e+000
5.3985314e+000
5.6683745e+000
5.9649944e+000
6.2680702e+000
6.5826354e+000
6.9186201e+000
7.2808633e+000
7.6797595e+000
8.1069441e+000
8.5538530e+000
9.0069504e+000
9.4482508e+000
9.8689375e+000
1.0235737e+001
1.0557453e+001
1.0777815e+001
1.0936277e+001
1.0957920e+001
1.0917002e+001
1.0717200e+001
1.0466486e+001
1.0079309e+001
9.6515484e+000
9.1260824e+000
8.5679550e+000
7.9466343e+000
7.3208141e+000
6.6933274e+000
6.0961585e+000
5.5424566e+000
5.0083742e+000
4.4938359e+000
3.9713914e+000
3.4484503e+000
2.9550886e+000
2.4988070e+000
2.1114767e+000
1.7649875e+000
1.4257350e+000
1.0886290e+000
7.4703228e-001
4.3098450e-001
2.2534305e-001
8.1204914e-002
8.5607752e-002
1.3525800e-001
2.8599960e-001
4.4868854e-001
6.3259149e-001
7.7853322e-001
8.0546486e-001
7.8404152e-001
6.4942849e-001
5.3467673e-001
4.6545857e-001
4.4489202e-001
4.9619827e-001
5.2159309e-001
5.0260937e-001
4.1691542e-001
2.6456249e-001
1.2280617e-001
7.2498266e-003
-1.3528435e-002
4.2773686e-002
1.8360943e-001
3.9794582e-001
6.9467783e-001
1.0203073e+000
1.3320063e+000
1.6250322e+000
1.8395180e+000
2.0397921e+000
2.2382760e+000
2.4443307e+000
2.6909213e+000
2.9251688e+000
3.1042829e+000
3.2642467e+000
3.3648365e+000
3.4686999e+000
3.5821445e+000
3.7092719e+000
3.8659644e+000
4.0503097e+000
4.2807283e+000
4.5414176e+000
4.8382740e+000
5.1313996e+000
5.4208522e+000
5.7086639e+000
5.9960113e+000
6.2880192e+000
6.5729537e+000
6.7882848e+000
6.9564500e+000
7.0104361e+000
7.0179472e+000
6.9590278e+000
6.8857265e+000
6.8152637e+000
6.7519398e+000
6.7393141e+000
6.7305236e+000
6.7295661e+000
6.7084770e+000
6.5965128e+000
6.4400945e+000
6.1410646e+000
5.8152466e+000
5.4311786e+000
5.1053061e+000
4.8929672e+000
4.7498741e+000
4.7009063e+000
4.6010699e+000
4.4346499e+000
4.1739535e+000
3.8299351e+000
3.4837790e+000
3.1439207e+000
2.8837955e+000
2.6670990e+000
2.4691918e+000
2.2685866e+000
1.9609228e+000
1.6201297e+000
1.2311535e+000
8.4204876e-001
5.4322237e-001
2.5710925e-001
3.1818405e-002
-1.9272035e-001
-4.1511095e-001
-6.3046616e-001
-8.1397712e-001
-9.7964668e-001
-1.0885286e+000
-1.1686736e+000
-1.1810828e+000
-1.1601343e+000
-1.0802363e+000
-9.8060000e-001
-8.5529959e-001
-7.3868424e-001
-6.3286716e-001
-5.5918175e-001
-5.1094860e-001
-4.6177772e-001
-4.1113290e-001
-3.4320900e-001
-2.6738366e-001
-1.8929854e-001
-1.0842773e-001
1.5465111e-002
1.4665371e-001
2.3552586e-001
3.1265160e-001
2.3005909e-001
1.4146441e-001
5.9531141e-002
1.6035773e-003
5.0746687e-002
1.7581289e-001
4.3086469e-001
6.6851258e-001
8.5378003e-001
9.8385578e-001
9.9640405e-001
1.0046320e+000
1.0072601e+000
1.0673981e+000
1.1979407e+000
1.3729097e+000
1.5884647e+000
1.7701557e+000
1.9266305e+000
1.9905714e+000
2.0050519e+000
1.9701371e+000
1.9159878e+000
1.8303628e+000
1.7365130e+000
1.6463439e+000
1.5571522e+000
1.6635000e+000
