##TITLE=Methyl Ethyl Ketone
##JCAMP-DX=4.24
##DATA TYPE=INFRARED SPECTRUM
##XUNITS=cm-1
##YUNITS=Absorbance
##FIRSTX=900
##LASTX=2300
##XYDATA=(X++(Y..Y))
2296 0.050942998
2294 0.052002482
2292 0.053062964
2290 0.054122452
2288 0.055181939
2286 0.056242414
2284 0.057301905
2282 0.058361389
2280 0.059421863
2278 0.060480371
2276 0.061540827
2274 0.06260328
2272 0.063660845
2270 0.064713426
2268 0.065779641
2266 0.066867642
2264 0.067900389
2262 0.068857759
2260 0.070017017
2258 0.071459584
2256 0.072150826
2254 0.071782976
2252 0.074212767
2250 0.080587134
2248 0.076565377
2246 0.051263534
2244 0.025019448
2242 0.019755028
2240 0.02849276
2238 0.035983309
2236 0.026759772
2234 -0.0036501465
2232 -0.01542547
2230 0.031535957
2228 0.12710117
2226 0.24108151
2224 0.32178614
2222 0.32401255
2220 0.25372854
2218 0.13689563
2216 0.018952684
2214 -0.058830313
2212 -0.094743758
2210 -0.10044821
2208 -0.09322191
2206 -0.086762369
2204 -0.07395409
2202 -0.045058973
2200 -0.0056325686
2198 0.032626573
2196 0.052717142
2194 0.040835015
2192 0.0025664375
2190 -0.050551493
2188 -0.10772413
2186 -0.15981629
2184 -0.20294321
2182 -0.23616602
2180 -0.26352701
2178 -0.2904385
2176 -0.321318
2174 -0.35657987
2172 -0.38173744
2170 -0.3795757
2168 -0.34173501
2166 -0.26877314
2164 -0.18536547
2162 -0.12215006
2160 -0.1015112
2158 -0.13509375
2156 -0.202921
2154 -0.2745654
2152 -0.32058862
2150 -0.31933326
2148 -0.27840033
2146 -0.21662214
2144 -0.15740858
2142 -0.1221139
2140 -0.11839783
2138 -0.14712344
2136 -0.20128343
2134 -0.27022171
2132 -0.33925417
2130 -0.39487424
2128 -0.43398842
2126 -0.45864835
2124 -0.47637773
2122 -0.49277917
2120 -0.49779132
2118 -0.47951469
2116 -0.44251671
2114 -0.3996585
2112 -0.37205252
2110 -0.37709793
2108 -0.4048622
2106 -0.43566778
2104 -0.4524577
2102 -0.44398502
2100 -0.41726542
2098 -0.38610205
2096 -0.36352855
2094 -0.35916653
2092 -0.37090001
2090 -0.39167729
2088 -0.41292626
2086 -0.4281995
2084 -0.44154963
2082 -0.45975584
2080 -0.4834846
2078 -0.5095607
2076 -0.52970111
2074 -0.53608096
2072 -0.53086519
2070 -0.52195966
2068 -0.52381694
2066 -0.54974198
2064 -0.59780085
2062 -0.65638137
2060 -0.70010948
2058 -0.70425081
2056 -0.6695711
2054 -0.61013532
2052 -0.55015081
2050 -0.51208752
2048 -0.49557337
2046 -0.49121177
2044 -0.49334303
2042 -0.50031942
2040 -0.51840973
2038 -0.55318606
2036 -0.59324372
2034 -0.62019104
2032 -0.61794138
2030 -0.57749999
2028 -0.51378524
2026 -0.45145479
2024 -0.41198981
2022 -0.40908405
2020 -0.43186983
2018 -0.45914304
2016 -0.47196198
2014 -0.45894858
2012 -0.43378076
2010 -0.41970447
2008 -0.43266085
2006 -0.48040327
2004 -0.5530591
2002 -0.6334644
2000 -0.70715362
1998 -0.7632221
1996 -0.79853499
1994 -0.81348693
1992 -0.80850726
1990 -0.78319561
1988 -0.73447418
1986 -0.6611563
1984 -0.57534808
1982 -0.4952831
1980 -0.43780041
1978 -0.41363516
1976 -0.41220486
1974 -0.41417128
1972 -0.40673593
1970 -0.38468745
1968 -0.35838795
1966 -0.34293744
1964 -0.34176829
1962 -0.3511987
1960 -0.36417401
1958 -0.37414888
1956 -0.38212243
1954 -0.39118442
1952 -0.39680621
1950 -0.39181197
1948 -0.37573823
1946 -0.3526375
1944 -0.32983428
1942 -0.31341389
1940 -0.2979677
1938 -0.27467299
1936 -0.24638085
1934 -0.22233874
1932 -0.21088681
1930 -0.21564794
1928 -0.22418778
1926 -0.21891251
1924 -0.1967641
1922 -0.16590947
1920 -0.14629515
1918 -0.1574786
1916 -0.19261444
1914 -0.23006345
1912 -0.2485752
1910 -0.23355351
1908 -0.19298714
1906 -0.14726058
1904 -0.1167168
1902 -0.11646708
1900 -0.14360195
1898 -0.1849332
1896 -0.22621715
1894 -0.25644815
1892 -0.27738908
1890 -0.29635969
1888 -0.31326967
1886 -0.32310507
1884 -0.32073048
1882 -0.30232042
1880 -0.26803887
1878 -0.2201881
1876 -0.160367
1874 -0.091648743
1872 -0.026274843
1870 0.018518336
1868 0.027657926
1866 -0.0067651793
1864 -0.069030792
1862 -0.13110761
1860 -0.17231615
1858 -0.18229643
1856 -0.17053771
1854 -0.15735756
1852 -0.1602308
1850 -0.19066387
1848 -0.2464084
1846 -0.3157182
1844 -0.38092223
1842 -0.42367131
1840 -0.43516988
1838 -0.41424155
1836 -0.36573917
1834 -0.29929909
1832 -0.23215571
1830 -0.18418452
1828 -0.16703241
1826 -0.18173343
1824 -0.20742755
1822 -0.21334924
1820 -0.1845264
1818 -0.12093309
1816 -0.036952477
1814 0.04531974
1812 0.10536586
1810 0.12831151
1808 0.11588372
1806 0.080809951
1804 0.036846515
1802 -0.0042639086
1800 -0.037285231
1798 -0.062423445
1796 -0.085065931
1794 -0.11343882
1792 -0.1551024
1790 -0.21185721
1788 -0.26295957
1786 -0.27700683
1784 -0.24400839
1782 -0.17225358
1780 -0.077306703
1778 0.023889259
1776 0.12154468
1774 0.21021155
1772 0.27971202
1770 0.31605563
1768 0.30631056
1766 0.24582757
1764 0.162259
1762 0.094522253
1760 0.027916795
1758 -0.081249662
1756 -0.21849445
1754 -0.32935381
1752 -0.39522788
1750 -0.43163249
1748 -0.46094367
1746 -0.50375324
1744 -0.56975925
1742 -0.65679127
1740 -0.7454589
1738 -0.80690378
1736 -0.82263404
1734 -0.78773516
1732 -0.71648651
1730 -0.63360637
1728 -0.55121118
1726 -0.46707207
1724 -0.36554018
1722 -0.2219232
1720 -0.009550415
1718 0.29586452
1716 0.70626569
1714 1.2167788
1712 1.7888696
1710 2.3736634
1708 2.991246
1706 3.7281022
1704 4.7110682
1702 6.1054001
1700 8.1477909
1698 11.045351
1696 14.613571
1694 18.3601
1692 21.867577
1690 24.917015
1688 27.686399
1686 30.644421
1684 34.187317
1682 38.485519
1680 43.152637
1678 47.469601
1676 51.22797
1674 54.736553
1672 58.402481
1670 62.54797
1668 67.09211
1666 71.639954
1664 75.90947
1662 79.786407
1660 83.227295
1658 86.23262
1656 88.841743
1654 91.118195
1652 93.102783
1650 94.788017
1648 96.057556
1646 96.738358
1644 96.816368
1642 96.410088
1640 95.528076
1638 94.053421
1636 91.871956
1634 88.935959
1632 85.389328
1630 81.515587
1628 77.464981
1626 73.231087
1624 68.787918
1622 64.139824
1620 59.394985
1618 54.752499
1616 50.395172
1614 46.459839
1612 43.021523
1610 40.08704
1608 37.581028
1606 35.37252
1604 33.382187
1602 31.59627
1600 30.025326
1598 28.685753
1596 27.5725
1594 26.658676
1592 25.921864
1590 25.351101
1588 24.947805
1586 24.723436
1584 24.676165
1582 24.793018
1580 25.07526
1578 25.539261
1576 26.204914
1574 27.087801
1572 28.177601
1570 29.434263
1568 30.79076
1566 32.159508
1564 33.456657
1562 34.651119
1560 35.951145
1558 37.750626
1556 40.158371
1554 42.90469
1552 45.543972
1550 47.598042
1548 48.963314
1546 49.932426
1544 50.712223
1542 51.314331
1540 51.679062
1538 51.721004
1536 51.405602
1534 50.773808
1532 49.925331
1530 48.993862
1528 48.039761
1526 47.025848
1524 45.874695
1522 44.499107
1520 42.876446
1518 41.069077
1516 39.19463
1514 37.383823
1512 35.60368
1510 33.637512
1508 31.304047
1506 28.549778
1504 25.552195
1502 22.695034
1500 20.19644
1498 18.015091
1496 16.020857
1494 14.056568
1492 12.040563
1490 9.9935598
1488 7.9642439
1486 6.0166202
1484 4.2439079
1482 2.7591774
1480 1.6084726
1478 0.76292425
1476 0.25537044
1474 0.19293538
1472 0.57161522
1470 1.2280571
1468 1.9835325
1466 2.6974614
1464 3.3110766
1462 3.8601949
1460 4.3942652
1458 4.9474192
1456 5.5167398
1454 6.0532522
1452 6.4887309
1450 6.750526
1448 6.8076062
1446 6.6869855
1444 6.4357224
1442 6.10747
1440 5.7377295
1438 5.3325157
1436 4.8772445
1434 4.3442483
1432 3.7390194
1430 3.115747
1428 2.5344238
1426 2.0456064
1424 1.6823
1422 1.4555629
1420 1.3702095
1418 1.4267405
1416 1.6129428
1414 1.900304
1412 2.259033
1410 2.6639028
1408 3.0992417
1406 3.5600271
1404 4.0358367
1402 4.5047221
1400 4.9423881
1398 5.326654
1396 5.646564
1394 5.9053264
1392 6.1024828
1390 6.2264409
1388 6.2598405
1386 6.1833601
1384 5.9952993
1382 5.7209044
1380 5.3885045
1378 5.0215616
1376 4.6389427
1374 4.2542157
1372 3.8811381
1370 3.5310187
1368 3.1913562
1366 2.81603
1364 2.3658147
1362 1.8309134
1360 1.248903
1358 0.71646488
1356 0.31550142
1354 0.079076514
1352 -0.0011739988
1350 0.020760447
1348 0.096027382
1346 0.20181179
1344 0.33059081
1342 0.48768315
1340 0.66749012
1338 0.84223932
1336 0.98015714
1334 1.0543952
1332 1.0594146
1330 1.0222365
1328 0.97254533
1326 0.93200934
1324 0.91588497
1322 0.93164313
1320 0.98401439
1318 1.0744658
1316 1.19438
1314 1.3194954
1312 1.4222589
1310 1.4786061
1308 1.4813309
1306 1.4506342
1304 1.4120286
1302 1.387405
1300 1.38956
1298 1.4169046
1296 1.4669
1294 1.5421062
1292 1.6483331
1290 1.7940943
1288 1.9823961
1286 2.2047243
1284 2.4457843
1282 2.6843045
1280 2.9053869
1278 3.1085343
1276 3.3009958
1274 3.4969089
1272 3.7092223
1270 3.9449954
1268 4.2099309
1266 4.509697
1264 4.8493037
1262 5.2322111
1260 5.6590838
1258 6.1263704
1256 6.6293969
1254 7.1641583
1252 7.7271504
1250 8.3155327
1248 8.925416
1246 9.550725
1244 10.182849
1242 10.808498
1240 11.409566
1238 11.957456
1236 12.417829
1234 12.755563
1232 12.94236
1230 12.966427
1228 12.827291
1226 12.5396
1224 12.119343
1222 11.579698
1220 10.938306
1218 10.22619
1216 9.4810572
1214 8.7498627
1212 8.07446
1210 7.4805799
1208 6.9784994
1206 6.5537014
1204 6.177238
1202 5.8030782
1200 5.3870211
1198 4.8985667
1196 4.3263645
1194 3.69291
1192 3.0347674
1190 2.3997779
1188 1.8302928
1186 1.3493907
1184 0.96789795
1182 0.67947859
1180 0.47418413
1178 0.34316576
1176 0.27808201
1174 0.2708267
1172 0.31054899
1170 0.38053668
1168 0.46464828
1166 0.55143768
1164 0.63326728
1162 0.70801079
1160 0.77110678
1158 0.80974972
1156 0.81072187
1154 0.76502764
1152 0.67082596
1150 0.54060698
1148 0.39198738
1146 0.24628644
1144 0.1239294
1142 0.040385038
1140 0.0032149185
1138 0.0050904695
1136 0.042398885
1134 0.12787199
1132 0.27123421
1130 0.46562415
1128 0.69884515
1126 0.95565653
1124 1.2227505
1122 1.4928983
1120 1.756644
1118 1.9960243
1116 2.1961601
1114 2.355207
1112 2.4792473
1110 2.5872226
1108 2.699101
1106 2.8305199
1104 2.9962099
1102 3.2115755
1100 3.4879003
1098 3.8255799
1096 4.2147427
1094 4.626513
1092 5.0360422
1090 5.4405971
1088 5.8459024
1086 6.2650528
1084 6.6993237
1082 7.1159887
1080 7.4803724
1078 7.7748532
1076 7.995286
1074 8.1613245
1072 8.2898035
1070 8.3755455
1068 8.4086428
1066 8.3809366
1064 8.2917757
1062 8.1587982
1060 8.0032339
1058 7.8447094
1056 7.6998258
1054 7.5782757
1052 7.4837198
1050 7.4064813
1048 7.3321433
1046 7.2419643
1044 7.1222134
1042 6.9757447
1040 6.8106365
1038 6.6381836
1036 6.4647799
1034 6.2802577
1032 6.0669584
1030 5.7981009
1028 5.453362
1026 5.0393186
1024 4.5777941
1022 4.1163478
1020 3.6994662
1018 3.3426745
1016 3.0468342
1014 2.7898765
1012 2.5466249
1010 2.3012648
1008 2.0437
1006 1.7762129
1004 1.5047798
1002 1.2388155
1000 0.98530322
998 0.74273491
996 0.51024568
994 0.29597068
992 0.10668401
990 -0.062397718
988 -0.22047584
986 -0.38127878
984 -0.5486747
982 -0.69099498
980 -0.77073282
978 -0.76046753
976 -0.64688176
974 -0.45496941
972 -0.22018477
970 0.018876672
968 0.22562863
966 0.3731935
964 0.44410759
962 0.44505924
960 0.39515001
958 0.33509022
956 0.29970458
954 0.28486702
952 0.27377641
950 0.23967235
948 0.16631651
946 0.083203427
944 0.02448472
942 0.00055334717
940 0.019332878
938 0.10079756
936 0.25772113
934 0.46574843
932 0.68644857
930 0.86398989
928 0.95115149
926 0.94887567
924 0.87948316
922 0.79999268
920 0.75973791
918 0.74627048
916 0.73608446
914 0.72243381
912 0.71073401
910 0.7370488
908 0.82486212
906 0.91911745
904 0.96329159
902 0.97231686
900 0.98577136
898 1.0703276
896 1.2993
