Image.
>Pix99999.
  .
5555
5555
2300
900
5555
2
1
0
701
5555
2.4103001e-002
2.4615267e-002
2.5127534e-002
2.5639802e-002
2.6152069e-002
2.6664335e-002
2.7175611e-002
2.7687870e-002
2.8200136e-002
2.8712405e-002
2.9224671e-002
2.9736938e-002
3.0248223e-002
3.0758509e-002
3.1272698e-002
3.1791858e-002
3.2297432e-002
3.2782219e-002
3.3320114e-002
3.3933282e-002
3.4348283e-002
3.4486100e-002
3.5357840e-002
3.7265159e-002
3.6443442e-002
2.9288821e-002
1.7407166e-002
4.3011196e-003
-4.7542518e-003
-5.2950210e-003
1.9200785e-003
1.7370068e-002
5.2543618e-002
1.1555424e-001
1.8801574e-001
2.4642250e-001
2.7763435e-001
2.7817550e-001
2.7083802e-001
2.8260130e-001
3.2621059e-001
4.0471739e-001
4.9948260e-001
5.8614427e-001
6.4325464e-001
6.5597486e-001
6.3204765e-001
5.8545887e-001
5.2739680e-001
4.6578372e-001
3.9906856e-001
3.2525349e-001
2.5238246e-001
1.8986763e-001
1.3944396e-001
1.0089873e-001
7.5996920e-002
6.8917438e-002
9.0799682e-002
1.5008861e-001
2.3513143e-001
3.2798040e-001
4.1200644e-001
4.7556341e-001
5.2507669e-001
5.7139188e-001
6.1916333e-001
6.6942877e-001
7.1765232e-001
7.5794446e-001
7.8643703e-001
7.9995286e-001
7.9528475e-001
7.7209175e-001
7.4207801e-001
7.1917033e-001
7.0925957e-001
7.1088541e-001
7.0432246e-001
6.6944695e-001
6.1049801e-001
5.4396409e-001
5.0023890e-001
5.0735164e-001
5.6418759e-001
6.5439355e-001
7.4279803e-001
7.9343379e-001
7.9402786e-001
7.4753612e-001
6.8300712e-001
6.3271868e-001
6.0363656e-001
5.9079748e-001
5.8052105e-001
5.6192482e-001
5.4800284e-001
5.5537701e-001
5.7768780e-001
5.9910142e-001
6.0239571e-001
5.7795089e-001
5.4849046e-001
5.4370946e-001
5.6990510e-001
6.1882597e-001
6.6206092e-001
6.6965920e-001
6.3694096e-001
5.7212549e-001
4.9402842e-001
4.2354921e-001
3.7435120e-001
3.5392797e-001
3.5680795e-001
3.7039572e-001
3.7385279e-001
3.4762344e-001
2.9068828e-001
2.1282400e-001
1.3628885e-001
8.4136508e-002
6.2456176e-002
6.7214511e-002
8.2861602e-002
9.3911283e-002
1.0419565e-001
1.2561749e-001
1.6833119e-001
2.3497438e-001
3.0162114e-001
3.3462289e-001
3.0764258e-001
2.0779040e-001
6.2791236e-002
-7.8496382e-002
-1.5285744e-001
-1.0848684e-001
3.5314187e-002
2.2178900e-001
3.7206200e-001
4.1815561e-001
3.7287465e-001
2.8427887e-001
1.9183485e-001
1.2221301e-001
7.3933750e-002
3.6769390e-002
1.7129028e-002
2.6895383e-002
6.4926639e-002
1.1906716e-001
1.5858994e-001
1.5193364e-001
9.9862859e-002
2.2439038e-002
-4.5850135e-002
-7.3352411e-002
-6.5713346e-002
-4.4763494e-002
-2.2614572e-002
-1.3472389e-003
3.4255151e-002
9.7809538e-002
1.6132784e-001
1.8016814e-001
1.2912409e-001
4.8807487e-003
-1.4981088e-001
-2.7928925e-001
-3.6857316e-001
-4.2663547e-001
-4.6976891e-001
-5.1148045e-001
-5.4417986e-001
-5.5365002e-001
-5.4465604e-001
-5.3177679e-001
-5.2584291e-001
-5.3258872e-001
-5.4787087e-001
-5.6535846e-001
-5.9093118e-001
-6.3254279e-001
-6.7735964e-001
-6.9603872e-001
-6.3795209e-001
-4.6112332e-001
-2.0664033e-001
3.9766200e-002
1.9762415e-001
2.1205275e-001
1.1038041e-001
-4.2708714e-002
-2.1405424e-001
-3.9157420e-001
-5.6223917e-001
-7.0532733e-001
-7.7687371e-001
-7.3179048e-001
-5.7637000e-001
-3.5529849e-001
-1.4919138e-001
-4.5693122e-002
-8.5555896e-002
-2.6826757e-001
-5.3723687e-001
-8.1115073e-001
-1.0308052e+000
-1.1538599e+000
-1.1434100e+000
-9.7190976e-001
-6.4639431e-001
-2.1406195e-001
1.8993542e-001
4.0326622e-001
3.6601824e-001
1.0360877e-001
-2.7441686e-001
-6.3189971e-001
-9.1034001e-001
-1.1023850e+000
-1.1982712e+000
-1.1861640e+000
-1.0751200e+000
-8.9672178e-001
-7.2362876e-001
-6.3785350e-001
-6.5592164e-001
-7.4127382e-001
-8.1416273e-001
-7.8256691e-001
-6.0023528e-001
-2.7502018e-001
8.3656691e-002
3.1640929e-001
3.1516001e-001
4.0277921e-002
-4.1941103e-001
-9.0227205e-001
-1.2730601e+000
-1.4436781e+000
-1.4197277e+000
-1.2665794e+000
-1.0562568e+000
-8.5080999e-001
-6.7924953e-001
-5.4454327e-001
-4.2983904e-001
-3.0789527e-001
-1.5274122e-001
4.3530151e-002
2.1660960e-001
2.7172482e-001
1.9796681e-001
5.2623156e-002
-8.5618824e-002
-1.4013062e-001
-7.4941173e-002
1.1530697e-001
4.2916173e-001
8.4170914e-001
1.2254989e+000
1.4036579e+000
1.3034686e+000
9.6185833e-001
5.3770459e-001
2.2770141e-001
5.2133657e-002
-8.3029069e-002
-1.6717371e-001
-1.0164794e-001
1.8356617e-001
6.9371045e-001
1.2903557e+000
1.7532287e+000
1.9502234e+000
1.8657541e+000
1.6572331e+000
1.5614995e+000
1.6387200e+000
1.7813915e+000
1.7958711e+000
1.4918927e+000
8.9779907e-001
2.2426891e-001
-2.7147263e-001
-3.4623921e-001
1.2840921e-001
1.1369231e+000
2.4107070e+000
3.5450106e+000
4.3557467e+000
4.9026012e+000
5.4499664e+000
6.3772278e+000
7.9897628e+000
1.0456962e+001
1.3680297e+001
1.7324797e+001
2.0894571e+001
2.3889900e+001
2.6251331e+001
2.8331806e+001
3.0673149e+001
3.3845001e+001
3.8091625e+001
4.3271122e+001
4.8751080e+001
5.3699787e+001
5.8042957e+001
6.2354481e+001
6.7010063e+001
7.2014450e+001
7.6935944e+001
8.1115654e+001
8.4342361e+001
8.6847885e+001
8.8901855e+001
9.0715866e+001
9.2425087e+001
9.4070030e+001
9.5518318e+001
9.6480309e+001
9.6582199e+001
9.5507217e+001
9.3453056e+001
9.1032898e+001
8.8625389e+001
8.6270683e+001
8.3780441e+001
8.0858833e+001
7.7429619e+001
7.3635986e+001
6.9598801e+001
6.5369949e+001
6.0952080e+001
5.6333824e+001
5.1600437e+001
4.6927105e+001
4.2467598e+001
3.8335674e+001
3.4633808e+001
3.1443720e+001
2.8765034e+001
2.6521835e+001
2.4637644e+001
2.3057819e+001
2.1756166e+001
2.0728725e+001
1.9959499e+001
1.9417124e+001
1.9082663e+001
1.8955093e+001
1.9055214e+001
1.9419373e+001
2.0068668e+001
2.1013491e+001
2.2307369e+001
2.4038055e+001
2.6235228e+001
2.8837189e+001
3.1658386e+001
3.4428783e+001
3.6998280e+001
3.9374886e+001
4.1645004e+001
4.3969475e+001
4.6627399e+001
4.9888054e+001
5.3411816e+001
5.6284019e+001
5.7956383e+001
5.8475117e+001
5.8264194e+001
5.7953857e+001
5.7823231e+001
5.7678875e+001
5.7106861e+001
5.5641132e+001
5.3242001e+001
5.0358959e+001
4.7491253e+001
4.5032887e+001
4.3123913e+001
4.1626701e+001
4.0308960e+001
3.8904636e+001
3.7188641e+001
3.5038383e+001
3.2566944e+001
3.0103552e+001
2.7841881e+001
2.5738174e+001
2.3609734e+001
2.1218529e+001
1.8567612e+001
1.5944827e+001
1.3579897e+001
1.1545800e+001
9.8135996e+000
8.2774048e+000
6.8576317e+000
5.5224619e+000
4.2201309e+000
2.8837786e+000
1.5558530e+000
4.1781580e-001
-3.3232924e-001
-5.2280498e-001
-3.6638260e-002
1.1364650e+000
2.7564349e+000
4.3396978e+000
5.6037369e+000
6.6051106e+000
7.5370312e+000
8.6527996e+000
1.0095431e+001
1.1809009e+001
1.3501200e+001
1.4677405e+001
1.5079717e+001
1.4831422e+001
1.4163925e+001
1.3329071e+001
1.2501031e+001
1.1738319e+001
1.1070080e+001
1.0507654e+001
9.9967289e+000
9.4134150e+000
8.6822557e+000
7.8257794e+000
6.9421558e+000
6.1935945e+000
5.6951365e+000
5.4675422e+000
5.4619975e+000
5.5646749e+000
5.6678715e+000
5.7052484e+000
5.6873345e+000
5.7149916e+000
5.8745513e+000
6.1965246e+000
6.6639915e+000
7.2080083e+000
7.7417679e+000
8.1705980e+000
8.4084930e+000
8.3941555e+000
8.1246223e+000
7.6732979e+000
7.1236172e+000
6.5460000e+000
5.9926047e+000
5.4932318e+000
5.0739985e+000
4.7560859e+000
4.5219769e+000
4.2984209e+000
4.0102119e+000
3.6055975e+000
3.0828056e+000
2.5048087e+000
1.9261909e+000
1.3669577e+000
8.4415746e-001
3.8472098e-001
3.3142284e-002
-1.4690198e-001
-1.1625360e-001
1.1744656e-001
5.2857381e-001
1.0819829e+000
1.7550360e+000
2.5402327e+000
3.3847163e+000
4.1573930e+000
4.7117028e+000
4.9212375e+000
4.7608237e+000
4.3605590e+000
3.8652234e+000
3.3816993e+000
2.9837656e+000
2.7020206e+000
2.5425050e+000
2.4835722e+000
2.4783299e+000
2.4517009e+000
2.3461807e+000
2.1482892e+000
1.8776741e+000
1.5914779e+000
1.3423035e+000
1.1594790e+000
1.0605268e+000
1.0522275e+000
1.1426429e+000
1.3455850e+000
1.6690755e+000
2.1063602e+000
2.6360080e+000
3.2158537e+000
3.7988050e+000
4.3385348e+000
4.7973228e+000
5.1547542e+000
5.4077659e+000
5.5784822e+000
5.6995296e+000
5.8113737e+000
5.9504013e+000
6.1414399e+000
6.4023728e+000
6.7426295e+000
7.1667423e+000
7.6742077e+000
8.2655945e+000
8.9453812e+000
9.7171087e+000
1.0579905e+001
1.1524424e+001
1.2528000e+001
1.3556786e+001
1.4566234e+001
1.5501155e+001
1.6289854e+001
1.6862585e+001
1.7158762e+001
1.7135519e+001
1.6779232e+001
1.6097961e+001
1.5130514e+001
1.3937742e+001
1.2603561e+001
1.1227192e+001
9.9230480e+000
8.8001204e+000
7.9448066e+000
7.4100232e+000
7.1889486e+000
7.2315054e+000
7.4280634e+000
7.6552958e+000
7.7940960e+000
7.7509832e+000
7.4880505e+000
7.0041785e+000
6.3494573e+000
5.5927057e+000
4.8153138e+000
4.0861325e+000
3.4392700e+000
2.8879547e+000
2.4188826e+000
2.0184681e+000
1.6857029e+000
1.4220800e+000
1.2276014e+000
1.0968965e+000
1.0146835e+000
9.7237563e-001
9.8025924e-001
1.0483015e+000
1.1732610e+000
1.3327612e+000
1.4695095e+000
1.5286086e+000
1.4811919e+000
1.3230658e+000
1.0914671e+000
8.3246541e-001
5.8830428e-001
3.9005473e-001
2.4346673e-001
1.3451809e-001
1.9775376e-002
-1.2695199e-001
-2.7564579e-001
-3.9151037e-001
-4.6076572e-001
-4.7902617e-001
-4.5159492e-001
-3.7944344e-001
-2.4844459e-001
-4.9693391e-002
2.0251137e-001
4.7275412e-001
6.8995988e-001
7.9785419e-001
7.9967046e-001
7.2751659e-001
6.4796352e-001
6.1671495e-001
6.4068872e-001
7.0956737e-001
8.0077678e-001
9.0500283e-001
1.0540051e+000
1.2845720e+000
1.6187977e+000
2.0510378e+000
2.5136657e+000
2.9310796e+000
3.2481916e+000
3.4299846e+000
3.4826419e+000
3.4244215e+000
3.2793875e+000
3.0798373e+000
2.8739009e+000
2.7043288e+000
2.5868971e+000
2.5211918e+000
2.4802673e+000
2.4374852e+000
2.3837051e+000
2.3157685e+000
2.2346284e+000
2.1412106e+000
2.0331891e+000
1.9142486e+000
1.8073071e+000
1.7394103e+000
1.7353724e+000
1.8068868e+000
1.9304969e+000
2.0743599e+000
2.2072754e+000
2.3040080e+000
2.3556595e+000
2.3539751e+000
2.2824500e+000
2.1288030e+000
1.9022059e+000
1.6255229e+000
1.3473068e+000
1.1074252e+000
9.0039003e-001
7.0453018e-001
4.8353222e-001
2.1739410e-001
-5.3119645e-002
-2.7988398e-001
-4.3924782e-001
-5.3036034e-001
-6.0459268e-001
-7.1825856e-001
-9.0178597e-001
-1.1641771e+000
-1.4662945e+000
-1.7587014e+000
-1.9961450e+000
-2.1450295e+000
-2.2057769e+000
-2.1886520e+000
-2.1103480e+000
-1.9886057e+000
-1.8413417e+000
-1.6843228e+000
-1.5268604e+000
-1.3754097e+000
-1.2325250e+000
-1.1025243e+000
-9.9987972e-001
-9.3231595e-001
-8.7753457e-001
-8.0466503e-001
-6.8053573e-001
-4.8966840e-001
-2.8041488e-001
-1.1094326e-001
-1.7564800e-002
-6.5537235e-003
3.0534789e-003
9.9762931e-002
3.2071310e-001
6.6969144e-001
1.0759012e+000
1.4563680e+000
1.7512034e+000
1.9262806e+000
2.0209208e+000
2.0871620e+000
2.1554599e+000
2.2390778e+000
2.3069112e+000
2.3260128e+000
2.2985363e+000
2.2392006e+000
2.1784339e+000
2.1525569e+000
2.2065842e+000
2.3726327e+000
2.6231494e+000
2.9142013e+000
3.1942086e+000
3.4098001e+000
