Image.
>Pix99999.
  .
5555
5555
2300
900
5555
2
1
0
701
5555
1.3613000e-002
1.3895595e-002
1.4179189e-002
1.4461787e-002
1.4745377e-002
1.5028971e-002
1.5311574e-002
1.5595160e-002
1.5877767e-002
1.6161349e-002
1.6444944e-002
1.6727552e-002
1.7011130e-002
1.7293744e-002
1.7577320e-002
1.7860916e-002
1.8143531e-002
1.8427102e-002
1.8709723e-002
1.8993292e-002
1.9276887e-002
1.9559510e-002
1.9843074e-002
2.0125702e-002
2.0409262e-002
2.0692857e-002
1.9836430e-002
7.6383003e-004
-3.0700800e-003
-1.3718322e-002
-2.5453886e-002
-3.3079069e-002
-4.0103316e-002
-4.0344913e-002
-3.9504696e-002
-3.2551698e-002
-2.4037873e-002
-9.7642103e-003
2.6870824e-003
8.6801555e-003
5.4367059e-003
-1.7200997e-002
-4.1673940e-002
-6.7281425e-002
-8.0507815e-002
-7.8212373e-002
-6.7758426e-002
-5.0403289e-002
-2.4740165e-002
6.7903101e-003
5.0121002e-002
1.0003597e-001
1.4407115e-001
1.8534437e-001
2.0809840e-001
2.2489750e-001
2.3022880e-001
2.3300503e-001
2.3839268e-001
2.4429019e-001
2.5921741e-001
2.7465537e-001
2.8637207e-001
2.9634351e-001
2.9837480e-001
3.0210951e-001
3.1489736e-001
3.3400443e-001
3.6694831e-001
3.9488998e-001
4.1065699e-001
4.0787774e-001
3.8006407e-001
3.5307714e-001
3.2997289e-001
3.3479321e-001
3.6394504e-001
4.0590030e-001
4.5500860e-001
4.8246467e-001
4.9772087e-001
4.9273321e-001
4.7968656e-001
4.7556674e-001
4.7450840e-001
4.8853743e-001
5.0604177e-001
5.2894813e-001
5.5255812e-001
5.7382506e-001
5.9328240e-001
6.0167599e-001
6.0383683e-001
5.8540374e-001
5.5875152e-001
5.1640052e-001
4.8107052e-001
4.6641883e-001
4.7027099e-001
5.0008523e-001
5.2559286e-001
5.4049093e-001
5.3854156e-001
5.2076316e-001
5.0960225e-001
5.0570500e-001
5.2585632e-001
5.6120467e-001
6.0224551e-001
6.4528131e-001
6.7214060e-001
6.9218844e-001
7.0560879e-001
7.1714813e-001
7.1960950e-001
7.1941239e-001
6.9084245e-001
6.5638816e-001
6.1727804e-001
5.8142847e-001
5.6849343e-001
5.6040800e-001
5.5377674e-001
5.3928357e-001
5.0416577e-001
4.6459287e-001
4.2440480e-001
3.9900863e-001
3.9583984e-001
4.0433398e-001
4.2138013e-001
4.3091202e-001
4.3168521e-001
4.2802459e-001
4.2234048e-001
4.2152900e-001
4.2422050e-001
4.2776150e-001
4.3158510e-001
4.2488068e-001
4.1355801e-001
3.8212201e-001
3.4380507e-001
2.9936489e-001
2.5410211e-001
2.2222149e-001
1.9590905e-001
1.8562411e-001
1.8241166e-001
1.9341590e-001
2.0838644e-001
2.2526658e-001
2.3529851e-001
2.2771755e-001
2.0930719e-001
1.7799707e-001
1.4854559e-001
1.2598449e-001
1.1283803e-001
1.0915889e-001
1.1385286e-001
1.2476710e-001
1.4644842e-001
1.7568129e-001
1.9239376e-001
2.0021906e-001
1.6364054e-001
1.0400361e-001
4.5084041e-002
-1.2356239e-002
-2.4777886e-002
-2.1103971e-002
-1.5757520e-002
-1.3266874e-002
-3.6385380e-002
-6.7903496e-002
-1.0173579e-001
-1.3130771e-001
-1.4757958e-001
-1.5969609e-001
-1.7267486e-001
-1.8980901e-001
-2.1322320e-001
-2.3382501e-001
-2.4539743e-001
-2.3882580e-001
-2.1086723e-001
-1.7110801e-001
-1.2552480e-001
-1.0444200e-001
-1.0831886e-001
-1.3279518e-001
-1.6865698e-001
-1.9287868e-001
-2.0771955e-001
-2.2618207e-001
-2.4771561e-001
-2.7508223e-001
-3.0545646e-001
-3.0050418e-001
-2.8037286e-001
-2.4134214e-001
-1.9975340e-001
-1.9274460e-001
-2.0496891e-001
-2.4545571e-001
-2.9514998e-001
-3.4136215e-001
-3.8096982e-001
-4.0691522e-001
-4.1350999e-001
-3.9049333e-001
-3.4339410e-001
-2.7322692e-001
-2.2524835e-001
-2.1713515e-001
-2.6560447e-001
-3.6453131e-001
-4.6737623e-001
-5.6084365e-001
-6.1992741e-001
-6.5276891e-001
-6.5352154e-001
-6.3488626e-001
-6.0127801e-001
-5.5910999e-001
-5.4384434e-001
-5.4232073e-001
-5.6400007e-001
-5.9351653e-001
-5.8830816e-001
-5.6059039e-001
-4.9075007e-001
-4.0458626e-001
-3.2997635e-001
-2.8069651e-001
-2.9250994e-001
-3.4456822e-001
-4.2820540e-001
-5.1124460e-001
-5.6868571e-001
-5.9232497e-001
-5.7919091e-001
-5.4800022e-001
-5.1064402e-001
-4.7650501e-001
-4.4805288e-001
-4.3220329e-001
-4.2520377e-001
-4.1733968e-001
-4.0678287e-001
-3.5771173e-001
-2.8334960e-001
-2.0467091e-001
-1.2750329e-001
-8.6800568e-002
-6.8720274e-002
-5.9801813e-002
-5.3175393e-002
-2.2657193e-002
2.8691046e-002
1.1523691e-001
2.0898737e-001
2.6135996e-001
2.6728663e-001
2.0469536e-001
1.1857589e-001
5.2313052e-002
1.9124137e-002
-7.0176758e-002
-1.6792472e-001
-2.1385455e-001
-1.8166389e-001
-7.4224256e-002
4.0041059e-002
1.3549289e-001
1.2315738e-001
9.5858276e-003
-1.1773811e-001
-2.3778434e-001
-2.3693199e-001
-1.4177912e-001
-4.2038787e-002
4.8489470e-002
1.5395572e-002
-9.6601427e-002
-1.6182418e-001
-1.6266711e-001
2.2433423e-002
3.7068734e-001
9.1607314e-001
1.5491942e+000
2.0942886e+000
2.5840323e+000
3.0618401e+000
3.6983628e+000
4.6540041e+000
6.1673789e+000
8.3511829e+000
1.1358359e+001
1.5136572e+001
1.8988701e+001
2.2592764e+001
2.5843950e+001
2.8790127e+001
3.2281345e+001
3.6399078e+001
4.1382401e+001
4.7053162e+001
5.2074203e+001
5.6470928e+001
6.0655201e+001
6.4763046e+001
6.9616592e+001
7.5037460e+001
8.0492302e+001
8.5843193e+001
9.0647598e+001
9.4881516e+001
9.8448853e+001
1.0131137e+002
1.0341960e+002
1.0468680e+002
1.0506692e+002
1.0436932e+002
1.0250357e+002
9.9879189e+001
9.6909019e+001
9.3538857e+001
8.9802490e+001
8.5347427e+001
8.0118385e+001
7.4872108e+001
6.9865494e+001
6.5300636e+001
6.1164181e+001
5.7001400e+001
5.2745216e+001
4.8596088e+001
4.4568859e+001
4.0785973e+001
3.7269333e+001
3.4162388e+001
3.1482962e+001
2.9240206e+001
2.7416471e+001
2.5879400e+001
2.4633499e+001
2.3636120e+001
2.2887047e+001
2.2345001e+001
2.1998892e+001
2.1805817e+001
2.1752478e+001
2.1806404e+001
2.1963978e+001
2.2213039e+001
2.2550100e+001
2.2966415e+001
2.3499439e+001
2.4158571e+001
2.4948952e+001
2.5861954e+001
2.6848131e+001
2.7893480e+001
2.9013807e+001
3.0218729e+001
3.1700296e+001
3.3555958e+001
3.6300201e+001
3.9965172e+001
4.3795010e+001
4.7577393e+001
5.0479691e+001
5.2565018e+001
5.4429749e+001
5.6088051e+001
5.7640686e+001
5.8824181e+001
5.9261620e+001
5.8887688e+001
5.7755096e+001
5.6189232e+001
5.4591446e+001
5.2961983e+001
5.1301949e+001
4.9487305e+001
4.7434818e+001
4.5189396e+001
4.2751728e+001
4.0419842e+001
3.8303532e+001
3.6237839e+001
3.4204823e+001
3.1680443e+001
2.8518658e+001
2.5367777e+001
2.2293428e+001
1.9706276e+001
1.7657499e+001
1.5622000e+001
1.3590357e+001
1.1513911e+001
9.4026909e+000
7.3048368e+000
5.2916489e+000
3.4868178e+000
1.9909631e+000
9.0565026e-001
2.5334758e-001
5.1718257e-002
3.8139287e-001
1.1848581e+000
2.1576841e+000
3.1103745e+000
3.9039278e+000
4.4355588e+000
4.8733721e+000
5.2746387e+000
5.6844115e+000
6.1163201e+000
6.4581795e+000
6.6475077e+000
6.7154350e+000
6.6087966e+000
6.4560714e+000
6.2406640e+000
6.0077271e+000
5.7467771e+000
5.4426551e+000
5.0703831e+000
4.5979252e+000
4.0301208e+000
3.4517612e+000
2.9022319e+000
2.4698622e+000
2.1710258e+000
2.0060289e+000
1.9670644e+000
2.0298312e+000
2.1665344e+000
2.3511372e+000
2.5638881e+000
2.8033412e+000
3.0682783e+000
3.3700671e+000
3.7007632e+000
4.0665216e+000
4.4513121e+000
4.8595824e+000
5.2643356e+000
5.6534209e+000
5.9761415e+000
6.1717033e+000
6.2465491e+000
6.1278601e+000
5.8954854e+000
5.5094271e+000
5.0740571e+000
4.5863442e+000
4.1005454e+000
3.6317911e+000
3.2030160e+000
2.8222015e+000
2.4884422e+000
2.1706750e+000
1.8139729e+000
1.4187384e+000
9.7849989e-001
5.6103718e-001
2.5064918e-001
4.5352891e-002
5.0266652e-004
3.6796704e-002
1.5551245e-001
3.0251142e-001
4.8706442e-001
6.9209749e-001
9.3408585e-001
1.1814494e+000
1.4324629e+000
1.6541522e+000
1.8157991e+000
1.9663091e+000
2.1052945e+000
2.2763808e+000
2.5024338e+000
2.7720280e+000
3.0987017e+000
3.4479012e+000
3.8115301e+000
4.1464167e+000
4.4371266e+000
4.6641269e+000
4.8298507e+000
4.9439735e+000
5.0181146e+000
5.0573950e+000
5.0704789e+000
5.0489402e+000
5.0083141e+000
4.9438138e+000
4.8807058e+000
4.8348703e+000
4.8026676e+000
4.7991381e+000
4.7958446e+000
4.7876596e+000
4.7835069e+000
4.7893190e+000
4.8088126e+000
4.8543072e+000
4.8972158e+000
4.9372463e+000
4.9777350e+000
5.0231781e+000
5.0915456e+000
5.1872101e+000
5.2945323e+000
5.4102359e+000
5.5168371e+000
5.6145535e+000
5.7054467e+000
5.7919469e+000
5.8783493e+000
5.9639001e+000
6.0453606e+000
6.1171427e+000
6.1608210e+000
6.1735358e+000
6.1103268e+000
5.9987097e+000
5.7755961e+000
5.5096011e+000
5.1407475e+000
4.7460537e+000
4.2853446e+000
3.8149383e+000
3.3237488e+000
2.8465240e+000
2.4006543e+000
1.9842889e+000
1.6183325e+000
1.2733546e+000
9.5926368e-001
6.6293937e-001
3.9151478e-001
1.4816782e-001
-6.3059196e-002
-2.4154101e-001
-3.8738573e-001
-4.9368787e-001
-5.6736070e-001
-5.9803593e-001
-5.9944308e-001
-5.5792493e-001
-4.8933294e-001
-3.6724874e-001
-2.1639079e-001
2.7880371e-003
2.4900001e-001
5.6717658e-001
8.9177120e-001
1.2225983e+000
1.5205240e+000
1.7138520e+000
1.8570794e+000
1.8758290e+000
1.8589772e+000
1.7701185e+000
1.6578286e+000
1.5060928e+000
1.3361354e+000
1.1413661e+000
9.3700379e-001
7.2340965e-001
5.1363260e-001
3.1421089e-001
1.5464845e-001
3.6697026e-002
4.2389252e-004
2.0687126e-002
1.4470053e-001
3.1373665e-001
5.1095295e-001
7.0758879e-001
8.6109829e-001
9.9609733e-001
1.0734360e+000
1.1384242e+000
1.1663158e+000
1.1969293e+000
1.2421218e+000
1.2967858e+000
1.3802840e+000
1.4571049e+000
1.5146428e+000
1.5459484e+000
1.5244045e+000
1.4803025e+000
1.4032286e+000
1.3345124e+000
1.2814699e+000
1.2681644e+000
1.2964474e+000
1.3484272e+000
1.4133301e+000
1.4414902e+000
1.4403868e+000
1.3841960e+000
1.3025471e+000
1.2140300e+000
1.1239897e+000
1.0398992e+000
9.5620638e-001
8.6575294e-001
7.7528119e-001
6.9117576e-001
6.0584521e-001
5.1051664e-001
4.1545373e-001
3.2221150e-001
2.3747829e-001
1.7948830e-001
1.1952121e-001
5.3796247e-002
-2.2442713e-002
-1.1810155e-001
-2.1322030e-001
-3.0647308e-001
-3.8746297e-001
-4.5264819e-001
-4.9815583e-001
-5.2681035e-001
-5.6190145e-001
-6.0659212e-001
-7.0560896e-001
-8.3482420e-001
-9.8373359e-001
-1.1332229e+000
-1.2072029e+000
-1.2533584e+000
-1.2172406e+000
-1.1676497e+000
-1.1241440e+000
-1.0876608e+000
-1.1293638e+000
-1.1775310e+000
-1.2657914e+000
-1.3443083e+000
-1.3787501e+000
-1.3911150e+000
-1.3351320e+000
-1.2700324e+000
-1.1856418e+000
-1.1235508e+000
-1.1008617e+000
-1.1005998e+000
-1.1293660e+000
-1.1499263e+000
-1.1614228e+000
-1.1576197e+000
-1.1408162e+000
-1.1055316e+000
-1.0582194e+000
-9.9809599e-001
-9.3312991e-001
-8.8843292e-001
-8.5012102e-001
-8.0662572e-001
-7.5912660e-001
-6.4476252e-001
-5.2091676e-001
-3.6203319e-001
-2.0314756e-001
-6.6595502e-002
1.6130731e-003
5.0443523e-002
1.5507317e-001
3.0406588e-001
4.5997113e-001
6.3572913e-001
7.9518300e-001
9.1946465e-001
1.0233366e+000
1.0949929e+000
1.1740659e+000
1.2620263e+000
1.3385297e+000
1.4033456e+000
1.4056015e+000
1.3633846e+000
1.2921114e+000
1.2061960e+000
1.1660098e+000
1.1438136e+000
1.1177468e+000
1.0906947e+000
9.9623913e-001
8.9122498e-001
8.8771999e-001
