##TITLE=Methyl Ethyl Ketone
##JCAMP-DX=4.24
##DATA TYPE=INFRARED SPECTRUM
##XUNITS=cm-1
##YUNITS=Absorbance
##FIRSTX=900
##LASTX=2300
##XYDATA=(X++(Y..Y))
2296 0.045132998
2294 0.04607166
2292 0.047011312
2290 0.047949973
2288 0.048888627
2286 0.049827289
2284 0.050766934
2282 0.051705603
2280 0.052644257
2278 0.053582914
2276 0.054522555
2274 0.055462215
2272 0.056399904
2270 0.057334617
2268 0.058278102
2266 0.05923447
2264 0.060156904
2262 0.061029799
2260 0.062032107
2258 0.063215703
2256 0.063919254
2254 0.063946761
2252 0.065760165
2250 0.070093773
2248 0.067787051
2246 0.050311036
2244 0.022712776
2242 -0.0037283273
2240 -0.0079846159
2238 0.028420763
2236 0.10273328
2234 0.20475352
2232 0.31859574
2230 0.42644316
2228 0.50890923
2226 0.55167699
2224 0.5628832
2222 0.5585022
2220 0.55971479
2218 0.58285946
2216 0.61887002
2214 0.65210301
2212 0.67118561
2210 0.66881669
2208 0.64860076
2206 0.61620367
2204 0.57239151
2202 0.51691216
2200 0.45180476
2198 0.38118559
2196 0.31460857
2194 0.26104665
2192 0.22013514
2190 0.18788786
2188 0.15752743
2186 0.12640457
2184 0.111898
2182 0.13531156
2180 0.20764144
2178 0.32971713
2176 0.47502601
2174 0.61035627
2172 0.71111661
2170 0.76125687
2168 0.767268
2166 0.7444095
2164 0.71361059
2162 0.69506913
2160 0.69896352
2158 0.72761244
2156 0.76505101
2154 0.78981572
2152 0.78303808
2150 0.73354083
2148 0.65745711
2146 0.57963896
2144 0.52197725
2142 0.50096458
2140 0.51625055
2138 0.55976743
2136 0.61611801
2134 0.66837454
2132 0.70345777
2130 0.71420395
2128 0.71184754
2126 0.71055657
2124 0.70933479
2122 0.70138615
2120 0.67983049
2118 0.6427089
2116 0.60788357
2114 0.59655482
2112 0.61347342
2110 0.65528083
2108 0.71144682
2106 0.76998949
2104 0.82319099
2102 0.86536258
2100 0.89230078
2098 0.90287036
2096 0.90660286
2094 0.91551012
2092 0.93465787
2090 0.96326572
2088 0.98826754
2086 0.99492848
2084 0.98123097
2082 0.95153058
2080 0.91496646
2078 0.88131166
2076 0.85611004
2074 0.84338355
2072 0.84841835
2070 0.87528479
2068 0.92059374
2066 0.97652864
2064 1.0296298
2062 1.0659509
2060 1.0784841
2058 1.0651261
2056 1.0311942
2054 0.98493171
2052 0.9340592
2050 0.88569564
2048 0.84566116
2046 0.81793642
2044 0.80095881
2042 0.79046994
2040 0.78046417
2038 0.76629269
2036 0.75158888
2034 0.74157053
2032 0.73278999
2030 0.71857691
2028 0.69556934
2026 0.66549993
2024 0.64460874
2022 0.65001386
2020 0.67561132
2018 0.70309472
2016 0.70817602
2014 0.67222017
2012 0.60952228
2010 0.54680628
2008 0.49932498
2006 0.47336248
2004 0.46344748
2002 0.46290851
2000 0.48167354
1998 0.53441173
1996 0.62182355
1994 0.73209757
1992 0.83034247
1990 0.87856448
1988 0.87036777
1986 0.81883425
1984 0.75294065
1982 0.70253068
1980 0.6730535
1978 0.65860623
1976 0.65724427
1974 0.67006856
1972 0.69941419
1970 0.7442674
1968 0.78760815
1966 0.80938876
1964 0.81080669
1962 0.80532587
1960 0.81108803
1958 0.84062791
1956 0.87570918
1954 0.8875429
1952 0.86961448
1950 0.83121282
1948 0.79566252
1946 0.78485751
1944 0.78726625
1942 0.7766971
1940 0.74035615
1938 0.67889208
1936 0.61476254
1934 0.57554609
1932 0.56402719
1930 0.56836146
1928 0.57396412
1926 0.57056618
1924 0.56810164
1922 0.58291686
1920 0.61194277
1918 0.6415748
1916 0.66220659
1914 0.66871601
1912 0.66203755
1910 0.64369786
1908 0.60450411
1906 0.53400683
1904 0.4432236
1902 0.35610068
1900 0.29845327
1898 0.29215989
1896 0.34202284
1894 0.4368377
1892 0.53755414
1890 0.5928635
1888 0.56350809
1886 0.43137285
1884 0.23498127
1882 0.040902622
1880 -0.10143879
1878 -0.16183321
1876 -0.13747701
1874 -0.040774219
1872 0.11407174
1870 0.30560291
1868 0.47853333
1866 0.56560612
1864 0.53582305
1862 0.39275441
1860 0.18821096
1858 -0.0067239739
1856 -0.15405349
1854 -0.24066868
1852 -0.26267233
1850 -0.22309652
1848 -0.1412928
1846 -0.049590103
1844 0.005035012
1842 -0.020742701
1840 -0.1179574
1838 -0.24070121
1836 -0.32791027
1834 -0.3228794
1832 -0.21492782
1830 -0.032274347
1828 0.15628657
1826 0.26898342
1824 0.26745662
1822 0.153292
1820 -0.029109322
1818 -0.21441375
1816 -0.35234544
1814 -0.4126201
1812 -0.39839602
1810 -0.33340091
1808 -0.24153355
1806 -0.1419905
1804 -0.042984854
1802 0.05498952
1800 0.15458359
1798 0.25861293
1796 0.36487499
1794 0.46197426
1792 0.51283878
1790 0.47435856
1788 0.35337019
1786 0.19358972
1784 0.041215394
1782 -0.062812477
1780 -0.088623896
1778 -0.01737274
1776 0.15291479
1774 0.4012
1772 0.65085357
1770 0.79760313
1768 0.78364527
1766 0.60831791
1764 0.35934141
1762 0.16200486
1760 0.046937648
1758 -0.022654952
1756 -0.044732213
1754 0.016901098
1752 0.1791345
1750 0.42878211
1748 0.70277768
1746 0.91122711
1744 0.99741477
1742 0.95020986
1740 0.8343755
1738 0.75072503
1736 0.72408402
1734 0.70921618
1732 0.63467681
1730 0.43775734
1728 0.14570965
1726 -0.14205596
1724 -0.31584185
1722 -0.27565309
1720 0.044163659
1718 0.658077
1716 1.4631305
1714 2.2878411
1712 3.0480354
1710 3.7643349
1708 4.5667658
1706 5.6547785
1704 7.2079029
1702 9.3581734
1700 12.143591
1698 15.482653
1696 19.070572
1694 22.48077
1692 25.499449
1690 28.172781
1688 30.8412
1686 34.019821
1684 38.056782
1682 43.010765
1680 48.376961
1678 53.343006
1676 57.721298
1674 61.916557
1672 66.335732
1670 71.18499
1668 76.180473
1666 80.699005
1664 84.394127
1662 87.251572
1660 89.390022
1658 90.977844
1656 92.134369
1654 92.91452
1652 93.312561
1650 93.276901
1648 92.754845
1646 91.733818
1644 90.357986
1642 88.874771
1640 87.365189
1638 85.72068
1636 83.749245
1634 81.248634
1632 78.186363
1630 74.685577
1628 70.84623
1626 66.712936
1624 62.310837
1622 57.673859
1620 52.90723
1618 48.181614
1616 43.663315
1614 39.498009
1612 35.807198
1610 32.674011
1608 30.079805
1606 27.913294
1604 26.071768
1602 24.486683
1600 23.137989
1598 22.046631
1596 21.2295
1594 20.686583
1592 20.395498
1590 20.320393
1588 20.445698
1586 20.779829
1584 21.341137
1582 22.159889
1580 23.301754
1578 24.859882
1576 26.886028
1574 29.362087
1572 32.166359
1570 35.095364
1568 37.998119
1566 40.802723
1564 43.464027
1562 45.985634
1560 48.570427
1558 51.533165
1556 54.73814
1554 57.571911
1552 59.550961
1550 60.50552
1548 60.627979
1546 60.379822
1544 59.946632
1542 59.148193
1540 57.772141
1538 55.7085
1536 53.139942
1534 50.521614
1532 48.164745
1530 46.138023
1528 44.404358
1526 42.8536
1524 41.324707
1522 39.625443
1520 37.614189
1518 35.248741
1516 32.673573
1514 30.189409
1512 27.92552
1510 25.764248
1508 23.521967
1506 21.039309
1504 18.380024
1502 15.842695
1500 13.615728
1498 11.68932
1496 9.9906425
1494 8.4291477
1492 6.9511023
1490 5.5490198
1488 4.2016735
1486 2.8759878
1484 1.624648
1482 0.60239887
1480 -0.059894979
1478 -0.28818974
1476 -0.015892982
1474 0.8001551
1472 2.0463338
1470 3.4359481
1468 4.7585344
1466 5.9597754
1464 7.0706286
1462 8.1867647
1460 9.4022655
1458 10.767487
1456 12.1968
1454 13.447899
1452 14.303194
1450 14.642
1448 14.477977
1446 13.972608
1444 13.286255
1442 12.52614
1440 11.752468
1438 10.97448
1436 10.169692
1434 9.2959299
1432 8.356761
1430 7.4218569
1428 6.5759802
1426 5.8974886
1424 5.4267268
1422 5.1498928
1420 5.0240903
1418 4.9868984
1416 4.9969225
1414 5.0516381
1412 5.1756229
1410 5.4146004
1408 5.790607
1406 6.2828593
1404 6.8482141
1402 7.4232063
1400 7.930192
1398 8.2809801
1396 8.4044714
1394 8.267684
1392 7.8989325
1390 7.4007454
1388 6.8706841
1386 6.3705449
1384 5.9318295
1382 5.5518761
1380 5.2172604
1378 4.9069386
1376 4.580523
1374 4.1765776
1372 3.6600759
1370 3.0466871
1368 2.3813131
1366 1.7314422
1364 1.1407292
1362 0.61123002
1360 0.15326293
1358 -0.19598828
1356 -0.3947137
1354 -0.40667978
1352 -0.21658058
1350 0.15744394
1348 0.67673504
1346 1.2854108
1344 1.9447241
1342 2.6437078
1340 3.3442121
1338 3.9555199
1336 4.3821139
1334 4.5497317
1332 4.4474463
1330 4.1574697
1328 3.7696669
1326 3.3507342
1324 2.957144
1322 2.6346984
1320 2.412132
1318 2.2900665
1316 2.23999
1314 2.1973014
1312 2.1029582
1310 1.9250612
1308 1.6639555
1306 1.3643308
1304 1.0819325
1302 0.87144423
1300 0.77141881
1298 0.7923581
1296 0.93383569
1294 1.1878848
1292 1.5470337
1290 2.0058722
1288 2.548084
1286 3.1371722
1284 3.7292881
1282 4.2773027
1280 4.7453079
1278 5.1198211
1276 5.3997812
1274 5.5983572
1272 5.7369847
1270 5.8468714
1268 5.9648333
1266 6.1325078
1264 6.3853221
1262 6.7434483
1260 7.2154698
1258 7.7956042
1256 8.4769258
1254 9.2566986
1252 10.131165
1250 11.09242
1248 12.125531
1246 13.2005
1244 14.282728
1242 15.328413
1240 16.288298
1238 17.103916
1236 17.712029
1234 18.052834
1232 18.079041
1230 17.768776
1228 17.126026
1226 16.19088
1224 15.024132
1222 13.712917
1220 12.359282
1218 11.07513
1216 9.9590683
1214 9.0777731
1212 8.4703875
1210 8.138257
1208 8.0537214
1206 8.1462803
1204 8.3216858
1202 8.4589405
1200 8.4480515
1198 8.2192955
1196 7.7459354
1194 7.0724936
1192 6.2720346
1190 5.4396901
1188 4.6585846
1186 3.9730885
1184 3.4047189
1182 2.9458468
1180 2.5833251
1178 2.3075359
1176 2.1087799
1174 1.9760853
1172 1.8963766
1170 1.8535573
1168 1.8354166
1166 1.8400464
1164 1.8621857
1162 1.88316
1160 1.8760852
1158 1.8049386
1156 1.6489757
1154 1.4280467
1152 1.1749597
1150 0.92931837
1148 0.71747822
1146 0.53301179
1144 0.36780196
1142 0.22734794
1140 0.11476038
1138 0.020394381
1136 -0.065747052
1134 -0.1471208
1132 -0.22400665
1130 -0.29211617
1128 -0.34027132
1126 -0.34510207
1124 -0.29671675
1122 -0.2244689
1120 -0.1639728
1118 -0.14122444
1116 -0.16254714
1114 -0.19285777
1112 -0.20046097
1110 -0.18641025
1108 -0.15804571
1106 -0.11760385
1104 -0.055149831
1102 0.064689726
1100 0.26358265
1098 0.51324201
1096 0.7766614
1094 1.0275301
1092 1.264992
1090 1.5454075
1088 1.9199994
1086 2.3894713
1084 2.920748
1082 3.4246986
1080 3.8098016
1078 4.01543
1076 4.0139513
1074 3.8463564
1072 3.5782304
1070 3.2952313
1068 3.0682251
1066 2.9132066
1064 2.819648
1062 2.7423208
1060 2.6405759
1058 2.5112519
1056 2.3676543
1054 2.2431877
1052 2.1645868
1050 2.12637
1048 2.1147022
1046 2.1137393
1044 2.1123471
1042 2.1128178
1040 2.1245468
1038 2.1665792
1036 2.2546299
1034 2.3867221
1032 2.5430703
1030 2.6634223
1028 2.688931
1026 2.5949392
1024 2.3786092
1022 2.0777731
1020 1.7373481
1018 1.3928313
1016 1.0756193
1014 0.81173211
1012 0.62142545
1010 0.51128572
1008 0.47415879
1006 0.47104073
1004 0.45495796
1002 0.37910983
1000 0.20821589
998 -0.056462198
996 -0.39366642
994 -0.74747336
992 -1.0561337
990 -1.2678301
988 -1.3526583
986 -1.3442578
984 -1.2881994
982 -1.2167877
980 -1.144846
978 -1.0403996
976 -0.87407285
974 -0.66337574
972 -0.44316003
970 -0.26744896
968 -0.18110269
966 -0.181943
964 -0.2509197
962 -0.35119179
960 -0.44486731
958 -0.50567633
956 -0.51558799
954 -0.47502646
952 -0.39077282
950 -0.27603221
948 -0.15039179
946 -0.049893979
944 -0.0013088249
942 0.016143478
940 0.027888343
938 0.033606507
936 0.025987912
934 -0.0043074936
932 -0.062166214
930 -0.13423714
928 -0.2003668
926 -0.23224901
924 -0.2095366
922 -0.14920822
920 -0.076093584
918 -0.0094819702
916 0.035380471
914 0.053326566
912 0.034338918
910 -0.059691578
908 -0.24968052
906 -0.46234035
904 -0.59109724
902 -0.49134856
900 -0.066394687
898 0.55268431
896 1.1778001
