Image.
>Pix99999.
  .
5555
5555
2300
900
5555
2
1
0
701
5555
2.6115000e-002
2.6670206e-002
2.7224414e-002
2.7779618e-002
2.8333828e-002
2.8889028e-002
2.9444233e-002
2.9998450e-002
3.0553646e-002
3.1108851e-002
3.1663071e-002
3.2218263e-002
3.2773469e-002
3.3327691e-002
3.3882879e-002
3.4437109e-002
3.4992293e-002
3.5550427e-002
3.6101807e-002
3.6645234e-002
3.7211772e-002
3.7811939e-002
3.8323004e-002
3.8707484e-002
3.9424971e-002
3.8305394e-002
2.2032117e-002
-2.1359304e-002
-8.5857078e-002
-1.5944275e-001
-2.2646628e-001
-2.7404788e-001
-3.0451000e-001
-3.2323107e-001
-3.3003643e-001
-3.2559001e-001
-3.2053074e-001
-3.2689053e-001
-3.5067588e-001
-3.9177445e-001
-4.3278658e-001
-4.5594499e-001
-4.6275780e-001
-4.6201187e-001
-4.6797520e-001
-4.9067807e-001
-5.1649207e-001
-5.2860135e-001
-5.2689099e-001
-5.1890731e-001
-5.2172786e-001
-5.5032349e-001
-5.9924299e-001
-6.5605325e-001
-7.0606297e-001
-7.3579055e-001
-7.3906720e-001
-7.1385336e-001
-6.6527593e-001
-6.0247511e-001
-5.4171085e-001
-5.0035262e-001
-4.9094838e-001
-5.1932615e-001
-5.7052600e-001
-6.2337786e-001
-6.5939224e-001
-6.6655463e-001
-6.5516967e-001
-6.4151442e-001
-6.3565099e-001
-6.4404583e-001
-6.6773874e-001
-7.0641041e-001
-7.6151276e-001
-8.3381569e-001
-9.1834372e-001
-1.0086867e+000
-1.1008040e+000
-1.1897895e+000
-1.2635715e+000
-1.3098243e+000
-1.3253943e+000
-1.3141074e+000
-1.2960320e+000
-1.2911643e+000
-1.2949226e+000
-1.2940112e+000
-1.2783252e+000
-1.2447644e+000
-1.2137086e+000
-1.2080600e+000
-1.2256925e+000
-1.2519863e+000
-1.2610539e+000
-1.2317364e+000
-1.1776446e+000
-1.1256087e+000
-1.1011280e+000
-1.1210521e+000
-1.1702286e+000
-1.2246932e+000
-1.2754852e+000
-1.3213491e+000
-1.3686982e+000
-1.4226350e+000
-1.4724799e+000
-1.5035353e+000
-1.5095760e+000
-1.4910724e+000
-1.4586056e+000
-1.4261060e+000
-1.4039479e+000
-1.3970102e+000
-1.3954629e+000
-1.3850207e+000
-1.3582217e+000
-1.3149053e+000
-1.2725294e+000
-1.2513070e+000
-1.2532885e+000
-1.2704293e+000
-1.2857729e+000
-1.2828597e+000
-1.2607172e+000
-1.2253965e+000
-1.1837680e+000
-1.1423749e+000
-1.1064634e+000
-1.0796256e+000
-1.0618900e+000
-1.0507715e+000
-1.0398121e+000
-1.0226340e+000
-1.0001875e+000
-9.7542650e-001
-9.4623941e-001
-9.0763557e-001
-8.5285538e-001
-7.7800709e-001
-6.9411004e-001
-6.1977047e-001
-5.7689387e-001
-5.8249485e-001
-6.2801421e-001
-6.9116759e-001
-7.4144524e-001
-7.5048381e-001
-7.1225566e-001
-6.3430065e-001
-5.3679574e-001
-4.4308493e-001
-3.6760449e-001
-3.1737298e-001
-2.8731319e-001
-2.6785377e-001
-2.5351295e-001
-2.4228191e-001
-2.3687254e-001
-2.3912780e-001
-2.3800571e-001
-2.1723370e-001
-1.6554917e-001
-8.0388978e-002
1.6000805e-002
9.2406094e-002
1.3104287e-001
1.2711532e-001
9.9333994e-002
7.3469803e-002
5.7196002e-002
4.7714002e-002
4.0125117e-002
3.1720042e-002
3.0671611e-002
4.8167501e-002
8.4151477e-002
1.3121392e-001
1.7718257e-001
2.1013218e-001
2.2786313e-001
2.3471712e-001
2.4040361e-001
2.5608456e-001
2.8863913e-001
3.4056020e-001
4.0615481e-001
4.7415900e-001
5.2729619e-001
5.4915822e-001
5.3984201e-001
5.1094520e-001
4.8393032e-001
4.8069176e-001
5.0496179e-001
5.4829204e-001
5.9467077e-001
6.2817889e-001
6.4778018e-001
6.6236866e-001
6.8641716e-001
7.3328358e-001
8.0107772e-001
8.7703490e-001
9.3980151e-001
9.6822631e-001
9.6005720e-001
9.2650193e-001
8.8823742e-001
8.6865389e-001
8.8346899e-001
9.4080186e-001
1.0369155e+000
1.1563642e+000
1.2607737e+000
1.3055199e+000
1.2756159e+000
1.1817820e+000
1.0648534e+000
9.7478306e-001
9.2899400e-001
9.2199928e-001
9.4129181e-001
9.7329283e-001
1.0091392e+000
1.0425143e+000
1.0642438e+000
1.0659161e+000
1.0513560e+000
1.0336268e+000
1.0311557e+000
1.0608400e+000
1.1200961e+000
1.1911013e+000
1.2431934e+000
1.2447778e+000
1.1894486e+000
1.0903538e+000
9.7165561e-001
8.5889482e-001
7.6065570e-001
6.7395687e-001
5.9633869e-001
5.2955282e-001
4.8688218e-001
4.8421499e-001
5.1554060e-001
5.5965620e-001
5.9647286e-001
6.1325419e-001
6.1872214e-001
6.3100713e-001
6.4642203e-001
6.4755398e-001
6.3000232e-001
6.0161650e-001
5.7617539e-001
5.6812125e-001
5.8252609e-001
6.1828613e-001
6.7722601e-001
7.5692958e-001
8.2211626e-001
8.2033205e-001
7.2833341e-001
5.5581874e-001
3.5453600e-001
1.8809374e-001
5.0858740e-002
-1.0335996e-001
-2.6165301e-001
-3.6891282e-001
-4.0606731e-001
-3.9109379e-001
-3.6030293e-001
-3.5327357e-001
-3.8337612e-001
-4.3817630e-001
-4.8112386e-001
-4.6853709e-001
-3.9370200e-001
-2.8520402e-001
-1.9693512e-001
-1.8512896e-001
-2.4779560e-001
-3.3187959e-001
-3.6273491e-001
-2.6106969e-001
2.8433368e-002
5.2628589e-001
1.1833335e+000
1.9011329e+000
2.5893924e+000
3.1984608e+000
3.8031418e+000
4.5789833e+000
5.7247133e+000
7.4391589e+000
9.9051027e+000
1.3203230e+001
1.6993286e+001
2.0654011e+001
2.3828169e+001
2.6501812e+001
2.9032412e+001
3.1992134e+001
3.5738163e+001
4.0291069e+001
4.5112122e+001
4.9378464e+001
5.2941502e+001
5.6281200e+001
5.9861992e+001
6.3943165e+001
6.8375702e+001
7.2728600e+001
7.6777916e+001
8.0537338e+001
8.4054344e+001
8.7370399e+001
9.0534286e+001
9.3576492e+001
9.6407539e+001
9.8801468e+001
1.0038531e+002
1.0077679e+002
1.0007427e+002
9.8772232e+001
9.7149086e+001
9.5182434e+001
9.2703682e+001
8.9516792e+001
8.5682350e+001
8.1487000e+001
7.7121651e+001
7.2635582e+001
6.8029518e+001
6.3305157e+001
5.8561085e+001
5.3977272e+001
4.9683342e+001
4.5742630e+001
4.2207966e+001
3.9124931e+001
3.6483578e+001
3.4220016e+001
3.2270153e+001
3.0582262e+001
2.9125650e+001
2.7887381e+001
2.6850000e+001
2.5990112e+001
2.5287298e+001
2.4727604e+001
2.4308483e+001
2.4036892e+001
2.3917850e+001
2.3955799e+001
2.4171389e+001
2.4599466e+001
2.5257399e+001
2.6133537e+001
2.7171177e+001
2.8276274e+001
2.9384920e+001
3.0480642e+001
3.1590557e+001
3.2807186e+001
3.4362419e+001
3.6543552e+001
3.9248402e+001
4.1962608e+001
4.4244553e+001
4.5884804e+001
4.6997841e+001
4.7965607e+001
4.9016846e+001
5.0118649e+001
5.1060059e+001
5.1523277e+001
5.1326714e+001
5.0499119e+001
4.9252811e+001
4.7922436e+001
4.6682446e+001
4.5492500e+001
4.4271008e+001
4.2947556e+001
4.1477242e+001
3.9852272e+001
3.8130100e+001
3.6415634e+001
3.4708519e+001
3.2868576e+001
3.0712420e+001
2.8086100e+001
2.5086977e+001
2.2078312e+001
1.9327797e+001
1.6901510e+001
1.4738857e+001
1.2693327e+001
1.0681317e+001
8.7173738e+000
6.8330412e+000
5.0584970e+000
3.4476960e+000
2.0809746e+000
1.0252156e+000
3.2906127e-001
6.6992268e-002
3.2021880e-001
1.0099463e+000
1.8685820e+000
2.6841221e+000
3.3826323e+000
3.9939690e+000
4.6336403e+000
5.3770547e+000
6.2075939e+000
7.0078602e+000
7.5760460e+000
7.8102522e+000
7.7658134e+000
7.5339403e+000
7.2029858e+000
6.8316779e+000
6.4399052e+000
6.0395885e+000
5.6380424e+000
5.2141886e+000
4.7180147e+000
4.1387429e+000
3.5298853e+000
2.9691401e+000
2.5414851e+000
2.2966862e+000
2.2304142e+000
2.3099177e+000
2.4807458e+000
2.6923084e+000
2.9111500e+000
3.1359048e+000
3.4027877e+000
3.7417285e+000
4.1593671e+000
4.6439881e+000
5.1647930e+000
5.6849918e+000
6.1659865e+000
6.5705643e+000
6.8668633e+000
7.0394864e+000
7.0952659e+000
7.0428472e+000
6.8863101e+000
6.6282325e+000
6.2726111e+000
5.8349032e+000
5.3477736e+000
4.8473573e+000
4.3681083e+000
3.9374580e+000
3.5680809e+000
3.2455080e+000
2.9192908e+000
2.5388191e+000
2.0728524e+000
1.5367154e+000
1.0091341e+000
5.6579959e-001
2.5081024e-001
7.3774680e-002
2.7069366e-003
7.8500956e-003
7.7785857e-002
2.0520160e-001
3.7950456e-001
5.7008898e-001
7.1900821e-001
7.8472632e-001
7.6551574e-001
6.8707854e-001
6.0249048e-001
5.5358464e-001
5.5303735e-001
6.0470760e-001
7.0802665e-001
8.5736680e-001
1.0393260e+000
1.2329199e+000
1.4085871e+000
1.5426954e+000
1.6265098e+000
1.6605477e+000
1.6558322e+000
1.6252686e+000
1.5806190e+000
1.5336934e+000
1.4969957e+000
1.4833429e+000
1.5054662e+000
1.5724969e+000
1.6862856e+000
1.8419321e+000
2.0259786e+000
2.2244987e+000
2.4272115e+000
2.6279376e+000
2.8261437e+000
3.0205357e+000
3.2069030e+000
3.3842852e+000
3.5602665e+000
3.7513194e+000
3.9859719e+000
4.2910786e+000
4.6833200e+000
5.1678500e+000
5.7316852e+000
6.3554626e+000
7.0160928e+000
7.6950011e+000
8.3845139e+000
9.0820084e+000
9.7891502e+000
1.0503977e+001
1.1215000e+001
1.1901222e+001
1.2526068e+001
1.3049000e+001
1.3425908e+001
1.3622280e+001
1.3620544e+001
1.3421557e+001
1.3052857e+001
1.2548006e+001
1.1942383e+001
1.1268223e+001
1.0551122e+001
9.8122740e+000
9.0717630e+000
8.3471231e+000
7.6551752e+000
7.0101056e+000
6.4201560e+000
5.8826780e+000
5.3749461e+000
4.8668323e+000
4.3240170e+000
3.7269499e+000
3.0900764e+000
2.4421039e+000
1.8249201e+000
1.2753869e+000
8.1284523e-001
4.4676948e-001
1.7443001e-001
-1.1074133e-002
-1.1944053e-001
-1.6158800e-001
-1.4996742e-001
-9.9872962e-002
-3.1669386e-002
3.5634849e-002
8.9401014e-002
1.2358997e-001
1.4340860e-001
1.5545137e-001
1.6307202e-001
1.6609114e-001
1.5825789e-001
1.3400097e-001
9.2996970e-002
3.9905917e-002
-1.2079742e-002
-4.7838565e-002
-5.3211860e-002
-2.0354442e-002
4.5355752e-002
1.4429343e-001
2.9680932e-001
5.1893330e-001
8.0486602e-001
1.1412349e+000
1.5089942e+000
1.8876946e+000
2.2560706e+000
2.5948119e+000
2.8896978e+000
3.1386871e+000
3.3653071e+000
3.5914853e+000
3.8200724e+000
4.0502071e+000
4.2839952e+000
4.5335441e+000
4.8315010e+000
5.1989236e+000
5.6146631e+000
6.0464287e+000
6.4616499e+000
6.8451762e+000
7.2267771e+000
7.6353421e+000
8.0689573e+000
8.5074883e+000
8.9042501e+000
9.2209892e+000
9.4589052e+000
9.6306057e+000
9.7534590e+000
9.8401375e+000
9.8877420e+000
9.8965111e+000
9.8849363e+000
9.8720121e+000
9.8652630e+000
9.8605242e+000
9.8287277e+000
9.7395687e+000
9.5772343e+000
9.3352814e+000
9.0256624e+000
8.6679058e+000
8.2907286e+000
7.9234099e+000
7.5897031e+000
7.3069878e+000
7.0766807e+000
6.8907199e+000
6.7240825e+000
6.5413980e+000
6.2902279e+000
5.9284267e+000
5.4575410e+000
4.9028263e+000
4.3274579e+000
3.7889078e+000
3.3006084e+000
2.8599343e+000
2.4491038e+000
2.0522828e+000
1.6706390e+000
1.3125960e+000
9.9647713e-001
7.4129486e-001
5.5919230e-001
4.4872135e-001
3.7054932e-001
2.7945215e-001
1.4174435e-001
-6.0661227e-002
-3.0532426e-001
-5.6467187e-001
-8.2654136e-001
-1.0806268e+000
-1.3102362e+000
-1.4929740e+000
-1.5943415e+000
-1.5877143e+000
-1.4839716e+000
-1.3027420e+000
-1.0619807e+000
-7.7616811e-001
-4.5085400e-001
-9.9895999e-002
2.2674525e-001
4.7520876e-001
6.0962427e-001
6.1544573e-001
5.3632838e-001
4.2403761e-001
3.0824620e-001
2.0807335e-001
1.2478764e-001
5.5522777e-002
-1.0372009e-003
-2.9403273e-002
4.4156224e-002
2.7596942e-001
6.0660994e-001
9.4920278e-001
1.2222846e+000
1.3672119e+000
1.4057672e+000
1.3858160e+000
1.3779142e+000
1.4387372e+000
1.5518020e+000
1.6784728e+000
1.7664838e+000
1.7803919e+000
1.7624520e+000
1.7681255e+000
1.8298514e+000
1.9631138e+000
2.1403184e+000
2.3310874e+000
2.5364273e+000
2.7653000e+000
