Image.
>Pix99999.
  .
5555
5555
2300
900
5555
2
1
0
701
5555
4.1154001e-002
4.2010773e-002
4.2866554e-002
4.3722328e-002
4.4579096e-002
4.5434881e-002
4.6291646e-002
4.7147430e-002
4.8003208e-002
4.8858982e-002
4.9715742e-002
5.0575469e-002
5.1428359e-002
5.2272305e-002
5.3140599e-002
5.4039691e-002
5.4853417e-002
5.5547196e-002
5.6560695e-002
5.8022939e-002
5.8295172e-002
5.6893561e-002
5.9917465e-002
6.9181651e-002
6.1997127e-002
2.3894357e-002
8.3545427e-004
4.0990509e-002
1.3318700e-001
2.4741618e-001
3.4574112e-001
4.0008590e-001
4.3054235e-001
4.6543059e-001
5.1038951e-001
5.6340599e-001
6.1875415e-001
6.7089933e-001
7.1920508e-001
7.6276422e-001
7.9371089e-001
8.0492020e-001
8.0080056e-001
7.8982842e-001
7.8286988e-001
7.8761518e-001
7.9613566e-001
7.9884624e-001
7.9890686e-001
8.0536354e-001
8.3495140e-001
9.0155226e-001
9.9796879e-001
1.1095594e+000
1.2178608e+000
1.3048899e+000
1.3589801e+000
1.3751333e+000
1.3691380e+000
1.3649286e+000
1.3939486e+000
1.4821435e+000
1.6240977e+000
1.8003540e+000
1.9772263e+000
2.1211257e+000
2.2171636e+000
2.2586255e+000
2.2475641e+000
2.1909227e+000
2.1039901e+000
2.0090067e+000
1.9438566e+000
1.9427848e+000
2.0017073e+000
2.0985999e+000
2.1918571e+000
2.2423949e+000
2.2466004e+000
2.2154500e+000
2.1667714e+000
2.1175816e+000
2.0735841e+000
2.0339479e+000
1.9885560e+000
1.9302857e+000
1.8790551e+000
1.8604649e+000
1.8834423e+000
1.9432120e+000
2.0047314e+000
2.0294781e+000
2.0092435e+000
1.9490888e+000
1.8606677e+000
1.7591057e+000
1.6671840e+000
1.6090581e+000
1.6041081e+000
1.6617668e+000
1.7590572e+000
1.8610685e+000
1.9363688e+000
1.9639277e+000
1.9589818e+000
1.9505451e+000
1.9661018e+000
2.0234020e+000
2.1038170e+000
2.1758845e+000
2.2137716e+000
2.2028129e+000
2.1628401e+000
2.1249406e+000
2.1106286e+000
2.1284721e+000
2.1511550e+000
2.1420739e+000
2.0876188e+000
1.9913609e+000
1.8868001e+000
1.8141259e+000
1.7899840e+000
1.8177161e+000
1.8891234e+000
1.9905821e+000
2.1061139e+000
2.2184887e+000
2.3091376e+000
2.3656857e+000
2.4028299e+000
2.4451282e+000
2.5073600e+000
2.5892360e+000
2.6485159e+000
2.6336787e+000
2.5311754e+000
2.3552465e+000
2.1611414e+000
2.0101597e+000
1.9152600e+000
1.8637621e+000
1.8316437e+000
1.7978500e+000
1.7708428e+000
1.7710122e+000
1.8112592e+000
1.8953650e+000
2.0074205e+000
2.1206748e+000
2.1999142e+000
2.2167253e+000
2.1854944e+000
2.1420045e+000
2.1256700e+000
2.1651421e+000
2.2389159e+000
2.3064234e+000
2.3482096e+000
2.3598323e+000
2.3488657e+000
2.3239710e+000
2.2765582e+000
2.1934693e+000
2.0800376e+000
1.9527721e+000
1.8347765e+000
1.7465334e+000
1.6873480e+000
1.6471639e+000
1.6231056e+000
1.6183511e+000
1.6434423e+000
1.7055799e+000
1.7819865e+000
1.8366500e+000
1.8448818e+000
1.7976760e+000
1.7229649e+000
1.6637995e+000
1.6478742e+000
1.6869630e+000
1.7663159e+000
1.8590212e+000
1.9425241e+000
2.0031550e+000
2.0507364e+000
2.1036932e+000
2.1630709e+000
2.2174330e+000
2.2459986e+000
2.2284949e+000
2.1645279e+000
2.0655944e+000
1.9464103e+000
1.8237250e+000
1.7207680e+000
1.6625985e+000
1.6669377e+000
1.7387731e+000
1.8471286e+000
1.9431878e+000
1.9876662e+000
1.9595450e+000
1.8855926e+000
1.8148822e+000
1.7768575e+000
1.7818180e+000
1.8164388e+000
1.8572780e+000
1.8904001e+000
1.9111360e+000
1.9254720e+000
1.9449449e+000
1.9813460e+000
2.0399899e+000
2.0985053e+000
2.1207061e+000
2.0822365e+000
1.9750899e+000
1.8250543e+000
1.6773577e+000
1.5745621e+000
1.5472912e+000
1.5887840e+000
1.6668249e+000
1.7364151e+000
1.7544404e+000
1.7104806e+000
1.6168969e+000
1.4937443e+000
1.3653750e+000
1.2634629e+000
1.2195232e+000
1.2456857e+000
1.3318843e+000
1.4257954e+000
1.4587426e+000
1.4045960e+000
1.2751386e+000
1.1155229e+000
9.8264372e-001
9.0466201e-001
8.8479304e-001
9.0806252e-001
9.5003951e-001
9.8690832e-001
9.9772638e-001
9.6755928e-001
8.8695401e-001
7.5381786e-001
5.7735789e-001
3.9752358e-001
2.7063271e-001
2.3484883e-001
3.0150586e-001
4.2787331e-001
5.4607004e-001
6.3513702e-001
7.0836812e-001
7.6614511e-001
7.9099923e-001
7.4671161e-001
6.0131109e-001
3.9489213e-001
2.1168914e-001
9.7022779e-002
4.9843088e-002
1.5653497e-002
-7.5166404e-002
-2.0604058e-001
-3.0122486e-001
-3.2100022e-001
-2.6965982e-001
-1.9123946e-001
-1.4707714e-001
-1.6590898e-001
-2.4198984e-001
-3.3730263e-001
-4.0076339e-001
-4.1444600e-001
-3.9268446e-001
-3.7086993e-001
-3.8665593e-001
-4.3257406e-001
-4.6421537e-001
-4.3287122e-001
-2.9621601e-001
-3.2650821e-002
3.6215359e-001
8.8512117e-001
1.5183266e+000
2.1899056e+000
2.8100264e+000
3.4006639e+000
4.0869694e+000
5.0357633e+000
6.4269423e+000
8.4151440e+000
1.1069467e+001
1.4162857e+001
1.7265530e+001
2.0095751e+001
2.2588352e+001
2.4964281e+001
2.7625935e+001
3.0849377e+001
3.4682735e+001
3.8758080e+001
4.2485126e+001
4.5754288e+001
4.8912064e+001
5.2321331e+001
5.6215908e+001
6.0498283e+001
6.4831497e+001
6.9013336e+001
7.3002594e+001
7.6769951e+001
8.0283485e+001
8.3578377e+001
8.6739342e+001
8.9805580e+001
9.2713539e+001
9.5147522e+001
9.6654747e+001
9.7132233e+001
9.6810104e+001
9.5866783e+001
9.4356781e+001
9.2263947e+001
8.9560623e+001
8.6366608e+001
8.2917465e+001
7.9327820e+001
7.5577675e+001
7.1645477e+001
6.7545883e+001
6.3354759e+001
5.9191132e+001
5.5145660e+001
5.1279018e+001
4.7676037e+001
4.4439110e+001
4.1607880e+001
3.9154205e+001
3.7030708e+001
3.5186127e+001
3.3576702e+001
3.2167614e+001
3.0929501e+001
2.9838463e+001
2.8878567e+001
2.8042822e+001
2.7333185e+001
2.6760571e+001
2.6341389e+001
2.6097971e+001
2.6070393e+001
2.6311447e+001
2.6848143e+001
2.7661135e+001
2.8652620e+001
2.9661392e+001
3.0572599e+001
3.1347000e+001
3.2016415e+001
3.2702980e+001
3.3683434e+001
3.5312614e+001
3.7609570e+001
4.0203629e+001
4.2645664e+001
4.4556271e+001
4.5909451e+001
4.7034752e+001
4.8209572e+001
4.9534382e+001
5.0899601e+001
5.2005497e+001
5.2547314e+001
5.2319836e+001
5.1435020e+001
5.0309631e+001
4.9215839e+001
4.8174301e+001
4.7114777e+001
4.5931870e+001
4.4561451e+001
4.3006042e+001
4.1338245e+001
3.9667969e+001
3.7966999e+001
3.6044544e+001
3.3720303e+001
3.0909899e+001
2.7777327e+001
2.4723507e+001
2.1997486e+001
1.9591930e+001
1.7394142e+001
1.5240974e+001
1.3040380e+001
1.0803061e+001
8.5742655e+000
6.4239335e+000
4.4604878e+000
2.8190122e+000
1.5514176e+000
6.2291569e-001
1.1187143e-001
2.1547842e-001
9.0318269e-001
1.8475301e+000
2.8030832e+000
3.7179828e+000
4.6119328e+000
5.5269794e+000
6.4192657e+000
7.1323581e+000
7.5181999e+000
7.4990501e+000
7.1571183e+000
6.7413025e+000
6.4008608e+000
6.1086359e+000
5.8258042e+000
5.5478888e+000
5.2707005e+000
4.9775343e+000
4.6334186e+000
4.1910400e+000
3.6470566e+000
3.0613551e+000
2.5036440e+000
2.0334208e+000
1.6834874e+000
1.4542389e+000
1.3497266e+000
1.3871019e+000
1.5758514e+000
1.9064620e+000
2.3416924e+000
2.8147774e+000
3.2727463e+000
3.6937735e+000
4.0742106e+000
4.4253263e+000
4.7535639e+000
5.0525374e+000
5.3070574e+000
5.4940372e+000
5.5965490e+000
5.6100979e+000
5.5363522e+000
5.3828750e+000
5.1620035e+000
4.8914537e+000
4.5901837e+000
4.2772388e+000
3.9707544e+000
3.6862557e+000
3.4314580e+000
3.2001679e+000
2.9651067e+000
2.6750014e+000
2.2943435e+000
1.8260467e+000
1.3138604e+000
8.4654355e-001
4.8928887e-001
2.5100785e-001
1.0853453e-001
1.2450054e-002
-6.4925894e-002
-1.0807286e-001
-9.6471198e-002
-2.2075582e-002
9.0991765e-002
1.7600583e-001
1.8534400e-001
1.2104492e-001
1.4012840e-002
-7.9624936e-002
-1.2106349e-001
-1.0927045e-001
-5.0614975e-002
5.0100856e-002
1.8666394e-001
3.4872374e-001
5.1784599e-001
6.6512299e-001
7.6883197e-001
8.2518101e-001
8.4492892e-001
8.5520524e-001
8.7719953e-001
9.1417938e-001
9.5739400e-001
9.8612082e-001
9.8834145e-001
9.7264999e-001
9.5624250e-001
9.6158689e-001
1.0025040e+000
1.0751058e+000
1.1698338e+000
1.2744706e+000
1.3784188e+000
1.4749297e+000
1.5607529e+000
1.6376721e+000
1.7159475e+000
1.8183835e+000
1.9660075e+000
2.1697958e+000
2.4289179e+000
2.7259808e+000
3.0465941e+000
3.3898649e+000
3.7650371e+000
4.1931915e+000
4.6902590e+000
5.2558532e+000
5.8776784e+000
6.5281000e+000
7.1785145e+000
7.8047218e+000
8.3857431e+000
8.9051218e+000
9.3466587e+000
9.6939783e+000
9.9355516e+000
1.0069644e+001
1.0100277e+001
1.0039583e+001
9.8946953e+000
9.6623440e+000
9.3393650e+000
8.9307842e+000
8.4510775e+000
7.9296288e+000
7.3945651e+000
6.8632555e+000
6.3428826e+000
5.8255367e+000
5.3024459e+000
4.7706900e+000
4.2327642e+000
3.6983910e+000
3.1759000e+000
2.6673183e+000
2.1735759e+000
1.6968850e+000
1.2423077e+000
8.2020789e-001
4.4339275e-001
1.2716949e-001
-1.1311822e-001
-2.6440492e-001
-3.2257798e-001
-3.0246490e-001
-2.2778828e-001
-1.3097307e-001
-3.8077060e-002
4.3521639e-002
1.1095649e-001
1.6090250e-001
1.8449292e-001
1.6234480e-001
8.6027548e-002
-2.2192299e-002
-1.3184085e-001
-2.1181297e-001
-2.4326780e-001
-2.3528178e-001
-1.9770274e-001
-1.2789999e-001
-3.0284405e-002
6.9250517e-002
1.5642142e-001
2.5639689e-001
4.0348661e-001
6.2977064e-001
9.5260024e-001
1.3549435e+000
1.8085500e+000
2.2789059e+000
2.7396281e+000
3.1878176e+000
3.6220558e+000
4.0317249e+000
4.4031372e+000
4.7238660e+000
4.9962802e+000
5.2599449e+000
5.5599332e+000
5.9306402e+000
6.3827915e+000
6.8729057e+000
7.3486142e+000
7.7692914e+000
8.1206160e+000
8.4476423e+000
8.8007593e+000
9.2051363e+000
9.6605682e+000
1.0117402e+001
1.0524212e+001
1.0856410e+001
1.1103143e+001
1.1275257e+001
1.1389680e+001
1.1463339e+001
1.1514635e+001
1.1571472e+001
1.1651760e+001
1.1749739e+001
1.1842857e+001
1.1881214e+001
1.1817228e+001
1.1629691e+001
1.1314425e+001
1.0897980e+001
1.0412304e+001
9.8899183e+000
9.3628635e+000
8.8684702e+000
8.4386311e+000
8.0869608e+000
7.8133597e+000
7.5900760e+000
7.3808985e+000
7.1446366e+000
6.8437753e+000
6.4569292e+000
5.9833789e+000
5.4724960e+000
4.9838395e+000
4.5683274e+000
4.2535973e+000
4.0023351e+000
3.7671177e+000
3.5179176e+000
3.2420521e+000
2.9666986e+000
2.7218077e+000
2.5150545e+000
2.3448205e+000
2.1977272e+000
2.0558071e+000
1.8967201e+000
1.6995549e+000
1.4520713e+000
1.1521300e+000
8.2281798e-001
4.9550477e-001
2.0757540e-001
-3.2913163e-003
-1.0391358e-001
-7.2240993e-002
8.0275461e-002
3.2449973e-001
6.0039914e-001
8.5048431e-001
1.0520250e+000
1.1985788e+000
1.3104870e+000
1.4065828e+000
1.4786260e+000
1.5075700e+000
1.4605933e+000
1.3091080e+000
1.0513868e+000
7.1228099e-001
3.8640821e-001
1.5565383e-001
-4.2711049e-003
-1.3312185e-001
-2.3164040e-001
-2.9796028e-001
-3.5563272e-001
-4.2566574e-001
-4.9669707e-001
-5.5763590e-001
-6.2807786e-001
-7.3237777e-001
-8.8407850e-001
-1.0907989e+000
-1.3475447e+000
-1.6359729e+000
-1.8984767e+000
-2.0655701e+000
-2.0607779e+000
-1.8376887e+000
-1.4749814e+000
-1.0813713e+000
-7.6244533e-001
-5.9154904e-001
-5.1784629e-001
-4.5934999e-001
