Image.
>Pix99999.
  .
5555
5555
2300
900
5555
2
1
0
701
5555
9.4765000e-002
9.6736185e-002
9.8707363e-002
1.0068153e-001
1.0264874e-001
1.0462586e-001
1.0659312e-001
1.0856030e-001
1.1053737e-001
1.1250467e-001
1.1448172e-001
1.1644904e-001
1.1842605e-001
1.2039342e-001
1.2236060e-001
1.2433757e-001
1.2630497e-001
1.2828192e-001
1.3024934e-001
1.3222626e-001
1.3419372e-001
1.3616090e-001
1.3813777e-001
1.4010526e-001
1.4208211e-001
1.4404963e-001
5.3771261e-002
1.9396028e-003
2.0130239e-002
9.5401116e-002
1.7864662e-001
1.8027079e-001
1.7457834e-001
1.3744396e-001
1.1123489e-001
1.8383349e-001
2.6623324e-001
3.7017679e-001
4.5602170e-001
4.8311344e-001
5.0182629e-001
5.0949824e-001
5.2545756e-001
5.5601501e-001
5.8486474e-001
6.1049324e-001
6.3625324e-001
6.6234422e-001
7.0608878e-001
7.6301771e-001
8.3412218e-001
9.1289514e-001
9.5997608e-001
9.9290407e-001
9.7333831e-001
9.3702936e-001
8.9796156e-001
8.5851806e-001
8.5337400e-001
8.5412490e-001
9.1824657e-001
9.9273258e-001
1.1190591e+000
1.2429030e+000
1.3241417e+000
1.3839049e+000
1.3806051e+000
1.3659549e+000
1.3384074e+000
1.3070247e+000
1.2711401e+000
1.2391052e+000
1.2133818e+000
1.2071276e+000
1.2218134e+000
1.2318143e+000
1.2356526e+000
1.1956830e+000
1.1256565e+000
1.0496336e+000
9.7202057e-001
9.4539893e-001
9.4043142e-001
9.6641707e-001
1.0016752e+000
1.0398250e+000
1.0784454e+000
1.1032538e+000
1.1260338e+000
1.1511579e+000
1.1818500e+000
1.2509760e+000
1.3198497e+000
1.3632256e+000
1.3803602e+000
1.3293922e+000
1.2716583e+000
1.2212455e+000
1.1907500e+000
1.1917939e+000
1.2014287e+000
1.2159925e+000
1.2452809e+000
1.2892168e+000
1.3264811e+000
1.3567899e+000
1.3345549e+000
1.2782937e+000
1.1948309e+000
1.0993199e+000
1.0253686e+000
9.6099454e-001
9.4202602e-001
9.3731952e-001
9.8498452e-001
1.0452064e+000
1.1196903e+000
1.1924657e+000
1.2217937e+000
1.2350110e+000
1.2070886e+000
1.1741832e+000
1.1515077e+000
1.1311669e+000
1.1104022e+000
1.0663679e+000
9.7664142e-001
8.7821615e-001
7.8113431e-001
7.2964758e-001
7.3400629e-001
7.6654750e-001
8.1622905e-001
8.3442581e-001
8.2474083e-001
7.8832406e-001
7.3723066e-001
7.1431118e-001
7.0688444e-001
7.1543515e-001
7.3038000e-001
7.0664006e-001
6.7046934e-001
6.3330191e-001
5.9930974e-001
6.1081880e-001
6.3889384e-001
6.9937408e-001
7.6867300e-001
8.3681124e-001
8.8835359e-001
8.8831347e-001
8.5938823e-001
7.9779160e-001
7.4996263e-001
7.4476182e-001
7.6630777e-001
8.1088364e-001
8.3958662e-001
8.4253371e-001
8.3349138e-001
8.1743258e-001
8.3729798e-001
8.8490540e-001
9.6966785e-001
1.0749661e+000
1.1413366e+000
1.1865891e+000
1.1677680e+000
1.1225678e+000
1.0978500e+000
1.0837002e+000
1.1320932e+000
1.1985886e+000
1.2313563e+000
1.2364249e+000
1.1535828e+000
1.0462292e+000
9.6355784e-001
9.1303694e-001
9.2997795e-001
9.5950472e-001
9.6876621e-001
9.5534033e-001
9.0991193e-001
8.9527458e-001
9.2937100e-001
1.0440176e+000
1.2345343e+000
1.4172360e+000
1.5811542e+000
1.6701736e+000
1.7049074e+000
1.7121794e+000
1.7069786e+000
1.6826800e+000
1.6498361e+000
1.5947708e+000
1.5311463e+000
1.4839704e+000
1.4479715e+000
1.4638629e+000
1.5010920e+000
1.5534639e+000
1.5983886e+000
1.5946257e+000
1.5645174e+000
1.5112160e+000
1.4594737e+000
1.4268525e+000
1.4097600e+000
1.4009100e+000
1.3948263e+000
1.3840557e+000
1.3714908e+000
1.3682543e+000
1.3720955e+000
1.3893629e+000
1.4001184e+000
1.3983643e+000
1.3771200e+000
1.3388810e+000
1.3352331e+000
1.3530197e+000
1.4085000e+000
1.4796071e+000
1.4557126e+000
1.3756589e+000
1.2024566e+000
9.8966867e-001
7.8378797e-001
5.9383082e-001
4.4450399e-001
3.5087788e-001
4.0000761e-001
5.3037906e-001
7.3334110e-001
9.0050387e-001
9.2687482e-001
8.5286510e-001
6.8999314e-001
5.2470577e-001
3.9794433e-001
3.1665620e-001
2.7775800e-001
2.5773200e-001
2.4515566e-001
2.5992239e-001
2.9383788e-001
3.7684855e-001
4.9454355e-001
5.9315896e-001
6.7929119e-001
7.0298296e-001
6.9457132e-001
6.5260863e-001
5.9501791e-001
5.1896173e-001
4.4471574e-001
4.3051970e-001
4.4233057e-001
4.2668605e-001
3.5238063e-001
1.6202471e-001
-4.5423217e-002
-1.4407514e-001
-1.4115199e-001
-4.9070783e-002
3.6314540e-002
-1.6309854e-002
-1.4426693e-001
-2.8515807e-001
-3.4426007e-001
-3.0377692e-001
-2.0062864e-001
-5.8889244e-002
8.6940490e-003
6.4640469e-003
-4.2692363e-002
-1.2279513e-001
-1.5126000e-001
-1.4343438e-001
-1.4454474e-001
-1.5404518e-001
-2.2537640e-001
-3.1915301e-001
-3.3481693e-001
-2.5377131e-001
-3.6604524e-002
2.6737350e-001
8.4727657e-001
1.6130134e+000
2.4176280e+000
3.2362990e+000
4.0175500e+000
4.9427543e+000
6.1572909e+000
7.8962240e+000
1.0278943e+001
1.3239861e+001
1.6678858e+001
1.9947130e+001
2.2786945e+001
2.5325680e+001
2.7652737e+001
3.0472364e+001
3.3841114e+001
3.7763721e+001
4.2114841e+001
4.5952232e+001
4.9313641e+001
5.2639973e+001
5.5999020e+001
5.9896816e+001
6.4192940e+001
6.8479500e+001
7.2694801e+001
7.6603256e+001
8.0205093e+001
8.3457909e+001
8.6437546e+001
8.9260101e+001
9.1927879e+001
9.4462120e+001
9.6358444e+001
9.7237534e+001
9.7236382e+001
9.6556122e+001
9.5358559e+001
9.3793938e+001
9.1580605e+001
8.8695343e+001
8.5375397e+001
8.1772446e+001
7.8093430e+001
7.4389854e+001
7.0441040e+001
6.6243927e+001
6.1987423e+001
5.7700523e+001
5.3508827e+001
4.9451290e+001
4.5765419e+001
4.2486549e+001
3.9672966e+001
3.7289413e+001
3.5157341e+001
3.3276218e+001
3.1602606e+001
3.0153048e+001
2.8916500e+001
2.7889353e+001
2.7038166e+001
2.6347675e+001
2.5783880e+001
2.5371778e+001
2.5110731e+001
2.5037399e+001
2.5151058e+001
2.5521517e+001
2.6163885e+001
2.7030689e+001
2.8107283e+001
2.9158800e+001
3.0135960e+001
3.1031643e+001
3.1846212e+001
3.2852566e+001
3.4116901e+001
3.5947437e+001
3.8313198e+001
4.0586761e+001
4.2680088e+001
4.4287571e+001
4.5477940e+001
4.6602608e+001
4.7667183e+001
4.8715042e+001
4.9589378e+001
5.0131336e+001
5.0277744e+001
5.0007992e+001
4.9518768e+001
4.8985134e+001
4.8389793e+001
4.7723400e+001
4.6828461e+001
4.5618114e+001
4.4011051e+001
4.1975670e+001
3.9925014e+001
3.7986195e+001
3.6176083e+001
3.4489883e+001
3.2342419e+001
2.9573565e+001
2.6652361e+001
2.3621712e+001
2.0995466e+001
1.8822340e+001
1.6683144e+001
1.4563332e+001
1.2410111e+001
1.0233403e+001
8.0974731e+000
6.0627980e+000
4.2183819e+000
2.6630754e+000
1.4582372e+000
6.3185954e-001
1.6872086e-001
2.1262142e-001
8.3916456e-001
1.6304901e+000
2.4445689e+000
3.2296715e+000
3.9211709e+000
4.6047449e+000
5.3091941e+000
5.8734446e+000
6.2143397e+000
6.2872891e+000
6.0048132e+000
5.7376242e+000
5.5233164e+000
5.3377466e+000
5.1804452e+000
4.9773850e+000
4.7065873e+000
4.4001451e+000
4.0232644e+000
3.5640085e+000
3.0123634e+000
2.4297912e+000
1.8773761e+000
1.4555771e+000
1.1887435e+000
1.0730397e+000
1.0648274e+000
1.1140556e+000
1.2074286e+000
1.3430200e+000
1.5599406e+000
1.8849386e+000
2.2822137e+000
2.7474165e+000
3.2221448e+000
3.6973438e+000
4.1479721e+000
4.5595531e+000
4.9143858e+000
5.1738291e+000
5.3484297e+000
5.3981090e+000
5.3969998e+000
5.3218150e+000
5.2120185e+000
5.0490680e+000
4.8464961e+000
4.5856080e+000
4.2854257e+000
3.9319980e+000
3.5591581e+000
3.1796057e+000
2.8243022e+000
2.4902244e+000
2.1462965e+000
1.7753273e+000
1.3579040e+000
9.3800932e-001
5.6899744e-001
2.7634668e-001
1.0512219e-001
1.1329744e-002
5.3389771e-003
2.2901122e-002
1.1580480e-001
2.3914723e-001
4.0677086e-001
5.5622667e-001
6.6660625e-001
7.1502954e-001
6.7767400e-001
6.3323373e-001
5.9124255e-001
6.0376757e-001
6.9334686e-001
8.5541761e-001
1.0995445e+000
1.3813213e+000
1.6815000e+000
1.9321483e+000
2.1232047e+000
2.2308133e+000
2.2780027e+000
2.2868078e+000
2.2783422e+000
2.2755721e+000
2.2848427e+000
2.3281453e+000
2.3930571e+000
2.4938745e+000
2.6044488e+000
2.7222648e+000
2.8378599e+000
2.9465907e+000
3.0612202e+000
3.1957972e+000
3.3385973e+000
3.5002213e+000
3.6602099e+000
3.8149650e+000
3.9780240e+000
4.1551962e+000
4.3540411e+000
4.5903664e+000
4.8586497e+000
5.1841292e+000
5.5879459e+000
6.0848432e+000
6.6614857e+000
7.2987156e+000
7.9346514e+000
8.5598803e+000
9.1493664e+000
9.7183247e+000
1.0281200e+001
1.0844107e+001
1.1419269e+001
1.1987670e+001
1.2524444e+001
1.3009362e+001
1.3341320e+001
1.3583477e+001
1.3580731e+001
1.3498407e+001
1.3201965e+001
1.2841243e+001
1.2326417e+001
1.1768801e+001
1.1130857e+001
1.0500172e+001
9.8893185e+000
9.3241568e+000
8.8225327e+000
8.3385353e+000
7.8642559e+000
7.3431129e+000
6.7682018e+000
6.1388578e+000
5.4732785e+000
4.8209367e+000
4.1926146e+000
3.6340940e+000
3.1234145e+000
2.6838007e+000
2.2848647e+000
1.9579080e+000
1.6730309e+000
1.4917413e+000
1.3548800e+000
1.3396511e+000
1.3480083e+000
1.4211022e+000
1.4821874e+000
1.5058408e+000
1.5002705e+000
1.4208690e+000
1.3133759e+000
1.1486815e+000
9.6684301e-001
7.5922215e-001
5.5955774e-001
3.7490085e-001
2.2134221e-001
1.0695215e-001
3.2577436e-002
-2.5360771e-003
-5.7717161e-003
1.7020483e-002
6.6587456e-002
1.4346980e-001
3.2752466e-001
5.7626772e-001
9.4863749e-001
1.3650351e+000
1.8344899e+000
2.3055563e+000
2.7357199e+000
3.1469505e+000
3.4770286e+000
3.7920210e+000
4.0490417e+000
4.2947526e+000
4.5056481e+000
4.7185903e+000
4.9405770e+000
5.1941619e+000
5.5135183e+000
5.8753953e+000
6.3043284e+000
6.7530665e+000
7.2207518e+000
7.6512046e+000
8.0369511e+000
8.3571377e+000
8.6296797e+000
8.9179516e+000
9.2185640e+000
9.5427628e+000
9.8607473e+000
1.0060470e+001
1.0205526e+001
1.0237870e+001
1.0248424e+001
1.0284857e+001
1.0330680e+001
1.0419790e+001
1.0503163e+001
1.0528504e+001
1.0524229e+001
1.0382928e+001
1.0196106e+001
9.8607607e+000
9.4717903e+000
8.9539394e+000
8.4171524e+000
7.8534799e+000
7.3649011e+000
6.9941740e+000
6.7228003e+000
6.5606432e+000
6.3743649e+000
6.1559391e+000
5.8316216e+000
5.4354601e+000
5.0472455e+000
4.6742840e+000
4.4165988e+000
4.2077036e+000
4.0438714e+000
3.8833230e+000
3.6261971e+000
3.3377686e+000
2.8811960e+000
2.4073713e+000
1.8966583e+000
1.4013926e+000
1.0142190e+000
6.3983279e-001
3.2228428e-001
1.3676494e-002
-2.6604697e-001
-5.3074718e-001
-7.5929087e-001
-9.5909774e-001
-1.1043537e+000
-1.1593195e+000
-1.0893369e+000
-9.3116176e-001
-6.8194115e-001
-4.3276536e-001
-1.8403207e-001
5.6033477e-002
2.9221943e-001
5.6172049e-001
8.4386504e-001
1.0811317e+000
1.2944435e+000
1.3021057e+000
1.2577357e+000
1.0245826e+000
7.6848680e-001
5.0816786e-001
2.5567266e-001
1.1712214e-001
0.0000000e+000
-2.8570276e-004
-5.8482662e-003
8.4023140e-002
1.5316400e-001
1.6050629e-001
1.3614586e-001
4.5311492e-002
-4.9641170e-003
1.0475099e-002
7.9670519e-002
2.1340746e-001
3.2584497e-001
4.1829133e-001
4.8162556e-001
5.2488059e-001
5.8560109e-001
6.5509605e-001
7.6165378e-001
8.8088077e-001
9.9421322e-001
1.1041317e+000
1.0415401e+000
9.5051181e-001
7.0712000e-001
