Image.
>Pix99999.
  .
5555
5555
2300
900
5555
2
1
0
701
5555
8.0105998e-002
8.1772618e-002
8.3438233e-002
8.5104845e-002
8.6771466e-002
8.8438079e-002
9.0104692e-002
9.1771312e-002
9.3437925e-002
9.5104545e-002
9.6770175e-002
9.8436773e-002
1.0010142e-001
1.0176899e-001
1.0343660e-001
1.0510422e-001
1.0677183e-001
1.0843945e-001
1.1010706e-001
1.1176495e-001
1.1343229e-001
1.1509990e-001
1.1676751e-001
1.1843513e-001
1.2010274e-001
1.2177036e-001
6.1185405e-002
2.2697742e-003
-5.2833598e-002
-5.8780141e-002
-5.7487145e-002
-6.8721687e-003
4.5966990e-002
6.9167815e-002
8.0087997e-002
4.3964735e-003
-6.9798797e-002
-1.1704566e-001
-1.1947946e-001
1.0177983e-002
1.5430845e-001
3.1379226e-001
3.9396319e-001
3.4324509e-001
2.4313240e-001
9.1465220e-002
3.6645611e-003
-1.9415772e-002
-2.2970589e-002
-1.5098220e-002
-6.8241499e-002
-1.5700932e-001
-2.4887201e-001
-3.4105855e-001
-3.5950267e-001
-3.5396394e-001
-2.8819120e-001
-2.0891488e-001
-1.5960528e-001
-1.1585148e-001
-1.5258229e-001
-2.0189418e-001
-3.1021577e-001
-4.1940078e-001
-5.0139511e-001
-5.5845308e-001
-5.3420484e-001
-5.0207722e-001
-4.7048777e-001
-4.5098695e-001
-4.5432898e-001
-4.4999379e-001
-4.3112034e-001
-4.3309548e-001
-4.6027336e-001
-5.3794789e-001
-6.5793526e-001
-7.8635007e-001
-9.1757488e-001
-1.0243798e+000
-1.1176744e+000
-1.1590616e+000
-1.1792562e+000
-1.1032172e+000
-9.9711442e-001
-8.5751301e-001
-7.1065897e-001
-6.4215142e-001
-5.9026277e-001
-6.1543614e-001
-6.5501046e-001
-7.2013038e-001
-7.8387946e-001
-8.2518214e-001
-8.4556317e-001
-8.1267715e-001
-7.6225418e-001
-6.9048703e-001
-6.4269716e-001
-6.4044785e-001
-6.7773139e-001
-7.5794482e-001
-8.3991051e-001
-9.1719973e-001
-9.7055912e-001
-1.0047600e+000
-9.9427664e-001
-9.5611554e-001
-8.7923813e-001
-7.8390169e-001
-7.3129243e-001
-6.9735217e-001
-7.2245955e-001
-7.6600444e-001
-7.9319566e-001
-8.1632489e-001
-8.5503322e-001
-9.0227193e-001
-1.0063401e+000
-1.1190090e+000
-1.2167314e+000
-1.2955320e+000
-1.3165269e+000
-1.3128421e+000
-1.2749182e+000
-1.2282286e+000
-1.1773239e+000
-1.1304276e+000
-1.0910486e+000
-1.0630546e+000
-1.0472257e+000
-1.0440497e+000
-1.0508783e+000
-1.0676470e+000
-1.0907674e+000
-1.1144485e+000
-1.1378537e+000
-1.1159390e+000
-1.0704008e+000
-9.9555570e-001
-9.0971804e-001
-8.9408082e-001
-9.0256518e-001
-9.5841622e-001
-1.0239142e+000
-1.0471314e+000
-1.0573769e+000
-1.0514209e+000
-1.0483537e+000
-1.0757287e+000
-1.1195786e+000
-1.1900468e+000
-1.2693286e+000
-1.3541373e+000
-1.4169140e+000
-1.4392657e+000
-1.4215834e+000
-1.3614776e+000
-1.3001946e+000
-1.2483344e+000
-1.1972715e+000
-1.1449980e+000
-1.0176681e+000
-8.3302426e-001
-6.1963481e-001
-3.9468542e-001
-3.2644212e-001
-3.4196410e-001
-4.8331958e-001
-6.7508239e-001
-8.2125628e-001
-9.4730872e-001
-1.0012633e+000
-1.0316364e+000
-1.0547298e+000
-1.0823250e+000
-1.1466166e+000
-1.2212875e+000
-1.2933440e+000
-1.3526590e+000
-1.3809886e+000
-1.4061410e+000
-1.4431700e+000
-1.4901116e+000
-1.5468600e+000
-1.5319679e+000
-1.4195951e+000
-1.1756480e+000
-8.1730777e-001
-5.1697588e-001
-2.9446200e-001
-2.3084502e-001
-2.7507693e-001
-3.5469604e-001
-4.4369641e-001
-5.8645058e-001
-7.5792319e-001
-9.5163149e-001
-1.1542386e+000
-1.2155933e+000
-1.2135286e+000
-1.1093773e+000
-9.7558540e-001
-9.1055912e-001
-8.9692211e-001
-9.9130529e-001
-1.1262126e+000
-1.2618532e+000
-1.3754783e+000
-1.4369420e+000
-1.4404501e+000
-1.3698262e+000
-1.1923994e+000
-8.9070058e-001
-5.6798065e-001
-2.6799244e-001
-1.6457446e-001
-2.6230732e-001
-4.8227674e-001
-7.6503885e-001
-9.8261631e-001
-1.1385109e+000
-1.1541909e+000
-1.0834007e+000
-9.2713082e-001
-7.2791898e-001
-6.7328751e-001
-7.0053905e-001
-9.0915072e-001
-1.1948822e+000
-1.4121186e+000
-1.5609699e+000
-1.5156811e+000
-1.3424410e+000
-1.0218329e+000
-6.8938071e-001
-4.9771276e-001
-4.7556174e-001
-6.9007838e-001
-9.9215090e-001
-1.2852371e+000
-1.4723690e+000
-1.5111374e+000
-1.4471066e+000
-1.3184280e+000
-1.1844751e+000
-1.0656143e+000
-9.5084327e-001
-8.3581686e-001
-6.8306339e-001
-4.9995071e-001
-3.1110474e-001
-1.2238544e-001
-1.0548058e-002
5.2089699e-002
9.5037945e-002
1.3218035e-001
2.2110221e-001
3.4692296e-001
5.2835500e-001
7.2840202e-001
8.8151598e-001
9.4302511e-001
7.9069960e-001
5.3327256e-001
2.7162477e-001
1.0172918e-001
1.1882064e-001
5.9637658e-002
-6.5801382e-002
-9.6949905e-002
-2.1046501e-002
3.4138247e-001
1.0087795e+000
1.7747608e+000
2.5455821e+000
2.8844919e+000
2.8102307e+000
2.5232415e+000
2.1284318e+000
1.9475601e+000
1.9441814e+000
1.8423920e+000
1.6476020e+000
1.1630551e+000
5.1071632e-001
5.2004978e-002
-1.9140080e-001
1.0317561e-001
8.9014006e-001
2.1057529e+000
3.4090688e+000
4.3301997e+000
4.9894624e+000
5.5189381e+000
6.2638221e+000
7.5413456e+000
9.6090202e+000
1.2568501e+001
1.6226164e+001
2.0358572e+001
2.4118061e+001
2.7202330e+001
2.9934616e+001
3.2501823e+001
3.5828236e+001
3.9962658e+001
4.4723183e+001
4.9922600e+001
5.4309860e+001
5.7964859e+001
6.1647484e+001
6.5435684e+001
6.9832993e+001
7.4657722e+001
7.9284050e+001
8.3698967e+001
8.7809425e+001
9.1622520e+001
9.5133926e+001
9.8290970e+001
1.0101366e+002
1.0310040e+002
1.0435163e+002
1.0433789e+002
1.0277857e+002
1.0023041e+002
9.7240181e+001
9.3983627e+001
9.0603683e+001
8.6626053e+001
8.1923569e+001
7.7042976e+001
7.2195259e+001
6.7729080e+001
6.3673851e+001
5.9548920e+001
5.5289589e+001
5.1069344e+001
4.6906662e+001
4.2940773e+001
3.9196350e+001
3.5829609e+001
3.2867161e+001
3.0354469e+001
2.8267570e+001
2.6455778e+001
2.4932333e+001
2.3674908e+001
2.2705770e+001
2.2014999e+001
2.1581989e+001
2.1341892e+001
2.1248711e+001
2.1236853e+001
2.1332308e+001
2.1544281e+001
2.1932760e+001
2.2519526e+001
2.3380602e+001
2.4532913e+001
2.5906473e+001
2.7466606e+001
2.8979036e+001
3.0390961e+001
3.1698114e+001
3.2904388e+001
3.4337578e+001
3.6094162e+001
3.8676807e+001
4.2062885e+001
4.5288128e+001
4.8175301e+001
5.0220299e+001
5.1525116e+001
5.2750820e+001
5.3857372e+001
5.4797600e+001
5.5243000e+001
5.4752789e+001
5.3490116e+001
5.1803486e+001
5.0027599e+001
4.8524055e+001
4.7216000e+001
4.6031898e+001
4.4750637e+001
4.3233597e+001
4.1334652e+001
3.8963840e+001
3.6583588e+001
3.4344147e+001
3.2268318e+001
3.0386311e+001
2.8065351e+001
2.5153099e+001
2.2166138e+001
1.9163357e+001
1.6714741e+001
1.4896580e+001
1.3190000e+001
1.1596707e+001
1.0005858e+001
8.4108276e+000
6.7928104e+000
5.1619205e+000
3.5470700e+000
2.0781054e+000
9.4614291e-001
2.3472457e-001
3.8440786e-002
3.8332090e-001
1.1819373e+000
2.0906210e+000
2.8767867e+000
3.5204856e+000
3.9896359e+000
4.5165825e+000
5.2209144e+000
6.0237246e+000
6.9301801e+000
7.5444984e+000
7.6799178e+000
7.5491271e+000
7.0564737e+000
6.5486712e+000
6.0287452e+000
5.5585489e+000
5.1628852e+000
4.8389597e+000
4.5967569e+000
4.3730450e+000
4.1649256e+000
3.9494560e+000
3.7460361e+000
3.5969543e+000
3.5257239e+000
3.5571172e+000
3.6743383e+000
3.8470325e+000
4.0255685e+000
4.1547337e+000
4.2650642e+000
4.3801455e+000
4.5391383e+000
4.7832265e+000
5.0900750e+000
5.4786582e+000
5.8849883e+000
6.3009114e+000
6.6232572e+000
6.7664890e+000
6.7691984e+000
6.5371795e+000
6.2401671e+000
5.8451500e+000
5.4216619e+000
4.9649792e+000
4.5194330e+000
4.0940576e+000
3.6979971e+000
3.3343759e+000
2.9826820e+000
2.6532357e+000
2.3618200e+000
2.1003628e+000
1.8507689e+000
1.5848160e+000
1.2574126e+000
9.0450984e-001
5.5915302e-001
2.6841891e-001
1.0171235e-001
1.3655169e-002
1.3361784e-002
3.4144592e-002
1.2498216e-001
2.6340106e-001
4.8773009e-001
6.8031865e-001
7.9351485e-001
8.0262601e-001
6.2881601e-001
4.5447981e-001
2.9591772e-001
2.2646922e-001
2.9626578e-001
4.6537080e-001
7.5732523e-001
1.0931793e+000
1.4534600e+000
1.7518846e+000
1.9682376e+000
2.0792947e+000
2.0921497e+000
2.0187278e+000
1.8839365e+000
1.7055700e+000
1.5233955e+000
1.3824319e+000
1.2841715e+000
1.2662990e+000
1.2740694e+000
1.3008304e+000
1.3221840e+000
1.3220378e+000
1.3275574e+000
1.3524785e+000
1.4013206e+000
1.5051510e+000
1.6372329e+000
1.8231540e+000
2.0187223e+000
2.2282047e+000
2.4301438e+000
2.6270170e+000
2.8470101e+000
3.1045110e+000
3.4124260e+000
3.7736897e+000
4.1609368e+000
4.5677223e+000
4.9732876e+000
5.3725200e+000
5.7520037e+000
6.1068501e+000
6.4106674e+000
6.6784806e+000
6.8899336e+000
7.0660195e+000
7.1767187e+000
7.2400837e+000
7.1888280e+000
7.0842962e+000
6.8438563e+000
6.5596914e+000
6.1590257e+000
5.7271070e+000
5.2214866e+000
4.7054129e+000
4.1717029e+000
3.6532643e+000
3.1656301e+000
2.7147231e+000
2.3165348e+000
1.9416115e+000
1.5891820e+000
1.2248920e+000
8.4398293e-001
4.3511769e-001
5.6660771e-003
-4.2676964e-001
-8.4776253e-001
-1.2133780e+000
-1.5370028e+000
-1.7873592e+000
-1.9960440e+000
-2.1323347e+000
-2.2228286e+000
-2.1937349e+000
-2.1216998e+000
-1.9418664e+000
-1.7524786e+000
-1.5500330e+000
-1.3443314e+000
-1.1273495e+000
-8.9297086e-001
-6.1727142e-001
-3.4545571e-001
-8.6789913e-002
1.3338700e-001
2.8321552e-001
3.7022483e-001
3.6785156e-001
3.0925819e-001
1.9490393e-001
9.1654286e-002
9.4383014e-003
-8.0888905e-003
3.5378456e-002
1.7648914e-001
3.7780091e-001
6.7241001e-001
1.0071952e+000
1.3655188e+000
1.7148364e+000
1.9833634e+000
2.2206981e+000
2.3688321e+000
2.5081816e+000
2.6447470e+000
2.7966342e+000
3.0130818e+000
3.2391078e+000
3.4939089e+000
3.7356448e+000
3.9438469e+000
4.1367168e+000
4.3020439e+000
4.4803972e+000
4.6875429e+000
4.9636860e+000
5.3381200e+000
5.8224401e+000
6.4188342e+000
7.0625534e+000
7.7327085e+000
8.3365440e+000
8.8798075e+000
9.2708416e+000
9.5590658e+000
9.6006804e+000
9.5330076e+000
9.2572680e+000
8.9453087e+000
8.7036076e+000
8.5089083e+000
8.5944538e+000
8.7152576e+000
8.9737406e+000
9.2121792e+000
9.3611212e+000
9.4835567e+000
9.5236568e+000
9.5757074e+000
9.6613207e+000
9.8056402e+000
1.0062807e+001
1.0376526e+001
1.0764384e+001
1.1095800e+001
1.1347646e+001
1.1440240e+001
1.1376857e+001
1.1166677e+001
1.0847765e+001
1.0442858e+001
9.9899540e+000
9.4998798e+000
8.9946556e+000
8.4782114e+000
7.9627662e+000
7.4915133e+000
7.0293941e+000
6.5867801e+000
6.1388001e+000
5.6076760e+000
5.0805459e+000
4.5870519e+000
4.1276631e+000
3.8181214e+000
3.5206370e+000
3.2590401e+000
2.9800611e+000
2.6619995e+000
2.3565493e+000
2.0751543e+000
1.8279853e+000
1.6255859e+000
1.4133502e+000
1.1911063e+000
9.7296917e-001
7.6502365e-001
6.8251276e-001
6.8305695e-001
8.1763649e-001
1.0115738e+000
1.1833739e+000
1.3373549e+000
1.2664212e+000
1.1361711e+000
7.5439405e-001
3.4793821e-001
7.6697543e-002
-1.6433209e-001
-5.4027002e-002
2.7394965e-003
8.5286885e-002
2.4957380e-001
4.3464649e-001
6.6584516e-001
1.0320210e+000
1.4008377e+000
1.7728826e+000
2.0524218e+000
2.1835995e+000
2.2758000e+000
2.3227210e+000
2.4761252e+000
2.7291696e+000
3.0520229e+000
3.4230788e+000
3.7160835e+000
3.9683981e+000
4.2579083e+000
4.5626063e+000
4.9830809e+000
5.4333606e+000
5.7270684e+000
5.9956818e+000
6.1928000e+000
