Image.
>Pix99999.
  .
5555
5555
2300
900
5555
2
1
0
701
5555
-4.8746001e-002
-4.9760547e-002
-5.0774101e-002
-5.1788647e-002
-5.2803196e-002
-5.3816751e-002
-5.4831289e-002
-5.5844847e-002
-5.6859389e-002
-5.7872951e-002
-5.8887485e-002
-5.9901047e-002
-6.0915586e-002
-6.1930131e-002
-6.2943697e-002
-6.3958228e-002
-6.4971797e-002
-6.5986320e-002
-6.6999897e-002
-6.8014428e-002
-6.9028005e-002
-7.0042521e-002
-7.1057066e-002
-7.2070651e-002
-7.3085167e-002
-7.4098751e-002
-2.7535856e-003
5.2055586e-002
1.0959936e-001
6.8137795e-002
1.2022709e-002
-1.5399940e-001
-3.2565036e-001
-4.4649979e-001
-5.4656684e-001
-5.0032753e-001
-4.3141073e-001
-2.9284269e-001
-1.5849917e-001
-4.8413727e-002
4.8200227e-002
1.1837544e-001
1.9052179e-001
2.6843524e-001
3.4487584e-001
4.1902578e-001
4.6987832e-001
4.9838173e-001
5.0598419e-001
4.9903509e-001
4.8882285e-001
4.7726950e-001
4.3753999e-001
3.8547906e-001
2.8818759e-001
1.7646208e-001
1.0932720e-001
5.2653737e-002
8.5580058e-002
1.3153224e-001
1.5428428e-001
1.6807233e-001
1.0464255e-001
3.6448777e-002
-1.7072445e-002
-4.5999214e-002
9.5525859e-003
8.6018771e-002
1.9450000e-001
2.9129416e-001
3.5975701e-001
3.9767116e-001
3.9555800e-001
3.5754082e-001
2.8379342e-001
2.2138464e-001
1.7231429e-001
1.9566341e-001
2.6840082e-001
3.6744437e-001
4.7806913e-001
5.3649795e-001
5.7246947e-001
5.7280970e-001
5.6243759e-001
5.6909382e-001
5.7990998e-001
6.2454778e-001
6.7468405e-001
7.2774279e-001
7.7392113e-001
7.6570559e-001
7.4349391e-001
6.9416195e-001
6.5386987e-001
6.5286857e-001
6.5983611e-001
6.7159927e-001
6.6658759e-001
6.3221180e-001
6.0640717e-001
5.9748352e-001
6.3237023e-001
7.1007735e-001
8.0109346e-001
8.9806050e-001
9.4820333e-001
9.6690673e-001
9.4026732e-001
8.9194143e-001
8.4389687e-001
7.9705799e-001
7.6003003e-001
7.2611338e-001
6.9818431e-001
6.7183071e-001
6.5540451e-001
6.4351380e-001
6.5889543e-001
6.8754900e-001
7.5968176e-001
8.4167176e-001
9.2815179e-001
1.0006878e+000
1.0349526e+000
1.0394535e+000
1.0007616e+000
9.4894481e-001
8.9000911e-001
8.6080402e-001
8.6911786e-001
8.8566291e-001
9.0347439e-001
8.5870934e-001
7.6449102e-001
6.4889878e-001
5.2482063e-001
4.7824779e-001
4.7264931e-001
5.2951747e-001
6.1046797e-001
6.8430185e-001
7.5496441e-001
8.0815858e-001
8.5635304e-001
8.9718729e-001
9.3295413e-001
9.4588268e-001
9.4685954e-001
9.2087811e-001
8.9137143e-001
8.7157559e-001
8.6772603e-001
8.9463586e-001
9.3572563e-001
9.8887563e-001
1.0390692e+000
1.0811613e+000
1.1011175e+000
1.0981171e+000
1.0898972e+000
1.0814550e+000
1.1103965e+000
1.1679533e+000
1.2005943e+000
1.2139722e+000
1.1494211e+000
1.0453758e+000
9.9833161e-001
9.7849572e-001
1.0528133e+000
1.1590126e+000
1.2183131e+000
1.2566545e+000
1.2404521e+000
1.2107999e+000
1.2026520e+000
1.2046161e+000
1.2197922e+000
1.2333337e+000
1.2324371e+000
1.2278377e+000
1.2241839e+000
1.2156928e+000
1.1985520e+000
1.1744186e+000
1.1441028e+000
1.1498173e+000
1.1963989e+000
1.2918999e+000
1.4230900e+000
1.5437216e+000
1.6503469e+000
1.6970795e+000
1.7069637e+000
1.6456964e+000
1.5487361e+000
1.4348900e+000
1.3151995e+000
1.2727545e+000
1.2669001e+000
1.3413916e+000
1.4425160e+000
1.5127350e+000
1.5509572e+000
1.5034114e+000
1.4213140e+000
1.3312310e+000
1.2509154e+000
1.1998415e+000
1.1589700e+000
1.1174997e+000
1.0825218e+000
1.0571464e+000
1.0470369e+000
1.0530136e+000
1.0574754e+000
1.0562750e+000
1.0538474e+000
1.0513822e+000
1.0106640e+000
9.4008744e-001
7.5917232e-001
5.0784981e-001
1.9810620e-001
-1.4012054e-001
-3.0026266e-001
-3.6097804e-001
-2.0842052e-001
4.3683149e-002
2.9525501e-001
5.3558427e-001
7.1653098e-001
8.4850430e-001
9.0050995e-001
9.0169352e-001
8.6034399e-001
8.1410259e-001
7.9455423e-001
7.8153193e-001
7.6099968e-001
7.1251899e-001
6.2732357e-001
5.6375319e-001
5.4189426e-001
5.8326650e-001
6.7800671e-001
6.6407323e-001
5.3745079e-001
2.9229581e-001
-2.8050713e-002
-1.3036139e-001
-6.8116724e-002
1.6979706e-001
5.0590056e-001
7.0585907e-001
8.1708860e-001
8.2317853e-001
7.6736820e-001
6.8512827e-001
6.0007858e-001
5.6308818e-001
5.6826252e-001
6.3049179e-001
6.7458993e-001
6.0768002e-001
4.5793360e-001
2.4343643e-001
5.7788458e-002
-2.0458338e-001
-4.6521986e-001
-6.2572390e-001
-7.0754391e-001
-7.3653173e-001
-7.5444913e-001
-7.7757072e-001
-8.7191337e-001
-1.0319318e+000
-1.1953691e+000
-1.3503599e+000
-1.3041199e+000
-1.1047246e+000
-7.6002359e-001
-3.3265120e-001
-1.1139736e-001
-3.8384192e-002
-6.2619671e-002
-1.1230951e-001
3.1255372e-002
3.8324547e-001
1.0418322e+000
1.8076791e+000
2.3969138e+000
2.8079233e+000
3.0261979e+000
3.2703907e+000
3.7432075e+000
4.7720013e+000
6.5365000e+000
9.3457851e+000
1.3213572e+001
1.7304741e+001
2.1206001e+001
2.4625710e+001
2.7569538e+001
3.0847921e+001
3.4581802e+001
3.8980419e+001
4.3914360e+001
4.8324474e+001
5.2236286e+001
5.6114616e+001
6.0030754e+001
6.4453239e+001
6.9234863e+001
7.3880249e+001
7.8377724e+001
8.2653343e+001
8.6677841e+001
9.0366295e+001
9.3692230e+001
9.6615150e+001
9.9135658e+001
1.0128021e+002
1.0258823e+002
1.0270428e+002
1.0175734e+002
9.9983009e+001
9.7662712e+001
9.5040039e+001
9.1945114e+001
8.8372192e+001
8.4606720e+001
8.0774452e+001
7.6890831e+001
7.2966660e+001
6.8614037e+001
6.3832893e+001
5.9004959e+001
5.4188507e+001
4.9784801e+001
4.5816704e+001
4.2379272e+001
3.9456890e+001
3.6884777e+001
3.4632706e+001
3.2551800e+001
3.0688396e+001
2.9107012e+001
2.7830841e+001
2.6847500e+001
2.6115438e+001
2.5544886e+001
2.5117090e+001
2.4796049e+001
2.4625978e+001
2.4623941e+001
2.4769699e+001
2.5037968e+001
2.5394754e+001
2.5818686e+001
2.6317200e+001
2.6889439e+001
2.7595474e+001
2.8447079e+001
2.9439829e+001
3.0575760e+001
3.1890524e+001
3.3448715e+001
3.5658680e+001
3.8540443e+001
4.1548100e+001
4.4511971e+001
4.6751106e+001
4.8256428e+001
4.9349358e+001
5.0023663e+001
5.0411751e+001
5.0541061e+001
5.0529518e+001
5.0337116e+001
4.9940411e+001
4.9309750e+001
4.8435577e+001
4.7310852e+001
4.5941299e+001
4.4336990e+001
4.2503300e+001
4.0709114e+001
3.9083031e+001
3.7670788e+001
3.6508835e+001
3.5132999e+001
3.3413937e+001
3.1059807e+001
2.7923550e+001
2.4858435e+001
2.1954910e+001
1.9584038e+001
1.7800880e+001
1.6023714e+001
1.4234309e+001
1.2371945e+001
1.0444637e+001
8.5213842e+000
6.6488352e+000
4.9099059e+000
3.3789434e+000
2.1264760e+000
1.1708724e+000
4.9496228e-001
2.0139064e-001
4.1211155e-001
9.4833159e-001
1.6464112e+000
2.3127728e+000
2.8190703e+000
3.1980760e+000
3.4344761e+000
3.6534758e+000
3.8887601e+000
4.2113919e+000
4.6656151e+000
5.0493860e+000
5.3100805e+000
5.4318643e+000
5.3577757e+000
5.2039170e+000
4.9388366e+000
4.5967484e+000
4.1560488e+000
3.6535234e+000
3.1130023e+000
2.6394866e+000
2.2530060e+000
1.9560279e+000
1.7576605e+000
1.6494612e+000
1.6683866e+000
1.8617593e+000
2.1883199e+000
2.6166179e+000
3.0562372e+000
3.4308624e+000
3.7595556e+000
4.0367723e+000
4.2928939e+000
4.5323224e+000
4.7459879e+000
4.9169965e+000
5.0668569e+000
5.1842561e+000
5.2927403e+000
5.3820877e+000
5.4211488e+000
5.3757701e+000
5.2554569e+000
5.0245528e+000
4.7201509e+000
4.3175669e+000
3.8503485e+000
3.3351829e+000
2.8684840e+000
2.4790051e+000
2.2024121e+000
1.9848214e+000
1.7121094e+000
1.3736269e+000
9.4703901e-001
5.2706522e-001
2.2553684e-001
3.3486061e-002
-3.6044619e-003
1.5836168e-002
6.9179170e-002
1.1889572e-001
1.3932201e-001
1.6105306e-001
1.9353002e-001
2.6490930e-001
4.1472685e-001
5.7412302e-001
7.4916637e-001
9.0491349e-001
1.0359054e+000
1.1888007e+000
1.3767631e+000
1.5973797e+000
1.8546429e+000
2.1157486e+000
2.3771200e+000
2.6276634e+000
2.8612804e+000
3.0665872e+000
3.2402003e+000
3.3725021e+000
3.4693263e+000
3.5269029e+000
3.5601864e+000
3.5725505e+000
3.5745430e+000
3.5671709e+000
3.5546429e+000
3.5341928e+000
3.5222399e+000
3.5359457e+000
3.5665169e+000
3.6363103e+000
3.7089961e+000
3.7879286e+000
3.8662271e+000
3.9439189e+000
4.0258150e+000
4.1179962e+000
4.2312717e+000
4.3849182e+000
4.5959907e+000
4.8845916e+000
5.2300620e+000
5.6333642e+000
6.0568142e+000
6.5011840e+000
6.9657974e+000
7.4476438e+000
7.9461498e+000
8.4427004e+000
8.9049072e+000
9.3275213e+000
9.6614714e+000
9.9326029e+000
1.0077386e+001
1.0169000e+001
1.0165880e+001
1.0142402e+001
1.0083823e+001
9.9925709e+000
9.8071585e+000
9.5597296e+000
9.1645365e+000
8.7335005e+000
8.2345114e+000
7.7374325e+000
7.2432361e+000
6.7478952e+000
6.2481761e+000
5.7341986e+000
5.2042942e+000
4.6721644e+000
4.1464839e+000
3.6591206e+000
3.2114000e+000
2.8169708e+000
2.4598539e+000
2.1325340e+000
1.8231388e+000
1.5334543e+000
1.2616559e+000
1.0365031e+000
8.5071141e-001
7.8186041e-001
7.6179403e-001
8.7453359e-001
9.9878103e-001
1.1360689e+000
1.2410737e+000
1.2455364e+000
1.2150197e+000
1.0998759e+000
9.7696209e-001
8.3951539e-001
7.0500487e-001
5.7492328e-001
4.4391787e-001
3.1382158e-001
1.9608940e-001
9.6983209e-002
3.0918920e-002
-2.3071747e-003
-5.4092137e-003
1.4105376e-002
4.7477998e-002
9.8716550e-002
2.3917809e-001
4.3447384e-001
7.3853165e-001
1.0800421e+000
1.4621980e+000
1.8447771e+000
2.1916561e+000
2.5172508e+000
2.7461329e+000
2.9504573e+000
3.0578594e+000
3.1483629e+000
3.1858423e+000
3.2216702e+000
3.2576735e+000
3.3298030e+000
3.4777043e+000
3.6837487e+000
3.9814284e+000
4.3082819e+000
4.6744380e+000
5.0701513e+000
5.4988389e+000
5.9602790e+000
6.4335656e+000
6.8154302e+000
7.1206899e+000
7.2656422e+000
7.3363528e+000
7.3887124e+000
7.4372826e+000
7.5011773e+000
7.5543399e+000
7.5048742e+000
7.4357920e+000
7.3198204e+000
7.2048302e+000
7.1095161e+000
6.9977746e+000
6.8141456e+000
6.6203284e+000
6.3988318e+000
6.2237973e+000
6.1635785e+000
6.1478982e+000
6.2107186e+000
6.2398353e+000
6.2147784e+000
6.1292300e+000
5.9712057e+000
5.7673388e+000
5.5182452e+000
5.2199593e+000
4.8892136e+000
4.5706100e+000
4.2621012e+000
3.9928675e+000
3.7336197e+000
3.4184542e+000
3.0865831e+000
2.7366183e+000
2.3951800e+000
2.1837201e+000
1.9866529e+000
1.8317877e+000
1.6635083e+000
1.4029572e+000
1.1513858e+000
9.4145215e-001
7.7720290e-001
7.5371408e-001
7.3034900e-001
7.0315516e-001
6.0947651e-001
3.9964920e-001
1.6836542e-001
-8.8520154e-002
-2.9598576e-001
-4.5036715e-001
-5.6629413e-001
-6.4880919e-001
-6.7960513e-001
-6.7569011e-001
-6.0677302e-001
-5.0631690e-001
-3.6100620e-001
-1.9914432e-001
6.3064992e-003
2.1545786e-001
2.9863173e-001
3.5731238e-001
1.9218060e-001
2.8214563e-002
9.2979325e-003
5.0828606e-003
1.5813673e-001
4.5933977e-001
7.8125793e-001
1.0382113e+000
1.1040169e+000
1.1319371e+000
1.0807856e+000
1.1035205e+000
1.2468443e+000
1.5129100e+000
1.9271070e+000
2.3032560e+000
2.6405196e+000
2.7345955e+000
2.6551497e+000
2.4016469e+000
2.0572591e+000
1.8138404e+000
1.6102114e+000
1.5981177e+000
1.6364998e+000
1.7529688e+000
1.8820795e+000
2.1473000e+000
