Image.
>Pix99999.
  .
5555
5555
2300
900
5555
2
1
0
701
5555
-5.7930999e-002
-5.9136275e-002
-6.0341552e-002
-6.1546825e-002
-6.2752098e-002
-6.3957378e-002
-6.5162651e-002
-6.6367932e-002
-6.7573212e-002
-6.8777494e-002
-6.9983743e-002
-7.1190014e-002
-7.2393343e-002
-7.3592693e-002
-7.4803740e-002
-7.6033600e-002
-7.7214986e-002
-7.8330897e-002
-7.9622619e-002
-8.1161983e-002
-8.2045257e-002
-8.2005009e-002
-8.4406026e-002
-9.0248168e-002
-8.7018609e-002
-6.0191106e-002
-2.1989315e-003
8.1084006e-002
1.3760068e-001
1.2071567e-001
5.8048043e-002
-5.9571499e-003
-4.4856489e-002
-4.3248046e-002
-8.5576549e-003
4.4595245e-002
9.9035084e-002
1.3946052e-001
1.6080528e-001
1.6438402e-001
1.6510515e-001
1.8069239e-001
2.2416680e-001
3.0371144e-001
4.1388744e-001
5.4110444e-001
6.5529865e-001
7.2857237e-001
7.6208180e-001
7.6887792e-001
7.7371502e-001
7.9880548e-001
8.4174067e-001
8.9585650e-001
9.6889287e-001
1.0703404e+000
1.1978240e+000
1.3398314e+000
1.4637582e+000
1.5386410e+000
1.5673656e+000
1.5673091e+000
1.5695609e+000
1.6021960e+000
1.6620948e+000
1.7342936e+000
1.7985222e+000
1.8378682e+000
1.8568388e+000
1.8666128e+000
1.8776700e+000
1.8991077e+000
1.9382726e+000
2.0011692e+000
2.0916157e+000
2.2098036e+000
2.3436778e+000
2.4775710e+000
2.5983064e+000
2.6928623e+000
2.7444742e+000
2.7382159e+000
2.6718099e+000
2.5571642e+000
2.4431961e+000
2.3846173e+000
2.4032230e+000
2.4978619e+000
2.6219218e+000
2.7221308e+000
2.7845943e+000
2.8144460e+000
2.8353453e+000
2.8727725e+000
2.9345446e+000
3.0179744e+000
3.1039057e+000
3.1711760e+000
3.2162199e+000
3.2454531e+000
3.2787001e+000
3.3356273e+000
3.4132555e+000
3.4989426e+000
3.5776005e+000
3.6361899e+000
3.6735210e+000
3.6932709e+000
3.7009742e+000
3.7021532e+000
3.7022843e+000
3.7058342e+000
3.7138920e+000
3.7263691e+000
3.7440710e+000
3.7694972e+000
3.8096075e+000
3.8705025e+000
3.9483132e+000
4.0337782e+000
4.1132941e+000
4.1742606e+000
4.2154121e+000
4.2407937e+000
4.2557440e+000
4.2668071e+000
4.2828040e+000
4.3114395e+000
4.3519106e+000
4.3986912e+000
4.4428401e+000
4.4771552e+000
4.5077863e+000
4.5442801e+000
4.5845704e+000
4.6206498e+000
4.6406941e+000
4.6355357e+000
4.6128664e+000
4.5873637e+000
4.5723000e+000
4.5769072e+000
4.5986285e+000
4.6308341e+000
4.6708422e+000
4.7171402e+000
4.7629309e+000
4.7978377e+000
4.8070445e+000
4.7767653e+000
4.7053070e+000
4.6010442e+000
4.4899678e+000
4.4043794e+000
4.3701959e+000
4.4002800e+000
4.4682527e+000
4.5311327e+000
4.5543332e+000
4.5172434e+000
4.4364572e+000
4.3457761e+000
4.2764568e+000
4.2516971e+000
4.2719541e+000
4.3255687e+000
4.3978772e+000
4.4738450e+000
4.5402598e+000
4.5852361e+000
4.5980315e+000
4.5729523e+000
4.5241456e+000
4.4756908e+000
4.4511752e+000
4.4666247e+000
4.5111527e+000
4.5599122e+000
4.5872383e+000
4.5760260e+000
4.5423942e+000
4.5165367e+000
4.5163760e+000
4.5434113e+000
4.5633569e+000
4.5311027e+000
4.4349055e+000
4.2893019e+000
4.1386561e+000
4.0341220e+000
3.9935887e+000
4.0114684e+000
4.0652766e+000
4.1280475e+000
4.1879315e+000
4.2435179e+000
4.3002439e+000
4.3633227e+000
4.4248004e+000
4.4674225e+000
4.4670286e+000
4.4019217e+000
4.2757368e+000
4.1118121e+000
3.9558394e+000
3.8560822e+000
3.8225672e+000
3.8383722e+000
3.8697834e+000
3.8787284e+000
3.8396201e+000
3.7392414e+000
3.5817275e+000
3.3872831e+000
3.2047024e+000
3.0895891e+000
3.0565686e+000
3.0879791e+000
3.1386614e+000
3.1568990e+000
3.1234772e+000
3.0398874e+000
2.9041913e+000
2.7122593e+000
2.4700320e+000
2.1970572e+000
1.9453691e+000
1.7756244e+000
1.7008920e+000
1.6960564e+000
1.7065743e+000
1.6736890e+000
1.5859001e+000
1.4678406e+000
1.3641224e+000
1.3202121e+000
1.3438938e+000
1.4142308e+000
1.4961901e+000
1.5516918e+000
1.5577543e+000
1.5077623e+000
1.4201380e+000
1.3278735e+000
1.2603503e+000
1.2324500e+000
1.2128532e+000
1.1441274e+000
9.8780727e-001
7.3727310e-001
4.5560572e-001
2.4644011e-001
1.9272120e-001
3.3410501e-001
6.0250312e-001
8.6641312e-001
1.0307641e+000
1.0474935e+000
9.2718285e-001
7.1665221e-001
4.6193483e-001
2.0574306e-001
-6.2680990e-004
-1.0868739e-001
-1.1365703e-001
-4.7520421e-002
3.5377055e-002
7.3938660e-002
3.0206662e-002
-1.0634001e-001
-3.0377400e-001
-5.1262498e-001
-7.3319244e-001
-9.9893546e-001
-1.3110679e+000
-1.6368643e+000
-1.9218829e+000
-2.1097670e+000
-2.1902759e+000
-2.1864324e+000
-2.1087599e+000
-1.9541664e+000
-1.7226096e+000
-1.4233525e+000
-1.0887127e+000
-7.6438940e-001
-4.8101029e-001
-2.4822539e-001
-4.2578060e-002
1.8951854e-001
5.3290558e-001
1.0660356e+000
1.7400028e+000
2.4218218e+000
3.0667200e+000
3.7315199e+000
4.5509825e+000
5.7330132e+000
7.5999761e+000
1.0456469e+001
1.4128285e+001
1.8054390e+001
2.1735842e+001
2.4885908e+001
2.7677570e+001
3.0631165e+001
3.4222412e+001
3.8692577e+001
4.3621002e+001
4.8174435e+001
5.2084373e+001
5.5669781e+001
5.9389629e+001
6.3628967e+001
6.8313026e+001
7.3003098e+001
7.7391159e+001
8.1367294e+001
8.4908691e+001
8.8033379e+001
9.0751144e+001
9.3057831e+001
9.4958801e+001
9.6454987e+001
9.7476898e+001
9.7913605e+001
9.7750259e+001
9.7052841e+001
9.5824638e+001
9.3999222e+001
9.1519997e+001
8.8386627e+001
8.4754402e+001
8.0884560e+001
7.6905792e+001
7.2799339e+001
6.8534996e+001
6.4119652e+001
5.9648922e+001
5.5289383e+001
5.1176201e+001
4.7392048e+001
4.3988270e+001
4.0988472e+001
3.8363407e+001
3.6042343e+001
3.3978893e+001
3.2160717e+001
3.0588354e+001
2.9265787e+001
2.8187000e+001
2.7334064e+001
2.6687067e+001
2.6227091e+001
2.5931257e+001
2.5770222e+001
2.5701309e+001
2.5678101e+001
2.5695963e+001
2.5800865e+001
2.6081257e+001
2.6643950e+001
2.7521791e+001
2.8655859e+001
2.9926481e+001
3.1177286e+001
3.2297798e+001
3.3284317e+001
3.4384407e+001
3.6040760e+001
3.8441685e+001
4.1404541e+001
4.4453606e+001
4.6956177e+001
4.8685562e+001
4.9878963e+001
5.0723965e+001
5.1246574e+001
5.1444118e+001
5.1323933e+001
5.0927540e+001
5.0328011e+001
4.9582302e+001
4.8715843e+001
4.7714943e+001
4.6532452e+001
4.5142899e+001
4.3562248e+001
4.1857563e+001
4.0139381e+001
3.8475258e+001
3.6848236e+001
3.5114120e+001
3.3024902e+001
3.0457575e+001
2.7493549e+001
2.4396297e+001
2.1551765e+001
1.9133995e+001
1.7026730e+001
1.5065000e+001
1.3111840e+001
1.1122167e+001
9.1544247e+000
7.2769780e+000
5.5461712e+000
4.0201817e+000
2.7524693e+000
1.7421137e+000
9.3910885e-001
3.7610972e-001
1.8348724e-001
4.0402621e-001
9.3761349e-001
1.6348451e+000
2.3356016e+000
2.9482801e+000
3.4736233e+000
3.9339106e+000
4.3564086e+000
4.7832198e+000
5.2631097e+000
5.7849393e+000
6.2611465e+000
6.6147790e+000
6.8081965e+000
6.8311772e+000
6.6971402e+000
6.4168839e+000
5.9929152e+000
5.4379659e+000
4.7847996e+000
4.0893950e+000
3.4275122e+000
2.8474059e+000
2.3549449e+000
1.9563851e+000
1.6736826e+000
1.5445963e+000
1.6165795e+000
1.8980571e+000
2.3369291e+000
2.8570018e+000
3.3738377e+000
3.8402052e+000
4.2635255e+000
4.6560626e+000
5.0188060e+000
5.3459358e+000
5.6278582e+000
5.8679214e+000
6.0864315e+000
6.2897806e+000
6.4579301e+000
6.5648856e+000
6.5865951e+000
6.5112062e+000
6.3421350e+000
6.0742311e+000
5.6881723e+000
5.1829829e+000
4.5937119e+000
3.9823759e+000
3.4305053e+000
2.9705091e+000
2.5537071e+000
2.1212237e+000
1.6345533e+000
1.1089381e+000
6.3103783e-001
2.7459729e-001
6.4246781e-002
-6.0043121e-003
2.7890194e-002
1.3055122e-001
2.7558535e-001
4.2337799e-001
5.1629949e-001
5.3042775e-001
5.0377643e-001
4.9347427e-001
5.5711925e-001
7.0458186e-001
8.7069368e-001
9.9351054e-001
1.0480599e+000
1.0402172e+000
1.0115370e+000
9.9986124e-001
1.0223125e+000
1.0814700e+000
1.1636610e+000
1.2533269e+000
1.3379856e+000
1.4075445e+000
1.4555492e+000
1.4817131e+000
1.4953610e+000
1.5097948e+000
1.5403413e+000
1.5965999e+000
1.6777326e+000
1.7801114e+000
1.9006736e+000
2.0393319e+000
2.2010887e+000
2.3899398e+000
2.6047382e+000
2.8389401e+000
3.0782940e+000
3.3066971e+000
3.5095758e+000
3.6824269e+000
3.8396680e+000
4.0052056e+000
4.2118397e+000
4.4879880e+000
4.8490882e+000
5.3003960e+000
5.8325934e+000
6.4299083e+000
7.0710411e+000
7.7391381e+000
8.4289932e+000
9.1408463e+000
9.8788252e+000
1.0636417e+001
1.1383943e+001
1.2079817e+001
1.2669501e+001
1.3111200e+001
1.3394352e+001
1.3523040e+001
1.3514666e+001
1.3381983e+001
1.3118021e+001
1.2718155e+001
1.2187930e+001
1.1546148e+001
1.0828580e+001
1.0073531e+001
9.3160467e+000
8.5860510e+000
7.9121728e+000
7.3157187e+000
6.8033237e+000
6.3633299e+000
5.9537086e+000
5.5264730e+000
5.0393214e+000
4.4705286e+000
3.8395951e+000
3.1800337e+000
2.5333700e+000
1.9333428e+000
1.3931593e+000
9.2390132e-001
5.4206038e-001
2.6253927e-001
9.2886396e-002
2.6134599e-002
2.8451575e-002
6.7260161e-002
1.2727009e-001
2.0187041e-001
2.9327115e-001
3.9456519e-001
4.7468618e-001
5.0339955e-001
4.6674007e-001
3.6601886e-001
2.2833133e-001
8.4350996e-002
-4.1432843e-002
-1.3017660e-001
-1.7313857e-001
-1.6787726e-001
-1.2122513e-001
-4.3521669e-002
5.2514486e-002
1.5939572e-001
2.8288081e-001
4.2813393e-001
5.9235740e-001
7.7890313e-001
1.0095015e+000
1.3017600e+000
1.6518732e+000
2.0437679e+000
2.4446120e+000
2.8194714e+000
3.1395054e+000
3.3865058e+000
3.5664110e+000
3.7033184e+000
3.8503201e+000
4.0565491e+000
4.3426924e+000
4.7145314e+000
5.1579018e+000
5.6538715e+000
6.1836090e+000
6.7240977e+000
7.2420630e+000
7.7080030e+000
8.1104851e+000
8.4502678e+000
8.7493715e+000
9.0308619e+000
9.3057947e+000
9.5729218e+000
9.8053474e+000
9.9753752e+000
1.0070729e+001
1.0096386e+001
1.0092121e+001
1.0093841e+001
1.0098933e+001
1.0079824e+001
9.9673653e+000
9.7070169e+000
9.3046875e+000
8.7988758e+000
8.2747021e+000
7.8149109e+000
7.4614286e+000
7.2292380e+000
7.0854192e+000
6.9854436e+000
6.8853536e+000
6.7505302e+000
6.5712395e+000
6.3418341e+000
6.0505972e+000
5.6883383e+000
5.2590218e+000
4.7802763e+000
4.3012900e+000
3.8683200e+000
3.4963412e+000
3.1850686e+000
2.9107318e+000
2.6461055e+000
2.3703983e+000
2.0669680e+000
1.7266908e+000
1.3526400e+000
9.7748852e-001
6.3320792e-001
3.2555753e-001
5.3796217e-002
-1.8239881e-001
-3.7766486e-001
-5.0955778e-001
-5.6642747e-001
-5.8441573e-001
-6.0209525e-001
-6.2714714e-001
-6.4679420e-001
-6.0729474e-001
-4.6490285e-001
-2.4252927e-001
1.6938940e-002
2.5962663e-001
4.4502914e-001
5.8662051e-001
7.0648760e-001
8.1043196e-001
8.9538962e-001
9.4210643e-001
9.3467546e-001
8.8256907e-001
7.9536361e-001
6.6161823e-001
4.7700316e-001
2.8057104e-001
1.1505520e-001
-1.6524531e-003
-4.7906667e-002
3.2757446e-002
2.7306199e-001
5.8832479e-001
8.7402725e-001
1.0603731e+000
1.1060920e+000
1.0433234e+000
9.2315143e-001
7.9846925e-001
7.0368034e-001
6.0153711e-001
4.4808686e-001
2.4203169e-001
1.1576533e-002
-1.4295420e-001
-1.3321379e-001
1.2514278e-002
2.3388126e-001
4.5933357e-001
6.3958949e-001
8.2474923e-001
1.0898000e+000
