Image.
>Pix99999.
  .
5555
5555
2300
900
5555
2
1
0
701
5555
3.0801001e-003
3.1442083e-003
3.2082167e-003
3.2723248e-003
3.3364331e-003
3.4005414e-003
3.4646499e-003
3.5286590e-003
3.5927664e-003
3.6567757e-003
3.7208828e-003
3.7851878e-003
3.8490046e-003
3.9125192e-003
3.9772042e-003
4.0435749e-003
4.1053877e-003
4.1607572e-003
4.2333202e-003
4.3300535e-003
4.3626199e-003
4.3049119e-003
4.4858693e-003
5.0033219e-003
4.6339314e-003
2.4374428e-003
8.7530854e-005
-5.0076010e-004
6.0762040e-004
2.5051238e-003
3.1632143e-003
2.3127100e-003
8.0480101e-003
2.5317287e-002
3.6641791e-002
2.1438349e-002
-2.7031999e-002
-1.0454821e-001
-1.7924246e-001
-2.1634001e-001
-2.0209172e-001
-1.3497464e-001
-3.7361018e-002
6.3200921e-002
1.4675127e-001
2.0070007e-001
2.3248030e-001
2.5379950e-001
2.6890993e-001
2.7949899e-001
2.8675714e-001
2.9206261e-001
2.9804984e-001
3.0515486e-001
3.0319905e-001
2.8140092e-001
2.4005519e-001
1.8533616e-001
1.3255745e-001
9.7744256e-002
8.7973230e-002
1.0257384e-001
1.2134714e-001
1.2036370e-001
8.6345658e-002
1.6634136e-002
-6.3109286e-002
-1.2180157e-001
-1.4458999e-001
-1.2818804e-001
-9.3249097e-002
-6.5103829e-002
-5.5516329e-002
-6.5996714e-002
-7.5969160e-002
-6.0787644e-002
-9.9510849e-003
7.5933091e-002
1.7175286e-001
2.4738902e-001
2.8694999e-001
2.8590536e-001
2.6466942e-001
2.4898301e-001
2.5039920e-001
2.6877922e-001
2.7789995e-001
2.4971250e-001
1.8717772e-001
1.0829592e-001
4.4864886e-002
2.4216341e-002
3.5755433e-002
5.5846646e-002
6.6208780e-002
5.6553181e-002
3.9232560e-002
3.1954426e-002
3.9376218e-002
6.0366131e-002
9.1846861e-002
1.3012025e-001
1.7118160e-001
2.1018292e-001
2.3927577e-001
2.5251451e-001
2.5676906e-001
2.6264477e-001
2.7486798e-001
2.9282635e-001
3.0434871e-001
2.9648393e-001
2.7186039e-001
2.4036545e-001
2.1493137e-001
2.0572664e-001
2.0730132e-001
2.1025194e-001
2.1577846e-001
2.3014639e-001
2.6135799e-001
3.1289175e-001
3.6719197e-001
3.9953041e-001
3.9253616e-001
3.3794248e-001
2.5101781e-001
1.5649199e-001
7.7358201e-002
3.0542197e-002
1.2740171e-002
9.9984203e-003
2.9618281e-004
-3.7184376e-002
-1.0522807e-001
-1.9289458e-001
-2.6553863e-001
-2.8469935e-001
-2.3835197e-001
-1.3610666e-001
-2.6395360e-002
3.3182420e-002
1.7611943e-002
-7.3567703e-002
-2.0379116e-001
-3.2564330e-001
-4.1375503e-001
-4.5781451e-001
-4.6395811e-001
-4.4491026e-001
-4.1170356e-001
-3.7436831e-001
-3.4385160e-001
-3.2964036e-001
-3.3271959e-001
-3.4793064e-001
-3.6134222e-001
-3.5753849e-001
-3.3163941e-001
-2.8448236e-001
-2.1834829e-001
-1.3595299e-001
-4.0373467e-002
6.0886659e-002
1.4200535e-001
1.7315193e-001
1.4620253e-001
7.0555918e-002
-1.8269559e-002
-8.0317408e-002
-1.0942921e-001
-1.1868818e-001
-1.2644914e-001
-1.4875668e-001
-1.8580031e-001
-2.3134249e-001
-2.8707373e-001
-3.5745972e-001
-4.3852732e-001
-5.2070701e-001
-5.9094602e-001
-6.3838637e-001
-6.6817564e-001
-6.9116122e-001
-7.0584416e-001
-6.9995862e-001
-6.4617378e-001
-5.2070230e-001
-3.4776396e-001
-1.7643720e-001
-4.8108339e-002
1.2052787e-002
2.1514382e-002
1.4943774e-002
2.2194488e-003
-2.2029698e-002
-6.1248638e-002
-1.1377186e-001
-1.6624902e-001
-2.0193377e-001
-2.1698143e-001
-2.1740589e-001
-2.1803957e-001
-2.3685730e-001
-2.8671217e-001
-3.7234271e-001
-4.7748166e-001
-5.7639372e-001
-6.5382868e-001
-7.0276415e-001
-7.2075796e-001
-7.0622802e-001
-6.5259153e-001
-5.5791247e-001
-4.5467418e-001
-3.9096722e-001
-3.9203256e-001
-4.5941782e-001
-5.5936885e-001
-6.4558476e-001
-7.0354599e-001
-7.4028498e-001
-7.6391739e-001
-7.8008127e-001
-7.9027718e-001
-7.9318786e-001
-7.8558379e-001
-7.6379764e-001
-7.2639894e-001
-6.7471540e-001
-6.1578918e-001
-5.5722404e-001
-4.9365658e-001
-4.1476610e-001
-3.2653564e-001
-2.4811000e-001
-2.0666109e-001
-2.2560480e-001
-2.9398862e-001
-3.7841910e-001
-4.4669485e-001
-4.7519055e-001
-4.6370825e-001
-4.2486545e-001
-3.6128116e-001
-2.7109599e-001
-1.7001922e-001
-8.6157173e-002
-4.6430916e-002
-6.3565902e-002
-9.6357860e-002
-7.7867188e-002
1.1514280e-002
1.4866042e-001
2.8265011e-001
3.5918814e-001
3.7490344e-001
3.6193949e-001
3.4590852e-001
3.4136420e-001
3.5426801e-001
3.8146788e-001
4.0020666e-001
3.7883544e-001
3.0554184e-001
1.9165665e-001
8.2327664e-002
2.9354181e-002
1.3447702e-002
-2.6096810e-002
-9.1567591e-002
-1.3694799e-001
-1.2218302e-001
-2.9651139e-002
1.0579722e-001
2.1637285e-001
2.5323218e-001
1.9989076e-001
1.0107245e-001
3.4545746e-002
3.2180198e-002
7.6892540e-002
1.1234566e-001
7.1854860e-002
-4.8277348e-002
-1.9459686e-001
-2.8668675e-001
-2.3516400e-001
2.9771939e-002
5.4153204e-001
1.2429609e+000
2.0153608e+000
2.7694743e+000
3.4760833e+000
4.2312541e+000
5.2216029e+000
6.6198440e+000
8.5638199e+000
1.1146114e+001
1.4367271e+001
1.7943714e+001
2.1409519e+001
2.4499680e+001
2.7215826e+001
2.9887411e+001
3.3049538e+001
3.7099731e+001
4.2153858e+001
4.7704803e+001
5.2894596e+001
5.7520157e+001
6.2003384e+001
6.6765808e+001
7.2020477e+001
7.7480118e+001
8.2510048e+001
8.6744194e+001
9.0133087e+001
9.2723679e+001
9.4593086e+001
9.5812653e+001
9.6447823e+001
9.6584663e+001
9.6319878e+001
9.5706329e+001
9.4766678e+001
9.3581856e+001
9.2266449e+001
9.0825226e+001
8.9146812e+001
8.7067413e+001
8.4431938e+001
8.1253838e+001
7.7686661e+001
7.3811974e+001
6.9616531e+001
6.5082397e+001
6.0231144e+001
5.5200535e+001
5.0224518e+001
4.5507885e+001
4.1196411e+001
3.7383827e+001
3.4108879e+001
3.1331566e+001
2.8953215e+001
2.6907188e+001
2.5174219e+001
2.3754892e+001
2.2654654e+001
2.1861000e+001
2.1343056e+001
2.1069452e+001
2.1017263e+001
2.1177963e+001
2.1555500e+001
2.2149965e+001
2.2962721e+001
2.4036455e+001
2.5453197e+001
2.7289400e+001
2.9585085e+001
3.2270176e+001
3.5166103e+001
3.8085243e+001
4.0865742e+001
4.3407005e+001
4.5711575e+001
4.8010399e+001
5.0672562e+001
5.3644470e+001
5.6400192e+001
5.8453342e+001
5.9536846e+001
5.9749798e+001
5.9490677e+001
5.8907715e+001
5.7812618e+001
5.6048378e+001
5.3622425e+001
5.0820030e+001
4.8146942e+001
4.5863995e+001
4.3896744e+001
4.2101357e+001
4.0336601e+001
3.8478081e+001
3.6432465e+001
3.4179897e+001
3.1792164e+001
2.9414671e+001
2.7223721e+001
2.5227081e+001
2.3231157e+001
2.1042589e+001
1.8559822e+001
1.5905577e+001
1.3415324e+001
1.1296286e+001
9.5386639e+000
8.0432434e+000
6.6736584e+000
5.3631678e+000
4.1361341e+000
3.0120039e+000
1.9865036e+000
1.0826370e+000
3.6295855e-001
-1.0738300e-001
-2.6418689e-001
-1.0217577e-002
7.6387435e-001
2.0130811e+000
3.5019510e+000
5.0113096e+000
6.4117284e+000
7.6786995e+000
8.8943968e+000
1.0138239e+001
1.1436900e+001
1.2700600e+001
1.3716473e+001
1.4327220e+001
1.4495616e+001
1.4276132e+001
1.3801929e+001
1.3184438e+001
1.2479060e+001
1.1712754e+001
1.0890057e+001
9.9970732e+000
9.0119534e+000
7.9613185e+000
6.9374485e+000
6.0376062e+000
5.3390126e+000
4.8811760e+000
4.6539960e+000
4.6215639e+000
4.7274618e+000
4.9138546e+000
5.1326017e+000
5.3687859e+000
5.6491466e+000
5.9970012e+000
6.4133234e+000
6.8699880e+000
7.3046498e+000
7.6534319e+000
7.8646140e+000
7.9078646e+000
7.7838531e+000
7.5171428e+000
7.1558218e+000
6.7445455e+000
6.3136749e+000
5.8836527e+000
5.4639935e+000
5.0591736e+000
4.6679468e+000
4.2774372e+000
3.8614349e+000
3.4028141e+000
2.9039643e+000
2.3784995e+000
1.8487529e+000
1.3302507e+000
8.2811916e-001
3.6316806e-001
-1.6480982e-002
-2.6078701e-001
-3.2822829e-001
-1.9041829e-001
1.5860814e-001
6.9288743e-001
1.3455894e+000
2.0529439e+000
2.7692919e+000
3.4443529e+000
4.0144224e+000
4.4151516e+000
4.5926518e+000
4.5333424e+000
4.2859750e+000
3.9152730e+000
3.4881394e+000
3.0657344e+000
2.6963673e+000
2.4102571e+000
2.2095120e+000
2.0757301e+000
1.9676690e+000
1.8487132e+000
1.7003978e+000
1.5197023e+000
1.3235536e+000
1.1347948e+000
9.7918713e-001
8.8279217e-001
8.7069720e-001
9.6389288e-001
1.1755837e+000
1.5097040e+000
1.9553704e+000
2.4864001e+000
3.0560594e+000
3.6132793e+000
4.1097054e+000
4.5124516e+000
4.8164759e+000
5.0333171e+000
5.1929932e+000
5.3282423e+000
5.4689560e+000
5.6383643e+000
5.8497071e+000
6.1168303e+000
6.4595685e+000
6.8991399e+000
7.4556179e+000
8.1372204e+000
8.9298925e+000
9.8097534e+000
1.0745249e+001
1.1710903e+001
1.2694500e+001
1.3688571e+001
1.4683682e+001
1.5646651e+001
1.6499886e+001
1.7148672e+001
1.7486589e+001
1.7436361e+001
1.6980686e+001
1.6145649e+001
1.5013392e+001
1.3681674e+001
1.2251822e+001
1.0824753e+001
9.4996500e+000
8.3579683e+000
7.4502096e+000
6.8090749e+000
6.4438496e+000
6.3409238e+000
6.4477201e+000
6.6794319e+000
6.9053688e+000
6.9995341e+000
6.8732805e+000
6.4837070e+000
5.8676095e+000
5.0964355e+000
4.2746301e+000
3.5005851e+000
2.8408670e+000
2.3314903e+000
1.9583302e+000
1.6928852e+000
1.5022051e+000
1.3602200e+000
1.2583035e+000
1.1928860e+000
1.1626107e+000
1.1666228e+000
1.2033643e+000
1.2671677e+000
1.3420949e+000
1.4049703e+000
1.4218839e+000
1.3635057e+000
1.2181257e+000
9.8956996e-001
7.0895123e-001
4.1749039e-001
1.6395234e-001
-6.8166107e-003
-6.6797063e-002
-2.0586416e-002
6.3150473e-002
1.2603915e-001
1.6950160e-001
2.0461462e-001
2.3218895e-001
2.5625846e-001
2.9387859e-001
3.5909796e-001
4.5016652e-001
5.5216604e-001
6.2874401e-001
6.5107715e-001
6.2300146e-001
5.6988478e-001
5.4872805e-001
6.0339391e-001
7.2516048e-001
8.8506991e-001
1.0374130e+000
1.1558638e+000
1.2732264e+000
1.4307142e+000
1.6545396e+000
1.9546400e+000
2.3099055e+000
2.6989515e+000
3.1174514e+000
3.5528584e+000
3.9607623e+000
4.2892904e+000
4.4907541e+000
4.5406713e+000
4.4742808e+000
4.3385305e+000
4.1718698e+000
4.0070772e+000
3.8652129e+000
3.7625039e+000
3.7074823e+000
3.6963990e+000
3.6957593e+000
3.6741199e+000
3.6251194e+000
3.5523624e+000
3.4697020e+000
3.3875954e+000
3.3014071e+000
3.2124846e+000
3.1493278e+000
3.1460526e+000
3.2308340e+000
3.4157801e+000
3.6699605e+000
3.9455764e+000
4.1781383e+000
4.3042326e+000
4.2784519e+000
4.0768228e+000
3.7269590e+000
3.2813838e+000
2.8283708e+000
2.4463401e+000
2.1558399e+000
1.9461732e+000
1.7548379e+000
1.5273640e+000
1.2735350e+000
1.0231252e+000
8.1813663e-001
6.8595994e-001
5.9874082e-001
5.1408786e-001
3.8735250e-001
1.8706240e-001
-7.3679149e-002
-3.5643202e-001
-5.7750612e-001
-6.5974253e-001
-5.8446920e-001
-3.6664155e-001
-8.3538577e-002
1.8714115e-001
4.1749415e-001
5.9880018e-001
7.4517578e-001
8.6921978e-001
9.5962602e-001
1.0018983e+000
9.9103546e-001
9.2512852e-001
8.0542612e-001
6.3820344e-001
4.4465825e-001
2.5258559e-001
9.9620216e-002
1.5485301e-002
-6.6255070e-003
2.0126216e-002
9.2086807e-002
2.0672518e-001
3.5704780e-001
5.3455651e-001
7.2921407e-001
9.2706674e-001
1.1012672e+000
1.2260177e+000
1.2910714e+000
1.2985200e+000
1.2796493e+000
1.2663434e+000
1.2631440e+000
1.2658458e+000
1.2618248e+000
1.2403011e+000
1.2054350e+000
1.1692091e+000
1.1589535e+000
1.1945155e+000
1.2495719e+000
1.2895023e+000
1.2902150e+000
1.2308000e+000
