Image.
>Pix99999.
  .
5555
5555
2300
900
5555
2
1
0
701
5555
2.6284000e-001
2.6831216e-001
2.7377439e-001
2.7924651e-001
2.8470874e-001
2.9018086e-001
2.9565305e-001
3.0111530e-001
3.0658740e-001
3.1204966e-001
3.1752172e-001
3.2299387e-001
3.2845625e-001
3.3390862e-001
3.3939022e-001
3.4491152e-001
3.5032612e-001
3.5559204e-001
3.6126369e-001
3.6748064e-001
3.7222543e-001
3.7489170e-001
3.8304788e-001
3.9893904e-001
3.9443862e-001
3.3700070e-001
2.1022852e-001
1.7886627e-002
-1.7332628e-001
-3.0032215e-001
-3.8587043e-001
-4.6826866e-001
-5.4909307e-001
-6.1876583e-001
-6.6622382e-001
-6.8769848e-001
-7.0999593e-001
-7.6177478e-001
-8.4301865e-001
-9.4126868e-001
-1.0287343e+000
-1.0794533e+000
-1.0930160e+000
-1.0746471e+000
-1.0197017e+000
-9.2296839e-001
-7.8725547e-001
-6.2391210e-001
-4.6766546e-001
-3.5194582e-001
-2.7565071e-001
-2.2270705e-001
-1.6043633e-001
-6.1995246e-002
5.5368342e-002
1.5960355e-001
2.1585360e-001
1.9757175e-001
1.1477054e-001
-8.7918332e-003
-1.4130054e-001
-2.5123554e-001
-3.1797796e-001
-3.2967430e-001
-2.9557255e-001
-2.3392308e-001
-1.7146249e-001
-1.3270016e-001
-1.2200617e-001
-1.3377789e-001
-1.4975700e-001
-1.5020287e-001
-1.2643029e-001
-7.7503830e-002
-1.8511467e-002
2.9218856e-002
4.0967986e-002
-4.3854299e-003
-1.0894390e-001
-2.6364657e-001
-4.4126713e-001
-6.0853535e-001
-7.3312551e-001
-7.8755873e-001
-7.6202399e-001
-6.5979534e-001
-5.1195067e-001
-3.5598561e-001
-2.1496806e-001
-1.0248212e-001
-1.6166111e-002
4.7978956e-002
7.7029720e-002
5.4372676e-002
-2.4862587e-002
-1.5507665e-001
-3.0656999e-001
-4.4323343e-001
-5.3971016e-001
-5.8252585e-001
-5.8921289e-001
-5.8504176e-001
-5.7836127e-001
-5.6636518e-001
-5.2914423e-001
-4.4862199e-001
-3.4102854e-001
-2.3627046e-001
-1.6355263e-001
-1.4319210e-001
-1.6189043e-001
-1.9235121e-001
-2.0513999e-001
-1.7695972e-001
-1.1138424e-001
-2.7132815e-002
3.9601553e-002
4.9865425e-002
-1.8835349e-002
-1.7413355e-001
-3.9125857e-001
-6.3065636e-001
-8.4612340e-001
-9.9695653e-001
-1.0745388e+000
-1.0854250e+000
-1.0418400e+000
-9.5587814e-001
-8.3271140e-001
-6.8012238e-001
-5.3070116e-001
-4.2578661e-001
-3.9753938e-001
-4.6340302e-001
-5.9839320e-001
-7.5924623e-001
-9.0366137e-001
-9.9844825e-001
-1.0429198e+000
-1.0506816e+000
-1.0346600e+000
-1.0071219e+000
-9.8151052e-001
-9.7253734e-001
-9.9668300e-001
-1.0650429e+000
-1.1622423e+000
-1.2610990e+000
-1.3357960e+000
-1.3668300e+000
-1.3556643e+000
-1.3154798e+000
-1.2688057e+000
-1.2385955e+000
-1.2329221e+000
-1.2482378e+000
-1.2622366e+000
-1.2480894e+000
-1.1968203e+000
-1.1104195e+000
-9.9857312e-001
-8.7384373e-001
-7.4799591e-001
-6.3697147e-001
-5.7737488e-001
-6.0695910e-001
-7.2423762e-001
-8.9814591e-001
-1.0576968e+000
-1.1277806e+000
-1.0951157e+000
-9.8746121e-001
-8.6694741e-001
-8.0031615e-001
-8.0842370e-001
-8.8154751e-001
-9.8498982e-001
-1.0788704e+000
-1.1494986e+000
-1.1986486e+000
-1.2326314e+000
-1.2579976e+000
-1.2770500e+000
-1.2893549e+000
-1.2938691e+000
-1.2861129e+000
-1.2480011e+000
-1.1633334e+000
-1.0562040e+000
-9.7103459e-001
-9.4320512e-001
-9.8834050e-001
-1.0653732e+000
-1.1124705e+000
-1.1104065e+000
-1.0729586e+000
-1.0437120e+000
-1.0694201e+000
-1.1471165e+000
-1.2435842e+000
-1.3200572e+000
-1.3467424e+000
-1.3351157e+000
-1.3209640e+000
-1.3443131e+000
-1.4352778e+000
-1.5791266e+000
-1.7341826e+000
-1.8551056e+000
-1.9063997e+000
-1.8951000e+000
-1.8507235e+000
-1.7912800e+000
-1.7216911e+000
-1.6295466e+000
-1.5007993e+000
-1.3546537e+000
-1.2287600e+000
-1.1502464e+000
-1.1328553e+000
-1.1694943e+000
-1.2409850e+000
-1.3256037e+000
-1.4022310e+000
-1.4541680e+000
-1.4703786e+000
-1.4537911e+000
-1.4173255e+000
-1.3818508e+000
-1.3691142e+000
-1.3862958e+000
-1.4257519e+000
-1.4552411e+000
-1.4316448e+000
-1.3286254e+000
-1.1431736e+000
-9.2231852e-001
-7.3740274e-001
-6.3067484e-001
-6.1547083e-001
-6.7544055e-001
-7.7708817e-001
-8.8545811e-001
-9.6758038e-001
-9.9515074e-001
-9.5573896e-001
-8.9546126e-001
-8.9120328e-001
-9.8424369e-001
-1.1645403e+000
-1.3187642e+000
-1.2950519e+000
-1.0669479e+000
-7.1568042e-001
-3.8648385e-001
-2.2437093e-001
-2.2629885e-001
-2.8859425e-001
-3.3291283e-001
-3.2100719e-001
-2.5619486e-001
-1.6552123e-001
-6.9802955e-002
1.6568623e-002
7.3677763e-002
8.4392712e-002
6.6959158e-002
5.3328067e-002
1.9242782e-002
-9.0189829e-002
-2.6874742e-001
-4.6525389e-001
-6.5255517e-001
-8.2601827e-001
-9.7270298e-001
-1.0745035e+000
-1.1333725e+000
-1.1639735e+000
-1.1651849e+000
-1.1216282e+000
-1.0163800e+000
-8.4340012e-001
-6.4328671e-001
-4.8353231e-001
-3.9355567e-001
-3.6038852e-001
-3.3214432e-001
-2.2929361e-001
4.0848449e-002
5.5653417e-001
1.2978832e+000
2.1625874e+000
3.0229015e+000
3.7751369e+000
4.4666281e+000
5.2737064e+000
6.4155221e+000
8.1232224e+000
1.0612350e+001
1.3986089e+001
1.7891857e+001
2.1668570e+001
2.4923283e+001
2.7625082e+001
3.0160240e+001
3.3183079e+001
3.7205246e+001
4.2412724e+001
4.8229958e+001
5.3630497e+001
5.8308670e+001
6.2676468e+001
6.7232208e+001
7.2316711e+001
7.7712502e+001
8.2781601e+001
8.7102119e+001
9.0551788e+001
9.3187599e+001
9.5165993e+001
9.6602684e+001
9.7539497e+001
9.7929176e+001
9.7678169e+001
9.6779953e+001
9.5346001e+001
9.3630112e+001
9.1943504e+001
9.0348747e+001
8.8656715e+001
8.6628418e+001
8.4060211e+001
8.0920197e+001
7.7321907e+001
7.3333496e+001
6.8959679e+001
6.4230644e+001
5.9232616e+001
5.4145397e+001
4.9212959e+001
4.4613914e+001
4.0444752e+001
3.6772404e+001
3.3637299e+001
3.1018566e+001
2.8841843e+001
2.7041697e+001
2.5574873e+001
2.4411085e+001
2.3530937e+001
2.2910999e+001
2.2522898e+001
2.2341736e+001
2.2348579e+001
2.2538872e+001
2.2917601e+001
2.3472040e+001
2.4180161e+001
2.5073458e+001
2.6248131e+001
2.7844913e+001
3.0003029e+001
3.2692425e+001
3.5702648e+001
3.8789200e+001
4.1734486e+001
4.4442802e+001
4.6971539e+001
4.9537560e+001
5.2408127e+001
5.5423943e+001
5.7992790e+001
5.9687042e+001
6.0407295e+001
6.0344151e+001
5.9881893e+001
5.9157116e+001
5.7994549e+001
5.6218300e+001
5.3773251e+001
5.0879372e+001
4.7997887e+001
4.5410717e+001
4.3124527e+001
4.1033794e+001
3.8974350e+001
3.6803188e+001
3.4438168e+001
3.1918188e+001
2.9408945e+001
2.7084343e+001
2.5062420e+001
2.3273720e+001
2.1457628e+001
1.9416286e+001
1.7109192e+001
1.4683149e+001
1.2442972e+001
1.0566378e+001
9.0277395e+000
7.7183714e+000
6.4920802e+000
5.2621546e+000
4.0301981e+000
2.8418045e+000
1.7721699e+000
8.9232278e-001
2.5431252e-001
-1.2406237e-001
-2.4568491e-001
-2.6458591e-002
7.0499367e-001
1.9872857e+000
3.6548872e+000
5.4469604e+000
7.0685182e+000
8.3889732e+000
9.5018015e+000
1.0553057e+001
1.1670904e+001
1.2854200e+001
1.3941027e+001
1.4753712e+001
1.5157485e+001
1.5130245e+001
1.4782928e+001
1.4228180e+001
1.3541060e+001
1.2770092e+001
1.1938121e+001
1.1048129e+001
1.0089485e+001
9.0964470e+000
8.1650114e+000
7.3763123e+000
6.7684331e+000
6.3430681e+000
6.0670714e+000
5.9151177e+000
5.8832936e+000
5.9702401e+000
6.1700492e+000
6.4669261e+000
6.8330169e+000
7.2413774e+000
7.6673040e+000
8.0740995e+000
8.4068575e+000
8.6076517e+000
8.6271038e+000
8.4565210e+000
8.1443691e+000
7.7550530e+000
7.3523388e+000
6.9690251e+000
6.5930600e+000
6.2080445e+000
5.8062234e+000
5.3814101e+000
4.9259739e+000
4.4270544e+000
3.8680086e+000
3.2539959e+000
2.6229606e+000
2.0100441e+000
1.4343007e+000
9.0679657e-001
4.3538761e-001
4.4839472e-002
-2.1747911e-001
-3.2946742e-001
-3.1179041e-001
-1.6696663e-001
1.3983849e-001
6.1401844e-001
1.2025746e+000
1.8502920e+000
2.5170667e+000
3.1526041e+000
3.6874778e+000
4.0643773e+000
4.2561455e+000
4.2621164e+000
4.1137919e+000
3.8496823e+000
3.5084836e+000
3.1316063e+000
2.7630997e+000
2.4372983e+000
2.1686771e+000
1.9548799e+000
1.7726277e+000
1.5984949e+000
1.4186466e+000
1.2320104e+000
1.0562658e+000
9.1432059e-001
8.3013070e-001
8.2135499e-001
8.9482588e-001
1.0579286e+000
1.3229218e+000
1.7001537e+000
2.1920178e+000
2.7832439e+000
3.4296684e+000
4.0786214e+000
4.6755834e+000
5.1752815e+000
5.5520911e+000
5.7994800e+000
5.9390488e+000
6.0125337e+000
6.0853987e+000
6.2212734e+000
6.4671865e+000
6.8492131e+000
7.3614321e+000
7.9902282e+000
8.7207022e+000
9.5400972e+000
1.0438696e+001
1.1405337e+001
1.2428028e+001
1.3498835e+001
1.4617500e+001
1.5770597e+001
1.6911116e+001
1.7965269e+001
1.8826252e+001
1.9400928e+001
1.9636135e+001
1.9497360e+001
1.8967508e+001
1.8053459e+001
1.6807327e+001
1.5322595e+001
1.3751770e+001
1.2240537e+001
1.0893279e+001
9.7833519e+000
8.9449120e+000
8.3981552e+000
8.1534500e+000
8.1878281e+000
8.4115486e+000
8.7009802e+000
8.8988628e+000
8.8738947e+000
8.5710583e+000
7.9887357e+000
7.2009058e+000
6.2996621e+000
5.3760839e+000
4.5076108e+000
3.7413363e+000
3.1067588e+000
2.6102555e+000
2.2467735e+000
1.9990399e+000
1.8477600e+000
1.7761449e+000
1.7706574e+000
1.8233993e+000
1.9218949e+000
2.0409100e+000
2.1487317e+000
2.2075250e+000
2.1906781e+000
2.1000075e+000
1.9485457e+000
1.7579553e+000
1.5442394e+000
1.3065012e+000
1.0441688e+000
7.6776004e-001
4.9879047e-001
2.7659851e-001
1.2479614e-001
2.1275774e-002
-5.9333172e-002
-1.2398360e-001
-1.7213902e-001
-1.9582823e-001
-1.8473926e-001
-1.2848689e-001
-2.6916124e-002
9.6122988e-002
2.1866120e-001
3.3762363e-001
4.5697141e-001
5.8568639e-001
7.2307765e-001
8.4286094e-001
9.2551029e-001
9.8433650e-001
1.0461508e+000
1.1497899e+000
1.3159660e+000
1.5133646e+000
1.7051572e+000
1.8754518e+000
2.0358360e+000
2.2545891e+000
2.5957325e+000
3.0738778e+000
3.6643424e+000
4.2708449e+000
4.7798724e+000
5.0821719e+000
5.0997872e+000
4.8381977e+000
4.3504896e+000
3.7612498e+000
3.1973674e+000
2.7427471e+000
2.4463360e+000
2.2902770e+000
2.2446578e+000
2.2908998e+000
2.4140658e+000
2.6007767e+000
2.8283489e+000
3.0463738e+000
3.2144017e+000
3.3371537e+000
3.4314907e+000
3.5154495e+000
3.5968845e+000
3.6535664e+000
3.6702199e+000
3.6721969e+000
3.6801376e+000
3.6730578e+000
3.6160376e+000
3.4652991e+000
3.1961377e+000
2.8456521e+000
2.4568617e+000
2.0449252e+000
1.6222943e+000
1.2148228e+000
8.5699022e-001
5.9791732e-001
4.6309561e-001
3.9362606e-001
3.0987597e-001
1.3428967e-001
-1.7434534e-001
-5.4497093e-001
-8.7817574e-001
-1.0743970e+000
-1.0712965e+000
-9.2608964e-001
-7.2990304e-001
-5.8619064e-001
-5.7050055e-001
-6.5721548e-001
-7.9060620e-001
-8.9907026e-001
-9.2965829e-001
-9.0429199e-001
-8.6619496e-001
-8.6723304e-001
-9.4402796e-001
-1.0745200e+000
-1.2190449e+000
-1.3270200e+000
-1.3494623e+000
-1.2506770e+000
-1.0132613e+000
-6.7016208e-001
-2.8319448e-001
3.1739950e-002
1.7976266e-001
1.8775320e-001
1.1073846e-001
-3.6543682e-003
-1.1375251e-001
-1.9265831e-001
-2.1937200e-001
-1.8079531e-001
-5.6354210e-002
2.0863530e-001
6.5255398e-001
1.2220335e+000
1.8326321e+000
2.3701749e+000
2.7308125e+000
2.8796477e+000
2.8171256e+000
2.6155021e+000
2.3594816e+000
2.1137040e+000
1.9143232e+000
1.7069185e+000
1.4439749e+000
1.1954098e+000
1.0584831e+000
1.1229062e+000
1.4766999e+000
