Image.
>Pix99999.
  .
5555
5555
2300
900
5555
2
1
0
701
5555
5.5998001e-002
5.7163332e-002
5.8328666e-002
5.9493005e-002
6.0658332e-002
6.1822671e-002
6.2987991e-002
6.4153336e-002
6.5317668e-002
6.6482991e-002
6.7648329e-002
6.8813667e-002
6.9978014e-002
7.1138427e-002
7.2307579e-002
7.3487669e-002
7.4637689e-002
7.5747043e-002
7.6966532e-002
7.8339569e-002
7.9303749e-002
7.9691842e-002
8.1602372e-002
8.5662171e-002
8.4058747e-002
6.8984039e-002
4.2041861e-002
7.2081536e-003
-3.2651700e-002
-7.5170703e-002
-1.1862352e-001
-1.5945446e-001
-1.8607143e-001
-1.8822239e-001
-1.7062099e-001
-1.4301550e-001
-1.1795262e-001
-1.0625143e-001
-1.0847877e-001
-1.2321977e-001
-1.5321429e-001
-2.0158072e-001
-2.6785481e-001
-3.4708896e-001
-4.2082441e-001
-4.6953085e-001
-4.8623794e-001
-4.7127613e-001
-4.3886194e-001
-4.0502369e-001
-3.7592569e-001
-3.5390863e-001
-3.3850983e-001
-3.2966372e-001
-3.3243534e-001
-3.5077080e-001
-3.7737080e-001
-4.0192640e-001
-4.1662160e-001
-4.1761434e-001
-4.1362286e-001
-4.1625330e-001
-4.3225303e-001
-4.6397382e-001
-5.0268501e-001
-5.3541744e-001
-5.4690462e-001
-5.2654833e-001
-4.8561257e-001
-4.4505933e-001
-4.3513101e-001
-4.8057571e-001
-5.7125974e-001
-6.8196225e-001
-7.7486646e-001
-8.1715643e-001
-8.1307495e-001
-7.8163528e-001
-7.4869817e-001
-7.3572499e-001
-7.3764884e-001
-7.4254221e-001
-7.4922168e-001
-7.6296937e-001
-7.9853719e-001
-8.6781287e-001
-9.5721030e-001
-1.0441593e+000
-1.1081440e+000
-1.1337808e+000
-1.1237643e+000
-1.0879700e+000
-1.0373869e+000
-9.8365694e-001
-9.3860501e-001
-9.1300702e-001
-9.1218793e-001
-9.3753999e-001
-9.8275399e-001
-1.0377461e+000
-1.0889000e+000
-1.1235684e+000
-1.1382805e+000
-1.1350534e+000
-1.1226206e+000
-1.1104000e+000
-1.1004537e+000
-1.0921381e+000
-1.0857412e+000
-1.0821826e+000
-1.0839758e+000
-1.0928143e+000
-1.1059080e+000
-1.1180791e+000
-1.1228462e+000
-1.1142071e+000
-1.0907921e+000
-1.0548514e+000
-1.0162405e+000
-9.8578769e-001
-9.6729314e-001
-9.5967430e-001
-9.5464879e-001
-9.4343871e-001
-9.2729080e-001
-9.1170573e-001
-9.0161461e-001
-8.9963979e-001
-9.0081024e-001
-8.9825952e-001
-8.9089400e-001
-8.8006902e-001
-8.6633468e-001
-8.4863883e-001
-8.2129139e-001
-7.7872324e-001
-7.2423214e-001
-6.6733551e-001
-6.2660080e-001
-6.2080657e-001
-6.5349001e-001
-7.1752590e-001
-7.9076403e-001
-8.4760886e-001
-8.7527418e-001
-8.6936873e-001
-8.3467466e-001
-7.8047532e-001
-7.1879560e-001
-6.6164464e-001
-6.1655998e-001
-5.8681053e-001
-5.6677806e-001
-5.4737461e-001
-5.2207017e-001
-4.8798907e-001
-4.5159873e-001
-4.2284152e-001
-4.0778989e-001
-4.0884197e-001
-4.2189488e-001
-4.4027022e-001
-4.5911840e-001
-4.7527400e-001
-4.8792607e-001
-4.9690601e-001
-5.0014734e-001
-4.9484167e-001
-4.7942320e-001
-4.5489651e-001
-4.3015227e-001
-4.1686642e-001
-4.2173377e-001
-4.4548866e-001
-4.7537595e-001
-4.9370247e-001
-4.9034324e-001
-4.6358588e-001
-4.2901120e-001
-4.0775928e-001
-4.0743998e-001
-4.2586511e-001
-4.5213300e-001
-4.7453627e-001
-4.9531680e-001
-5.2275372e-001
-5.5764705e-001
-5.9411067e-001
-6.1749578e-001
-6.1203450e-001
-5.7608831e-001
-5.1707929e-001
-4.4684201e-001
-3.7714636e-001
-3.1194606e-001
-2.5093427e-001
-1.9477120e-001
-1.4585115e-001
-1.1003111e-001
-9.2551529e-002
-8.7635003e-002
-8.3712354e-002
-7.1814708e-002
-4.6919409e-002
-1.2303059e-002
2.4513921e-002
5.7454195e-002
8.2033746e-002
9.5236488e-002
9.4801091e-002
7.8534499e-002
4.5524679e-002
6.3825212e-004
-4.6464302e-002
-8.0018669e-002
-8.4538303e-002
-6.0354043e-002
-1.8520715e-002
2.5814332e-002
5.7863217e-002
7.1028858e-002
6.3456193e-002
3.1592548e-002
-2.7012259e-002
-1.0291728e-001
-1.7777035e-001
-2.2689591e-001
-2.2886834e-001
-1.9084303e-001
-1.3830021e-001
-9.7365111e-002
-8.6491615e-002
-9.6760951e-002
-1.0258060e-001
-8.0632672e-002
-1.7222553e-002
7.3207572e-002
1.6034463e-001
2.2211480e-001
2.4713016e-001
2.3892258e-001
2.1013179e-001
1.7439315e-001
1.4455026e-001
1.3147537e-001
1.3977000e-001
1.5140171e-001
1.3455033e-001
6.2559359e-002
-7.5049818e-002
-2.3922858e-001
-3.6014128e-001
-3.7723681e-001
-2.5722703e-001
-4.3853264e-002
1.7368436e-001
3.3365834e-001
4.0686461e-001
3.9668581e-001
3.2571959e-001
2.1544029e-001
8.7170213e-002
-2.3657318e-002
-7.9114959e-002
-7.7371404e-002
-4.2980976e-002
2.1775197e-003
3.6920786e-002
1.8143984e-002
-9.8151013e-002
-2.8401786e-001
-4.6867651e-001
-6.3435221e-001
-8.0599409e-001
-9.9316597e-001
-1.1866071e+000
-1.3716862e+000
-1.5327199e+000
-1.6561248e+000
-1.7280903e+000
-1.7250201e+000
-1.6223290e+000
-1.4255406e+000
-1.1665531e+000
-8.8880044e-001
-6.3476586e-001
-4.1717362e-001
-2.1855450e-001
9.1701671e-003
3.3028743e-001
7.9066515e-001
1.4050975e+000
2.1242018e+000
2.8666828e+000
3.6255100e+000
4.4722085e+000
5.5379920e+000
7.0140753e+000
9.1985130e+000
1.2367189e+001
1.6314428e+001
2.0453701e+001
2.4286053e+001
2.7542519e+001
3.0405252e+001
3.3387115e+001
3.6935257e+001
4.1261784e+001
4.5983360e+001
5.0350502e+001
5.4138672e+001
5.7659885e+001
6.1334576e+001
6.5502663e+001
7.0084816e+001
7.4674500e+001
7.8996483e+001
8.2962143e+001
8.6556435e+001
8.9796753e+001
9.2696320e+001
9.5249184e+001
9.7403244e+001
9.9059158e+001
1.0006850e+002
1.0029429e+002
9.9808601e+001
9.8827621e+001
9.7378571e+001
9.5289856e+001
9.2398132e+001
8.8642815e+001
8.4242203e+001
7.9617790e+001
7.5000153e+001
7.0390961e+001
6.5738640e+001
6.1008266e+001
5.6290359e+001
5.1781391e+001
4.7630943e+001
4.3916077e+001
4.0667953e+001
3.7878773e+001
3.5499142e+001
3.3452400e+001
3.1687662e+001
3.0186102e+001
2.8932755e+001
2.7906685e+001
2.7076000e+001
2.6404360e+001
2.5872326e+001
2.5479380e+001
2.5232971e+001
2.5141085e+001
2.5190041e+001
2.5347939e+001
2.5600060e+001
2.5957138e+001
2.6450771e+001
2.7119900e+001
2.7975231e+001
2.8991720e+001
3.0120081e+001
3.1292278e+001
3.2438492e+001
3.3527206e+001
3.4713375e+001
3.6307064e+001
3.8437901e+001
4.0967541e+001
4.3541687e+001
4.5691257e+001
4.7238800e+001
4.8344250e+001
4.9144783e+001
4.9674496e+001
4.9956219e+001
5.0020824e+001
4.9882717e+001
4.9535549e+001
4.8985897e+001
4.8254036e+001
4.7333321e+001
4.6187649e+001
4.4789406e+001
4.3139404e+001
4.1305588e+001
3.9421295e+001
3.7600685e+001
3.5892406e+001
3.4197720e+001
3.2278156e+001
2.9963165e+001
2.7235516e+001
2.4283041e+001
2.1464287e+001
1.8981735e+001
1.6795639e+001
1.4786428e+001
1.2815277e+001
1.0819443e+001
8.8405581e+000
6.9470587e+000
5.2110372e+000
3.6991880e+000
2.4607215e+000
1.4928548e+000
7.4956977e-001
2.6747099e-001
1.7833371e-001
5.2169192e-001
1.1887434e+000
2.0187423e+000
2.8386843e+000
3.5452304e+000
4.1286645e+000
4.5974917e+000
4.9616795e+000
5.2533603e+000
5.5251842e+000
5.7925758e+000
6.0171828e+000
6.1566081e+000
6.1827178e+000
6.0914326e+000
5.9034729e+000
5.6263571e+000
5.2432308e+000
4.7365227e+000
4.1033177e+000
3.3905115e+000
2.7029424e+000
2.1258440e+000
1.6963714e+000
1.4197937e+000
1.2742729e+000
1.2471898e+000
1.3453262e+000
1.5702000e+000
1.9080660e+000
2.3318853e+000
2.8026581e+000
3.2904336e+000
3.7810807e+000
4.2584505e+000
4.6985569e+000
5.0776839e+000
5.3780217e+000
5.5997639e+000
5.7659202e+000
5.8936872e+000
5.9828358e+000
6.0213642e+000
5.9873300e+000
5.8674908e+000
5.6643701e+000
5.3810291e+000
5.0171361e+000
4.5806656e+000
4.0951395e+000
3.5970640e+000
3.1319945e+000
2.7139709e+000
2.3073030e+000
1.8764317e+000
1.4090004e+000
9.3300343e-001
5.2551687e-001
2.4117500e-001
7.9486236e-002
1.4149211e-002
2.7478999e-004
4.9711056e-003
2.1176785e-002
4.7921360e-002
8.5535005e-002
1.3934931e-001
2.2097731e-001
3.3556628e-001
4.7404286e-001
6.1569941e-001
7.2903603e-001
7.9827034e-001
8.3804423e-001
8.7245089e-001
9.2834139e-001
1.0235243e+000
1.1586397e+000
1.3248100e+000
1.5038353e+000
1.6757892e+000
1.8228954e+000
1.9354975e+000
2.0177186e+000
2.0778258e+000
2.1252830e+000
2.1656134e+000
2.1975360e+000
2.2223001e+000
2.2491078e+000
2.2911391e+000
2.3637493e+000
2.4763520e+000
2.6258256e+000
2.8022199e+000
2.9890175e+000
3.1701207e+000
3.3344102e+000
3.4776843e+000
3.6073010e+000
3.7390337e+000
3.8988464e+000
4.1113577e+000
4.3928399e+000
4.7490826e+000
5.1694880e+000
5.6388979e+000
6.1412792e+000
6.6651230e+000
7.2076306e+000
7.7677584e+000
8.3439274e+000
8.9303904e+000
9.5143499e+000
1.0081443e+001
1.0618301e+001
1.1110571e+001
1.1541851e+001
1.1892057e+001
1.2130592e+001
1.2226520e+001
1.2156855e+001
1.1912731e+001
1.1513907e+001
1.0990663e+001
1.0377778e+001
9.7070293e+000
9.0000038e+000
8.2748337e+000
7.5493655e+000
6.8419952e+000
6.1717496e+000
5.5500498e+000
4.9720263e+000
4.4243517e+000
3.8848631e+000
3.3357913e+000
2.7735898e+000
2.2026072e+000
1.6363410e+000
1.0901555e+000
5.7871145e-001
1.1630361e-001
-2.8336573e-001
-6.0867953e-001
-8.5247546e-001
-1.0105520e+000
-1.0834100e+000
-1.0766200e+000
-1.0047746e+000
-8.8763976e-001
-7.5083518e-001
-6.1759663e-001
-5.0236374e-001
-4.1357303e-001
-3.5082179e-001
-3.1027234e-001
-2.8506756e-001
-2.6780701e-001
-2.5182283e-001
-2.3331913e-001
-2.1452576e-001
-1.9762920e-001
-1.8104750e-001
-1.5923858e-001
-1.1993305e-001
-5.2453339e-002
4.7043100e-002
1.8628886e-001
3.8438570e-001
6.4911401e-001
9.5540255e-001
1.2751458e+000
1.5923328e+000
1.8986757e+000
2.1971021e+000
2.4914119e+000
2.7805390e+000
3.0619786e+000
3.3332348e+000
3.5930109e+000
3.8439794e+000
4.0899153e+000
4.3350401e+000
4.5827618e+000
4.8337479e+000
5.0888314e+000
5.3510170e+000
5.6252999e+000
5.9207006e+000
6.2432880e+000
6.5893521e+000
6.9504471e+000
7.3126478e+000
7.6628785e+000
7.9930139e+000
8.2944784e+000
8.5539513e+000
8.7579384e+000
8.8957720e+000
8.9616423e+000
8.9609623e+000
8.9022951e+000
8.7951536e+000
8.6518278e+000
8.4914694e+000
8.3326988e+000
8.1871996e+000
8.0562916e+000
7.9170947e+000
7.7428293e+000
7.5125999e+000
7.2183347e+000
6.8846607e+000
6.5452423e+000
6.2370982e+000
5.9852486e+000
5.7773213e+000
5.5880704e+000
5.3814855e+000
5.1283903e+000
4.8270998e+000
4.4839034e+000
4.1091123e+000
3.7133698e+000
3.3055720e+000
2.8993745e+000
2.5226040e+000
2.1981885e+000
1.9239041e+000
1.6830752e+000
1.4346323e+000
1.1433672e+000
8.0993861e-001
4.5100528e-001
1.0461375e-001
-1.9420967e-001
-4.3667591e-001
-6.2461996e-001
-7.7303010e-001
-8.9990294e-001
-1.0222286e+000
-1.1525817e+000
-1.2905008e+000
-1.4251120e+000
-1.5243930e+000
-1.5547260e+000
-1.4962026e+000
-1.3421829e+000
-1.1196591e+000
-8.6221266e-001
-5.9839427e-001
-3.5062417e-001
-1.2519404e-001
7.4438184e-002
2.4084610e-001
3.6556366e-001
4.3999553e-001
4.5724899e-001
4.1686729e-001
3.2593721e-001
2.1231866e-001
1.0705666e-001
3.3966627e-002
9.2795920e-003
2.8336287e-002
7.4694619e-002
1.0857545e-001
9.8360859e-002
6.3042395e-002
3.3019327e-002
3.4174051e-002
8.5335895e-002
1.8340693e-001
3.2204980e-001
5.0301534e-001
7.2282934e-001
9.5066494e-001
1.1482357e+000
1.2752664e+000
1.3027784e+000
1.2479680e+000
1.1449814e+000
1.0500722e+000
1.0187622e+000
1.0825329e+000
1.2534806e+000
1.4913595e+000
1.7426000e+000
