##TITLE=Methyl Ethyl Ketone
##JCAMP-DX=4.24
##DATA TYPE=INFRARED SPECTRUM
##XUNITS=cm-1
##YUNITS=Absorbance
##FIRSTX=900
##LASTX=2300
##XYDATA=(X++(Y..Y))
2296 0.12666
2294 0.12929623
2292 0.13193247
2290 0.13456869
2288 0.13720492
2286 0.13984115
2284 0.14247736
2282 0.1451136
2280 0.14773995
2278 0.15037605
2276 0.15301229
2274 0.15565835
2272 0.1582849
2270 0.16090135
2268 0.1635568
2266 0.16625214
2264 0.16883102
2262 0.17123172
2260 0.1740862
2258 0.17759418
2256 0.17939001
2254 0.17879011
2252 0.184533
2250 0.1992078
2248 0.19033256
2246 0.13116892
2244 0.057275437
2242 0.010972725
2240 -0.0084957881
2238 -0.018249372
2236 -0.051777199
2234 -0.13087361
2232 -0.21177669
2230 -0.24215047
2228 -0.21119754
2226 -0.12931301
2224 -0.043109715
2222 0.00099395518
2220 -0.00041004369
2218 -0.033448908
2216 -0.066257022
2214 -0.066748805
2212 -0.02297744
2210 0.062627725
2208 0.15421079
2206 0.2084787
2204 0.19272254
2202 0.091852538
2200 -0.051523115
2198 -0.18166886
2196 -0.26169929
2194 -0.2720646
2192 -0.23853183
2190 -0.19796973
2188 -0.17491783
2186 -0.18412286
2184 -0.2176456
2182 -0.25750759
2180 -0.27432704
2178 -0.2425385
2176 -0.16670457
2174 -0.066345006
2172 0.018300928
2170 0.050779551
2168 0.037038732
2166 -0.0033265506
2164 -0.053064018
2162 -0.10054836
2160 -0.15261446
2158 -0.21479943
2156 -0.26208001
2154 -0.26407909
2152 -0.2120159
2150 -0.11321234
2148 -0.0096648065
2146 0.051573839
2144 0.051232394
2142 -0.01393995
2140 -0.12256614
2138 -0.24492957
2136 -0.3513763
2134 -0.41515568
2132 -0.42018312
2130 -0.35859376
2128 -0.24075361
2126 -0.087040521
2124 0.067606695
2122 0.18607002
2120 0.24328354
2118 0.22816482
2116 0.16849558
2114 0.10386013
2112 0.063813023
2110 0.0646156
2108 0.085131504
2106 0.095268145
2104 0.085558183
2102 0.057684168
2100 0.02495338
2098 0.001445125
2096 -0.012717485
2094 -0.021001818
2092 -0.01873322
2090 -0.00039939722
2088 0.028911138
2086 0.056881301
2084 0.058989398
2082 0.012424473
2080 -0.079126149
2078 -0.19657786
2076 -0.30151257
2074 -0.35351422
2072 -0.33428359
2070 -0.24280621
2068 -0.11127475
2066 0.017258856
2064 0.10946193
2062 0.14475127
2060 0.13665992
2058 0.1105382
2056 0.082789168
2054 0.062224101
2052 0.04431507
2050 0.02095722
2048 -0.008276999
2046 -0.040408716
2044 -0.07301002
2042 -0.10334873
2040 -0.12567669
2038 -0.1337425
2036 -0.12471057
2034 -0.098529562
2032 -0.060393777
2030 -0.017634615
2028 0.022732534
2026 0.054668128
2024 0.075146802
2022 0.081936337
2020 0.070528589
2018 0.036603466
2016 -0.018724801
2014 -0.085952453
2012 -0.13068648
2010 -0.11698002
2008 -0.049804688
2006 0.040707015
2004 0.10013986
2002 0.077389672
2000 -0.021725561
1998 -0.1605297
1996 -0.2865757
1994 -0.35366714
1992 -0.3666575
1990 -0.35533604
1988 -0.35133019
1986 -0.3777338
1984 -0.42434365
1982 -0.46799588
1980 -0.49831668
1978 -0.51205581
1976 -0.50551343
1974 -0.4739888
1972 -0.41156536
1970 -0.31972203
1968 -0.23400205
1966 -0.20076771
1964 -0.24025089
1962 -0.34870592
1960 -0.48070842
1958 -0.5789299
1956 -0.62058002
1954 -0.6073423
1952 -0.56467658
1950 -0.52530789
1948 -0.50698739
1946 -0.51561999
1944 -0.54251611
1942 -0.57300544
1940 -0.59639984
1938 -0.6063869
1936 -0.60416919
1934 -0.5947091
1932 -0.58281243
1930 -0.57221472
1928 -0.56356758
1926 -0.55301815
1924 -0.52413112
1922 -0.4606778
1920 -0.37611887
1918 -0.29874989
1916 -0.24897386
1914 -0.23282906
1912 -0.21857931
1910 -0.16475722
1908 -0.075924188
1906 0.014824301
1904 0.068635359
1902 0.057408858
1900 0.0037398133
1898 -0.044307895
1896 -0.052129716
1894 -0.0054434473
1892 0.065469138
1890 0.10852139
1888 0.083287634
1886 -0.030023709
1884 -0.19982199
1882 -0.36960262
1880 -0.5003413
1878 -0.57146025
1876 -0.58699399
1874 -0.56150216
1872 -0.49763563
1870 -0.39506638
1868 -0.27692875
1866 -0.17991985
1864 -0.13527891
1862 -0.1611966
1860 -0.23893853
1858 -0.33183578
1856 -0.42038229
1854 -0.49798027
1852 -0.55904198
1850 -0.59644365
1848 -0.59912044
1846 -0.55955714
1844 -0.4964745
1842 -0.44322956
1840 -0.42468068
1838 -0.45035163
1836 -0.49288398
1834 -0.50461048
1832 -0.44753432
1830 -0.30505472
1828 -0.11786184
1826 0.040644024
1824 0.11035096
1822 0.056721617
1820 -0.096114844
1818 -0.28836691
1816 -0.46443027
1814 -0.58242631
1812 -0.63118494
1810 -0.61965144
1808 -0.56016314
1806 -0.46771199
1804 -0.36944771
1802 -0.29650846
1800 -0.26143047
1798 -0.25555801
1796 -0.23514713
1794 -0.14795421
1792 -0.0034515187
1790 0.14573741
1788 0.25397989
1786 0.29479659
1784 0.28206441
1782 0.25458565
1780 0.24359128
1778 0.27096051
1776 0.35523057
1774 0.5028913
1772 0.67095262
1770 0.78556389
1768 0.79044533
1766 0.66252255
1764 0.4531554
1762 0.24936691
1760 0.067800172
1758 -0.11912224
1756 -0.27816156
1754 -0.33167705
1752 -0.23620144
1750 0.0029129982
1748 0.30236
1746 0.53421646
1744 0.60894984
1742 0.49755928
1740 0.28607523
1738 0.12489948
1736 0.088606998
1734 0.16548026
1732 0.26017934
1730 0.24549559
1728 0.094548613
1726 -0.12438034
1724 -0.2910502
1722 -0.2660113
1720 0.051357999
1718 0.69642782
1716 1.5579886
1714 2.4316449
1712 3.185812
1710 3.796072
1708 4.3974242
1706 5.235424
1704 6.5373068
1702 8.4799547
1700 11.154092
1698 14.521502
1696 18.237572
1694 21.77248
1692 24.84284
1690 27.47641
1688 30.041748
1686 33.115345
1684 37.117409
1682 42.165031
1680 47.724159
1678 52.894253
1676 57.462044
1674 61.870594
1672 66.578857
1670 71.8302
1668 77.296814
1666 82.254204
1664 86.296799
1662 89.404381
1660 91.726524
1658 93.483559
1656 94.824142
1654 95.802971
1652 96.399857
1650 96.538452
1648 96.125374
1646 95.09993
1644 93.583984
1642 91.83046
1640 89.942932
1638 87.852112
1636 85.43454
1634 82.578712
1632 79.320534
1630 75.804802
1628 72.05204
1626 67.953903
1624 63.448841
1622 58.573845
1620 53.515812
1618 48.572712
1616 43.974659
1614 39.85273
1612 36.273148
1610 33.24485
1608 30.703503
1606 28.530542
1604 26.639404
1602 24.992426
1600 23.593874
1598 22.476614
1596 21.659
1594 21.136541
1592 20.886349
1590 20.872589
1588 21.065331
1586 21.444643
1584 21.997023
1582 22.724779
1580 23.690712
1578 25.012226
1576 26.788942
1574 29.065569
1572 31.745384
1570 34.605255
1568 37.4548
1566 40.177036
1564 42.722385
1562 45.134396
1560 47.64529
1558 50.576855
1556 53.797001
1554 56.68951
1552 58.75407
1550 59.791622
1548 59.971142
1546 59.742893
1544 59.292896
1542 58.448971
1540 56.99744
1538 54.819675
1536 52.107456
1534 49.344635
1532 46.862415
1530 44.728741
1528 42.878513
1526 41.154049
1524 39.388527
1522 37.446732
1520 35.28812
1518 32.986485
1516 30.693314
1514 28.588125
1512 26.665161
1510 24.702034
1508 22.495354
1506 19.957321
1504 17.23448
1502 14.68901
1500 12.536068
1498 10.750248
1496 9.2109861
1494 7.7596302
1492 6.3165908
1490 4.9075403
1488 3.5730281
1486 2.3480887
1484 1.2866794
1482 0.4641996
1480 -0.060314804
1478 -0.24589966
1476 -0.01323384
1474 0.74032122
1472 1.9643972
1470 3.4182901
1468 4.8854046
1466 6.2483735
1464 7.4908862
1462 8.6946325
1460 9.9327621
1458 11.222281
1456 12.4776
1454 13.507821
1452 14.169211
1450 14.421979
1448 14.307898
1446 13.942179
1444 13.427971
1442 12.82501
1440 12.163554
1438 11.444546
1436 10.657542
1434 9.7930698
1432 8.882515
1430 8.0101976
1428 7.2501082
1426 6.6414213
1424 6.1963921
1422 5.9001236
1420 5.7322307
1418 5.6731219
1416 5.7032685
1414 5.8051548
1412 5.970963
1410 6.204843
1408 6.5055404
1406 6.8579087
1404 7.2327194
1402 7.5845175
1400 7.8630519
1398 8.0185537
1396 8.014143
1394 7.8365431
1392 7.5036283
1390 7.0699692
1388 6.5879941
1386 6.093945
1384 5.6153479
1382 5.1703677
1380 4.7683644
1378 4.4048967
1376 4.0547771
1374 3.6696222
1372 3.2159519
1370 2.6934443
1368 2.1207125
1366 1.533685
1364 0.96824062
1362 0.45542097
1360 0.032852918
1358 -0.25359958
1356 -0.37843728
1354 -0.35008171
1352 -0.1792521
1350 0.13034016
1348 0.56893754
1346 1.115664
1344 1.753504
1342 2.4709249
1340 3.229701
1338 3.9453623
1336 4.5163054
1334 4.8395157
1332 4.8696513
1330 4.6584349
1328 4.2909164
1326 3.8681812
1324 3.4770432
1322 3.1699362
1320 2.9641709
1318 2.8310337
1316 2.7269199
1314 2.6042929
1312 2.435312
1310 2.2278574
1308 2.0055697
1306 1.8039436
1304 1.6520051
1302 1.562984
1300 1.5416874
1298 1.5859439
1296 1.6993715
1294 1.8979719
1292 2.2000415
1290 2.6191561
1288 3.1486561
1286 3.7464256
1284 4.355186
1282 4.9078879
1280 5.353128
1278 5.6747298
1276 5.8811884
1274 6.0109868
1272 6.1094036
1270 6.2202544
1268 6.3784919
1266 6.6032228
1264 6.9062376
1262 7.2929568
1260 7.7664442
1258 8.3282413
1256 8.980051
1254 9.724514
1252 10.564925
1250 11.50465
1248 12.538816
1246 13.647249
1244 14.791874
1242 15.906748
1240 16.913492
1238 17.726458
1236 18.272715
1234 18.513792
1232 18.43128
1230 18.030745
1228 17.332201
1226 16.367872
1224 15.182743
1222 13.841808
1220 12.427686
1218 11.04822
1216 9.8161249
1214 8.8310328
1212 8.1642799
1210 7.825974
1208 7.7842431
1206 7.948184
1204 8.2013044
1202 8.4052629
1200 8.435544
1198 8.2132263
1196 7.712543
1194 6.9987459
1192 6.1657658
1190 5.3199768
1188 4.5447745
1186 3.8672779
1184 3.2950034
1182 2.8219492
1180 2.443017
1178 2.160887
1176 1.9707201
1174 1.8480037
1172 1.7665743
1170 1.7083819
1168 1.6664588
1166 1.6529015
1164 1.6733446
1162 1.70918
1160 1.7350812
1158 1.7246697
1156 1.6590371
1154 1.538072
1152 1.3693211
1150 1.1679353
1148 0.95230681
1146 0.74235606
1144 0.55147696
1142 0.37655059
1140 0.20947003
1138 0.04146897
1136 -0.12215461
1134 -0.24513981
1132 -0.30739966
1130 -0.34359562
1128 -0.38996765
1126 -0.45416212
1124 -0.52741903
1122 -0.57928157
1120 -0.58667558
1118 -0.55734813
1116 -0.50699472
1114 -0.45216042
1112 -0.40349582
1110 -0.35664931
1108 -0.30476725
1106 -0.244215
1104 -0.17694624
1102 -0.11622059
1100 -0.069403812
1098 -0.021854825
1096 0.048728578
1094 0.17002174
1092 0.36467761
1090 0.6389308
1088 0.99440205
1086 1.4290342
1084 1.9214759
1082 2.4024916
1080 2.7884777
1078 2.9927711
1076 2.9641986
1074 2.7489963
1072 2.4233115
1070 2.0788882
1068 1.7890322
1066 1.5661
1064 1.4038119
1062 1.2845749
1060 1.188404
1058 1.0981336
1056 1.0007383
1054 0.89507818
1052 0.79039681
1050 0.71686071
1048 0.70249248
1046 0.75404644
1044 0.86399829
1042 0.99985772
1040 1.1350309
1038 1.2773619
1036 1.44322
1034 1.6466333
1032 1.878004
1030 2.0601895
1028 2.111515
1026 1.9884857
1024 1.6879429
1022 1.2989635
1020 0.92077649
1018 0.61426795
1016 0.4047637
1014 0.23898545
1012 0.055031762
1010 -0.17558506
1008 -0.4573932
1006 -0.74678004
1004 -0.99656737
1002 -1.1856476
1000 -1.3081131
998 -1.3866305
996 -1.4553357
994 -1.561384
992 -1.7346846
990 -1.9380589
988 -2.109957
986 -2.1647193
984 -2.0454223
982 -1.8083054
980 -1.5382659
978 -1.3212107
976 -1.2127228
974 -1.1680326
972 -1.128108
970 -1.0680447
968 -0.98454833
966 -0.91586703
964 -0.89424765
962 -0.89563155
960 -0.88210475
958 -0.81657642
956 -0.67607403
954 -0.48600018
952 -0.28560442
950 -0.1201835
948 -0.025127508
946 0.0048858933
944 -0.0052023474
942 0.0030960143
940 0.082715049
938 0.2364056
936 0.44584998
934 0.66173971
932 0.83485383
930 0.94471705
928 0.98354441
926 0.96408206
924 0.90458083
922 0.82481319
920 0.75000715
918 0.72454846
916 0.79497331
914 0.99761772
912 1.3388714
910 1.720058
908 2.0240111
906 2.1636264
904 2.0968287
902 1.9271824
900 1.7836059
898 1.7510177
896 1.9032
