Image.
>Pix99999.
  .
5555
5555
2300
900
5555
2
1
0
701
5555
4.0726000e-003
4.1573788e-003
4.2420579e-003
4.3268362e-003
4.4115153e-003
4.4962936e-003
4.5809732e-003
4.6657510e-003
4.7504310e-003
4.8351097e-003
4.9198871e-003
5.0045671e-003
5.0893445e-003
5.1740250e-003
5.2588023e-003
5.3434828e-003
5.4282597e-003
5.5129402e-003
5.5977171e-003
5.6823981e-003
5.7671745e-003
5.8518560e-003
5.9366319e-003
6.0213138e-003
6.1060893e-003
6.1907712e-003
4.9016457e-003
1.8714086e-004
-1.5782401e-002
2.0633709e-002
6.4848959e-002
1.0061126e-001
1.3316566e-001
1.0765556e-001
7.7725761e-002
3.4644600e-002
-5.1277364e-003
-2.6728252e-002
-4.3060187e-002
-4.6319321e-002
-5.3961374e-002
-7.2793625e-002
-1.0161342e-001
-1.4565326e-001
-1.7446320e-001
-1.8311557e-001
-1.5970032e-001
-1.0661957e-001
-5.1797614e-002
2.8630402e-003
4.1788429e-002
7.1647719e-002
9.3053520e-002
1.1101531e-001
9.7274974e-002
7.3300786e-002
3.3204239e-002
-1.0452146e-002
-3.0311871e-002
-4.6691746e-002
-7.1656227e-002
-9.7408764e-002
-1.2298310e-001
-1.4261280e-001
-1.2829371e-001
-1.0781143e-001
-7.6873593e-002
-4.9885005e-002
-3.5678573e-002
-3.4209359e-002
-5.4434199e-002
-9.0658985e-002
-1.4682075e-001
-1.9762363e-001
-2.4005122e-001
-2.4548571e-001
-2.1897411e-001
-1.6680670e-001
-9.9099360e-002
-5.2742574e-002
-1.8876772e-002
-2.8162107e-002
-5.5117480e-002
-9.6706137e-002
-1.4245321e-001
-1.5678450e-001
-1.6373651e-001
-1.4645649e-001
-1.2649171e-001
-1.2737668e-001
-1.3387415e-001
-1.6002481e-001
-1.8594857e-001
-1.9821423e-001
-2.0201266e-001
-1.8629700e-001
-1.6780715e-001
-1.4954032e-001
-1.3405840e-001
-1.2319257e-001
-1.1045286e-001
-9.4385684e-002
-8.3353758e-002
-7.8039587e-002
-9.1726132e-002
-1.2043551e-001
-1.5074626e-001
-1.8074429e-001
-2.0281938e-001
-2.2075123e-001
-2.5408256e-001
-2.9402775e-001
-3.3375239e-001
-3.7318841e-001
-3.8408056e-001
-3.8760921e-001
-3.7227023e-001
-3.5370380e-001
-3.3961850e-001
-3.2935560e-001
-3.3532456e-001
-3.4241703e-001
-3.4200114e-001
-3.3355904e-001
-3.0823869e-001
-2.8530213e-001
-2.7343321e-001
-2.7753279e-001
-3.0256802e-001
-3.3278376e-001
-3.6446714e-001
-3.8180625e-001
-3.8497368e-001
-3.8110670e-001
-3.7365291e-001
-3.8140020e-001
-3.9924282e-001
-4.2582759e-001
-4.5615619e-001
-4.8907986e-001
-5.2290601e-001
-5.6286466e-001
-6.0486943e-001
-6.2523043e-001
-6.3809329e-001
-6.2286413e-001
-6.0121220e-001
-5.8466667e-001
-5.7134259e-001
-5.6624496e-001
-5.5872500e-001
-5.3754091e-001
-5.1366848e-001
-4.9144578e-001
-4.8170140e-001
-4.9313864e-001
-5.1319546e-001
-5.3826249e-001
-5.6791282e-001
-6.0141087e-001
-6.3697600e-001
-6.7366689e-001
-6.6891211e-001
-6.3225508e-001
-5.4863238e-001
-4.3890557e-001
-3.6286148e-001
-3.0681312e-001
-3.0354002e-001
-3.2225761e-001
-3.4840700e-001
-3.7638023e-001
-3.9884374e-001
-4.1827193e-001
-4.2545220e-001
-4.2791998e-001
-4.2604461e-001
-4.2573807e-001
-4.3618593e-001
-4.4919452e-001
-4.6031201e-001
-4.6933955e-001
-4.7519562e-001
-4.8359245e-001
-4.9743986e-001
-5.0285578e-001
-4.9522880e-001
-4.6718231e-001
-4.2082953e-001
-3.8065639e-001
-3.5018042e-001
-3.3274356e-001
-3.2359633e-001
-3.1547946e-001
-3.0697790e-001
-3.1691480e-001
-3.3701319e-001
-3.5441247e-001
-3.7002721e-001
-3.3476943e-001
-2.7793428e-001
-2.0090002e-001
-1.2323957e-001
-9.4505921e-002
-9.6965805e-002
-1.5304896e-001
-2.3145016e-001
-3.1700027e-001
-3.9918098e-001
-4.6742371e-001
-5.1599699e-001
-5.3700995e-001
-5.2159590e-001
-4.6497393e-001
-4.0839756e-001
-3.6808577e-001
-3.8490468e-001
-4.5724720e-001
-5.3828102e-001
-6.1412078e-001
-6.5542775e-001
-6.7086607e-001
-6.6599888e-001
-6.5072155e-001
-6.4241558e-001
-6.3894677e-001
-6.7192549e-001
-7.2282469e-001
-7.6550066e-001
-7.9655337e-001
-7.6015145e-001
-6.8017262e-001
-5.3451943e-001
-3.6631474e-001
-2.2274680e-001
-1.3769865e-001
-1.8210372e-001
-3.0167776e-001
-4.6760160e-001
-6.1408615e-001
-6.9551969e-001
-7.2094947e-001
-6.9971764e-001
-6.6973066e-001
-6.4822888e-001
-6.2367350e-001
-5.9322977e-001
-5.5095887e-001
-4.9920079e-001
-4.4439301e-001
-3.8880572e-001
-3.1753647e-001
-2.3533599e-001
-1.8660648e-001
-1.6013780e-001
-1.6028151e-001
-1.7120515e-001
-1.3445076e-001
-6.4401262e-002
5.1391628e-002
1.9370343e-001
3.4521022e-001
4.7276276e-001
5.1009339e-001
4.6782699e-001
3.3780992e-001
1.9484760e-001
1.0606182e-001
3.0996114e-002
-5.9198469e-002
-1.2689346e-001
-1.5451647e-001
-9.9286869e-002
4.0209092e-002
1.8233374e-001
2.9940680e-001
2.7442399e-001
1.2022714e-001
-3.7202090e-002
-1.7444037e-001
-1.5904801e-001
-2.8569495e-002
7.7474594e-002
1.5217023e-001
7.0569649e-002
-1.0497329e-001
-2.0435749e-001
-2.0797300e-001
1.1611477e-002
3.9747965e-001
9.7532737e-001
1.6135859e+000
2.0866165e+000
2.4627192e+000
2.8194661e+000
3.3526802e+000
4.2398920e+000
5.7031202e+000
7.8422318e+000
1.0756761e+001
1.4381286e+001
1.8057100e+001
2.1482557e+001
2.4621788e+001
2.7525286e+001
3.1011116e+001
3.5143646e+001
4.0029980e+001
4.5500999e+001
5.0261631e+001
5.4359901e+001
5.8334396e+001
6.2301891e+001
6.7008560e+001
7.2254486e+001
7.7394051e+001
8.2322861e+001
8.6666588e+001
9.0462318e+001
9.3748161e+001
9.6542656e+001
9.8882256e+001
1.0063782e+002
1.0168084e+002
1.0166234e+002
1.0035571e+002
9.8250366e+001
9.5825417e+001
9.3115425e+001
9.0181519e+001
8.6566200e+001
8.2162697e+001
7.7481216e+001
7.2736778e+001
6.8215965e+001
6.3955441e+001
5.9615879e+001
5.5154839e+001
5.0811485e+001
4.6604546e+001
4.2694859e+001
3.9101871e+001
3.5934864e+001
3.3204910e+001
3.0877737e+001
2.8927471e+001
2.7210142e+001
2.5739008e+001
2.4500902e+001
2.3518236e+001
2.2785000e+001
2.2289583e+001
2.1982092e+001
2.1835369e+001
2.1800404e+001
2.1863214e+001
2.2003035e+001
2.2211031e+001
2.2475266e+001
2.2852854e+001
2.3362715e+001
2.4032850e+001
2.4865189e+001
2.5781393e+001
2.6761721e+001
2.7766056e+001
2.8795273e+001
3.0077259e+001
3.1724846e+001
3.4441547e+001
3.8277214e+001
4.2418098e+001
4.6606079e+001
4.9737064e+001
5.1903671e+001
5.3843857e+001
5.5631084e+001
5.7480869e+001
5.9089878e+001
6.0000114e+001
6.0031425e+001
5.9096024e+001
5.7617481e+001
5.6093884e+001
5.4583500e+001
5.3132950e+001
5.1571869e+001
4.9792679e+001
4.7718670e+001
4.5297508e+001
4.2875027e+001
4.0563595e+001
3.8349400e+001
3.6244438e+001
3.3692062e+001
3.0547886e+001
2.7368601e+001
2.4213367e+001
2.1541018e+001
1.9404810e+001
1.7296286e+001
1.5201312e+001
1.3046320e+001
1.0825303e+001
8.5629396e+000
6.3254719e+000
4.2538018e+000
2.4848318e+000
1.1762614e+000
3.5991827e-001
6.9784112e-002
3.6657178e-001
1.1495717e+000
2.0933862e+000
3.0097194e+000
3.8033664e+000
4.3963642e+000
4.9232454e+000
5.4299998e+000
5.9312530e+000
6.4296403e+000
6.8220468e+000
7.0466132e+000
7.1279058e+000
7.0053430e+000
6.8331394e+000
6.5990238e+000
6.3879571e+000
6.2025766e+000
6.0085711e+000
5.7674599e+000
5.3791428e+000
4.8247709e+000
4.1786413e+000
3.5003319e+000
2.9464722e+000
2.5494404e+000
2.3302574e+000
2.2684846e+000
2.3255496e+000
2.4594543e+000
2.6314380e+000
2.8237302e+000
3.0268252e+000
3.2499697e+000
3.5064628e+000
3.7954500e+000
4.1315589e+000
4.4935880e+000
4.8902926e+000
5.2871928e+000
5.6756048e+000
5.9989176e+000
6.2034674e+000
6.2953920e+000
6.2087250e+000
6.0189619e+000
5.6891651e+000
5.3120117e+000
4.8823438e+000
4.4510741e+000
4.0285993e+000
3.6397879e+000
3.2918785e+000
2.9841652e+000
2.6836536e+000
2.3260608e+000
1.9034988e+000
1.3974731e+000
8.8974535e-001
4.7430700e-001
1.6985816e-001
4.8266716e-002
2.6715953e-002
1.1719316e-001
2.5660715e-001
4.6646079e-001
7.0645517e-001
9.9473864e-001
1.2625884e+000
1.4808886e+000
1.6425475e+000
1.7058806e+000
1.7736260e+000
1.8570988e+000
1.9885393e+000
2.1926973e+000
2.4410989e+000
2.7476737e+000
3.0878425e+000
3.4561701e+000
3.8108983e+000
4.1344113e+000
4.3914466e+000
4.5849781e+000
4.7188425e+000
4.8091435e+000
4.8658247e+000
4.8999825e+000
4.9107189e+000
4.9108858e+000
4.9027290e+000
4.8920212e+000
4.8796544e+000
4.8673520e+000
4.8558803e+000
4.8555875e+000
4.8841162e+000
4.9194145e+000
4.9680877e+000
5.0063114e+000
5.0257268e+000
5.0468459e+000
5.0760207e+000
5.1326647e+000
5.2303829e+000
5.3495150e+000
5.4926720e+000
5.6368780e+000
5.7820997e+000
5.9277945e+000
6.0729413e+000
6.2150016e+000
6.3509784e+000
6.4720631e+000
6.5792999e+000
6.6639409e+000
6.7314072e+000
6.7700925e+000
6.7912989e+000
6.7808414e+000
6.7485580e+000
6.6644440e+000
6.5527935e+000
6.3680296e+000
6.1506724e+000
5.8430581e+000
5.4945741e+000
5.0498714e+000
4.5893092e+000
4.1025629e+000
3.6425407e+000
3.2321773e+000
2.8634622e+000
2.5585263e+000
2.2994001e+000
2.0957940e+000
1.9208580e+000
1.7708377e+000
1.6188878e+000
1.4674715e+000
1.3240703e+000
1.1898897e+000
1.0760163e+000
9.7300059e-001
8.7824142e-001
7.9373109e-001
7.4014395e-001
7.1476775e-001
7.7567399e-001
8.7892795e-001
1.1062430e+000
1.3624271e+000
1.7012469e+000
2.0222685e+000
2.2834635e+000
2.4824522e+000
2.5240350e+000
2.5018816e+000
2.3517301e+000
2.1681342e+000
1.9304105e+000
1.6811892e+000
1.4162416e+000
1.1447647e+000
8.6880213e-001
6.0494965e-001
3.6182415e-001
1.7724586e-001
4.7714047e-002
8.7729571e-003
2.7072750e-002
7.3143147e-002
1.3290578e-001
2.0879343e-001
2.9359806e-001
4.0217146e-001
5.0909966e-001
5.8520079e-001
6.4940250e-001
6.6549069e-001
6.8302470e-001
7.1050763e-001
7.4694234e-001
8.1082499e-001
8.6937499e-001
9.1121966e-001
9.2074531e-001
8.6637938e-001
7.9353726e-001
6.9798571e-001
6.4157605e-001
6.3973600e-001
6.9133842e-001
7.9475784e-001
9.0193164e-001
1.0047573e+000
1.0567229e+000
1.0692942e+000
1.0154124e+000
9.2425174e-001
7.7959472e-001
6.1128986e-001
3.9828068e-001
1.7596927e-001
-4.2281002e-002
-2.4594000e-001
-3.4555244e-001
-4.2439872e-001
-4.0263975e-001
-3.8365114e-001
-3.7771282e-001
-3.8530263e-001
-4.3594092e-001
-4.9147469e-001
-5.5984789e-001
-6.4086020e-001
-7.4713796e-001
-8.7483108e-001
-1.0320302e+000
-1.1775700e+000
-1.3047183e+000
-1.3777772e+000
-1.4001013e+000
-1.3905300e+000
-1.3631235e+000
-1.3774005e+000
-1.4187680e+000
-1.5159222e+000
-1.6331670e+000
-1.7355515e+000
-1.8294339e+000
-1.8729082e+000
-1.9062644e+000
-1.9204080e+000
-1.9323536e+000
-1.9368317e+000
-1.9409816e+000
-1.9434154e+000
-1.9465736e+000
-1.9526929e+000
-1.9525490e+000
-1.9325840e+000
-1.9013729e+000
-1.8436263e+000
-1.7725507e+000
-1.6786605e+000
-1.5859977e+000
-1.4969800e+000
-1.4422637e+000
-1.4235715e+000
-1.4166281e+000
-1.4169271e+000
-1.3812608e+000
-1.3225880e+000
-1.2402450e+000
-1.1479920e+000
-1.0699251e+000
-9.9657869e-001
-9.2867041e-001
-8.5971498e-001
-7.4097562e-001
-6.1420596e-001
-4.3827885e-001
-2.6039734e-001
-8.5799254e-002
9.9603459e-004
3.1343639e-002
1.0282293e-001
2.3038630e-001
3.7921888e-001
5.8952290e-001
7.7123272e-001
8.9003968e-001
9.2257726e-001
8.1724292e-001
6.9486541e-001
5.5322748e-001
4.8601002e-001
4.8783717e-001
4.9469855e-001
5.0407904e-001
4.3596315e-001
3.2684261e-001
2.0022589e-001
6.7626067e-002
3.0732594e-002
1.9511074e-002
1.3771786e-001
2.7665311e-001
3.3476001e-001
