##TITLE=Methyl Ethyl Ketone
##JCAMP-DX=4.24
##DATA TYPE=INFRARED SPECTRUM
##XUNITS=cm-1
##YUNITS=Absorbance
##FIRSTX=900
##LASTX=2300
##XYDATA=(X++(Y..Y))
2296 0.13323
2294 0.13600603
2292 0.13878205
2290 0.14154813
2288 0.14432411
2286 0.14709021
2284 0.14986618
2282 0.1526323
2280 0.15540823
2278 0.15817438
2276 0.16095029
2274 0.16372631
2272 0.16649251
2270 0.16925856
2268 0.1720344
2266 0.17484957
2264 0.1775776
2262 0.18021588
2260 0.18312491
2258 0.1864007
2256 0.18868543
2254 0.18957451
2252 0.19415228
2250 0.20392306
2248 0.20000085
2246 0.16252249
2244 0.090505756
2242 -0.00076782145
2240 -0.051982094
2238 -0.011679951
2236 0.090022013
2234 0.20135815
2232 0.27739477
2230 0.28785113
2228 0.25286394
2226 0.208766
2224 0.19840126
2222 0.25158721
2220 0.33837029
2218 0.41338766
2216 0.44043198
2214 0.40021828
2212 0.32979959
2210 0.27748084
2208 0.26862344
2206 0.31196591
2204 0.3781184
2202 0.43319547
2200 0.47188035
2198 0.49913287
2196 0.52499354
2194 0.55512708
2192 0.57174486
2190 0.5573073
2188 0.5255388
2186 0.50108767
2184 0.51206321
2182 0.57667166
2180 0.66875905
2178 0.74950665
2176 0.78673887
2174 0.76002342
2172 0.68658251
2170 0.59670985
2168 0.52372795
2166 0.49607357
2164 0.51915228
2162 0.58770245
2160 0.68422538
2158 0.78748238
2156 0.87697399
2154 0.93769044
2152 0.97568566
2150 1.0068953
2148 1.0580337
2146 1.1536107
2144 1.2934788
2142 1.4657511
2140 1.6451317
2138 1.8028846
2136 1.9130456
2134 1.9558616
2132 1.9328846
2130 1.8578161
2128 1.763456
2126 1.6843379
2124 1.6340374
2122 1.6147264
2120 1.6132371
2118 1.6129509
2116 1.6058414
2114 1.587922
2112 1.5596902
2110 1.5258836
2108 1.502514
2106 1.5067736
2104 1.5425005
2102 1.6035621
2100 1.663928
2098 1.6964258
2096 1.6998857
2094 1.685424
2092 1.671638
2090 1.6743054
2088 1.6869348
2086 1.696225
2084 1.6979243
2082 1.6933407
2080 1.6911469
2078 1.6994272
2076 1.7127157
2074 1.7219679
2072 1.728256
2070 1.7361602
2068 1.747462
2066 1.7573394
2064 1.7394612
2062 1.666806
2060 1.5459951
2058 1.401543
2056 1.272
2054 1.1937407
2052 1.1721566
2050 1.1989501
2048 1.2645103
2046 1.3585392
2044 1.468122
2042 1.578261
2040 1.6699451
2038 1.7250726
2036 1.7365057
2034 1.7041793
2032 1.6370412
2030 1.550138
2028 1.4684759
2026 1.4186543
2024 1.4158789
2022 1.4636073
2020 1.5362383
2018 1.5976225
2016 1.6204599
2014 1.5927148
2012 1.5457805
2010 1.5248191
2008 1.5497205
2006 1.6196944
2004 1.7013929
2002 1.7542291
2000 1.7683526
1998 1.7505511
1996 1.7149142
1994 1.6738169
1992 1.62096
1990 1.5457387
1988 1.4571979
1986 1.374525
1984 1.31862
1982 1.3057607
1980 1.3326871
1978 1.3892354
1976 1.4752429
1974 1.595137
1972 1.7485706
1970 1.9243693
1968 2.0760503
1966 2.1467443
1964 2.1109791
1962 1.9706643
1960 1.772992
1958 1.5791749
1956 1.4190714
1954 1.3023698
1952 1.2263401
1950 1.1832736
1948 1.1652575
1946 1.1622
1944 1.1547891
1942 1.1238339
1940 1.0723654
1938 1.0158246
1936 0.97105086
1934 0.949377
1932 0.93837339
1930 0.91936553
1928 0.90120971
1926 0.9120419
1924 0.99548382
1922 1.1826568
1920 1.4189223
1918 1.612077
1916 1.7104458
1914 1.700996
1912 1.625784
1910 1.5413567
1908 1.4452746
1906 1.3090578
1904 1.143244
1902 0.98727179
1900 0.89912546
1898 0.93220216
1896 1.08444
1894 1.3156993
1892 1.560406
1890 1.7435321
1888 1.8004704
1886 1.6892822
1884 1.4369545
1882 1.1118203
1880 0.79354465
1878 0.55797356
1876 0.452526
1874 0.50113076
1872 0.69869483
1870 1.0098886
1868 1.3339497
1866 1.5464379
1864 1.5826268
1862 1.436451
1860 1.1866463
1858 0.94561315
1856 0.76510715
1854 0.65291107
1852 0.60643744
1850 0.62041545
1848 0.68691999
1846 0.78976786
1844 0.8822844
1842 0.9096368
1840 0.86450058
1838 0.77756858
1836 0.70780271
1834 0.72002369
1832 0.84088767
1830 1.0577374
1828 1.297308
1826 1.457775
1824 1.4696018
1822 1.3057463
1820 1.0193495
1818 0.70824337
1816 0.45024171
1814 0.29270604
1812 0.22979748
1810 0.22679688
1808 0.26653153
1806 0.345676
1804 0.45363778
1802 0.57219362
1800 0.67885315
1798 0.75819623
1796 0.83637857
1794 0.95507365
1792 1.097692
1790 1.2089401
1788 1.2540234
1786 1.2257993
1784 1.1551206
1782 1.0927383
1780 1.0721109
1778 1.1102971
1776 1.2183086
1774 1.387569
1772 1.5306952
1770 1.5213727
1768 1.30876
1766 0.92465287
1764 0.50143921
1762 0.20367417
1760 0.049833462
1758 -0.041145317
1756 -0.08550223
1754 -0.038982037
1752 0.13460967
1750 0.43825319
1748 0.78764939
1746 1.0485679
1744 1.1435343
1742 1.0712818
1740 0.94954205
1738 0.9480474
1736 1.0984
1734 1.3018079
1732 1.3881397
1730 1.1903039
1728 0.72911489
1726 0.1828706
1724 -0.22778931
1722 -0.29392898
1720 0.088650301
1718 0.89982021
1716 1.9228243
1714 2.8373187
1712 3.4953811
1710 3.9437289
1708 4.4100637
1706 5.2280025
1704 6.6713424
1702 8.9068327
1700 11.905292
1698 15.446038
1696 19.087143
1694 22.30949
1692 24.966608
1690 27.29237
1688 29.773193
1686 32.985565
1684 37.205044
1682 42.326069
1680 47.735641
1678 52.603752
1676 56.847115
1674 61.034462
1672 65.589607
1670 70.602913
1668 75.689728
1666 80.178497
1664 83.757973
1662 86.504883
1660 88.6063
1658 90.274132
1656 91.678856
1654 92.925926
1652 93.993561
1650 94.732674
1648 94.873199
1646 94.130463
1644 92.589516
1642 90.649635
1640 88.578751
1638 86.43454
1636 84.107124
1634 81.398834
1632 78.252487
1630 74.751831
1628 70.947624
1626 66.835541
1624 62.427521
1622 57.775082
1620 53.003819
1618 48.295055
1616 43.796486
1614 39.614956
1612 35.856655
1610 32.61475
1608 29.889132
1606 27.5919
1604 25.638197
1602 23.972921
1600 22.580412
1598 21.47563
1596 20.654499
1594 20.085646
1592 19.734217
1590 19.573795
1588 19.610672
1586 19.88065
1584 20.407343
1582 21.202129
1580 22.30928
1578 23.802963
1576 25.731142
1574 28.088066
1572 30.760241
1570 33.54274
1568 36.284
1566 38.922234
1564 41.476078
1562 44.059738
1560 46.937679
1558 50.395844
1556 54.11887
1554 57.215229
1552 59.153675
1550 59.985546
1548 60.112537
1546 60.115253
1544 60.202419
1542 60.108112
1540 59.40826
1538 57.701649
1536 55.050972
1534 52.014236
1532 49.103531
1530 46.620148
1528 44.618553
1526 42.919197
1524 41.296856
1522 39.543243
1520 37.530125
1518 35.246162
1516 32.833813
1514 30.552109
1512 28.494841
1510 26.525314
1508 24.438482
1506 22.051271
1504 19.4126
1502 16.82144
1500 14.492114
1498 12.4599
1496 10.669415
1494 9.0112438
1492 7.4216256
1490 5.9036059
1488 4.4536352
1486 3.0549893
1484 1.7544219
1482 0.67874193
1480 -0.045419186
1478 -0.31253392
1476 -0.019493282
1474 0.90132797
1472 2.3127627
1470 3.85554
1468 5.284935
1466 6.5803514
1464 7.8462691
1462 9.2691631
1460 10.955674
1458 12.84761
1456 14.6574
1454 15.897356
1452 16.326277
1450 16.093544
1448 15.451514
1446 14.661857
1444 13.890951
1442 13.17207
1440 12.507812
1438 11.892037
1436 11.277671
1434 10.576182
1432 9.7415276
1430 8.8056583
1428 7.8593478
1426 7.0413241
1424 6.455029
1422 6.1307354
1420 6.0330701
1418 6.0611749
1416 6.1240458
1414 6.1749649
1412 6.2317142
1410 6.3829718
1408 6.6909375
1406 7.1527028
1404 7.7238703
1402 8.3204021
1400 8.8474512
1398 9.21099
1396 9.3384361
1394 9.1970921
1392 8.8134003
1390 8.2850246
1388 7.7075772
1386 7.1465902
1384 6.6402521
1382 6.1947436
1380 5.8056183
1378 5.4593053
1376 5.1187859
1374 4.7199383
1372 4.2213578
1370 3.6292214
1368 2.9803216
1366 2.3372049
1364 1.7392583
1362 1.1839395
1360 0.67566288
1358 0.24544893
1356 -0.064418182
1354 -0.20542204
1352 -0.14153932
1350 0.13765928
1348 0.61572826
1346 1.2442429
1344 1.978224
1342 2.7850726
1340 3.6067598
1338 4.3401585
1336 4.8734655
1334 5.1087737
1332 5.0204082
1330 4.6956811
1328 4.2469611
1326 3.7818899
1324 3.3823583
1322 3.0853612
1320 2.8941686
1318 2.7720723
1316 2.6729698
1314 2.5527201
1312 2.3844693
1310 2.1712947
1308 1.9298582
1306 1.6877235
1304 1.4710658
1302 1.299162
1300 1.185504
1298 1.1382506
1296 1.1735857
1294 1.3228881
1292 1.6159492
1290 2.0689268
1288 2.6675479
1286 3.3488193
1284 4.0383658
1282 4.6646743
1280 5.1790299
1278 5.5741677
1276 5.8599615
1274 6.060853
1272 6.2047033
1270 6.3202066
1268 6.4399362
1266 6.6018662
1264 6.8376989
1262 7.1644239
1260 7.5879722
1258 8.1021452
1256 8.710043
1254 9.4373398
1252 10.311777
1250 11.35159
1248 12.549091
1246 13.849751
1244 15.182381
1242 16.459606
1240 17.598732
1238 18.531506
1236 19.200829
1234 19.563316
1232 19.585279
1230 19.243416
1228 18.53455
1226 17.489466
1224 16.169193
1222 14.675742
1220 13.12908
1218 11.66041
1216 10.389588
1214 9.395524
1212 8.7270632
1210 8.3867092
1208 8.3414421
1206 8.506855
1204 8.7729282
1202 9.0045061
1200 9.0772276
1198 8.9064655
1196 8.4509287
1194 7.7443314
1192 6.8617253
1190 5.9265208
1188 5.0532269
1186 4.3098726
1184 3.722964
1182 3.2536085
1180 2.8544383
1178 2.4954956
1176 2.1665001
1174 1.8915234
1172 1.6988652
1170 1.6061103
1168 1.6139222
1166 1.6904621
1164 1.7950132
1162 1.884913
1160 1.9259217
1158 1.9040092
1156 1.8123243
1154 1.6499441
1152 1.423816
1150 1.1561432
1148 0.87607837
1146 0.61926889
1144 0.41364449
1142 0.26355761
1140 0.15133674
1138 0.023984909
1136 -0.152786
1134 -0.34953833
1132 -0.52477455
1130 -0.64580494
1128 -0.69470185
1126 -0.68395638
1124 -0.63365078
1122 -0.56401974
1120 -0.48917639
1118 -0.4083457
1116 -0.31784856
1114 -0.21591049
1112 -0.10360408
1110 0.011843584
1108 0.11926023
1106 0.202025
1104 0.24943532
1102 0.26999742
1100 0.28666767
1098 0.34626245
1096 0.49116287
1094 0.73639071
1092 1.0775361
1090 1.4775554
1088 1.8968201
1086 2.3094544
1084 2.6968892
1082 3.0503156
1080 3.3579652
1078 3.5946372
1076 3.7349029
1074 3.7626262
1072 3.6768234
1070 3.5124547
1068 3.3149781
1066 3.1331186
1064 2.999748
1062 2.9017725
1060 2.8120441
1058 2.6957932
1056 2.5318859
1054 2.3427553
1052 2.163523
1050 2.0347509
1048 1.9883548
1046 2.0279107
1044 2.1466691
1042 2.3276472
1040 2.5503783
1038 2.7901835
1036 3.0193
1034 3.2054694
1032 3.3261251
1030 3.3902652
1028 3.4146698
1026 3.4144337
1024 3.3878069
1022 3.2853289
1020 3.0638914
1018 2.734643
1016 2.3352914
1014 1.9425352
1012 1.6168568
1010 1.3418833
1008 1.0831512
1006 0.81070733
1004 0.51333195
1002 0.23315965
1000 0.011462688
998 -0.1549775
996 -0.28904215
994 -0.4401896
992 -0.64546537
990 -0.88094294
988 -1.0997329
986 -1.2309164
984 -1.2225405
982 -1.1052465
980 -0.93438262
978 -0.77817851
976 -0.68640661
974 -0.63673472
972 -0.59216225
970 -0.52653778
968 -0.42756516
966 -0.32016999
964 -0.22947857
962 -0.14993219
960 -0.065896347
958 0.046246797
956 0.19768029
954 0.34972546
952 0.452382
950 0.46007714
948 0.35140026
946 0.1865427
944 0.045152936
942 0.0036908463
940 0.12079433
938 0.39348739
936 0.7885834
934 1.218917
932 1.5959516
930 1.8746537
928 2.0352211
926 2.10958
924 2.1463821
922 2.2067885
920 2.341924
918 2.5539916
916 2.8270528
914 3.1242235
912 3.4133949
910 3.7014999
908 4.0116539
906 4.3914752
904 4.8777313
902 5.4425163
900 6.028532
898 6.5287213
896 6.8234
