Image.
>Pix99999.
  .
5555
5555
2300
900
5555
2
1
0
701
5555
1.8549000e-001
1.8935446e-001
1.9320898e-001
1.9707341e-001
2.0092794e-001
2.0478243e-001
2.0864683e-001
2.1250141e-001
2.1636577e-001
2.2022036e-001
2.2408472e-001
2.2794919e-001
2.3180382e-001
2.3563868e-001
2.3951240e-001
2.4343579e-001
2.4723314e-001
2.5086185e-001
2.5494456e-001
2.5967106e-001
2.6269487e-001
2.6332319e-001
2.7028465e-001
2.8616804e-001
2.7853006e-001
2.1630393e-001
1.1305442e-001
1.4958638e-003
-5.9084781e-002
-1.6302332e-002
1.2455048e-001
3.3685067e-001
5.7445520e-001
7.9010141e-001
9.5398086e-001
1.0417916e+000
1.0306332e+000
9.1005278e-001
7.1888953e-001
5.1672333e-001
3.8859999e-001
4.0407664e-001
5.4010677e-001
7.4134177e-001
9.3505287e-001
1.0584564e+000
1.1091706e+000
1.1055768e+000
1.0752012e+000
1.0428679e+000
1.0110714e+000
9.7315139e-001
9.1317791e-001
8.1839818e-001
6.9984263e-001
5.7806200e-001
4.8119882e-001
4.3451560e-001
4.4200069e-001
4.9542379e-001
5.6479859e-001
6.1653847e-001
6.3060671e-001
6.0019141e-001
5.5367851e-001
5.2641374e-001
5.3485703e-001
5.8287627e-001
6.4983016e-001
7.0850343e-001
7.3795897e-001
7.2453356e-001
6.7474979e-001
6.0732931e-001
5.6283724e-001
5.8034962e-001
6.6244191e-001
7.9123759e-001
9.1806221e-001
9.9242800e-001
9.9988741e-001
9.4358402e-001
8.4634519e-001
7.3672247e-001
6.3977760e-001
5.7802546e-001
5.6946480e-001
6.2336791e-001
7.1946651e-001
8.2703340e-001
9.1674274e-001
9.6632445e-001
9.7906071e-001
9.6881247e-001
9.5379132e-001
9.4934458e-001
9.5373297e-001
9.5722073e-001
9.4413221e-001
9.0137106e-001
8.3488715e-001
7.5897866e-001
6.9164801e-001
6.4847445e-001
6.2999374e-001
6.3065302e-001
6.4437228e-001
6.6586697e-001
6.9310993e-001
7.2570825e-001
7.6474386e-001
8.1225479e-001
8.7210000e-001
9.4622940e-001
1.0256535e+000
1.0975343e+000
1.1508143e+000
1.1789219e+000
1.1880549e+000
1.1888510e+000
1.1868943e+000
1.1848457e+000
1.1834266e+000
1.1804799e+000
1.1656647e+000
1.1257179e+000
1.0495580e+000
9.3497986e-001
8.1258750e-001
7.2502148e-001
7.0558709e-001
7.7178204e-001
8.9481676e-001
1.0277749e+000
1.1320974e+000
1.1834086e+000
1.1989348e+000
1.2102906e+000
1.2342771e+000
1.2756643e+000
1.3207600e+000
1.3539169e+000
1.3837548e+000
1.4268007e+000
1.4851485e+000
1.5483843e+000
1.5851054e+000
1.5629390e+000
1.4831668e+000
1.3683195e+000
1.2603143e+000
1.1999406e+000
1.1885606e+000
1.2051789e+000
1.2146580e+000
1.1837671e+000
1.1120400e+000
1.0178241e+000
9.3262696e-001
8.8853800e-001
8.9800000e-001
9.5793331e-001
1.0413263e+000
1.1135890e+000
1.1550515e+000
1.1591550e+000
1.1406069e+000
1.1214181e+000
1.1114000e+000
1.1117998e+000
1.1143929e+000
1.1085764e+000
1.0912634e+000
1.0641661e+000
1.0322531e+000
1.0011200e+000
9.7327101e-001
9.4879764e-001
9.2442071e-001
8.9623082e-001
8.6468339e-001
8.3267397e-001
8.0301660e-001
7.7667379e-001
7.4745339e-001
7.0803177e-001
6.6270381e-001
6.2219429e-001
5.9658194e-001
5.9038788e-001
5.8768827e-001
5.6467664e-001
5.1135218e-001
4.3052766e-001
3.4361887e-001
2.7768058e-001
2.4261159e-001
2.3590952e-001
2.4625021e-001
2.6190329e-001
2.8704000e-001
3.3237273e-001
3.9631897e-001
4.6744490e-001
5.2570045e-001
5.5113387e-001
5.4283297e-001
5.1155031e-001
4.6928069e-001
4.2601183e-001
3.8450900e-001
3.4292287e-001
2.9757309e-001
2.4371125e-001
1.7494425e-001
8.7853201e-002
-3.7410967e-003
-7.5376645e-002
-1.0164859e-001
-6.4630948e-002
2.2496227e-002
1.2673430e-001
2.1077777e-001
2.4275786e-001
2.1816641e-001
1.5257178e-001
7.5712390e-002
1.9699788e-002
-4.0721213e-003
-2.3211609e-004
1.6187713e-002
2.9150439e-002
4.0850714e-002
6.5503657e-002
1.1690278e-001
2.0109564e-001
2.9654926e-001
3.6647806e-001
3.8449302e-001
3.3787489e-001
2.3609971e-001
1.0326017e-001
-3.1639729e-002
-1.3886803e-001
-1.9295989e-001
-1.7818549e-001
-1.0921837e-001
-2.2678114e-002
3.5440292e-002
2.5533376e-002
-4.5214429e-002
-1.3555689e-001
-1.9527119e-001
-1.8262936e-001
-1.0451734e-001
9.5382705e-004
1.0645169e-001
1.9791856e-001
2.6876003e-001
3.1373319e-001
3.1672543e-001
2.6002109e-001
1.5545018e-001
3.7449591e-002
-5.6142285e-002
-9.3585216e-002
-6.9099061e-002
-5.7837721e-003
2.5454331e-002
-5.6883607e-002
-2.3594844e-001
-4.2934370e-001
-6.0086387e-001
-7.5707620e-001
-8.9899361e-001
-1.0178907e+000
-1.1065949e+000
-1.1610131e+000
-1.1785072e+000
-1.1553226e+000
-1.0793600e+000
-9.3761295e-001
-7.4204510e-001
-5.2587730e-001
-3.2941887e-001
-1.8924814e-001
-1.1266215e-001
-7.7047721e-002
-2.6575051e-002
1.1362805e-001
4.0340412e-001
8.6893618e-001
1.4486852e+000
2.0349445e+000
2.6141381e+000
3.2729371e+000
4.1733246e+000
5.5423484e+000
7.6924028e+000
1.0885139e+001
1.4856571e+001
1.8939280e+001
2.2614042e+001
2.5646002e+001
2.8261953e+001
3.1020435e+001
3.4414528e+001
3.8696960e+001
4.3501759e+001
4.8069588e+001
5.2117542e+001
5.5864586e+001
5.9636219e+001
6.3699219e+001
6.7993614e+001
7.2208900e+001
7.6164124e+001
7.9836906e+001
8.3202744e+001
8.6213951e+001
8.8860085e+001
9.1174606e+001
9.3225540e+001
9.5074654e+001
9.6639854e+001
9.7731178e+001
9.8271942e+001
9.8292969e+001
9.7747665e+001
9.6495872e+001
9.4375572e+001
9.1275772e+001
8.7350342e+001
8.2966705e+001
7.8367989e+001
7.3628540e+001
6.8772682e+001
6.3825848e+001
5.8901894e+001
5.4190701e+001
4.9837029e+001
4.5923069e+001
4.2496586e+001
3.9569118e+001
3.7077709e+001
3.4901329e+001
3.2960003e+001
3.1233038e+001
2.9738583e+001
2.8514454e+001
2.7566000e+001
2.6858854e+001
2.6347715e+001
2.5990244e+001
2.5765903e+001
2.5673679e+001
2.5704737e+001
2.5843100e+001
2.6095856e+001
2.6497700e+001
2.7101629e+001
2.7960255e+001
2.9054497e+001
3.0289711e+001
3.1558800e+001
3.2766273e+001
3.3869953e+001
3.4919975e+001
3.6161560e+001
3.7972015e+001
4.0449459e+001
4.3328182e+001
4.6157185e+001
4.8434418e+001
5.0010403e+001
5.1114712e+001
5.1901432e+001
5.2358200e+001
5.2460140e+001
5.2216564e+001
5.1679798e+001
5.0938122e+001
5.0065514e+001
4.9100163e+001
4.8025150e+001
4.6770901e+001
4.5265678e+001
4.3465683e+001
4.1432869e+001
3.9339882e+001
3.7352444e+001
3.5563698e+001
3.3869038e+001
3.1971298e+001
2.9656734e+001
2.6896858e+001
2.3894194e+001
2.1043959e+001
1.8568678e+001
1.6426729e+001
1.4485572e+001
1.2588459e+001
1.0659901e+001
8.7308025e+000
6.8637557e+000
5.1330457e+000
3.6161718e+000
2.3801537e+000
1.4302880e+000
7.1385598e-001
2.5524801e-001
1.7198548e-001
4.9412370e-001
1.1129768e+000
1.8848331e+000
2.6727664e+000
3.4132898e+000
4.1343327e+000
4.8711972e+000
5.6332874e+000
6.3723001e+000
6.9797015e+000
7.3799958e+000
7.5656552e+000
7.5802894e+000
7.5090213e+000
7.4051237e+000
7.2623601e+000
7.0384674e+000
6.6648579e+000
6.0950499e+000
5.3326406e+000
4.4565463e+000
3.6228244e+000
2.9407060e+000
2.4273150e+000
2.0587492e+000
1.7890024e+000
1.6077414e+000
1.5582496e+000
1.6746857e+000
1.9570659e+000
2.3722658e+000
2.8552549e+000
3.3593554e+000
3.8729634e+000
4.3835559e+000
4.8660889e+000
5.2933402e+000
5.6429200e+000
5.9161429e+000
6.1442671e+000
6.3477159e+000
6.5182939e+000
6.6252980e+000
6.6182003e+000
6.4645128e+000
6.1676192e+000
5.7506299e+000
5.2547040e+000
4.7239628e+000
4.1997542e+000
3.7156479e+000
3.2892082e+000
2.9049137e+000
2.5052252e+000
2.0426102e+000
1.5073757e+000
9.4327855e-001
4.5745730e-001
1.3019566e-001
-2.6385944e-002
-3.8878638e-002
3.2444790e-002
1.3973561e-001
2.6706034e-001
4.0621358e-001
5.4964703e-001
6.8849009e-001
8.1183189e-001
9.1066259e-001
9.7997755e-001
1.0167978e+000
1.0208440e+000
9.9775189e-001
9.6197551e-001
9.3059355e-001
9.2094660e-001
9.4595426e-001
1.0097256e+000
1.1065800e+000
1.2175727e+000
1.3204435e+000
1.3947620e+000
1.4319497e+000
1.4433342e+000
1.4439292e+000
1.4471030e+000
1.4617989e+000
1.4913026e+000
1.5420429e+000
1.6282016e+000
1.7609897e+000
1.9427449e+000
2.1673160e+000
2.4171436e+000
2.6721809e+000
2.9132259e+000
3.1235280e+000
3.2920175e+000
3.4196870e+000
3.5274870e+000
3.6465247e+000
3.8163078e+000
4.0640602e+000
4.3904285e+000
4.7811623e+000
5.2072487e+000
5.6467280e+000
6.0982838e+000
6.5738630e+000
7.1011024e+000
7.7039309e+000
8.3901138e+000
9.1495113e+000
9.9449997e+000
1.0736897e+001
1.1493708e+001
1.2190485e+001
1.2814044e+001
1.3343157e+001
1.3734254e+001
1.3949320e+001
1.3969031e+001
1.3794909e+001
1.3460464e+001
1.2998206e+001
1.2419848e+001
1.1738428e+001
1.0977770e+001
1.0180612e+001
9.4101429e+000
8.7232714e+000
8.1432819e+000
7.6668329e+000
7.2512608e+000
6.8503819e+000
6.4303713e+000
5.9699798e+000
5.4675083e+000
4.9276500e+000
4.3594699e+000
3.7765851e+000
3.2001989e+000
2.6522403e+000
2.1526823e+000
1.7180281e+000
1.3590238e+000
1.0854477e+000
9.0683585e-001
8.2399601e-001
8.1822842e-001
8.5922986e-001
9.0292597e-001
9.1429830e-001
8.8659823e-001
8.2671010e-001
7.5642049e-001
6.9535470e-001
6.4986581e-001
6.1978328e-001
5.9703422e-001
5.6975663e-001
5.2241015e-001
4.4493422e-001
3.4240431e-001
2.2796977e-001
1.2429276e-001
4.9622882e-002
7.4469149e-003
5.3422078e-003
6.7593887e-002
2.1167554e-001
4.2858440e-001
6.9615459e-001
9.7687322e-001
1.2386740e+000
1.4723839e+000
1.6798400e+000
1.8767570e+000
2.0800571e+000
2.3011558e+000
2.5407748e+000
2.7767267e+000
2.9832373e+000
3.1400299e+000
3.2407148e+000
3.3099055e+000
3.3766572e+000
3.4613764e+000
3.5816143e+000
3.7528286e+000
3.9980259e+000
4.3588505e+000
4.8649497e+000
5.5010500e+000
6.2213421e+000
6.9308219e+000
7.5358372e+000
7.9808998e+000
8.2390280e+000
8.3359356e+000
8.3150425e+000
8.2326298e+000
8.1402035e+000
8.0669479e+000
8.0227604e+000
7.9800792e+000
7.9085364e+000
7.7955923e+000
7.6426229e+000
7.4762588e+000
7.3204980e+000
7.1749787e+000
7.0342760e+000
6.8954644e+000
6.7610364e+000
6.6466417e+000
6.5629730e+000
6.4974637e+000
6.4258204e+000
6.3067698e+000
6.1000023e+000
5.7796502e+000
5.3372703e+000
4.8050957e+000
4.2314196e+000
3.6818430e+000
3.2144716e+000
2.8514462e+000
2.5914230e+000
2.3885136e+000
2.1907406e+000
1.9617420e+000
1.6848880e+000
1.3931521e+000
1.1248026e+000
8.9497572e-001
7.0444643e-001
5.2568674e-001
3.3338785e-001
1.3095155e-001
-7.0136562e-002
-2.5572222e-001
-4.1969633e-001
-5.8357418e-001
-7.6800102e-001
-9.6823078e-001
-1.1634700e+000
-1.3015374e+000
-1.3327514e+000
-1.2432070e+000
-1.0384260e+000
-7.5977892e-001
-4.5802790e-001
-1.8361485e-001
2.0567395e-002
1.3797571e-001
1.6839051e-001
1.4510599e-001
1.0472196e-001
6.6400476e-002
4.1067917e-002
2.6030999e-002
1.5099459e-002
2.2759754e-003
5.1736832e-005
8.5396424e-002
3.1059295e-001
5.8180851e-001
7.8020459e-001
8.2869154e-001
6.8992233e-001
4.3433660e-001
1.5874073e-001
-4.2011756e-002
-9.2054337e-002
1.5062585e-002
2.4832995e-001
5.0080764e-001
6.5776759e-001
6.4740103e-001
4.4379836e-001
1.5666386e-001
-8.2467280e-002
-1.8874452e-001
-1.1599150e-001
7.6174304e-002
3.1562236e-001
5.8560586e-001
8.8327998e-001
