##TITLE=Methyl Ethyl Ketone
##JCAMP-DX=4.24
##DATA TYPE=INFRARED SPECTRUM
##XUNITS=cm-1
##YUNITS=Absorbance
##FIRSTX=900
##LASTX=2300
##XYDATA=(X++(Y..Y))
2296 -0.078034997
2294 -0.079658672
2292 -0.081282347
2290 -0.082905032
2288 -0.084528707
2286 -0.086152382
2284 -0.087775074
2282 -0.089398742
2280 -0.091022417
2278 -0.092645109
2276 -0.094268769
2274 -0.095894411
2272 -0.097516157
2270 -0.099133916
2268 -0.10076728
2266 -0.10240486
2264 -0.1040132
2262 -0.1055526
2260 -0.10725603
2258 -0.10916788
2256 -0.110512
2254 -0.1110544
2252 -0.1137142
2250 -0.11936107
2248 -0.11713571
2246 -0.089268923
2244 -0.0032774857
2242 0.15510727
2240 0.31034118
2238 0.38411969
2236 0.38933715
2234 0.36007088
2232 0.31022274
2230 0.25046179
2228 0.20283626
2226 0.1896535
2224 0.22044925
2222 0.29514629
2220 0.39016935
2218 0.47954476
2216 0.55567682
2214 0.61721003
2212 0.66553277
2210 0.69911879
2208 0.70154232
2206 0.65561706
2204 0.55933034
2202 0.42307556
2200 0.28840697
2198 0.2025294
2196 0.19686215
2194 0.28526381
2192 0.43090051
2190 0.58375072
2188 0.70468163
2186 0.76700485
2184 0.7793048
2182 0.75948668
2180 0.71758169
2178 0.66096765
2176 0.59748429
2174 0.53633308
2172 0.49160069
2170 0.47568518
2168 0.48771879
2166 0.52136242
2164 0.56615168
2162 0.61188626
2160 0.65474975
2158 0.69433415
2156 0.73529899
2154 0.78189546
2152 0.82991433
2150 0.86895192
2148 0.87542403
2146 0.82734501
2144 0.72781521
2142 0.59491503
2140 0.47179639
2138 0.4023855
2136 0.39856601
2134 0.45490339
2132 0.5425247
2130 0.62677932
2128 0.68233442
2126 0.69331312
2124 0.66766447
2122 0.62357455
2120 0.58592856
2118 0.57484591
2116 0.58167315
2114 0.58963209
2112 0.59273458
2110 0.591281
2108 0.59324354
2106 0.60614812
2104 0.62416053
2102 0.63740891
2100 0.64067799
2098 0.63069582
2096 0.60400712
2094 0.5571056
2092 0.48673409
2090 0.39372751
2088 0.2954444
2086 0.21571949
2084 0.17841798
2082 0.20058818
2080 0.27200308
2078 0.37038535
2076 0.46862027
2074 0.54143113
2072 0.57757759
2070 0.5739724
2068 0.53776765
2066 0.48212564
2064 0.4290604
2062 0.39972517
2060 0.39729106
2058 0.41384989
2056 0.42712945
2054 0.41433451
2052 0.37409762
2050 0.31618464
2048 0.25800645
2046 0.21697643
2044 0.1986606
2042 0.20234752
2040 0.22279395
2038 0.25154772
2036 0.27388686
2034 0.27611053
2032 0.26013622
2030 0.23861709
2028 0.24009617
2026 0.29270163
2024 0.39470658
2022 0.52673823
2020 0.65252805
2018 0.73495567
2016 0.76200801
2014 0.73821026
2012 0.6885317
2010 0.64294279
2008 0.61603355
2006 0.612813
2004 0.62960422
2002 0.65973932
2000 0.69897085
1998 0.74133974
1996 0.767775
1994 0.7555986
1992 0.69327694
1990 0.58221143
1988 0.4546802
1986 0.35307878
1984 0.30157509
1982 0.30956423
1980 0.36461693
1978 0.44641128
1976 0.54319257
1974 0.6490106
1972 0.76199359
1970 0.87865859
1968 0.98134863
1966 1.0471236
1964 1.0614443
1962 1.0209113
1960 0.94984603
1958 0.88409996
1956 0.85079044
1954 0.86648542
1952 0.92566162
1950 1.008944
1948 1.0837508
1946 1.1157
1944 1.088012
1942 1.0021616
1940 0.89725465
1938 0.82495934
1936 0.80890512
1934 0.8496691
1932 0.91832525
1930 0.97974277
1928 1.0341424
1926 1.102275
1924 1.2078317
1922 1.3621932
1920 1.5249331
1918 1.635944
1916 1.6726571
1914 1.6412246
1912 1.5735166
1910 1.504835
1908 1.4336592
1906 1.3425558
1904 1.23888
1902 1.1465405
1900 1.0924537
1898 1.0957584
1896 1.1398429
1894 1.1904577
1892 1.2239085
1890 1.227227
1888 1.2002457
1886 1.148815
1884 1.0768249
1882 0.9882254
1880 0.89537567
1878 0.81736833
1876 0.78091598
1874 0.81086463
1872 0.9062016
1870 1.0423046
1868 1.1593223
1866 1.1901221
1864 1.1217709
1862 0.98112762
1860 0.81950945
1858 0.69185936
1856 0.61853343
1854 0.60043573
1852 0.65059531
1850 0.78320211
1848 0.97436398
1846 1.1697714
1844 1.2891989
1842 1.2583156
1840 1.0896789
1838 0.85373372
1836 0.63103342
1834 0.49151579
1832 0.45648581
1830 0.50982481
1828 0.60577756
1826 0.68534613
1824 0.69980693
1822 0.61914253
1820 0.45993263
1818 0.26992542
1816 0.10554074
1814 0.016575616
1812 0.012559017
1810 0.074259534
1808 0.17322485
1806 0.283602
1804 0.40470186
1802 0.55200332
1800 0.73670983
1798 0.95489872
1796 1.1564214
1794 1.265306
1792 1.227652
1790 1.0286721
1788 0.74559861
1786 0.50112283
1784 0.3488276
1782 0.28665292
1780 0.31078526
1778 0.41882101
1776 0.58857542
1774 0.77282542
1772 0.87654459
1770 0.79961878
1768 0.56451398
1766 0.28482893
1764 0.074115455
1762 0.0037176688
1760 0.0061169467
1758 -0.055198379
1756 -0.18162417
1754 -0.26761144
1752 -0.22693668
1750 -0.023701906
1748 0.28027165
1746 0.56146181
1744 0.72456682
1742 0.72679079
1740 0.6283356
1738 0.54472315
1736 0.51177597
1734 0.48868436
1732 0.40393922
1730 0.19478227
1728 -0.099362209
1726 -0.36053956
1724 -0.4758971
1722 -0.3584787
1720 0.03022024
1718 0.67662817
1716 1.4875234
1714 2.324302
1712 3.1002793
1710 3.8025317
1708 4.533124
1706 5.4784493
1704 6.8314047
1702 8.7511778
1700 11.274047
1698 14.29659
1696 17.515285
1694 20.533049
1692 23.1978
1690 25.624023
1688 28.129868
1686 31.113085
1684 34.733829
1682 38.864246
1680 43.036079
1678 46.650852
1676 49.654114
1674 52.48101
1672 55.55431
1670 59.135052
1668 63.154251
1666 67.297249
1664 71.327599
1662 75.133049
1660 78.664795
1658 81.924232
1656 84.984489
1654 87.948967
1652 90.808304
1650 93.401115
1648 95.352501
1646 96.21257
1644 95.973686
1642 95.025566
1640 93.649353
1638 91.923363
1636 89.782234
1634 87.100494
1632 83.921082
1630 80.441055
1628 76.779373
1626 72.947479
1624 68.931717
1622 64.730255
1620 60.421185
1618 56.149109
1616 52.028885
1614 48.132427
1612 44.528595
1610 41.283401
1608 38.419502
1606 35.917328
1604 33.752029
1602 31.901705
1600 30.339417
1598 29.030796
1596 27.937
1594 27.016209
1592 26.231571
1590 25.557674
1588 24.995363
1586 24.572458
1584 24.323795
1582 24.289629
1580 24.521612
1578 25.069229
1576 25.9286
1574 27.028627
1572 28.230808
1570 29.360981
1568 30.34136
1566 31.2083
1564 32.03503
1562 32.936153
1560 34.177608
1558 36.100834
1556 38.659927
1554 41.384079
1552 43.814674
1550 45.668846
1548 47.026718
1546 48.288891
1544 49.685249
1542 51.150688
1540 52.418621
1538 53.109192
1536 53.043514
1534 52.325172
1532 51.224857
1530 50.100388
1528 49.14748
1526 48.336102
1524 47.527641
1522 46.52137
1520 45.141594
1518 43.29689
1516 41.114384
1514 38.91526
1512 36.847519
1510 34.79393
1508 32.530819
1506 29.833292
1504 26.76996
1502 23.730013
1500 20.988152
1498 18.582821
1496 16.430285
1494 14.372513
1492 12.30496
1490 10.213327
1488 8.1071606
1486 6.0138941
1484 4.0318561
1482 2.3333468
1480 1.054474
1478 0.26878333
1476 0.053127021
1474 0.46851853
1472 1.3812988
1470 2.4431109
1468 3.4201646
1466 4.2935591
1464 5.1309376
1462 6.0284948
1460 6.9603724
1458 7.7359419
1456 8.1442003
1454 8.0344868
1452 7.4836631
1450 6.8202472
1448 6.2514749
1446 5.7548714
1444 5.2853518
1442 4.8363552
1440 4.4207115
1438 4.058414
1436 3.7277429
1434 3.3562169
1432 2.9025588
1430 2.3899655
1428 1.8896239
1426 1.5111628
1424 1.3247172
1422 1.3276916
1420 1.4676898
1418 1.6514127
1416 1.8123572
1414 1.940022
1412 2.0650594
1410 2.252677
1408 2.5390275
1406 2.9080215
1404 3.3313158
1402 3.7799969
1400 4.2294722
1398 4.6591692
1396 5.0380359
1394 5.3216214
1392 5.4815116
1390 5.5184736
1388 5.4467707
1386 5.29181
1384 5.0838165
1382 4.8558207
1380 4.6360211
1378 4.4401484
1376 4.2549686
1374 4.0313706
1372 3.73387
1370 3.3630652
1368 2.9448006
1366 2.5267501
1364 2.1335349
1362 1.7485856
1360 1.3588789
1358 0.97312331
1356 0.61617231
1354 0.32690871
1352 0.12536108
1350 -0.0014986359
1348 -0.063922882
1346 -0.055722144
1344 0.034337439
1342 0.21382849
1340 0.45503289
1338 0.67774934
1336 0.80913574
1334 0.81450069
1332 0.70931304
1330 0.57326669
1328 0.47673619
1326 0.44985473
1324 0.5077557
1322 0.65414232
1320 0.88065141
1318 1.1609204
1316 1.45192
1314 1.6926173
1312 1.8370543
1310 1.8743473
1308 1.8187771
1306 1.7129135
1304 1.6003155
1302 1.513911
1300 1.4748362
1298 1.4867244
1296 1.5434428
1294 1.6292169
1292 1.7294263
1290 1.8356099
1288 1.943912
1286 2.0549343
1284 2.1660049
1282 2.2676246
1280 2.3552074
1278 2.4362109
1276 2.5249715
1274 2.6421061
1272 2.7995515
1270 2.9910808
1268 3.2084773
1266 3.4481423
1264 3.7145956
1262 4.0237522
1260 4.388402
1258 4.8095603
1256 5.2822399
1254 5.7961578
1252 6.3428211
1250 6.9202914
1248 7.5266452
1246 8.1563501
1244 8.7948256
1242 9.4122076
1240 9.975708
1238 10.455691
1236 10.8341
1234 11.111976
1232 11.29732
1230 11.394873
1228 11.405535
1226 11.319872
1224 11.128103
1222 10.825652
1220 10.418534
1218 9.9343882
1216 9.4080172
1214 8.8775253
1212 8.369442
1210 7.8824482
1208 7.4038467
1206 6.9116764
1204 6.3884358
1202 5.8307447
1200 5.2422376
1198 4.6346006
1196 4.0232859
1194 3.4281714
1192 2.8707411
1190 2.372637
1188 1.948588
1186 1.5978371
1184 1.3111006
1182 1.0695047
1180 0.86023867
1178 0.68859434
1176 0.56445801
1174 0.49690101
1172 0.48269621
1170 0.49238715
1168 0.49314103
1166 0.46007314
1164 0.38322294
1162 0.2815983
1160 0.17938508
1158 0.096121252
1156 0.042596318
1154 0.012404017
1152 -0.0035626297
1150 -0.01117898
1148 -0.015004581
1146 -0.018112037
1144 -0.02138892
1142 -0.021233734
1140 -0.011008308
1138 0.020716358
1136 0.087938257
1134 0.20717601
1132 0.38820767
1130 0.62337989
1128 0.90154856
1126 1.2127607
1124 1.5444875
1122 1.877564
1120 2.1958361
1118 2.4944599
1116 2.7760916
1114 3.0543408
1112 3.3405211
1110 3.634043
1108 3.9340186
1106 4.2467752
1104 4.5771976
1102 4.9229832
1100 5.2788968
1098 5.6366491
1096 5.9901714
1094 6.3407145
1092 6.6896281
1090 7.0332122
1088 7.3694878
1086 7.7038407
1084 8.0386667
1082 8.3639612
1080 8.6619253
1078 8.904562
1076 9.0736732
1074 9.1835518
1072 9.259614
1070 9.3350677
1068 9.4351625
1066 9.5594692
1064 9.6961603
1062 9.8193169
1060 9.899972
1058 9.9107313
1056 9.8334455
1054 9.6760092
1052 9.4543056
1050 9.1898537
1048 8.9001427
1046 8.5885715
1044 8.2603998
1042 7.9358406
1040 7.6333075
1038 7.3545837
1036 7.0904999
1034 6.813343
1032 6.500813
1030 6.1590819
1028 5.8018198
1026 5.4427142
1024 5.0918298
1022 4.747365
1020 4.4070172
1018 4.0744267
1016 3.7521372
1014 3.4356647
1012 3.1182382
1010 2.7923748
1008 2.456392
1006 2.1260192
1004 1.8184769
1002 1.5409321
1000 1.2932246
998 1.0596186
996 0.82567143
994 0.5947206
992 0.37661368
990 0.18846841
988 0.042140104
986 -0.072876737
984 -0.16949868
982 -0.25013012
980 -0.30749559
978 -0.31152165
976 -0.23525411
974 -0.080932997
972 0.1354942
970 0.37659431
968 0.60343838
966 0.79013646
964 0.91715872
962 0.97595435
960 0.96660131
958 0.9093805
956 0.82790929
954 0.73962379
952 0.65124798
950 0.53793406
948 0.38277748
946 0.2239857
944 0.099381655
942 -0.0031510666
940 -0.09801174
938 -0.1636471
936 -0.1838697
934 -0.19401877
932 -0.23054823
930 -0.28687811
928 -0.34661794
926 -0.39686874
924 -0.43179318
922 -0.46878582
920 -0.52647579
918 -0.60626423
916 -0.70041603
914 -0.78292948
912 -0.8356998
910 -0.88838446
908 -0.96873516
906 -1.0505979
904 -1.091704
902 -1.0394521
900 -0.86504871
898 -0.64450443
896 -0.47984001
