##TITLE=Methyl Ethyl Ketone
##JCAMP-DX=4.24
##DATA TYPE=INFRARED SPECTRUM
##XUNITS=cm-1
##YUNITS=Absorbance
##FIRSTX=900
##LASTX=2300
##XYDATA=(X++(Y..Y))
2296 0.10563
2294 0.10782686
2292 0.11002371
2290 0.11222058
2288 0.11442737
2286 0.11662429
2284 0.11882114
2282 0.121018
2280 0.12321486
2278 0.12541172
2276 0.12760857
2274 0.12980543
2272 0.13200228
2270 0.13419914
2268 0.13639599
2266 0.13860264
2264 0.14078994
2262 0.1429573
2260 0.1451924
2258 0.1474973
2256 0.14959028
2254 0.1513572
2252 0.15396702
2250 0.15775415
2248 0.15843046
2246 0.14726429
2244 0.10289557
2242 0.012805969
2240 -0.08585681
2238 -0.14898303
2236 -0.16107315
2234 -0.12439917
2232 -0.079636939
2230 -0.069785394
2228 -0.10324232
2226 -0.1743675
2224 -0.26184526
2222 -0.34156471
2220 -0.39610037
2218 -0.41102019
2216 -0.37569401
2214 -0.28384835
2212 -0.1422614
2210 0.031595431
2208 0.19285867
2206 0.29580092
2204 0.32469627
2202 0.28362045
2200 0.21933651
2198 0.18068041
2196 0.17213929
2194 0.18010773
2192 0.17466955
2190 0.12972187
2188 0.054407224
2186 -0.032450411
2184 -0.11859848
2182 -0.1967895
2180 -0.27068508
2178 -0.34508398
2176 -0.4151597
2174 -0.47306332
2172 -0.5116244
2170 -0.52705669
2168 -0.52808732
2166 -0.52722639
2164 -0.53540921
2162 -0.55889523
2160 -0.58731037
2158 -0.60661519
2156 -0.61064297
2154 -0.59822017
2152 -0.57706183
2150 -0.55398357
2148 -0.51980388
2146 -0.46053213
2144 -0.36561856
2142 -0.23244159
2140 -0.085630819
2138 0.040349215
2136 0.10990229
2134 0.096528314
2132 0.011690211
2130 -0.117815
2128 -0.25805241
2126 -0.3774502
2124 -0.46303576
2122 -0.50867283
2120 -0.50823075
2118 -0.45999148
2116 -0.38154444
2114 -0.29931068
2112 -0.24672617
2110 -0.25166288
2108 -0.30913332
2106 -0.39939448
2104 -0.49324954
2102 -0.56284642
2100 -0.59903419
2098 -0.60297638
2096 -0.58849144
2094 -0.57374203
2092 -0.57591432
2090 -0.60746223
2088 -0.66371244
2086 -0.73238051
2084 -0.79749316
2082 -0.84440261
2080 -0.86900532
2078 -0.8726837
2076 -0.86187029
2074 -0.8461836
2072 -0.84083796
2070 -0.86072081
2068 -0.91024083
2066 -0.98721236
2064 -1.0798571
2062 -1.1739719
2060 -1.2593737
2058 -1.32828
2056 -1.3751286
2054 -1.3970578
2052 -1.3987788
2050 -1.3883612
2048 -1.3736103
2046 -1.3603858
2044 -1.346128
2042 -1.3264737
2040 -1.3051314
2038 -1.2888012
2036 -1.2830685
2034 -1.2903659
2032 -1.3037223
2030 -1.313771
2028 -1.3190577
2026 -1.3207879
2024 -1.3174548
2022 -1.3072703
2020 -1.2944826
2018 -1.2874119
2016 -1.30094
2014 -1.3474034
2012 -1.41679
2010 -1.4904237
2008 -1.5571285
2006 -1.6107771
2004 -1.6494749
2002 -1.671515
2000 -1.6684606
1998 -1.6310998
1996 -1.5605286
1994 -1.4646871
1992 -1.3593692
1990 -1.2620424
1988 -1.182098
1986 -1.1247585
1984 -1.0933828
1982 -1.0894066
1980 -1.1078634
1978 -1.1374451
1976 -1.1523143
1974 -1.124801
1972 -1.0501103
1970 -0.94039088
1968 -0.83219463
1966 -0.76599276
1964 -0.75132573
1962 -0.77710825
1960 -0.81311756
1958 -0.82700032
1956 -0.81348711
1954 -0.78198355
1952 -0.74333435
1950 -0.70674074
1948 -0.67581797
1946 -0.65257001
1944 -0.64439297
1942 -0.65811133
1940 -0.6850189
1938 -0.708718
1936 -0.71560484
1934 -0.69741303
1932 -0.6598596
1930 -0.61252367
1928 -0.55035198
1926 -0.45915705
1924 -0.32164195
1922 -0.13073426
1920 0.071847506
1918 0.2241355
1916 0.29130143
1914 0.26581296
1912 0.18483046
1910 0.10128886
1908 0.03609775
1906 -0.0095016565
1904 -0.03403252
1902 -0.033430714
1900 -0.00044042803
1898 0.068467632
1896 0.15333542
1894 0.22261398
1892 0.25277349
1890 0.23085099
1888 0.16481817
1886 0.074440658
1884 -0.019178797
1882 -0.096777827
1880 -0.14593805
1878 -0.1579473
1876 -0.12308
1874 -0.032430649
1872 0.11492923
1870 0.30734664
1868 0.49883324
1866 0.62901509
1864 0.66216302
1862 0.58878559
1860 0.44141468
1858 0.27327991
1856 0.12445886
1854 0.024124485
1852 -0.00080538675
1850 0.067635946
1848 0.20894578
1846 0.37376037
1844 0.48961914
1842 0.48814309
1840 0.37203017
1838 0.19273338
1836 0.015249658
1834 -0.09896116
1832 -0.120466
1830 -0.048175637
1828 0.084638365
1826 0.223865
1824 0.31009176
1822 0.2949115
1820 0.1849844
1818 0.025985595
1816 -0.12190508
1814 -0.20381202
1812 -0.21301691
1810 -0.1752203
1808 -0.11693816
1806 -0.05599115
1804 0.01448239
1802 0.11404064
1800 0.24702281
1798 0.40152121
1796 0.54695928
1794 0.64585125
1792 0.67992002
1790 0.65256786
1788 0.60021007
1786 0.57217109
1784 0.58154577
1782 0.61778051
1780 0.6883713
1778 0.80994469
1776 0.96756059
1774 1.1138507
1772 1.1641251
1770 1.0346295
1768 0.75271416
1766 0.42794931
1764 0.17120603
1762 0.054829881
1760 0.019349949
1758 -0.059405461
1756 -0.17274442
1754 -0.21303833
1752 -0.11828701
1750 0.1081171
1748 0.38270625
1746 0.58072466
1744 0.62806118
1742 0.51646382
1740 0.33578962
1738 0.22111538
1736 0.20712601
1734 0.23565455
1732 0.21085049
1730 0.046176787
1728 -0.22526386
1726 -0.47646257
1724 -0.57786095
1722 -0.42279798
1720 0.042949989
1718 0.81145942
1716 1.7649999
1714 2.7194631
1712 3.552125
1710 4.230895
1708 4.8673139
1706 5.677052
1704 6.8756928
1702 8.6368999
1700 11.011902
1698 13.91444
1696 17.054571
1694 20.0385
1692 22.688271
1690 25.071726
1688 27.487074
1686 30.346472
1684 33.849731
1682 37.91909
1680 42.097
1678 45.7616
1676 48.852726
1674 51.812031
1672 55.036449
1670 58.72773
1668 62.746407
1666 66.72715
1664 70.503227
1662 74.12339
1660 77.644447
1658 81.1008
1656 84.546288
1654 88.027328
1652 91.456879
1650 94.584396
1648 96.946442
1646 98.025856
1644 97.840019
1642 96.870384
1640 95.431648
1638 93.571548
1636 91.193947
1634 88.167274
1632 84.599213
1630 80.803894
1628 76.977463
1626 73.147713
1624 69.259636
1622 65.23204
1620 61.077999
1618 56.906693
1616 52.839428
1614 48.991173
1612 45.468273
1610 42.352451
1608 39.641296
1606 37.256435
1604 35.128986
1602 33.221252
1600 31.530487
1598 30.077097
1596 28.862499
1594 27.862289
1592 27.031673
1590 26.316872
1588 25.694786
1586 25.177778
1584 24.797079
1582 24.59745
1580 24.628149
1578 24.934599
1576 25.522629
1574 26.345901
1572 27.306892
1570 28.276987
1568 29.1884
1566 30.048479
1564 30.8878
1562 31.778929
1560 32.959972
1558 34.767216
1556 37.191059
1554 39.824112
1552 42.230019
1550 44.094788
1548 45.443558
1546 46.617107
1544 47.826481
1542 49.045715
1540 50.113823
1538 50.796097
1536 50.973114
1534 50.690411
1532 50.10836
1530 49.456059
1528 48.846207
1526 48.232651
1524 47.490986
1522 46.457306
1520 45.021091
1518 43.170883
1516 41.060329
1514 38.971466
1512 37.001961
1510 34.995316
1508 32.732136
1506 30.035572
1504 27.010321
1502 24.052328
1500 21.423786
1498 19.135981
1496 17.080713
1494 15.081182
1492 13.025148
1490 10.8973
1488 8.7139511
1486 6.5179834
1484 4.4213381
1482 2.6073155
1480 1.2233037
1478 0.35490936
1476 0.089691341
1474 0.49067006
1472 1.3897998
1470 2.370563
1468 3.1789536
1466 3.8436821
1464 4.4761858
1462 5.1921563
1460 5.9776831
1458 6.650877
1456 7.0076399
1454 6.9012146
1452 6.402606
1450 5.8247957
1448 5.3709316
1446 5.0294213
1444 4.7525125
1442 4.5075431
1440 4.2709589
1438 4.0239139
1436 3.7295272
1434 3.3346486
1432 2.8327646
1430 2.2877326
1428 1.787448
1426 1.4236901
1424 1.2458646
1422 1.239375
1420 1.3565432
1418 1.5279533
1416 1.7064772
1414 1.886713
1412 2.0892246
1410 2.3533514
1408 2.6951075
1406 3.0917273
1404 3.5152454
1402 3.9428952
1400 4.3543401
1398 4.730279
1396 5.0464501
1394 5.2737365
1392 5.3981113
1390 5.4287844
1388 5.3755484
1386 5.2435198
1384 5.0457587
1382 4.8092918
1380 4.5648732
1378 4.3403444
1376 4.1406832
1374 3.9395587
1372 3.7171841
1370 3.4745705
1368 3.2176943
1366 2.9492707
1364 2.6513779
1362 2.281141
1360 1.8244858
1358 1.3230418
1356 0.84127027
1354 0.4527002
1352 0.18849458
1350 0.012301177
1348 -0.11215588
1346 -0.1947075
1344 -0.2256404
1342 -0.17967311
1340 -0.065176845
1338 0.052021589
1336 0.10808543
1334 0.069907047
1332 -0.050152682
1330 -0.18055481
1328 -0.2605353
1326 -0.27064985
1324 -0.21011609
1322 -0.093854822
1320 0.058517158
1318 0.22541279
1316 0.38434702
1314 0.51357293
1312 0.60064155
1310 0.64903605
1308 0.66865635
1306 0.67371297
1304 0.67636681
1302 0.68332952
1300 0.69860876
1298 0.72365361
1296 0.7595529
1294 0.80769622
1292 0.8690244
1290 0.94310409
1288 1.026184
1286 1.10944
1284 1.1840974
1282 1.2447824
1280 1.2908697
1278 1.3298233
1276 1.3735456
1274 1.438203
1272 1.5392498
1270 1.6878694
1268 1.8876506
1266 2.1310215
1264 2.4114652
1262 2.7306659
1260 3.09745
1258 3.5296586
1256 4.0409141
1254 4.6323376
1252 5.2959342
1250 6.011672
1248 6.7547698
1246 7.4972
1244 8.2135696
1242 8.8852243
1240 9.4984283
1238 10.045131
1236 10.519272
1234 10.91612
1232 11.228359
1230 11.440298
1228 11.538185
1226 11.513478
1224 11.366177
1222 11.110157
1220 10.76142
1218 10.332795
1216 9.836134
1214 9.2818174
1212 8.6824446
1210 8.0518627
1208 7.4011784
1206 6.7350044
1204 6.0560422
1202 5.366334
1200 4.670208
1198 3.9763122
1196 3.2960215
1194 2.6431475
1192 2.0320647
1190 1.476681
1188 0.98904574
1186 0.57676315
1184 0.24305575
1182 -0.016054273
1180 -0.20640698
1178 -0.33410218
1176 -0.404282
1174 -0.42051378
1172 -0.39039582
1170 -0.33156076
1168 -0.26642582
1166 -0.22165057
1164 -0.21660168
1162 -0.25109941
1160 -0.31352022
1158 -0.37760907
1156 -0.4204877
1154 -0.43558207
1152 -0.42647097
1150 -0.40994126
1148 -0.39638939
1146 -0.3740257
1144 -0.32410675
1142 -0.22558251
1140 -0.070252739
1138 0.11987276
1136 0.32644486
1134 0.55720973
1132 0.83023226
1130 1.1719308
1128 1.598716
1126 2.0974879
1124 2.6442468
1122 3.2074771
1120 3.7634959
1118 4.3125162
1116 4.854351
1114 5.3748116
1112 5.8598909
1110 6.3052592
1108 6.7176986
1106 7.1242452
1104 7.5451035
1102 7.9710464
1100 8.3825712
1098 8.7540932
1096 9.0749283
1094 9.3758211
1092 9.6985865
1090 10.085436
1088 10.557863
1086 11.082472
1084 11.608591
1082 12.074688
1080 12.433434
1078 12.68206
1076 12.836371
1074 12.93857
1072 13.030949
1070 13.136785
1068 13.264463
1066 13.396571
1064 13.5128
1062 13.59698
1060 13.630251
1058 13.58661
1056 13.4402
1054 13.174904
1052 12.792966
1050 12.331329
1048 11.833194
1046 11.319285
1044 10.797069
1042 10.244658
1040 9.6443586
1038 9.0144138
1036 8.3844299
1034 7.7970529
1032 7.2848511
1030 6.8429146
1028 6.4603724
1026 6.1348362
1024 5.8642998
1022 5.6397977
1020 5.4401989
1018 5.2128277
1016 4.9123917
1014 4.5407486
1012 4.1187801
1010 3.6907065
1008 3.2913079
1006 2.9093051
1004 2.524235
1002 2.1217275
1000 1.6993046
998 1.2870609
996 0.91797209
994 0.60876572
992 0.36654258
990 0.18008542
988 0.03174302
986 -0.10210498
984 -0.24112909
982 -0.38686144
980 -0.52564478
978 -0.60896558
976 -0.58621967
974 -0.42895517
972 -0.12663326
970 0.28935552
968 0.77026474
966 1.243765
964 1.6330612
962 1.8672339
960 1.897804
958 1.7501056
956 1.4751115
954 1.1499135
952 0.84309602
950 0.57095432
948 0.33995217
946 0.16690314
944 0.061398186
942 -0.0015130378
940 -0.046761736
938 -0.068563983
936 -0.063235663
934 -0.062160268
932 -0.094986506
930 -0.15315418
928 -0.22316331
926 -0.30856413
924 -0.4175348
922 -0.55962372
920 -0.73030853
918 -0.87091309
916 -0.91968441
914 -0.85495645
912 -0.68014121
910 -0.45670751
908 -0.24695322
906 -0.059914619
904 0.10605149
902 0.24246398
900 0.34352031
898 0.42401433
896 0.50392997
