Image.
>Pix99999.
  .
5555
5555
2300
900
5555
2
1
0
701
5555
-7.4204998e-003
-7.5780745e-003
-7.7357488e-003
-7.8934226e-003
-8.0510974e-003
-8.2087722e-003
-8.3664469e-003
-8.5241217e-003
-8.6816968e-003
-8.8392720e-003
-8.9970427e-003
-9.1553098e-003
-9.3124034e-003
-9.4679082e-003
-9.6276002e-003
-9.7929491e-003
-9.9431686e-003
-1.0071882e-002
-1.0257192e-002
-1.0521753e-002
-1.0576600e-002
-1.0336470e-002
-1.0876242e-002
-1.2516866e-002
-1.1256698e-002
-4.6229642e-003
-1.1190160e-003
-1.1124545e-002
-4.0194679e-002
-8.9502573e-002
-1.4814724e-001
-2.0387506e-001
-2.5284234e-001
-2.9348922e-001
-3.2358080e-001
-3.4381101e-001
-3.6755621e-001
-4.0697882e-001
-4.5432460e-001
-4.9420041e-001
-5.0440490e-001
-4.6913454e-001
-4.0652439e-001
-3.4274223e-001
-2.9492423e-001
-2.7203992e-001
-2.6157007e-001
-2.4915734e-001
-2.3959182e-001
-2.4290250e-001
-2.6582000e-001
-3.0960593e-001
-3.5778862e-001
-3.9373076e-001
-4.2255223e-001
-4.5573688e-001
-5.0214440e-001
-5.6445378e-001
-6.2420082e-001
-6.6052985e-001
-6.7056972e-001
-6.5893471e-001
-6.3600415e-001
-6.1092162e-001
-5.8056605e-001
-5.3972167e-001
-4.9156773e-001
-4.4348195e-001
-4.0816480e-001
-3.9568344e-001
-3.9830703e-001
-4.0206167e-001
-3.9257142e-001
-3.6041245e-001
-3.1637830e-001
-2.7720714e-001
-2.5508204e-001
-2.5769600e-001
-2.8157055e-001
-3.1821030e-001
-3.5457170e-001
-3.7776634e-001
-3.8163725e-001
-3.6646551e-001
-3.4885040e-001
-3.4808299e-001
-3.7044418e-001
-4.1421819e-001
-4.6496326e-001
-5.0541031e-001
-5.2522653e-001
-5.1944208e-001
-4.9426004e-001
-4.6045342e-001
-4.3095803e-001
-4.1627914e-001
-4.1410542e-001
-4.1683826e-001
-4.1532061e-001
-4.0097094e-001
-3.6938858e-001
-3.2048348e-001
-2.6531395e-001
-2.1864644e-001
-1.9303869e-001
-1.9480450e-001
-2.0855586e-001
-2.1152772e-001
-1.8577960e-001
-1.2138589e-001
-3.2483142e-002
5.8083266e-002
1.3109304e-001
1.7435373e-001
1.9723099e-001
2.1617472e-001
2.4090137e-001
2.7470812e-001
3.0731055e-001
3.2634860e-001
3.3372200e-001
3.3798686e-001
3.4953815e-001
3.7549525e-001
4.0717590e-001
4.3208215e-001
4.4987020e-001
4.6741420e-001
4.9864349e-001
5.5578607e-001
6.3231701e-001
7.1357667e-001
7.8557259e-001
8.3873159e-001
8.7911063e-001
9.1887295e-001
9.6700239e-001
1.0274583e+000
1.0908617e+000
1.1446736e+000
1.1890600e+000
1.2311399e+000
1.2809716e+000
1.3472000e+000
1.4267110e+000
1.5117065e+000
1.5975628e+000
1.6803590e+000
1.7513806e+000
1.8001981e+000
1.8186929e+000
1.8040241e+000
1.7698646e+000
1.7380227e+000
1.7324140e+000
1.7706943e+000
1.8415732e+000
1.9210123e+000
1.9890188e+000
2.0353644e+000
2.0777173e+000
2.1421700e+000
2.2350497e+000
2.3473954e+000
2.4514542e+000
2.5168829e+000
2.5389543e+000
2.5291603e+000
2.5106080e+000
2.5072896e+000
2.5256443e+000
2.5607216e+000
2.5993910e+000
2.6266675e+000
2.6349797e+000
2.6243250e+000
2.6110680e+000
2.6165667e+000
2.6484337e+000
2.7022128e+000
2.7548885e+000
2.7789474e+000
2.7664459e+000
2.7236974e+000
2.6686566e+000
2.6225793e+000
2.5976689e+000
2.5984163e+000
2.6198831e+000
2.6524770e+000
2.6858699e+000
2.7118151e+000
2.7316983e+000
2.7520823e+000
2.7790797e+000
2.8156965e+000
2.8534119e+000
2.8777401e+000
2.8745942e+000
2.8346987e+000
2.7660573e+000
2.6875138e+000
2.6244042e+000
2.6004319e+000
2.6199744e+000
2.6727893e+000
2.7330723e+000
2.7709835e+000
2.7738068e+000
2.7394149e+000
2.6662302e+000
2.5530293e+000
2.4028902e+000
2.2285931e+000
2.0740700e+000
1.9925779e+000
1.9977491e+000
2.0711870e+000
2.1654897e+000
2.2260525e+000
2.2318027e+000
2.1831110e+000
2.0782721e+000
1.9160659e+000
1.7130480e+000
1.5025071e+000
1.3418897e+000
1.2890211e+000
1.3418423e+000
1.4551566e+000
1.5633043e+000
1.6023660e+000
1.5547886e+000
1.4414705e+000
1.3186129e+000
1.2524285e+000
1.2688949e+000
1.3576509e+000
1.4705400e+000
1.5442702e+000
1.5436715e+000
1.4636074e+000
1.3408577e+000
1.2332827e+000
1.1790937e+000
1.1875600e+000
1.2098743e+000
1.1674701e+000
1.0154119e+000
7.5220478e-001
4.5190787e-001
2.2932908e-001
1.6693920e-001
2.9633236e-001
5.4435641e-001
7.7898788e-001
9.1131848e-001
9.0210718e-001
7.6408827e-001
5.4211497e-001
2.8487915e-001
4.1548174e-002
-1.3065714e-001
-1.8204497e-001
-1.2428378e-001
-1.4609259e-002
8.3894558e-002
1.1466037e-001
4.3492571e-002
-1.3774760e-001
-3.9026514e-001
-6.5283459e-001
-9.0773499e-001
-1.1687430e+000
-1.4279683e+000
-1.6586179e+000
-1.8424765e+000
-1.9726046e+000
-2.0520332e+000
-2.0816934e+000
-2.0246801e+000
-1.8264166e+000
-1.4866991e+000
-1.0581121e+000
-6.2877518e-001
-2.9540864e-001
-9.8817155e-002
-2.1375244e-002
1.3382742e-002
1.2156603e-001
4.2416298e-001
1.0057334e+000
1.7888925e+000
2.5919561e+000
3.3355942e+000
4.0605779e+000
4.9028034e+000
6.0893764e+000
7.9940743e+000
1.0984276e+001
1.4885571e+001
1.9084560e+001
2.3022161e+001
2.6359413e+001
2.9252909e+001
3.2231777e+001
3.5764126e+001
4.0074924e+001
4.4762920e+001
4.9045383e+001
5.2700100e+001
5.6078754e+001
5.9659321e+001
6.3834938e+001
6.8537453e+001
7.3329552e+001
7.7876709e+001
8.2023117e+001
8.5718819e+001
8.8979042e+001
9.1821915e+001
9.4256844e+001
9.6294937e+001
9.7934624e+001
9.9100174e+001
9.9669037e+001
9.9615616e+001
9.8996346e+001
9.7795578e+001
9.5922050e+001
9.3304802e+001
8.9942780e+001
8.6017326e+001
8.1834976e+001
7.7549370e+001
7.3144005e+001
6.8597076e+001
6.3932896e+001
5.9270214e+001
5.4799831e+001
5.0660885e+001
4.6922539e+001
4.3621220e+001
4.0766090e+001
3.8311440e+001
3.6168613e+001
3.4276840e+001
3.2615852e+001
3.1182726e+001
2.9979944e+001
2.8993999e+001
2.8193026e+001
2.7551617e+001
2.7054834e+001
2.6694174e+001
2.6463692e+001
2.6341160e+001
2.6293671e+001
2.6313826e+001
2.6431198e+001
2.6712914e+001
2.7242346e+001
2.8040091e+001
2.9049089e+001
3.0167639e+001
3.1275028e+001
3.2297306e+001
3.3252171e+001
3.4347816e+001
3.5930977e+001
3.8134758e+001
4.0790691e+001
4.3504005e+001
4.5764900e+001
4.7383484e+001
4.8533962e+001
4.9364891e+001
4.9910725e+001
5.0183338e+001
5.0195217e+001
4.9953743e+001
4.9463634e+001
4.8747852e+001
4.7841785e+001
4.6737743e+001
4.5384399e+001
4.3765965e+001
4.1930779e+001
4.0007011e+001
3.8181717e+001
3.6546772e+001
3.5043427e+001
3.3476440e+001
3.1559706e+001
2.9162075e+001
2.6386307e+001
2.3499538e+001
2.0864771e+001
1.8637789e+001
1.6694080e+001
1.4855286e+001
1.2968227e+001
1.0983843e+001
8.9761314e+000
7.0499129e+000
5.3107877e+000
3.8315921e+000
2.6352415e+000
1.6882794e+000
9.2102349e-001
3.6737612e-001
1.8180999e-001
4.3326896e-001
1.0389026e+000
1.8363968e+000
2.6201015e+000
3.2659800e+000
3.7682788e+000
4.1474762e+000
4.4302197e+000
4.6722202e+000
4.9538870e+000
5.2972040e+000
5.6421909e+000
5.9251366e+000
6.1034503e+000
6.1530528e+000
6.0661516e+000
5.8265982e+000
5.4083529e+000
4.8154697e+000
4.1013284e+000
3.3590822e+000
2.7101669e+000
2.2175920e+000
1.8563914e+000
1.5882857e+000
1.3899990e+000
1.2778497e+000
1.3128370e+000
1.5326772e+000
1.9234309e+000
2.4335093e+000
2.9799128e+000
3.5058732e+000
4.0012999e+000
4.4594569e+000
4.8644133e+000
5.2019162e+000
5.4663553e+000
5.6750212e+000
5.8706012e+000
6.0725675e+000
6.2568927e+000
6.3837538e+000
6.4071751e+000
6.2992287e+000
6.0600381e+000
5.6928024e+000
5.2003784e+000
4.6103458e+000
3.9884505e+000
3.4098840e+000
2.9405892e+000
2.5833178e+000
2.2511442e+000
1.8649800e+000
1.3976486e+000
8.8638020e-001
4.4267678e-001
1.4718793e-001
3.2666121e-003
-2.0830708e-002
1.7269187e-002
6.7918785e-002
1.0380864e-001
1.0504000e-001
5.9793275e-002
-1.7192498e-002
-7.3571116e-002
-6.2913112e-002
3.2683253e-002
1.9405845e-001
3.5650408e-001
4.7318503e-001
5.4491091e-001
5.9027016e-001
6.3797349e-001
7.0945567e-001
8.0937797e-001
9.3433297e-001
1.0736152e+000
1.2146709e+000
1.3452647e+000
1.4565809e+000
1.5460714e+000
1.6154486e+000
1.6716900e+000
1.7227615e+000
1.7759682e+000
1.8344144e+000
1.8945582e+000
1.9539431e+000
2.0155869e+000
2.0881639e+000
2.1870608e+000
2.3221645e+000
2.4901516e+000
2.6793389e+000
2.8696418e+000
3.0458057e+000
3.2057431e+000
3.3602681e+000
3.5370932e+000
3.7637980e+000
4.0593572e+000
4.4310937e+000
4.8684502e+000
5.3589559e+000
5.8944063e+000
6.4717426e+000
7.0953341e+000
7.7706499e+000
8.5009060e+000
9.2799740e+000
1.0083900e+001
1.0879157e+001
1.1623541e+001
1.2286446e+001
1.2858143e+001
1.3331928e+001
1.3696185e+001
1.3925480e+001
1.3978666e+001
1.3830332e+001
1.3492450e+001
1.2994599e+001
1.2381588e+001
1.1694752e+001
1.0962810e+001
1.0211229e+001
9.4670944e+000
8.7552071e+000
8.0942984e+000
7.4918752e+000
6.9344363e+000
6.3979158e+000
5.8479004e+000
5.2562656e+000
4.6144691e+000
3.9288926e+000
3.2268598e+000
2.5373616e+000
1.8821719e+000
1.2797853e+000
7.4533284e-001
2.9535937e-001
-5.0705671e-002
-2.8112325e-001
-4.0300655e-001
-4.3184599e-001
-3.9143080e-001
-3.0482170e-001
-1.8926875e-001
-6.1420474e-002
6.0794197e-002
1.6278209e-001
2.3841830e-001
2.8641009e-001
3.1146038e-001
3.1674871e-001
2.9906970e-001
2.5613222e-001
1.9156215e-001
1.1374220e-001
3.8723573e-002
-1.6302662e-002
-3.6596298e-002
-1.5512023e-002
3.7190899e-002
1.1804654e-001
2.4677780e-001
4.4092262e-001
6.9958210e-001
1.0168141e+000
1.3850836e+000
1.7960712e+000
2.2393379e+000
2.6966839e+000
3.1328931e+000
3.5162158e+000
3.8347709e+000
4.0943189e+000
4.3310332e+000
4.5818334e+000
4.8668599e+000
5.1932416e+000
5.5464802e+000
5.9065914e+000
6.2543230e+000
6.5763998e+000
6.8764729e+000
7.1664457e+000
7.4692702e+000
7.8035417e+000
8.1690483e+000
8.5558567e+000
8.9402609e+000
9.2954082e+000
9.5957928e+000
9.8211155e+000
9.9660053e+000
1.0038401e+001
1.0072480e+001
1.0102529e+001
1.0150743e+001
1.0221080e+001
1.0272407e+001
1.0255114e+001
1.0130356e+001
9.8810768e+000
9.5440445e+000
9.1700716e+000
8.8073044e+000
8.4879780e+000
8.2015715e+000
7.9293518e+000
7.6580291e+000
7.3805337e+000
7.1026678e+000
6.8278699e+000
6.5435190e+000
6.2324448e+000
5.8758912e+000
5.4640374e+000
5.0143390e+000
4.5582547e+000
4.1472297e+000
3.8217559e+000
3.5730753e+000
3.3683627e+000
3.1398034e+000
2.8315628e+000
2.4515023e+000
2.0321200e+000
1.6323099e+000
1.3047528e+000
1.0618118e+000
8.9862305e-001
7.8874421e-001
6.9873786e-001
5.9093618e-001
4.3535918e-001
2.3036899e-001
-9.8537058e-003
-2.4290158e-001
-4.2393330e-001
-5.2330917e-001
-5.2658957e-001
-4.5661229e-001
-3.4081486e-001
-1.9138254e-001
-1.5116498e-002
1.8620695e-001
4.0507072e-001
6.1079651e-001
7.7579737e-001
9.0238535e-001
9.9866676e-001
1.0670209e+000
1.1007186e+000
1.0668647e+000
9.3728077e-001
7.2428632e-001
4.6044105e-001
2.1450657e-001
5.2963633e-002
2.1454096e-003
7.0501313e-002
2.3794720e-001
4.7119743e-001
7.1493584e-001
9.1485500e-001
1.0406811e+000
1.0796795e+000
1.0609864e+000
1.0286299e+000
1.0417924e+000
1.1446321e+000
1.3098160e+000
1.4879999e+000
1.6125085e+000
1.6357828e+000
1.5993090e+000
1.5605109e+000
1.5503750e+000
1.5746474e+000
1.5650779e+000
1.4666668e+000
1.3503549e+000
1.3189000e+000
