##TITLE=Methyl Ethyl Ketone
##JCAMP-DX=4.24
##DATA TYPE=INFRARED SPECTRUM
##XUNITS=cm-1
##YUNITS=Absorbance
##FIRSTX=900
##LASTX=2300
##XYDATA=(X++(Y..Y))
2296 0.033918999
2294 0.034623992
2292 0.035329983
2290 0.03603597
2288 0.036740966
2286 0.03744695
2284 0.038152941
2282 0.038857941
2280 0.03956392
2278 0.040269911
2276 0.040974915
2274 0.041680891
2272 0.042385895
2270 0.043091867
2268 0.043797858
2266 0.044502873
2264 0.045208838
2262 0.045914829
2260 0.046619847
2258 0.047325812
2256 0.048031803
2254 0.048736822
2252 0.049442779
2250 0.05014877
2248 0.050853793
2246 0.05155975
2244 0.014992577
2242 0.00052383856
2240 -0.0131808
2238 0.0071419342
2236 0.032520056
2234 0.065819748
2232 0.098452255
2230 0.10350388
2228 0.10525937
2226 0.091363601
2224 0.080247782
2222 0.085588545
2220 0.09470652
2218 0.11271711
2216 0.12847744
2214 0.13822883
2212 0.14556679
2210 0.14953843
2208 0.14906715
2206 0.14331214
2204 0.13192347
2202 0.11540338
2200 0.11104725
2198 0.1160366
2196 0.14101857
2194 0.17717719
2192 0.19997652
2190 0.2166004
2188 0.20435628
2186 0.1828572
2184 0.166906
2182 0.15235071
2180 0.16183637
2178 0.17481416
2176 0.182064
2174 0.18756942
2172 0.17940877
2170 0.17361051
2168 0.18886554
2166 0.20911901
2164 0.24018495
2162 0.26252651
2160 0.25973067
2158 0.24971795
2156 0.23082399
2154 0.22205579
2152 0.22929253
2150 0.25061437
2148 0.28591761
2146 0.32989928
2144 0.38025308
2142 0.42369622
2140 0.46190581
2138 0.47552258
2136 0.47602913
2134 0.45925352
2132 0.43566954
2130 0.41277748
2128 0.39029759
2126 0.37663543
2124 0.36505041
2122 0.36286062
2120 0.3620331
2118 0.35869172
2116 0.35488242
2114 0.34999651
2112 0.34562251
2110 0.3439934
2108 0.34012473
2106 0.32832292
2104 0.31652495
2102 0.30742696
2100 0.3050504
2098 0.31335127
2096 0.32138428
2094 0.32711086
2092 0.32915434
2090 0.32773253
2088 0.3220945
2086 0.31321248
2084 0.29415125
2082 0.26861849
2080 0.24302274
2078 0.21794064
2076 0.20886485
2074 0.20646116
2072 0.21663961
2070 0.2307222
2068 0.22657052
2066 0.21723701
2064 0.16520076
2062 0.10553338
2060 0.050526526
2058 0.0040850854
2056 -0.00034934029
2054 0.0045262612
2052 0.013779655
2050 0.018479809
2048 0.010098993
2046 0.0030610999
2044 0.0040618042
2042 0.0058022626
2040 0.0055354629
2038 -0.0065490711
2036 -0.033312403
2034 -0.052762449
2032 -0.062345903
2030 -0.055196259
2028 -0.035715751
2026 -0.040062845
2024 -0.0605882
2022 -0.10312469
2020 -0.15562387
2018 -0.18328638
2016 -0.200326
2014 -0.20340224
2012 -0.2027562
2010 -0.21343763
2008 -0.22694285
2006 -0.23140879
2004 -0.2326256
2002 -0.2253408
2000 -0.21912326
1998 -0.22425565
1996 -0.23384643
1994 -0.24661922
1992 -0.25637433
1990 -0.2600829
1988 -0.2597554
1986 -0.25826651
1984 -0.25110224
1982 -0.23630418
1980 -0.21756113
1978 -0.1949483
1976 -0.17811885
1974 -0.16663501
1972 -0.15173072
1970 -0.13278057
1968 -0.1121436
1966 -0.09103103
1964 -0.085953429
1962 -0.090244018
1960 -0.09729296
1958 -0.10533353
1956 -0.11399043
1954 -0.12337729
1952 -0.13753965
1950 -0.15366158
1948 -0.16255926
1946 -0.1696675
1944 -0.18147098
1942 -0.19510068
1940 -0.22007895
1938 -0.24586828
1936 -0.26699284
1934 -0.28355023
1932 -0.29017439
1930 -0.29495534
1928 -0.29777217
1926 -0.29458201
1924 -0.28205949
1922 -0.25489569
1920 -0.21649605
1918 -0.1840791
1916 -0.16305299
1914 -0.14920433
1912 -0.13863367
1910 -0.12292356
1908 -0.10243062
1906 -0.10587715
1904 -0.12346359
1902 -0.15982449
1900 -0.20520826
1898 -0.22618854
1896 -0.23658143
1894 -0.2289611
1892 -0.21670932
1890 -0.2256081
1888 -0.24886532
1886 -0.30463836
1884 -0.37063962
1882 -0.43209419
1880 -0.48107499
1878 -0.5020799
1876 -0.51361102
1874 -0.51960993
1872 -0.53022391
1870 -0.54704595
1868 -0.55726254
1866 -0.56391364
1864 -0.56616431
1862 -0.5712418
1860 -0.58370525
1858 -0.59957165
1856 -0.61745805
1854 -0.63337582
1852 -0.65134257
1850 -0.6681875
1848 -0.68907523
1846 -0.70913392
1844 -0.72030401
1842 -0.72391844
1840 -0.71692824
1838 -0.70677
1836 -0.69319957
1834 -0.67862278
1832 -0.64843732
1830 -0.60840374
1828 -0.56371772
1826 -0.52229267
1824 -0.50910407
1822 -0.51647449
1820 -0.54183561
1818 -0.56964797
1816 -0.58219373
1814 -0.57903987
1812 -0.55790186
1810 -0.52466059
1808 -0.48585531
1806 -0.44490901
1804 -0.40424418
1802 -0.38866511
1800 -0.39303052
1798 -0.41528454
1796 -0.44738215
1794 -0.43109772
1792 -0.38310403
1790 -0.29314625
1788 -0.18395618
1786 -0.098645724
1784 -0.032743029
1782 0.0018692198
1780 0.014853021
1778 0.012634862
1776 0.0067766686
1774 0.021298774
1772 0.055188838
1770 0.099994302
1768 0.13857235
1766 0.139697
1764 0.117701
1762 0.093670063
1760 0.03238244
1758 -0.083293825
1756 -0.19369857
1754 -0.2661157
1752 -0.28310767
1750 -0.244302
1748 -0.19063765
1746 -0.14242429
1744 -0.15892982
1742 -0.24310859
1740 -0.32906231
1738 -0.40215018
1736 -0.357586
1734 -0.21906632
1732 -0.058780771
1730 0.10248081
1728 0.12533486
1726 0.050448265
1724 -0.022516619
1722 -0.072434537
1720 0.012625538
1718 0.23047426
1716 0.63367826
1714 1.1505015
1712 1.6569302
1710 2.1537259
1708 2.6572299
1706 3.3026457
1704 4.2253351
1702 5.6756363
1700 7.7762957
1698 10.752594
1696 14.573715
1694 18.512411
1692 22.22558
1690 25.551472
1688 28.533531
1686 32.056526
1684 36.21159
1682 41.291004
1680 47.107162
1678 52.257877
1676 56.762871
1674 60.965412
1672 65.016129
1670 69.711121
1668 74.896873
1666 80.0989
1664 85.205765
1662 89.870293
1660 94.07196
1658 97.737915
1656 100.78543
1654 103.08788
1652 104.4414
1650 104.65534
1648 103.67429
1646 101.555
1644 98.838959
1642 96.02243
1640 92.901527
1638 89.410934
1636 85.175499
1634 80.13063
1632 75.076981
1630 70.283264
1628 65.883331
1626 61.857929
1624 57.704319
1622 53.363548
1620 49.104897
1618 44.955521
1616 41.127285
1614 37.638771
1612 34.603622
1610 32.02388
1608 29.84248
1606 28.039543
1604 26.48262
1602 25.191319
1600 24.15904
1598 23.394041
1596 22.869499
1594 22.567324
1592 22.428646
1590 22.415392
1588 22.471003
1586 22.578085
1584 22.720646
1582 22.91762
1580 23.179708
1578 23.5847
1576 24.1586
1574 24.927448
1572 25.883512
1570 26.933273
1568 28.050079
1566 29.181921
1564 30.328238
1562 31.655416
1560 33.257542
1558 35.744259
1556 39.186844
1554 42.996212
1552 46.936493
1550 49.985226
1548 52.172825
1546 54.039715
1544 55.622635
1542 57.094692
1540 58.260101
1538 58.813206
1536 58.673885
1534 57.857056
1532 56.613068
1530 55.285664
1528 53.859795
1526 52.328651
1524 50.558399
1522 48.454391
1520 46.096416
1518 43.486427
1516 41.009758
1514 38.808895
1512 36.705643
1510 34.697418
1508 32.188259
1506 29.023657
1504 25.836298
1502 22.681099
1500 20.039061
1498 17.966471
1496 15.929285
1494 13.919473
1492 11.858594
1490 9.7536478
1488 7.6415286
1486 5.5928507
1484 3.7417681
1482 2.186528
1480 1.0411062
1478 0.32620308
1476 0.061216217
1474 0.33766702
1472 1.0875885
1470 2.0188689
1468 2.950907
1466 3.7450202
1464 4.3130436
1462 4.8075609
1460 5.2868066
1458 5.784821
1456 6.3113399
1454 6.742815
1452 7.0047817
1450 7.1225667
1448 7.0293818
1446 6.8759108
1444 6.6404605
1442 6.3771119
1440 6.0730929
1438 5.7127585
1436 5.275867
1434 4.7431207
1432 4.1274676
1430 3.5212348
1428 2.9564219
1426 2.5096486
1424 2.1957028
1422 2.0161834
1420 1.9736077
1418 2.0506694
1416 2.2181885
1414 2.4472871
1412 2.7011037
1410 2.9731722
1408 3.2602527
1406 3.5717466
1404 3.9043999
1402 4.2580204
1400 4.622828
1398 4.9978237
1396 5.3667574
1394 5.7154202
1392 6.0157938
1390 6.2135496
1388 6.3108907
1386 6.2419453
1384 6.0591235
1382 5.7195654
1380 5.3160181
1378 4.8406887
1376 4.3484488
1374 3.856497
1372 3.3950379
1370 2.9748178
1368 2.6062109
1366 2.2534223
1364 1.86114
1362 1.4342507
1360 0.96958685
1358 0.53906953
1356 0.23408008
1354 0.037095852
1352 -0.0025520364
1350 0.034134313
1348 0.14500049
1346 0.2839925
1344 0.45847118
1342 0.65337563
1340 0.88711476
1338 1.1298811
1336 1.3826171
1334 1.6227659
1332 1.8235989
1330 2.0186529
1328 2.2073407
1326 2.4192543
1324 2.6766071
1322 2.9683137
1320 3.3086393
1318 3.665204
1316 4.0325699
1314 4.3755741
1312 4.6775784
1310 4.921998
1308 5.1032228
1306 5.2234492
1304 5.2944298
1302 5.3200068
1300 5.3198977
1298 5.2969451
1296 5.2684426
1294 5.2399821
1292 5.2159724
1290 5.2014823
1288 5.1888881
1286 5.1763124
1284 5.1617303
1282 5.1401925
1280 5.1226492
1278 5.114563
1276 5.1200929
1274 5.1554618
1272 5.204813
1270 5.2792835
1268 5.3586731
1266 5.4432549
1264 5.5288377
1262 5.6147809
1260 5.7068019
1258 5.8064308
1256 5.9140372
1254 6.0279837
1252 6.1433988
1250 6.2556624
1248 6.3542581
1246 6.4393997
1244 6.4987278
1242 6.5437918
1240 6.5712285
1238 6.58285
1236 6.5587955
1234 6.4984856
1232 6.342732
1230 6.1414833
1228 5.8241711
1226 5.4756021
1224 5.0455341
1222 4.5955701
1220 4.0989561
1218 3.599612
1216 3.0985742
1214 2.621875
1212 2.1906281
1210 1.7964299
1208 1.456664
1206 1.1470872
1204 0.8744514
1202 0.62427396
1200 0.39887565
1198 0.195263
1196 0.016720563
1194 -0.12182222
1192 -0.22318554
1190 -0.26352289
1188 -0.26840883
1186 -0.23773751
1184 -0.19211337
1182 -0.13291284
1180 -0.053852096
1178 0.094423071
1176 0.27861801
1174 0.57064474
1172 0.87369019
1170 1.1921344
1168 1.4745891
1166 1.6425343
1164 1.7600491
1162 1.753063
1160 1.7183869
1158 1.6278114
1156 1.5197914
1154 1.3811727
1152 1.2203034
1150 1.0295213
1148 0.82791221
1146 0.61728895
1144 0.41934717
1142 0.24071947
1140 0.11158548
1138 0.02716136
1136 0.0077022202
1134 0.028253902
1132 0.096841514
1130 0.18949124
1128 0.31258315
1126 0.44674993
1124 0.59620273
1122 0.7384997
1120 0.82852399
1118 0.90271783
1116 0.91834968
1114 0.94067508
1112 0.99606675
1110 1.0678167
1108 1.1898928
1106 1.30367
1104 1.3931611
1102 1.44704
1100 1.4309908
1098 1.398647
1096 1.3442571
1094 1.3102705
1092 1.304804
1090 1.3277839
1088 1.3815954
1086 1.4602729
1084 1.5568454
1082 1.645753
1080 1.7219337
1078 1.738739
1076 1.7186643
1074 1.6247462
1072 1.5028319
1070 1.3544855
1068 1.2070477
1066 1.1099622
1064 1.0241252
1062 0.97459722
1060 0.9242357
1058 0.85728335
1056 0.79625201
1054 0.76154619
1052 0.73551273
1050 0.73623002
1048 0.72747976
1046 0.6946286
1044 0.64592153
1042 0.56534147
1040 0.46027932
1038 0.31912535
1036 0.1702628
1034 0.015909225
1032 -0.10820735
1030 -0.20454709
1028 -0.29269952
1026 -0.37549466
1024 -0.4624528
1022 -0.54979897
1020 -0.61707097
1018 -0.67532533
1016 -0.71737486
1014 -0.75430238
1012 -0.78286624
1010 -0.81004423
1008 -0.8384276
1006 -0.86721754
1004 -0.90027893
1002 -0.93465602
1000 -0.97813737
998 -1.0243185
996 -1.0816286
994 -1.130396
992 -1.1522857
990 -1.159955
988 -1.1352074
986 -1.1058636
984 -1.0670497
982 -1.0124271
980 -0.93614244
978 -0.85446608
976 -0.77014089
974 -0.7323221
972 -0.73213696
970 -0.74406427
968 -0.75929981
966 -0.70402747
964 -0.61629158
962 -0.51643223
960 -0.41608754
958 -0.38284874
956 -0.36396372
954 -0.34190118
952 -0.31702602
950 -0.23243731
948 -0.14466462
946 -0.046873931
944 0.00055326894
942 0.017678294
940 0.066798382
938 0.1865797
936 0.32607746
934 0.52282482
932 0.69567072
930 0.81669617
928 0.89854598
926 0.91784525
924 0.92860138
922 0.92891878
920 0.91572583
918 0.89023703
916 0.88902515
914 0.90523362
912 0.95777684
910 1.0291799
908 1.0169295
906 0.97328699
904 0.8637287
902 0.7380113
900 0.6870895
898 0.64851463
896 0.63777
