##TITLE=Methyl Ethyl Ketone
##JCAMP-DX=4.24
##DATA TYPE=INFRARED SPECTRUM
##XUNITS=cm-1
##YUNITS=Absorbance
##FIRSTX=900
##LASTX=2300
##XYDATA=(X++(Y..Y))
2296 0.015186
2294 0.015501549
2292 0.015818095
2290 0.016133646
2288 0.016449194
2286 0.016765734
2284 0.017081292
2282 0.01739783
2280 0.017713388
2278 0.018028937
2276 0.018345471
2274 0.018661033
2272 0.018977566
2270 0.019293131
2268 0.01960868
2266 0.019925207
2264 0.020240776
2262 0.020556325
2260 0.02087285
2258 0.021188423
2256 0.021503972
2254 0.021820489
2252 0.022136068
2250 0.022452584
2248 0.022768166
2246 0.023083715
2244 0.00085781433
2242 0.0099834744
2240 0.0057170559
2238 0.030746832
2236 0.060199056
2234 0.10163863
2232 0.14314103
2230 0.16696525
2228 0.18902899
2226 0.2038275
2224 0.21614154
2222 0.21885371
2220 0.20895489
2218 0.16226108
2216 0.10962515
2214 0.048556224
2212 0.0069793402
2210 -0.0019895032
2208 0.00090117881
2206 0.016072024
2204 0.015932078
2202 0.00026914006
2200 -0.014656723
2198 -0.02827543
2196 -0.024968358
2194 -0.011941925
2192 -0.0138924
2190 -0.022689736
2188 -0.039248455
2186 -0.058184344
2184 -0.0479054
2182 -0.030875811
2180 -0.0053063356
2178 0.021446405
2176 0.045068458
2174 0.068748616
2172 0.096461952
2170 0.11964376
2168 0.11467583
2166 0.10140608
2164 0.067882001
2162 0.046698008
2160 0.062271353
2158 0.09944994
2156 0.170504
2154 0.2399894
2152 0.30214635
2150 0.34978035
2148 0.38193727
2146 0.39510748
2144 0.39294824
2142 0.3780686
2140 0.35547853
2138 0.34853187
2136 0.35053086
2134 0.36799747
2132 0.39157867
2130 0.41083103
2128 0.42851919
2126 0.44435328
2124 0.45980185
2122 0.48091316
2120 0.50297046
2118 0.52546781
2116 0.54466188
2114 0.53850049
2112 0.52102983
2110 0.46962979
2108 0.41298342
2106 0.355508
2104 0.3056761
2102 0.27303654
2100 0.25497103
2098 0.25711447
2096 0.27673143
2094 0.31537503
2092 0.35190925
2090 0.38339654
2088 0.3955588
2086 0.39229149
2084 0.37160644
2082 0.3408159
2080 0.30621544
2078 0.27035505
2076 0.2576347
2074 0.2546019
2072 0.26388121
2070 0.27684623
2068 0.28678381
2066 0.29608884
2064 0.30931669
2062 0.32211733
2060 0.32121024
2058 0.31607649
2056 0.30253914
2054 0.2923699
2052 0.30062425
2050 0.31939179
2048 0.35628393
2046 0.39516714
2044 0.43121922
2042 0.45346755
2040 0.45528033
2038 0.43445006
2036 0.39059773
2034 0.34685159
2032 0.30738902
2030 0.29018182
2028 0.29014826
2026 0.2861135
2024 0.27788138
2022 0.27702057
2020 0.28042537
2018 0.31028584
2016 0.35088202
2014 0.35770473
2012 0.35248932
2010 0.3212536
2008 0.28466976
2006 0.2724725
2004 0.26767066
2002 0.27186498
2000 0.27780372
1998 0.28261149
1996 0.28368998
1994 0.27513206
1992 0.25938314
1990 0.2316567
1988 0.20846641
1986 0.19676614
1984 0.19631429
1982 0.20778289
1980 0.22082666
1978 0.23322161
1976 0.24953544
1974 0.2699641
1972 0.30458298
1970 0.34970081
1968 0.38447076
1966 0.41139978
1964 0.39104989
1962 0.34600207
1960 0.29466638
1958 0.24182744
1956 0.2260723
1954 0.22381505
1952 0.22934885
1950 0.23545329
1948 0.2299294
1946 0.2198875
1944 0.20452937
1942 0.19085589
1940 0.18444359
1938 0.18252872
1936 0.18548885
1934 0.18496402
1932 0.17611679
1930 0.15761876
1928 0.12916012
1926 0.10255477
1924 0.082992747
1922 0.087764323
1920 0.11591793
1918 0.15545291
1916 0.19850028
1914 0.22838041
1912 0.24779919
1910 0.25773692
1908 0.26335764
1906 0.25322434
1904 0.23455
1902 0.20948204
1900 0.18141295
1898 0.17909287
1896 0.18902001
1894 0.23068123
1892 0.28225675
1890 0.31504601
1888 0.32376668
1886 0.25756693
1884 0.15846232
1882 0.043553546
1880 -0.056492373
1878 -0.10737456
1876 -0.129164
1874 -0.12595083
1872 -0.10773908
1870 -0.077749111
1868 -0.042621586
1866 -0.0089609344
1864 0.00059751357
1862 -0.017800229
1860 -0.053677376
1858 -0.097558394
1856 -0.14887914
1854 -0.20318779
1852 -0.25810373
1850 -0.3117598
1848 -0.3426204
1846 -0.35877144
1844 -0.36270735
1842 -0.36014959
1840 -0.36519599
1838 -0.37272197
1836 -0.36043042
1834 -0.330818
1832 -0.24989103
1830 -0.14105703
1828 -0.017044445
1826 0.089433253
1824 0.12449091
1822 0.098598428
1820 0.0062178597
1818 -0.11144887
1816 -0.22458486
1814 -0.30851787
1812 -0.35116825
1810 -0.35330588
1808 -0.32369053
1806 -0.271173
1804 -0.20501214
1802 -0.15185747
1800 -0.11254164
1798 -0.095617235
1796 -0.093757361
1794 -0.047737088
1792 0.029698081
1790 0.1443564
1788 0.27766195
1786 0.36287686
1784 0.41585481
1782 0.43083689
1780 0.42514825
1778 0.42762569
1776 0.4411023
1774 0.48356086
1772 0.53049028
1770 0.5370549
1768 0.49764517
1766 0.38944286
1764 0.25866479
1762 0.15010844
1760 0.043052286
1758 -0.074870855
1756 -0.15292858
1754 -0.16829161
1752 -0.10215324
1750 0.038793512
1748 0.16585329
1746 0.25196251
1744 0.22187474
1742 0.087842852
1740 -0.023966145
1738 -0.097322002
1736 -0.017845593
1734 0.17695013
1732 0.32823342
1730 0.43202853
1728 0.33711943
1726 0.11515804
1724 -0.051966675
1722 -0.1378348
1720 0.0075376034
1718 0.33749726
1716 0.895841
1714 1.545329
1712 2.0474327
1710 2.4440103
1708 2.786876
1706 3.2704248
1704 4.0782142
1702 5.4578996
1700 7.5271349
1698 10.455305
1696 14.194285
1694 18.03228
1692 21.635468
1690 24.893055
1688 27.849915
1686 31.358192
1684 35.498585
1682 40.404259
1680 45.90424
1678 50.673161
1676 54.758427
1674 58.683163
1672 62.569775
1670 67.130753
1668 72.181404
1666 77.109848
1664 81.832535
1662 86.048012
1660 89.786942
1658 93.083549
1656 95.908081
1654 98.221931
1652 99.911858
1650 100.86698
1648 100.89902
1646 99.902855
1644 98.178688
1642 96.061485
1640 93.477776
1638 90.457779
1636 86.704239
1634 82.188866
1632 77.595955
1630 73.167145
1628 69.05159
1626 65.242302
1624 61.222717
1622 56.943031
1620 52.624565
1618 48.303726
1616 44.251457
1614 40.494812
1612 37.195141
1610 34.361401
1608 31.954222
1606 29.9552
1604 28.231279
1602 26.794701
1600 25.621143
1598 24.710321
1596 24.02
1594 23.53808
1592 23.217173
1590 23.036045
1588 22.953711
1586 22.957672
1584 23.030636
1582 23.18
1580 23.406097
1578 23.761059
1576 24.260284
1574 24.912838
1572 25.710358
1570 26.588099
1568 27.52808
1566 28.517237
1564 29.560478
1562 30.853065
1560 32.492516
1558 35.03241
1556 38.520271
1554 42.263603
1552 46.050953
1550 48.993393
1548 51.125797
1546 52.959965
1544 54.510807
1542 55.906548
1540 56.989021
1538 57.543262
1536 57.466515
1534 56.732994
1532 55.578682
1530 54.311588
1528 52.987892
1526 51.654701
1524 50.155289
1522 48.38768
1520 46.336399
1518 43.967499
1516 41.709656
1514 39.715477
1512 37.843719
1510 36.092567
1508 33.793827
1506 30.768559
1504 27.609303
1502 24.353081
1500 21.586914
1498 19.36483
1496 17.176428
1494 15.007421
1492 12.772135
1490 10.481386
1488 8.1977015
1486 5.9981499
1484 4.0202799
1482 2.3665774
1480 1.1381656
1478 0.36209184
1476 0.066493526
1474 0.34885192
1472 1.1504946
1470 2.1472099
1468 3.1429801
1466 3.9819694
1464 4.5516458
1462 5.0251217
1460 5.4613791
1458 5.9245067
1456 6.4394002
1454 6.8703465
1452 7.1517873
1450 7.2815204
1448 7.1917839
1446 7.051425
1444 6.8445044
1442 6.6336422
1440 6.4100103
1438 6.1379142
1436 5.7835417
1434 5.2960863
1432 4.6798058
1430 4.0441065
1428 3.43433
1426 2.9546628
1424 2.6132441
1422 2.394423
1420 2.2929738
1418 2.2887549
1416 2.3665199
1414 2.5150471
1412 2.7019792
1410 2.9180439
1408 3.1574507
1406 3.4278913
1404 3.7360489
1402 4.0985489
1400 4.5015001
1398 4.9620399
1396 5.4226003
1394 5.8687968
1392 6.2454953
1390 6.4923339
1388 6.6397815
1386 6.6221552
1384 6.4801955
1382 6.1611242
1380 5.7475114
1378 5.229219
1376 4.7025628
1374 4.1904535
1372 3.742486
1370 3.3667755
1368 3.0519845
1366 2.7539806
1364 2.3925881
1362 1.9615049
1360 1.4408731
1358 0.9189769
1356 0.49637157
1354 0.18469755
1352 0.054360915
1350 0.027542233
1348 0.12528527
1346 0.27978891
1344 0.50008678
1342 0.74366462
1340 1.0235128
1338 1.3014377
1336 1.5687943
1334 1.8117188
1332 2.0024371
1330 2.180521
1328 2.3433125
1326 2.5312378
1324 2.766747
1322 3.0523787
1320 3.4060924
1318 3.7962387
1316 4.2195702
1314 4.6337214
1312 5.0193038
1310 5.3416972
1308 5.5912895
1306 5.7534199
1304 5.8523769
1302 5.9057207
1300 5.9426489
1298 5.9858375
1296 6.0290713
1294 6.064836
1292 6.0874786
1290 6.0783286
1288 6.0645838
1286 6.050128
1284 6.047749
1282 6.0759716
1280 6.1137457
1278 6.17309
1276 6.2418499
1274 6.3306561
1272 6.4292316
1270 6.5457911
1268 6.6719217
1266 6.8138618
1264 6.9733934
1262 7.1543097
1260 7.3468099
1258 7.5481315
1256 7.7420716
1254 7.9264154
1252 8.096365
1250 8.2526083
1248 8.3926144
1246 8.5185003
1244 8.622488
1242 8.7112341
1240 8.7758017
1238 8.8201084
1236 8.8203812
1234 8.7870703
1232 8.6713915
1230 8.5164022
1228 8.2603226
1226 7.9619155
1224 7.5482473
1222 7.0944571
1220 6.5481706
1218 6.0035024
1216 5.4687171
1214 4.978364
1212 4.5654292
1210 4.1913762
1208 3.8709137
1206 3.5647538
1204 3.2738681
1202 2.9839234
1200 2.6968348
1198 2.4187257
1196 2.1554072
1194 1.9279535
1192 1.732415
1190 1.585624
1188 1.4700271
1186 1.3950986
1184 1.3442897
1182 1.3380762
1180 1.36666
1178 1.4959446
1176 1.67382
1174 1.9930513
1172 2.3242509
1170 2.6665704
1168 2.9579308
1166 3.0893729
1164 3.1581795
1162 3.0722311
1160 2.9518559
1158 2.7627339
1156 2.5568585
1154 2.3222737
1152 2.0715544
1150 1.7980473
1148 1.510586
1146 1.2085482
1144 0.90551889
1142 0.60585272
1140 0.32983232
1138 0.084268868
1136 -0.080581494
1134 -0.1789218
1132 -0.16364968
1130 -0.089103885
1128 0.068746164
1126 0.24489135
1124 0.39801294
1122 0.53626752
1120 0.61740637
1118 0.69249576
1116 0.76300842
1114 0.83109683
1112 0.88860023
1110 0.93561059
1108 0.94874996
1106 0.95170003
1104 0.92835629
1102 0.89157802
1100 0.82842201
1098 0.75917923
1096 0.68336427
1094 0.62700284
1092 0.5967198
1090 0.58579314
1088 0.59284329
1086 0.59606159
1084 0.59741592
1082 0.60568941
1080 0.61857158
1078 0.6343621
1076 0.6451214
1074 0.61050135
1072 0.55574709
1070 0.46309978
1068 0.36286107
1066 0.26869279
1064 0.1772884
1062 0.10068588
1060 0.030688174
1058 -0.0013187528
1056 -0.025601972
1054 -0.017671525
1052 -0.027123265
1050 -0.093701825
1048 -0.18853681
1046 -0.3495
1044 -0.49917626
1042 -0.6264134
1040 -0.73367441
1038 -0.81252778
1036 -0.89214003
1034 -0.97189516
1032 -1.0452863
1030 -1.1139562
1028 -1.1924237
1026 -1.2779129
1024 -1.3686577
1022 -1.459685
1020 -1.5251245
1018 -1.5829282
1016 -1.6652286
1014 -1.7557619
1012 -1.8645883
1010 -1.9703721
1008 -2.0063081
1006 -2.0335286
1004 -2.0276067
1002 -2.023998
1000 -2.0382841
998 -2.0488555
996 -2.0424786
994 -2.0312588
992 -2.004729
990 -1.9738539
988 -1.9313235
986 -1.861585
984 -1.7438023
982 -1.608882
980 -1.453308
978 -1.3378365
976 -1.2647971
974 -1.2151617
972 -1.182394
970 -1.1205926
968 -1.0419641
966 -0.9795115
964 -0.92760503
962 -0.94297373
960 -0.97871166
958 -0.98479247
956 -0.97788727
954 -0.81999576
952 -0.64169282
950 -0.40963882
948 -0.18263286
946 -0.060194571
944 0.00092135929
942 0.025005333
940 -0.030628182
938 -0.051455639
936 -0.068160824
934 -0.073403537
932 -0.10538883
930 -0.19466388
928 -0.30028349
926 -0.43099892
924 -0.51793599
922 -0.55038458
920 -0.51293659
918 -0.41128045
916 -0.33981287
914 -0.29148638
912 -0.38214269
910 -0.54569042
908 -0.70147765
906 -0.85215259
904 -0.77108628
902 -0.6280148
900 -0.28187579
898 0.096939087
896 0.39477
