##TITLE=Methyl Ethyl Ketone
##JCAMP-DX=4.24
##DATA TYPE=INFRARED SPECTRUM
##XUNITS=cm-1
##YUNITS=Absorbance
##FIRSTX=900
##LASTX=2300
##XYDATA=(X++(Y..Y))
2296 0.048856001
2294 0.049893517
2292 0.050932027
2290 0.051969547
2288 0.053008057
2286 0.05404558
2284 0.055084087
2282 0.05612161
2280 0.057160113
2278 0.05819764
2276 0.059235159
2274 0.060273658
2272 0.061311189
2270 0.062349685
2268 0.063387223
2266 0.064425714
2264 0.065463252
2262 0.066501744
2260 0.067539282
2258 0.068577766
2256 0.069615319
2254 0.070653796
2252 0.071691342
2250 0.072729833
2248 0.073767379
2246 0.074805856
2244 0.02201777
2242 0.00077065715
2240 -0.032152317
2238 -0.056577273
2236 -0.079636186
2234 -0.12516603
2232 -0.17215776
2230 -0.21551153
2228 -0.25977439
2226 -0.31259349
2224 -0.37188023
2222 -0.45863006
2220 -0.5360254
2218 -0.58039826
2216 -0.59181201
2214 -0.53530943
2212 -0.47909179
2210 -0.42990896
2208 -0.41994703
2206 -0.45834023
2204 -0.50157666
2202 -0.54654849
2200 -0.57831454
2198 -0.6001367
2196 -0.63602358
2194 -0.68038213
2192 -0.71676356
2190 -0.7493946
2188 -0.76137388
2186 -0.76672184
2184 -0.79416722
2182 -0.82678694
2180 -0.87179613
2178 -0.91850293
2176 -0.95478827
2174 -0.99034506
2172 -1.0284945
2170 -1.061839
2168 -1.0657085
2166 -1.0564564
2164 -1.0093086
2162 -0.96198052
2160 -0.92369509
2158 -0.90000319
2156 -0.90229201
2154 -0.91957527
2152 -0.95469123
2150 -0.9995237
2148 -1.0532174
2146 -1.0939107
2144 -1.1222577
2142 -1.11719
2140 -1.0897206
2138 -1.0425751
2136 -0.98584116
2134 -0.94655681
2132 -0.915088
2130 -0.92282403
2128 -0.94285637
2126 -0.96451527
2124 -0.98628175
2122 -0.97355616
2120 -0.9555192
2118 -0.94083667
2116 -0.9302634
2114 -0.94694424
2112 -0.97090131
2110 -1.0098289
2108 -1.0501018
2106 -1.0879971
2104 -1.1210566
2102 -1.1441069
2100 -1.160946
2098 -1.1698968
2096 -1.1556572
2094 -1.1126248
2092 -1.0414723
2090 -0.94558102
2088 -0.87101495
2086 -0.81718451
2084 -0.80448097
2082 -0.81710041
2080 -0.84163851
2078 -0.87061018
2076 -0.91995728
2074 -0.97750676
2072 -1.0436648
2070 -1.1123614
2068 -1.1225792
2066 -1.1173022
2064 -1.0626554
2062 -1.0010625
2060 -0.96914804
2058 -0.95401812
2056 -0.99919766
2054 -1.0609446
2052 -1.1385177
2050 -1.2053542
2048 -1.2357726
2046 -1.2492642
2044 -1.243264
2042 -1.2338873
2040 -1.2259079
2038 -1.2169138
2036 -1.2073014
2034 -1.2078573
2032 -1.2181371
2030 -1.232064
2028 -1.2467669
2026 -1.2244172
2024 -1.1778725
2022 -1.0935427
2020 -0.9913007
2018 -0.92770147
2016 -0.88174796
2014 -0.91078824
2012 -0.96513146
2010 -1.0299782
2008 -1.0955669
2006 -1.1296142
2004 -1.1532029
2002 -1.157289
2000 -1.1573366
1998 -1.1581872
1996 -1.16005
1994 -1.1624607
1992 -1.1584594
1990 -1.1421965
1988 -1.1176419
1986 -1.0872971
1984 -1.0626589
1982 -1.0479035
1980 -1.0502102
1978 -1.0677754
1976 -1.0883143
1974 -1.107553
1972 -1.0912255
1970 -1.0471798
1968 -0.97807997
1966 -0.89637995
1964 -0.85510743
1962 -0.83714324
1960 -0.84932679
1958 -0.87372458
1956 -0.89419729
1954 -0.91376579
1952 -0.95079535
1950 -0.99268919
1948 -1.015098
1946 -1.0217999
1944 -0.97958976
1942 -0.92457747
1940 -0.88908511
1938 -0.87284768
1936 -0.89371771
1934 -0.91840523
1932 -0.92472941
1930 -0.91676402
1928 -0.89063525
1926 -0.85954285
1924 -0.82624477
1922 -0.78336066
1920 -0.73277169
1918 -0.68481153
1916 -0.64457703
1914 -0.61509979
1912 -0.59223461
1910 -0.57125938
1908 -0.549591
1906 -0.55078083
1904 -0.56519198
1902 -0.5827924
1900 -0.60222697
1898 -0.55703282
1896 -0.48411143
1894 -0.37393424
1892 -0.260362
1890 -0.2269046
1888 -0.24704829
1886 -0.37139806
1884 -0.53040946
1882 -0.67798513
1880 -0.79099655
1878 -0.83031136
1876 -0.815768
1874 -0.74283284
1872 -0.6272319
1870 -0.47283876
1868 -0.33998957
1866 -0.25650856
1864 -0.26135942
1862 -0.35107011
1860 -0.46281421
1858 -0.5719288
1856 -0.67508715
1854 -0.77105021
1852 -0.88260919
1850 -1.0026631
1848 -1.08928
1846 -1.152375
1844 -1.1417058
1842 -1.0909439
1840 -1.0161936
1838 -0.93195254
1836 -0.83917385
1834 -0.73738581
1832 -0.58984435
1830 -0.41798401
1828 -0.23815462
1826 -0.087245867
1824 -0.038108449
1822 -0.07353428
1820 -0.19848779
1818 -0.35496661
1816 -0.49794403
1814 -0.60769218
1812 -0.67313492
1810 -0.68763328
1808 -0.65992486
1806 -0.56469452
1804 -0.41262019
1802 -0.27417848
1800 -0.15891948
1798 -0.13211934
1796 -0.17123215
1794 -0.1668296
1792 -0.1273784
1790 -0.034137413
1788 0.085133657
1786 0.13912036
1784 0.15103658
1782 0.14776385
1780 0.14064555
1778 0.17684799
1776 0.25050485
1774 0.38691765
1772 0.54093003
1770 0.63184941
1768 0.63968247
1766 0.50968289
1764 0.32186562
1762 0.15459819
1760 0.036173109
1758 -0.10647547
1756 -0.22992343
1754 -0.28059018
1752 -0.22898777
1750 -0.079051889
1748 0.07265681
1746 0.19074108
1744 0.16933583
1742 0.015765481
1740 -0.13998334
1738 -0.27169365
1736 -0.231508
1734 -0.056782946
1732 0.096677229
1730 0.21558702
1728 0.13196197
1726 -0.082006693
1724 -0.21395677
1722 -0.23959799
1720 0.038035095
1718 0.5644353
1716 1.3313973
1714 2.1634102
1712 2.7572799
1710 3.2004213
1708 3.6064939
1706 4.1963491
1704 5.1847539
1702 6.8079
1700 9.1662169
1698 12.415134
1696 16.479856
1694 20.57028
1692 24.333384
1690 27.65386
1688 30.60347
1686 33.996109
1684 37.928505
1682 42.465088
1680 47.458679
1678 51.821888
1676 55.60173
1674 59.374825
1672 63.21463
1670 67.549065
1668 72.204147
1666 76.510002
1664 80.447899
1662 83.888802
1660 86.869568
1658 89.445732
1656 91.614342
1654 93.384674
1652 94.751099
1650 95.729546
1648 96.108337
1646 95.714645
1644 94.67939
1642 93.197128
1640 91.259018
1638 88.938972
1636 85.862473
1634 81.96627
1632 77.726776
1630 73.352852
1628 69.107674
1626 65.041389
1624 60.7696
1622 56.263908
1620 51.826153
1618 47.489597
1616 43.496716
1614 39.863918
1612 36.684978
1610 33.958889
1608 31.617514
1606 29.63875
1604 27.885914
1602 26.392488
1600 25.182577
1598 24.270851
1596 23.637501
1594 23.259916
1592 23.06876
1590 23.041838
1588 23.133167
1586 23.346972
1584 23.676268
1582 24.14436
1580 24.757877
1578 25.594425
1576 26.674086
1574 27.985132
1572 29.504776
1570 31.075508
1568 32.656921
1566 34.176235
1564 35.62838
1562 37.165218
1560 38.849255
1558 41.09935
1556 43.924973
1554 46.72308
1552 49.333656
1550 51.262241
1548 52.545376
1546 53.639252
1544 54.533005
1542 55.267467
1540 55.704762
1538 55.634407
1536 55.049255
1534 54.032066
1532 52.762421
1530 51.492588
1528 50.233555
1526 48.993198
1524 47.665535
1522 46.174191
1520 44.470119
1518 42.496216
1516 40.457115
1514 38.416981
1512 36.334759
1510 34.217667
1508 31.605101
1506 28.356058
1504 25.098715
1502 21.894621
1500 19.233532
1498 17.17635
1496 15.158571
1494 13.182121
1492 11.193571
1490 9.2166672
1488 7.3003502
1486 5.4777336
1484 3.7821939
1482 2.3017571
1480 1.1561508
1478 0.39092213
1476 0.060944457
1474 0.23445988
1472 0.83262205
1470 1.595704
1468 2.3616433
1466 3.0316665
1464 3.5499938
1462 4.0521698
1460 4.6022644
1458 5.2444372
1456 6.0135798
1454 6.6981354
1452 7.2092977
1450 7.5033851
1448 7.4785862
1446 7.3752036
1444 7.167325
1442 6.941534
1440 6.6944714
1438 6.426403
1436 6.1284585
1434 5.7686758
1432 5.3445678
1430 4.8860784
1428 4.4151602
1426 4.0112472
1424 3.7047594
1422 3.5351791
1420 3.5061955
1418 3.6013386
1416 3.7753859
1414 3.980149
1412 4.1885476
1410 4.3982797
1408 4.6286283
1406 4.9054728
1404 5.2347765
1402 5.6347375
1400 6.0521359
1398 6.4773235
1396 6.8210287
1394 7.0049949
1392 7.0763521
1390 6.9441891
1388 6.7314477
1386 6.3884501
1384 5.9769735
1382 5.4775906
1380 4.966671
1378 4.4537935
1376 3.9696429
1374 3.5261369
1372 3.1018579
1370 2.7028263
1368 2.3348246
1366 1.9852099
1364 1.6434474
1362 1.3011371
1360 0.93896544
1358 0.59479666
1356 0.31560659
1354 0.1092094
1352 0.029854674
1350 0.024899308
1348 0.10785959
1346 0.23191929
1344 0.41777521
1342 0.62912762
1340 0.88307792
1338 1.1126661
1336 1.2809
1334 1.3918854
1332 1.3849726
1330 1.369882
1328 1.3481388
1326 1.3678007
1324 1.4617857
1322 1.6121341
1320 1.8414172
1318 2.1080344
1316 2.4007699
1314 2.6519554
1312 2.8365629
1310 2.9253552
1308 2.925292
1306 2.8637614
1304 2.7602794
1302 2.633724
1300 2.4992564
1298 2.3649824
1296 2.2494001
1294 2.179883
1292 2.1506608
1290 2.1989138
1288 2.27808
1286 2.40804
1284 2.5413334
1282 2.6714466
1280 2.788739
1278 2.8761835
1276 2.9539456
1274 3.017493
1272 3.0881867
1270 3.1757998
1268 3.2812519
1266 3.4126985
1264 3.5623074
1262 3.7358022
1260 3.9340379
1258 4.1644597
1256 4.4315858
1254 4.7321105
1252 5.0526786
1250 5.3761711
1248 5.666719
1246 5.9283748
1244 6.1435413
1242 6.3390393
1240 6.5253868
1238 6.6973228
1236 6.8307729
1234 6.9167914
1232 6.8728719
1230 6.7620034
1228 6.476326
1226 6.1317964
1224 5.6307287
1222 5.0929503
1220 4.4712625
1218 3.8619132
1216 3.2846973
1214 2.7635152
1212 2.341681
1210 1.9763534
1208 1.6911657
1206 1.4369314
1204 1.217716
1202 1.0082977
1200 0.80782676
1198 0.60791069
1196 0.41052714
1194 0.22115716
1192 0.044541277
1190 -0.097536579
1188 -0.21317662
1186 -0.28245127
1184 -0.32857713
1182 -0.34197289
1180 -0.33667904
1178 -0.28443831
1176 -0.20977581
1174 -0.069537371
1172 0.07994318
1170 0.24917196
1168 0.41212559
1166 0.55428088
1164 0.68812007
1162 0.7988019
1160 0.88455707
1158 0.91718417
1156 0.91363382
1154 0.85178596
1152 0.77753758
1150 0.6869905
1148 0.5913918
1146 0.48816752
1144 0.37158507
1142 0.24572697
1140 0.1308506
1138 0.029120605
1136 -0.042573914
1134 -0.089793988
1132 -0.052003767
1130 0.028008111
1128 0.15961286
1126 0.29968888
1124 0.4110294
1122 0.51358598
1120 0.59629959
1118 0.68637913
1116 0.82511342
1114 0.9673177
1112 1.1188778
1110 1.2475893
1108 1.3037351
1106 1.347365
1104 1.3635217
1102 1.4058813
1100 1.499084
1098 1.6004053
1096 1.7112143
1094 1.8016201
1092 1.871066
1090 1.9668949
1088 2.0945184
1086 2.2692087
1084 2.4779215
1082 2.6740632
1080 2.856792
1078 2.9943011
1076 3.1075127
1074 3.1900177
1072 3.2555628
1070 3.2719588
1068 3.2665009
1066 3.1830344
1064 3.0848281
1062 2.9517522
1060 2.8200214
1058 2.7081683
1056 2.6048114
1054 2.5397139
1052 2.4904113
1050 2.4911242
1048 2.4886143
1046 2.475168
1044 2.4249046
1042 2.3060184
1040 2.1783178
1038 2.0405285
1036 1.93115
1034 1.8530017
1032 1.7672241
1030 1.6731087
1028 1.5602578
1026 1.4381614
1024 1.3502725
1022 1.281351
1020 1.2258093
1018 1.1678009
1016 1.0305877
1014 0.8654657
1012 0.62831718
1010 0.38154307
1008 0.16301639
1006 -0.048471287
1004 -0.20547055
1002 -0.3534573
1000 -0.44230416
998 -0.51095837
996 -0.49113786
994 -0.46799299
992 -0.43689045
990 -0.43743667
988 -0.51135468
986 -0.60524631
984 -0.73192614
982 -0.83808136
980 -0.91371679
978 -0.94085568
976 -0.9159649
974 -0.85109246
972 -0.75388676
970 -0.64507276
968 -0.52854645
966 -0.40461349
964 -0.27919105
962 -0.19205032
960 -0.12113674
958 -0.12685758
956 -0.14850856
954 -0.1563281
952 -0.16048041
950 -0.11497751
948 -0.067552321
946 -0.021427393
944 0.0014622174
942 0.045892052
940 0.14657639
938 0.31180197
936 0.48133773
934 0.66424429
932 0.86791152
930 1.1165291
928 1.3985732
926 1.7332429
924 2.0421662
922 2.3181908
920 2.4935074
918 2.573452
916 2.5246027
914 2.3838055
912 2.1506839
910 1.8703079
908 1.6516354
906 1.4592707
904 1.4834681
902 1.5658939
900 1.7975323
898 2.053477
896 2.3169999
