Image.
>Pix99999.
  .
5555
5555
2300
900
5555
2
1
0
701
5555
5.5966002e-004
5.7152298e-004
5.8341597e-004
5.9532892e-004
6.0723192e-004
6.1911502e-004
6.3099799e-004
6.4289093e-004
6.5480371e-004
6.6673633e-004
6.7859044e-004
6.9034501e-004
7.0235378e-004
7.1471988e-004
7.2613184e-004
7.3623378e-004
7.4988574e-004
7.6846540e-004
7.7389862e-004
7.6090620e-004
7.9676457e-004
9.0129994e-004
8.2423451e-004
4.9106055e-004
8.3292410e-004
1.9539450e-003
-4.9463083e-004
-6.9143996e-003
3.2176601e-003
5.0259594e-002
1.3006675e-001
2.2651233e-001
3.0340296e-001
3.2599431e-001
2.8825492e-001
1.9867100e-001
9.0378299e-002
-1.5843008e-004
-5.1707983e-002
-5.3102270e-002
-1.5310771e-002
4.3077551e-002
9.9087678e-002
1.3267139e-001
1.4064771e-001
1.2946586e-001
1.2376500e-001
1.4857915e-001
2.0808269e-001
2.9288658e-001
3.6493427e-001
3.8417673e-001
3.3833775e-001
2.3216839e-001
1.0370152e-001
-3.8369643e-003
-6.8386920e-002
-8.2525179e-002
-7.0045508e-002
-6.4077705e-002
-9.5297053e-002
-1.8497273e-001
-3.2013908e-001
-4.7347450e-001
-6.0493463e-001
-6.7811006e-001
-6.8755090e-001
-6.4296412e-001
-5.7335782e-001
-5.1044637e-001
-4.7131801e-001
-4.6339977e-001
-4.7563252e-001
-4.9351740e-001
-5.1396853e-001
-5.4052609e-001
-5.8705866e-001
-6.6591072e-001
-7.6879764e-001
-8.7910384e-001
-9.7631431e-001
-1.0413229e+000
-1.0657923e+000
-1.0477389e+000
-9.9591362e-001
-9.2611223e-001
-8.6834896e-001
-8.5126919e-001
-8.7713271e-001
-9.3413842e-001
-9.9296182e-001
-1.0241640e+000
-1.0229229e+000
-9.9571747e-001
-9.5704877e-001
-9.2121392e-001
-8.9057881e-001
-8.6335790e-001
-8.3968800e-001
-8.2011861e-001
-8.0320144e-001
-7.8756642e-001
-7.7552283e-001
-7.7265596e-001
-7.9208392e-001
-8.4486949e-001
-9.2134696e-001
-1.0033802e+000
-1.0718172e+000
-1.1128165e+000
-1.1336714e+000
-1.1474385e+000
-1.1556320e+000
-1.1542004e+000
-1.1374594e+000
-1.1038800e+000
-1.0704521e+000
-1.0579207e+000
-1.0703849e+000
-1.1006730e+000
-1.1251085e+000
-1.1183298e+000
-1.0766308e+000
-1.0084321e+000
-9.3483615e-001
-8.7745678e-001
-8.3940881e-001
-8.1502229e-001
-7.9609531e-001
-7.7625811e-001
-7.5965613e-001
-7.5263131e-001
-7.5129241e-001
-7.4831641e-001
-7.4183446e-001
-7.3327643e-001
-7.2658068e-001
-7.2340953e-001
-7.1152943e-001
-6.7700946e-001
-6.2532598e-001
-5.7244498e-001
-5.4008406e-001
-5.4525828e-001
-5.7635009e-001
-6.1044097e-001
-6.3310027e-001
-6.3700879e-001
-6.2497163e-001
-6.0288429e-001
-5.7085359e-001
-5.2703291e-001
-4.7401330e-001
-4.1847065e-001
-3.7482819e-001
-3.5962242e-001
-3.8327146e-001
-4.4839948e-001
-5.3791839e-001
-6.2545884e-001
-6.8495631e-001
-6.9763392e-001
-6.7265546e-001
-6.3300109e-001
-6.0220516e-001
-5.9809870e-001
-6.1698359e-001
-6.4516068e-001
-6.7190403e-001
-6.9066679e-001
-7.0303398e-001
-7.1347362e-001
-7.2178799e-001
-7.2532874e-001
-7.2245848e-001
-7.1200746e-001
-6.9169784e-001
-6.5980732e-001
-6.1970961e-001
-5.7819939e-001
-5.4524004e-001
-5.3008568e-001
-5.3282058e-001
-5.4842007e-001
-5.7117784e-001
-5.9468740e-001
-6.0928428e-001
-6.0572231e-001
-5.8423430e-001
-5.5176026e-001
-5.2148825e-001
-5.0490701e-001
-4.9328330e-001
-4.6856353e-001
-4.2159763e-001
-3.5232264e-001
-2.7456680e-001
-2.0671262e-001
-1.5549023e-001
-1.2015139e-001
-9.8555714e-002
-8.8698372e-002
-8.9850836e-002
-1.0191866e-001
-1.2434480e-001
-1.5657072e-001
-1.9953163e-001
-2.5343105e-001
-3.1135875e-001
-3.6355400e-001
-4.0637600e-001
-4.4130412e-001
-4.7480527e-001
-5.1354951e-001
-5.5390638e-001
-5.8684409e-001
-6.0770589e-001
-6.1655247e-001
-6.2006670e-001
-6.2601858e-001
-6.3073999e-001
-6.2377912e-001
-5.9699309e-001
-5.4876733e-001
-4.9680841e-001
-4.6720144e-001
-4.7116289e-001
-5.0552088e-001
-5.4956132e-001
-5.7731241e-001
-5.8326972e-001
-5.7617259e-001
-5.6600064e-001
-5.5870718e-001
-5.4553938e-001
-5.1123279e-001
-4.5315051e-001
-3.7938195e-001
-3.0502760e-001
-2.4727631e-001
-2.1689200e-001
-2.1771087e-001
-2.4302119e-001
-2.7782467e-001
-2.9869831e-001
-2.8387451e-001
-2.4093820e-001
-1.9833322e-001
-1.8774194e-001
-2.3130435e-001
-3.0885786e-001
-3.7312421e-001
-3.8335642e-001
-3.1623232e-001
-1.9161063e-001
-5.5164922e-002
6.0174808e-002
1.3828477e-001
1.8335846e-001
2.1127109e-001
2.3376113e-001
2.5585172e-001
2.7243438e-001
2.7215344e-001
2.4507737e-001
1.8852171e-001
1.2456540e-001
8.0321260e-002
2.5853196e-002
-9.5164798e-002
-2.6086214e-001
-3.9930815e-001
-4.9599054e-001
-5.8580089e-001
-6.9907480e-001
-8.5002929e-001
-1.0258465e+000
-1.1933397e+000
-1.3107791e+000
-1.3380191e+000
-1.2594800e+000
-1.0864372e+000
-8.6780834e-001
-6.7109752e-001
-5.3059012e-001
-4.4362143e-001
-3.7018460e-001
-2.4716060e-001
-1.7317899e-002
3.6196142e-001
9.0299356e-001
1.5821297e+000
2.3123434e+000
2.9853280e+000
3.6104379e+000
4.3052287e+000
5.2281656e+000
6.5678630e+000
8.5750046e+000
1.1456939e+001
1.4993571e+001
1.8639301e+001
2.1967747e+001
2.4789766e+001
2.7320326e+001
3.0054665e+001
3.3375423e+001
3.7410706e+001
4.1748478e+001
4.5665855e+001
4.8979916e+001
5.2040371e+001
5.5261158e+001
5.8943810e+001
6.3008213e+001
6.7086494e+001
7.0937721e+001
7.4494324e+001
7.7755905e+001
8.0758888e+001
8.3572861e+001
8.6277237e+001
8.8895119e+001
9.1360649e+001
9.3427620e+001
9.4757393e+001
9.5280632e+001
9.5179626e+001
9.4577446e+001
9.3484100e+001
9.1839912e+001
8.9571495e+001
8.6755409e+001
8.3588531e+001
8.0165337e+001
7.6458282e+001
7.2428558e+001
6.8074722e+001
6.3515350e+001
5.8971989e+001
5.4638485e+001
5.0650681e+001
4.7089760e+001
4.3983650e+001
4.1297554e+001
3.8946709e+001
3.6863270e+001
3.5010006e+001
3.3364578e+001
3.1915064e+001
3.0647999e+001
2.9547459e+001
2.8604971e+001
2.7819035e+001
2.7194098e+001
2.6737642e+001
2.6442869e+001
2.6292311e+001
2.6285688e+001
2.6442326e+001
2.6788544e+001
2.7343050e+001
2.8072287e+001
2.8891844e+001
2.9726440e+001
3.0530764e+001
3.1308264e+001
3.2133579e+001
3.3225853e+001
3.4887211e+001
3.7131084e+001
3.9632099e+001
4.1983707e+001
4.3823708e+001
4.5094688e+001
4.6050785e+001
4.6908726e+001
4.7760597e+001
4.8623062e+001
4.9435596e+001
5.0027031e+001
5.0158150e+001
4.9771343e+001
4.9024406e+001
4.8058128e+001
4.6939049e+001
4.5700409e+001
4.4360130e+001
4.2952183e+001
4.1528114e+001
4.0110584e+001
3.8668011e+001
3.7084877e+001
3.5179703e+001
3.2860847e+001
3.0187571e+001
2.7374210e+001
2.4744724e+001
2.2439722e+001
2.0348249e+001
1.8315001e+001
1.6210974e+001
1.3995906e+001
1.1729599e+001
9.4862738e+000
7.3362465e+000
5.3672323e+000
3.6781197e+000
2.3069296e+000
1.2287085e+000
4.9245614e-001
2.3082122e-001
4.5075092e-001
9.7998548e-001
1.6336730e+000
2.2738023e+000
2.8438497e+000
3.3764820e+000
3.9031253e+000
4.4243155e+000
4.9122801e+000
5.3143859e+000
5.5945802e+000
5.7467370e+000
5.7753062e+000
5.6902714e+000
5.5040436e+000
5.2304811e+000
4.8830400e+000
4.4715567e+000
3.9920027e+000
3.4287734e+000
2.7970498e+000
2.1568999e+000
1.5708880e+000
1.0885726e+000
7.4006337e-001
5.3271425e-001
4.6990138e-001
5.5368984e-001
7.7021629e-001
1.0847219e+000
1.4644778e+000
1.8878051e+000
2.3445139e+000
2.8352785e+000
3.3511019e+000
3.8669744e+000
4.3604321e+000
4.8186822e+000
5.2361712e+000
5.6125154e+000
5.9360271e+000
6.1775265e+000
6.3095498e+000
6.3152146e+000
6.1939707e+000
5.9659228e+000
5.6538925e+000
5.2786627e+000
4.8632288e+000
4.4345512e+000
4.0198698e+000
3.6407630e+000
3.2907999e+000
2.9240780e+000
2.4961402e+000
1.9859700e+000
1.4195468e+000
8.8448822e-001
4.5898572e-001
1.7978747e-001
4.3407414e-002
-2.5750324e-004
2.5826488e-003
3.0480428e-002
7.9000399e-002
1.5959820e-001
2.7246678e-001
3.9382094e-001
4.9445745e-001
5.4832643e-001
5.4907811e-001
5.2093029e-001
4.9153978e-001
4.8225170e-001
5.0943393e-001
5.8323920e-001
7.1090668e-001
8.9515352e-001
1.1257499e+000
1.3725946e+000
1.6025497e+000
1.7867887e+000
1.9088191e+000
1.9722607e+000
1.9872988e+000
1.9680049e+000
1.9326135e+000
1.9038246e+000
1.9014143e+000
1.9369060e+000
2.0100513e+000
2.1038208e+000
2.2004440e+000
2.2889349e+000
2.3663700e+000
2.4412539e+000
2.5237441e+000
2.6213872e+000
2.7383213e+000
2.8733599e+000
3.0273795e+000
3.2072842e+000
3.4259341e+000
3.7030523e+000
4.0535092e+000
4.4792948e+000
4.9754763e+000
5.5302033e+000
6.1333771e+000
6.7800975e+000
7.4641023e+000
8.1730843e+000
8.8923264e+000
9.6048250e+000
1.0294548e+001
1.0948723e+001
1.1555828e+001
1.2102433e+001
1.2572872e+001
1.2948980e+001
1.3210160e+001
1.3332670e+001
1.3305749e+001
1.3140949e+001
1.2860063e+001
1.2489337e+001
1.2043666e+001
1.1516920e+001
1.0903256e+001
1.0213209e+001
9.4735336e+000
8.7361422e+000
8.0429535e+000
7.4041862e+000
6.8106961e+000
6.2304587e+000
5.6347051e+000
5.0141468e+000
4.3700428e+000
3.7173622e+000
3.0765543e+000
2.4730101e+000
1.9308269e+000
1.4678965e+000
1.0931692e+000
7.9969537e-001
5.7707334e-001
4.1627234e-001
3.1229201e-001
2.6766166e-001
2.8249067e-001
3.4702003e-001
4.4399747e-001
5.4561055e-001
6.2815458e-001
6.8330216e-001
7.1087539e-001
7.2009760e-001
7.1599227e-001
6.8920255e-001
6.2925279e-001
5.3166908e-001
4.0014839e-001
2.5428677e-001
1.1976346e-001
2.6389198e-002
-5.9319641e-003
1.7853841e-002
9.2590548e-002
2.2627370e-001
4.2733529e-001
6.9784510e-001
1.0385433e+000
1.4495558e+000
1.9207331e+000
2.4173839e+000
2.8983922e+000
3.3232563e+000
3.6668341e+000
3.9423864e+000
4.1751504e+000
4.3962393e+000
4.6318598e+000
4.8905749e+000
5.1731405e+000
5.4706106e+000
5.7719064e+000
6.0668926e+000
6.3504715e+000
6.6303186e+000
6.9221621e+000
7.2534256e+000
7.6449718e+000
8.0923176e+000
8.5739985e+000
9.0405817e+000
9.4452972e+000
9.7668734e+000
9.9989071e+000
1.0158494e+001
1.0268183e+001
1.0346954e+001
1.0408897e+001
1.0454279e+001
1.0475840e+001
1.0450158e+001
1.0360834e+001
1.0218866e+001
1.0043297e+001
9.8533297e+000
9.6575527e+000
9.4305086e+000
9.1474066e+000
8.8076820e+000
8.4253235e+000
8.0376110e+000
7.6820350e+000
7.3786616e+000
7.1308599e+000
6.9052424e+000
6.6600585e+000
6.3555617e+000
5.9702578e+000
5.5344186e+000
5.0896721e+000
4.6736531e+000
4.3090148e+000
3.9772959e+000
3.6519485e+000
3.3138824e+000
2.9540002e+000
2.5874276e+000
2.2344961e+000
1.9120014e+000
1.6319087e+000
1.3939255e+000
1.1892623e+000
9.9248457e-001
7.7541643e-001
5.1502061e-001
2.0251772e-001
-1.2937278e-001
-4.3897152e-001
-6.8895441e-001
-8.5152537e-001
-9.2608744e-001
-9.1775143e-001
-8.2845354e-001
-6.6121572e-001
-4.2551154e-001
-1.3717730e-001
1.7197824e-001
4.6698293e-001
7.1569151e-001
8.9300030e-001
9.9543476e-001
1.0304394e+000
1.0239459e+000
9.9929708e-001
9.5355988e-001
8.7289840e-001
7.2774988e-001
5.0573987e-001
2.6869059e-001
8.7663673e-002
7.9149567e-004
2.7944691e-002
1.5226060e-001
3.3420998e-001
4.8581919e-001
5.3246641e-001
4.9288005e-001
4.1363052e-001
3.5802522e-001
3.7677062e-001
4.5781642e-001
5.7215101e-001
6.8591058e-001
7.6993799e-001
8.1751364e-001
8.2494801e-001
7.7873838e-001
6.7247480e-001
5.3678972e-001
4.0975815e-001
3.2232562e-001
2.9582074e-001
3.2059386e-001
3.7922001e-001
