##TITLE=Methyl Ethyl Ketone
##JCAMP-DX=4.24
##DATA TYPE=INFRARED SPECTRUM
##XUNITS=cm-1
##YUNITS=Absorbance
##FIRSTX=900
##LASTX=2300
##XYDATA=(X++(Y..Y))
2296 -0.0081508001
2294 -0.0083203577
2292 -0.0084900148
2290 -0.0086595723
2288 -0.0088291299
2286 -0.0089986874
2284 -0.009168244
2282 -0.0093378024
2280 -0.009507359
2278 -0.0096769165
2276 -0.009846474
2274 -0.010016327
2272 -0.010186085
2270 -0.010354862
2268 -0.0105246
2266 -0.010694358
2264 -0.010864114
2262 -0.011033871
2260 -0.011202655
2258 -0.011372386
2256 -0.011542143
2254 -0.0117119
2252 -0.011881657
2250 -0.012050447
2248 -0.012220172
2246 -0.012389929
2244 -0.00046042286
2242 0.012378393
2240 -0.00104788
2238 -0.014409591
2236 -0.027580015
2234 -0.022975542
2232 -0.016307931
2230 0.0079292916
2228 0.034152709
2226 0.069638595
2224 0.10310326
2222 0.12529723
2220 0.13639838
2218 0.11559137
2216 0.080296628
2214 0.017284032
2212 -0.046466842
2210 -0.10876325
2208 -0.15903479
2206 -0.19441342
2204 -0.22210798
2202 -0.24331276
2200 -0.26163405
2198 -0.27811339
2196 -0.30239999
2194 -0.33124331
2192 -0.37092623
2190 -0.41522786
2188 -0.43944812
2186 -0.457057
2184 -0.44487679
2182 -0.425944
2180 -0.42376468
2178 -0.42450666
2176 -0.45538229
2174 -0.48784658
2172 -0.5067476
2170 -0.52273351
2168 -0.52928436
2166 -0.53742903
2164 -0.55463964
2162 -0.56897384
2160 -0.57362348
2158 -0.57347518
2156 -0.56611198
2154 -0.5683102
2152 -0.58542657
2150 -0.61217916
2148 -0.6480155
2146 -0.67539215
2144 -0.69442505
2142 -0.702452
2140 -0.70341325
2138 -0.70713937
2136 -0.71277374
2134 -0.72912723
2132 -0.74997604
2130 -0.77427655
2128 -0.79954439
2126 -0.80765933
2124 -0.81172824
2122 -0.80712086
2120 -0.8022384
2118 -0.81757838
2116 -0.83662271
2114 -0.86197102
2112 -0.88305676
2110 -0.88143766
2108 -0.87018365
2106 -0.83982843
2104 -0.81462008
2102 -0.80689365
2100 -0.81865859
2098 -0.85875046
2096 -0.90153432
2094 -0.94230211
2092 -0.97655499
2090 -1.0043418
2088 -1.0413353
2086 -1.08671
2084 -1.1328191
2082 -1.1786839
2080 -1.2104795
2078 -1.2349252
2076 -1.2681843
2074 -1.3054219
2072 -1.363144
2070 -1.4272556
2068 -1.4819012
2066 -1.5332886
2064 -1.551044
2062 -1.5590631
2060 -1.5359391
2058 -1.507677
2056 -1.4851686
2054 -1.4730631
2052 -1.493264
2050 -1.5254312
2048 -1.571044
2046 -1.6216571
2044 -1.6763921
2042 -1.7313396
2040 -1.7860794
2038 -1.8301969
2036 -1.8624915
2034 -1.8721644
2032 -1.8619024
2030 -1.8269
2028 -1.7747477
2026 -1.7284436
2024 -1.6873491
2022 -1.6713767
2020 -1.6678746
2018 -1.6740717
2016 -1.6839399
2014 -1.6946245
2012 -1.7058874
2010 -1.7094731
2008 -1.7111503
2006 -1.7123722
2004 -1.7165571
2002 -1.740826
2000 -1.7734172
1998 -1.8182042
1996 -1.8598286
1994 -1.8814192
1992 -1.8787371
1990 -1.8344903
1988 -1.7691699
1986 -1.687065
1984 -1.6230812
1982 -1.5897211
1980 -1.59735
1978 -1.6422614
1976 -1.6997371
1974 -1.7607089
1972 -1.8044132
1970 -1.8339361
1968 -1.8611039
1966 -1.8885943
1964 -1.9256905
1962 -1.9684744
1960 -2.00018
1958 -2.0269263
1956 -2.0498056
1954 -2.0723302
1952 -2.1131251
1950 -2.1596076
1948 -2.1962729
1946 -2.2226748
1944 -2.2122314
1942 -2.1874237
1940 -2.1601691
1938 -2.1429777
1936 -2.1559172
1934 -2.1825082
1932 -2.215626
1930 -2.2456017
1928 -2.2646468
1926 -2.2679906
1924 -2.2530878
1922 -2.2160673
1920 -2.1619308
1918 -2.1133771
1916 -2.0763557
1914 -2.0542297
1912 -2.0412719
1910 -2.0206723
1908 -1.9931817
1906 -1.9797893
1904 -1.975108
1902 -1.9892619
1900 -2.0124116
1898 -2.0055299
1896 -1.9845285
1894 -1.9286138
1892 -1.8600806
1890 -1.802699
1888 -1.7593822
1886 -1.7626085
1884 -1.7930472
1882 -1.8546128
1880 -1.9275086
1878 -1.9985806
1876 -2.05985
1874 -2.0995939
1872 -2.1108336
1870 -2.0872891
1868 -2.039278
1866 -1.979635
1864 -1.9304919
1862 -1.900885
1860 -1.8883669
1858 -1.8846945
1856 -1.9007629
1854 -1.9282444
1852 -1.9692211
1850 -2.0157547
1848 -2.0496399
1846 -2.0732572
1844 -2.0800645
1842 -2.0762837
1840 -2.0584519
1838 -2.033273
1836 -1.9866629
1834 -1.926527
1832 -1.8329583
1830 -1.7197784
1828 -1.5939916
1826 -1.4754343
1824 -1.4016405
1822 -1.3686824
1820 -1.382386
1818 -1.4190501
1816 -1.4582914
1814 -1.4880617
1812 -1.500264
1810 -1.4888817
1808 -1.4572412
1806 -1.403345
1804 -1.3331463
1802 -1.2720543
1800 -1.220908
1798 -1.1799124
1796 -1.1445643
1794 -1.0612222
1792 -0.94615042
1790 -0.81686425
1788 -0.68496424
1786 -0.61514497
1784 -0.58407557
1782 -0.56897688
1780 -0.55911851
1778 -0.51578289
1776 -0.44522229
1774 -0.33358458
1772 -0.19883537
1770 -0.070552289
1768 0.03296547
1766 0.076528423
1764 0.083572939
1762 0.080113329
1760 0.029636588
1758 -0.086600214
1756 -0.19228686
1754 -0.24648482
1752 -0.24063148
1750 -0.1800959
1748 -0.13484557
1746 -0.12632965
1744 -0.19964868
1742 -0.3474623
1740 -0.48181707
1738 -0.58968091
1736 -0.57391399
1734 -0.46236104
1732 -0.31236035
1730 -0.14830001
1728 -0.098498084
1726 -0.12825599
1724 -0.14822228
1722 -0.1370267
1720 0.030020289
1718 0.35552257
1716 0.88232696
1714 1.5148157
1712 2.1078291
1710 2.6713977
1708 3.228142
1706 3.9408934
1704 4.9672308
1702 6.5553298
1700 8.8233652
1698 11.919874
1696 15.782287
1694 19.693211
1692 23.327135
1690 26.603964
1688 29.585188
1686 33.15485
1684 37.392685
1682 42.507637
1680 48.311642
1678 53.45488
1676 57.963772
1674 62.352242
1672 66.740356
1670 71.886002
1668 77.579315
1666 83.116051
1664 88.384048
1662 92.980835
1660 96.937355
1658 100.27881
1656 103.036
1654 105.26496
1652 106.771
1650 107.35925
1648 106.48611
1646 103.75607
1644 100.00644
1642 96.009483
1640 91.980225
1638 88.065186
1636 83.735458
1634 78.808464
1632 73.761696
1630 68.771912
1628 64.10257
1626 59.77533
1624 55.44416
1622 51.056358
1620 46.844021
1618 42.818985
1616 39.106312
1614 35.720032
1612 32.753078
1610 30.213791
1608 28.07028
1606 26.306351
1604 24.801468
1602 23.566542
1600 22.577641
1598 21.835054
1596 21.300499
1594 20.972355
1592 20.816679
1590 20.823666
1588 20.960375
1586 21.200956
1584 21.516035
1582 21.888491
1580 22.306507
1578 22.80962
1576 23.41
1574 24.132566
1572 24.974188
1570 25.935646
1568 27.012239
1566 28.182913
1564 29.450834
1562 30.902452
1560 32.622139
1558 35.172039
1556 38.620258
1554 42.438732
1552 46.404831
1550 49.524143
1548 51.825245
1546 53.815609
1544 55.528732
1542 57.128448
1540 58.415298
1538 59.091904
1536 59.07674
1534 58.383385
1532 57.245407
1530 55.980228
1528 54.579052
1526 53.040749
1524 51.225204
1522 49.036125
1520 46.532936
1518 43.710018
1516 41.032917
1514 38.670357
1512 36.46228
1510 34.414505
1508 31.87664
1506 28.687893
1504 25.465755
1502 22.266918
1500 19.59502
1498 17.510601
1496 15.469143
1494 13.461327
1492 11.403297
1490 9.3132915
1488 7.2541447
1486 5.2949762
1484 3.5496061
1482 2.0980277
1480 1.0171206
1478 0.32958302
1476 0.061152589
1474 0.32377908
1472 1.0810415
1470 2.0529499
1468 3.0720565
1466 3.9498878
1464 4.5620351
1462 5.0437951
1460 5.4308743
1458 5.8246822
1456 6.2533798
1454 6.6502051
1452 6.9768076
1450 7.1498704
1448 7.0911808
1446 6.9465785
1444 6.6900721
1442 6.434607
1440 6.1786461
1438 5.898612
1436 5.56704
1434 5.1121264
1432 4.5324259
1430 3.913053
1428 3.297436
1426 2.8021314
1424 2.4457142
1422 2.2336762
1420 2.1596222
1418 2.1962655
1416 2.31708
1414 2.4967051
1412 2.7041657
1410 2.9345496
1408 3.1816604
1406 3.4524372
1404 3.7513058
1402 4.0866761
1400 4.4554238
1398 4.8723211
1396 5.2897644
1394 5.6931639
1392 6.0186205
1390 6.1955223
1388 6.2613902
1386 6.1501899
1384 5.9458876
1382 5.6113219
1380 5.2149568
1378 4.7440524
1376 4.2390542
1374 3.7205148
1372 3.247108
1370 2.8369009
1368 2.5078776
1366 2.2111986
1364 1.8603709
1362 1.4558163
1360 0.98737073
1358 0.54384589
1356 0.23392242
1354 0.036415689
1352 -0.0028916069
1350 0.0263547
1348 0.11179291
1346 0.21890393
1344 0.3540656
1342 0.50769216
1340 0.696805
1338 0.88850003
1336 1.07864
1334 1.2574961
1332 1.4052322
1330 1.561049
1328 1.7333378
1326 1.9371078
1324 2.1948073
1322 2.4851141
1320 2.8207252
1318 3.1719956
1316 3.5333998
1314 3.8712888
1312 4.1705923
1310 4.4149256
1308 4.6023898
1306 4.7395558
1304 4.8401065
1302 4.9147372
1300 4.9692955
1298 4.99441
1296 4.9920282
1294 4.9365525
1292 4.8635955
1290 4.7746181
1288 4.696672
1286 4.6528063
1284 4.6202517
1282 4.6093497
1280 4.5986104
1278 4.5877805
1276 4.579783
1274 4.5811977
1272 4.5978532
1270 4.6452231
1268 4.7208071
1266 4.8376536
1264 4.9775877
1262 5.1390123
1260 5.2894301
1258 5.4227223
1256 5.5287089
1254 5.6149378
1252 5.7053232
1250 5.8024144
1248 5.9150734
1246 6.0285497
1244 6.1163874
1242 6.1747847
1240 6.1653709
1238 6.1190853
1236 6.0132613
1234 5.8830743
1232 5.709928
1230 5.5105767
1228 5.2402434
1226 4.9439173
1224 4.5776691
1222 4.1938891
1220 3.7676535
1218 3.328542
1216 2.865977
1214 2.4123027
1212 1.9798572
1210 1.584371
1208 1.2460828
1206 0.95342052
1204 0.7175914
1202 0.51965439
1200 0.35965326
1198 0.21944705
1196 0.095949918
1194 -0.017236076
1192 -0.11693657
1190 -0.1845129
1188 -0.22400434
1186 -0.2058395
1184 -0.1561904
1182 -0.054745287
1180 0.072888121
1178 0.26019749
1176 0.474922
1174 0.76814574
1172 1.0679609
1170 1.3730685
1168 1.6454475
1166 1.8136922
1164 1.9316024
1162 1.923401
1160 1.8719617
1158 1.7339795
1156 1.5739415
1154 1.3805332
1152 1.1935052
1150 1.0176221
1148 0.85721505
1146 0.71107537
1144 0.55595922
1142 0.39169919
1140 0.21922041
1138 0.054167666
1136 -0.042900085
1134 -0.078375302
1132 0.035828203
1130 0.22444077
1128 0.5035603
1126 0.79259843
1124 1.0045099
1122 1.172608
1120 1.1810241
1118 1.1645304
1116 1.0935143
1114 1.038707
1112 1.0567434
1110 1.0993664
1108 1.219786
1106 1.3507149
1104 1.5038434
1102 1.633463
1100 1.7114704
1098 1.7378405
1096 1.6833572
1094 1.607545
1092 1.510236
1090 1.4422849
1088 1.408288
1086 1.4152707
1084 1.4564183
1082 1.5195237
1080 1.5890172
1078 1.611847
1076 1.6018386
1074 1.5072123
1072 1.3846868
1070 1.2614135
1068 1.1447686
1066 1.0787749
1064 1.0228844
1062 0.99307138
1060 0.96963006
1058 0.97885537
1056 0.98839229
1054 0.99789584
1052 0.98989999
1050 0.92551053
1048 0.84427202
1046 0.72280324
1044 0.60041118
1042 0.47687846
1040 0.36213613
1038 0.2617768
1036 0.181696
1034 0.1262406
1032 0.087993532
1030 0.063805185
1028 0.025888378
1026 -0.022154626
1024 -0.079107553
1022 -0.13775641
1020 -0.16449669
1018 -0.18104684
1016 -0.21831544
1014 -0.26763174
1012 -0.38852161
1010 -0.51785761
1008 -0.60618919
1006 -0.68442243
1004 -0.68499404
1002 -0.68727165
1000 -0.70532894
998 -0.71776551
996 -0.70461571
994 -0.67412961
992 -0.59147072
990 -0.52409315
988 -0.49287742
986 -0.48270178
984 -0.50754118
982 -0.51648581
980 -0.50429577
978 -0.49599516
976 -0.4928903
974 -0.50826758
972 -0.53691989
970 -0.54008931
968 -0.52682847
966 -0.49887648
964 -0.46480489
962 -0.4416512
960 -0.42092413
958 -0.37357461
956 -0.31990257
954 -0.24857458
952 -0.1765196
950 -0.13683665
948 -0.096636645
946 -0.031233212
944 0.0010693707
942 0.033444002
940 0.10292091
938 0.20282641
936 0.31785142
934 0.47745711
932 0.64403075
930 0.82471693
928 0.9764694
926 1.0817921
924 1.169538
922 1.2361679
920 1.2934332
918 1.3407898
916 1.3139671
914 1.232857
912 1.0033844
910 0.69556952
908 0.32384634
906 -0.070235014
904 -0.28637645
902 -0.45445022
900 -0.43344226
898 -0.38184285
896 -0.35589001
