##TITLE=Methyl Ethyl Ketone
##JCAMP-DX=4.24
##DATA TYPE=INFRARED SPECTRUM
##XUNITS=cm-1
##YUNITS=Absorbance
##FIRSTX=900
##LASTX=2300
##XYDATA=(X++(Y..Y))
2296 0.096832
2294 0.098847114
2292 0.10086422
2290 0.10287139
2288 0.10488846
2286 0.10690556
2284 0.10892268
2282 0.1109299
2280 0.11294691
2278 0.11496403
2276 0.11698114
2274 0.11898842
2272 0.12100537
2270 0.12302249
2268 0.1250298
2266 0.12704672
2264 0.12906383
2262 0.13108094
2260 0.13308831
2258 0.13510518
2256 0.13712229
2254 0.1391394
2252 0.14114684
2250 0.14316364
2248 0.14518073
2246 0.14719786
2244 0.065124802
2242 0.0023897314
2240 -0.08024352
2238 -0.052426718
2236 -0.0081711896
2234 0.088258676
2232 0.18567322
2230 0.22136466
2228 0.24626756
2226 0.20876649
2224 0.15861847
2222 0.065221623
2220 -0.050729997
2218 -0.22827983
2216 -0.41054571
2214 -0.59553969
2212 -0.72781038
2210 -0.77381617
2208 -0.77256209
2206 -0.71901166
2204 -0.69509465
2202 -0.70295197
2200 -0.74126834
2198 -0.80077934
2196 -0.79919076
2194 -0.7615338
2192 -0.67211127
2190 -0.56104922
2188 -0.52151203
2186 -0.50570673
2184 -0.58811599
2182 -0.69277614
2180 -0.798352
2178 -0.90288454
2176 -0.92507595
2174 -0.93793243
2172 -0.93069136
2170 -0.9330923
2168 -1.0016346
2166 -1.0807085
2164 -1.1747768
2162 -1.2438446
2160 -1.245144
2158 -1.2213432
2156 -1.16327
2154 -1.1268181
2152 -1.1269886
2150 -1.136178
2148 -1.1512402
2146 -1.1179893
2144 -1.0415051
2142 -0.96840638
2140 -0.90076578
2138 -0.9145537
2136 -0.97239572
2134 -1.0337963
2132 -1.0948426
2130 -1.0858698
2128 -1.05466
2126 -1.0318985
2124 -1.0115817
2122 -1.0272273
2120 -1.0486845
2118 -1.0699918
2116 -1.0939629
2114 -1.13886
2112 -1.1895709
2110 -1.2524909
2108 -1.3088009
2106 -1.3396221
2104 -1.3537406
2102 -1.3392051
2100 -1.320002
2098 -1.2999568
2096 -1.2989
2094 -1.3228177
2092 -1.3791678
2090 -1.4653689
2088 -1.5414503
2086 -1.60561
2084 -1.595992
2082 -1.5387218
2080 -1.4726754
2078 -1.4053262
2076 -1.3936199
2074 -1.4050958
2072 -1.3889041
2070 -1.3630102
2068 -1.3314091
2066 -1.3010286
2064 -1.3915423
2062 -1.5105261
2060 -1.6794257
2058 -1.846218
2056 -1.9474458
2054 -2.0210788
2052 -2.0418873
2050 -2.0516131
2048 -2.0590601
2046 -2.0775499
2044 -2.1182001
2042 -2.1690295
2040 -2.2290812
2038 -2.2720499
2036 -2.2924728
2034 -2.2791615
2032 -2.2370195
2030 -2.1885722
2028 -2.1390331
2026 -2.1132765
2024 -2.1027932
2022 -2.082058
2020 -2.0545988
2018 -2.0293648
2016 -2.0055399
2014 -2.0755463
2012 -2.1773825
2010 -2.320483
2008 -2.4687982
2006 -2.5308936
2004 -2.560806
2002 -2.517678
2000 -2.4599092
1998 -2.4183035
1996 -2.4000072
1994 -2.4390807
1992 -2.5002332
1990 -2.5801871
1988 -2.6525199
1986 -2.7050714
1984 -2.7362943
1982 -2.7443719
1980 -2.7126348
1978 -2.6412942
1976 -2.5203459
1974 -2.361002
1972 -2.1948402
1970 -2.0291309
1968 -1.9621686
1966 -1.9579329
1964 -2.1070654
1962 -2.332164
1960 -2.5692561
1958 -2.8073952
1956 -2.9457872
1954 -3.0456846
1952 -3.0548916
1950 -3.0312786
1948 -2.9633324
1946 -2.8916001
1944 -2.8759971
1942 -2.8865864
1940 -2.9319091
1938 -2.9667423
1936 -2.9474285
1934 -2.9050841
1932 -2.847472
1930 -2.7965133
1928 -2.7619383
1926 -2.6974235
1924 -2.5870767
1922 -2.4095409
1920 -2.1731844
1918 -1.9614789
1916 -1.7863557
1914 -1.690609
1912 -1.6490576
1910 -1.6766418
1908 -1.7417228
1906 -1.8934214
1904 -2.0896239
1902 -2.2409515
1900 -2.3693204
1898 -2.3355894
1896 -2.2358999
1894 -2.1033792
1892 -1.9729561
1890 -1.945165
1888 -1.9741503
1886 -2.0810127
1884 -2.2102435
1882 -2.319478
1880 -2.4044526
1878 -2.448643
1876 -2.47069
1874 -2.4754617
1872 -2.439476
1870 -2.3494196
1868 -2.2208498
1866 -2.0680201
1864 -1.991412
1862 -2.0051129
1860 -2.0987399
1858 -2.2421696
1856 -2.3711028
1854 -2.4790289
1852 -2.4928849
1850 -2.4452586
1848 -2.270088
1846 -2.0243857
1844 -1.8539556
1842 -1.7329144
1840 -1.8535897
1838 -2.0878849
1836 -2.31406
1834 -2.502105
1832 -2.5034759
1830 -2.3782969
1828 -2.1002946
1826 -1.790365
1824 -1.5774908
1822 -1.5013753
1820 -1.63047
1818 -1.8369706
1816 -2.0359657
1814 -2.1441166
1812 -2.1237912
1810 -2.0321708
1808 -1.9068663
1806 -1.767625
1804 -1.6247057
1802 -1.4419534
1800 -1.2223543
1798 -0.99951541
1796 -0.78027856
1794 -0.6175046
1792 -0.49595961
1790 -0.45548186
1788 -0.46525195
1786 -0.52214348
1784 -0.59992963
1782 -0.6091373
1780 -0.56097418
1778 -0.38024139
1776 -0.12786755
1774 0.12930183
1772 0.33613911
1770 0.37062821
1768 0.31021824
1766 0.21856065
1764 0.15877941
1762 0.19462949
1760 0.085771486
1758 -0.13168898
1756 -0.25254315
1754 -0.24121301
1752 0.062017426
1750 0.66731411
1748 1.3699888
1746 2.0763786
1744 2.4062674
1742 2.3739119
1740 2.1540027
1738 1.8394293
1736 1.7295799
1734 1.7902294
1732 1.746478
1730 1.6040813
1728 1.1421677
1726 0.49138647
1724 0.038037457
1722 -0.19872713
1720 0.10316914
1718 0.90695482
1716 2.1719158
1714 3.5954769
1712 4.7748675
1710 5.7738018
1708 6.6652999
1706 7.7454219
1704 9.2902794
1702 11.530282
1700 14.558005
1698 18.149254
1696 22.077856
1694 25.580999
1692 28.40309
1690 30.891874
1688 33.243721
1686 36.333519
1684 40.202122
1682 44.733582
1680 49.7402
1678 54.018723
1676 57.632687
1674 61.301819
1672 65.105988
1670 69.63562
1668 74.686096
1666 79.570053
1664 84.217941
1662 88.36499
1660 92.036201
1658 95.251564
1656 98.045944
1654 100.48372
1652 102.4604
1650 103.86781
1648 104.13828
1646 102.8425
1644 100.46972
1642 97.532249
1640 94.297348
1638 90.970673
1636 87.09066
1634 82.527168
1632 77.737953
1630 72.910881
1628 68.371262
1626 64.157684
1624 59.88332
1622 55.496246
1620 51.180176
1618 46.951138
1616 42.906456
1614 39.073761
1612 35.644131
1610 32.648922
1608 30.154474
1606 28.137142
1604 26.436083
1602 25.043856
1600 23.889652
1598 22.97681
1596 22.271999
1594 21.779581
1592 21.472595
1590 21.335283
1588 21.329185
1586 21.460007
1584 21.719326
1582 22.14015
1580 22.729595
1578 23.575911
1576 24.702314
1574 26.047428
1572 27.577154
1570 29.041262
1568 30.382481
1566 31.60178
1564 32.705288
1562 34.026493
1560 35.664196
1558 38.14225
1556 41.451656
1554 44.66716
1552 47.593891
1550 49.630943
1548 50.859283
1546 51.926609
1544 52.826576
1542 53.599846
1540 54.005119
1538 53.702362
1536 52.745399
1534 51.318756
1532 49.699947
1530 48.213226
1528 46.871872
1526 45.681499
1524 44.449047
1522 43.050983
1520 41.249481
1518 38.903061
1516 36.483074
1514 34.135849
1512 31.9592
1510 30.007364
1508 27.602577
1506 24.583914
1504 21.469389
1502 18.310831
1500 15.706006
1498 13.72978
1496 11.860001
1494 10.110352
1492 8.409482
1490 6.7854528
1488 5.2662201
1486 3.8658071
1484 2.563334
1482 1.4391583
1480 0.59479576
1478 0.097734824
1476 0.032368071
1474 0.42971453
1472 1.200053
1470 2.023484
1468 2.6814086
1466 3.1913421
1464 3.5496171
1462 3.9615636
1460 4.5353999
1458 5.1797595
1456 5.8854799
1454 6.3750887
1452 6.509017
1450 6.4581294
1448 6.1547022
1446 5.8289857
1444 5.480588
1442 5.1711831
1440 4.9200368
1438 4.7176352
1436 4.5534358
1434 4.3245111
1432 4.0153012
1430 3.6367385
1428 3.2379661
1426 2.9532442
1424 2.8133526
1422 2.8423827
1420 3.0080926
1418 3.251183
1416 3.5268629
1414 3.7862041
1412 4.0258336
1410 4.2458582
1408 4.4678473
1406 4.70857
1404 4.9819965
1402 5.306181
1400 5.6332321
1398 5.9497333
1396 6.1724
1394 6.2205334
1392 6.1889782
1390 6.0229025
1388 5.8427873
1386 5.6336651
1384 5.3808141
1382 5.0686507
1380 4.7360902
1378 4.3904972
1376 4.0758057
1374 3.7976801
1372 3.533406
1370 3.2745566
1368 2.9987285
1366 2.6901078
1364 2.3293617
1362 1.9222775
1360 1.4697703
1358 1.0203822
1356 0.63005644
1354 0.31258115
1352 0.12045525
1350 0.016922705
1348 0.03097743
1346 0.10265611
1344 0.27867919
1342 0.49144945
1340 0.75928557
1338 0.98999816
1336 1.1347457
1334 1.2118706
1332 1.1653792
1330 1.1244941
1328 1.1003954
1326 1.1248422
1324 1.2274148
1322 1.3829125
1320 1.6085
1318 1.8668649
1316 2.1452799
1314 2.3812037
1312 2.5547125
1310 2.6401634
1308 2.6542275
1306 2.63483
1304 2.6085372
1302 2.616241
1300 2.6416764
1298 2.6746945
1296 2.6932714
1294 2.6638
1292 2.624917
1290 2.5892782
1288 2.5830998
1286 2.6527042
1284 2.7471471
1282 2.8910823
1280 3.028976
1278 3.1510241
1276 3.2540286
1274 3.3217151
1272 3.3822823
1270 3.4351354
1268 3.5017996
1266 3.5917406
1264 3.7076514
1262 3.8604128
1260 4.0506001
1258 4.288259
1256 4.5763345
1254 4.9219484
1252 5.3385768
1250 5.8122158
1248 6.3323021
1246 6.8631754
1244 7.3515739
1242 7.7964692
1240 8.1483746
1238 8.4428511
1236 8.6331015
1234 8.7639351
1232 8.7644997
1230 8.7084312
1228 8.5108061
1226 8.2704878
1224 7.9173484
1222 7.5340061
1220 7.0776997
1218 6.5977201
1216 6.0725398
1214 5.5479541
1212 5.0308328
1210 4.5480733
1208 4.1138206
1206 3.6972492
1204 3.292392
1202 2.8531058
1200 2.3768332
1198 1.870846
1196 1.3545529
1194 0.88477778
1192 0.4608829
1190 0.1189502
1188 -0.17593157
1186 -0.42501295
1184 -0.64829183
1182 -0.82709682
1180 -0.96970129
1178 -1.0056106
1176 -1.00199
1174 -0.89710855
1172 -0.78525186
1170 -0.66958678
1168 -0.55905199
1166 -0.46424109
1164 -0.36849701
1162 -0.27165341
1160 -0.18352583
1158 -0.11483459
1156 -0.064762756
1154 -0.047295544
1152 -0.05209399
1150 -0.083879165
1148 -0.1089786
1146 -0.12167965
1144 -0.10343947
1142 -0.059581168
1140 -0.0154998
1138 0.029857799
1136 0.096647143
1134 0.19536321
1132 0.3959586
1130 0.652053
1128 0.9951669
1126 1.3631414
1124 1.7374017
1122 2.0988305
1120 2.3872359
1118 2.6481602
1116 2.79862
1114 2.9455001
1112 3.0870433
1110 3.2506156
1108 3.4832375
1106 3.7153201
1104 3.9415708
1102 4.1318665
1100 4.2534714
1098 4.3725939
1096 4.4990573
1094 4.7072606
1092 5.0218778
1090 5.3927622
1088 5.8144317
1086 6.2131295
1084 6.5931139
1082 6.9634194
1080 7.3169656
1078 7.5918131
1076 7.8124003
1074 7.8967857
1072 7.9360375
1070 7.9703135
1068 8.0049515
1066 8.0510921
1064 8.095088
1062 8.1125345
1060 8.1405478
1058 8.2444
1056 8.3534174
1054 8.4827223
1052 8.5872087
1050 8.6112909
1048 8.6128111
1046 8.558814
1044 8.4870319
1042 8.3830338
1040 8.2846804
1038 8.1977301
1036 8.1463699
1034 8.13412
1032 8.1121368
1030 8.077384
1028 7.9989982
1026 7.8889565
1024 7.7583537
1022 7.6064529
1020 7.3443856
1018 7.0199356
1016 6.4821138
1014 5.8808465
1012 5.2121744
1010 4.5437756
1008 4.0073037
1006 3.4972086
1004 3.1678455
1002 2.862705
1000 2.7129474
998 2.5731547
996 2.4743571
994 2.337769
992 2.0814915
990 1.7710667
988 1.3383209
986 0.91419148
984 0.51000929
982 0.18643592
980 -0.023987122
978 -0.13670926
976 -0.14526114
974 -0.089674018
972 0.016473278
970 0.11662552
968 0.2133192
966 0.31099403
964 0.41262978
962 0.58375061
960 0.77370113
958 0.89095914
956 0.9804914
954 0.797831
952 0.57907122
950 0.28150466
948 0.00045756527
946 0.00048085075
944 0.0046549737
942 0.14492464
940 0.42424506
938 0.73670018
936 1.0255971
934 1.2457664
932 1.4691219
930 1.6998702
928 1.9630115
926 2.2773194
924 2.5569582
922 2.7928431
920 2.9388747
918 3.0012386
916 3.0480127
914 3.0841019
912 3.1387393
910 3.2027628
908 3.2088664
906 3.1930771
904 3.1478994
902 3.0965483
900 3.3176584
898 3.5830963
896 4.1396999
