##TITLE=Methyl Ethyl Ketone
##JCAMP-DX=4.24
##DATA TYPE=INFRARED SPECTRUM
##XUNITS=cm-1
##YUNITS=Absorbance
##FIRSTX=900
##LASTX=2300
##XYDATA=(X++(Y..Y))
2296 0.037252001
2294 0.038026892
2292 0.038801782
2290 0.039576672
2288 0.040351566
2286 0.041126456
2284 0.041902341
2282 0.042677239
2280 0.043452129
2278 0.044226035
2276 0.045001898
2274 0.045778774
2272 0.04655173
2270 0.047317754
2268 0.048101302
2266 0.048910622
2264 0.049652062
2262 0.050301265
2260 0.051198728
2258 0.052444879
2256 0.052765571
2254 0.051784601
2252 0.054245166
2250 0.061558295
2248 0.056081176
2246 0.025583999
2244 0.00090858858
2242 0.016906722
2240 0.075935721
2238 0.16832221
2236 0.27324602
2234 0.36776006
2232 0.43282297
2230 0.45528311
2228 0.44112229
2226 0.40368
2224 0.36358896
2222 0.33976412
2220 0.335798
2218 0.3478213
2216 0.36025029
2214 0.35432294
2212 0.31227741
2210 0.22285846
2208 0.099807546
2206 -0.02919228
2204 -0.11064615
2202 -0.094801649
2200 0.02121231
2198 0.21524024
2196 0.42278931
2194 0.57730776
2192 0.65651441
2190 0.65851468
2188 0.60658693
2186 0.52795678
2184 0.43444079
2182 0.33263293
2180 0.22876874
2178 0.12876087
2176 0.037378572
2174 -0.040225357
2172 -0.095852032
2170 -0.1210759
2168 -0.11074343
2166 -0.066341773
2164 -0.012164691
2162 0.024080859
2160 0.031801127
2158 0.012065538
2156 -0.01068387
2154 -0.01162623
2152 0.0036085732
2150 0.019909469
2148 0.027020006
2146 0.021246608
2144 0.017756362
2142 0.031357057
2140 0.048541032
2138 0.047399841
2136 0.013312239
2134 -0.058260236
2132 -0.1422261
2130 -0.20499757
2128 -0.22144559
2126 -0.1780095
2124 -0.094951063
2122 -0.0053676642
2120 0.05513211
2118 0.060984414
2116 0.030298771
2114 -0.0046871477
2112 -0.020300703
2110 -0.0033004428
2108 0.031956837
2106 0.064724706
2104 0.09028744
2102 0.11146545
2100 0.13548599
2098 0.16856788
2096 0.20664714
2094 0.2417706
2092 0.26653671
2090 0.27425104
2088 0.25967428
2086 0.2191155
2084 0.15301302
2082 0.064624496
2080 -0.037776303
2078 -0.14128309
2076 -0.22166786
2074 -0.2526831
2072 -0.21837761
2070 -0.11469661
2068 0.030749535
2066 0.17902412
2064 0.29701862
2062 0.35967982
2060 0.36318222
2058 0.31503069
2056 0.233702
2054 0.14355864
2052 0.075981654
2050 0.058904018
2048 0.094183519
2046 0.16921178
2044 0.2577084
2042 0.33222049
2040 0.38267139
2038 0.40566313
2036 0.39318728
2034 0.33654293
2032 0.23422086
2030 0.094691142
2028 -0.045431726
2026 -0.14029621
2024 -0.15687588
2022 -0.078621075
2020 0.068313681
2018 0.23684323
2016 0.370772
2014 0.42106673
2012 0.38181359
2010 0.27332973
2008 0.14295503
2006 0.04095158
2004 -0.017638952
2002 -0.03825935
2000 -0.041206449
1998 -0.048779
1996 -0.066740781
1994 -0.092608936
1992 -0.1234403
1990 -0.15632468
1988 -0.18731761
1986 -0.21268792
1984 -0.23188755
1982 -0.24713337
1980 -0.26575959
1978 -0.29381216
1976 -0.32174599
1974 -0.3310962
1972 -0.29851258
1970 -0.20711052
1968 -0.075727716
1966 0.057671964
1964 0.14959431
1962 0.16542622
1960 0.11519604
1958 0.031500854
1956 -0.052987047
1954 -0.11340226
1952 -0.15160561
1950 -0.18322386
1948 -0.22492716
1946 -0.28845501
1944 -0.36622232
1942 -0.44155443
1940 -0.50156224
1938 -0.54020911
1936 -0.56923944
1934 -0.60752487
1932 -0.66535783
1930 -0.7437523
1928 -0.82654059
1926 -0.88731647
1924 -0.89327288
1922 -0.81795102
1920 -0.6744656
1918 -0.4978435
1916 -0.32435155
1914 -0.18351418
1912 -0.080422051
1910 -0.010190383
1908 0.017419394
1906 -0.0097620701
1904 -0.073976599
1902 -0.14141181
1900 -0.18454972
1898 -0.1870656
1896 -0.1594
1894 -0.12459416
1892 -0.096475527
1890 -0.083274238
1888 -0.097545601
1886 -0.15091585
1884 -0.2373146
1882 -0.34052771
1880 -0.4458327
1878 -0.54184008
1876 -0.62358505
1874 -0.68703473
1872 -0.71634209
1870 -0.69410497
1868 -0.62841398
1866 -0.54469925
1864 -0.47480038
1862 -0.4465614
1860 -0.45997086
1858 -0.49857906
1856 -0.5485906
1854 -0.60032701
1852 -0.64743829
1850 -0.68748707
1848 -0.72774357
1846 -0.77964753
1844 -0.84723598
1842 -0.92677701
1840 -1.0029806
1838 -1.0543872
1836 -1.0617571
1834 -1.0079671
1832 -0.87642658
1830 -0.66182113
1828 -0.40925583
1826 -0.19308221
1824 -0.074209921
1822 -0.086427502
1820 -0.19658381
1818 -0.33515683
1816 -0.45791686
1814 -0.54774296
1812 -0.61373186
1810 -0.67259806
1808 -0.70868927
1806 -0.68916154
1804 -0.60815275
1802 -0.48448977
1800 -0.35516065
1798 -0.25790408
1796 -0.18994786
1794 -0.12016769
1792 -0.018352481
1790 0.13284583
1788 0.31096053
1786 0.46703464
1784 0.55338842
1782 0.53856993
1780 0.44583726
1778 0.33616781
1776 0.27168971
1774 0.29440415
1772 0.37224844
1770 0.42783695
1768 0.41287148
1766 0.31817165
1764 0.188407
1762 0.089281835
1760 0.022725634
1758 -0.048242442
1756 -0.1070502
1754 -0.097443014
1752 0.0095056295
1750 0.20632698
1748 0.43810835
1746 0.62525892
1744 0.71876043
1742 0.71062225
1740 0.65815854
1738 0.65031606
1736 0.71452999
1734 0.81548214
1732 0.87017918
1730 0.78612828
1728 0.55945462
1726 0.2641913
1724 0.0042581856
1722 -0.10483152
1720 0.048452869
1718 0.54361343
1716 1.3329891
1714 2.2723875
1712 3.2244287
1710 4.1036673
1708 4.9750118
1706 6.0254779
1704 7.4746876
1702 9.5269651
1700 12.273571
1698 15.650898
1696 19.293571
1694 22.66762
1692 25.532871
1690 27.98807
1688 30.434702
1686 33.44577
1684 37.455177
1682 42.606808
1680 48.368801
1678 53.814381
1676 58.667702
1674 63.291512
1672 68.087608
1670 73.285614
1668 78.639603
1666 83.564796
1664 87.727669
1662 91.091446
1660 93.698135
1658 95.608215
1656 96.872459
1654 97.534409
1652 97.657143
1650 97.315636
1648 96.551422
1646 95.388
1644 93.915558
1642 92.26535
1640 90.453568
1638 88.37545
1636 85.898384
1634 82.919113
1632 79.500687
1630 75.828255
1628 71.949051
1626 67.765007
1624 63.20908
1622 58.301842
1620 53.217884
1618 48.245693
1616 43.603886
1614 39.412651
1612 35.73896
1610 32.6063
1608 29.976887
1606 27.763472
1604 25.894711
1602 24.330906
1600 23.063303
1598 22.106359
1596 21.466
1594 21.12977
1592 21.059361
1590 21.197517
1588 21.506266
1586 21.973101
1584 22.600388
1582 23.408899
1580 24.458797
1578 25.845583
1576 27.65377
1574 29.924946
1572 32.59045
1570 35.480991
1568 38.441158
1566 41.364201
1564 44.195889
1562 46.954933
1560 49.808216
1558 52.970108
1556 56.185684
1554 58.74382
1552 60.212315
1550 60.616409
1548 60.267986
1546 59.624359
1544 58.830395
1542 57.657467
1540 55.873562
1538 53.390736
1536 50.452484
1534 47.595623
1532 45.136944
1530 43.060928
1528 41.237064
1526 39.4828
1524 37.615139
1522 35.483078
1520 33.051949
1518 30.432758
1516 27.849701
1514 25.578224
1512 23.67248
1510 21.916115
1508 20.058521
1506 17.920734
1504 15.554069
1502 13.244506
1500 11.1916
1498 9.4210882
1496 7.8770428
1494 6.4580741
1492 5.1100063
1490 3.8473146
1488 2.6850891
1486 1.6281843
1484 0.71478498
1482 0.024292827
1480 -0.37197602
1478 -0.41744536
1476 -0.025794297
1474 0.89828074
1472 2.2812502
1470 3.846915
1468 5.3613396
1466 6.7175193
1464 7.9207873
1462 9.0777035
1460 10.266277
1458 11.483947
1456 12.632
1454 13.522644
1452 14.027066
1450 14.127392
1448 13.873669
1446 13.369607
1444 12.714737
1442 11.985331
1440 11.224468
1438 10.437847
1436 9.6056213
1434 8.6952114
1432 7.7262206
1430 6.7904873
1428 5.9774399
1426 5.3453135
1424 4.9128213
1422 4.6532063
1420 4.5336804
1418 4.5287495
1416 4.6241856
1414 4.8195519
1412 5.1154909
1410 5.5074406
1408 5.9767489
1406 6.4845705
1404 6.9805923
1402 7.4046373
1400 7.6986837
1398 7.8157763
1396 7.7395072
1394 7.497901
1392 7.1478977
1390 6.7678547
1388 6.4062567
1386 6.0600147
1384 5.7131524
1382 5.349369
1380 4.9619722
1378 4.5559573
1376 4.1211658
1374 3.6246021
1372 3.0514841
1370 2.4243689
1368 1.7861029
1366 1.1944005
1364 0.68937147
1362 0.27889305
1360 -0.03471069
1358 -0.24636739
1356 -0.34914744
1354 -0.33270159
1352 -0.17755966
1350 0.14376882
1348 0.63026136
1346 1.2330285
1344 1.895244
1342 2.5641077
1340 3.1848807
1338 3.6982059
1336 4.0438743
1334 4.1677203
1332 4.0524764
1330 3.740979
1328 3.2997053
1326 2.8109798
1324 2.3568485
1322 2.0078068
1320 1.8027942
1318 1.7281698
1316 1.73332
1314 1.7300042
1312 1.6509303
1310 1.4828728
1308 1.2509882
1306 1.0220333
1304 0.85416824
1302 0.77225065
1300 0.78195423
1298 0.86993819
1296 1.0277429
1294 1.2632034
1292 1.5890601
1290 2.0178843
1288 2.5459161
1286 3.1394751
1284 3.7519374
1282 4.3273749
1280 4.8196983
1278 5.2067852
1276 5.4841957
1274 5.6704369
1272 5.7922282
1270 5.881927
1268 5.9745302
1266 6.1073437
1264 6.3185334
1262 6.6442561
1260 7.1049623
1258 7.6923671
1256 8.3857288
1254 9.1559792
1252 9.9856663
1250 10.882479
1248 11.855474
1246 12.90125
1244 13.989457
1242 15.042212
1240 15.966446
1238 16.664768
1236 17.063885
1234 17.13975
1232 16.886761
1230 16.312519
1228 15.437463
1226 14.300686
1224 12.96644
1222 11.539782
1220 10.13619
1218 8.866128
1216 7.8241429
1214 7.0648355
1212 6.6148424
1210 6.4582486
1208 6.5495372
1206 6.8002849
1204 7.1013641
1202 7.323154
1200 7.3489184
1198 7.1044135
1196 6.5667715
1194 5.8024302
1192 4.9131441
1190 4.027226
1188 3.2478902
1186 2.6083951
1184 2.1063204
1182 1.6993184
1180 1.351472
1178 1.0612936
1176 0.840774
1174 0.71078223
1172 0.68213654
1170 0.73816264
1168 0.854702
1166 1.0053643
1164 1.164176
1162 1.306998
1160 1.4093435
1158 1.4461793
1156 1.4033128
1154 1.2921753
1152 1.1350578
1150 0.96323979
1148 0.79999578
1146 0.64531928
1144 0.49461725
1142 0.34532839
1140 0.19380328
1138 0.034702942
1136 -0.12041543
1134 -0.2214344
1132 -0.22833869
1130 -0.14806461
1128 -0.0072618276
1126 0.14754565
1124 0.27004588
1122 0.32770649
1120 0.30660838
1118 0.23044363
1116 0.13354425
1114 0.052842394
1112 0.012065598
1110 0.0016357079
1108 0.013559137
1106 0.063628852
1104 0.17258218
1102 0.35783514
1100 0.62262225
1098 0.93640959
1096 1.2625571
1094 1.571102
1092 1.8471479
1090 2.1122723
1088 2.3996544
1086 2.7483134
1084 3.171345
1082 3.6105177
1080 3.9900727
1078 4.2359533
1076 4.3052201
1074 4.2367134
1072 4.0869327
1070 3.9055409
1068 3.7251117
1066 3.5357873
1064 3.3166199
1062 3.0456338
1060 2.7173522
1058 2.3730383
1056 2.0705829
1054 1.8808538
1052 1.8501946
1050 1.946538
1048 2.1122856
1046 2.2730107
1044 2.374263
1042 2.4312909
1040 2.4829993
1038 2.5867295
1036 2.7824402
1034 3.0469985
1032 3.3283336
1030 3.53655
1028 3.5967362
1026 3.5067322
1024 3.2931561
1022 3.015038
1020 2.7225034
1018 2.4164133
1016 2.0917029
1014 1.7618707
1012 1.4454123
1010 1.1610744
1008 0.91867918
1006 0.69907486
1004 0.484308
1002 0.28131777
1000 0.10078451
998 -0.054459013
996 -0.18753213
994 -0.31431431
992 -0.45364517
990 -0.623151
988 -0.82834047
986 -1.0361422
984 -1.1952343
982 -1.2271051
980 -1.0727944
978 -0.76044971
976 -0.35127544
974 0.055709362
972 0.37238485
970 0.57858843
968 0.67659593
966 0.68768698
964 0.63583308
962 0.53836107
960 0.41439849
958 0.2947064
956 0.20556743
954 0.14779492
952 0.11352591
950 0.086726591
948 0.05394147
946 0.018351186
944 -0.00023784116
942 0.061987713
940 0.26243627
938 0.5959751
936 1.0350943
934 1.5274534
932 2.0089724
930 2.3959818
928 2.6126938
926 2.6300821
924 2.454844
922 2.1827495
920 1.9294491
918 1.8014387
916 1.8694814
914 2.0785623
912 2.3391469
910 2.5517211
908 2.6429839
906 2.652657
904 2.6469188
902 2.6855195
900 2.8066671
898 2.969908
896 3.1152
