##TITLE=Methyl Ethyl Ketone
##JCAMP-DX=4.24
##DATA TYPE=INFRARED SPECTRUM
##XUNITS=cm-1
##YUNITS=Absorbance
##FIRSTX=900
##LASTX=2300
##XYDATA=(X++(Y..Y))
2296 0.24409001
2294 0.24916275
2292 0.25424546
2290 0.2593182
2288 0.2644009
2286 0.2694737
2284 0.27455637
2282 0.2796292
2280 0.28471184
2278 0.28978467
2276 0.29486728
2274 0.29994017
2272 0.30502275
2270 0.31009564
2268 0.31517819
2266 0.32025114
2264 0.32533365
2262 0.33040661
2260 0.33548909
2258 0.34056211
2256 0.34564456
2254 0.3507176
2252 0.35580003
2250 0.36087307
2248 0.36595547
2246 0.37102857
2244 0.14388907
2242 0.0052117715
2240 -0.1342272
2238 -0.096341118
2236 -0.032263029
2234 0.070637852
2232 0.17219713
2230 0.18189968
2228 0.18002832
2226 0.120811
2224 0.064461425
2222 0.034524601
2220 0.0154389
2218 0.025079653
2216 0.025319543
2214 0.0014828671
2212 -0.049870681
2210 -0.14380071
2208 -0.23947144
2206 -0.33404601
2204 -0.40808994
2202 -0.46241403
2200 -0.50204492
2198 -0.53165144
2196 -0.5105772
2194 -0.46067199
2192 -0.36438337
2190 -0.24859674
2188 -0.12727909
2186 -0.0045696255
2184 0.1149566
2182 0.23373733
2180 0.25474671
2178 0.25983578
2176 0.15496656
2174 0.04350904
2172 -0.028253641
2170 -0.084628023
2168 -0.074347541
2166 -0.057962071
2164 -0.042994861
2162 -0.040118303
2160 -0.067837715
2158 -0.11154822
2156 -0.17969301
2154 -0.24142112
2152 -0.29022223
2150 -0.29194811
2148 -0.24215284
2146 -0.17787251
2144 -0.10554325
2142 -0.094610944
2140 -0.12696642
2138 -0.17421176
2136 -0.22716543
2134 -0.22674628
2132 -0.20359784
2130 -0.17229325
2128 -0.139044
2126 -0.12962678
2124 -0.12579246
2122 -0.12530746
2120 -0.1258508
2118 -0.1365003
2116 -0.15179114
2114 -0.1910647
2112 -0.24084029
2110 -0.32176608
2108 -0.40770397
2106 -0.49499872
2104 -0.55946392
2102 -0.57310057
2100 -0.56801599
2098 -0.54410899
2096 -0.53206718
2094 -0.53919578
2092 -0.54830998
2090 -0.55657935
2088 -0.55534494
2086 -0.54631799
2084 -0.50260901
2082 -0.43670338
2080 -0.34811056
2078 -0.24913749
2076 -0.21665287
2074 -0.212332
2072 -0.2319928
2070 -0.25847176
2068 -0.22123399
2066 -0.16881371
2064 -0.13940136
2062 -0.12108146
2060 -0.16926308
2058 -0.2333442
2056 -0.31274027
2054 -0.39786711
2052 -0.49286035
2050 -0.59056824
2048 -0.69042128
2046 -0.77435148
2044 -0.82662225
2042 -0.85624743
2040 -0.86069214
2038 -0.85869676
2036 -0.85451424
2034 -0.82967257
2032 -0.78520954
2030 -0.74014741
2028 -0.69744891
2026 -0.72416824
2024 -0.7951504
2022 -0.86462164
2020 -0.92989117
2018 -0.90616494
2016 -0.84512001
2014 -0.79887545
2012 -0.75878763
2010 -0.79322702
2008 -0.84826255
2006 -0.91948724
2004 -0.99517155
2002 -1.073568
2000 -1.1491063
1998 -1.2098459
1996 -1.2562571
1994 -1.2708547
1992 -1.2772319
1990 -1.2822727
1988 -1.29539
1986 -1.3223907
1984 -1.3395914
1982 -1.3386438
1980 -1.3069156
1978 -1.2453685
1976 -1.1564599
1974 -1.048383
1972 -0.89782244
1970 -0.71780694
1968 -0.5702644
1966 -0.446758
1964 -0.49614596
1962 -0.63456279
1960 -0.81044561
1958 -0.99761003
1956 -1.06801
1954 -1.0955729
1952 -1.1180416
1950 -1.1440789
1948 -1.218228
1946 -1.3083
1944 -1.4014153
1942 -1.4934635
1940 -1.5764809
1938 -1.6548054
1936 -1.7275915
1934 -1.7971327
1932 -1.8639879
1930 -1.9232247
1928 -1.972156
1926 -1.9443507
1924 -1.8203712
1922 -1.5598902
1920 -1.1787097
1918 -0.82929075
1916 -0.53424531
1914 -0.38088092
1912 -0.32626846
1910 -0.330924
1908 -0.36181673
1906 -0.4878515
1904 -0.66364163
1902 -0.86720049
1900 -1.0808243
1898 -1.1299055
1896 -1.1062286
1894 -0.98333812
1892 -0.83609343
1890 -0.7840814
1888 -0.80278116
1886 -0.96710533
1884 -1.1971134
1882 -1.4617393
1880 -1.7063005
1878 -1.8757252
1876 -1.93757
1874 -1.8502053
1872 -1.5976263
1870 -1.1713005
1868 -0.7491256
1866 -0.39814109
1864 -0.33205697
1862 -0.54353666
1860 -0.90317917
1858 -1.3319473
1856 -1.6621714
1854 -1.9047592
1852 -1.936148
1850 -1.8377048
1848 -1.566752
1846 -1.2068821
1844 -0.99884629
1842 -0.88291341
1840 -1.043879
1838 -1.3263944
1836 -1.5417129
1834 -1.6791149
1832 -1.5756308
1830 -1.3334771
1828 -0.97867143
1826 -0.65158504
1824 -0.52700156
1822 -0.58368689
1820 -0.84834218
1818 -1.163651
1816 -1.4278886
1814 -1.5785927
1812 -1.5931171
1810 -1.5287352
1808 -1.4233966
1806 -1.2955251
1804 -1.1567677
1802 -1.0080942
1800 -0.85356605
1798 -0.69915223
1796 -0.54608428
1794 -0.36764863
1792 -0.170222
1790 -0.04808059
1788 0.025454216
1786 -0.012694638
1784 -0.10912424
1782 -0.16631691
1780 -0.17638336
1778 -0.023175955
1776 0.23908669
1774 0.5953247
1772 0.92140752
1770 1.0062604
1768 0.90156019
1766 0.62179029
1764 0.33615479
1762 0.19556822
1760 0.063301601
1758 -0.15845406
1756 -0.31492701
1754 -0.33016318
1752 -0.041519761
1750 0.5572992
1748 1.2479473
1746 1.9355536
1744 2.1973805
1742 2.0562379
1740 1.7467543
1738 1.3646778
1736 1.29474
1734 1.4721149
1732 1.5859983
1730 1.621727
1728 1.2406901
1726 0.6050303
1724 0.12198685
1722 -0.16649213
1720 0.11869687
1718 0.90824008
1716 2.0392914
1714 3.1708343
1712 3.8431292
1710 4.2444544
1708 4.583704
1706 5.1778193
1704 6.3114605
1702 8.2130461
1700 10.967009
1698 14.422465
1696 18.386
1694 22.04771
1692 25.107191
1690 27.890793
1688 30.565708
1686 34.080791
1684 38.471504
1682 43.416553
1680 48.725719
1678 53.045586
1676 56.491516
1674 59.983456
1672 63.608109
1670 67.943283
1668 72.781883
1666 77.42395
1664 81.848061
1662 85.932068
1660 89.714874
1658 93.254761
1656 96.550629
1654 99.602806
1652 102.1982
1650 104.0994
1648 104.64349
1646 103.33215
1644 100.79675
1642 97.673271
1640 94.324562
1638 90.997223
1636 87.202896
1634 82.791306
1632 78.156029
1630 73.464615
1628 69.053093
1626 64.959694
1624 60.7122
1622 56.259357
1620 51.798061
1618 47.359871
1616 43.2052
1614 39.361195
1612 35.981808
1610 33.07925
1608 30.619879
1606 28.565191
1604 26.726883
1602 25.118904
1600 23.731955
1598 22.607555
1596 21.77
1594 21.214638
1592 20.894056
1590 20.75783
1588 20.730864
1586 20.825308
1584 21.037281
1582 21.447321
1580 22.08584
1578 23.053596
1576 24.374313
1574 25.906366
1572 27.594997
1570 29.140224
1568 30.47768
1566 31.701351
1564 32.830082
1562 34.277386
1560 36.155243
1558 38.966217
1556 42.669373
1554 46.11887
1552 49.107544
1550 51.078129
1548 52.169109
1546 53.205963
1544 54.210186
1542 55.239655
1540 55.934563
1538 55.776257
1536 54.799
1534 53.188358
1532 51.368343
1530 49.792206
1528 48.408463
1526 47.166149
1524 45.829517
1522 44.254318
1520 42.31675
1518 39.945168
1516 37.606129
1514 35.452522
1512 33.487518
1510 31.736202
1508 29.493723
1506 26.580999
1504 23.465841
1502 20.187754
1500 17.468981
1498 15.3981
1496 13.501715
1494 11.789857
1492 10.12
1490 8.4766588
1488 6.7986445
1486 5.0959392
1484 3.402792
1482 1.8763156
1480 0.74226987
1478 0.092672534
1476 0.03080678
1474 0.54885739
1472 1.5140778
1470 2.5169439
1468 3.2765663
1466 3.8461642
1464 4.2254772
1462 4.6906013
1460 5.3855281
1458 6.1928048
1456 7.1121202
1454 7.7326784
1452 7.8677192
1450 7.7534847
1448 7.3037252
1446 6.8353143
1444 6.3483062
1442 5.9027848
1440 5.5236225
1438 5.2307167
1436 5.0234184
1434 4.8000941
1432 4.541512
1430 4.2195654
1428 3.879308
1426 3.6314864
1424 3.5129199
1422 3.5576265
1420 3.7340202
1418 3.9924316
1416 4.2658682
1414 4.482409
1412 4.6760969
1410 4.8663101
1408 5.1009512
1406 5.4250779
1404 5.8007083
1402 6.2374887
1400 6.6659918
1398 7.0632205
1396 7.3553071
1394 7.4554024
1392 7.4278207
1390 7.1903682
1388 6.8891048
1386 6.48913
1384 6.0404797
1382 5.5351396
1380 5.0505962
1378 4.6077576
1376 4.2388744
1374 3.9408445
1372 3.6490901
1370 3.3580222
1368 3.0528021
1366 2.7467406
1364 2.4622734
1362 2.1747181
1360 1.8480246
1358 1.486915
1356 1.0863479
1354 0.69953758
1352 0.37722826
1350 0.11586473
1348 -0.051321372
1346 -0.14882536
1344 -0.11043544
1342 0.016799614
1340 0.30364338
1338 0.57179224
1336 0.78194517
1334 0.87468207
1332 0.76637661
1330 0.65522569
1328 0.55726111
1326 0.54965508
1324 0.67658609
1322 0.88539362
1320 1.1961474
1318 1.5530427
1316 1.9400799
1314 2.2809134
1312 2.5480616
1310 2.6917892
1308 2.7279129
1306 2.6809742
1304 2.5926526
1302 2.51336
1300 2.455966
1298 2.4506874
1296 2.4710572
1294 2.5167837
1292 2.5717158
1290 2.6365023
1288 2.7146881
1286 2.8249114
1284 2.9425273
1282 3.0728984
1280 3.1850955
1278 3.2569909
1276 3.3204658
1274 3.3746021
1272 3.4716725
1270 3.6462774
1268 3.877521
1266 4.1847816
1264 4.4963784
1262 4.8068247
1260 5.0909524
1258 5.355021
1256 5.635623
1254 5.9457803
1252 6.3180876
1250 6.7396479
1248 7.1994343
1246 7.6752253
1244 8.1423368
1242 8.5919609
1240 8.9944773
1238 9.3496275
1236 9.5916414
1234 9.7610445
1232 9.7621317
1230 9.6867876
1228 9.4176445
1226 9.0885782
1224 8.6019526
1222 8.0901079
1220 7.5200386
1218 6.9485731
1216 6.3789287
1214 5.8372374
1212 5.3521633
1210 4.9355464
1208 4.6166711
1206 4.3387637
1204 4.094636
1202 3.8017507
1200 3.4435394
1198 2.9858794
1196 2.4507287
1194 1.8878706
1192 1.3283331
1190 0.84904301
1188 0.42584792
1186 0.089068338
1184 -0.19749726
1182 -0.39377472
1180 -0.53074962
1178 -0.50977701
1176 -0.42999202
1174 -0.19955255
1172 0.043468922
1170 0.3000198
1168 0.52716619
1166 0.66430068
1164 0.78281146
1162 0.85749573
1160 0.93802971
1158 1.0263175
1156 1.0911371
1154 1.108166
1152 1.0564755
1150 0.90909433
1148 0.7120344
1146 0.4698264
1144 0.26035485
1142 0.094223052
1140 0.016457312
1138 0.010108858
1136 0.075909972
1134 0.1878141
1132 0.35458153
1130 0.54847693
1128 0.77448773
1126 1.0084114
1124 1.2376454
1122 1.4643722
1120 1.682384
1118 1.9011701
1116 2.1286614
1114 2.349453
1112 2.5409274
1110 2.7166975
1108 2.8445368
1106 2.983325
1104 3.1539371
1102 3.3701873
1100 3.6778102
1098 4.0196776
1096 4.4128571
1094 4.8026481
1092 5.191576
1090 5.602829
1088 6.0433369
1086 6.5403671
1084 7.0693846
1082 7.5218792
1080 7.895175
1078 8.0285931
1076 8.0322971
1074 7.8771687
1072 7.6793032
1070 7.5454979
1068 7.4445295
1066 7.4797235
1064 7.5388479
1062 7.6443939
1060 7.7517061
1058 7.8558035
1056 7.9605856
1054 8.067605
1052 8.1704178
1050 8.2611132
1048 8.3623133
1046 8.4914646
1044 8.652874
1042 8.8712282
1040 9.064641
1038 9.2141094
1036 9.2806301
1034 9.2477093
1032 9.1516533
1030 8.995266
1028 8.7900562
1026 8.5474157
1024 8.2648144
1022 7.952466
1020 7.546978
1018 7.0917482
1016 6.4845886
1014 5.8315568
1012 5.1217093
1010 4.4117684
1008 3.808816
1006 3.2310514
1004 2.8432467
1002 2.4654639
1000 2.1447217
998 1.8030509
996 1.3689443
994 0.929281
992 0.47583103
990 0.080725312
988 -0.17788371
986 -0.37657738
984 -0.47094357
982 -0.54953933
980 -0.60604459
978 -0.64262068
976 -0.65837884
974 -0.66931665
972 -0.67423284
970 -0.63965738
968 -0.57622385
966 -0.41833299
964 -0.22148669
962 -0.096328802
960 -0.0024074018
958 -0.081118703
956 -0.19451401
954 -0.26053104
952 -0.31467521
950 -0.22146799
948 -0.12331878
946 -0.040642716
944 0.0018927082
942 0.058011189
940 0.14798988
938 0.3815788
936 0.61739111
934 0.85810262
932 1.0407248
930 1.0997021
928 1.1487657
926 1.1836064
924 1.2833741
922 1.4623016
920 1.6671257
918 1.8966534
916 2.180203
914 2.5037696
912 2.9682658
910 3.506218
908 3.9671011
906 4.395977
904 4.5041375
902 4.5276279
900 4.4409008
898 4.3367438
896 4.4373002
