Image.
>Pix99999.
  .
5555
5555
2300
900
5555
2
1
0
701
5555
-1.7054001e-002
-1.7408494e-002
-1.7762985e-002
-1.8117478e-002
-1.8472966e-002
-1.8827464e-002
-1.9181956e-002
-1.9537440e-002
-1.9891944e-002
-2.0246437e-002
-2.0600928e-002
-2.0956406e-002
-2.1310914e-002
-2.1665405e-002
-2.2020878e-002
-2.2375394e-002
-2.2729887e-002
-2.3084378e-002
-2.3439845e-002
-2.3794364e-002
-2.4148857e-002
-2.4504319e-002
-2.4858844e-002
-2.5213337e-002
-2.5567830e-002
-2.5923286e-002
-9.6333714e-004
1.1140074e-002
2.8932281e-002
6.8711035e-002
1.1175810e-001
1.8043354e-001
2.4991967e-001
2.9618821e-001
3.3953589e-001
3.6872450e-001
3.9162564e-001
3.8937083e-001
3.7587380e-001
3.3239049e-001
2.9540858e-001
2.7630839e-001
2.7237362e-001
2.9145887e-001
3.1808847e-001
3.5235286e-001
3.9477363e-001
4.4456002e-001
4.7806242e-001
4.9901950e-001
4.9657643e-001
4.8115832e-001
4.8001626e-001
4.8552874e-001
5.1650810e-001
5.5560386e-001
5.8140719e-001
6.0402948e-001
6.0429168e-001
6.0202557e-001
6.6577512e-001
7.4087328e-001
8.7587208e-001
1.0046935e+000
1.0658988e+000
1.0926714e+000
1.0181860e+000
9.2048579e-001
7.8899598e-001
6.7120510e-001
5.8583403e-001
5.3967333e-001
5.4549181e-001
5.7018042e-001
6.1002392e-001
6.3650817e-001
6.4978582e-001
6.6137731e-001
6.7281526e-001
6.9829124e-001
7.3139572e-001
7.6439840e-001
7.9691166e-001
8.1756407e-001
8.3441156e-001
8.5397142e-001
8.7429374e-001
9.0715224e-001
9.4090593e-001
9.5358056e-001
9.6274000e-001
9.6765971e-001
9.7667986e-001
1.0061768e+000
1.0240917e+000
9.9803293e-001
9.5040673e-001
8.6969835e-001
8.1335795e-001
8.0623162e-001
8.2492715e-001
8.6810452e-001
8.8877630e-001
8.8245082e-001
8.6234629e-001
8.3369350e-001
8.3054227e-001
8.4488493e-001
8.9747936e-001
9.6917999e-001
1.0470359e+000
1.1264619e+000
1.1522040e+000
1.1606538e+000
1.1125760e+000
1.0515200e+000
9.9599820e-001
9.4693625e-001
9.4703138e-001
9.6015060e-001
9.9146688e-001
1.0154420e+000
1.0017940e+000
9.6941835e-001
9.0970731e-001
8.4603393e-001
7.8590178e-001
7.4083453e-001
7.1605182e-001
7.3084092e-001
7.8687924e-001
8.6924785e-001
9.7006518e-001
1.0357928e+000
1.0723126e+000
1.0613693e+000
1.0238628e+000
1.0024408e+000
9.9192417e-001
1.0188793e+000
1.0603200e+000
1.0730525e+000
1.0744188e+000
1.0335207e+000
9.8217374e-001
9.5169133e-001
9.2898357e-001
9.2705601e-001
9.2778575e-001
9.2224067e-001
9.1484714e-001
9.0985972e-001
9.1190481e-001
9.2359185e-001
9.3954676e-001
9.5242387e-001
9.5162284e-001
9.3297696e-001
9.0241152e-001
8.6564463e-001
8.6047602e-001
8.8734120e-001
9.5591551e-001
1.0526114e+000
1.1162171e+000
1.1553793e+000
1.1334908e+000
1.0798609e+000
1.0305840e+000
9.8440713e-001
9.4686842e-001
9.1123205e-001
8.6339307e-001
8.1215382e-001
7.8804320e-001
7.8173751e-001
8.2048446e-001
8.8038677e-001
9.4607812e-001
1.0020262e+000
1.0234230e+000
1.0189340e+000
9.8995239e-001
9.4257188e-001
8.8401371e-001
8.1427699e-001
7.3820299e-001
6.7374450e-001
6.1988121e-001
5.9536582e-001
5.8824885e-001
6.1080122e-001
6.5355730e-001
7.1668065e-001
7.9246867e-001
8.4245282e-001
8.7605721e-001
8.9128250e-001
8.9683783e-001
9.4338053e-001
1.0060400e+000
1.0786475e+000
1.1493617e+000
1.1717269e+000
1.1618171e+000
1.0818479e+000
9.6904063e-001
8.3328182e-001
7.0238656e-001
6.0740352e-001
5.2401900e-001
4.5048285e-001
3.7424898e-001
2.9575035e-001
2.5869304e-001
2.6066849e-001
3.0806339e-001
3.7927511e-001
4.4517207e-001
5.0571167e-001
5.2800459e-001
5.2732080e-001
4.5137107e-001
3.3322403e-001
1.4643024e-001
-7.0516355e-002
-2.3155469e-001
-3.5262200e-001
-3.3821321e-001
-2.6080734e-001
-1.5122372e-001
-3.7494540e-002
5.6200586e-002
1.3633169e-001
1.8897471e-001
2.3559150e-001
2.7087325e-001
3.0180320e-001
3.3527300e-001
3.5495043e-001
3.6323744e-001
3.4544939e-001
3.0255705e-001
2.5124294e-001
1.9634245e-001
1.5644899e-001
1.3200782e-001
5.3221542e-002
-7.3381379e-002
-2.5772354e-001
-4.7806215e-001
-5.5107909e-001
-5.2246517e-001
-3.2734823e-001
-4.4243883e-002
1.7832944e-001
3.5042933e-001
4.2268285e-001
4.2674813e-001
3.7100390e-001
2.8986743e-001
2.3895477e-001
2.3928882e-001
3.1880805e-001
4.1315868e-001
4.3193543e-001
3.6394560e-001
2.1136272e-001
5.3657427e-002
-1.3484758e-001
-2.9553771e-001
-3.6830041e-001
-4.0485755e-001
-4.2653921e-001
-4.8504874e-001
-5.9375465e-001
-7.2191215e-001
-8.7047863e-001
-9.8035723e-001
-1.0491103e+000
-9.9733806e-001
-8.4801990e-001
-6.1251628e-001
-3.3237737e-001
-1.7056920e-001
-1.0636841e-001
-9.4427481e-002
-1.0074800e-001
5.2647069e-003
2.3929642e-001
7.1169001e-001
1.3294961e+000
1.9034005e+000
2.4028785e+000
2.8171101e+000
3.3199809e+000
4.0981698e+000
5.4464369e+000
7.5126076e+000
1.0598215e+001
1.4674144e+001
1.8927231e+001
2.2967072e+001
2.6503662e+001
2.9574171e+001
3.2990791e+001
3.6874859e+001
4.1464127e+001
4.6608841e+001
5.1122204e+001
5.5036602e+001
5.8815147e+001
6.2572056e+001
6.6935539e+001
7.1724968e+001
7.6279396e+001
8.0519600e+001
8.4160576e+001
8.7269783e+001
8.9974579e+001
9.2315720e+001
9.4381004e+001
9.6109879e+001
9.7439430e+001
9.8114235e+001
9.7898178e+001
9.6942101e+001
9.5477798e+001
9.3461151e+001
9.0971558e+001
8.7694641e+001
8.3594200e+001
7.9196793e+001
7.4716995e+001
7.0339920e+001
6.6108307e+001
6.1684841e+001
5.7048084e+001
5.2585320e+001
4.8324917e+001
4.4457058e+001
4.0983414e+001
3.7921402e+001
3.5264469e+001
3.2941853e+001
3.0940565e+001
2.9154686e+001
2.7620811e+001
2.6371469e+001
2.5418287e+001
2.4735001e+001
2.4300501e+001
2.4047943e+001
2.3960581e+001
2.3996473e+001
2.4149458e+001
2.4408886e+001
2.4758039e+001
2.5187185e+001
2.5759666e+001
2.6492313e+001
2.7434494e+001
2.8578772e+001
2.9821115e+001
3.1130800e+001
3.2393463e+001
3.3598141e+001
3.4856701e+001
3.6240292e+001
3.8294735e+001
4.1090000e+001
4.4170219e+001
4.7333092e+001
4.9762325e+001
5.1451775e+001
5.2810856e+001
5.3843922e+001
5.4662849e+001
5.5173000e+001
5.5201096e+001
5.4768715e+001
5.3988197e+001
5.2973454e+001
5.1941917e+001
5.0842350e+001
4.9636398e+001
4.8204258e+001
4.6451256e+001
4.4531429e+001
4.2466225e+001
4.0526615e+001
3.8820454e+001
3.7010483e+001
3.5051331e+001
3.2465084e+001
2.9087770e+001
2.5723629e+001
2.2434423e+001
1.9732845e+001
1.7689091e+001
1.5715858e+001
1.3816730e+001
1.1897391e+001
9.9717293e+000
8.0602045e+000
6.2065825e+000
4.4884701e+000
2.9712567e+000
1.7590920e+000
8.6696851e-001
2.6897013e-001
1.0551230e-001
4.1012463e-001
9.2942834e-001
1.5619477e+000
2.1319764e+000
2.5582607e+000
2.9186928e+000
3.2449002e+000
3.6537406e+000
4.1938200e+000
4.8020949e+000
5.4624319e+000
5.9803452e+000
6.2674251e+000
6.4422998e+000
6.4647913e+000
6.4372029e+000
6.3397489e+000
6.1530519e+000
5.8505783e+000
5.4072433e+000
4.8386493e+000
4.2673388e+000
3.7224240e+000
3.2998049e+000
3.0052576e+000
2.8321359e+000
2.8070412e+000
2.9341781e+000
3.2004371e+000
3.5943711e+000
4.0135822e+000
4.4136033e+000
4.7806010e+000
5.1054578e+000
5.4197168e+000
5.7152624e+000
5.9868002e+000
6.2098923e+000
6.3923144e+000
6.4965715e+000
6.5703168e+000
6.5638366e+000
6.4991312e+000
6.3319302e+000
6.0891027e+000
5.7377930e+000
5.3206115e+000
4.8248744e+000
4.2839174e+000
3.7258844e+000
3.2086079e+000
2.7456284e+000
2.3506355e+000
1.9753556e+000
1.5545783e+000
1.1151636e+000
6.8276566e-001
3.2065731e-001
1.1953481e-001
8.7856948e-003
-7.1723773e-003
1.0275317e-002
4.0095784e-002
7.1669862e-002
1.1523080e-001
1.6748443e-001
2.4098890e-001
3.2486758e-001
4.2126313e-001
5.3362620e-001
6.4030957e-001
7.3614520e-001
8.0949694e-001
8.7143880e-001
9.3949878e-001
1.0374893e+000
1.1930017e+000
1.3961695e+000
1.6488600e+000
1.9002751e+000
2.1218972e+000
2.2738998e+000
2.3448608e+000
2.3393428e+000
2.2813570e+000
2.1958139e+000
2.1055484e+000
2.0255098e+000
1.9572001e+000
1.9025995e+000
1.8549654e+000
1.8129429e+000
1.7811760e+000
1.7717564e+000
1.7856529e+000
1.8523276e+000
1.9358498e+000
2.0536330e+000
2.1655071e+000
2.2702351e+000
2.3680937e+000
2.4623959e+000
2.5714738e+000
2.7015193e+000
2.8504605e+000
3.0194080e+000
3.2011099e+000
3.3973331e+000
3.6050973e+000
3.8214900e+000
4.0381293e+000
4.2533550e+000
4.4647770e+000
4.6774998e+000
4.8958583e+000
5.1130419e+000
5.3154006e+000
5.4939456e+000
5.6087170e+000
5.6778536e+000
5.6389761e+000
5.5443826e+000
5.3048801e+000
5.0185757e+000
4.6093435e+000
4.1767726e+000
3.6885843e+000
3.1963010e+000
2.6993971e+000
2.2260656e+000
1.7998526e+000
1.4240593e+000
1.1212056e+000
8.5419106e-001
6.2470281e-001
3.9403856e-001
1.6056660e-001
-8.1571460e-002
-3.2227287e-001
-5.3218114e-001
-7.0871669e-001
-8.1835043e-001
-8.9037275e-001
-9.2882437e-001
-9.5617425e-001
-9.8325419e-001
-9.9806148e-001
-9.6121156e-001
-8.9152199e-001
-7.1584022e-001
-5.1435208e-001
-2.3929405e-001
2.8307766e-002
2.6762286e-001
4.6982905e-001
5.7835472e-001
6.4987385e-001
6.4696163e-001
6.1981285e-001
5.5212623e-001
4.6498787e-001
3.5473308e-001
2.5025138e-001
1.5786178e-001
1.0019879e-001
7.0847213e-002
4.2259939e-002
6.9639832e-003
-6.8611600e-002
-1.5796861e-001
-1.8034755e-001
-1.5334627e-001
-3.4512579e-004
1.9385937e-001
4.2540446e-001
6.4678562e-001
7.7920485e-001
8.8780755e-001
9.1300517e-001
9.4324172e-001
1.0010270e+000
1.0707710e+000
1.1769305e+000
1.2753249e+000
1.3514429e+000
1.3997380e+000
1.3903046e+000
1.3420902e+000
1.2385571e+000
1.1582891e+000
1.1217840e+000
1.2000208e+000
1.3957670e+000
1.6451250e+000
1.9229631e+000
2.1142461e+000
2.2388999e+000
2.2487311e+000
2.2025144e+000
2.1208994e+000
2.0320470e+000
1.9761976e+000
1.9259638e+000
1.8669658e+000
1.8079480e+000
1.7587982e+000
1.7259946e+000
1.7950537e+000
1.8650343e+000
1.9357042e+000
1.9671485e+000
1.8727610e+000
1.7496216e+000
1.5594714e+000
1.3891073e+000
1.2554981e+000
1.1361349e+000
1.0348251e+000
9.1683501e-001
7.8007829e-001
6.4135998e-001
5.0171983e-001
3.6373550e-001
2.2738165e-001
9.3167976e-002
-4.0525392e-002
-1.7756258e-001
-3.1653601e-001
-4.5842513e-001
-5.9459102e-001
-6.5924919e-001
-7.0834678e-001
-7.1979761e-001
-7.3879057e-001
-8.8463974e-001
-1.0449103e+000
-1.2958949e+000
-1.5268841e+000
-1.6676857e+000
-1.7596470e+000
-1.7002869e+000
-1.6159127e+000
-1.4758332e+000
-1.3520900e+000
-1.2566023e+000
-1.1769512e+000
-1.1187940e+000
-1.0800105e+000
-1.0626714e+000
-1.0666755e+000
-1.0863013e+000
-1.0798949e+000
-1.0564692e+000
-1.0206214e+000
-9.8036551e-001
-9.6506947e-001
-9.5608574e-001
-9.0094298e-001
-8.3289301e-001
-6.8857658e-001
-5.3509921e-001
-3.7930286e-001
-2.2358114e-001
-7.2140142e-002
2.3454204e-003
7.2631523e-002
1.9974683e-001
2.8837419e-001
3.6869457e-001
4.2514557e-001
4.8241970e-001
5.4136682e-001
5.9746355e-001
6.4962411e-001
7.2304440e-001
8.2338715e-001
9.6476561e-001
1.1443325e+000
1.3500013e+000
1.5732824e+000
1.7580948e+000
1.9228101e+000
2.0034337e+000
2.0542722e+000
2.1483109e+000
2.2554829e+000
2.4612353e+000
2.6831191e+000
2.7662001e+000
