Image.
>Pix99999.
  .
5555
5555
2300
900
5555
2
1
0
701
5555
6.4917998e-003
6.6269068e-003
6.7619137e-003
6.8970202e-003
7.0320275e-003
7.1671340e-003
7.3020421e-003
7.4370480e-003
7.5722528e-003
7.7076564e-003
7.8422744e-003
7.9757990e-003
8.1123551e-003
8.2530808e-003
8.3826100e-003
8.4965620e-003
8.6522158e-003
8.8659683e-003
8.9248838e-003
8.7667517e-003
9.1843856e-003
1.0411434e-002
9.4980570e-003
5.5670999e-003
9.5902616e-003
2.8378600e-002
3.8761120e-002
1.4915653e-002
-4.5820799e-002
-1.3503200e-001
-2.2626285e-001
-2.9455692e-001
-3.4150392e-001
-3.7592137e-001
-4.0488309e-001
-4.3322200e-001
-4.5927441e-001
-4.7925925e-001
-4.8870742e-001
-4.8197567e-001
-4.4950229e-001
-3.8436192e-001
-2.9496521e-001
-1.9539005e-001
-1.0387316e-001
-3.5893995e-002
9.1159884e-003
3.4591593e-002
3.5557687e-002
5.7144971e-003
-5.5718865e-002
-1.4315672e-001
-2.3232703e-001
-2.9915872e-001
-3.4434503e-001
-3.7785915e-001
-4.1504040e-001
-4.6697310e-001
-5.2083570e-001
-5.5902660e-001
-5.7596314e-001
-5.7255876e-001
-5.5957782e-001
-5.4875040e-001
-5.4290283e-001
-5.4153007e-001
-5.4296160e-001
-5.4476577e-001
-5.4276413e-001
-5.3350669e-001
-5.1902002e-001
-5.0299907e-001
-4.8852187e-001
-4.7644475e-001
-4.5972097e-001
-4.3184537e-001
-3.9997143e-001
-3.7648061e-001
-3.7550282e-001
-4.0742311e-001
-4.6525830e-001
-5.3601891e-001
-6.0751194e-001
-6.7083824e-001
-7.2882116e-001
-7.8839034e-001
-8.5601741e-001
-9.3398416e-001
-1.0085034e+000
-1.0611809e+000
-1.0790029e+000
-1.0564270e+000
-1.0096320e+000
-9.6279520e-001
-9.4108909e-001
-9.6457404e-001
-1.0327158e+000
-1.1337807e+000
-1.2415380e+000
-1.3272746e+000
-1.3737000e+000
-1.3727399e+000
-1.3359764e+000
-1.2817988e+000
-1.2259903e+000
-1.1801300e+000
-1.1433758e+000
-1.1108067e+000
-1.0825583e+000
-1.0614988e+000
-1.0540172e+000
-1.0645592e+000
-1.0828279e+000
-1.0947889e+000
-1.0959978e+000
-1.0896322e+000
-1.0915704e+000
-1.1193511e+000
-1.1767642e+000
-1.2590950e+000
-1.3530115e+000
-1.4413614e+000
-1.5062732e+000
-1.5350168e+000
-1.5380771e+000
-1.5354357e+000
-1.5470361e+000
-1.5864538e+000
-1.6428114e+000
-1.6983827e+000
-1.7496214e+000
-1.8007809e+000
-1.8594915e+000
-1.9297870e+000
-1.9961572e+000
-2.0332179e+000
-2.0110612e+000
-1.9083487e+000
-1.7470691e+000
-1.5739117e+000
-1.4568400e+000
-1.4565636e+000
-1.5671620e+000
-1.7480503e+000
-1.9432800e+000
-2.0987227e+000
-2.1899774e+000
-2.2111561e+000
-2.1727562e+000
-2.0929101e+000
-1.9929571e+000
-1.8930774e+000
-1.8046875e+000
-1.7360104e+000
-1.7003940e+000
-1.7111171e+000
-1.7685125e+000
-1.8637313e+000
-1.9760977e+000
-2.0793085e+000
-2.1468201e+000
-2.1546330e+000
-2.0886705e+000
-1.9503928e+000
-1.7860428e+000
-1.6586014e+000
-1.6097349e+000
-1.6563761e+000
-1.7639201e+000
-1.8796840e+000
-1.9811457e+000
-2.0639725e+000
-2.1273012e+000
-2.1691792e+000
-2.1802289e+000
-2.1534500e+000
-2.1069462e+000
-2.0689225e+000
-2.0526938e+000
-2.0590315e+000
-2.0730944e+000
-2.0769000e+000
-2.0720899e+000
-2.0691445e+000
-2.0699532e+000
-2.0662065e+000
-2.0285733e+000
-1.9275571e+000
-1.7784714e+000
-1.6211820e+000
-1.4924185e+000
-1.4173713e+000
-1.3878742e+000
-1.3835968e+000
-1.4099228e+000
-1.4826642e+000
-1.5950280e+000
-1.7198400e+000
-1.8021295e+000
-1.7856016e+000
-1.6699142e+000
-1.4962522e+000
-1.3426731e+000
-1.2929410e+000
-1.3752205e+000
-1.5722529e+000
-1.8138644e+000
-2.0118515e+000
-2.1211207e+000
-2.1306505e+000
-2.0589101e+000
-1.9353751e+000
-1.7735245e+000
-1.5820962e+000
-1.3958426e+000
-1.2618915e+000
-1.2093686e+000
-1.2459360e+000
-1.3400592e+000
-1.4435511e+000
-1.5346457e+000
-1.6099052e+000
-1.6656283e+000
-1.6985765e+000
-1.7162880e+000
-1.7319964e+000
-1.7542963e+000
-1.7830093e+000
-1.7957994e+000
-1.7600583e+000
-1.6582057e+000
-1.4868851e+000
-1.2562926e+000
-9.9094284e-001
-7.4594331e-001
-5.8889616e-001
-5.5949378e-001
-6.6467774e-001
-8.5426998e-001
-1.0477231e+000
-1.1842057e+000
-1.2300062e+000
-1.1988648e+000
-1.1283978e+000
-1.0334944e+000
-9.1205049e-001
-7.6873189e-001
-6.1789316e-001
-4.8725653e-001
-4.0229762e-001
-3.4120429e-001
-2.5860891e-001
-1.5178640e-001
-4.9294371e-002
2.8254142e-002
7.4481085e-002
1.0448516e-001
1.4449844e-001
2.0935449e-001
3.0666870e-001
4.5516774e-001
6.6801375e-001
8.9162272e-001
1.0293597e+000
1.0082408e+000
8.0318296e-001
5.0343239e-001
2.5051209e-001
6.4457826e-002
-1.1223240e-001
-2.4333999e-001
-2.2736247e-001
-3.5680518e-002
2.8006262e-001
5.9389150e-001
7.5264466e-001
6.8926764e-001
4.3364590e-001
1.4038801e-001
1.6823828e-002
1.2917508e-001
4.0253174e-001
6.5263748e-001
6.6735297e-001
4.1116324e-001
1.1036351e-002
-3.1902575e-001
-3.3462310e-001
1.3733703e-001
1.1477095e+000
2.4636700e+000
3.6803200e+000
4.5760775e+000
5.1531153e+000
5.6437020e+000
6.4201050e+000
7.7860188e+000
9.9291401e+000
1.2858578e+001
1.6404390e+001
2.0166286e+001
2.3644039e+001
2.6643000e+001
2.9304020e+001
3.2061493e+001
3.5494984e+001
3.9944447e+001
4.5396149e+001
5.1229080e+001
5.6514828e+001
6.1076973e+001
6.5427811e+001
7.0023819e+001
7.5053841e+001
8.0204567e+001
8.4829552e+001
8.8579773e+001
9.1452026e+001
9.3566559e+001
9.5089127e+001
9.6156342e+001
9.6849663e+001
9.7154404e+001
9.6970718e+001
9.6158730e+001
9.4615219e+001
9.2511551e+001
9.0225754e+001
8.7950722e+001
8.5644623e+001
8.3139175e+001
8.0223282e+001
7.6852676e+001
7.3136307e+001
6.9133759e+001
6.4834076e+001
6.0245998e+001
5.5427666e+001
5.0526001e+001
4.5752647e+001
4.1264114e+001
3.7152676e+001
3.3503563e+001
3.0392130e+001
2.7816521e+001
2.5697285e+001
2.3944891e+001
2.2484283e+001
2.1284943e+001
2.0357874e+001
1.9711500e+001
1.9339840e+001
1.9216028e+001
1.9296759e+001
1.9559471e+001
2.0007608e+001
2.0649624e+001
2.1502810e+001
2.2630678e+001
2.4136757e+001
2.6100344e+001
2.8545149e+001
3.1376812e+001
3.4396099e+001
3.7431721e+001
4.0373455e+001
4.3161671e+001
4.5810478e+001
4.8503269e+001
5.1495033e+001
5.4577072e+001
5.7080410e+001
5.8582924e+001
5.9089073e+001
5.8909714e+001
5.8532570e+001
5.8147747e+001
5.7561008e+001
5.6465801e+001
5.4590229e+001
5.2017914e+001
4.9203545e+001
4.6535564e+001
4.4206924e+001
4.2224178e+001
4.0428600e+001
3.8648151e+001
3.6747478e+001
3.4669125e+001
3.2450916e+001
3.0211157e+001
2.8110207e+001
2.6153240e+001
2.4157701e+001
2.1940353e+001
1.9402758e+001
1.6673532e+001
1.4100397e+001
1.1897182e+001
1.0051018e+001
8.4591141e+000
6.9820933e+000
5.5554504e+000
4.2106628e+000
2.9687035e+000
1.8215778e+000
8.0373698e-001
9.6476674e-003
-4.5932201e-001
-5.0867987e-001
-4.2660296e-002
1.0013533e+000
2.4889393e+000
4.0695329e+000
5.4904227e+000
6.6989012e+000
7.7586327e+000
8.8177547e+000
9.9816465e+000
1.1257703e+001
1.2535000e+001
1.3589800e+001
1.4255445e+001
1.4483171e+001
1.4310354e+001
1.3852179e+001
1.3228088e+001
1.2535830e+001
1.1844714e+001
1.1185003e+001
1.0527472e+001
9.7846193e+000
8.9187489e+000
7.9834003e+000
7.0847101e+000
6.3647575e+000
5.9117966e+000
5.7224236e+000
5.7419810e+000
5.8765130e+000
6.0473886e+000
6.2162151e+000
6.3866916e+000
6.6061325e+000
6.9086623e+000
7.2918601e+000
7.7235303e+000
8.1396303e+000
8.4651356e+000
8.6251020e+000
8.5750647e+000
8.3207579e+000
7.9109459e+000
7.4357224e+000
6.9639807e+000
6.5178299e+000
6.1002560e+000
5.7020407e+000
5.3170772e+000
4.9455423e+000
4.5744972e+000
4.1712079e+000
3.7115982e+000
3.1942039e+000
2.6376433e+000
2.0808456e+000
1.5507132e+000
1.0504954e+000
5.8877498e-001
1.9239718e-001
-9.8177418e-002
-2.2915445e-001
-1.5418892e-001
1.5071827e-001
6.7024595e-001
1.3373857e+000
2.0909760e+000
2.8932323e+000
3.6848905e+000
4.3645267e+000
4.8284745e+000
4.9960027e+000
4.8564525e+000
4.5038400e+000
4.0457025e+000
3.5705779e+000
3.1465278e+000
2.8119857e+000
2.5816736e+000
2.4403796e+000
2.3577299e+000
2.2910981e+000
2.2076318e+000
2.0966768e+000
1.9584448e+000
1.8036307e+000
1.6479474e+000
1.5117520e+000
1.4192371e+000
1.3988650e+000
1.4767572e+000
1.6721036e+000
1.9942522e+000
2.4362369e+000
2.9764080e+000
3.5731542e+000
4.1797481e+000
4.7495298e+000
5.2453718e+000
5.6486158e+000
5.9563427e+000
6.1873841e+000
6.3720970e+000
6.5526690e+000
6.7692251e+000
7.0518203e+000
7.4176240e+000
7.8651567e+000
8.3907957e+000
8.9960737e+000
9.6883774e+000
1.0482773e+001
1.1386455e+001
1.2387546e+001
1.3466857e+001
1.4597250e+001
1.5743382e+001
1.6855230e+001
1.7872143e+001
1.8712717e+001
1.9302614e+001
1.9589725e+001
1.9538401e+001
1.9142258e+001
1.8413868e+001
1.7393372e+001
1.6137875e+001
1.4728302e+001
1.3261354e+001
1.1850309e+001
1.0602543e+001
9.6040535e+000
8.9157591e+000
8.5538225e+000
8.4962406e+000
8.6610155e+000
8.9305782e+000
9.1469297e+000
9.1700153e+000
8.9218807e+000
8.3819361e+000
7.6200581e+000
6.7310114e+000
5.8158312e+000
4.9569998e+000
4.1931648e+000
3.5442200e+000
3.0121918e+000
2.5961177e+000
2.2968020e+000
2.1059201e+000
1.9946786e+000
1.9293048e+000
1.8772290e+000
1.8194840e+000
1.7657964e+000
1.7272846e+000
1.7025660e+000
1.6807868e+000
1.6376210e+000
1.5535743e+000
1.4284910e+000
1.2704828e+000
1.0963123e+000
9.2105877e-001
7.5073570e-001
5.8677363e-001
4.2418745e-001
2.5200808e-001
5.0842941e-002
-1.8385743e-001
-4.1785380e-001
-6.1696041e-001
-7.6896447e-001
-8.6510634e-001
-8.9350092e-001
-8.5164821e-001
-7.6191944e-001
-6.5546280e-001
-5.6829572e-001
-5.1855367e-001
-4.7869506e-001
-4.2049941e-001
-3.4203956e-001
-2.5466710e-001
-1.8519750e-001
-1.4601240e-001
-1.0402221e-001
-1.8546432e-002
1.4083968e-001
3.8407141e-001
6.7606115e-001
9.8174882e-001
1.2948140e+000
1.6227715e+000
1.9893279e+000
2.4021955e+000
2.8170564e+000
3.1710846e+000
3.3878579e+000
3.4082658e+000
3.2294359e+000
2.8873463e+000
2.4853120e+000
2.1355970e+000
1.9274250e+000
1.9050120e+000
2.0050628e+000
2.1367977e+000
2.2087226e+000
2.1622400e+000
2.0312188e+000
1.8735356e+000
1.7497610e+000
1.7024308e+000
1.7210001e+000
1.7765818e+000
1.8249784e+000
1.8326315e+000
1.8075398e+000
1.7765701e+000
1.7904433e+000
1.8845634e+000
2.0308251e+000
2.1765051e+000
2.2426572e+000
2.1653910e+000
1.9445119e+000
1.6059688e+000
1.2069738e+000
8.0276287e-001
4.2026162e-001
7.6221615e-002
-2.2187860e-001
-4.6892118e-001
-6.6064423e-001
-8.0256069e-001
-9.2953479e-001
-1.0757439e+000
-1.2502621e+000
-1.4482213e+000
-1.6405820e+000
-1.8007075e+000
-1.9285083e+000
-2.0275226e+000
-2.0919492e+000
-2.1124132e+000
-2.0752187e+000
-1.9736180e+000
-1.8278420e+000
-1.6609257e+000
-1.4850781e+000
-1.3144815e+000
-1.1795305e+000
-1.1081480e+000
-1.1061150e+000
-1.1577866e+000
-1.1949463e+000
-1.1541880e+000
-1.0355678e+000
-8.6060047e-001
-6.7283612e-001
-5.0761962e-001
-3.5350591e-001
-1.9845501e-001
-6.8676613e-002
1.0675553e-002
5.2136689e-002
7.3248088e-002
7.6055080e-002
6.2704630e-002
4.9731411e-002
5.8158107e-002
1.1233010e-001
2.3700286e-001
4.5513692e-001
7.7436197e-001
1.1468083e+000
1.5118183e+000
1.8142120e+000
2.0173428e+000
2.1528015e+000
2.2614892e+000
2.3564391e+000
2.4295204e+000
2.4192944e+000
2.2782874e+000
2.0664780e+000
1.8753222e+000
1.8135592e+000
1.9947000e+000
