##TITLE=Methyl Ethyl Ketone
##JCAMP-DX=4.24
##DATA TYPE=INFRARED SPECTRUM
##XUNITS=cm-1
##YUNITS=Absorbance
##FIRSTX=900
##LASTX=2300
##XYDATA=(X++(Y..Y))
2296 0.12779
2294 0.13050611
2292 0.13322222
2290 0.13592839
2288 0.13864446
2286 0.14136057
2284 0.14407668
2282 0.1467928
2280 0.14950892
2278 0.15222503
2276 0.15494114
2274 0.15765727
2272 0.16036354
2270 0.16307949
2268 0.16579559
2266 0.16851172
2264 0.17122783
2262 0.17394394
2260 0.17666006
2258 0.17937617
2256 0.18209229
2254 0.1847987
2252 0.18751451
2250 0.19023062
2248 0.19294675
2246 0.19566286
2244 0.12058974
2242 0.0045394711
2240 -0.098169602
2238 -0.12736499
2236 -0.14587
2234 -0.12083615
2232 -0.090943679
2230 -0.02162171
2228 0.055634603
2226 0.18083885
2224 0.29782397
2222 0.36583892
2220 0.40696782
2218 0.37402147
2216 0.31910285
2214 0.22530633
2212 0.1250872
2210 0.0181883
2208 -0.079189338
2206 -0.16416994
2204 -0.25615156
2202 -0.35560966
2200 -0.4200972
2198 -0.4580811
2196 -0.34495714
2194 -0.14574538
2192 0.098555714
2190 0.36009336
2188 0.46433145
2186 0.51708287
2184 0.51622361
2182 0.50378591
2180 0.51974219
2178 0.53936535
2176 0.50329745
2174 0.46102747
2172 0.40638116
2170 0.35480163
2168 0.32736668
2166 0.30746236
2164 0.30628493
2162 0.30909905
2160 0.3174164
2158 0.32086709
2156 0.31412101
2154 0.31472382
2152 0.32750279
2150 0.3680121
2148 0.43830788
2146 0.53250855
2144 0.64504665
2142 0.73850673
2140 0.81732213
2138 0.83125508
2136 0.81070828
2134 0.7478916
2132 0.66884524
2130 0.6375494
2128 0.6219908
2126 0.71476036
2124 0.83238417
2122 0.99736387
2120 1.168028
2118 1.3091687
2116 1.4384915
2114 1.511202
2112 1.551824
2110 1.4872419
2108 1.3927122
2106 1.2543786
2104 1.13806
2102 1.0847111
2100 1.058046
2098 1.0605383
2096 1.0673286
2094 1.0740334
2092 1.0972968
2090 1.1376876
2088 1.1698834
2086 1.1936951
2084 1.184626
2082 1.1548678
2080 1.1295183
2078 1.1077323
2076 1.1225214
2074 1.1522367
2072 1.181476
2070 1.2099154
2068 1.2028637
2066 1.1863928
2064 1.153816
2062 1.1222481
2060 1.1388003
2058 1.179471
2056 1.3008286
2054 1.4392074
2052 1.5800385
2050 1.6905081
2048 1.7200731
2046 1.6875072
2044 1.5638701
2042 1.3927761
2040 1.1782771
2038 0.97469974
2036 0.79621798
2034 0.68832868
2032 0.6440798
2030 0.66482919
2028 0.72678971
2026 0.78277087
2024 0.82977277
2022 0.88855392
2020 0.95368856
2018 1.068802
2016 1.20538
2014 1.2929331
2012 1.3645175
2010 1.3769903
2008 1.374832
2006 1.37551
2004 1.3723177
2002 1.333243
2000 1.2813057
1998 1.2082305
1996 1.1341429
1994 1.0695605
1992 0.99329138
1990 0.89067864
1988 0.78126842
1986 0.67804271
1984 0.61925745
1982 0.62012893
1980 0.66853082
1978 0.75236005
1976 0.88476342
1974 1.0534061
1972 1.3030283
1970 1.6077267
1968 1.8651011
1966 2.0862565
1964 2.0619586
1962 1.9129643
1960 1.6659679
1958 1.383752
1956 1.2389343
1954 1.1483238
1952 1.1482463
1950 1.1762047
1948 1.176788
1946 1.1543
1944 1.0590189
1942 0.92964607
1940 0.78068477
1938 0.64615119
1936 0.56989861
1934 0.53544164
1932 0.54279178
1930 0.56479621
1928 0.58347934
1926 0.64727384
1924 0.76666325
1922 0.98701584
1920 1.3046217
1918 1.569729
1916 1.7732486
1914 1.8197465
1912 1.7564497
1910 1.6098093
1908 1.4207586
1906 1.1421522
1904 0.81933922
1902 0.5524807
1900 0.3162533
1898 0.30328041
1896 0.38469285
1894 0.53996861
1892 0.70606655
1890 0.76177251
1888 0.74176073
1886 0.58993113
1884 0.37869865
1882 0.13864094
1880 -0.076643795
1878 -0.21569663
1876 -0.23564799
1874 -0.096781157
1872 0.20251676
1870 0.65716076
1868 1.0206585
1866 1.2245343
1864 1.100044
1862 0.69066525
1860 0.25660783
1858 -0.13866468
1856 -0.33503571
1854 -0.39045072
1852 -0.2683076
1850 -0.050734393
1848 0.24633095
1846 0.57497996
1844 0.6345827
1842 0.54050153
1840 0.17632723
1838 -0.29168713
1836 -0.60502076
1834 -0.78614378
1832 -0.68782443
1830 -0.4214623
1828 0.01143837
1826 0.43278569
1824 0.65851879
1822 0.65405107
1820 0.32992923
1818 -0.12834617
1816 -0.61825973
1814 -0.9961729
1812 -1.2029897
1810 -1.2377075
1808 -1.1282406
1806 -0.90677899
1804 -0.61178112
1802 -0.28577441
1800 0.044748403
1798 0.33984923
1796 0.60373855
1794 0.80413711
1792 0.97127807
1790 0.9801079
1788 0.90077287
1786 0.73880792
1784 0.54543698
1782 0.44223255
1780 0.42451191
1778 0.61247909
1776 0.9339577
1774 1.3547471
1772 1.7012826
1770 1.6915032
1768 1.4127023
1766 0.91838652
1764 0.45116702
1762 0.21283355
1760 0.060533538
1758 -0.12271186
1756 -0.21672729
1754 -0.16894603
1752 0.22851375
1750 0.98394167
1748 1.8387594
1746 2.6884143
1744 3.0466075
1742 2.953589
1740 2.7306609
1738 2.4719832
1736 2.54386
1734 2.8635588
1732 2.8802075
1730 2.6505566
1728 1.8926114
1726 0.83892012
1724 0.088658094
1722 -0.308366
1720 0.11693349
1718 1.2313449
1716 2.9415386
1714 4.7085385
1712 5.7852988
1710 6.3863149
1708 6.710216
1706 7.26509
1704 8.4902029
1702 10.609792
1700 13.698236
1698 17.223808
1696 20.856714
1694 23.894211
1692 26.135397
1690 28.224625
1688 30.3846
1686 33.483135
1684 37.510876
1682 42.098125
1680 47.0592
1678 51.187813
1676 54.579231
1674 57.976768
1672 61.444218
1670 65.414795
1668 69.743515
1666 73.987801
1664 78.155312
1662 82.213547
1660 86.151558
1658 89.907204
1656 93.487175
1654 96.887924
1652 99.916481
1650 102.36793
1648 103.45132
1646 102.61929
1644 100.43979
1642 97.495148
1640 94.256294
1638 91.009552
1636 87.301514
1634 83.007195
1632 78.449432
1630 73.784576
1628 69.42968
1626 65.426102
1624 61.41724
1622 57.345005
1620 53.321426
1618 49.355068
1616 45.493172
1614 41.763889
1612 38.322918
1610 35.22084
1608 32.585999
1606 30.393364
1604 28.495861
1602 26.890444
1600 25.522537
1598 24.408543
1596 23.530499
1594 22.868837
1592 22.370178
1590 22.010817
1588 21.753189
1586 21.661306
1584 21.760017
1582 22.12191
1580 22.758772
1578 23.707188
1576 24.964487
1574 26.375429
1572 27.897429
1570 29.24205
1568 30.353559
1566 31.338921
1564 32.216133
1562 33.512596
1560 35.344322
1558 38.099644
1556 41.671558
1554 44.720711
1552 47.119297
1550 48.684612
1548 49.626083
1546 50.788071
1544 52.170086
1542 53.70636
1540 54.852402
1538 54.874306
1536 53.822742
1534 51.943226
1532 49.857571
1530 48.154789
1528 46.777767
1526 45.666149
1524 44.568684
1522 43.348785
1520 41.748669
1518 39.671677
1516 37.502129
1514 35.347198
1512 33.42144
1510 31.761673
1508 29.681631
1506 27.009729
1504 24.067612
1502 20.899366
1500 18.276199
1498 16.29425
1496 14.518143
1494 12.938114
1492 11.353134
1490 9.7227755
1488 7.9884024
1486 6.1513314
1484 4.2583342
1482 2.5000558
1480 1.1273031
1478 0.26135314
1476 0.0011492148
1474 0.33074516
1472 1.2008928
1470 2.1025419
1468 2.7390192
1466 3.2217672
1464 3.5557394
1462 4.049624
1460 4.8683105
1458 5.8022466
1456 6.8354001
1454 7.4410758
1452 7.3899598
1450 7.0937538
1448 6.4925323
1446 5.928143
1444 5.4167743
1442 4.9582419
1440 4.5797758
1438 4.3257775
1436 4.1869102
1434 4.0472088
1432 3.8581023
1430 3.53777
1428 3.160624
1426 2.8868401
1424 2.7872107
1422 2.9331024
1420 3.2307568
1418 3.5648661
1416 3.81846
1414 3.864892
1412 3.852047
1410 3.8523598
1408 3.9353018
1406 4.1622524
1404 4.4501114
1402 4.8091288
1400 5.1900401
1398 5.6013913
1396 5.9381504
1394 6.1375756
1392 6.1906691
1390 6.0279741
1388 5.8079309
1386 5.501925
1384 5.1338987
1382 4.685648
1380 4.2325563
1378 3.7949812
1376 3.4608572
1374 3.2234929
1372 3.0294039
1370 2.8611062
1368 2.6584423
1366 2.432683
1364 2.1763337
1362 1.8750647
1360 1.5165012
1358 1.1372402
1356 0.77784473
1354 0.47425973
1352 0.26310611
1350 0.092701241
1348 -0.053394116
1346 -0.17685822
1344 -0.2074644
1342 -0.14606607
1340 0.086853027
1338 0.29313654
1336 0.4308877
1334 0.43147027
1332 0.23047957
1330 0.049119666
1328 -0.073370278
1326 -0.063253559
1324 0.12767066
1322 0.42233792
1320 0.82424057
1318 1.2420952
1316 1.64289
1314 1.9471107
1312 2.1456428
1310 2.2241867
1308 2.2106118
1306 2.1248615
1304 1.9900098
1302 1.818939
1300 1.6430289
1298 1.506918
1296 1.4123572
1294 1.4065251
1292 1.4365578
1290 1.5133334
1288 1.5930359
1286 1.6655722
1284 1.7156397
1282 1.7129078
1280 1.6914136
1278 1.6348305
1276 1.6100543
1274 1.647745
1272 1.7423354
1270 1.9247242
1268 2.1254156
1266 2.3528492
1264 2.579541
1262 2.8179111
1260 3.0898621
1258 3.4064963
1256 3.7753258
1254 4.1857724
1252 4.6016002
1250 5.0125546
1248 5.3928947
1246 5.7618999
1244 6.1496372
1242 6.5417647
1240 6.929688
1238 7.2686143
1236 7.4492359
1234 7.5502625
1232 7.4854598
1230 7.395844
1228 7.2779617
1226 7.1523623
1224 7.0037298
1222 6.8261294
1220 6.5784197
1218 6.2981482
1216 5.9474373
1214 5.5409374
1212 5.0367975
1210 4.4840155
1208 3.8750956
1206 3.3027008
1204 2.7800441
1202 2.3019161
1200 1.8578194
1198 1.3905786
1196 0.90905499
1194 0.43956244
1192 -0.0018205643
1190 -0.35343641
1188 -0.64069247
1186 -0.82388031
1184 -0.95822591
1182 -1.0310303
1180 -1.0783114
1178 -1.0806742
1176 -1.054438
1174 -0.93851715
1172 -0.80796593
1170 -0.63991398
1168 -0.48631316
1166 -0.3742055
1164 -0.26482093
1162 -0.16057414
1160 -0.045922734
1158 0.087466002
1156 0.21621257
1154 0.3318125
1152 0.41456756
1150 0.44666672
1148 0.43018621
1146 0.35914609
1144 0.26184556
1142 0.14868808
1140 0.064335354
1138 0.013467602
1136 0.039634939
1134 0.11970425
1132 0.31144947
1130 0.56314528
1128 0.90401804
1126 1.2842815
1124 1.7420849
1122 2.2170942
1120 2.7109919
1118 3.1983802
1116 3.6418073
1114 4.0636735
1112 4.3955917
1110 4.6859336
1108 4.8440843
1106 4.9816451
1104 5.0731468
1102 5.1930618
1100 5.369544
1098 5.5643754
1096 5.7871428
1094 6.0106072
1092 6.2441039
1090 6.5423384
1088 6.9162664
1086 7.3852892
1084 7.9189525
1082 8.4025307
1080 8.8300114
1078 9.0738468
1076 9.2185698
1074 9.2429686
1072 9.2182188
1070 9.1191826
1068 8.9930286
1066 8.7862015
1064 8.5897512
1062 8.5463848
1060 8.5591536
1058 8.8839598
1056 9.2013741
1054 9.480072
1052 9.6703939
1050 9.5787058
1048 9.4539051
1046 9.2568254
1044 9.1250372
1042 9.1193924
1040 9.1686172
1038 9.2937593
1036 9.3867598
1034 9.4313822
1032 9.3559008
1030 9.1572199
1028 8.7884674
1026 8.2965994
1024 7.7382278
1022 7.1577344
1020 6.7058411
1018 6.3104568
1016 5.9863229
1014 5.6734529
1012 5.2734728
1010 4.8600564
1008 4.4635363
1006 4.0796394
1004 3.8286836
1002 3.5814462
1000 3.3503823
998 3.0777571
996 2.620007
994 2.1031351
992 1.4071269
990 0.75158006
988 0.19676611
986 -0.22279042
984 -0.40543592
982 -0.51919609
980 -0.54360378
978 -0.59390301
976 -0.66786116
974 -0.69613814
972 -0.68245482
970 -0.56825531
968 -0.39529353
966 -0.25061199
964 -0.12269038
962 -0.071264766
960 -0.04465669
958 -0.031881887
956 -0.020905873
954 0.0075965002
952 0.037158959
950 0.03850814
948 0.037120499
946 0.012234857
944 0.0074341744
942 0.22567743
940 0.50262511
938 1.02816
936 1.57086
934 2.163327
932 2.7449822
930 3.2997456
928 3.6987469
926 3.8446493
924 3.7716079
922 3.4372103
920 3.3558314
918 3.5169253
916 4.1717486
914 5.1721745
912 5.9767113
910 6.6697102
908 6.6683917
906 6.3986616
904 6.0156288
902 5.6040058
900 5.8386674
898 6.1772289
896 6.8267002
