Image.
>Pix99999.
  .
5555
5555
2300
900
5555
2
1
0
701
5555
-4.0886998e-002
-4.1736785e-002
-4.2587567e-002
-4.3438349e-002
-4.4289131e-002
-4.5138922e-002
-4.5989700e-002
-4.6840481e-002
-4.7691263e-002
-4.8542045e-002
-4.9392831e-002
-5.0242625e-002
-5.1093392e-002
-5.1944178e-002
-5.2794959e-002
-5.3645741e-002
-5.4495551e-002
-5.5346310e-002
-5.6197092e-002
-5.7047874e-002
-5.7898659e-002
-5.8748469e-002
-5.9599221e-002
-6.0450006e-002
-6.1300792e-002
-6.2151574e-002
-2.3096171e-003
5.8038559e-002
1.1705788e-001
1.2353227e-001
1.2224557e-001
1.0144100e-001
7.9716653e-002
6.8715088e-002
5.9196651e-002
5.7367049e-002
5.6216475e-002
5.6345537e-002
5.4855149e-002
4.8181664e-002
4.1110028e-002
3.3799622e-002
3.0568801e-002
3.4021333e-002
3.8696371e-002
4.4383712e-002
4.3956123e-002
3.7578024e-002
2.9230075e-002
1.9705189e-002
2.6762359e-002
4.3424387e-002
6.4662986e-002
8.7625317e-002
8.6873136e-002
7.8378513e-002
6.8693720e-002
5.8847621e-002
5.1960591e-002
4.5472592e-002
3.5522573e-002
2.8041044e-002
5.2369561e-002
8.0280460e-002
1.1140192e-001
1.3271314e-001
1.1708348e-001
9.8443903e-002
8.1550173e-002
8.3116859e-002
1.1937060e-001
1.6636564e-001
2.2374772e-001
2.6403108e-001
2.8383097e-001
2.7428931e-001
2.4069487e-001
1.9647080e-001
1.4659047e-001
1.0815345e-001
7.6278403e-002
5.5340167e-002
3.8762186e-002
2.5617853e-002
1.3447320e-002
-1.0736400e-002
-3.7744179e-002
-6.7673683e-002
-9.6576594e-002
-9.7686648e-002
-9.1871217e-002
-6.3929088e-002
-3.3461612e-002
-5.9475652e-003
1.2870009e-002
6.7279353e-003
-6.7877094e-003
-2.8476516e-002
-3.1466521e-002
-1.0516723e-003
4.9030200e-002
1.1838291e-001
1.6224675e-001
1.7681971e-001
1.5841806e-001
1.1629900e-001
8.4095836e-002
6.0628969e-002
4.2916045e-002
2.7604032e-002
2.9778802e-003
-2.5649887e-002
-3.8278960e-002
-4.5625687e-002
-5.4841172e-002
-6.5371521e-002
-1.1008771e-001
-1.6163707e-001
-2.1384518e-001
-2.6144099e-001
-2.8289402e-001
-2.9649249e-001
-3.0068219e-001
-3.0571425e-001
-3.1794846e-001
-3.3420286e-001
-3.5563540e-001
-3.7259707e-001
-3.8107377e-001
-3.7867561e-001
-3.6486214e-001
-3.5734800e-001
-3.5802025e-001
-3.8069499e-001
-4.1968593e-001
-4.6307319e-001
-5.0764209e-001
-5.4226404e-001
-5.7168424e-001
-5.9362900e-001
-6.1260396e-001
-6.0436940e-001
-5.8688980e-001
-5.4992527e-001
-5.0931466e-001
-4.9251056e-001
-4.8612708e-001
-5.1100522e-001
-5.4720545e-001
-5.9882516e-001
-6.5095925e-001
-6.9339204e-001
-7.2154099e-001
-7.2226924e-001
-7.0668602e-001
-6.7333901e-001
-6.4111841e-001
-6.1636651e-001
-6.1069447e-001
-6.2501013e-001
-6.5415400e-001
-6.9323856e-001
-7.3285335e-001
-7.7150339e-001
-7.9658294e-001
-8.1312716e-001
-8.0751759e-001
-7.9069537e-001
-7.7283001e-001
-7.5505227e-001
-7.4677503e-001
-7.4137384e-001
-7.2037578e-001
-6.9375581e-001
-6.6493028e-001
-6.4061749e-001
-6.4353114e-001
-6.5707171e-001
-6.7527360e-001
-6.8754399e-001
-6.7991000e-001
-6.6188282e-001
-6.3590020e-001
-6.1696917e-001
-6.1407155e-001
-6.2838292e-001
-6.5999520e-001
-6.9355041e-001
-7.2378129e-001
-7.4407542e-001
-7.5512242e-001
-7.5713736e-001
-7.5389844e-001
-7.4099660e-001
-7.2280294e-001
-6.9587553e-001
-6.6445559e-001
-6.4159280e-001
-6.2268209e-001
-6.2309575e-001
-6.3109857e-001
-6.4158785e-001
-6.5102249e-001
-6.4545858e-001
-6.3133591e-001
-6.0352308e-001
-5.7349014e-001
-5.5192846e-001
-5.3766835e-001
-5.3404421e-001
-5.3716701e-001
-5.4759938e-001
-5.6046736e-001
-5.7434046e-001
-5.7010084e-001
-5.4083365e-001
-4.9059182e-001
-4.2399231e-001
-3.6324427e-001
-3.1229240e-001
-2.8584543e-001
-2.7745965e-001
-2.8846312e-001
-3.1094456e-001
-3.3491039e-001
-3.5968786e-001
-3.6967537e-001
-3.7203982e-001
-3.5223824e-001
-3.2130995e-001
-2.8883883e-001
-2.5711301e-001
-2.3813182e-001
-2.2960033e-001
-2.3656037e-001
-2.4976563e-001
-2.5787851e-001
-2.5604954e-001
-2.3783140e-001
-2.0691344e-001
-1.6716029e-001
-1.2466837e-001
-8.3826229e-002
-5.8691889e-002
-5.1573239e-002
-6.9031946e-002
-1.0640720e-001
-1.5581800e-001
-2.1224159e-001
-2.5318855e-001
-2.8071856e-001
-2.8909725e-001
-2.8446040e-001
-2.5935602e-001
-2.2090597e-001
-1.6519293e-001
-1.0106885e-001
-5.9116177e-002
-3.3708010e-002
-4.0044710e-002
-6.8813689e-002
-1.2152091e-001
-1.7723086e-001
-1.9922882e-001
-1.8766269e-001
-1.3149707e-001
-5.2953262e-002
2.6766941e-002
2.1933885e-002
-2.6074884e-002
-6.2522143e-002
-9.1601931e-002
-1.3596544e-001
-2.0339321e-001
-2.8962186e-001
-3.8757965e-001
-4.6320704e-001
-5.1259637e-001
-5.4417294e-001
-5.6590283e-001
-5.7804799e-001
-5.8538902e-001
-5.4488260e-001
-4.7012424e-001
-3.8180530e-001
-2.8466308e-001
-1.9940183e-001
-1.1270830e-001
1.3402451e-002
2.2476560e-001
6.6429698e-001
1.2891918e+000
2.0783813e+000
2.9685857e+000
3.8845260e+000
4.9466057e+000
6.2582283e+000
8.0911589e+000
1.0588729e+001
1.3918506e+001
1.8051144e+001
2.2145920e+001
2.5836643e+001
2.9019743e+001
3.1767748e+001
3.5006115e+001
3.8847786e+001
4.3615891e+001
4.9137318e+001
5.4128483e+001
5.8592831e+001
6.2927898e+001
6.7233810e+001
7.2158325e+001
7.7490707e+001
8.2465401e+001
8.6991905e+001
9.0670349e+001
9.3581718e+001
9.5836838e+001
9.7470490e+001
9.8546318e+001
9.9007484e+001
9.8828178e+001
9.8079643e+001
9.6900253e+001
9.5569702e+001
9.4316315e+001
9.2923943e+001
9.1280983e+001
8.8914116e+001
8.5718208e+001
8.1957024e+001
7.7805977e+001
7.3492661e+001
6.9093285e+001
6.4377998e+001
5.9355064e+001
5.4386517e+001
4.9512566e+001
4.4964600e+001
4.0772823e+001
3.7115292e+001
3.3999680e+001
3.1359543e+001
2.9166828e+001
2.7257757e+001
2.5650503e+001
2.4330269e+001
2.3303175e+001
2.2529999e+001
2.2015083e+001
2.1727474e+001
2.1673246e+001
2.1828548e+001
2.2182730e+001
2.2704453e+001
2.3382278e+001
2.4194216e+001
2.5271618e+001
2.6657057e+001
2.8443981e+001
3.0648777e+001
3.3034611e+001
3.5543442e+001
3.7911816e+001
4.0100651e+001
4.2155323e+001
4.4112995e+001
4.6493309e+001
4.9273670e+001
5.1923920e+001
5.4255280e+001
5.5687050e+001
5.6247913e+001
5.6430073e+001
5.6172287e+001
5.5494106e+001
5.4312580e+001
5.2626232e+001
5.0678715e+001
4.8837917e+001
4.7136600e+001
4.5583694e+001
4.4081024e+001
4.2546600e+001
4.0848789e+001
3.8907772e+001
3.6690979e+001
3.4174080e+001
3.1760942e+001
2.9591875e+001
2.7576880e+001
2.5714888e+001
2.3440821e+001
2.0618622e+001
1.7796183e+001
1.5041510e+001
1.2761254e+001
1.1014811e+001
9.3284292e+000
7.7096419e+000
6.1252184e+000
4.6096516e+000
3.2241087e+000
2.0333607e+000
1.0966774e+000
4.5040649e-001
7.0902549e-002
-6.2227078e-002
2.7736470e-002
4.6237832e-001
1.2708166e+000
2.3142991e+000
3.5440247e+000
4.7674937e+000
5.8575721e+000
6.8594708e+000
7.7715139e+000
8.6838875e+000
9.6262398e+000
1.0493124e+001
1.1234325e+001
1.1711572e+001
1.1794080e+001
1.1684999e+001
1.1310168e+001
1.0854160e+001
1.0278671e+001
9.6009579e+000
8.7811518e+000
7.8418317e+000
6.8244553e+000
5.9221253e+000
5.1906300e+000
4.6726022e+000
4.3510308e+000
4.1440125e+000
4.0473680e+000
4.0528154e+000
4.1773086e+000
4.4539919e+000
4.8272066e+000
5.2677770e+000
5.7185154e+000
6.1456552e+000
6.5229731e+000
6.8177142e+000
7.0100203e+000
7.0369768e+000
6.9553070e+000
6.7002568e+000
6.4284148e+000
6.1350832e+000
5.8550477e+000
5.5917850e+000
5.3114524e+000
5.0049543e+000
4.6781888e+000
4.3161530e+000
3.9079685e+000
3.4403660e+000
2.9285462e+000
2.3880682e+000
1.8693845e+000
1.3774079e+000
9.1301489e-001
4.8623875e-001
1.1797687e-001
-1.6197410e-001
-2.9065400e-001
-2.9425612e-001
-1.3640125e-001
1.2339720e-001
5.1275259e-001
9.2866111e-001
1.3600160e+000
1.7683158e+000
2.1207168e+000
2.4301827e+000
2.6521173e+000
2.8042064e+000
2.8287246e+000
2.7783151e+000
2.6098337e+000
2.4110479e+000
2.1779656e+000
1.9773974e+000
1.8237823e+000
1.7184143e+000
1.6640199e+000
1.6299437e+000
1.6088212e+000
1.5737435e+000
1.5241182e+000
1.4533857e+000
1.3757286e+000
1.3102100e+000
1.2671885e+000
1.2745043e+000
1.3276143e+000
1.4633222e+000
1.6559851e+000
1.9515117e+000
2.2909839e+000
2.7075849e+000
3.1317148e+000
3.5602720e+000
3.9536405e+000
4.2638469e+000
4.5132041e+000
4.6451731e+000
4.7480354e+000
4.8133087e+000
4.9223604e+000
5.1063914e+000
5.3670325e+000
5.7267270e+000
6.1428657e+000
6.6243792e+000
7.1568370e+000
7.7492142e+000
8.4189301e+000
9.1542282e+000
9.9520597e+000
1.0772500e+001
1.1565632e+001
1.2302286e+001
1.2887669e+001
1.3350521e+001
1.3549671e+001
1.3598331e+001
1.3316160e+001
1.2902081e+001
1.2168669e+001
1.1354100e+001
1.0331733e+001
9.2888260e+000
8.2063646e+000
7.1886120e+000
6.3165998e+000
5.5851574e+000
5.1050253e+000
4.7855630e+000
4.6961088e+000
4.7061400e+000
4.8119998e+000
4.8634429e+000
4.8266883e+000
4.6100492e+000
4.2330575e+000
3.7181840e+000
3.1269085e+000
2.5430851e+000
1.9884245e+000
1.5414742e+000
1.1594036e+000
8.9903462e-001
6.9068277e-001
5.8186185e-001
5.0579602e-001
5.0734222e-001
5.3026742e-001
6.1955690e-001
7.2429150e-001
8.7539667e-001
1.0234208e+000
1.1591120e+000
1.2565125e+000
1.2729362e+000
1.2425230e+000
1.1362543e+000
1.0138514e+000
8.7150204e-001
7.3176402e-001
5.9417248e-001
4.5331633e-001
3.1029198e-001
1.6976511e-001
3.5474487e-002
-7.7186599e-002
-1.6866091e-001
-1.3687649e-001
-4.0990010e-002
1.4381388e-001
3.5470077e-001
5.7487381e-001
7.8475177e-001
9.3168283e-001
1.0583920e+000
1.1085472e+000
1.1588668e+000
1.2161200e+000
1.2863213e+000
1.3971206e+000
1.5104400e+000
1.6289034e+000
1.7390903e+000
1.8322189e+000
1.9164010e+000
1.9894428e+000
2.0807238e+000
2.2024999e+000
2.3869500e+000
2.6378813e+000
2.9336264e+000
3.2585936e+000
3.5491512e+000
3.8055120e+000
3.9639108e+000
4.0613217e+000
4.0370755e+000
3.9631219e+000
3.8164539e+000
3.6569686e+000
3.5205650e+000
3.3964400e+000
3.3416002e+000
3.2967656e+000
3.2949076e+000
3.2954571e+000
3.3059449e+000
3.3099391e+000
3.2910631e+000
3.2472062e+000
3.1433964e+000
3.0305099e+000
2.9062529e+000
2.8339159e+000
2.8424740e+000
2.9163399e+000
3.0611441e+000
3.1818850e+000
3.2698612e+000
3.2402098e+000
3.1209650e+000
2.9069901e+000
2.6429288e+000
2.3711429e+000
2.1012676e+000
1.8821685e+000
1.6810526e+000
1.5271945e+000
1.3802041e+000
1.2207360e+000
1.0561115e+000
8.4400642e-001
6.3218606e-001
4.2566967e-001
2.3048931e-001
8.5244358e-002
-5.4568410e-002
-1.7690314e-001
-2.8865045e-001
-3.7384933e-001
-4.2029920e-001
-3.9793068e-001
-3.4282884e-001
-2.4473420e-001
-1.5389794e-001
-7.3980771e-002
-5.4330371e-002
-8.5194200e-002
-1.6435134e-001
-2.7027252e-001
-3.2820851e-001
-3.6122856e-001
-3.2869419e-001
-2.7386287e-001
-1.9548950e-001
-1.1224145e-001
-3.3310279e-002
4.1664761e-002
3.3806719e-002
2.2364156e-002
7.3709036e-003
8.4802210e-003
2.5658631e-001
5.4285169e-001
9.8944783e-001
1.3847057e+000
1.6275142e+000
1.7929153e+000
1.7933615e+000
1.7874274e+000
1.7713543e+000
1.7647980e+000
1.7698563e+000
1.7837789e+000
1.8059871e+000
1.8370315e+000
1.8734442e+000
1.8532252e+000
1.8030001e+000
1.7530688e+000
1.7038565e+000
1.7958366e+000
1.9246061e+000
2.0658100e+000
2.2089553e+000
2.2476001e+000
