##TITLE=Methyl Ethyl Ketone
##JCAMP-DX=4.24
##DATA TYPE=INFRARED SPECTRUM
##XUNITS=cm-1
##YUNITS=Absorbance
##FIRSTX=900
##LASTX=2300
##XYDATA=(X++(Y..Y))
2296 0.1104
2294 0.11269671
2292 0.11499343
2290 0.11729014
2288 0.11958686
2286 0.12188357
2284 0.12418029
2282 0.126477
2280 0.12877372
2278 0.13107044
2276 0.13336714
2274 0.13566385
2272 0.13796057
2270 0.14025728
2268 0.142554
2266 0.1448507
2264 0.14714743
2262 0.14944413
2260 0.15174086
2258 0.15403756
2256 0.15633428
2254 0.158631
2252 0.16092771
2250 0.16322443
2248 0.16552114
2246 0.16781786
2244 0.11555909
2242 0.0043794001
2240 -0.1252128
2238 -0.17286596
2236 -0.20830528
2234 -0.092971064
2232 0.033786155
2230 0.17362884
2228 0.30515403
2226 0.36552799
2224 0.41891938
2222 0.45707366
2220 0.50439703
2218 0.58218402
2216 0.66593313
2214 0.7589801
2212 0.85099697
2210 0.94040012
2208 0.99620521
2206 1.0103595
2204 0.93973923
2202 0.79002452
2200 0.6255424
2198 0.4538959
2196 0.37384
2194 0.34688705
2192 0.37272927
2190 0.42017454
2188 0.43671694
2186 0.44273806
2184 0.4155508
2182 0.38087142
2180 0.37266308
2178 0.36967093
2176 0.46618056
2174 0.5764311
2172 0.73920089
2170 0.89012504
2168 0.94457477
2166 0.96394908
2164 0.8896836
2162 0.8163197
2160 0.76914066
2158 0.74958485
2156 0.77734995
2154 0.82057047
2152 0.87908798
2150 0.9244585
2148 0.95322829
2146 0.95180428
2144 0.92521572
2142 0.90236211
2140 0.88396233
2138 0.87660164
2136 0.87498999
2134 0.87660319
2132 0.87926668
2130 0.92560941
2128 0.9858408
2126 1.0901955
2124 1.2046468
2122 1.2860548
2120 1.3572371
2118 1.3366847
2116 1.2993728
2114 1.235253
2112 1.174807
2110 1.1473159
2108 1.1265529
2106 1.1116135
2104 1.0957217
2102 1.0759268
2100 1.0484179
2098 1.0088551
2096 0.97318858
2094 0.94501305
2092 0.96161139
2090 1.0234369
2088 1.1045091
2086 1.196035
2084 1.2407182
2082 1.2535701
2080 1.2504177
2078 1.2410728
2076 1.2793672
2074 1.3378747
2072 1.37816
2070 1.4119244
2068 1.375108
2066 1.3211029
2064 1.2545344
2062 1.1875484
2060 1.1377386
2058 1.09753
2056 1.0912315
2054 1.0956012
2052 1.114996
2050 1.1315939
2048 1.1338063
2046 1.1197357
2044 1.0795541
2042 1.044469
2040 1.0237914
2038 1.0786604
2036 1.2202944
2034 1.3932319
2032 1.5811206
2030 1.671856
2028 1.6847
2026 1.6362714
2024 1.5571811
2022 1.5235274
2020 1.516169
2018 1.551865
2016 1.6038599
2014 1.621308
2012 1.6258698
2010 1.5444027
2008 1.4391851
2006 1.3210678
2004 1.2114546
2002 1.187225
2000 1.1954532
1998 1.2526639
1996 1.3156643
1994 1.3605635
1992 1.4122789
1990 1.487105
1988 1.5975981
1986 1.7574807
1984 1.9172783
1982 2.0607224
1980 2.1361568
1978 2.1404214
1976 2.07742
1974 1.9673311
1972 1.8749325
1970 1.8039247
1968 1.8025423
1966 1.8428214
1964 1.8632832
1962 1.8689411
1960 1.778448
1958 1.6464343
1956 1.5181999
1954 1.3937403
1952 1.3224423
1950 1.2662624
1948 1.2026809
1946 1.15075
1944 1.1720617
1942 1.2529831
1940 1.455646
1938 1.6709905
1936 1.8195314
1934 1.8643146
1932 1.7434139
1930 1.5266743
1928 1.2363223
1926 0.94226551
1924 0.6719991
1922 0.49289012
1920 0.40372348
1918 0.45872059
1916 0.62092274
1914 0.84770393
1912 1.1059268
1910 1.3250954
1908 1.5162189
1906 1.6300707
1904 1.703464
1902 1.7057418
1900 1.676008
1898 1.6456434
1896 1.6164857
1894 1.604208
1892 1.5917151
1890 1.528157
1888 1.4422834
1886 1.339185
1884 1.2503312
1882 1.2233899
1880 1.2186263
1878 1.2160076
1876 1.15999
1874 1.0095559
1872 0.78911549
1870 0.51339877
1868 0.30664939
1866 0.20111586
1864 0.25405547
1862 0.43769497
1860 0.66937166
1858 0.91618353
1856 1.078142
1854 1.1744959
1852 1.0804343
1850 0.86960208
1848 0.51893562
1846 0.099601254
1844 -0.099847555
1842 -0.17184268
1840 0.0281308
1838 0.34183112
1836 0.55640346
1834 0.69447327
1832 0.6888684
1830 0.61839604
1828 0.54048413
1826 0.49101314
1824 0.51398331
1822 0.58385456
1820 0.69084722
1818 0.78856301
1816 0.85195202
1814 0.84395766
1812 0.75416607
1810 0.63711709
1808 0.51858455
1806 0.45763651
1804 0.45705533
1802 0.37547225
1800 0.20782863
1798 -0.080724947
1796 -0.45014572
1794 -0.63685274
1792 -0.68733519
1790 -0.48937419
1788 -0.14932726
1786 0.16707979
1784 0.45055926
1782 0.57814693
1780 0.59478033
1778 0.46121079
1776 0.25215086
1774 0.063787676
1772 -0.049731847
1770 0.022429306
1768 0.17714074
1766 0.30481052
1764 0.3425872
1762 0.23557752
1760 0.0656868
1758 -0.25507811
1756 -0.62026846
1754 -0.91409475
1752 -1.1467057
1750 -1.3309799
1748 -1.5020871
1746 -1.6777679
1744 -1.8863297
1742 -2.1318805
1740 -2.3448477
1738 -2.5213449
1736 -2.4563801
1734 -2.2054667
1732 -1.712658
1730 -1.0725348
1728 -0.6045934
1726 -0.280202
1724 -0.13801683
1722 -0.10055133
1720 0.017287306
1718 0.28575599
1716 0.90879059
1714 1.7340627
1712 2.535676
1710 3.1962261
1708 3.5790439
1706 3.8655286
1704 4.2426581
1702 5.0997643
1700 6.6668954
1698 9.3965483
1696 13.344286
1694 17.638939
1692 21.828825
1690 25.543211
1688 28.773594
1686 32.362442
1684 36.433552
1682 41.096828
1680 46.216801
1678 50.616337
1676 54.356773
1674 58.088043
1672 61.906303
1670 66.454781
1668 71.542664
1666 76.549149
1664 81.391396
1662 85.791847
1660 89.750092
1658 93.240524
1656 96.297455
1654 98.988617
1652 101.2748
1650 103.12787
1648 104.10023
1646 103.82393
1644 102.53843
1642 100.57107
1640 98.088326
1638 95.273102
1636 91.90963
1634 87.975662
1632 83.866905
1630 79.739983
1628 75.582321
1626 71.40126
1624 66.853683
1622 61.939587
1620 57.155907
1618 52.548935
1616 48.40097
1614 44.716766
1612 41.494053
1610 38.719292
1608 36.266636
1606 34.121017
1604 32.178234
1602 30.4781
1600 29.062994
1598 27.941544
1596 27.081501
1594 26.477722
1592 26.084303
1590 25.878557
1588 25.812506
1586 25.824322
1584 25.860098
1582 25.89772
1580 25.927147
1578 26.075502
1576 26.392286
1574 26.974209
1572 27.834848
1570 28.822128
1568 29.89636
1566 30.886843
1564 31.772886
1562 32.6992
1560 33.74752
1558 35.590706
1556 38.3083
1554 41.454388
1552 44.805466
1550 47.333935
1548 48.991203
1546 50.086071
1544 50.628754
1542 50.827694
1540 50.748901
1538 50.532467
1536 50.147686
1534 49.586216
1532 48.767624
1530 47.670967
1528 46.275845
1526 44.57785
1524 42.62899
1522 40.452061
1520 38.367817
1518 36.509846
1516 34.871914
1514 33.47736
1512 31.849039
1510 29.873543
1508 27.428829
1506 24.429699
1504 21.680395
1502 19.278114
1500 17.286169
1498 15.72931
1496 14.090285
1494 12.362636
1492 10.593607
1490 8.8138371
1488 7.1107121
1486 5.5315814
1484 4.1292939
1482 2.9271526
1480 1.9315886
1478 1.1379728
1476 0.51050341
1474 0.17857823
1472 0.2707631
1470 0.67758387
1468 1.2842032
1466 1.8765236
1464 2.3364286
1462 2.6793175
1460 2.8905544
1458 3.127471
1456 3.44032
1454 3.8683374
1452 4.4454002
1450 4.9161739
1448 5.2049041
1446 5.348825
1444 5.2908812
1442 5.1525307
1440 4.9056273
1438 4.57761
1436 4.157043
1434 3.6828189
1432 3.1833115
1430 2.7535191
1428 2.4043999
1426 2.141777
1424 1.9685931
1422 1.8750085
1420 1.9062668
1418 2.1081591
1416 2.4630086
1414 2.9618151
1412 3.4710929
1410 3.8971367
1408 4.2311616
1406 4.4395657
1404 4.5888686
1402 4.6723471
1400 4.7094078
1398 4.6743631
1396 4.6497216
1394 4.6543479
1392 4.745647
1390 4.9633346
1388 5.170085
1386 5.3408651
1384 5.4128971
1382 5.3306708
1380 5.1111612
1378 4.7120337
1376 4.1939688
1374 3.5865908
1372 3.0375059
1370 2.5749917
1368 2.2319896
1366 1.9427285
1364 1.58716
1362 1.1853349
1360 0.75639588
1358 0.38042381
1356 0.16442418
1354 0.042600125
1352 0.0145006
1350 0.0088255042
1348 0.0022911881
1346 -0.0101672
1344 -0.066160843
1342 -0.15717095
1340 -0.3106851
1338 -0.43895918
1336 -0.50879431
1334 -0.4956429
1332 -0.34829089
1330 -0.16610615
1328 0.065557733
1326 0.29108751
1324 0.50806808
1322 0.69262606
1320 0.8428483
1318 0.9783107
1316 1.1131901
1314 1.2879009
1312 1.498143
1310 1.7323979
1308 1.96916
1306 2.1797292
1304 2.356169
1302 2.4766231
1300 2.5554726
1298 2.5793684
1296 2.5740001
1294 2.5325985
1292 2.4785638
1290 2.4108534
1288 2.3619561
1286 2.3665185
1284 2.4024553
1282 2.5069811
1280 2.6026731
1278 2.673944
1276 2.7077973
1274 2.6739371
1272 2.634619
1270 2.6026363
1268 2.6434307
1266 2.7989757
1264 3.0461166
1262 3.400105
1260 3.78369
1258 4.1950159
1256 4.6078343
1254 5.0219259
1252 5.4373097
1250 5.8469696
1248 6.2348909
1246 6.6058249
1244 6.9526162
1242 7.2883863
1240 7.6155815
1238 7.9342322
1236 8.2331161
1234 8.5068445
1232 8.7119923
1230 8.8501034
1228 8.7921143
1226 8.6381397
1224 8.2237043
1222 7.7592635
1220 7.1803055
1218 6.6119838
1216 6.0677285
1214 5.5497985
1212 5.0776749
1210 4.6275964
1208 4.2062426
1206 3.7839921
1204 3.3585401
1202 2.9239073
1200 2.4823914
1198 2.0461173
1196 1.6154857
1194 1.1920106
1192 0.77756786
1190 0.38383856
1188 0.011309624
1186 -0.31143045
1184 -0.59514499
1182 -0.78568447
1180 -0.91870046
1178 -0.90255392
1176 -0.82832801
1174 -0.60079902
1172 -0.35622829
1170 -0.082796991
1168 0.15877473
1166 0.29980522
1164 0.40330875
1162 0.41282719
1160 0.39046845
1158 0.30445582
1156 0.20205693
1154 0.077000909
1152 -0.031195387
1150 -0.1149921
1148 -0.18292141
1146 -0.22754177
1144 -0.23291549
1142 -0.19016933
1140 -0.065518744
1138 0.1022283
1136 0.32002056
1134 0.57670414
1132 0.84276414
1130 1.1082168
1128 1.3520566
1126 1.6004457
1124 1.9047512
1122 2.2315931
1120 2.6249161
1118 3.0165951
1116 3.3659871
1114 3.7013779
1112 3.9803972
1110 4.2457871
1108 4.4661365
1106 4.6637049
1104 4.8028135
1102 4.9130812
1100 4.9704666
1098 5.0425353
1096 5.1518002
1094 5.3724918
1092 5.7381964
1090 6.1808829
1088 6.689106
1086 7.1378694
1084 7.5295196
1082 7.8357644
1080 8.0825329
1078 8.2637997
1076 8.4026518
1074 8.4474792
1072 8.4470654
1070 8.3434525
1068 8.2166147
1066 8.0874624
1064 7.9717159
1062 7.956821
1060 7.9525371
1058 7.9836855
1056 8.002512
1054 7.9652123
1052 7.8961573
1050 7.7218213
1048 7.4851456
1046 7.0983214
1044 6.6914887
1042 6.2583323
1040 5.9370785
1038 5.7835088
1036 5.7088099
1034 5.7131019
1032 5.6187077
1030 5.4320564
1028 5.1864247
1026 4.9077444
1024 4.701221
1022 4.5296612
1020 4.3318329
1018 4.1049647
1016 3.6778114
1014 3.1846204
1012 2.55726
1010 1.9166682
1008 1.3836176
1006 0.87558913
1004 0.55561447
1002 0.25220954
1000 0.051440403
998 -0.13741925
996 -0.27412212
994 -0.409648
992 -0.54356837
990 -0.70523328
988 -0.93104589
986 -1.1712486
984 -1.4294319
982 -1.5793686
980 -1.5775241
978 -1.4447087
976 -1.1797389
974 -0.95880431
972 -0.77594769
970 -0.64901787
968 -0.5548656
966 -0.44588551
964 -0.33682603
962 -0.36025077
960 -0.43159539
958 -0.60882956
956 -0.80089182
954 -0.81515586
952 -0.80013484
950 -0.59468794
948 -0.37860733
946 -0.12404571
944 0.0048346221
942 0.14990577
940 0.41853291
938 0.63211501
936 0.77753317
934 0.72250301
932 0.61753088
930 0.40631819
928 0.19531913
926 -0.01547651
924 -0.2348696
922 -0.46212721
920 -0.56098682
918 -0.53684604
916 -0.2505033
914 0.22007728
912 0.66630638
910 1.0980971
908 1.3167863
906 1.455695
904 1.692808
902 1.9565452
900 2.2700205
898 2.590867
896 2.2881999
