##TITLE=Methyl Ethyl Ketone
##JCAMP-DX=4.24
##DATA TYPE=INFRARED SPECTRUM
##XUNITS=cm-1
##YUNITS=Absorbance
##FIRSTX=900
##LASTX=2300
##XYDATA=(X++(Y..Y))
2296 -0.0056130001
2294 -0.005729733
2292 -0.0058464659
2290 -0.0059632985
2288 -0.0060800319
2286 -0.0061968639
2284 -0.0063135978
2282 -0.0064303312
2280 -0.0065471632
2278 -0.0066638971
2276 -0.0067807287
2274 -0.006897463
2272 -0.0070142946
2270 -0.0071310289
2268 -0.0072477618
2266 -0.0073644952
2264 -0.0074812281
2262 -0.0075980583
2260 -0.007714794
2258 -0.0078315269
2256 -0.0079483576
2254 -0.0080650924
2252 -0.0081818262
2250 -0.008298655
2248 -0.0084153917
2246 -0.0085322214
2244 -0.0003170663
2242 0.011009319
2240 -0.01269684
2238 -0.020042991
2236 -0.024745699
2234 -0.0017526657
2232 0.022917667
2230 0.040501937
2228 0.054309659
2226 0.040808503
2224 0.024274029
2222 0.00031931687
2220 -0.023004184
2218 -0.043148104
2216 -0.064681455
2214 -0.089651473
2212 -0.11620908
2210 -0.14503795
2208 -0.17341611
2206 -0.20108186
2204 -0.22933765
2202 -0.25821555
2200 -0.28348297
2198 -0.306032
2196 -0.30900213
2194 -0.30077499
2192 -0.27109885
2190 -0.23232542
2188 -0.19440985
2186 -0.15696406
2184 -0.1311304
2182 -0.10796693
2180 -0.095492415
2178 -0.084744185
2176 -0.086376481
2174 -0.090765677
2172 -0.11359043
2170 -0.1411863
2168 -0.18611212
2166 -0.22964114
2164 -0.26185489
2162 -0.2842412
2160 -0.2843408
2158 -0.28278688
2156 -0.282415
2154 -0.2845915
2152 -0.29031256
2150 -0.29351965
2148 -0.29349807
2146 -0.3013975
2144 -0.31658611
2142 -0.3356483
2140 -0.35685876
2138 -0.36426234
2136 -0.364032
2134 -0.35386568
2132 -0.339881
2130 -0.32950911
2128 -0.32041121
2126 -0.33615464
2124 -0.35762802
2122 -0.39276397
2120 -0.42928141
2118 -0.45206034
2116 -0.47242615
2114 -0.48958638
2112 -0.50513601
2110 -0.51574469
2108 -0.52402902
2106 -0.52744353
2104 -0.53433317
2102 -0.55041051
2100 -0.56774241
2098 -0.58486015
2096 -0.59142858
2094 -0.58416188
2092 -0.5680238
2090 -0.54478413
2088 -0.52400267
2086 -0.50621003
2084 -0.49185577
2082 -0.47953498
2080 -0.47654828
2078 -0.47826496
2076 -0.50068599
2074 -0.53145647
2072 -0.55747157
2070 -0.58162928
2068 -0.5807634
2066 -0.57384789
2064 -0.57574016
2062 -0.58058923
2060 -0.59957349
2058 -0.6183809
2056 -0.62089998
2054 -0.61490726
2052 -0.58937097
2050 -0.56007195
2048 -0.53040707
2046 -0.50947356
2044 -0.50532377
2042 -0.51283002
2040 -0.53357762
2038 -0.5523026
2036 -0.56618017
2034 -0.56489336
2032 -0.54966956
2030 -0.52303439
2028 -0.488987
2026 -0.45339692
2024 -0.41734314
2022 -0.3807525
2020 -0.34376597
2018 -0.31853008
2016 -0.29851401
2014 -0.30682215
2012 -0.32491019
2010 -0.36201471
2008 -0.40368965
2006 -0.4369913
2004 -0.46492147
2002 -0.4688262
2000 -0.46455908
1998 -0.44957608
1996 -0.43757358
1994 -0.44159645
1992 -0.45766979
1990 -0.49362603
1988 -0.53127402
1986 -0.5656935
1984 -0.59344012
1982 -0.61290258
1980 -0.626095
1978 -0.63338852
1976 -0.61974341
1974 -0.587349
1972 -0.52595323
1970 -0.44485724
1968 -0.36769971
1966 -0.29542479
1964 -0.2756969
1962 -0.28389385
1960 -0.31594682
1958 -0.35708311
1956 -0.36450672
1954 -0.35953403
1952 -0.34788382
1950 -0.33775184
1948 -0.35351169
1946 -0.37908751
1944 -0.41450241
1942 -0.4484373
1940 -0.47297114
1938 -0.49199668
1936 -0.5057497
1934 -0.51986086
1932 -0.5354386
1930 -0.55356592
1928 -0.57262158
1926 -0.58570606
1924 -0.58914334
1922 -0.5688566
1920 -0.52700549
1918 -0.47449279
1916 -0.41950101
1914 -0.38127053
1912 -0.35601097
1910 -0.34394398
1908 -0.33805066
1906 -0.34790871
1904 -0.36628562
1902 -0.39253548
1900 -0.42268911
1898 -0.41666922
1896 -0.39400142
1894 -0.33435461
1892 -0.26351747
1890 -0.2177351
1888 -0.1922608
1886 -0.21657079
1884 -0.26229507
1882 -0.31763878
1880 -0.3726899
1878 -0.417068
1876 -0.453347
1874 -0.47741994
1872 -0.47959635
1870 -0.452479
1868 -0.40607417
1866 -0.35179156
1864 -0.32441142
1862 -0.33216962
1860 -0.36491922
1858 -0.41018537
1856 -0.45686314
1854 -0.50044161
1852 -0.54326063
1850 -0.58408177
1848 -0.61375958
1846 -0.63486677
1844 -0.64212954
1842 -0.64098126
1840 -0.64159256
1838 -0.6449278
1836 -0.65110129
1834 -0.65761721
1832 -0.64637887
1830 -0.61971903
1828 -0.57006335
1826 -0.51239538
1824 -0.46944714
1822 -0.45007396
1820 -0.46719301
1818 -0.50574464
1816 -0.5516997
1814 -0.5886935
1812 -0.60655284
1810 -0.59873438
1808 -0.56863695
1806 -0.51927048
1804 -0.45724478
1802 -0.41386324
1800 -0.38857886
1798 -0.38738528
1796 -0.40164286
1794 -0.36766598
1792 -0.30017319
1790 -0.20119934
1788 -0.088427901
1786 -0.027831059
1784 -0.0015500905
1782 -0.0046410575
1780 -0.02316035
1778 -0.027484979
1776 -0.016491687
1774 0.028547099
1772 0.090846486
1770 0.14097798
1768 0.16823441
1766 0.14765307
1764 0.10818486
1762 0.081419401
1760 0.028158762
1758 -0.073799513
1756 -0.17536071
1754 -0.24917546
1752 -0.27120978
1750 -0.23886259
1748 -0.18569772
1746 -0.13017857
1744 -0.14277205
1742 -0.22586173
1740 -0.32740521
1738 -0.43054619
1736 -0.425906
1734 -0.33480626
1732 -0.19639829
1730 -0.036945913
1728 0.0093000308
1726 -0.025243888
1724 -0.069896489
1722 -0.096831523
1720 0.020894691
1718 0.29303247
1716 0.79324198
1714 1.4223416
1712 2.0312915
1710 2.6132076
1708 3.1689939
1706 3.8510265
1704 4.8069806
1702 6.2898836
1700 8.4256554
1698 11.451221
1696 15.347428
1694 19.402069
1692 23.268963
1690 26.761751
1688 29.908743
1686 33.567421
1684 37.830002
1682 42.929298
1680 48.691441
1678 53.781364
1676 58.229786
1674 62.473988
1672 66.651398
1670 71.575294
1668 77.068268
1666 82.601402
1664 88.025948
1662 92.869896
1660 97.104416
1658 100.62503
1656 103.398
1654 105.36755
1652 106.3354
1650 106.12837
1648 104.6596
1646 101.9575
1644 98.665253
1642 95.353653
1640 91.860352
1638 88.127991
1636 83.712288
1634 78.507919
1632 73.253227
1630 68.203758
1628 63.587967
1626 59.401627
1624 55.209679
1622 50.947182
1620 46.830185
1618 42.87254
1616 39.219574
1614 35.8857
1612 32.967606
1610 30.469151
1608 28.33972
1606 26.565248
1604 25.036779
1602 23.782515
1600 22.814274
1598 22.136171
1596 21.709
1594 21.503193
1592 21.445938
1590 21.507069
1588 21.640547
1586 21.828993
1584 22.055418
1582 22.322571
1580 22.631763
1578 23.066929
1576 23.656458
1574 24.453693
1572 25.462034
1570 26.598083
1568 27.83848
1566 29.09152
1564 30.350155
1562 31.772095
1560 33.45433
1558 36.076572
1556 39.713657
1554 43.761219
1552 47.969101
1550 51.218494
1548 53.531723
1546 55.450069
1544 56.978573
1542 58.261261
1540 59.122139
1538 59.335037
1536 58.883484
1534 57.859978
1532 56.475285
1530 55.012524
1528 53.463589
1526 51.825851
1524 49.961617
1522 47.777515
1520 45.327389
1518 42.607109
1516 40.043514
1514 37.793678
1512 35.695919
1510 33.753117
1508 31.357571
1506 28.359678
1504 25.322491
1502 22.294176
1500 19.726826
1498 17.668341
1496 15.620857
1494 13.57595
1492 11.4841
1490 9.3616114
1488 7.2664757
1486 5.2692356
1484 3.4862919
1482 2.0085304
1480 0.92697769
1478 0.26731595
1476 0.054204259
1474 0.38572401
1472 1.2140876
1470 2.237442
1468 3.2688115
1466 4.1407099
1464 4.7373509
1462 5.2102356
1460 5.6035986
1458 5.9815679
1456 6.3546801
1454 6.6605802
1452 6.8511963
1450 6.9398961
1448 6.8799462
1446 6.7832537
1444 6.6371722
1442 6.4769201
1440 6.2893124
1438 6.03725
1436 5.6884103
1434 5.2088833
1432 4.603332
1430 3.9774671
1428 3.3736219
1426 2.8952301
1424 2.5538394
1422 2.3420196
1420 2.2522662
1418 2.2576494
1416 2.3474171
1414 2.5145509
1412 2.7290959
1410 2.9902847
1408 3.2793515
1406 3.598742
1404 3.9449174
1402 4.32302
1400 4.7148156
1398 5.1198144
1396 5.5085144
1394 5.8588729
1392 6.1483283
1390 6.3170409
1388 6.3701425
1386 6.2344851
1384 5.9751916
1382 5.5500145
1380 5.0761342
1378 4.552845
1376 4.0376029
1374 3.5499866
1372 3.1123419
1370 2.7358463
1368 2.4218206
1366 2.1302564
1364 1.7916528
1362 1.4033084
1360 0.95142877
1358 0.51742625
1356 0.19938466
1354 -0.0020962432
1352 -0.021086264
1350 0.049074158
1348 0.20975745
1346 0.39791965
1344 0.6024788
1342 0.80124468
1340 0.98517978
1338 1.1619461
1336 1.32234
1334 1.4829347
1332 1.63376
1330 1.793523
1328 1.9690132
1326 2.1636837
1324 2.3955891
1322 2.6594856
1320 2.9711611
1318 3.3129013
1316 3.68097
1314 4.0352039
1312 4.3559413
1310 4.6121297
1308 4.8014765
1306 4.9274964
1304 5.0069752
1302 5.052238
1300 5.0732818
1298 5.0635166
1296 5.0331998
1294 4.9704137
1292 4.9014506
1290 4.8341007
1288 4.7833557
1286 4.7749629
1284 4.7844148
1282 4.8310037
1280 4.8775172
1278 4.9237518
1276 4.9749374
1274 5.0401101
1272 5.1246347
1270 5.240582
1268 5.3546615
1266 5.4606695
1264 5.5458031
1262 5.6058245
1260 5.6641421
1258 5.7241483
1256 5.7972169
1254 5.8821211
1252 5.974793
1250 6.0719767
1248 6.1687894
1246 6.261025
1244 6.3361759
1242 6.3951192
1240 6.4204068
1238 6.4211631
1236 6.3722658
1234 6.2852497
1232 6.1045799
1230 5.8783035
1228 5.5352473
1226 5.1641202
1224 4.7214618
1222 4.2685409
1220 3.7919326
1218 3.3191509
1216 2.8567629
1214 2.4149168
1212 2.01209
1210 1.6444352
1208 1.3312309
1206 1.0608251
1204 0.84251183
1202 0.65316743
1200 0.49102503
1198 0.33594775
1196 0.189207
1194 0.055938784
1192 -0.063075051
1190 -0.1542279
1188 -0.22636819
1186 -0.27060729
1184 -0.2890968
1182 -0.23955025
1180 -0.14256191
1178 0.085513398
1176 0.35469401
1174 0.71807706
1172 1.0762929
1170 1.3905993
1168 1.6632406
1166 1.8050321
1164 1.899482
1162 1.876448
1160 1.8212806
1158 1.7025762
1156 1.5733228
1154 1.4274362
1152 1.2798263
1150 1.1280795
1148 0.96315777
1146 0.78266072
1144 0.59115368
1142 0.39345413
1140 0.21246873
1138 0.053273968
1136 -0.048114572
1134 -0.10082685
1132 -0.053963736
1130 0.045372456
1128 0.22065149
1126 0.41226512
1124 0.58129025
1122 0.73032916
1120 0.79479283
1118 0.83957422
1116 0.82090741
1114 0.80440706
1112 0.80280012
1110 0.82150024
1108 0.90383911
1106 0.98891449
1104 1.0763383
1102 1.1289694
1100 1.1113569
1098 1.0636382
1096 0.97098571
1094 0.8821705
1092 0.80255401
1090 0.75638509
1088 0.74746555
1086 0.77593029
1084 0.83205962
1082 0.88291848
1080 0.9244107
1078 0.9203102
1076 0.88964045
1074 0.81458765
1072 0.72271442
1070 0.61475486
1068 0.5053997
1066 0.41262308
1064 0.32590878
1062 0.26848623
1060 0.21542504
1058 0.18117003
1056 0.15083657
1054 0.13800412
1052 0.13142535
1050 0.14420719
1048 0.15095508
1046 0.14048071
1044 0.1002559
1042 0.002530776
1040 -0.12252028
1038 -0.28496104
1036 -0.427937
1034 -0.54535079
1032 -0.62659234
1030 -0.67687285
1028 -0.73852438
1026 -0.80867094
1024 -0.88743156
1022 -0.9689697
1020 -1.0315245
1018 -1.086897
1016 -1.1406944
1014 -1.1923888
1012 -1.2239283
1010 -1.2503921
1008 -1.258744
1006 -1.26775
1004 -1.3026923
1002 -1.3373531
1000 -1.3692166
998 -1.3918104
996 -1.3735071
994 -1.3445879
992 -1.2832543
990 -1.2248018
988 -1.1741037
986 -1.1447693
984 -1.1524737
982 -1.1669313
980 -1.18898
978 -1.1906754
976 -1.17024
974 -1.1279738
972 -1.0672913
970 -0.98737031
968 -0.89567327
966 -0.80607897
964 -0.7181164
962 -0.64468175
960 -0.57561308
958 -0.49651265
956 -0.41566956
954 -0.34090015
952 -0.267324
950 -0.20374449
948 -0.13850121
946 -0.045094822
944 0.0007404685
942 0.023239657
940 0.074224994
938 0.15829439
936 0.25579768
934 0.39264476
932 0.52656758
930 0.65369773
928 0.75844175
926 0.82681811
924 0.86131001
922 0.85375589
920 0.78916162
918 0.67112184
916 0.52350855
914 0.35574955
912 0.24969286
910 0.17730039
908 0.17959085
906 0.21130887
904 0.26570845
902 0.32651523
900 0.36733812
898 0.40501279
896 0.36502001
