Image.
>Pix99999.
  .
5555
5555
2300
900
5555
2
1
0
701
5555
7.4174002e-002
7.5749740e-002
7.7325493e-002
7.8902237e-002
8.0477983e-002
8.2053728e-002
8.3629474e-002
8.5205220e-002
8.6780965e-002
8.8357694e-002
8.9933455e-002
9.1509208e-002
9.3084946e-002
9.4660699e-002
9.6236438e-002
9.7813167e-002
9.9388935e-002
1.0096175e-001
1.0253938e-001
1.0411712e-001
1.0569486e-001
1.0727260e-001
1.0884065e-001
1.1041808e-001
1.1199582e-001
1.1357357e-001
6.8828262e-002
2.5881429e-003
-9.2013121e-002
-1.4627074e-001
-1.9433543e-001
-1.9225176e-001
-1.8582852e-001
-1.6298540e-001
-1.4319345e-001
-1.5355450e-001
-1.6828370e-001
-1.9572154e-001
-2.1500835e-001
-2.0725760e-001
-1.9776399e-001
-1.8779629e-001
-1.8305519e-001
-1.8692909e-001
-1.8953349e-001
-1.8991458e-001
-1.8582849e-001
-1.7762004e-001
-1.4730017e-001
-1.0066437e-001
-4.3793358e-002
1.8383540e-002
3.3164959e-002
2.7022354e-002
-8.9266514e-003
-5.4125972e-002
-8.2829274e-002
-1.0761620e-001
-1.7000468e-001
-2.3816811e-001
-3.1636059e-001
-3.8858360e-001
-3.8245279e-001
-3.6485180e-001
-3.2399788e-001
-2.9586557e-001
-3.2230946e-001
-3.6969331e-001
-4.5683894e-001
-5.5016488e-001
-6.4762700e-001
-7.4513954e-001
-8.4210771e-001
-9.1880280e-001
-9.7270620e-001
-9.8590106e-001
-9.6519500e-001
-9.3813837e-001
-9.0905815e-001
-8.9698952e-001
-8.9431995e-001
-8.8930947e-001
-8.8306499e-001
-8.7882072e-001
-8.7529641e-001
-8.9800400e-001
-9.2674243e-001
-9.8091877e-001
-1.0383714e+000
-1.0829583e+000
-1.1213399e+000
-1.1276790e+000
-1.1338931e+000
-1.1609877e+000
-1.1982434e+000
-1.2568129e+000
-1.2940193e+000
-1.2771504e+000
-1.2285500e+000
-1.1401508e+000
-1.0673143e+000
-1.0223157e+000
-1.0164855e+000
-1.0471176e+000
-1.0752183e+000
-1.0974751e+000
-1.0948448e+000
-1.0765183e+000
-1.0816879e+000
-1.1002545e+000
-1.1216058e+000
-1.1433432e+000
-1.1048000e+000
-1.0466534e+000
-9.7063130e-001
-8.9175707e-001
-8.9031982e-001
-9.1293174e-001
-1.0329859e+000
-1.1799209e+000
-1.3697543e+000
-1.5600473e+000
-1.7200251e+000
-1.8412807e+000
-1.8762938e+000
-1.8680822e+000
-1.8077899e+000
-1.7405832e+000
-1.6797982e+000
-1.6179994e+000
-1.5554442e+000
-1.4914520e+000
-1.4258457e+000
-1.3895050e+000
-1.3752483e+000
-1.3920064e+000
-1.4255058e+000
-1.4341890e+000
-1.4282575e+000
-1.3843044e+000
-1.3260400e+000
-1.2879866e+000
-1.2584423e+000
-1.2790177e+000
-1.3153474e+000
-1.3855565e+000
-1.4640272e+000
-1.5360160e+000
-1.6037132e+000
-1.6542660e+000
-1.7043285e+000
-1.7622787e+000
-1.8076886e+000
-1.8256083e+000
-1.7983040e+000
-1.7104857e+000
-1.6120508e+000
-1.5186239e+000
-1.4782331e+000
-1.4934444e+000
-1.5172658e+000
-1.5362060e+000
-1.4580629e+000
-1.3050338e+000
-1.1353160e+000
-9.6391928e-001
-9.7397745e-001
-1.0817567e+000
-1.2774960e+000
-1.5068712e+000
-1.6185229e+000
-1.6846657e+000
-1.6567023e+000
-1.6036526e+000
-1.5699351e+000
-1.5519750e+000
-1.5897709e+000
-1.6368731e+000
-1.6755424e+000
-1.6966598e+000
-1.6833172e+000
-1.6621749e+000
-1.6385480e+000
-1.6180671e+000
-1.5964406e+000
-1.5393679e+000
-1.4317843e+000
-1.2443541e+000
-9.8888803e-001
-7.7750766e-001
-6.2813586e-001
-6.2745631e-001
-7.2895914e-001
-8.8039720e-001
-1.0492198e+000
-1.2077278e+000
-1.3603280e+000
-1.4310962e+000
-1.4661243e+000
-1.3582944e+000
-1.1948428e+000
-1.0173050e+000
-8.5072744e-001
-8.0515480e-001
-8.3276796e-001
-9.8741442e-001
-1.2000107e+000
-1.4474369e+000
-1.6796206e+000
-1.8413659e+000
-1.9075000e+000
-1.8299308e+000
-1.6273440e+000
-1.3007120e+000
-9.7798854e-001
-7.2297764e-001
-6.3033491e-001
-7.0174551e-001
-8.5365248e-001
-1.0344145e+000
-1.1937686e+000
-1.3254672e+000
-1.3735040e+000
-1.3632582e+000
-1.2435840e+000
-1.0582821e+000
-9.8456776e-001
-9.7192174e-001
-1.1449955e+000
-1.4006001e+000
-1.5769972e+000
-1.6926810e+000
-1.6432611e+000
-1.4840827e+000
-1.2073786e+000
-9.0780139e-001
-7.1219540e-001
-6.5486974e-001
-7.9819101e-001
-1.0314586e+000
-1.2697314e+000
-1.4482490e+000
-1.5310946e+000
-1.5209064e+000
-1.4401195e+000
-1.2957901e+000
-1.1086532e+000
-9.4124258e-001
-7.9617107e-001
-6.8695164e-001
-6.0054642e-001
-4.7283345e-001
-3.2100880e-001
-1.9399986e-001
-9.4725952e-002
-6.7641459e-002
-8.4312625e-002
-7.4577071e-002
-3.7554003e-002
1.0964617e-001
3.2576430e-001
5.8824134e-001
8.1393147e-001
8.1457281e-001
6.7032093e-001
4.1969544e-001
1.8867519e-001
1.1359166e-001
4.2543087e-002
-1.1859889e-001
-2.4085985e-001
-2.5765488e-001
-2.1972045e-002
4.8621231e-001
1.0722661e+000
1.6458535e+000
1.8796520e+000
1.7777120e+000
1.5702528e+000
1.3373404e+000
1.3719000e+000
1.6254605e+000
1.7244434e+000
1.6798762e+000
1.2423921e+000
5.5734801e-001
6.8892434e-002
-2.0322669e-001
9.9103779e-002
9.2267573e-001
2.2037072e+000
3.6203957e+000
4.6764603e+000
5.4676089e+000
6.1271338e+000
6.9805818e+000
8.3551064e+000
1.0478964e+001
1.3430697e+001
1.6988089e+001
2.0884714e+001
2.4363300e+001
2.7173128e+001
2.9710888e+001
3.2198063e+001
3.5536705e+001
3.9749817e+001
4.4625046e+001
4.9945560e+001
5.4403408e+001
5.8078873e+001
6.1716579e+001
6.5419685e+001
6.9735764e+001
7.4502106e+001
7.9155151e+001
8.3642624e+001
8.7804855e+001
9.1638702e+001
9.5135056e+001
9.8291542e+001
1.0112745e+002
1.0345700e+002
1.0506244e+002
1.0539902e+002
1.0400536e+002
1.0146332e+002
9.8389442e+001
9.5081657e+001
9.1781242e+001
8.8031975e+001
8.3682152e+001
7.9080078e+001
7.4372833e+001
6.9870804e+001
6.5632042e+001
6.1313160e+001
5.6875950e+001
5.2544350e+001
4.8332516e+001
4.4319515e+001
4.0522171e+001
3.7083580e+001
3.4035339e+001
3.1475857e+001
2.9389164e+001
2.7634348e+001
2.6203197e+001
2.5018080e+001
2.4076265e+001
2.3336000e+001
2.2806133e+001
2.2463194e+001
2.2302334e+001
2.2291668e+001
2.2441257e+001
2.2748302e+001
2.3253069e+001
2.3971367e+001
2.4948982e+001
2.6187685e+001
2.7558012e+001
2.8994211e+001
3.0293718e+001
3.1407360e+001
3.2439480e+001
3.3416214e+001
3.4725201e+001
3.6467304e+001
3.8984795e+001
4.2246414e+001
4.5138161e+001
4.7485897e+001
4.9019066e+001
4.9841228e+001
5.0679321e+001
5.1504326e+001
5.2242001e+001
5.2582199e+001
5.1997887e+001
5.0652714e+001
4.8900291e+001
4.7066696e+001
4.5579945e+001
4.4333733e+001
4.3228600e+001
4.2047802e+001
4.0637592e+001
3.8880642e+001
3.6659595e+001
3.4365314e+001
3.2125046e+001
3.0016640e+001
2.8118801e+001
2.5857174e+001
2.3102478e+001
2.0245708e+001
1.7310894e+001
1.4888405e+001
1.3051550e+001
1.1345428e+001
9.7845545e+000
8.2495270e+000
6.7583213e+000
5.3060760e+000
3.9113293e+000
2.5928099e+000
1.4281313e+000
5.5992484e-001
6.2837332e-002
2.0655781e-002
4.8572376e-001
1.3690004e+000
2.3540750e+000
3.2004881e+000
3.8818257e+000
4.3976998e+000
4.9817142e+000
5.7681894e+000
6.6242747e+000
7.5174799e+000
8.0723267e+000
8.0638599e+000
7.8553686e+000
7.3789783e+000
6.9107571e+000
6.4585905e+000
6.0155873e+000
5.6030960e+000
5.2419224e+000
4.9485540e+000
4.6423120e+000
4.3303075e+000
4.0112185e+000
3.7191219e+000
3.5648155e+000
3.5649073e+000
3.7274318e+000
4.0126925e+000
4.3290529e+000
4.6149969e+000
4.7866459e+000
4.8838177e+000
4.9616899e+000
5.0680447e+000
5.2558880e+000
5.5038304e+000
5.8125510e+000
6.1496038e+000
6.5123796e+000
6.8121214e+000
6.9768353e+000
7.0157313e+000
6.8190761e+000
6.5608969e+000
6.2046051e+000
5.8278546e+000
5.4307742e+000
5.0522532e+000
4.7102723e+000
4.4051914e+000
4.1448898e+000
3.8662760e+000
3.5599091e+000
3.2205446e+000
2.8354907e+000
2.4200587e+000
1.9749956e+000
1.4842440e+000
1.0055072e+000
6.0425258e-001
2.8578678e-001
1.1847892e-001
2.2888783e-002
5.4554106e-004
3.1241342e-002
1.2538987e-001
2.8663880e-001
5.8310163e-001
8.6379838e-001
1.0857258e+000
1.2079881e+000
1.1232514e+000
1.0432841e+000
9.8362237e-001
1.0163037e+000
1.1988554e+000
1.4445143e+000
1.7732555e+000
2.1011825e+000
2.4159300e+000
2.6693423e+000
2.8376429e+000
2.9148855e+000
2.8982999e+000
2.8123515e+000
2.6806190e+000
2.5300660e+000
2.3814294e+000
2.2509131e+000
2.1382000e+000
2.0481043e+000
1.9793657e+000
1.9491146e+000
1.9495480e+000
2.0134277e+000
2.0867534e+000
2.1673851e+000
2.2255766e+000
2.2330189e+000
2.2400029e+000
2.2562950e+000
2.3046017e+000
2.4115303e+000
2.5405858e+000
2.6994343e+000
2.8742959e+000
3.0675032e+000
3.2822480e+000
3.5241854e+000
3.7950430e+000
4.1042972e+000
4.4748521e+000
4.8971519e+000
5.3699646e+000
5.8598251e+000
6.3172612e+000
6.7342391e+000
7.0522785e+000
7.3034325e+000
7.4253511e+000
7.4801583e+000
7.3960600e+000
7.2594576e+000
6.9988933e+000
6.7075272e+000
6.3373661e+000
5.9519181e+000
5.5272441e+000
5.0805998e+000
4.5895171e+000
4.0875673e+000
3.5743682e+000
3.0900545e+000
2.6485753e+000
2.2332087e+000
1.8462620e+000
1.4654827e+000
1.0914400e+000
7.2256821e-001
3.5895181e-001
2.0101666e-004
-3.4608144e-001
-6.5157855e-001
-9.2021871e-001
-1.1110028e+000
-1.2649081e+000
-1.3720770e+000
-1.4628682e+000
-1.5278484e+000
-1.5694001e+000
-1.5287877e+000
-1.4557086e+000
-1.2770234e+000
-1.0859884e+000
-8.5976857e-001
-6.3335633e-001
-4.0557119e-001
-1.7130767e-001
7.4240088e-002
3.0704570e-001
5.1075470e-001
6.5422124e-001
7.0883155e-001
6.8775558e-001
5.8204567e-001
4.3836296e-001
2.6863369e-001
1.3072243e-001
3.2878354e-002
3.7007798e-002
1.2151401e-001
3.6169130e-001
6.9045115e-001
1.1730000e+000
1.7033286e+000
2.2656331e+000
2.8034174e+000
3.1817880e+000
3.5114429e+000
3.6593242e+000
3.7940969e+000
3.8876195e+000
3.9880638e+000
4.1123514e+000
4.2595448e+000
4.4653893e+000
4.7038751e+000
5.0054235e+000
5.3155050e+000
5.6405573e+000
5.9791069e+000
6.3390737e+000
6.7386942e+000
7.1797853e+000
7.6474099e+000
8.1325321e+000
8.5980892e+000
9.0337477e+000
9.3351479e+000
9.5507689e+000
9.5820875e+000
9.5392513e+000
9.3983040e+000
9.2284184e+000
9.0090332e+000
8.7949877e+000
8.6689463e+000
8.5872469e+000
8.7639008e+000
8.9666710e+000
9.2810717e+000
9.5741825e+000
9.8001871e+000
1.0019595e+001
1.0223822e+001
1.0438419e+001
1.0662208e+001
1.0815452e+001
1.0855596e+001
1.0766400e+001
1.0523246e+001
1.0204580e+001
9.8196154e+000
9.4314909e+000
9.0406828e+000
8.6398888e+000
8.2313280e+000
7.8002667e+000
7.3645706e+000
6.9758201e+000
6.5992351e+000
6.2169080e+000
5.8255963e+000
5.3417401e+000
4.8533263e+000
4.3992171e+000
3.9591136e+000
3.6112823e+000
3.2666552e+000
2.9356284e+000
2.6028771e+000
2.2652841e+000
1.9410264e+000
1.6483731e+000
1.3787721e+000
1.1527532e+000
9.7168946e-001
8.5713941e-001
8.4414816e-001
9.3741798e-001
1.0668195e+000
1.2168483e+000
1.2220815e+000
1.1363167e+000
9.7167802e-001
7.7697361e-001
6.8658632e-001
6.2645155e-001
5.0594789e-001
3.6509949e-001
6.5315470e-002
-2.4523520e-001
-3.5142493e-001
-4.2396843e-001
-1.3806643e-001
6.0353130e-003
1.8705291e-001
5.1953340e-001
7.7425802e-001
1.0219086e+000
1.2489433e+000
1.4593052e+000
1.6329483e+000
1.7521405e+000
1.7850386e+000
1.8433959e+000
1.9351346e+000
2.1377387e+000
2.4437385e+000
2.8025615e+000
3.1967859e+000
3.4745903e+000
3.6887271e+000
3.5604954e+000
3.3022494e+000
2.8475125e+000
2.3443761e+000
2.1758730e+000
2.0622888e+000
2.4038999e+000
