Image.
>Pix99999.
  .
5555
5555
2300
900
5555
2
1
0
701
5555
1.2798000e-002
1.3064618e-002
1.3330240e-002
1.3596855e-002
1.3862480e-002
1.4129093e-002
1.4395712e-002
1.4661340e-002
1.4927949e-002
1.5194567e-002
1.5460201e-002
1.5726803e-002
1.5992440e-002
1.6259043e-002
1.6525660e-002
1.6791301e-002
1.7057898e-002
1.7324517e-002
1.7590160e-002
1.7856752e-002
1.8122401e-002
1.8388990e-002
1.8655609e-002
1.8921260e-002
1.9187845e-002
1.9454464e-002
5.7474258e-003
2.0127729e-004
-3.1634882e-002
-3.9484706e-002
-4.3579299e-002
-1.9881992e-002
5.3883274e-003
2.1194268e-002
3.5859331e-002
4.5319550e-002
5.6293968e-002
7.5634480e-002
9.3249969e-002
1.0436057e-001
1.0959886e-001
1.0278162e-001
8.0924921e-002
3.5677910e-002
-2.6174959e-002
-1.0695221e-001
-1.7343505e-001
-2.2501720e-001
-2.4286646e-001
-2.3625749e-001
-2.1793501e-001
-1.9378082e-001
-1.8166828e-001
-1.7498927e-001
-1.7283040e-001
-1.7203578e-001
-1.6902681e-001
-1.6548151e-001
-1.8581654e-001
-2.0993185e-001
-2.5070915e-001
-2.9187667e-001
-3.2008681e-001
-3.4525731e-001
-3.6000285e-001
-3.6876208e-001
-3.5924110e-001
-3.4380090e-001
-3.1789383e-001
-3.1082594e-001
-3.4157902e-001
-3.9979097e-001
-4.9214056e-001
-5.6530219e-001
-6.1284131e-001
-6.3826859e-001
-6.4649969e-001
-6.8782848e-001
-7.5337058e-001
-8.2769972e-001
-9.0548831e-001
-9.3097496e-001
-9.3440253e-001
-8.8405538e-001
-8.1722641e-001
-7.2565478e-001
-6.2857348e-001
-5.5434424e-001
-4.8708150e-001
-4.8199686e-001
-4.9142957e-001
-5.4361022e-001
-5.9726167e-001
-6.3039172e-001
-6.5485680e-001
-6.6215265e-001
-6.8147224e-001
-7.3279202e-001
-7.8554797e-001
-8.3269054e-001
-8.4543860e-001
-8.1408978e-001
-7.7443296e-001
-7.3283118e-001
-7.0989537e-001
-7.0290697e-001
-7.0040798e-001
-6.9952238e-001
-7.2096878e-001
-7.5388432e-001
-8.1704158e-001
-8.9211357e-001
-9.3623400e-001
-9.6984351e-001
-9.4626695e-001
-9.0903491e-001
-8.9622080e-001
-8.9360243e-001
-9.5078337e-001
-1.0203391e+000
-1.0935972e+000
-1.1627939e+000
-1.2136563e+000
-1.2602292e+000
-1.3033714e+000
-1.3421142e+000
-1.3726799e+000
-1.3855127e+000
-1.3752697e+000
-1.3483733e+000
-1.3083743e+000
-1.2762768e+000
-1.2538223e+000
-1.2525730e+000
-1.2656519e+000
-1.2715057e+000
-1.2705081e+000
-1.2232101e+000
-1.1518265e+000
-1.0885335e+000
-1.0305001e+000
-1.0508630e+000
-1.0985180e+000
-1.1562632e+000
-1.2144097e+000
-1.2334356e+000
-1.2437683e+000
-1.2594301e+000
-1.2788503e+000
-1.3040380e+000
-1.3264357e+000
-1.3334312e+000
-1.3376229e+000
-1.3482897e+000
-1.3641040e+000
-1.3919357e+000
-1.4141874e+000
-1.4244955e+000
-1.4142760e+000
-1.3814315e+000
-1.3232743e+000
-1.2447670e+000
-1.1612936e+000
-1.0762326e+000
-1.0377697e+000
-1.0292721e+000
-1.0749344e+000
-1.1481823e+000
-1.2033080e+000
-1.2494909e+000
-1.2647400e+000
-1.2705587e+000
-1.3011909e+000
-1.3421694e+000
-1.3851120e+000
-1.4186250e+000
-1.4017966e+000
-1.3605763e+000
-1.3057758e+000
-1.2618728e+000
-1.2611114e+000
-1.2844669e+000
-1.3242080e+000
-1.3703389e+000
-1.4128228e+000
-1.4509686e+000
-1.4809928e+000
-1.4816310e+000
-1.4560137e+000
-1.4050870e+000
-1.3431357e+000
-1.2752908e+000
-1.2044114e+000
-1.1313477e+000
-1.0553401e+000
-1.0115635e+000
-9.8677921e-001
-9.8793286e-001
-1.0019270e+000
-9.7397834e-001
-9.2686141e-001
-8.3365929e-001
-7.2614318e-001
-6.5183371e-001
-6.0452759e-001
-6.2823385e-001
-6.8506706e-001
-7.6440924e-001
-8.4916401e-001
-9.2286044e-001
-9.8358500e-001
-1.0172561e+000
-1.0195200e+000
-9.8205775e-001
-9.3148994e-001
-8.9219570e-001
-8.8829535e-001
-9.2935109e-001
-9.7345203e-001
-1.0053397e+000
-1.0221171e+000
-1.0241946e+000
-1.0780603e+000
-1.1637746e+000
-1.3035200e+000
-1.4664036e+000
-1.5369828e+000
-1.5503625e+000
-1.4377692e+000
-1.2701347e+000
-1.1022629e+000
-9.4089979e-001
-7.8230345e-001
-6.2426484e-001
-4.7358042e-001
-3.4727937e-001
-3.0238104e-001
-3.2198071e-001
-4.0565521e-001
-5.1456112e-001
-6.1120200e-001
-6.8351996e-001
-7.2139704e-001
-7.1430755e-001
-6.6956210e-001
-5.9060150e-001
-4.8892990e-001
-4.5067877e-001
-4.7088206e-001
-5.6744921e-001
-7.1326429e-001
-7.4840170e-001
-7.0553076e-001
-5.4138350e-001
-3.1500798e-001
-1.3576309e-001
5.1667206e-003
8.6408585e-002
1.2370715e-001
1.1206947e-001
7.6320998e-002
5.1244427e-002
5.7206668e-002
1.1369061e-001
1.8226001e-001
2.0439807e-001
1.8270820e-001
1.3327067e-001
4.2347830e-002
-8.7751597e-002
-2.0754829e-001
-2.9014009e-001
-3.3400688e-001
-3.3902001e-001
-3.4555700e-001
-3.7172893e-001
-4.5812628e-001
-6.0981709e-001
-7.4976158e-001
-8.6399257e-001
-8.3029598e-001
-6.7720538e-001
-4.5857754e-001
-2.1198612e-001
-1.1283612e-001
-1.2398671e-001
-1.4503959e-001
-1.4702849e-001
-9.9912286e-006
2.7299154e-001
7.3986077e-001
1.3041347e+000
1.7521286e+000
2.1018202e+000
2.3965101e+000
2.8123507e+000
3.5343370e+000
4.8460293e+000
6.8854418e+000
9.9560595e+000
1.4032143e+001
1.8288231e+001
2.2327503e+001
2.5885214e+001
2.8999891e+001
3.2512280e+001
3.6537727e+001
4.1243217e+001
4.6474319e+001
5.0994041e+001
5.4850056e+001
5.8527790e+001
6.2146240e+001
6.6292389e+001
7.0811836e+001
7.5145653e+001
7.9232384e+001
8.2854424e+001
8.6019249e+001
8.8726700e+001
9.0979889e+001
9.2804329e+001
9.4258759e+001
9.5431725e+001
9.6129913e+001
9.6164497e+001
9.5514015e+001
9.4270973e+001
9.2426643e+001
9.0085762e+001
8.7011543e+001
8.3195557e+001
7.9124634e+001
7.4994637e+001
7.0958946e+001
6.7052208e+001
6.2910240e+001
5.8511913e+001
5.4161839e+001
4.9894699e+001
4.5924911e+001
4.2268585e+001
3.9037086e+001
3.6230049e+001
3.3798691e+001
3.1724066e+001
2.9875366e+001
2.8287588e+001
2.6989336e+001
2.5996239e+001
2.5287498e+001
2.4830040e+001
2.4541069e+001
2.4394897e+001
2.4344540e+001
2.4401621e+001
2.4569658e+001
2.4843151e+001
2.5215292e+001
2.5740694e+001
2.6433372e+001
2.7350651e+001
2.8488323e+001
2.9740669e+001
3.1076721e+001
3.2356380e+001
3.3565525e+001
3.4824322e+001
3.6200550e+001
3.8210018e+001
4.0903957e+001
4.3783447e+001
4.6663235e+001
4.8848225e+001
5.0352192e+001
5.1608749e+001
5.2653782e+001
5.3627129e+001
5.4428020e+001
5.4847206e+001
5.4772800e+001
5.4145615e+001
5.3145550e+001
5.2063782e+001
5.0945534e+001
4.9828552e+001
4.8618324e+001
4.7240059e+001
4.5691494e+001
4.3926735e+001
4.2084171e+001
4.0207195e+001
3.8175320e+001
3.5975319e+001
3.3261703e+001
2.9909407e+001
2.6627207e+001
2.3477098e+001
2.0822117e+001
1.8712259e+001
1.6608429e+001
1.4517709e+001
1.2429811e+001
1.0365081e+001
8.3424473e+000
6.3994851e+000
4.5881538e+000
2.9872427e+000
1.7173799e+000
8.0258429e-001
2.2417629e-001
1.1504677e-001
4.9949428e-001
1.0796509e+000
1.7259617e+000
2.3033528e+000
2.7512658e+000
3.1784604e+000
3.6399398e+000
4.2241526e+000
4.9846201e+000
5.7555537e+000
6.4822021e+000
7.0035572e+000
7.2090092e+000
7.3015823e+000
7.2406378e+000
7.1305332e+000
6.9548216e+000
6.7089343e+000
6.3761015e+000
5.9413362e+000
5.4199748e+000
4.9051223e+000
4.4193439e+000
4.0380836e+000
3.7621610e+000
3.5799291e+000
3.5118036e+000
3.5575688e+000
3.7275684e+000
4.0359931e+000
4.4081674e+000
4.8288336e+000
5.2503591e+000
5.6534114e+000
6.0347762e+000
6.3676643e+000
6.6671882e+000
6.9101539e+000
7.1203141e+000
7.2675290e+000
7.3684397e+000
7.3630075e+000
7.2740808e+000
7.0467501e+000
6.7413626e+000
6.3278308e+000
5.8644128e+000
5.3409739e+000
4.7776055e+000
4.1997728e+000
3.6593380e+000
3.1776662e+000
2.7852390e+000
2.4348121e+000
2.0565615e+000
1.6469141e+000
1.1858058e+000
7.4269670e-001
3.9935303e-001
1.4719100e-001
4.2791519e-002
1.8208642e-002
9.5832370e-002
2.2269070e-001
3.5837761e-001
4.8129207e-001
5.7828832e-001
6.5935981e-001
7.0331031e-001
7.5269580e-001
7.8712904e-001
8.5041159e-001
9.6076685e-001
1.1088064e+000
1.3249303e+000
1.5689386e+000
1.8578035e+000
2.1585500e+000
2.4639800e+000
2.7317221e+000
2.9370041e+000
3.0586557e+000
3.1019487e+000
3.1027057e+000
3.0815206e+000
3.0678990e+000
3.0590465e+000
3.0461988e+000
3.0324428e+000
3.0112445e+000
3.0043161e+000
3.0363193e+000
3.1037080e+000
3.2472529e+000
3.4083631e+000
3.5959592e+000
3.7608702e+000
3.8719857e+000
3.9560585e+000
3.9957399e+000
4.0437231e+000
4.1168928e+000
4.2341685e+000
4.4142685e+000
4.6259794e+000
4.8677769e+000
5.1042161e+000
5.3355627e+000
5.5670543e+000
5.8013411e+000
6.0466056e+000
6.2977133e+000
6.5472584e+000
6.7961249e+000
7.0400519e+000
7.2812529e+000
7.5154548e+000
7.7329593e+000
7.9031730e+000
8.0220165e+000
8.0039959e+000
7.9188595e+000
7.6617303e+000
7.3627591e+000
6.9560246e+000
6.5220675e+000
6.0223036e+000
5.5053930e+000
4.9567885e+000
4.4180589e+000
3.8991952e+000
3.3999989e+000
2.9313133e+000
2.4876649e+000
2.0802400e+000
1.7193571e+000
1.4061549e+000
1.1215191e+000
8.5948855e-001
6.0500079e-001
3.6634368e-001
1.7631368e-001
2.4675246e-002
-5.6917623e-002
-1.0544697e-001
-1.1239938e-001
-9.7015046e-002
-2.7341641e-002
7.1828797e-002
2.6156199e-001
4.6392781e-001
6.9190365e-001
8.9785832e-001
1.0333457e+000
1.1445266e+000
1.1956600e+000
1.2339400e+000
1.2446263e+000
1.2332686e+000
1.1819811e+000
1.0940899e+000
9.5504522e-001
7.8574318e-001
5.8790213e-001
4.0465093e-001
2.4072561e-001
1.1877582e-001
2.8917611e-002
-3.7045572e-002
-7.9334974e-002
-5.3989839e-002
1.6797304e-002
1.9149491e-001
4.0120465e-001
6.4727145e-001
8.8872737e-001
1.0715480e+000
1.2344737e+000
1.3196057e+000
1.4010335e+000
1.4726012e+000
1.5462439e+000
1.6249574e+000
1.6912299e+000
1.7256845e+000
1.7457405e+000
1.7379971e+000
1.7259740e+000
1.7114571e+000
1.7242633e+000
1.7791660e+000
1.9012712e+000
2.0932176e+000
2.3245435e+000
2.5831151e+000
2.8208523e+000
3.0403943e+000
3.2151759e+000
3.3595600e+000
3.4286199e+000
3.4627624e+000
3.4252133e+000
3.3707285e+000
3.3107049e+000
3.2464840e+000
3.1569915e+000
3.0575907e+000
2.9024165e+000
2.7627914e+000
2.6929264e+000
2.6586361e+000
2.7361982e+000
2.8054743e+000
2.8506286e+000
2.8502460e+000
2.7634978e+000
2.6544251e+000
2.5130289e+000
2.3727100e+000
2.2350433e+000
2.1078856e+000
1.9906493e+000
1.8744100e+000
1.7578213e+000
1.6283017e+000
1.4930390e+000
1.3707663e+000
1.2536662e+000
1.1422714e+000
1.0283558e+000
8.6959010e-001
6.9920510e-001
4.8126119e-001
2.5991321e-001
4.4296995e-002
-1.5730792e-001
-2.6335609e-001
-3.4761566e-001
-3.3664286e-001
-3.2659590e-001
-3.2002956e-001
-3.1435969e-001
-3.0936795e-001
-2.7907887e-001
-2.0460600e-001
-1.3433699e-001
-7.2272301e-002
-6.3210919e-002
-1.1150999e-001
-2.0374800e-001
-3.2981843e-001
-4.3519878e-001
-5.2422047e-001
-5.5029750e-001
-5.4595965e-001
-5.0404888e-001
-4.4796157e-001
-3.3980468e-001
-2.1952835e-001
-6.9520429e-002
7.8882724e-002
1.0530707e-001
1.2090600e-001
5.3494714e-002
-9.9449186e-005
-3.1420146e-003
-6.5313205e-003
1.1208789e-001
2.4944885e-001
4.4174480e-001
6.2499225e-001
7.8700197e-001
8.6751133e-001
8.1691080e-001
7.0594740e-001
5.2387893e-001
4.3827018e-001
4.4296837e-001
5.2306175e-001
6.5453213e-001
6.7343831e-001
6.3287365e-001
4.8310152e-001
2.9338357e-001
1.0376288e-001
-8.4038325e-002
-1.7353949e-001
-2.4644604e-001
-1.0387000e-001
