Image.
>Pix99999.
  .
5555
5555
2300
900
5555
2
1
0
701
5555
1.0964000e-002
1.1192673e-002
1.1420349e-002
1.1649018e-002
1.1876697e-002
1.2104372e-002
1.2333036e-002
1.2560721e-002
1.2789383e-002
1.3017069e-002
1.3244743e-002
1.3473402e-002
1.3701092e-002
1.3929748e-002
1.4157441e-002
1.4385114e-002
1.4613766e-002
1.4841463e-002
1.5070111e-002
1.5297811e-002
1.5526458e-002
1.5754160e-002
1.5981834e-002
1.6210474e-002
1.6438182e-002
1.6666820e-002
6.1935710e-004
1.8990137e-002
3.8535360e-002
5.3759839e-002
6.8297982e-002
3.3998244e-002
-5.2914782e-003
-7.7452116e-002
-1.4831983e-001
-1.9653350e-001
-2.3356029e-001
-2.2498354e-001
-2.1117891e-001
-1.8904136e-001
-1.7452343e-001
-1.7766459e-001
-1.8491299e-001
-1.9716723e-001
-1.9924264e-001
-1.8823244e-001
-1.5055639e-001
-8.7951168e-002
-3.1709515e-002
1.8581379e-002
1.7624643e-002
-1.2686038e-002
-3.3774681e-002
-4.9989857e-002
-1.2010599e-003
6.8630710e-002
1.6731553e-001
2.7233768e-001
3.5174260e-001
4.2651638e-001
4.3949345e-001
4.4641870e-001
4.4898871e-001
4.5824361e-001
5.0803936e-001
5.6121093e-001
6.1218745e-001
6.5723878e-001
6.8768287e-001
7.0981759e-001
7.1911204e-001
7.2082651e-001
7.1352857e-001
7.2674274e-001
7.6411563e-001
8.0526859e-001
8.4750551e-001
8.4437591e-001
8.0957431e-001
7.5875503e-001
7.0101571e-001
6.5010691e-001
6.0249019e-001
5.5641192e-001
5.1076162e-001
5.0578952e-001
5.1022816e-001
5.5419660e-001
6.0372335e-001
6.4126939e-001
6.7206001e-001
6.6558576e-001
6.4456660e-001
5.8342600e-001
5.1242959e-001
4.2937893e-001
3.5600039e-001
3.0773306e-001
2.8745461e-001
3.0784345e-001
3.7601998e-001
4.9873880e-001
6.4917147e-001
8.2004976e-001
9.2519194e-001
9.7394550e-001
9.3806177e-001
8.5157239e-001
7.6200068e-001
6.7411488e-001
6.0203844e-001
5.3638983e-001
4.8538882e-001
4.3879738e-001
4.2963734e-001
4.2936012e-001
4.3846372e-001
4.4864023e-001
4.5632291e-001
4.6571550e-001
4.8733371e-001
5.1588553e-001
5.5934441e-001
6.1416048e-001
6.8915862e-001
7.6162106e-001
8.2070100e-001
8.3773959e-001
7.9633546e-001
7.2613060e-001
6.3615769e-001
5.8223021e-001
5.6651711e-001
5.8463264e-001
6.2313491e-001
6.4690542e-001
6.5844512e-001
6.4877850e-001
6.2862825e-001
6.2933081e-001
6.4002401e-001
7.0714617e-001
7.9397130e-001
8.7898076e-001
9.6150619e-001
1.0083741e+000
1.0457994e+000
1.0780900e+000
1.0998194e+000
1.0770584e+000
1.0236000e+000
9.0862715e-001
7.9164702e-001
7.0887953e-001
6.8197298e-001
7.4379385e-001
8.3333856e-001
9.3202287e-001
1.0012255e+000
1.0324985e+000
1.0575258e+000
1.0830350e+000
1.1234857e+000
1.1743284e+000
1.1892799e+000
1.1805464e+000
1.1254969e+000
1.0494517e+000
9.9871916e-001
9.6078038e-001
9.6405697e-001
9.8320788e-001
1.0276344e+000
1.0798745e+000
1.1112852e+000
1.1216000e+000
1.0582485e+000
9.7078127e-001
8.9637727e-001
8.4787333e-001
8.6060858e-001
8.8750231e-001
8.9999002e-001
8.8894558e-001
8.4068322e-001
8.1375581e-001
8.2443649e-001
9.1458625e-001
1.0832280e+000
1.2489940e+000
1.4009585e+000
1.4715855e+000
1.4821469e+000
1.4396017e+000
1.3684183e+000
1.2817222e+000
1.1900879e+000
1.1392937e+000
1.1096351e+000
1.1148976e+000
1.1337428e+000
1.1419089e+000
1.1466994e+000
1.1646720e+000
1.1898937e+000
1.2344836e+000
1.2707597e+000
1.2617520e+000
1.2216172e+000
1.1423568e+000
1.0676700e+000
1.0164437e+000
1.0015360e+000
1.0237890e+000
1.0712914e+000
1.1480093e+000
1.2299452e+000
1.3193220e+000
1.3822088e+000
1.4152284e+000
1.3980657e+000
1.3422952e+000
1.3067406e+000
1.2850493e+000
1.3485121e+000
1.4548857e+000
1.5162795e+000
1.5426495e+000
1.4162309e+000
1.2169576e+000
9.7588253e-001
7.3228180e-001
5.4455990e-001
4.1630739e-001
4.2156985e-001
4.9909779e-001
6.4006370e-001
7.6956737e-001
8.1762838e-001
8.1847948e-001
7.8012288e-001
7.5086957e-001
7.4961555e-001
7.5296372e-001
7.5359213e-001
7.4619704e-001
7.3253626e-001
7.5665438e-001
8.1188715e-001
9.0338588e-001
1.0168357e+000
1.0877132e+000
1.1321319e+000
1.1155244e+000
1.0702488e+000
1.0110421e+000
9.5029485e-001
8.9954108e-001
8.6599696e-001
8.8637972e-001
9.2015767e-001
8.8614458e-001
7.5937492e-001
4.7953993e-001
1.6566281e-001
-3.4102049e-002
-1.0601194e-001
-4.4470757e-002
4.3367863e-002
-1.7678473e-002
-1.6475624e-001
-3.2341823e-001
-3.6652377e-001
-2.7062809e-001
-7.5472414e-002
1.8545492e-001
3.1373569e-001
3.1210646e-001
2.0050576e-001
1.4150485e-002
-1.0749561e-001
-1.7923510e-001
-2.1698771e-001
-2.3202273e-001
-2.7755737e-001
-3.2522556e-001
-3.1069744e-001
-2.1837750e-001
-3.5442859e-003
3.3710074e-001
9.9938470e-001
1.8770750e+000
2.8573606e+000
3.8666306e+000
4.7901640e+000
5.8043394e+000
7.0475488e+000
8.7765064e+000
1.1131801e+001
1.4052656e+001
1.7450001e+001
2.0685169e+001
2.3503849e+001
2.6031143e+001
2.8350777e+001
3.1141407e+001
3.4457470e+001
3.8301949e+001
4.2556961e+001
4.6290352e+001
4.9544029e+001
5.2695156e+001
5.5821758e+001
5.9464436e+001
6.3513210e+001
6.7717300e+001
7.2008598e+001
7.6163780e+001
8.0129372e+001
8.3750298e+001
8.7040771e+001
9.0013962e+001
9.2665756e+001
9.5023552e+001
9.6724785e+001
9.7538467e+001
9.7582870e+001
9.7027313e+001
9.5913658e+001
9.4323486e+001
9.1975998e+001
8.8866035e+001
8.5345909e+001
8.1603912e+001
7.7854454e+001
7.4139809e+001
7.0194199e+001
6.6005074e+001
6.1805691e+001
5.7623188e+001
5.3584145e+001
4.9714088e+001
4.6140476e+001
4.2895748e+001
4.0038567e+001
3.7560814e+001
3.5373180e+001
3.3488304e+001
3.1885450e+001
3.0559229e+001
2.9451000e+001
2.8532726e+001
2.7743561e+001
2.7073658e+001
2.6501005e+001
2.6067923e+001
2.5785921e+001
2.5694050e+001
2.5792240e+001
2.6124802e+001
2.6698000e+001
2.7453499e+001
2.8376543e+001
2.9289917e+001
3.0157560e+001
3.0970886e+001
3.1728493e+001
3.2640392e+001
3.3767925e+001
3.5453621e+001
3.7675499e+001
3.9886749e+001
4.2002205e+001
4.3660542e+001
4.4931526e+001
4.6142464e+001
4.7299080e+001
4.8444721e+001
4.9396759e+001
4.9971004e+001
5.0086086e+001
4.9707458e+001
4.9054272e+001
4.8319054e+001
4.7516121e+001
4.6661148e+001
4.5645618e+001
4.4416584e+001
4.2869431e+001
4.0973644e+001
3.9050655e+001
3.7194950e+001
3.5445038e+001
3.3790604e+001
3.1656797e+001
2.8879770e+001
2.5954531e+001
2.2933640e+001
2.0353569e+001
1.8263741e+001
1.6190714e+001
1.4116271e+001
1.1994774e+001
9.8534355e+000
7.8118992e+000
5.9152842e+000
4.1987162e+000
2.7370527e+000
1.5516655e+000
6.9546187e-001
1.9496085e-001
2.2721180e-001
8.9802182e-001
1.7434490e+000
2.6091135e+000
3.4545271e+000
4.2173557e+000
4.9691596e+000
5.7296209e+000
6.3032093e+000
6.5840397e+000
6.5829816e+000
6.2212224e+000
5.8721471e+000
5.5720983e+000
5.2804284e+000
4.9942565e+000
4.6926351e+000
4.3627977e+000
4.0203085e+000
3.6270657e+000
3.1430652e+000
2.5623577e+000
1.9661252e+000
1.4214540e+000
1.0259557e+000
8.0824065e-001
7.6424187e-001
8.5630208e-001
1.0456055e+000
1.2901428e+000
1.5589499e+000
1.8749425e+000
2.2369738e+000
2.6326041e+000
3.0562551e+000
3.4553447e+000
3.8098919e+000
4.1097283e+000
4.3286715e+000
4.5151000e+000
4.6603074e+000
4.7794638e+000
4.8719053e+000
4.9146066e+000
4.8810301e+000
4.7851934e+000
4.6049314e+000
4.4011164e+000
4.1663241e+000
3.9318943e+000
3.6806359e+000
3.4127800e+000
3.1260357e+000
2.8185720e+000
2.4909506e+000
2.1200516e+000
1.7121686e+000
1.2842304e+000
8.8044602e-001
5.6351614e-001
3.2184044e-001
1.6438243e-001
4.9515668e-002
-4.7366366e-002
-1.5400322e-001
-1.7187360e-001
-1.4007026e-001
-2.6014768e-002
7.6313093e-002
1.5303057e-001
1.8606284e-001
1.7191371e-001
1.6283651e-001
1.7038703e-001
2.0705779e-001
2.7848464e-001
3.9149642e-001
5.5023837e-001
7.4698752e-001
9.7216398e-001
1.1845688e+000
1.3790326e+000
1.5260051e+000
1.6392673e+000
1.7180814e+000
1.7727783e+000
1.8063480e+000
1.8273157e+000
1.8462071e+000
1.8694142e+000
1.9144595e+000
1.9649401e+000
2.0207193e+000
2.0737321e+000
2.1198409e+000
2.1728351e+000
2.2492609e+000
2.3370864e+000
2.4522610e+000
2.5758886e+000
2.7130070e+000
2.8632126e+000
3.0340993e+000
3.2253759e+000
3.4513607e+000
3.7029514e+000
3.9969769e+000
4.3347659e+000
4.7293301e+000
5.1863117e+000
5.7042818e+000
6.2705340e+000
6.8705482e+000
7.4832582e+000
8.1001749e+000
8.7149734e+000
9.3240404e+000
9.9202557e+000
1.0486235e+001
1.0964685e+001
1.1372977e+001
1.1603120e+001
1.1754742e+001
1.1707771e+001
1.1599299e+001
1.1328760e+001
1.1007241e+001
1.0565311e+001
1.0080338e+001
9.5098944e+000
8.9190359e+000
8.2969370e+000
7.6860237e+000
7.0920939e+000
6.5092087e+000
5.9381456e+000
5.3619132e+000
4.7794547e+000
4.1906362e+000
3.5986214e+000
3.0140874e+000
2.4434013e+000
1.9134910e+000
1.4194485e+000
1.0004330e+000
6.2909740e-001
3.5329670e-001
1.2603042e-001
6.6534355e-003
-7.0895202e-002
-3.9571837e-002
1.1787392e-002
1.1635314e-001
1.9983816e-001
2.1823765e-001
2.0191798e-001
1.0273144e-001
5.6360513e-003
-8.3240002e-002
-1.4029858e-001
-1.4571752e-001
-1.3665651e-001
-1.1287554e-001
-1.0746200e-001
-1.2025178e-001
-1.2962589e-001
-1.2229110e-001
-4.1945025e-002
8.7528914e-002
2.3677228e-001
4.5449018e-001
7.5458300e-001
1.0972724e+000
1.4969703e+000
1.9190979e+000
2.3754866e+000
2.8372893e+000
3.2967682e+000
3.7519946e+000
4.1858287e+000
4.6062317e+000
4.9707098e+000
5.3114586e+000
5.5782104e+000
5.8433399e+000
6.1084886e+000
6.4070687e+000
6.7744966e+000
7.1831307e+000
7.6560569e+000
8.1446877e+000
8.6482449e+000
9.1226969e+000
9.5627785e+000
9.9551420e+000
1.0304359e+001
1.0607669e+001
1.0874206e+001
1.1076750e+001
1.1245972e+001
1.1376003e+001
1.1499492e+001
1.1663626e+001
1.1842169e+001
1.2055471e+001
1.2256599e+001
1.2334944e+001
1.2370571e+001
1.2168659e+001
1.1928715e+001
1.1523164e+001
1.1102294e+001
1.0630740e+001
1.0167924e+001
9.7281036e+000
9.3133230e+000
8.9482574e+000
8.6151495e+000
8.3305521e+000
8.0690899e+000
7.8308825e+000
7.5679560e+000
7.2762365e+000
6.9181991e+000
6.5117793e+000
6.0755558e+000
5.6289248e+000
5.2339592e+000
4.8656354e+000
4.5664058e+000
4.2828755e+000
3.9681358e+000
3.6378641e+000
3.1926601e+000
2.7358387e+000
2.2565422e+000
1.7943316e+000
1.4514742e+000
1.1266764e+000
8.8041145e-001
6.2394333e-001
3.3714467e-001
6.0102716e-002
-1.8975812e-001
-3.6302972e-001
-4.0049353e-001
-3.6760938e-001
-2.4106660e-001
-1.0259265e-001
4.9020827e-002
2.1112321e-001
3.8254562e-001
5.7043666e-001
7.6675498e-001
9.4345701e-001
1.1077843e+000
1.2050971e+000
1.2757748e+000
1.2304089e+000
1.1562772e+000
9.8281330e-001
7.9680681e-001
5.9327918e-001
3.9116246e-001
2.1857092e-001
5.5437796e-002
-4.3009967e-003
-1.3267194e-001
-1.8862429e-001
-2.3232570e-001
-2.4089453e-001
-2.6199913e-001
-3.1008980e-001
-3.7314221e-001
-4.5983723e-001
-5.3061700e-001
-5.8223677e-001
-6.2547481e-001
-6.6191673e-001
-7.7496588e-001
-9.4257039e-001
-1.1744525e+000
-1.4395901e+000
-1.5479312e+000
-1.5958815e+000
-1.3271952e+000
-9.7647071e-001
-5.3855819e-001
-8.7505519e-002
6.2406000e-002
