Image.
>Pix99999.
  .
5555
5555
2300
900
5555
2
1
0
701
5555
1.3183000e-002
1.3457607e-002
1.3731217e-002
1.4005822e-002
1.4279434e-002
1.4554036e-002
1.4828643e-002
1.5102260e-002
1.5376857e-002
1.5650477e-002
1.5925072e-002
1.6200664e-002
1.6474303e-002
1.6744968e-002
1.7022440e-002
1.7307872e-002
1.7570989e-002
1.7804341e-002
1.8117875e-002
1.8545302e-002
1.8672600e-002
1.8377241e-002
1.9198066e-002
2.1591598e-002
1.9839073e-002
1.0076949e-002
2.8103590e-003
6.7391894e-003
7.0590838e-003
-1.1329969e-002
-3.7852999e-002
-5.4895662e-002
-4.6192206e-002
-4.5508444e-003
4.2438194e-002
6.1143298e-002
3.4237571e-002
-4.2237196e-002
-1.3796520e-001
-2.1652490e-001
-2.5739515e-001
-2.5033695e-001
-2.0679261e-001
-1.4187904e-001
-5.9431121e-002
3.7125513e-002
1.3173659e-001
2.0579669e-001
2.4634440e-001
2.4663571e-001
2.1780428e-001
1.7373951e-001
1.1698075e-001
4.7963195e-002
-2.6443465e-002
-9.5678784e-002
-1.4271080e-001
-1.5239258e-001
-1.2553495e-001
-6.8825901e-002
8.2647428e-003
9.6045554e-002
1.8712102e-001
2.7261552e-001
3.3451170e-001
3.5442078e-001
3.2506043e-001
2.4891935e-001
1.5301794e-001
6.9111660e-002
1.4818400e-002
-3.2666815e-003
-3.1253777e-003
-4.9142209e-003
-3.6161023e-003
1.5535483e-002
7.0610419e-002
1.7123771e-001
2.8860223e-001
3.8345054e-001
4.2924085e-001
4.1146410e-001
3.4474474e-001
2.5316128e-001
1.5734160e-001
7.5366683e-002
2.1334533e-002
5.4895240e-003
2.7912101e-002
8.2718976e-002
1.5461652e-001
2.2748210e-001
2.9564804e-001
3.5788530e-001
4.1479105e-001
4.6561614e-001
5.0177300e-001
5.1471829e-001
5.0844759e-001
4.9268296e-001
4.8059571e-001
4.8342115e-001
4.9975216e-001
5.2239245e-001
5.4085070e-001
5.4537404e-001
5.3394878e-001
5.0801140e-001
4.7046497e-001
4.2475232e-001
3.7473243e-001
3.2689470e-001
2.9813641e-001
3.0669373e-001
3.5879606e-001
4.5112884e-001
5.6184614e-001
6.6417050e-001
7.4171740e-001
7.8532267e-001
7.9649425e-001
7.8149956e-001
7.4874806e-001
7.0843107e-001
6.7523181e-001
6.6306210e-001
6.7465979e-001
7.0489299e-001
7.3589098e-001
7.4868906e-001
7.4155015e-001
7.2156960e-001
7.0018715e-001
6.8730241e-001
6.8001282e-001
6.7296052e-001
6.7475259e-001
6.9991398e-001
7.6029176e-001
8.5909230e-001
9.6958798e-001
1.0548315e+000
1.0915852e+000
1.0717554e+000
1.0215349e+000
9.7827959e-001
9.6060908e-001
9.7472423e-001
1.0149075e+000
1.0725944e+000
1.1479071e+000
1.2413678e+000
1.3350492e+000
1.4031798e+000
1.4250240e+000
1.3886271e+000
1.3078126e+000
1.2082893e+000
1.1148400e+000
1.0499381e+000
1.0326571e+000
1.0771381e+000
1.1828749e+000
1.3353375e+000
1.4891292e+000
1.5875771e+000
1.5902171e+000
1.4787046e+000
1.2903600e+000
1.0877135e+000
9.2386574e-001
8.3486325e-001
8.1273001e-001
8.2804716e-001
8.5359043e-001
8.7092996e-001
8.8767737e-001
9.2207533e-001
9.8075110e-001
1.0591501e+000
1.1347771e+000
1.1797724e+000
1.1820920e+000
1.1422544e+000
1.0759257e+000
1.0068096e+000
9.6136177e-001
9.5985317e-001
9.9172366e-001
1.0309160e+000
1.0573828e+000
1.0626456e+000
1.0681331e+000
1.1020961e+000
1.1514994e+000
1.1806614e+000
1.1599760e+000
1.0779147e+000
9.7675902e-001
9.2108208e-001
9.4156712e-001
1.0377693e+000
1.1683254e+000
1.2749790e+000
1.3180177e+000
1.2784357e+000
1.1731617e+000
1.0372195e+000
8.9857602e-001
7.7712989e-001
6.8313396e-001
6.2395567e-001
6.1678702e-001
6.7795783e-001
7.9204971e-001
9.2320073e-001
1.0314205e+000
1.0840631e+000
1.0836649e+000
1.0505898e+000
9.8965204e-001
8.9390504e-001
7.5508505e-001
5.6966090e-001
3.5360718e-001
1.3830061e-001
-2.9579729e-002
-1.0348745e-001
-7.4301474e-002
3.7003186e-002
1.8341020e-001
3.1227919e-001
4.0749389e-001
4.7866085e-001
5.4018617e-001
6.0200036e-001
6.5234524e-001
6.6864204e-001
6.4250797e-001
5.7874370e-001
4.9291545e-001
4.0490103e-001
3.2789022e-001
2.7164856e-001
2.5331628e-001
2.8740600e-001
3.5182512e-001
3.9975244e-001
3.8567451e-001
2.8353176e-001
1.3797186e-001
3.3171792e-002
1.7988492e-002
1.0168736e-001
2.4903286e-001
4.0364721e-001
5.3511274e-001
6.3546318e-001
7.0227551e-001
7.3608440e-001
7.4551255e-001
7.4310154e-001
7.3413569e-001
7.1349132e-001
6.5504581e-001
5.3018856e-001
3.6378801e-001
2.0830385e-001
5.8707312e-002
-1.2258256e-001
-3.0800286e-001
-4.2497730e-001
-4.3990737e-001
-3.6402830e-001
-2.5082669e-001
-1.7480965e-001
-1.8684646e-001
-3.0124328e-001
-4.6070665e-001
-5.6873119e-001
-5.8055800e-001
-5.0766897e-001
-4.0942645e-001
-3.6228874e-001
-3.8448566e-001
-4.3773964e-001
-4.4672871e-001
-3.1375319e-001
6.3959822e-002
7.5689137e-001
1.6807085e+000
2.6426656e+000
3.5058737e+000
4.2285776e+000
4.9256983e+000
5.8249817e+000
7.1488118e+000
9.0836487e+000
1.1751283e+001
1.5156736e+001
1.8983429e+001
2.2709301e+001
2.6012159e+001
2.8849928e+001
3.1561766e+001
3.4736305e+001
3.8833382e+001
4.4015862e+001
4.9738117e+001
5.5038784e+001
5.9648701e+001
6.3976795e+001
6.8477081e+001
7.3415482e+001
7.8503784e+001
8.3066055e+001
8.6746925e+001
8.9565048e+001
9.1666565e+001
9.3233315e+001
9.4363739e+001
9.5073456e+001
9.5361755e+001
9.5223503e+001
9.4642044e+001
9.3612320e+001
9.2232300e+001
9.0667839e+001
8.8966591e+001
8.7040672e+001
8.4749512e+001
8.1960106e+001
7.8690720e+001
7.5083168e+001
7.1184860e+001
6.6940025e+001
6.2337040e+001
5.7451588e+001
5.2489864e+001
4.7747639e+001
4.3424427e+001
3.9596458e+001
3.6278336e+001
3.3439308e+001
3.1013239e+001
2.8915508e+001
2.7097366e+001
2.5553461e+001
2.4294817e+001
2.3337851e+001
2.2679501e+001
2.2295362e+001
2.2152588e+001
2.2216314e+001
2.2466045e+001
2.2893314e+001
2.3486223e+001
2.4239130e+001
2.5198053e+001
2.6461357e+001
2.8129799e+001
3.0268864e+001
3.2817371e+001
3.5590294e+001
3.8400723e+001
4.1097679e+001
4.3582058e+001
4.5844971e+001
4.8096416e+001
5.0679806e+001
5.3555573e+001
5.6249092e+001
5.8291965e+001
5.9388390e+001
5.9607403e+001
5.9333675e+001
5.8737103e+001
5.7680996e+001
5.6007759e+001
5.3660812e+001
5.0867287e+001
4.8109509e+001
4.5693848e+001
4.3648140e+001
4.1873051e+001
4.0190147e+001
3.8413441e+001
3.6389393e+001
3.4080891e+001
3.1593292e+001
2.9118359e+001
2.6872890e+001
2.4873440e+001
2.2904385e+001
2.0775494e+001
1.8419071e+001
1.5963028e+001
1.3705777e+001
1.1802531e+001
1.0188031e+001
8.7435999e+000
7.3539181e+000
5.9733396e+000
4.6375804e+000
3.3839486e+000
2.2355728e+000
1.2398953e+000
4.7283813e-001
-1.3810962e-002
-1.9715747e-001
-1.1957705e-002
6.4305973e-001
1.7435846e+000
3.0999351e+000
4.5164332e+000
5.8497372e+000
7.0440607e+000
8.1431732e+000
9.2134428e+000
1.0311033e+001
1.1426600e+001
1.2464245e+001
1.3294334e+001
1.3783763e+001
1.3878348e+001
1.3633607e+001
1.3138838e+001
1.2491270e+001
1.1760411e+001
1.0969994e+001
1.0118011e+001
9.1884546e+000
8.2110996e+000
7.2772427e+000
6.4684162e+000
5.8278580e+000
5.3602014e+000
5.0307274e+000
4.8113852e+000
4.6981959e+000
4.7049398e+000
4.8588786e+000
5.1675124e+000
5.6033955e+000
6.1180563e+000
6.6446929e+000
7.1172953e+000
7.4794359e+000
7.6941481e+000
7.7520967e+000
7.6646142e+000
7.4642901e+000
7.1881356e+000
6.8709984e+000
6.5347247e+000
6.1831703e+000
5.8179479e+000
5.4426041e+000
5.0584874e+000
4.6628609e+000
4.2521400e+000
3.8239007e+000
3.3823979e+000
2.9387159e+000
2.4896657e+000
2.0103822e+000
1.4848040e+000
9.2451555e-001
3.8196820e-001
-4.2927980e-002
-2.7965227e-001
-3.2096073e-001
-1.7703371e-001
1.3502932e-001
5.8661640e-001
1.1347164e+000
1.7418120e+000
2.3814211e+000
3.0120780e+000
3.5644546e+000
3.9647257e+000
4.1496615e+000
4.1021299e+000
3.8773701e+000
3.5501909e+000
3.1981688e+000
2.8836572e+000
2.6397245e+000
2.4730458e+000
2.3573916e+000
2.2576900e+000
2.1395879e+000
1.9845006e+000
1.8010879e+000
1.6087806e+000
1.4344279e+000
1.3032966e+000
1.2339380e+000
1.2381815e+000
1.3184782e+000
1.4739572e+000
1.7024558e+000
2.0061204e+000
2.3933368e+000
2.8652601e+000
3.4053521e+000
3.9789557e+000
4.5277848e+000
4.9979315e+000
5.3563256e+000
5.5970039e+000
5.7553639e+000
5.8803487e+000
6.0261297e+000
6.2350659e+000
6.5242457e+000
6.8972340e+000
7.3447437e+000
7.8617840e+000
8.4567833e+000
9.1416035e+000
9.9280348e+000
1.0818624e+001
1.1798213e+001
1.2848063e+001
1.3948000e+001
1.5065174e+001
1.6146580e+001
1.7125103e+001
1.7913082e+001
1.8436642e+001
1.8650343e+001
1.8528801e+001
1.8070137e+001
1.7288960e+001
1.6225357e+001
1.4943406e+001
1.3543946e+001
1.2141737e+001
1.0859825e+001
9.8002310e+000
9.0152264e+000
8.5244389e+000
8.3028564e+000
8.3029490e+000
8.4504442e+000
8.6518526e+000
8.7895689e+000
8.7589293e+000
8.4988537e+000
7.9933143e+000
7.2998381e+000
6.4923458e+000
5.6418080e+000
4.8073683e+000
4.0251637e+000
3.3276434e+000
2.7499382e+000
2.3206966e+000
2.0516200e+000
1.9386600e+000
1.9510750e+000
2.0461385e+000
2.1696591e+000
2.2722762e+000
2.3223658e+000
2.3045082e+000
2.2302279e+000
2.1163034e+000
1.9764051e+000
1.8180101e+000
1.6357634e+000
1.4245749e+000
1.1869103e+000
9.3204123e-001
6.8087858e-001
4.5677200e-001
2.7975234e-001
1.4975093e-001
2.3745440e-002
-1.3203429e-001
-3.0504370e-001
-4.6982351e-001
-5.9677601e-001
-6.5915561e-001
-6.4059240e-001
-5.3789341e-001
-3.7348697e-001
-1.7429718e-001
3.6842912e-002
2.3910743e-001
4.1413099e-001
5.4361385e-001
6.0936034e-001
6.0706127e-001
5.6681651e-001
5.2495658e-001
5.1196039e-001
5.4877692e-001
6.3662970e-001
7.8034997e-001
1.0053848e+000
1.3348181e+000
1.7714096e+000
2.2974565e+000
2.8559959e+000
3.3829491e+000
3.8226373e+000
4.1296029e+000
4.2817039e+000
4.2755041e+000
4.1431251e+000
3.9297910e+000
3.6924317e+000
3.4770923e+000
3.2916071e+000
3.1295121e+000
2.9707599e+000
2.7990856e+000
2.6182673e+000
2.4399002e+000
2.2833622e+000
2.1642952e+000
2.0822849e+000
2.0254750e+000
1.9618714e+000
1.8653605e+000
1.7424159e+000
1.6185051e+000
1.5505270e+000
1.5872500e+000
1.7300744e+000
1.9514070e+000
2.1720519e+000
2.3067472e+000
2.2894270e+000
2.0843027e+000
1.7324829e+000
1.3025352e+000
8.8820058e-001
5.6696826e-001
3.4784645e-001
2.1145144e-001
1.0332000e-001
-3.1405672e-002
-2.2167906e-001
-4.7850397e-001
-7.7647746e-001
-1.0740514e+000
-1.3082966e+000
-1.4275000e+000
-1.4338521e+000
-1.3565052e+000
-1.2685359e+000
-1.2361795e+000
-1.2683257e+000
-1.3542583e+000
-1.4644008e+000
-1.5664239e+000
-1.6333555e+000
-1.6420656e+000
-1.5778228e+000
-1.4400411e+000
-1.2681992e+000
-1.1028686e+000
-9.5546949e-001
-8.2208419e-001
-6.7167443e-001
-4.7829738e-001
-2.5673446e-001
-3.7001565e-002
1.3349505e-001
2.1555400e-001
2.1394232e-001
1.5030524e-001
6.7293108e-002
1.3900029e-002
4.2644590e-002
1.9502008e-001
4.6949241e-001
8.4672463e-001
1.2813560e+000
1.7154955e+000
2.0690486e+000
2.2777078e+000
2.3548415e+000
2.3477459e+000
2.3570876e+000
2.4769464e+000
2.7261124e+000
3.0897286e+000
3.4967535e+000
3.8729932e+000
4.1861424e+000
4.4193573e+000
4.5769343e+000
4.6651721e+000
4.6774130e+000
4.6103420e+000
4.4851775e+000
4.3295999e+000
