Image.
>Pix99999.
  .
5555
5555
2300
900
5555
2
1
0
701
5555
7.5948998e-002
7.7528745e-002
7.9108477e-002
8.0688223e-002
8.2268953e-002
8.3848700e-002
8.5428439e-002
8.7009169e-002
8.8588916e-002
9.0168662e-002
9.1748402e-002
9.3331091e-002
9.4908915e-002
9.6481748e-002
9.8068222e-002
9.9676482e-002
1.0122459e-001
1.0270406e-001
1.0438654e-001
1.0634653e-001
1.0755600e-001
1.0770640e-001
1.1066414e-001
1.1757836e-001
1.1405338e-001
8.6755104e-002
4.3877229e-002
4.7411928e-003
9.0675158e-003
8.7444134e-002
2.1065433e-001
3.3295164e-001
4.1087663e-001
4.1625571e-001
3.7948215e-001
3.4557551e-001
3.5037825e-001
4.1745621e-001
5.3259462e-001
6.7083120e-001
8.0894113e-001
9.2848402e-001
1.0279918e+000
1.1118953e+000
1.1878480e+000
1.2617493e+000
1.3284432e+000
1.3800958e+000
1.4106046e+000
1.4181800e+000
1.4159071e+000
1.4217263e+000
1.4537668e+000
1.5245123e+000
1.6238623e+000
1.7335179e+000
1.8321761e+000
1.9032896e+000
1.9544821e+000
1.9995323e+000
2.0453570e+000
2.0936649e+000
2.1339927e+000
2.1567011e+000
2.1717744e+000
2.1924222e+000
2.2200317e+000
2.2495573e+000
2.2682002e+000
2.2678268e+000
2.2708399e+000
2.3057950e+000
2.3829069e+000
2.4994128e+000
2.6272733e+000
2.7350070e+000
2.8122659e+000
2.8588371e+000
2.8853700e+000
2.9053106e+000
2.9291115e+000
2.9647954e+000
3.0147438e+000
3.0765944e+000
3.1355801e+000
3.1755464e+000
3.1930819e+000
3.1900835e+000
3.1699910e+000
3.1364753e+000
3.0904329e+000
3.0382769e+000
3.0132468e+000
3.0506487e+000
3.1537602e+000
3.3077772e+000
3.4755955e+000
3.6187108e+000
3.7262361e+000
3.7995839e+000
3.8464999e+000
3.8763177e+000
3.8953354e+000
3.9074521e+000
3.9098663e+000
3.8990350e+000
3.8792801e+000
3.8589878e+000
3.8511641e+000
3.8672702e+000
3.9063058e+000
3.9622235e+000
4.0300479e+000
4.1047640e+000
4.1789484e+000
4.2444859e+000
4.2940445e+000
4.3232875e+000
4.3376603e+000
4.3454270e+000
4.3502455e+000
4.3521576e+000
4.3460417e+000
4.3268957e+000
4.2995663e+000
4.2741284e+000
4.2640424e+000
4.2797446e+000
4.3118548e+000
4.3421001e+000
4.3512454e+000
4.3264136e+000
4.2827687e+000
4.2462978e+000
4.2358379e+000
4.2600827e+000
4.2997789e+000
4.3258357e+000
4.3186393e+000
4.2690768e+000
4.1923003e+000
4.1137915e+000
4.0587211e+000
4.0441647e+000
4.0560265e+000
4.0678835e+000
4.0608406e+000
4.0260100e+000
3.9770253e+000
3.9355803e+000
3.9141786e+000
3.9164822e+000
3.9294515e+000
3.9343190e+000
3.9207599e+000
3.8851123e+000
3.8332796e+000
3.7755432e+000
3.7214403e+000
3.6802859e+000
3.6612084e+000
3.6715751e+000
3.7107236e+000
3.7715478e+000
3.8363416e+000
3.8839056e+000
3.8994689e+000
3.8755400e+000
3.8203039e+000
3.7492657e+000
3.6755228e+000
3.6092343e+000
3.5549805e+000
3.5123610e+000
3.4714661e+000
3.4174001e+000
3.3340812e+000
3.2111819e+000
3.0646482e+000
2.9230421e+000
2.8097484e+000
2.7398713e+000
2.7100260e+000
2.7090099e+000
2.7326882e+000
2.7816529e+000
2.8564646e+000
2.9519255e+000
3.0398011e+000
3.0840271e+000
3.0695870e+000
2.9983749e+000
2.8912704e+000
2.7739446e+000
2.6526778e+000
2.5233271e+000
2.3877881e+000
2.2554109e+000
2.1499693e+000
2.0988519e+000
2.1115859e+000
2.1813779e+000
2.2769005e+000
2.3556840e+000
2.3841777e+000
2.3411822e+000
2.2332211e+000
2.0841482e+000
1.9266108e+000
1.7971314e+000
1.7318000e+000
1.7589979e+000
1.8758520e+000
2.0496857e+000
2.1992095e+000
2.2303386e+000
2.1129823e+000
1.8680580e+000
1.5591866e+000
1.2641263e+000
1.0264492e+000
8.6803901e-001
8.1635052e-001
8.9376533e-001
1.0745080e+000
1.2963500e+000
1.4691722e+000
1.5080860e+000
1.4145896e+000
1.2486708e+000
1.0831157e+000
9.8275852e-001
9.6689957e-001
1.0166627e+000
1.0727857e+000
1.0607364e+000
9.3874425e-001
7.0205826e-001
4.0653059e-001
1.4009900e-001
-2.9742170e-002
-6.7029841e-002
9.9352747e-004
1.1115567e-001
2.1637429e-001
2.9492301e-001
3.7069625e-001
4.9205387e-001
6.8867749e-001
9.5979512e-001
1.2389357e+000
1.4223777e+000
1.4311920e+000
1.2356194e+000
9.2986590e-001
6.7017716e-001
5.2004826e-001
4.6596071e-001
4.8187110e-001
5.4326779e-001
6.2967944e-001
7.1655220e-001
7.4818188e-001
6.6353971e-001
4.7940999e-001
2.7011758e-001
1.0738100e-001
3.4555580e-002
8.2333433e-003
-5.3194020e-002
-1.2552768e-001
-1.0602821e-001
7.8697234e-002
4.4489676e-001
8.9693898e-001
1.2729322e+000
1.4638721e+000
1.4369093e+000
1.2810360e+000
1.1445688e+000
1.0626200e+000
9.6885049e-001
7.7567649e-001
4.2057005e-001
-3.2639593e-002
-4.2582202e-001
-6.1038983e-001
-4.7473782e-001
1.9663602e-002
8.3303320e-001
1.8078599e+000
2.7239811e+000
3.4597559e+000
4.0157533e+000
4.5463500e+000
5.3070173e+000
6.5221057e+000
8.3399458e+000
1.0743732e+001
1.3564522e+001
1.6501858e+001
1.9218189e+001
2.1604128e+001
2.3786715e+001
2.6069412e+001
2.8818836e+001
3.2162849e+001
3.5954643e+001
3.9764599e+001
4.3073830e+001
4.5883785e+001
4.8642227e+001
5.1708199e+001
5.5228897e+001
5.9061844e+001
6.2882698e+001
6.6545212e+001
7.0084549e+001
7.3511787e+001
7.6793243e+001
7.9930626e+001
8.2963203e+001
8.5903999e+001
8.8693222e+001
9.1070152e+001
9.2663284e+001
9.3405701e+001
9.3512527e+001
9.3117386e+001
9.2208076e+001
9.0666229e+001
8.8346748e+001
8.5323982e+001
8.1870667e+001
7.8205040e+001
7.4442696e+001
7.0622917e+001
6.6736572e+001
6.2803288e+001
5.8879044e+001
5.5014259e+001
5.1256969e+001
4.7704357e+001
4.4482639e+001
4.1637115e+001
3.9124592e+001
3.6871727e+001
3.4803951e+001
3.2898792e+001
3.1184195e+001
2.9687500e+001
2.8418652e+001
2.7353292e+001
2.6442625e+001
2.5675438e+001
2.5087471e+001
2.4729446e+001
2.4655161e+001
2.4901733e+001
2.5477434e+001
2.6331600e+001
2.7354061e+001
2.8413137e+001
2.9385767e+001
3.0240841e+001
3.1039549e+001
3.1838963e+001
3.2703987e+001
3.3866333e+001
3.5662907e+001
3.8067028e+001
4.0640278e+001
4.2934357e+001
4.4649643e+001
4.5845425e+001
4.6908287e+001
4.8084885e+001
4.9362549e+001
5.0558743e+001
5.1388676e+001
5.1690659e+001
5.1490383e+001
5.0962524e+001
5.0380627e+001
4.9898949e+001
4.9496548e+001
4.9047913e+001
4.8357834e+001
4.7258709e+001
4.5670631e+001
4.3721043e+001
4.1712448e+001
3.9751560e+001
3.7669178e+001
3.5238838e+001
3.2296700e+001
2.9001577e+001
2.5836132e+001
2.3096312e+001
2.0752491e+001
1.8651714e+001
1.6591291e+001
1.4449854e+001
1.2220053e+001
9.9109030e+000
7.5409317e+000
5.2313900e+000
3.2120519e+000
1.6381066e+000
5.5528009e-001
5.7030413e-002
2.7188295e-001
1.0474058e+000
1.9104620e+000
2.5760832e+000
3.0913870e+000
3.5779400e+000
4.1428876e+000
4.7917328e+000
5.3977485e+000
5.7881999e+000
5.8001299e+000
5.4464831e+000
4.9519439e+000
4.4846530e+000
4.0761213e+000
3.7280874e+000
3.4400690e+000
3.2031119e+000
2.9928613e+000
2.7568815e+000
2.4193943e+000
1.9541857e+000
1.4144535e+000
8.9254278e-001
5.0172961e-001
3.0946577e-001
3.0802807e-001
4.4710565e-001
6.4457285e-001
8.3858395e-001
1.0101924e+000
1.1741109e+000
1.3758765e+000
1.6470971e+000
1.9900335e+000
2.4024346e+000
2.8816705e+000
3.4098721e+000
3.9450061e+000
4.4271712e+000
4.7853179e+000
4.9836411e+000
5.0408020e+000
4.9822202e+000
4.8264751e+000
4.5951300e+000
4.3187160e+000
4.0419912e+000
3.8214095e+000
3.6776171e+000
3.5734596e+000
3.4607100e+000
3.2984707e+000
3.0726788e+000
2.8041813e+000
2.4986074e+000
2.1303678e+000
1.6914715e+000
1.2151700e+000
7.5853395e-001
3.9421818e-001
1.5410149e-001
2.7904585e-003
-9.3411222e-002
-1.3925679e-001
-1.1998887e-001
-7.1016625e-003
1.8865015e-001
3.9008924e-001
5.1715457e-001
5.1824594e-001
4.0113628e-001
2.5601619e-001
1.6530846e-001
1.6545814e-001
2.6766610e-001
4.5753419e-001
7.0969063e-001
9.8977268e-001
1.2593000e+000
1.4788600e+000
1.6244829e+000
1.6993079e+000
1.7192048e+000
1.7103021e+000
1.6970434e+000
1.6958890e+000
1.7173274e+000
1.7643079e+000
1.8358858e+000
1.9274384e+000
2.0334327e+000
2.1480525e+000
2.2646201e+000
2.3753650e+000
2.4743767e+000
2.5602024e+000
2.6359503e+000
2.7106922e+000
2.7940145e+000
2.8931179e+000
3.0105457e+000
3.1427808e+000
3.2911806e+000
3.4697056e+000
3.6969173e+000
3.9929378e+000
4.3641019e+000
4.7913933e+000
5.2552714e+000
5.7475839e+000
6.2726593e+000
6.8512249e+000
7.4937763e+000
8.1823997e+000
8.8852654e+000
9.5574646e+000
1.0160440e+001
1.0675463e+001
1.1098429e+001
1.1441256e+001
1.1716960e+001
1.1931318e+001
1.2080632e+001
1.2143229e+001
1.2100543e+001
1.1943951e+001
1.1677314e+001
1.1320780e+001
1.0894342e+001
1.0414248e+001
9.8929024e+000
9.3368006e+000
8.7507486e+000
8.1418505e+000
7.5183978e+000
6.8912897e+000
6.2710562e+000
5.6658640e+000
5.0805640e+000
4.5141621e+000
3.9647784e+000
3.4317579e+000
2.9178700e+000
2.4329669e+000
1.9885651e+000
1.5967300e+000
1.2688257e+000
1.0146676e+000
8.4414399e-001
7.6702803e-001
7.8426188e-001
8.7588406e-001
1.0059696e+000
1.1158386e+000
1.1551701e+000
1.1067859e+000
9.7781217e-001
8.1275618e-001
6.5575588e-001
5.2978700e-001
4.4282874e-001
3.8032338e-001
3.2403120e-001
2.6028359e-001
1.8312217e-001
1.0234489e-001
3.5283707e-002
7.7799093e-003
4.5295969e-002
1.6723730e-001
3.8862962e-001
7.1644026e-001
1.1462594e+000
1.6502458e+000
2.1883352e+000
2.7070198e+000
3.1681199e+000
3.5794499e+000
3.9642770e+000
4.3561535e+000
4.7801600e+000
5.2351117e+000
5.7177706e+000
6.2339649e+000
6.7817392e+000
7.3341064e+000
7.8546181e+000
8.3005419e+000
8.6490860e+000
8.9327106e+000
9.1980963e+000
9.4922209e+000
9.8415461e+000
1.0220164e+001
1.0592463e+001
1.0931458e+001
1.1223960e+001
1.1488020e+001
1.1740371e+001
1.1981861e+001
1.2204640e+001
1.2395016e+001
1.2540426e+001
1.2624793e+001
1.2638761e+001
1.2578653e+001
1.2453726e+001
1.2297485e+001
1.2136572e+001
1.1963203e+001
1.1752800e+001
1.1460440e+001
1.1053931e+001
1.0549356e+001
9.9831820e+000
9.4136477e+000
8.8932390e+000
8.4386606e+000
8.0535107e+000
7.7276859e+000
7.4466701e+000
7.1922779e+000
6.9444065e+000
6.6798906e+000
6.3845010e+000
6.0717249e+000
5.7528806e+000
5.4119120e+000
5.0277486e+000
4.5851331e+000
4.0857515e+000
3.5787206e+000
3.1140518e+000
2.7091537e+000
2.3684902e+000
2.0830500e+000
1.8411337e+000
1.6349651e+000
1.4497714e+000
1.2475309e+000
9.9898779e-001
7.2102916e-001
4.5348835e-001
2.7170044e-001
2.3426229e-001
3.1666392e-001
4.6486878e-001
5.9636497e-001
6.4751774e-001
6.4041567e-001
6.2295765e-001
6.5766245e-001
7.9189593e-001
1.0095465e+000
1.2720525e+000
1.5185198e+000
1.6926223e+000
1.7737782e+000
1.7532715e+000
1.6345415e+000
1.4220600e+000
1.1160522e+000
7.3766404e-001
3.8479894e-001
1.4447086e-001
-3.0934662e-003
-9.5591292e-002
-1.4027910e-001
-1.4871657e-001
-1.7527813e-001
-2.7034551e-001
-4.3059912e-001
-6.4029771e-001
-8.8699692e-001
-1.1514241e+000
-1.3859847e+000
-1.5509286e+000
-1.6630305e+000
-1.7610500e+000
-1.9126079e+000
-2.1620212e+000
-2.4338870e+000
-2.6205757e+000
-2.6040928e+000
-2.3084896e+000
-1.8347082e+000
-1.3242971e+000
-9.0416503e-001
-6.9795001e-001
