Image.
>Pix99999.
  .
5555
5555
2300
900
5555
2
1
0
701
5555
-1.4051000e-002
-1.4342583e-002
-1.4635162e-002
-1.4927745e-002
-1.5219331e-002
-1.5511908e-002
-1.5804490e-002
-1.6097071e-002
-1.6388662e-002
-1.6681233e-002
-1.6973814e-002
-1.7266396e-002
-1.7557995e-002
-1.7849578e-002
-1.8143119e-002
-1.8439636e-002
-1.8727418e-002
-1.9003296e-002
-1.9311054e-002
-1.9666310e-002
-1.9898457e-002
-1.9958349e-002
-2.0473342e-002
-2.1631230e-002
-2.1096366e-002
-1.5555465e-002
-5.7018001e-004
2.3851121e-002
3.8525440e-002
2.1988418e-002
-3.4622300e-002
-1.2953775e-001
-2.3276988e-001
-3.1112775e-001
-3.5099089e-001
-3.4972399e-001
-3.2569394e-001
-2.9873243e-001
-2.7003506e-001
-2.3601490e-001
-1.9616885e-001
-1.5309674e-001
-1.1782920e-001
-1.0059991e-001
-9.8254830e-002
-1.0420498e-001
-1.1460751e-001
-1.2833269e-001
-1.5174538e-001
-1.9156721e-001
-2.4682070e-001
-3.1323743e-001
-3.8315293e-001
-4.4715458e-001
-4.9286181e-001
-5.0904179e-001
-4.9315599e-001
-4.4963700e-001
-3.9991528e-001
-3.6722633e-001
-3.5990971e-001
-3.7819269e-001
-4.0942827e-001
-4.4081849e-001
-4.7584885e-001
-5.2230626e-001
-5.8331901e-001
-6.5647078e-001
-7.2379255e-001
-7.6557899e-001
-7.7628899e-001
-7.5835973e-001
-7.2651869e-001
-6.9817334e-001
-6.8485153e-001
-6.9591469e-001
-7.4051732e-001
-8.2311100e-001
-9.2861795e-001
-1.0324249e+000
-1.0985714e+000
-1.0984373e+000
-1.0484132e+000
-9.8279136e-001
-9.4189280e-001
-9.5700973e-001
-1.0151379e+000
-1.0863017e+000
-1.1377903e+000
-1.1430272e+000
-1.1040343e+000
-1.0371389e+000
-9.7423542e-001
-9.4732636e-001
-9.6541762e-001
-1.0228866e+000
-1.0904194e+000
-1.1353770e+000
-1.1488400e+000
-1.1352468e+000
-1.1157429e+000
-1.1123010e+000
-1.1239038e+000
-1.1396309e+000
-1.1445543e+000
-1.1279150e+000
-1.1013947e+000
-1.0841540e+000
-1.0883119e+000
-1.1188811e+000
-1.1647571e+000
-1.2092386e+000
-1.2403920e+000
-1.2501991e+000
-1.2398986e+000
-1.2158043e+000
-1.1911435e+000
-1.1803539e+000
-1.1917210e+000
-1.2275831e+000
-1.2765743e+000
-1.3226869e+000
-1.3548586e+000
-1.3669239e+000
-1.3625576e+000
-1.3487321e+000
-1.3291080e+000
-1.3050176e+000
-1.2753321e+000
-1.2387844e+000
-1.1981701e+000
-1.1588799e+000
-1.1307464e+000
-1.1238750e+000
-1.1415929e+000
-1.1818986e+000
-1.2332028e+000
-1.2806580e+000
-1.3144280e+000
-1.3288348e+000
-1.3272200e+000
-1.3166373e+000
-1.3040763e+000
-1.2948160e+000
-1.2880961e+000
-1.2810122e+000
-1.2734852e+000
-1.2663699e+000
-1.2584337e+000
-1.2476479e+000
-1.2329428e+000
-1.2146986e+000
-1.1970565e+000
-1.1843135e+000
-1.1733760e+000
-1.1594772e+000
-1.1452423e+000
-1.1363597e+000
-1.1371777e+000
-1.1484108e+000
-1.1605257e+000
-1.1603510e+000
-1.1405932e+000
-1.0981538e+000
-1.0347784e+000
-9.5517319e-001
-8.6773199e-001
-7.8329915e-001
-7.1541804e-001
-6.7594540e-001
-6.6431075e-001
-6.7184895e-001
-6.8264019e-001
-6.8041176e-001
-6.6131425e-001
-6.2873751e-001
-5.8861703e-001
-5.4691690e-001
-5.0622314e-001
-4.6772668e-001
-4.3466714e-001
-4.1009805e-001
-3.9100042e-001
-3.7111020e-001
-3.4446344e-001
-3.0783400e-001
-2.6800653e-001
-2.3621975e-001
-2.1974017e-001
-2.2038169e-001
-2.2742000e-001
-2.2500899e-001
-2.0383458e-001
-1.6130593e-001
-1.0614319e-001
-5.3241521e-002
-1.8772040e-002
-1.5048564e-002
-3.6634106e-002
-6.7791618e-002
-9.1392145e-002
-9.3919441e-002
-7.7236086e-002
-5.1221918e-002
-2.2538617e-002
4.4252505e-003
2.3611253e-002
2.8197855e-002
1.3337830e-002
-2.3091741e-002
-7.6776199e-002
-1.3839388e-001
-1.9264965e-001
-2.2253913e-001
-2.1757537e-001
-1.7601794e-001
-1.1640212e-001
-6.6029683e-002
-3.9179578e-002
-3.8087968e-002
-5.1613599e-002
-6.3240968e-002
-6.4618088e-002
-5.4926667e-002
-4.1361440e-002
-3.3396356e-002
-3.1307038e-002
-2.8784489e-002
-1.7652508e-002
8.1350803e-003
4.2812698e-002
7.3982105e-002
9.3089186e-002
9.6465990e-002
8.7754786e-002
7.3605634e-002
5.4810271e-002
2.8647438e-002
-4.3037999e-003
-3.9605141e-002
-6.7219540e-002
-7.5263940e-002
-5.8643810e-002
-1.8378824e-002
3.8797263e-002
1.0060685e-001
1.4423305e-001
1.4458556e-001
9.6307285e-002
1.4355492e-002
-5.7820357e-002
-6.7429505e-002
9.9707767e-004
1.2945747e-001
2.7293685e-001
3.7814599e-001
4.2290428e-001
4.1158456e-001
3.6313993e-001
3.0244190e-001
2.4863686e-001
2.1361274e-001
1.9853792e-001
1.9541757e-001
1.8601224e-001
1.5245029e-001
1.0781358e-001
7.6071531e-002
2.5631137e-002
-1.0121112e-001
-2.8415343e-001
-4.5017931e-001
-5.7049656e-001
-6.5857410e-001
-7.3498940e-001
-8.1897038e-001
-9.2521703e-001
-1.0590135e+000
-1.1971828e+000
-1.2965897e+000
-1.3168800e+000
-1.2324251e+000
-1.0631391e+000
-8.6118180e-001
-6.7232430e-001
-5.2320892e-001
-3.9638466e-001
-2.3673099e-001
3.5786062e-002
4.9910241e-001
1.1535965e+000
1.9335390e+000
2.7559149e+000
3.5543468e+000
4.3597322e+000
5.2868805e+000
6.4821482e+000
8.1175470e+000
1.0423135e+001
1.3590809e+001
1.7421429e+001
2.1413189e+001
2.5144251e+001
2.8390368e+001
3.1324257e+001
3.4407803e+001
3.8032780e+001
4.2370308e+001
4.7045521e+001
5.1355457e+001
5.5103958e+001
5.8610775e+001
6.2304531e+001
6.6532333e+001
7.1195587e+001
7.5841202e+001
8.0125816e+001
8.3891113e+001
8.7115868e+001
8.9878082e+001
9.2305458e+001
9.4530487e+001
9.6572380e+001
9.8307098e+001
9.9414894e+001
9.9510002e+001
9.8618652e+001
9.7119278e+001
9.5207817e+001
9.2832397e+001
8.9869926e+001
8.6225861e+001
8.2060928e+001
7.7729172e+001
7.3393143e+001
6.8998123e+001
6.4484840e+001
5.9857567e+001
5.5246346e+001
5.0871780e+001
4.6866943e+001
4.3257515e+001
4.0041370e+001
3.7205929e+001
3.4719028e+001
3.2536892e+001
3.0637932e+001
2.9025700e+001
2.7706646e+001
2.6678232e+001
2.5908501e+001
2.5339193e+001
2.4913549e+001
2.4584747e+001
2.4336672e+001
2.4183714e+001
2.4137915e+001
2.4208660e+001
2.4427481e+001
2.4850492e+001
2.5539457e+001
2.6538160e+001
2.7806826e+001
2.9222923e+001
3.0661079e+001
3.2020229e+001
3.3249008e+001
3.4383041e+001
3.5666943e+001
3.7489540e+001
3.9942413e+001
4.2734962e+001
4.5402531e+001
4.7452362e+001
4.8767525e+001
4.9630356e+001
5.0254299e+001
5.0678272e+001
5.0900982e+001
5.0912476e+001
5.0684856e+001
5.0183231e+001
4.9422413e+001
4.8470840e+001
4.7378990e+001
4.6159153e+001
4.4788601e+001
4.3225456e+001
4.1473103e+001
3.9597969e+001
3.7702854e+001
3.5887177e+001
3.4095760e+001
3.2105915e+001
2.9744991e+001
2.6979523e+001
2.3994183e+001
2.1163885e+001
1.8698109e+001
1.6552860e+001
1.4610857e+001
1.2740815e+001
1.0868998e+001
8.9963007e+000
7.1406546e+000
5.3314447e+000
3.6521258e+000
2.2371359e+000
1.1602676e+000
4.1769052e-001
5.6558326e-002
1.7774326e-001
7.2661692e-001
1.4533950e+000
2.1664662e+000
2.8100014e+000
3.3930910e+000
3.9662540e+000
4.5589857e+000
5.1569247e+000
5.7104001e+000
6.1421256e+000
6.4043899e+000
6.4990439e+000
6.4519348e+000
6.3053250e+000
6.0979404e+000
5.8552413e+000
5.5792856e+000
5.2435174e+000
4.8119512e+000
4.2540579e+000
3.5933480e+000
2.9231300e+000
2.3362119e+000
1.8977829e+000
1.6358657e+000
1.5349429e+000
1.5716680e+000
1.7247828e+000
1.9707372e+000
2.2831759e+000
2.6408627e+000
3.0315514e+000
3.4507852e+000
3.9006238e+000
4.3748603e+000
4.8531580e+000
5.3109560e+000
5.7231340e+000
6.0710073e+000
6.3451734e+000
6.5362425e+000
6.6319270e+000
6.6205935e+000
6.4945250e+000
6.2585378e+000
5.9349532e+000
5.5496249e+000
5.1273785e+000
4.6873059e+000
4.2405791e+000
3.7989161e+000
3.3747890e+000
2.9669514e+000
2.5535121e+000
2.1122546e+000
1.6326740e+000
1.1362817e+000
6.8725145e-001
3.4044757e-001
1.1846932e-001
1.9248160e-002
1.4274733e-002
7.5530179e-002
1.8493892e-001
3.2508761e-001
4.7639075e-001
6.2081873e-001
7.4384755e-001
8.3315969e-001
8.8031757e-001
8.8708097e-001
8.7080306e-001
8.5415810e-001
8.6159772e-001
9.1072655e-001
1.0062112e+000
1.1444749e+000
1.3126093e+000
1.4930999e+000
1.6647980e+000
1.8087440e+000
1.9125435e+000
1.9729058e+000
1.9996529e+000
2.0059211e+000
2.0050581e+000
2.0071623e+000
2.0171685e+000
2.0410285e+000
2.0881588e+000
2.1670434e+000
2.2821064e+000
2.4296679e+000
2.5936773e+000
2.7594464e+000
2.9202113e+000
3.0773051e+000
3.2424593e+000
3.4245827e+000
3.6235001e+000
3.8359931e+000
4.0585628e+000
4.2940993e+000
4.5571566e+000
4.8629756e+000
5.2220559e+000
5.6379738e+000
6.1032133e+000
6.6090317e+000
7.1487904e+000
7.7174249e+000
8.3114223e+000
8.9250154e+000
9.5471992e+000
1.0164634e+001
1.0761366e+001
1.1316086e+001
1.1796424e+001
1.2170057e+001
1.2402316e+001
1.2470360e+001
1.2369844e+001
1.2109257e+001
1.1711736e+001
1.1201646e+001
1.0605108e+001
9.9479904e+000
9.2524948e+000
8.5392599e+000
7.8269820e+000
7.1348906e+000
6.4830818e+000
5.8820953e+000
5.3217287e+000
4.7816858e+000
4.2320089e+000
3.6515417e+000
3.0429080e+000
2.4220572e+000
1.8206377e+000
1.2688932e+000
7.8492558e-001
3.7614167e-001
3.2992825e-002
-2.5485587e-001
-4.9040219e-001
-6.7073697e-001
-7.8479886e-001
-8.2716399e-001
-8.0948979e-001
-7.5194371e-001
-6.8360347e-001
-6.2717944e-001
-5.8600831e-001
-5.5447143e-001
-5.1803672e-001
-4.6713033e-001
-4.0790951e-001
-3.4925741e-001
-2.9709610e-001
-2.5189018e-001
-2.0406979e-001
-1.4917780e-001
-9.9290892e-002
-6.4856812e-002
-4.2528041e-002
-1.9015634e-002
3.4339815e-002
1.4736114e-001
3.4206581e-001
6.2209165e-001
9.5284843e-001
1.2999480e+000
1.6512657e+000
1.9994389e+000
2.3350406e+000
2.6435800e+000
2.9006047e+000
3.0951371e+000
3.2551963e+000
3.4198492e+000
3.6299617e+000
3.9098322e+000
4.2399149e+000
4.5866323e+000
4.9088407e+000
5.1773024e+000
5.3981481e+000
5.5918145e+000
5.7918429e+000
6.0284600e+000
6.3146276e+000
6.6540051e+000
7.0366669e+000
7.4448500e+000
7.8490939e+000
8.2157612e+000
8.5097218e+000
8.7069950e+000
8.8145514e+000
8.8493176e+000
8.8353910e+000
8.7917213e+000
8.7199879e+000
8.6186199e+000
8.4893847e+000
8.3367777e+000
8.1706829e+000
8.0003777e+000
7.8284144e+000
7.6494021e+000
7.4404049e+000
7.1804385e+000
6.8679218e+000
6.5152225e+000
6.1607714e+000
5.8388257e+000
5.5539327e+000
5.2984600e+000
5.0525432e+000
4.7970548e+000
4.5240884e+000
4.2277818e+000
3.8988628e+000
3.5321584e+000
3.1358032e+000
2.7232351e+000
2.3138139e+000
1.9241229e+000
1.5584321e+000
1.2190074e+000
9.1115701e-001
6.4024240e-001
4.0920779e-001
2.1645893e-001
4.8233896e-002
-1.0922635e-001
-2.6023501e-001
-4.0613428e-001
-5.4633904e-001
-6.8208039e-001
-8.2178307e-001
-9.7285092e-001
-1.1334529e+000
-1.2943873e+000
-1.4308426e+000
-1.5147561e+000
-1.5218616e+000
-1.4362372e+000
-1.2671742e+000
-1.0334684e+000
-7.6395392e-001
-4.8873669e-001
-2.3228146e-001
-1.7743617e-002
1.3193095e-001
2.0164137e-001
2.0299721e-001
1.5678847e-001
9.2575803e-002
3.7595179e-002
3.2832450e-003
-7.3877675e-003
-7.1292184e-003
-1.1758506e-003
4.5313768e-002
1.6290246e-001
3.3102190e-001
5.1835859e-001
7.0069969e-001
8.5494214e-001
9.5582908e-001
9.8662984e-001
9.6428961e-001
9.2015678e-001
9.0793926e-001
9.7191864e-001
1.0999378e+000
1.2609857e+000
1.4060134e+000
1.4917858e+000
1.5162160e+000
1.4874846e+000
1.4156351e+000
1.3229365e+000
1.2774065e+000
1.3492395e+000
1.5729738e+000
1.9741000e+000
