Image.
>Pix99999.
  .
5555
5555
2300
900
5555
2
1
0
701
5555
1.1637000e-001
1.1883647e-001
1.2131292e-001
1.2378937e-001
1.2625588e-001
1.2873228e-001
1.3119882e-001
1.3367520e-001
1.3614178e-001
1.3861811e-001
1.4109457e-001
1.4356118e-001
1.4603749e-001
1.4850414e-001
1.5098040e-001
1.5345687e-001
1.5592355e-001
1.5839978e-001
1.6086648e-001
1.6334268e-001
1.6581914e-001
1.6828589e-001
1.7076205e-001
1.7322885e-001
1.7570497e-001
1.7818142e-001
1.6798669e-001
6.4641861e-003
-1.7983679e-001
-4.1806772e-001
-6.6390872e-001
-7.5505584e-001
-8.3051407e-001
-8.0459243e-001
-7.6927865e-001
-6.9797200e-001
-6.1801636e-001
-5.0710857e-001
-4.0220937e-001
-3.2080773e-001
-2.7120543e-001
-2.8818351e-001
-3.3483079e-001
-4.2347789e-001
-4.8200107e-001
-4.9973544e-001
-4.4596085e-001
-3.2573608e-001
-2.1278852e-001
-1.0851880e-001
-1.0078572e-001
-1.4841442e-001
-2.3096605e-001
-3.2724148e-001
-3.1953052e-001
-2.7770871e-001
-1.0700964e-001
9.2852026e-002
2.5638056e-001
4.1195369e-001
3.7836656e-001
3.1970239e-001
1.7345820e-001
3.1305321e-002
-3.9898187e-002
-7.8224428e-002
-2.1938132e-002
4.3389201e-002
1.0773954e-001
1.3548006e-001
9.4032399e-002
4.3623704e-002
-9.4073825e-003
-4.0616646e-002
-4.6944004e-002
-8.8289782e-002
-1.6291906e-001
-2.5714371e-001
-3.6263943e-001
-4.2064482e-001
-4.5214257e-001
-4.4897705e-001
-4.3219444e-001
-4.0318760e-001
-3.7065321e-001
-3.3057436e-001
-2.8885403e-001
-2.3376802e-001
-1.7996691e-001
-1.8976445e-001
-2.2062215e-001
-3.4051260e-001
-4.6429557e-001
-5.4781300e-001
-6.0984045e-001
-6.2479156e-001
-6.3618255e-001
-6.5516055e-001
-6.7165840e-001
-6.8220097e-001
-6.8160719e-001
-6.6775113e-001
-6.3954240e-001
-5.9848976e-001
-5.8258295e-001
-5.8867055e-001
-6.4976245e-001
-7.4504960e-001
-8.3603680e-001
-9.2255145e-001
-9.5054144e-001
-9.5450532e-001
-8.9931679e-001
-8.2591748e-001
-7.2775334e-001
-6.2469739e-001
-5.4481655e-001
-4.7555247e-001
-4.6478358e-001
-4.7916111e-001
-5.6840885e-001
-6.8151551e-001
-8.2836533e-001
-9.6577090e-001
-1.0631192e+000
-1.1319821e+000
-1.1614580e+000
-1.1918399e+000
-1.2337359e+000
-1.2980027e+000
-1.3850442e+000
-1.4953972e+000
-1.6244143e+000
-1.7632860e+000
-1.9082131e+000
-2.0177214e+000
-2.1046381e+000
-2.1280582e+000
-2.1205671e+000
-2.0775876e+000
-2.0207801e+000
-1.9389056e+000
-1.8481020e+000
-1.6924779e+000
-1.5202857e+000
-1.3647615e+000
-1.2309891e+000
-1.2237500e+000
-1.2594389e+000
-1.3460782e+000
-1.4321214e+000
-1.4802303e+000
-1.5312657e+000
-1.6060050e+000
-1.7122860e+000
-1.8585236e+000
-1.9820607e+000
-2.0609691e+000
-2.0669537e+000
-2.0042262e+000
-1.8708086e+000
-1.6871201e+000
-1.4426715e+000
-1.1604888e+000
-9.4576126e-001
-7.7811915e-001
-8.4615117e-001
-1.0332012e+000
-1.3207480e+000
-1.6451114e+000
-1.8414299e+000
-1.9857824e+000
-1.9947298e+000
-1.9576409e+000
-1.9082991e+000
-1.8693750e+000
-1.9038429e+000
-1.9730656e+000
-2.0682595e+000
-2.1541662e+000
-2.1912658e+000
-2.1872132e+000
-2.1348860e+000
-2.0589097e+000
-1.9729366e+000
-1.8570000e+000
-1.7089311e+000
-1.4822071e+000
-1.1766200e+000
-9.0582401e-001
-6.7816597e-001
-6.0284102e-001
-6.3662380e-001
-7.3266309e-001
-8.5701883e-001
-1.0084645e+000
-1.1713960e+000
-1.3021195e+000
-1.4154766e+000
-1.3601408e+000
-1.2303857e+000
-1.0016534e+000
-7.5177652e-001
-6.1128706e-001
-5.6181884e-001
-7.1411967e-001
-9.6737027e-001
-1.2973343e+000
-1.6106131e+000
-1.8249780e+000
-1.9075301e+000
-1.8192058e+000
-1.5859680e+000
-1.2250055e+000
-9.0413439e-001
-6.7187381e-001
-6.5794003e-001
-8.3749127e-001
-1.0696388e+000
-1.3080952e+000
-1.4756286e+000
-1.5918028e+000
-1.6502097e+000
-1.6807163e+000
-1.6217680e+000
-1.5181428e+000
-1.4534577e+000
-1.4205557e+000
-1.5430160e+000
-1.7306094e+000
-1.8776143e+000
-1.9618750e+000
-1.8456434e+000
-1.5941356e+000
-1.1699758e+000
-7.4939567e-001
-5.1718795e-001
-5.1315618e-001
-8.3027625e-001
-1.2583708e+000
-1.6733714e+000
-1.9396479e+000
-2.0036950e+000
-1.9073217e+000
-1.6948154e+000
-1.4155750e+000
-1.1019158e+000
-8.0889261e-001
-5.4767388e-001
-3.7514129e-001
-2.6964000e-001
-1.9993630e-001
-1.4132839e-001
-9.7250536e-002
-5.4072648e-002
-5.3082965e-004
6.6610970e-002
1.7797638e-001
3.2263041e-001
5.0454229e-001
7.0115370e-001
8.7367082e-001
9.6350586e-001
8.5964209e-001
6.3614261e-001
3.6458343e-001
1.6834240e-001
1.4969988e-001
6.5380514e-002
-8.2173228e-002
-1.6466571e-001
-1.8036835e-001
1.3088055e-002
4.2698330e-001
8.7848514e-001
1.3023250e+000
1.4271891e+000
1.2859397e+000
1.1501554e+000
1.0624256e+000
1.2468001e+000
1.6268970e+000
1.7042469e+000
1.5425906e+000
9.5937884e-001
1.5028892e-001
-3.3215004e-001
-4.6711978e-001
1.3037571e-001
1.3264494e+000
2.9678671e+000
4.5925875e+000
5.5509171e+000
6.0501423e+000
6.2892938e+000
6.7105193e+000
7.6999612e+000
9.5501251e+000
1.2385963e+001
1.5895028e+001
1.9825714e+001
2.3331902e+001
2.6118347e+001
2.8658499e+001
3.1144182e+001
3.4514336e+001
3.8789776e+001
4.3605389e+001
4.8778240e+001
5.3018917e+001
5.6439041e+001
5.9863438e+001
6.3371380e+001
6.7497589e+001
7.2074577e+001
7.6596146e+001
8.1023483e+001
8.5183907e+001
8.9059982e+001
9.2570892e+001
9.5765060e+001
9.8713165e+001
1.0127394e+002
1.0330788e+002
1.0407166e+002
1.0301214e+002
1.0070292e+002
9.7729874e+001
9.4478355e+001
9.1195816e+001
8.7400856e+001
8.2959747e+001
7.8326530e+001
7.3689789e+001
6.9456451e+001
6.5655251e+001
6.1795479e+001
5.7805973e+001
5.3724754e+001
4.9571598e+001
4.5499371e+001
4.1548649e+001
3.7959423e+001
3.4777100e+001
3.2102947e+001
2.9913958e+001
2.8058765e+001
2.6519205e+001
2.5202154e+001
2.4098515e+001
2.3154999e+001
2.2393963e+001
2.1820354e+001
2.1459063e+001
2.1311262e+001
2.1384108e+001
2.1652542e+001
2.2107790e+001
2.2721457e+001
2.3520325e+001
2.4505314e+001
2.5594803e+001
2.6770462e+001
2.7875761e+001
2.8880440e+001
2.9853292e+001
3.0806873e+001
3.2102684e+001
3.3847111e+001
3.6513084e+001
4.0045097e+001
4.3344292e+001
4.6245365e+001
4.8261738e+001
4.9522541e+001
5.0712463e+001
5.1807331e+001
5.2796749e+001
5.3341801e+001
5.3047894e+001
5.2007713e+001
5.0468639e+001
4.8823200e+001
4.7431267e+001
4.6248840e+001
4.5231148e+001
4.4174313e+001
4.2967365e+001
4.1444767e+001
3.9545757e+001
3.7558201e+001
3.5560532e+001
3.3604359e+001
3.1673925e+001
2.9244097e+001
2.6158184e+001
2.2990440e+001
1.9824562e+001
1.7264286e+001
1.5402260e+001
1.3702143e+001
1.2157492e+001
1.0611525e+001
9.0323668e+000
7.3721552e+000
5.6358957e+000
3.8678138e+000
2.2436910e+000
9.9711227e-001
2.2570366e-001
3.8382687e-002
4.0888485e-001
1.2245574e+000
2.1048629e+000
2.8066947e+000
3.3990712e+000
3.8770165e+000
4.4654393e+000
5.2828465e+000
6.1434979e+000
7.0135202e+000
7.5284185e+000
7.5087867e+000
7.3026962e+000
6.8643374e+000
6.4282141e+000
5.9956217e+000
5.5851870e+000
5.2132621e+000
4.9314876e+000
4.7308388e+000
4.5228100e+000
4.2739983e+000
3.9353092e+000
3.5685639e+000
3.3003078e+000
3.1780772e+000
3.2414067e+000
3.4264832e+000
3.6561821e+000
3.8622713e+000
3.9755480e+000
4.0657816e+000
4.1571279e+000
4.2996097e+000
4.5338235e+000
4.8326764e+000
5.2288065e+000
5.6379957e+000
6.0517669e+000
6.3798428e+000
6.5539150e+000
6.6165719e+000
6.5109224e+000
6.3294621e+000
6.0318203e+000
5.6597853e+000
5.1930561e+000
4.7243338e+000
4.2668543e+000
3.8783572e+000
3.5583761e+000
3.2849860e+000
3.0548427e+000
2.8358915e+000
2.6231480e+000
2.3810825e+000
2.0851061e+000
1.7030720e+000
1.2760150e+000
8.4115052e-001
4.6215492e-001
2.0524336e-001
3.6504790e-002
-2.0708058e-002
-3.5277639e-002
6.0225524e-002
2.1338382e-001
4.6057320e-001
6.7088240e-001
7.9793257e-001
8.1760579e-001
6.7798018e-001
5.4895538e-001
4.5906535e-001
4.7486991e-001
6.4353687e-001
9.3112403e-001
1.3531948e+000
1.8194038e+000
2.2921300e+000
2.6527314e+000
2.8862669e+000
2.9769011e+000
2.9648149e+000
2.9024529e+000
2.8188171e+000
2.7477901e+000
2.6872573e+000
2.6489797e+000
2.6151714e+000
2.5816500e+000
2.5588629e+000
2.5682867e+000
2.6008558e+000
2.6841900e+000
2.7721841e+000
2.8673859e+000
2.9660213e+000
3.0750332e+000
3.1984556e+000
3.3480730e+000
3.5186217e+000
3.7240248e+000
3.9589231e+000
4.2349901e+000
4.5118680e+000
4.7885785e+000
5.0475059e+000
5.2945251e+000
5.5582542e+000
5.8475399e+000
6.1833162e+000
6.5598507e+000
6.9769731e+000
7.4048753e+000
7.8060923e+000
8.1659079e+000
8.4248810e+000
8.6331453e+000
8.7651272e+000
8.8767042e+000
8.9658518e+000
9.0325575e+000
9.0312338e+000
8.9711132e+000
8.7435398e+000
8.4459887e+000
7.9804454e+000
7.4572721e+000
6.8172855e+000
6.1309986e+000
5.3721275e+000
4.6201315e+000
3.8959589e+000
3.2663522e+000
2.7647941e+000
2.3825028e+000
2.1098461e+000
1.8578815e+000
1.6023000e+000
1.2687762e+000
8.9129144e-001
5.1492453e-001
1.6670874e-001
-6.6419646e-002
-2.4490845e-001
-3.5299000e-001
-4.4248420e-001
-5.2255839e-001
-5.8383799e-001
-5.7479835e-001
-5.3381234e-001
-3.8451537e-001
-2.4001400e-001
-1.1227801e-001
-2.3470838e-002
-2.8234370e-002
-3.5843723e-002
-4.4752717e-002
-2.2158384e-002
4.7006223e-002
1.0216431e-001
1.3367628e-001
1.3378660e-001
1.0224339e-001
7.3827349e-002
4.8277006e-002
2.2072168e-002
6.2688366e-003
4.7472972e-002
1.4709799e-001
4.2826760e-001
7.8783381e-001
1.1933178e+000
1.5915436e+000
1.8841554e+000
2.1534114e+000
2.3985960e+000
2.6430454e+000
2.8956499e+000
3.1290798e+000
3.2820268e+000
3.4245143e+000
3.5360985e+000
3.6646550e+000
3.8333549e+000
3.9956155e+000
4.1454968e+000
4.2937369e+000
4.4485855e+000
4.6726742e+000
4.9871659e+000
5.3512192e+000
5.7615685e+000
6.1629071e+000
6.5582023e+000
6.9595208e+000
7.3561692e+000
7.6971321e+000
7.9957232e+000
8.1710529e+000
8.2946424e+000
8.3328485e+000
8.3436127e+000
8.2897348e+000
8.2285080e+000
8.1747694e+000
8.1341438e+000
8.1763525e+000
8.2197199e+000
8.2659082e+000
8.2854900e+000
8.2183857e+000
8.1229677e+000
7.9600177e+000
7.7888794e+000
7.6018863e+000
7.3979177e+000
7.1712728e+000
6.9580002e+000
6.7657013e+000
6.6380835e+000
6.5659800e+000
6.4836426e+000
6.3887219e+000
6.2387614e+000
6.0539536e+000
5.8024483e+000
5.5129385e+000
5.0870972e+000
4.6211367e+000
4.1174603e+000
3.6139159e+000
3.1866801e+000
2.7699857e+000
2.4027891e+000
2.0427029e+000
1.7294092e+000
1.4266757e+000
1.1712807e+000
9.3684328e-001
7.6799792e-001
6.1088526e-001
4.7687930e-001
2.8156564e-001
-2.4685144e-002
-4.0223888e-001
-8.7082863e-001
-1.2679713e+000
-1.5790830e+000
-1.6771220e+000
-1.5939083e+000
-1.2961861e+000
-8.6376894e-001
-3.3329049e-001
2.3518082e-001
6.8249089e-001
1.0772914e+000
1.1812688e+000
1.2138300e+000
1.0316780e+000
8.2067084e-001
5.3339696e-001
2.5229925e-001
1.0353535e-001
4.8798919e-003
1.5316862e-001
4.8952031e-001
1.0384860e+000
1.5398514e+000
1.9001654e+000
2.2047958e+000
2.3929501e+000
2.6611562e+000
3.0596442e+000
3.5915899e+000
4.2848620e+000
4.9654908e+000
5.6312742e+000
6.0721426e+000
6.3516798e+000
6.3952641e+000
6.3140521e+000
6.2894602e+000
6.2858367e+000
6.4309459e+000
6.6131825e+000
6.6790333e+000
6.7257543e+000
6.8337998e+000
