##TITLE=Methyl Ethyl Ketone
##JCAMP-DX=4.24
##DATA TYPE=INFRARED SPECTRUM
##XUNITS=cm-1
##YUNITS=Absorbance
##FIRSTX=900
##LASTX=2300
##XYDATA=(X++(Y..Y))
2296 -0.075240999
2294 -0.076805763
2292 -0.078371525
2290 -0.079936288
2288 -0.081502035
2286 -0.083067805
2284 -0.084632568
2282 -0.086198315
2280 -0.087763086
2278 -0.08932884
2276 -0.090893611
2274 -0.092459358
2272 -0.094024144
2270 -0.095589884
2268 -0.097154662
2266 -0.098720402
2264 -0.1002842
2262 -0.10185187
2260 -0.10341962
2258 -0.10497766
2256 -0.10654514
2254 -0.10811289
2252 -0.10968065
2250 -0.11123874
2248 -0.11280617
2246 -0.11437393
2244 -0.0042502573
2242 0.10464189
2240 0.21482399
2238 0.2164218
2236 0.20196201
2234 0.12428943
2232 0.044872418
2230 0.0277151
2228 0.019908383
2226 0.062879197
2224 0.10882274
2222 0.15655814
2220 0.19980301
2218 0.2291088
2216 0.23190685
2214 0.17852569
2212 0.10325992
2210 -0.0023027631
2208 -0.072731383
2206 -0.097033478
2204 -0.089949042
2202 -0.055444643
2200 -0.049934942
2198 -0.067439452
2196 -0.11011028
2194 -0.16639674
2192 -0.21018131
2190 -0.24807617
2188 -0.26322168
2186 -0.2710962
2184 -0.25498199
2182 -0.23345004
2180 -0.19182931
2178 -0.14722432
2176 -0.099944629
2174 -0.055684768
2172 -0.04847854
2170 -0.05069536
2168 -0.08679378
2166 -0.12203216
2164 -0.14209817
2162 -0.14855228
2160 -0.1240228
2158 -0.085296288
2156 -0.025597399
2154 0.035901479
2152 0.096875101
2150 0.1430272
2148 0.17256692
2146 0.17669751
2144 0.15991177
2142 0.12366509
2140 0.075411282
2138 0.048891328
2136 0.034878429
2134 0.047972996
2132 0.071979441
2130 0.087705053
2128 0.10047352
2126 0.11297972
2124 0.12548183
2122 0.14878149
2120 0.17257309
2118 0.17334168
2116 0.16617928
2114 0.1243583
2112 0.078040801
2110 0.034034841
2108 0.0010220066
2106 0.00019613886
2104 0.016771246
2102 0.061292384
2100 0.10299096
2098 0.13301192
2096 0.13776571
2094 0.11172225
2092 0.081523381
2090 0.051667213
2088 0.038220055
2086 0.038280502
2084 0.042988513
2082 0.049531642
2080 0.03748088
2078 0.015523301
2076 -0.038391087
2074 -0.10509653
2072 -0.1791352
2070 -0.25512108
2068 -0.31402537
2066 -0.3685863
2064 -0.41696671
2062 -0.4642691
2060 -0.5126639
2058 -0.55743152
2056 -0.5810523
2054 -0.59254563
2052 -0.57540721
2050 -0.55557901
2048 -0.5433296
2046 -0.54990536
2044 -0.59016699
2042 -0.64188606
2040 -0.70108873
2038 -0.74261618
2036 -0.76115054
2034 -0.7548117
2032 -0.72845393
2030 -0.68709707
2028 -0.63669854
2026 -0.60959822
2024 -0.59836942
2022 -0.64226913
2020 -0.71361643
2018 -0.77315378
2016 -0.82623202
2014 -0.82815337
2012 -0.81306833
2010 -0.82536805
2008 -0.84769416
2006 -0.90995383
2004 -0.98019797
2002 -1.0349215
2000 -1.0816377
1998 -1.1107424
1996 -1.1438929
1994 -1.2027923
1992 -1.2709172
1990 -1.3454449
1988 -1.393378
1986 -1.3921564
1984 -1.3633435
1982 -1.3125376
1980 -1.2564077
1978 -1.2000335
1976 -1.1350515
1974 -1.062158
1972 -1.0110291
1970 -0.97774732
1968 -1.0044796
1966 -1.06723
1964 -1.1638814
1962 -1.2753983
1960 -1.3405759
1958 -1.3845359
1956 -1.3333714
1954 -1.2476505
1952 -1.1299022
1950 -1.0120344
1948 -0.98807591
1946 -1.010735
1944 -1.1229743
1942 -1.2476583
1940 -1.3169754
1938 -1.3471209
1936 -1.3193229
1934 -1.2882004
1932 -1.285248
1930 -1.3079448
1928 -1.3587703
1926 -1.4047321
1924 -1.4342774
1922 -1.4053099
1920 -1.3178406
1918 -1.187716
1916 -1.0318828
1914 -0.91427952
1912 -0.83003604
1910 -0.79566354
1908 -0.78930318
1906 -0.79078001
1904 -0.79415202
1902 -0.77737534
1900 -0.75110447
1898 -0.72475976
1896 -0.70102715
1894 -0.71166849
1892 -0.73620212
1890 -0.76425952
1888 -0.7851575
1886 -0.76981062
1884 -0.73727101
1882 -0.6935299
1880 -0.6511603
1878 -0.62134361
1876 -0.62793297
1874 -0.69357318
1872 -0.82047427
1870 -1.0100948
1868 -1.1442699
1866 -1.1847922
1864 -1.0826583
1862 -0.85862213
1860 -0.62885094
1858 -0.42223391
1856 -0.29957199
1854 -0.23769304
1852 -0.22627418
1850 -0.24090466
1848 -0.25851721
1846 -0.27561286
1844 -0.30027345
1842 -0.33030632
1840 -0.40276885
1838 -0.50199205
1836 -0.66150987
1834 -0.85357559
1832 -1.0701072
1830 -1.2582136
1828 -1.3052796
1826 -1.2275622
1824 -0.97779638
1822 -0.67934638
1820 -0.42795581
1818 -0.25908381
1816 -0.200986
1814 -0.2083846
1812 -0.25192025
1810 -0.2814886
1808 -0.27917892
1806 -0.25027749
1804 -0.20355856
1802 -0.20043489
1800 -0.24146685
1798 -0.33815441
1796 -0.47164428
1794 -0.5365932
1792 -0.54839879
1790 -0.36919367
1788 -0.073570669
1786 0.20765325
1784 0.46268693
1782 0.53789181
1780 0.50630224
1778 0.42619959
1776 0.31238258
1774 0.16494805
1772 -0.0081899911
1770 -0.20839511
1768 -0.35386822
1766 -0.33368906
1764 -0.20700359
1762 -0.019029938
1760 0.024018543
1758 -0.10705424
1756 -0.3190257
1754 -0.58506715
1752 -0.82793045
1750 -1.0192004
1748 -1.1406457
1746 -1.2042679
1744 -1.2354537
1742 -1.2501888
1740 -1.2551219
1738 -1.254618
1736 -1.17892
1734 -1.0459398
1732 -0.84937859
1730 -0.61498797
1728 -0.44416371
1726 -0.32007936
1724 -0.22992013
1722 -0.14574
1720 -0.019477785
1718 0.19322909
1716 0.75639749
1714 1.6048067
1712 2.6503844
1710 3.7402627
1708 4.6916938
1706 5.6485562
1704 6.7459288
1702 8.2788525
1700 10.415799
1698 13.272736
1696 16.801428
1694 20.29558
1692 23.449554
1690 26.181887
1688 28.556486
1686 31.283922
1684 34.455791
1682 38.345234
1680 42.820122
1678 46.90424
1676 50.595943
1674 54.078529
1672 57.455994
1670 61.341358
1668 65.632515
1666 70.07975
1664 74.578987
1662 78.82061
1660 82.742989
1658 86.18541
1656 89.176918
1654 91.770103
1652 94.0737
1650 96.245232
1648 98.013046
1646 99.155426
1644 99.551537
1642 99.205643
1640 98.09848
1638 96.328407
1636 93.696632
1634 90.240677
1632 86.424835
1630 82.460281
1628 78.52784
1626 74.666374
1624 70.538719
1622 66.130058
1620 61.696369
1618 57.276669
1616 53.139427
1614 49.311913
1612 45.950523
1610 43.054192
1608 40.535431
1606 38.361786
1604 36.371876
1602 34.583611
1600 32.999855
1598 31.628145
1596 30.4475
1594 29.45681
1592 28.626629
1590 27.964981
1588 27.457491
1586 27.103928
1584 26.886896
1582 26.780481
1580 26.760397
1578 26.868761
1576 27.116428
1574 27.576332
1572 28.262968
1570 29.08247
1568 30.00968
1566 30.887121
1564 31.695532
1562 32.562317
1560 33.543358
1558 35.063034
1556 37.144241
1554 39.36726
1552 41.612717
1550 43.367973
1548 44.638996
1546 45.676357
1544 46.496105
1542 47.209778
1540 47.818581
1538 48.350864
1536 48.675713
1534 48.654213
1532 48.274334
1530 47.562279
1528 46.535099
1526 45.220749
1524 43.623291
1522 41.743023
1520 39.764015
1518 37.764317
1516 35.960358
1514 34.442013
1512 32.92268
1510 31.343426
1508 29.295008
1506 26.645437
1504 23.98068
1502 21.35026
1500 19.09631
1498 17.25178
1496 15.379857
1494 13.464343
1492 11.48284
1490 9.4577131
1488 7.4853439
1486 5.6389742
1484 4.0285158
1482 2.7017853
1480 1.6645405
1478 0.90765262
1476 0.37834287
1474 0.20188323
1472 0.53309047
1470 1.1927776
1468 1.9957834
1466 2.8330028
1464 3.6418045
1462 4.4115047
1460 5.1283226
1458 5.6474028
1456 5.8642001
1454 5.8796182
1452 5.6386685
1450 5.4707389
1448 5.4240503
1446 5.3736749
1444 5.3040104
1442 5.1407671
1440 4.8482351
1438 4.4687524
1436 3.9767613
1434 3.406451
1432 2.7836909
1430 2.2293289
1428 1.79292
1426 1.5344393
1424 1.4470841
1422 1.4762212
1420 1.5865706
1418 1.7228794
1416 1.8939571
1414 2.112982
1412 2.3892777
1410 2.7451649
1408 3.1278753
1406 3.5141699
1404 3.8708634
1402 4.1691141
1400 4.4291439
1398 4.6345596
1396 4.8359284
1394 5.0367208
1392 5.2309823
1390 5.4056687
1388 5.5093436
1386 5.49753
1384 5.4048681
1382 5.2027006
1380 4.9653792
1378 4.6818995
1376 4.3697972
1374 4.0255318
1372 3.6648021
1370 3.2946663
1368 2.9365652
1366 2.5688729
1364 2.1517417
1362 1.693464
1360 1.2020073
1358 0.74691439
1356 0.42016059
1354 0.19245973
1352 0.087853074
1350 0.027026545
1348 -0.034726515
1346 -0.13105001
1344 -0.20279039
1342 -0.24651501
1340 -0.23456164
1338 -0.20415373
1336 -0.14066054
1334 -0.078003488
1332 -0.017059295
1330 0.04449822
1328 0.10850506
1326 0.18083721
1324 0.26623321
1322 0.36082566
1320 0.4675093
1318 0.58078003
1316 0.70170999
1314 0.82741785
1312 0.95504797
1310 1.0767056
1308 1.1854972
1306 1.26728
1304 1.3248543
1302 1.354375
1300 1.3717633
1298 1.3888814
1296 1.4100286
1294 1.4426353
1292 1.4725955
1290 1.4883556
1288 1.4982561
1286 1.4982885
1284 1.5121065
1282 1.5640643
1280 1.6329468
1278 1.7386137
1276 1.8436285
1274 1.947615
1272 2.0524492
1270 2.1653292
1268 2.3135407
1266 2.5193565
1264 2.7756691
1262 3.097234
1260 3.458154
1258 3.8679745
1256 4.3263946
1254 4.8342876
1252 5.3878975
1250 5.9757318
1248 6.5842853
1246 7.2010999
1244 7.8114305
1242 8.4060888
1240 8.95644
1238 9.4720001
1236 9.9130945
1234 10.300496
1232 10.5588
1230 10.744523
1228 10.738731
1226 10.672671
1224 10.447474
1222 10.183918
1220 9.8277321
1218 9.4394693
1216 8.984766
1214 8.4945307
1212 7.9433813
1210 7.3656454
1208 6.7534003
1206 6.1420851
1204 5.5351577
1202 4.9437566
1200 4.3689928
1198 3.8072238
1196 3.2571428
1194 2.7179768
1192 2.1936293
1190 1.7058959
1188 1.2555202
1186 0.89353645
1184 0.58481991
1182 0.37637854
1180 0.20880109
1178 0.11527407
1176 0.049298201
1174 0.054159071
1172 0.077907473
1170 0.1582399
1168 0.23287892
1166 0.28787565
1164 0.31859529
1162 0.28958851
1160 0.24824572
1158 0.18391609
1156 0.12517388
1154 0.075697094
1152 0.029357225
1150 -0.013430599
1148 -0.05874332
1146 -0.10232092
1144 -0.12172434
1142 -0.10992219
1140 -0.036995471
1138 0.08155553
1136 0.23608513
1134 0.44148529
1132 0.72743928
1130 1.0580821
1128 1.4615462
1126 1.8852679
1124 2.3112237
1122 2.7353024
1120 3.1477041
1118 3.5696082
1116 4.0477343
1114 4.5255618
1112 4.9964867
1110 5.441011
1108 5.8019629
1106 6.1528196
1104 6.480238
1102 6.8169208
1100 7.1729751
1098 7.5420847
1096 7.9332857
1094 8.3421421
1092 8.7733078
1090 9.2108946
1088 9.6545811
1086 10.096986
1084 10.531506
1082 10.917696
1080 11.257915
1078 11.46889
1076 11.610871
1074 11.675959
1072 11.720686
1070 11.806931
1068 11.900828
1066 11.980593
1064 12.046761
1062 12.019205
1060 11.982683
1058 11.910743
1056 11.821714
1054 11.657429
1052 11.434202
1050 11.01785
1048 10.534167
1046 9.8926678
1044 9.2594833
1042 8.6504641
1040 8.1327219
1038 7.7523718
1036 7.4407201
1034 7.2042446
1032 6.9474854
1030 6.666533
1028 6.3211193
1026 5.9283824
1024 5.5027514
1022 5.0638809
1020 4.6669188
1018 4.2938719
1016 4.0046058
1014 3.7413177
1012 3.5158293
1010 3.2925594
1008 3.0206959
1006 2.7372637
1004 2.3654172
1002 1.9870589
1000 1.5703875
998 1.1656647
996 0.81441069
994 0.48802459
992 0.23907208
990 0.0048832744
988 -0.1941572
986 -0.3681708
984 -0.49517268
982 -0.5601899
980 -0.53945577
978 -0.46291205
976 -0.32807627
974 -0.1782454
972 -0.013830289
970 0.19859298
968 0.44409171
966 0.76513249
964 1.1169353
962 1.4023645
960 1.656444
958 1.7012044
956 1.6920215
954 1.4747453
952 1.2279568
950 0.87481213
948 0.52308953
946 0.25400376
944 0.01567837
942 -0.0024300814
940 -0.070543721
938 0.038004227
936 0.14779571
934 0.26012981
932 0.33061275
930 0.31254312
928 0.31380463
926 0.34714371
924 0.43869779
922 0.59981525
920 0.70511973
918 0.75632131
916 0.65764773
914 0.45310599
912 0.22742973
910 -0.007336311
908 -0.039449386
906 0.0075034797
904 0.27172813
902 0.59314251
900 0.96188682
898 1.3380257
896 1.5657001
