Image.
>Pix99999.
  .
5555
5555
2300
900
5555
2
1
0
701
5555
2.1585999e-001
2.2035357e-001
2.2483717e-001
2.2933072e-001
2.3382428e-001
2.3830794e-001
2.4280144e-001
2.4729499e-001
2.5178856e-001
2.5627229e-001
2.6076570e-001
2.6525927e-001
2.6974303e-001
2.7422661e-001
2.7872980e-001
2.8327248e-001
2.8770852e-001
2.9199582e-001
2.9668888e-001
3.0195642e-001
3.0569428e-001
3.0727440e-001
3.1455523e-001
3.2989678e-001
3.2401699e-001
2.6614502e-001
1.5487014e-001
8.6826701e-003
-1.0709333e-001
-1.3291235e-001
-8.5626371e-002
-3.4519681e-003
7.7413812e-002
1.2893391e-001
1.5275472e-001
1.5868551e-001
1.5477577e-001
1.4652771e-001
1.3174297e-001
1.0949416e-001
9.3288541e-002
9.7138152e-002
1.1955784e-001
1.5319116e-001
1.8599144e-001
2.0782164e-001
2.2171812e-001
2.3376630e-001
2.4584028e-001
2.5924361e-001
2.7829713e-001
3.0677184e-001
3.4217942e-001
3.7833688e-001
4.0229648e-001
4.0392259e-001
3.9323801e-001
3.8618311e-001
3.9639810e-001
4.3216714e-001
4.8338830e-001
5.3502995e-001
5.7626969e-001
5.9854054e-001
5.9622872e-001
5.6788814e-001
5.2519667e-001
4.8673236e-001
4.8152000e-001
5.3359675e-001
6.3268501e-001
7.5391680e-001
8.6097986e-001
9.2186356e-001
9.3712473e-001
9.1991860e-001
8.8844550e-001
8.5763711e-001
8.2308114e-001
7.7370393e-001
6.9933027e-001
5.9539276e-001
4.7824314e-001
3.7224954e-001
3.0395362e-001
2.9725251e-001
3.6270961e-001
4.9905750e-001
6.7629123e-001
8.5499376e-001
9.9969870e-001
1.0870390e+000
1.1369200e+000
1.1820081e+000
1.2421937e+000
1.3226814e+000
1.3907759e+000
1.4064330e+000
1.3589100e+000
1.2573298e+000
1.1442715e+000
1.0671587e+000
1.0420355e+000
1.0659386e+000
1.1087291e+000
1.1353750e+000
1.1323659e+000
1.0996015e+000
1.0542361e+000
1.0188853e+000
1.0105814e+000
1.0414695e+000
1.1141800e+000
1.2235873e+000
1.3468429e+000
1.4550337e+000
1.5214394e+000
1.5287848e+000
1.4926317e+000
1.4423231e+000
1.4067372e+000
1.4071555e+000
1.4359789e+000
1.4718864e+000
1.4871868e+000
1.4583786e+000
1.3883140e+000
1.2942618e+000
1.2067977e+000
1.1566137e+000
1.1523014e+000
1.1900851e+000
1.2569417e+000
1.3370010e+000
1.4180135e+000
1.4924214e+000
1.5653172e+000
1.6452905e+000
1.7313894e+000
1.8153590e+000
1.8779000e+000
1.9033750e+000
1.9124800e+000
1.9377714e+000
1.9898891e+000
2.0622950e+000
2.1221035e+000
2.1319621e+000
2.0841067e+000
1.9879628e+000
1.8645929e+000
1.7396917e+000
1.6386069e+000
1.5829139e+000
1.5798080e+000
1.6249107e+000
1.6946309e+000
1.7591943e+000
1.8004323e+000
1.8110278e+000
1.8026971e+000
1.7962270e+000
1.8117779e+000
1.8609108e+000
1.9219275e+000
1.9587407e+000
1.9432483e+000
1.8625176e+000
1.7464520e+000
1.6410153e+000
1.5712199e+000
1.5441307e+000
1.5418348e+000
1.5385604e+000
1.5255026e+000
1.5066750e+000
1.5002028e+000
1.5253270e+000
1.5777735e+000
1.6395155e+000
1.6873943e+000
1.6997346e+000
1.6681581e+000
1.5909456e+000
1.4648423e+000
1.2930493e+000
1.1125488e+000
9.7568458e-001
9.2145461e-001
9.6931499e-001
1.0911905e+000
1.2389895e+000
1.3872703e+000
1.5244646e+000
1.6365495e+000
1.7078922e+000
1.7268200e+000
1.6928774e+000
1.6432711e+000
1.6312472e+000
1.6893857e+000
1.8235769e+000
1.9840071e+000
2.0957940e+000
2.1086955e+000
2.0024736e+000
1.8151406e+000
1.6090354e+000
1.4141057e+000
1.2339083e+000
1.0527730e+000
8.5572630e-001
6.7143822e-001
5.5250239e-001
5.3933567e-001
6.4798617e-001
8.3026797e-001
1.0095497e+000
1.1493599e+000
1.2434340e+000
1.2953485e+000
1.3034574e+000
1.2284342e+000
1.0209129e+000
6.9181842e-001
3.0383357e-001
-2.5872685e-002
-1.7418814e-001
-1.2402914e-001
6.5261886e-002
3.0323043e-001
5.0402731e-001
6.5677577e-001
7.9618651e-001
9.4226754e-001
1.0942612e+000
1.2244811e+000
1.2965792e+000
1.3057400e+000
1.2678860e+000
1.1911886e+000
1.0781734e+000
9.4023979e-001
8.0083299e-001
7.0799708e-001
7.0622998e-001
7.5384277e-001
7.5426751e-001
6.3071299e-001
3.5757864e-001
4.9234148e-002
-1.0907125e-001
-2.8557282e-002
2.7733406e-001
6.7989773e-001
1.0036957e+000
1.1770846e+000
1.2132815e+000
1.1464202e+000
1.0154969e+000
8.6145627e-001
7.2340518e-001
6.2803769e-001
5.8405370e-001
5.5825460e-001
4.9817500e-001
3.9398199e-001
2.6179793e-001
7.9691716e-002
-1.9123471e-001
-5.2088457e-001
-8.3442765e-001
-1.1010323e+000
-1.3291770e+000
-1.5260683e+000
-1.6946501e+000
-1.8471121e+000
-1.9931588e+000
-2.0959363e+000
-2.0827572e+000
-1.8807601e+000
-1.4498127e+000
-8.8000828e-001
-3.4939837e-001
8.4007978e-003
1.3211778e-001
7.5091027e-002
-2.1429699e-002
1.7189808e-002
3.5184389e-001
1.0142255e+000
1.9172878e+000
2.8973336e+000
3.7817576e+000
4.5647941e+000
5.3932476e+000
6.4806919e+000
8.0771351e+000
1.0455432e+001
1.3800119e+001
1.7814287e+001
2.1853100e+001
2.5459085e+001
2.8485119e+001
3.1249765e+001
3.4395527e+001
3.8464752e+001
4.3700127e+001
4.9566238e+001
5.5051472e+001
5.9832058e+001
6.4276588e+001
6.8845009e+001
7.3855026e+001
7.9106964e+001
8.4013054e+001
8.8199677e+001
9.1570885e+001
9.4138847e+001
9.5964607e+001
9.7096230e+001
9.7576500e+001
9.7520821e+001
9.7099098e+001
9.6439072e+001
9.5604034e+001
9.4584137e+001
9.3311676e+001
9.1705994e+001
8.9686981e+001
8.7192413e+001
8.4198166e+001
8.0779106e+001
7.7070656e+001
7.3075867e+001
6.8678391e+001
6.3848358e+001
5.8690796e+001
5.3458961e+001
4.8501358e+001
4.4050774e+001
4.0192692e+001
3.6926296e+001
3.4187981e+001
3.1875692e+001
2.9872065e+001
2.8111076e+001
2.6583948e+001
2.5312252e+001
2.4331316e+001
2.3652500e+001
2.3259365e+001
2.3125034e+001
2.3218637e+001
2.3516232e+001
2.3999407e+001
2.4633018e+001
2.5370689e+001
2.6211157e+001
2.7215216e+001
2.8499485e+001
3.0208590e+001
3.2394894e+001
3.4986927e+001
3.7807961e+001
4.0610023e+001
4.3211067e+001
4.5559513e+001
4.7840992e+001
5.0392544e+001
5.3184601e+001
5.5767101e+001
5.7715633e+001
5.8784733e+001
5.9029774e+001
5.8753716e+001
5.8065598e+001
5.6821098e+001
5.4942558e+001
5.2522614e+001
4.9850945e+001
4.7350502e+001
4.5222141e+001
4.3374218e+001
4.1642639e+001
3.9858749e+001
3.7887409e+001
3.5659012e+001
3.3240532e+001
3.0832371e+001
2.8594471e+001
2.6574080e+001
2.4634399e+001
2.2487165e+001
2.0012691e+001
1.7346907e+001
1.4751566e+001
1.2532616e+001
1.0773329e+001
9.2852840e+000
7.8833857e+000
6.4756722e+000
5.0782075e+000
3.8052678e+000
2.7326789e+000
1.8607342e+000
1.1658039e+000
6.1845702e-001
2.0799281e-001
-3.6916159e-002
-5.8507174e-003
4.7899032e-001
1.4744272e+000
2.8563249e+000
4.4240942e+000
5.9491630e+000
7.3059425e+000
8.5109959e+000
9.6138344e+000
1.0659866e+001
1.1654000e+001
1.2546045e+001
1.3259166e+001
1.3708073e+001
1.3860297e+001
1.3753750e+001
1.3435903e+001
1.2942511e+001
1.2288629e+001
1.1468506e+001
1.0485393e+001
9.3703117e+000
8.2095804e+000
7.1474438e+000
6.2870822e+000
5.6533265e+000
5.2288918e+000
4.9662213e+000
4.8368320e+000
4.8479128e+000
5.0109029e+000
5.3280616e+000
5.7767086e+000
6.3026261e+000
6.8507023e+000
7.3727612e+000
7.8149056e+000
8.1154346e+000
8.2275238e+000
8.1357327e+000
7.8710432e+000
7.5191503e+000
7.1597824e+000
6.8410940e+000
6.5783195e+000
6.3488550e+000
6.1264486e+000
5.8903785e+000
5.6107130e+000
5.2447391e+000
4.7631855e+000
4.1667743e+000
3.4923439e+000
2.8157458e+000
2.1854110e+000
1.5939300e+000
1.0206456e+000
4.5185107e-001
-7.8113467e-002
-4.6838230e-001
-6.4125842e-001
-5.8027059e-001
-2.9203987e-001
1.9701979e-001
8.2775474e-001
1.5006821e+000
2.1356759e+000
2.7002211e+000
3.1849570e+000
3.5984354e+000
3.9378886e+000
4.1754546e+000
4.2780628e+000
4.2187271e+000
4.0050106e+000
3.6985078e+000
3.3700562e+000
3.0809712e+000
2.8643568e+000
2.7095656e+000
2.5938401e+000
2.4925456e+000
2.3906319e+000
2.2902339e+000
2.1964500e+000
2.1123843e+000
2.0394697e+000
1.9781200e+000
1.9350246e+000
1.9289886e+000
1.9844571e+000
2.1291831e+000
2.3826442e+000
2.7469070e+000
3.2095361e+000
3.7384984e+000
4.2944880e+000
4.8331499e+000
5.3124690e+000
5.6987944e+000
5.9731841e+000
6.1421943e+000
6.2351165e+000
6.3111796e+000
6.4297390e+000
6.6346440e+000
6.9466476e+000
7.3518119e+000
7.8373981e+000
8.4078341e+000
9.0754690e+000
9.8583679e+000
1.0763489e+001
1.1773581e+001
1.2868395e+001
1.4030000e+001
1.5229032e+001
1.6416225e+001
1.7525942e+001
1.8473322e+001
1.9170958e+001
1.9539314e+001
1.9519360e+001
1.9084118e+001
1.8250803e+001
1.7102556e+001
1.5736491e+001
1.4249125e+001
1.2740726e+001
1.1314540e+001
1.0074217e+001
9.1119957e+000
8.4852657e+000
8.1830044e+000
8.1543131e+000
8.2987432e+000
8.5023918e+000
8.6501150e+000
8.6451311e+000
8.4340105e+000
8.0005493e+000
7.3865814e+000
6.6517038e+000
5.8629861e+000
5.0755792e+000
4.3154659e+000
3.6019971e+000
2.9540358e+000
2.3916068e+000
1.9359052e+000
1.5981600e+000
1.3676214e+000
1.2285945e+000
1.1670671e+000
1.1748034e+000
1.2545915e+000
1.4020588e+000
1.5911950e+000
1.7840543e+000
1.9290234e+000
1.9850243e+000
1.9436727e+000
1.8145308e+000
1.6290092e+000
1.4146700e+000
1.1777536e+000
9.2074209e-001
6.4850461e-001
3.6625004e-001
7.9600096e-002
-1.9304600e-001
-4.0469781e-001
-5.1320910e-001
-5.0633079e-001
-3.9732850e-001
-2.4346113e-001
-1.1118421e-001
-5.9474621e-002
-1.0785340e-001
-1.8545136e-001
-2.1434213e-001
-1.5494710e-001
-8.6294115e-004
1.9712000e-001
3.9508614e-001
6.0044152e-001
8.3232999e-001
1.1072239e+000
1.4296900e+000
1.7757382e+000
2.1205428e+000
2.4552875e+000
2.7884879e+000
3.1626577e+000
3.6110492e+000
4.1206069e+000
4.6448255e+000
5.0813570e+000
5.3405213e+000
5.4027920e+000
5.2861528e+000
5.0615158e+000
4.8009515e+000
4.5441918e+000
4.3146758e+000
4.1136980e+000
3.9399641e+000
3.7997923e+000
3.7022204e+000
3.6570594e+000
3.6674829e+000
3.7165244e+000
3.7799723e+000
3.8282192e+000
3.8356178e+000
3.7926607e+000
3.7019486e+000
3.5888622e+000
3.4872241e+000
3.4379096e+000
3.4751899e+000
3.6075578e+000
3.8217795e+000
4.0591526e+000
4.2475109e+000
4.3089499e+000
4.1888223e+000
3.9064732e+000
3.5151982e+000
3.1148381e+000
2.7917571e+000
2.5558426e+000
2.3814371e+000
2.1920540e+000
1.9215040e+000
1.5741935e+000
1.1786733e+000
7.8450745e-001
4.3922526e-001
1.6623618e-001
-2.0824000e-002
-1.2162090e-001
-1.5231258e-001
-1.7051436e-001
-2.3276334e-001
-3.5821593e-001
-5.3910929e-001
-7.1042562e-001
-7.9998642e-001
-7.5936538e-001
-5.6621683e-001
-2.6529068e-001
7.7202290e-002
3.7983462e-001
5.7954460e-001
6.8827850e-001
7.4415767e-001
8.1046730e-001
9.3557572e-001
1.0950233e+000
1.2381614e+000
1.2866204e+000
1.1777912e+000
9.2935598e-001
5.9244835e-001
2.6678577e-001
6.3728206e-002
9.1955662e-002
4.1090080e-001
9.0556180e-001
1.4263400e+000
1.8564142e+000
2.1141257e+000
2.2174437e+000
2.2189209e+000
2.2083864e+000
2.2756660e+000
2.4766467e+000
2.8357017e+000
3.2903495e+000
3.7563357e+000
4.1483769e+000
4.3931251e+000
4.4634008e+000
4.3523326e+000
4.0875583e+000
3.7327223e+000
3.4580550e+000
3.4250567e+000
3.6548848e+000
4.1335001e+000
