Image.
>Pix99999.
  .
5555
5555
2300
900
5555
2
1
0
701
5555
9.3281999e-002
9.5223218e-002
9.7163446e-002
9.9104673e-002
1.0104888e-001
1.0298614e-001
1.0492337e-001
1.0687050e-001
1.0880782e-001
1.1074506e-001
1.1269214e-001
1.1462951e-001
1.1656674e-001
1.1851379e-001
1.2045120e-001
1.2238842e-001
1.2433543e-001
1.2627289e-001
1.2821011e-001
1.3015707e-001
1.3209456e-001
1.3403180e-001
1.3597871e-001
1.3791625e-001
1.3985348e-001
1.4180036e-001
8.2416460e-002
3.0904585e-003
-8.2411200e-002
-1.4368041e-001
-2.0131142e-001
-2.3934212e-001
-2.7650854e-001
-3.2563370e-001
-3.6928153e-001
-3.6450249e-001
-3.4551954e-001
-2.7282074e-001
-1.9820352e-001
-1.2651081e-001
-3.7930630e-002
8.7905034e-002
2.3176670e-001
4.0144438e-001
5.0155210e-001
5.1291227e-001
4.2427996e-001
2.4467649e-001
7.2264403e-002
-9.0337403e-002
-1.6912286e-001
-1.9995476e-001
-1.8984315e-001
-1.6317487e-001
-1.5312420e-001
-1.4883879e-001
-1.5447320e-001
-1.6230182e-001
-1.5408123e-001
-1.4322545e-001
-1.1479829e-001
-8.4282920e-002
-4.8230369e-002
-1.2970015e-002
1.4779254e-002
3.3709481e-002
2.3194030e-002
-1.1972291e-003
-5.3627122e-002
-1.0159300e-001
-1.3569801e-001
-1.4685048e-001
-1.2681863e-001
-1.0885249e-001
-9.6847825e-002
-1.0951532e-001
-1.4343189e-001
-1.5729240e-001
-1.5564990e-001
-1.3650918e-001
-1.0870000e-001
-1.3727197e-001
-1.8999714e-001
-2.3661551e-001
-2.8059921e-001
-2.4753672e-001
-1.9656718e-001
-1.7257690e-001
-1.5670343e-001
-2.1011041e-001
-2.7293056e-001
-3.3236611e-001
-3.7960342e-001
-3.7513226e-001
-3.5096082e-001
-2.9019243e-001
-2.3169789e-001
-1.9008784e-001
-1.6739120e-001
-1.7220412e-001
-1.6565143e-001
-1.3885827e-001
-9.6602373e-002
-4.1397449e-002
-4.1440431e-002
-8.8759750e-002
-1.8338731e-001
-3.0498549e-001
-3.8143712e-001
-4.3223843e-001
-4.3468186e-001
-4.1828454e-001
-3.8388678e-001
-3.4425491e-001
-2.8686497e-001
-2.2527108e-001
-1.7229447e-001
-1.2416266e-001
-1.1017383e-001
-1.1542400e-001
-1.8961456e-001
-2.8849611e-001
-4.2667988e-001
-5.4273897e-001
-5.8131307e-001
-5.6545001e-001
-4.7302380e-001
-3.9001334e-001
-3.4420303e-001
-3.5432974e-001
-4.2392471e-001
-4.8812851e-001
-5.3638810e-001
-5.3213149e-001
-4.8841652e-001
-4.3495214e-001
-3.7918273e-001
-3.1898946e-001
-2.5651634e-001
-1.9173864e-001
-1.2636000e-001
-1.4481156e-001
-1.9194958e-001
-3.1818181e-001
-4.6399572e-001
-5.9158313e-001
-7.0844835e-001
-7.8147054e-001
-8.3708656e-001
-8.6386716e-001
-8.8127500e-001
-8.9122707e-001
-9.0606719e-001
-9.3778455e-001
-9.6994483e-001
-9.9789935e-001
-1.0052989e+000
-9.8553145e-001
-9.6009505e-001
-9.3437070e-001
-9.0331060e-001
-8.6685181e-001
-7.8192466e-001
-6.6035914e-001
-5.5957079e-001
-4.7632679e-001
-5.2555472e-001
-6.4378119e-001
-7.9185081e-001
-9.4928908e-001
-1.0486941e+000
-1.1267167e+000
-1.1913097e+000
-1.2488117e+000
-1.2701640e+000
-1.2735751e+000
-1.2438074e+000
-1.2077742e+000
-1.1929597e+000
-1.1919420e+000
-1.2118372e+000
-1.2349856e+000
-1.2497280e+000
-1.2425599e+000
-1.2016743e+000
-1.0847379e+000
-8.7912828e-001
-5.8940935e-001
-2.3519856e-001
3.2789700e-002
2.0650671e-001
2.3858349e-001
1.7884342e-001
7.6825485e-002
-4.0410686e-002
-2.2435577e-001
-4.4395357e-001
-6.2368625e-001
-7.8354722e-001
-7.3331136e-001
-5.9580427e-001
-3.9191586e-001
-1.8500137e-001
-1.3506940e-001
-1.8391834e-001
-4.0243351e-001
-6.8678194e-001
-9.7992611e-001
-1.2305520e+000
-1.3729799e+000
-1.4002399e+000
-1.2803017e+000
-1.0352991e+000
-6.7304736e-001
-3.5522318e-001
-1.4312917e-001
-1.6083434e-001
-3.9314801e-001
-6.9546527e-001
-1.0090964e+000
-1.2147971e+000
-1.3330866e+000
-1.2971557e+000
-1.1671336e+000
-9.0150756e-001
-5.6259036e-001
-3.4658456e-001
-2.0517313e-001
-3.4770069e-001
-6.2193084e-001
-8.7046099e-001
-1.0686221e+000
-1.0538892e+000
-9.0970993e-001
-6.4644659e-001
-3.9016792e-001
-3.0019513e-001
-3.7559122e-001
-6.5600002e-001
-9.9623978e-001
-1.2968771e+000
-1.4790281e+000
-1.5090020e+000
-1.4290328e+000
-1.2782588e+000
-1.0927500e+000
-8.9362431e-001
-6.9756734e-001
-5.0567263e-001
-3.2021162e-001
-1.3853864e-001
4.0710658e-002
2.1615359e-001
2.7061051e-001
2.4538215e-001
1.4134249e-001
1.2658238e-003
-3.7111640e-002
3.0310284e-003
1.9766819e-001
4.8800114e-001
8.3634305e-001
1.1360935e+000
1.1795838e+000
1.0256795e+000
6.8731904e-001
3.4521383e-001
1.6948114e-001
4.9641255e-002
-8.9758828e-002
-1.3563201e-001
-3.8665622e-002
3.5077477e-001
1.0395300e+000
1.7925043e+000
2.5137784e+000
2.7863863e+000
2.6348815e+000
2.3336668e+000
1.9815850e+000
1.9376800e+000
2.1398363e+000
2.1870890e+000
2.0897481e+000
1.5517502e+000
7.4594808e-001
1.5365933e-001
-1.9214582e-001
9.8008454e-002
9.2325205e-001
2.1493599e+000
3.4057844e+000
4.1336474e+000
4.5369010e+000
4.8541641e+000
5.4587193e+000
6.6990561e+000
8.7547369e+000
1.1666553e+001
1.5130888e+001
1.8872286e+001
2.2194370e+001
2.4871332e+001
2.7354618e+001
2.9847416e+001
3.3227821e+001
3.7503151e+001
4.2338799e+001
4.7533081e+001
5.1817345e+001
5.5294903e+001
5.8896481e+001
6.2696880e+001
6.7243309e+001
7.2310303e+001
7.7103104e+001
8.1593201e+001
8.5632507e+001
8.9304573e+001
9.2770088e+001
9.6064796e+001
9.9252838e+001
1.0207780e+002
1.0423482e+002
1.0499480e+002
1.0378893e+002
1.0129492e+002
9.8201660e+001
9.4896912e+001
9.1647041e+001
8.7936546e+001
8.3596153e+001
7.8985672e+001
7.4265068e+001
6.9831528e+001
6.5743469e+001
6.1570839e+001
5.7259140e+001
5.2921776e+001
4.8578800e+001
4.4380772e+001
4.0357777e+001
3.6717525e+001
3.3496170e+001
3.0785183e+001
2.8562700e+001
2.6670042e+001
2.5108683e+001
2.3823851e+001
2.2826218e+001
2.2087000e+001
2.1585102e+001
2.1257172e+001
2.1072575e+001
2.0981274e+001
2.1019592e+001
2.1202925e+001
2.1608730e+001
2.2268452e+001
2.3276978e+001
2.4652916e+001
2.6262405e+001
2.8044868e+001
2.9717697e+001
3.1217920e+001
3.2636902e+001
3.3995346e+001
3.5690350e+001
3.7821171e+001
4.0726898e+001
4.4332787e+001
4.7410950e+001
4.9797798e+001
5.1305561e+001
5.2101665e+001
5.3047783e+001
5.4130142e+001
5.5266869e+001
5.5998760e+001
5.5611992e+001
5.4218056e+001
5.2142677e+001
4.9904335e+001
4.8083652e+001
4.6613914e+001
4.5423000e+001
4.4259312e+001
4.2961617e+001
4.1286106e+001
3.9085815e+001
3.6758259e+001
3.4422085e+001
3.2302162e+001
3.0489834e+001
2.8303967e+001
2.5587271e+001
2.2580366e+001
1.9288662e+001
1.6516994e+001
1.4359421e+001
1.2433429e+001
1.0761855e+001
9.1707544e+000
7.6569495e+000
6.1493697e+000
4.6411619e+000
3.1177061e+000
1.7123127e+000
6.4266551e-001
3.0661255e-002
1.9911289e-002
6.0755986e-001
1.6576692e+000
2.7294130e+000
3.4987271e+000
4.0460300e+000
4.4006934e+000
4.8925829e+000
5.7073016e+000
6.6939554e+000
7.8545599e+000
8.6353178e+000
8.7798357e+000
8.5837202e+000
7.9259501e+000
7.2759323e+000
6.6549649e+000
6.1479311e+000
5.8085165e+000
5.6096883e+000
5.5460343e+000
5.4085603e+000
5.1537638e+000
4.7329941e+000
4.2204881e+000
3.8498449e+000
3.6853845e+000
3.7990289e+000
4.1141510e+000
4.5006695e+000
4.8380914e+000
4.9829850e+000
5.0306458e+000
5.0510755e+000
5.1434212e+000
5.4003577e+000
5.7563982e+000
6.2239685e+000
6.6932240e+000
7.1316075e+000
7.4484000e+000
7.5377479e+000
7.4774132e+000
7.1618333e+000
6.7901163e+000
6.3353353e+000
5.8750916e+000
5.4165478e+000
4.9948816e+000
4.6262493e+000
4.2970943e+000
4.0012670e+000
3.6753161e+000
3.3186152e+000
2.9453189e+000
2.5666757e+000
2.2159157e+000
1.8714418e+000
1.4971075e+000
1.1092811e+000
7.2095686e-001
3.7950689e-001
1.5655416e-001
2.3036033e-002
1.7278660e-002
8.2012855e-002
2.5782681e-001
4.8975205e-001
8.1696093e-001
1.0860367e+000
1.2169114e+000
1.2115281e+000
9.6035808e-001
7.2383791e-001
5.3121448e-001
4.6118066e-001
5.7524210e-001
7.7625465e-001
1.0829127e+000
1.4070790e+000
1.7310400e+000
1.9899385e+000
2.1605856e+000
2.2206616e+000
2.1804719e+000
2.0675807e+000
1.9123303e+000
1.7496080e+000
1.6069171e+000
1.5267160e+000
1.5068572e+000
1.5939822e+000
1.7275640e+000
1.9182732e+000
2.0977361e+000
2.2249706e+000
2.3192391e+000
2.3359010e+000
2.3459108e+000
2.3432095e+000
2.3596213e+000
2.4193630e+000
2.5202172e+000
2.6942799e+000
2.9084861e+000
3.1801615e+000
3.4770396e+000
3.8047903e+000
4.1505280e+000
4.5137668e+000
4.8807459e+000
5.2534037e+000
5.6362696e+000
6.0370960e+000
6.4797883e+000
6.9491248e+000
7.4374409e+000
7.9126453e+000
8.3186655e+000
8.6622953e+000
8.8643913e+000
8.9920053e+000
8.9630480e+000
8.8694048e+000
8.6164522e+000
8.3033428e+000
7.8285027e+000
7.3148375e+000
6.7109003e+000
6.1045170e+000
5.4950285e+000
4.8965936e+000
4.3228216e+000
3.7875197e+000
3.3151948e+000
2.9074578e+000
2.5725179e+000
2.2539012e+000
1.9409292e+000
1.5890286e+000
1.2080843e+000
8.2073283e-001
4.4497299e-001
1.3310137e-001
-1.3136753e-001
-3.1587529e-001
-4.6642977e-001
-5.8479154e-001
-6.9107628e-001
-7.7716529e-001
-8.3598399e-001
-7.9472196e-001
-7.1681666e-001
-5.2035242e-001
-3.1667155e-001
-9.3520068e-002
1.1515783e-001
2.8798428e-001
4.5165437e-001
5.9681851e-001
7.3485214e-001
8.5413426e-001
9.2539001e-001
9.2205739e-001
8.3832198e-001
6.6647249e-001
4.6392232e-001
2.4861899e-001
1.0268145e-001
2.8355103e-002
9.4406225e-002
2.5186813e-001
4.9944288e-001
7.8659081e-001
1.1008766e+000
1.4260157e+000
1.7695765e+000
2.1080215e+000
2.4018321e+000
2.6689734e+000
2.8152514e+000
2.9467614e+000
3.0247960e+000
3.1033285e+000
3.1837897e+000
3.2698400e+000
3.3732944e+000
3.5108404e+000
3.7173872e+000
3.9556522e+000
4.2436714e+000
4.5453873e+000
4.8690381e+000
5.2311869e+000
5.6331959e+000
6.0557785e+000
6.4911032e+000
6.9048686e+000
7.2941794e+000
7.5999441e+000
7.8435583e+000
7.9109459e+000
7.9084997e+000
7.8183532e+000
7.7206149e+000
7.7092757e+000
7.7125559e+000
7.7413502e+000
7.7650437e+000
7.7492814e+000
7.7493172e+000
7.8188605e+000
7.9045320e+000
8.0391121e+000
8.1518116e+000
8.2093687e+000
8.2322760e+000
8.1918831e+000
8.1560345e+000
8.1319370e+000
8.1650505e+000
8.2610207e+000
8.3429708e+000
8.3962708e+000
8.2840290e+000
8.0447397e+000
7.6611977e+000
7.2059550e+000
6.7874198e+000
6.3915167e+000
6.0880857e+000
5.8081274e+000
5.5132251e+000
5.2070155e+000
4.8005757e+000
4.3791199e+000
3.8790679e+000
3.3914218e+000
2.9933710e+000
2.6196034e+000
2.3516142e+000
2.0705950e+000
1.7494172e+000
1.4260100e+000
1.0998299e+000
8.1152815e-001
5.9127885e-001
4.0972996e-001
2.8314218e-001
2.1164377e-001
1.9915143e-001
2.2894284e-001
2.9204673e-001
3.5128182e-001
4.0754730e-001
4.4829199e-001
4.8137936e-001
5.0046074e-001
5.1383466e-001
5.0519300e-001
4.9052286e-001
4.4873911e-001
4.0116799e-001
2.9417953e-001
1.8509556e-001
8.1416331e-002
8.5404876e-004
1.8213056e-003
6.1093137e-002
2.4051480e-001
4.0298313e-001
5.1612723e-001
6.3479853e-001
7.6652998e-001
9.5277321e-001
1.2263572e+000
1.5183980e+000
1.8321609e+000
2.1090655e+000
2.3504457e+000
2.5113931e+000
2.6152189e+000
2.6785870e+000
2.7229071e+000
2.9438825e+000
3.2342927e+000
3.6948943e+000
4.1998868e+000
4.5228405e+000
4.8163567e+000
4.9259000e+000
