Image.
>Pix99999.
  .
5555
5555
2300
900
5555
2
1
0
701
5555
1.0212000e-001
1.0424696e-001
1.0636394e-001
1.0849087e-001
1.1061782e-001
1.1273486e-001
1.1486175e-001
1.1698870e-001
1.1911566e-001
1.2123275e-001
1.2335957e-001
1.2548654e-001
1.2761348e-001
1.2972081e-001
1.3185720e-001
1.3402349e-001
1.3611223e-001
1.3810168e-001
1.4035189e-001
1.4297834e-001
1.4462371e-001
1.4489309e-001
1.4879365e-001
1.5781772e-001
1.5334937e-001
1.1796428e-001
6.1552797e-002
4.2289821e-003
-2.3635261e-002
-1.4172518e-003
4.0773906e-002
6.5911628e-002
6.7420430e-002
4.7875982e-002
1.0872073e-002
-3.9980382e-002
-1.0178880e-001
-1.6814601e-001
-2.1765064e-001
-2.2951567e-001
-2.0342429e-001
-1.5049273e-001
-1.0307300e-001
-9.3364641e-002
-1.2727529e-001
-1.9717599e-001
-2.7330220e-001
-3.2324708e-001
-3.3098811e-001
-2.9081851e-001
-2.1789500e-001
-1.3444529e-001
-6.5384567e-002
-3.1674746e-002
-3.5169605e-002
-6.8302371e-002
-1.0987688e-001
-1.3827188e-001
-1.4750615e-001
-1.3931252e-001
-1.2608400e-001
-1.2233661e-001
-1.3765721e-001
-1.7670749e-001
-2.3120914e-001
-2.8723794e-001
-3.2548141e-001
-3.3046633e-001
-3.0961150e-001
-2.7786428e-001
-2.4917001e-001
-2.3168430e-001
-2.1210508e-001
-1.7507236e-001
-1.2693854e-001
-8.3208568e-002
-6.5153956e-002
-8.8741489e-002
-1.4068688e-001
-1.9907159e-001
-2.4911113e-001
-2.8342277e-001
-3.1352445e-001
-3.5530046e-001
-4.1525641e-001
-4.9046788e-001
-5.5407250e-001
-5.7575148e-001
-5.4646808e-001
-4.7298810e-001
-3.9382702e-001
-3.5056999e-001
-3.4986863e-001
-3.8063455e-001
-4.1386187e-001
-4.2212012e-001
-4.1045016e-001
-3.9581117e-001
-3.9259180e-001
-4.0913355e-001
-4.3472427e-001
-4.5486557e-001
-4.6952873e-001
-4.8683468e-001
-5.2410609e-001
-5.9782702e-001
-7.0693994e-001
-8.3920342e-001
-9.6518070e-001
-1.0521086e+000
-1.0803614e+000
-1.0438370e+000
-9.6905720e-001
-8.9400798e-001
-8.5118127e-001
-8.6278850e-001
-9.1999471e-001
-1.0013212e+000
-1.0849242e+000
-1.1518711e+000
-1.1913686e+000
-1.1969692e+000
-1.1642017e+000
-1.0943246e+000
-1.0084063e+000
-9.3445390e-001
-8.9476740e-001
-9.0178978e-001
-9.3868583e-001
-9.7857785e-001
-1.0047858e+000
-1.0095876e+000
-1.0005227e+000
-9.9019277e-001
-9.8412204e-001
-9.8433453e-001
-9.9286246e-001
-1.0122628e+000
-1.0464466e+000
-1.0965964e+000
-1.1497600e+000
-1.1875514e+000
-1.1959146e+000
-1.1694845e+000
-1.1301137e+000
-1.1075079e+000
-1.1120309e+000
-1.1414551e+000
-1.1814257e+000
-1.2165693e+000
-1.2483715e+000
-1.2834911e+000
-1.3154120e+000
-1.3289765e+000
-1.3016500e+000
-1.2167108e+000
-1.0954257e+000
-9.7697920e-001
-8.9763945e-001
-8.8159537e-001
-9.1287804e-001
-9.5639342e-001
-9.7826153e-001
-9.5553374e-001
-9.0367931e-001
-8.5555142e-001
-8.3752656e-001
-8.6298889e-001
-9.0920120e-001
-9.3973362e-001
-9.3607187e-001
-8.9450902e-001
-8.3045423e-001
-7.6764798e-001
-7.2685868e-001
-7.2405249e-001
-7.6388007e-001
-8.4019440e-001
-9.2460352e-001
-9.8253489e-001
-1.0009608e+000
-9.8282576e-001
-9.4710761e-001
-9.1418600e-001
-8.7755781e-001
-8.1579906e-001
-7.0772386e-001
-5.4292202e-001
-3.5184127e-001
-1.8230070e-001
-6.1773814e-002
-4.8699044e-004
1.0063403e-002
-1.6768610e-002
-8.6586729e-002
-2.0892844e-001
-3.6119962e-001
-5.0123250e-001
-5.8383113e-001
-5.7433695e-001
-4.8440713e-001
-3.5309118e-001
-2.2463749e-001
-1.3886440e-001
-1.1350000e-001
-1.4965279e-001
-2.3129903e-001
-3.3308735e-001
-4.2693865e-001
-4.8559451e-001
-4.8869899e-001
-4.2494908e-001
-3.0476984e-001
-1.5513553e-001
-2.1084936e-002
5.1052660e-002
5.1448897e-002
-4.1371584e-003
-8.7651610e-002
-1.6977865e-001
-2.3836829e-001
-2.8950235e-001
-3.0720699e-001
-2.7382955e-001
-2.0222640e-001
-1.2819071e-001
-1.0195948e-001
-1.6788495e-001
-3.1312126e-001
-4.8785633e-001
-6.4019245e-001
-7.2655779e-001
-7.2892666e-001
-6.5268177e-001
-5.3681087e-001
-4.3752465e-001
-3.9998057e-001
-4.4770890e-001
-5.4888642e-001
-6.4007163e-001
-6.7216456e-001
-6.2091076e-001
-5.1394361e-001
-4.0565372e-001
-3.2427427e-001
-2.7063850e-001
-2.1709397e-001
-1.2583247e-001
1.2214620e-002
1.7851199e-001
3.2567072e-001
3.9615521e-001
3.6323079e-001
2.3479772e-001
7.1583286e-002
-4.5113027e-002
-9.2340536e-002
-8.8968232e-002
-4.1896842e-002
5.3782821e-002
1.9336715e-001
3.5477030e-001
4.7522569e-001
4.8040918e-001
3.6942744e-001
2.0240629e-001
6.3888162e-002
2.1959173e-002
2.2460178e-002
-4.9297407e-002
-1.7542337e-001
-2.4091183e-001
-1.8131937e-001
5.9834868e-004
2.2991233e-001
3.9427966e-001
4.2093930e-001
2.9237944e-001
8.2093649e-002
-8.9989506e-002
-1.8004601e-001
-2.1795718e-001
-2.6958179e-001
-3.9933163e-001
-5.8213675e-001
-7.2125477e-001
-7.1497566e-001
-4.7583240e-001
4.7415435e-002
8.5621452e-001
1.8452100e+000
2.8416324e+000
3.7271392e+000
4.4675131e+000
5.1674957e+000
6.0313077e+000
7.2553444e+000
8.9942045e+000
1.1307980e+001
1.4141058e+001
1.7237715e+001
2.0231020e+001
2.2934366e+001
2.5385294e+001
2.7865149e+001
3.0781378e+001
3.4329121e+001
3.8419582e+001
4.2572441e+001
4.6140869e+001
4.9071770e+001
5.1850559e+001
5.4942795e+001
5.8626003e+001
6.2791515e+001
6.7051201e+001
7.1156158e+001
7.5040390e+001
7.8696198e+001
8.2147789e+001
8.5465111e+001
8.8729515e+001
9.1898537e+001
9.4773758e+001
9.6951775e+001
9.7967934e+001
9.7834839e+001
9.6976456e+001
9.5648254e+001
9.3853104e+001
9.1482430e+001
8.8420387e+001
8.4795090e+001
8.0937386e+001
7.7048515e+001
7.3155342e+001
6.9208038e+001
6.5135895e+001
6.0953106e+001
5.6758316e+001
5.2658859e+001
4.8753731e+001
4.5147194e+001
4.1933430e+001
3.9126019e+001
3.6661446e+001
3.4478748e+001
3.2543194e+001
3.0849005e+001
2.9412134e+001
2.8226500e+001
2.7255251e+001
2.6450600e+001
2.5766220e+001
2.5193419e+001
2.4761515e+001
2.4500931e+001
2.4435600e+001
2.4590845e+001
2.4991648e+001
2.5644829e+001
2.6525959e+001
2.7546379e+001
2.8570095e+001
2.9508801e+001
3.0341806e+001
3.1099176e+001
3.1880745e+001
3.2951172e+001
3.4665859e+001
3.7032970e+001
3.9663681e+001
4.2130531e+001
4.4121464e+001
4.5666000e+001
4.7108574e+001
4.8645943e+001
5.0205524e+001
5.1525799e+001
5.2239235e+001
5.2191402e+001
5.1518616e+001
5.0501286e+001
4.9479843e+001
4.8620239e+001
4.7861450e+001
4.7053978e+001
4.6009228e+001
4.4583996e+001
4.2728775e+001
4.0575985e+001
3.8409092e+001
3.6335361e+001
3.4212563e+001
3.1837675e+001
2.9049892e+001
2.5963646e+001
2.2975700e+001
2.0344101e+001
1.8072300e+001
1.6051714e+001
1.4114353e+001
1.2144591e+001
1.0112710e+001
8.0255108e+000
5.9238243e+000
3.9252501e+000
2.2213349e+000
9.5947635e-001
2.1491468e-001
6.5902352e-002
5.7274312e-001
1.5761452e+000
2.6765571e+000
3.6136627e+000
4.3798928e+000
5.0553536e+000
5.7414303e+000
6.4268546e+000
6.9547491e+000
7.1782403e+000
7.0302205e+000
6.5951533e+000
6.1100221e+000
5.7074895e+000
5.3444715e+000
4.9815073e+000
4.6331320e+000
4.3159275e+000
4.0277324e+000
3.7302659e+000
3.3521185e+000
2.8691370e+000
2.3349915e+000
1.8356839e+000
1.4688650e+000
1.2832829e+000
1.2537487e+000
1.3265340e+000
1.4362024e+000
1.5469342e+000
1.6694781e+000
1.8321937e+000
2.0699086e+000
2.3987150e+000
2.8048813e+000
3.2649591e+000
3.7499218e+000
4.2223239e+000
4.6357818e+000
4.9498644e+000
5.1396165e+000
5.2064414e+000
5.1835876e+000
5.0999775e+000
4.9678302e+000
4.7960424e+000
4.5943394e+000
4.3768120e+000
4.1609755e+000
3.9495370e+000
3.7241645e+000
3.4745460e+000
3.2094181e+000
2.9414582e+000
2.6788487e+000
2.4047103e+000
2.0712540e+000
1.6572378e+000
1.1961129e+000
7.4805140e-001
3.8839579e-001
1.5110226e-001
1.9051805e-003
-9.4331570e-002
-1.4743786e-001
-1.4752319e-001
-6.8765938e-002
7.9134390e-002
2.2600651e-001
3.0421969e-001
2.7927029e-001
1.6524456e-001
3.9473809e-002
-3.1514853e-002
-2.3941459e-002
6.8090402e-002
2.3582409e-001
4.6164691e-001
7.1764779e-001
9.6754497e-001
1.1681094e+000
1.2937857e+000
1.3526804e+000
1.3671941e+000
1.3690429e+000
1.3814611e+000
1.4087750e+000
1.4479240e+000
1.4907452e+000
1.5319428e+000
1.5731095e+000
1.6198552e+000
1.6813575e+000
1.7636160e+000
1.8656914e+000
1.9846069e+000
2.1164069e+000
2.2579217e+000
2.4080477e+000
2.5664041e+000
2.7338929e+000
2.9156113e+000
3.1236053e+000
3.3720272e+000
3.6747680e+000
4.0398293e+000
4.4639597e+000
4.9385819e+000
5.4513168e+000
5.9948397e+000
6.5734067e+000
7.1936860e+000
7.8610897e+000
8.5743599e+000
9.3193750e+000
1.0075677e+001
1.0816708e+001
1.1512748e+001
1.2128670e+001
1.2638486e+001
1.3030911e+001
1.3306800e+001
1.3479095e+001
1.3557897e+001
1.3543021e+001
1.3429315e+001
1.3208047e+001
1.2872411e+001
1.2421260e+001
1.1865057e+001
1.1233587e+001
1.0559258e+001
9.8717003e+000
9.1887321e+000
8.5010004e+000
7.7984581e+000
7.0810862e+000
6.3581948e+000
5.6527886e+000
4.9859428e+000
4.3666916e+000
3.7990024e+000
3.2816210e+000
2.8119590e+000
2.3874485e+000
2.0061760e+000
1.6690530e+000
1.3814751e+000
1.1569226e+000
1.0055979e+000
9.2550290e-001
9.0378213e-001
9.1063970e-001
9.1673702e-001
9.0348798e-001
8.6151356e-001
7.9638088e-001
7.1762913e-001
6.3543326e-001
5.5759633e-001
4.8580357e-001
4.1734439e-001
3.4325659e-001
2.5674999e-001
1.6026393e-001
6.4719304e-002
-4.4926498e-003
-2.0280566e-002
3.9212145e-002
1.8434428e-001
4.0136510e-001
6.7171693e-001
9.7992516e-001
1.3189783e+000
1.7000186e+000
2.1348274e+000
2.6252675e+000
3.1625841e+000
3.7178717e+000
4.2618971e+000
4.7768168e+000
5.2529888e+000
5.6942191e+000
6.1049032e+000
6.4831948e+000
6.8318090e+000
7.1690173e+000
7.5166059e+000
7.8941054e+000
8.3112860e+000
8.7533445e+000
9.2007141e+000
9.6370258e+000
1.0050328e+001
1.0439350e+001
1.0807135e+001
1.1155375e+001
1.1485611e+001
1.1789880e+001
1.2061114e+001
1.2298192e+001
1.2500503e+001
1.2676388e+001
1.2827620e+001
1.2940015e+001
1.2998120e+001
1.2990818e+001
1.2915123e+001
1.2782172e+001
1.2594315e+001
1.2332387e+001
1.1968071e+001
1.1478900e+001
1.0861520e+001
1.0176264e+001
9.4960356e+000
8.8870564e+000
8.3932638e+000
7.9954419e+000
7.6556497e+000
7.3254437e+000
6.9606724e+000
6.5376649e+000
6.0510788e+000
5.5351791e+000
5.0366354e+000
4.6075478e+000
4.2826366e+000
4.0377097e+000
3.8323686e+000
3.6201129e+000
3.3696043e+000
3.0988748e+000
2.8339920e+000
2.5884035e+000
2.3612397e+000
2.1186321e+000
1.8277395e+000
1.4864633e+000
1.1052257e+000
7.1079189e-001
3.2909045e-001
-2.8914690e-002
-3.5160041e-001
-6.1332184e-001
-7.8733742e-001
-8.5534972e-001
-8.1636518e-001
-7.1895707e-001
-6.1488575e-001
-5.2543008e-001
-4.5082647e-001
-3.4662235e-001
-1.6877875e-001
8.7466687e-002
4.0515289e-001
7.2651184e-001
9.8844767e-001
1.1446780e+000
1.1660972e+000
1.0690820e+000
8.8336998e-001
6.4708877e-001
4.0326047e-001
2.0449167e-001
8.3840415e-002
-3.2543987e-003
-1.0185398e-001
-1.8990831e-001
-2.4086343e-001
-2.7217668e-001
-3.0679685e-001
-3.4750551e-001
-3.9030725e-001
-4.2478943e-001
-4.4324401e-001
-4.5403922e-001
-4.7110704e-001
-5.1412606e-001
-5.9962213e-001
-7.2670954e-001
-8.8597322e-001
-1.0521160e+000
-1.2034266e+000
-1.3463836e+000
-1.4980817e+000
-1.6873218e+000
-1.9253151e+000
-2.1401420e+000
-2.2393000e+000
