Image.
>Pix99999.
  .
5555
5555
2300
900
5555
2
1
0
701
5555
3.1240999e-003
3.1891072e-003
3.2541140e-003
3.3191210e-003
3.3841280e-003
3.4490358e-003
3.5140419e-003
3.5790489e-003
3.6440562e-003
3.7090629e-003
3.7740702e-003
3.8390770e-003
3.9039857e-003
3.9689913e-003
4.0339981e-003
4.0990049e-003
4.1640121e-003
4.2289216e-003
4.2939261e-003
4.3589328e-003
4.4239401e-003
4.4889469e-003
4.5539541e-003
4.6189614e-003
4.6838713e-003
4.7489712e-003
1.7647685e-004
7.4734730e-003
8.9585157e-003
8.3154282e-003
7.4057900e-003
-5.2576298e-003
-1.8815542e-002
-3.3388734e-002
-4.7251530e-002
-5.5036649e-002
-6.2507257e-002
-6.9918856e-002
-7.4143976e-002
-6.8647295e-002
-5.2941427e-002
-1.6123684e-002
2.0256380e-002
5.3888466e-002
7.3360056e-002
7.5386047e-002
7.7731192e-002
8.1448048e-002
9.0711847e-002
1.0405555e-001
1.0401643e-001
9.6107498e-002
8.5293412e-002
7.3440872e-002
8.5552976e-002
1.0547408e-001
1.4037479e-001
1.7860745e-001
2.1412432e-001
2.4899928e-001
2.6692516e-001
2.8086352e-001
2.6719460e-001
2.5044382e-001
2.3101297e-001
2.1540329e-001
2.1467835e-001
2.1578993e-001
2.1781406e-001
2.1952538e-001
2.2047299e-001
2.2715551e-001
2.4225429e-001
2.6176950e-001
2.8528604e-001
3.0194500e-001
3.1217098e-001
3.1263149e-001
3.0675763e-001
3.0025470e-001
2.9374516e-001
2.9331833e-001
2.9543471e-001
3.0057549e-001
3.0658919e-001
3.0751330e-001
3.0725053e-001
3.0129895e-001
2.9447988e-001
2.8783295e-001
2.8104684e-001
2.7291420e-001
2.6316166e-001
2.4703920e-001
2.2938626e-001
2.0995629e-001
1.9340526e-001
1.8383479e-001
1.8059461e-001
1.8627000e-001
1.9792286e-001
2.1572752e-001
2.3408906e-001
2.5210291e-001
2.6385176e-001
2.7043799e-001
2.6813784e-001
2.6042011e-001
2.4651195e-001
2.2973895e-001
2.1263185e-001
1.9553474e-001
1.8266439e-001
1.7118706e-001
1.6729063e-001
1.6518514e-001
1.5848440e-001
1.4998248e-001
1.3166031e-001
1.1247000e-001
9.9188596e-002
8.8317297e-002
8.2101241e-002
7.4304931e-002
6.0286488e-002
4.3439820e-002
2.3576319e-002
3.7431642e-003
-1.5356784e-002
-3.7114233e-002
-6.2470987e-002
-8.4546201e-002
-1.0275132e-001
-1.0401880e-001
-9.2359886e-002
-7.1673356e-002
-4.6482913e-002
-2.8032515e-002
-1.3383485e-002
-2.0963294e-002
-3.7786800e-002
-8.3495408e-002
-1.3877717e-001
-1.9422257e-001
-2.4873325e-001
-2.8869277e-001
-3.2426614e-001
-3.5457000e-001
-3.8116285e-001
-3.9681414e-001
-4.0557072e-001
-4.0138277e-001
-3.9570916e-001
-3.9458001e-001
-4.0327701e-001
-4.2805165e-001
-4.6372938e-001
-5.0924242e-001
-5.5682600e-001
-6.0384792e-001
-6.3902599e-001
-6.6314530e-001
-6.5977949e-001
-6.3694370e-001
-6.0858959e-001
-5.7903194e-001
-5.8926582e-001
-6.2082314e-001
-6.6205961e-001
-7.0641333e-001
-7.2615188e-001
-7.3697770e-001
-7.4705511e-001
-7.5778896e-001
-7.7314901e-001
-7.9215753e-001
-8.2323259e-001
-8.6073762e-001
-9.1027367e-001
-9.5883143e-001
-9.9577284e-001
-1.0217494e+000
-1.0320179e+000
-1.0339432e+000
-1.0289400e+000
-1.0154021e+000
-9.9270332e-001
-9.6429545e-001
-9.3279147e-001
-9.1591752e-001
-9.1380531e-001
-9.1953814e-001
-9.2869377e-001
-9.3619198e-001
-9.4193792e-001
-9.6729040e-001
-1.0037160e+000
-1.0365757e+000
-1.0674597e+000
-1.0525099e+000
-1.0181714e+000
-9.6528602e-001
-9.1017336e-001
-8.8978189e-001
-8.9173758e-001
-9.3398708e-001
-9.9229604e-001
-1.0540404e+000
-1.1078428e+000
-1.1396747e+000
-1.1471801e+000
-1.1224309e+000
-1.0723114e+000
-9.9917412e-001
-9.4384372e-001
-9.2147768e-001
-9.4617748e-001
-1.0121804e+000
-1.0807195e+000
-1.1413728e+000
-1.1891485e+000
-1.2275764e+000
-1.2492063e+000
-1.2600329e+000
-1.2372640e+000
-1.1950035e+000
-1.1573385e+000
-1.1234959e+000
-1.1246697e+000
-1.1415349e+000
-1.1469001e+000
-1.1387930e+000
-1.0833200e+000
-1.0018667e+000
-9.0473241e-001
-8.2220787e-001
-8.0077446e-001
-8.2707924e-001
-9.0108138e-001
-9.8358369e-001
-1.0466685e+000
-1.0810125e+000
-1.0832423e+000
-1.0650537e+000
-1.0354377e+000
-9.8946953e-001
-9.3011540e-001
-8.6544389e-001
-7.9842186e-001
-7.4049056e-001
-6.9003570e-001
-6.3057888e-001
-5.6478721e-001
-5.1119173e-001
-4.6709666e-001
-4.4629994e-001
-4.3790761e-001
-4.1382447e-001
-3.7537625e-001
-2.9642260e-001
-1.8625885e-001
-3.4640178e-002
1.2383571e-001
2.3316169e-001
2.8221008e-001
2.3992987e-001
1.6469079e-001
1.0936859e-001
3.5061292e-002
-8.3078325e-002
-1.8517858e-001
-2.4042305e-001
-2.2138846e-001
-1.3051084e-001
-2.0307191e-002
8.6192146e-002
9.9737488e-002
2.3859009e-002
-7.4050158e-002
-1.7429002e-001
-1.8201600e-001
-1.1711287e-001
-4.9266189e-002
1.0978647e-002
-3.0429658e-002
-1.3507348e-001
-1.9359894e-001
-1.8439990e-001
4.7616586e-002
4.9977809e-001
1.2053813e+000
2.0201161e+000
2.7473011e+000
3.4128823e+000
4.0486178e+000
4.8351269e+000
5.9397058e+000
7.6131048e+000
9.9763470e+000
1.3193929e+001
1.7219856e+001
2.1314091e+001
2.5136301e+001
2.8585573e+001
3.1712692e+001
3.5427620e+001
3.9816113e+001
4.5053341e+001
5.0955959e+001
5.6084904e+001
6.0487488e+001
6.4677757e+001
6.8794479e+001
7.3642189e+001
7.9028442e+001
8.4333153e+001
8.9434372e+001
9.3913322e+001
9.7755493e+001
1.0087868e+002
1.0324000e+002
1.0478474e+002
1.0539880e+002
1.0500990e+002
1.0346200e+002
1.0070982e+002
9.7307152e+001
9.3765053e+001
9.0084419e+001
8.6289856e+001
8.1918198e+001
7.6843628e+001
7.1668015e+001
6.6609596e+001
6.1955872e+001
5.7717426e+001
5.3528839e+001
4.9326851e+001
4.5285175e+001
4.1411827e+001
3.7830456e+001
3.4560551e+001
3.1729330e+001
2.9344349e+001
2.7359669e+001
2.5750914e+001
2.4377626e+001
2.3252493e+001
2.2358887e+001
2.1706188e+001
2.1271000e+001
2.1038231e+001
2.0957499e+001
2.1001623e+001
2.1126568e+001
2.1336157e+001
2.1624748e+001
2.2018791e+001
2.2526249e+001
2.3199612e+001
2.4051628e+001
2.5045776e+001
2.6160975e+001
2.7316641e+001
2.8492920e+001
2.9717136e+001
3.0998991e+001
3.2507450e+001
3.4334255e+001
3.7030045e+001
4.0641254e+001
4.4516338e+001
4.8432838e+001
5.1452274e+001
5.3613510e+001
5.5452538e+001
5.6948521e+001
5.8172424e+001
5.8902199e+001
5.8871338e+001
5.8142315e+001
5.6918251e+001
5.5415302e+001
5.3896942e+001
5.2323009e+001
5.0663601e+001
4.8817917e+001
4.6720016e+001
4.4369286e+001
4.1745983e+001
3.9203972e+001
3.6867859e+001
3.4688198e+001
3.2682926e+001
3.0248199e+001
2.7237709e+001
2.4185411e+001
2.1148743e+001
1.8612751e+001
1.6636761e+001
1.4708429e+001
1.2815449e+001
1.0869317e+001
8.8763103e+000
6.8815861e+000
4.9518294e+000
3.2101600e+000
1.7653799e+000
7.3252934e-001
1.4707570e-001
3.4339495e-002
4.5444623e-001
1.3511422e+000
2.4077220e+000
3.4170170e+000
4.2591081e+000
4.8381085e+000
5.3370023e+000
5.8216648e+000
6.3130589e+000
6.8181200e+000
7.1874924e+000
7.3370733e+000
7.3399925e+000
7.1378279e+000
6.9034319e+000
6.6285095e+000
6.3639269e+000
6.1076403e+000
5.8270378e+000
5.4925327e+000
5.0420384e+000
4.4709549e+000
3.8583622e+000
3.2550480e+000
2.7814722e+000
2.4665856e+000
2.3262386e+000
2.3368647e+000
2.4527383e+000
2.6203315e+000
2.7839260e+000
2.9508324e+000
3.1328824e+000
3.3518178e+000
3.6363320e+000
3.9641802e+000
4.3439317e+000
4.7430239e+000
5.1623678e+000
5.5647140e+000
5.9274631e+000
6.2107997e+000
6.3486376e+000
6.3664799e+000
6.1930652e+000
5.9088798e+000
5.4784517e+000
5.0158072e+000
4.5251808e+000
4.0597401e+000
3.6304827e+000
3.2354460e+000
2.8766747e+000
2.5434246e+000
2.2125115e+000
1.8428600e+000
1.4371072e+000
9.9401867e-001
5.7674640e-001
2.6591095e-001
5.8591209e-002
6.4477897e-003
3.9595284e-002
1.7003782e-001
3.3940750e-001
5.5555159e-001
7.8910333e-001
1.0499295e+000
1.3055397e+000
1.5452657e+000
1.7577325e+000
1.9177057e+000
2.0708611e+000
2.2188787e+000
2.3963799e+000
2.6251068e+000
2.9024401e+000
3.2434165e+000
3.6149538e+000
4.0047598e+000
4.3540783e+000
4.6434593e+000
4.8461127e+000
4.9730558e+000
5.0477471e+000
5.0880437e+000
5.1102500e+000
5.1160231e+000
5.0959315e+000
5.0592427e+000
4.9989510e+000
4.9352832e+000
4.8766336e+000
4.8251882e+000
4.7903676e+000
4.7609897e+000
4.7424645e+000
4.7273607e+000
4.7202268e+000
4.7193942e+000
4.7325602e+000
4.7574902e+000
4.8037586e+000
4.8626084e+000
4.9396505e+000
5.0248823e+000
5.1197987e+000
5.2194662e+000
5.3243222e+000
5.4326940e+000
5.5438886e+000
5.6556306e+000
5.7644844e+000
5.8621821e+000
5.9446249e+000
5.9928246e+000
6.0127282e+000
5.9806743e+000
5.9175806e+000
5.7997661e+000
5.6515656e+000
5.4379802e+000
5.1937470e+000
4.8713408e+000
4.5235438e+000
4.1082191e+000
3.6748369e+000
3.1995327e+000
2.7250030e+000
2.2560086e+000
1.8137747e+000
1.4205471e+000
1.0632055e+000
7.5921178e-001
4.8683834e-001
2.5364578e-001
4.4895336e-002
-1.3659166e-001
-2.9267368e-001
-4.2215073e-001
-5.1532048e-001
-5.8021331e-001
-6.1271095e-001
-6.2465715e-001
-6.1044127e-001
-5.7529747e-001
-4.8944870e-001
-3.6965400e-001
-1.5819642e-001
8.6590797e-002
4.1572860e-001
7.4403346e-001
1.0477432e+000
1.3114994e+000
1.4503814e+000
1.5454857e+000
1.5320420e+000
1.4918891e+000
1.3979746e+000
1.2889928e+000
1.1558529e+000
1.0176351e+000
8.7253493e-001
7.2406763e-001
5.7131034e-001
4.1409633e-001
2.5809702e-001
1.2906626e-001
2.9493622e-002
-8.5961316e-003
-4.1292459e-003
9.1499746e-002
2.3102295e-001
4.1803932e-001
6.1532831e-001
7.9870808e-001
9.6626002e-001
1.0631800e+000
1.1387242e+000
1.1353357e+000
1.1269940e+000
1.1045085e+000
1.0981716e+000
1.1440891e+000
1.2063400e+000
1.3058040e+000
1.3882425e+000
1.4342680e+000
1.4503580e+000
1.4214429e+000
1.3958169e+000
1.3776460e+000
1.3855451e+000
1.4195600e+000
1.4626129e+000
1.5099212e+000
1.5372992e+000
1.5460583e+000
1.5052099e+000
1.4345728e+000
1.3090422e+000
1.1659868e+000
1.0253627e+000
8.9131629e-001
8.0119956e-001
7.1944404e-001
6.5763557e-001
5.9789020e-001
5.4524833e-001
4.9474686e-001
4.5344955e-001
4.1066161e-001
3.6285141e-001
3.1028792e-001
2.4645214e-001
1.8273917e-001
1.1930050e-001
5.7293959e-002
-3.8552806e-003
-7.6442003e-002
-1.6264123e-001
-2.5691319e-001
-3.5622755e-001
-4.3552172e-001
-4.9877557e-001
-5.3812677e-001
-5.6632191e-001
-6.0767037e-001
-6.5745711e-001
-7.4300683e-001
-8.3826542e-001
-9.3478388e-001
-1.0283880e+000
-1.0868399e+000
-1.1398565e+000
-1.1646128e+000
-1.1867467e+000
-1.1922742e+000
-1.1909342e+000
-1.1591214e+000
-1.1145409e+000
-1.0308927e+000
-9.4615245e-001
-8.6039734e-001
-7.9654634e-001
-7.7176470e-001
-7.6933396e-001
-7.9633981e-001
-8.1991786e-001
-8.3832604e-001
-8.2781363e-001
-7.9352599e-001
-7.4419314e-001
-6.8639857e-001
-6.4203048e-001
-6.0388285e-001
-5.6946439e-001
-5.3545517e-001
-4.8362505e-001
-4.2741713e-001
-3.5714507e-001
-2.8511721e-001
-2.1112794e-001
-1.3583294e-001
-4.4564467e-002
1.7373934e-003
5.4384753e-002
1.6895317e-001
3.3888501e-001
5.1463801e-001
7.0699024e-001
8.8031030e-001
1.0125666e+000
1.1213366e+000
1.1926029e+000
1.2530540e+000
1.3005095e+000
1.3385006e+000
1.3675661e+000
1.3907700e+000
1.4094411e+000
1.4125429e+000
1.4073330e+000
1.3806026e+000
1.3461649e+000
1.3413178e+000
1.3447160e+000
1.4183434e+000
1.5034969e+000
1.6411999e+000
