##TITLE=Methyl Ethyl Ketone
##JCAMP-DX=4.24
##DATA TYPE=INFRARED SPECTRUM
##XUNITS=cm-1
##YUNITS=Absorbance
##FIRSTX=900
##LASTX=2300
##XYDATA=(X++(Y..Y))
2296 0.00063031999
2294 0.00064341124
2292 0.00065653247
2290 0.00066966366
2288 0.00068278488
2286 0.00069587637
2284 0.00070895773
2282 0.00072205882
2280 0.0007352095
2278 0.00074839027
2276 0.00076141371
2274 0.00077422836
2272 0.00078764942
2270 0.00080189481
2268 0.00081393961
2266 0.00082291866
2264 0.0008400146
2262 0.00086848129
2260 0.00086679298
2258 0.00082280551
2256 0.00089090114
2254 0.0011165832
2252 0.00092566933
2250 0.00014728625
2248 0.00091720454
2246 0.0053072525
2244 0.012557547
2242 0.019069711
2240 0.01301664
2238 -0.012558036
2236 -0.035631828
2234 -0.033081766
2232 -0.010722745
2230 0.0156117
2228 0.023531513
2226 -0.003853655
2224 -0.053913053
2222 -0.10779033
2220 -0.15652661
2218 -0.19542056
2216 -0.22490285
2214 -0.24404234
2212 -0.240336
2210 -0.20496497
2208 -0.15820257
2206 -0.12676494
2204 -0.12769695
2202 -0.16507436
2200 -0.2031536
2198 -0.20307229
2196 -0.16318285
2194 -0.1006408
2192 -0.060943451
2190 -0.087466128
2188 -0.17950705
2186 -0.31609216
2184 -0.45138282
2182 -0.54010326
2180 -0.57069063
2178 -0.54850864
2176 -0.50270426
2174 -0.46492645
2172 -0.44624305
2170 -0.44822532
2168 -0.46211681
2166 -0.47812128
2164 -0.49572358
2162 -0.51742995
2160 -0.54518211
2158 -0.57976043
2156 -0.61840296
2154 -0.65668935
2152 -0.68819302
2150 -0.70710671
2148 -0.7128033
2146 -0.70876002
2144 -0.70771188
2142 -0.72362548
2140 -0.76231575
2138 -0.82360846
2136 -0.89504319
2134 -0.96187854
2132 -1.0175321
2130 -1.0591571
2128 -1.086076
2126 -1.0970072
2124 -1.0854691
2122 -1.0479708
2120 -1.0020796
2118 -0.97191834
2116 -0.97536016
2114 -1.0224217
2112 -1.1011308
2110 -1.1942918
2108 -1.2955492
2106 -1.4037664
2104 -1.5191228
2102 -1.638816
2100 -1.74623
2098 -1.8224738
2096 -1.8610572
2094 -1.8639175
2092 -1.8482229
2090 -1.8349392
2088 -1.8364205
2086 -1.85876
2084 -1.8977309
2082 -1.9454254
2080 -1.9964544
2078 -2.0477962
2076 -2.1020727
2074 -2.1637101
2072 -2.2353561
2070 -2.3180432
2068 -2.4092195
2066 -2.5044451
2064 -2.5987897
2062 -2.6876915
2060 -2.7681661
2058 -2.8383548
2056 -2.8968971
2054 -2.9426634
2052 -2.9734027
2050 -2.9879441
2048 -2.9913166
2046 -2.9906964
2044 -2.9909921
2042 -2.9943743
2040 -2.9961624
2038 -2.99069
2036 -2.97857
2034 -2.9641509
2032 -2.9538538
2030 -2.952667
2028 -2.9563577
2026 -2.9567964
2024 -2.9481595
2022 -2.929934
2020 -2.919256
2018 -2.9366741
2016 -2.98452
2014 -3.0520785
2012 -3.1097646
2010 -3.1279614
2008 -3.1120079
2006 -3.0843279
2004 -3.0692778
2002 -3.084991
2000 -3.1230776
1998 -3.1628561
1996 -3.18385
1994 -3.1722417
1992 -3.1400738
1990 -3.1113577
1988 -3.108932
1986 -3.1491401
1984 -3.2249582
1982 -3.3164947
1980 -3.3971426
1978 -3.441318
1976 -3.4388628
1974 -3.391448
1972 -3.3190968
1970 -3.2476001
1968 -3.1921721
1966 -3.158953
1964 -3.1398129
1962 -3.1224988
1960 -3.104012
1958 -3.0873628
1956 -3.0786543
1954 -3.0816343
1952 -3.0857401
1950 -3.0751565
1948 -3.0438976
1946 -2.995275
1944 -2.9479651
1942 -2.9236493
1940 -2.9230285
1938 -2.9337525
1936 -2.9372973
1934 -2.9165659
1932 -2.871264
1930 -2.8110747
1928 -2.7490919
1926 -2.6981742
1924 -2.664993
1922 -2.6514907
1920 -2.6542737
1918 -2.6661739
1916 -2.6754372
1914 -2.6697197
1912 -2.6451011
1910 -2.6044519
1908 -2.5602942
1906 -2.5272508
1904 -2.508544
1902 -2.4980767
1900 -2.4788907
1898 -2.4329357
1896 -2.3617284
1894 -2.2803328
1892 -2.2114666
1890 -2.1761601
1888 -2.172672
1886 -2.1850607
1884 -2.1934814
1882 -2.1789014
1880 -2.1314046
1878 -2.0472136
1876 -1.92651
1874 -1.7746696
1872 -1.6138903
1870 -1.4772313
1868 -1.4027666
1866 -1.420365
1864 -1.5136771
1862 -1.639573
1860 -1.7596546
1858 -1.8468297
1856 -1.899823
1854 -1.9287964
1852 -1.9285251
1850 -1.8853046
1848 -1.798156
1846 -1.6786357
1844 -1.5552304
1842 -1.4610293
1840 -1.405808
1838 -1.3805287
1836 -1.3611686
1834 -1.320163
1832 -1.2476081
1830 -1.1511508
1828 -1.0618119
1826 -1.0177257
1824 -1.0278274
1822 -1.0767534
1820 -1.131914
1818 -1.1568809
1816 -1.1376972
1814 -1.0786542
1812 -0.9966827
1810 -0.91263497
1808 -0.83645922
1806 -0.77009249
1804 -0.71489853
1802 -0.6708566
1800 -0.62917775
1798 -0.57560104
1796 -0.49816716
1794 -0.39476082
1792 -0.29755521
1790 -0.25285327
1788 -0.26640174
1786 -0.31196371
1784 -0.35720423
1782 -0.37335509
1780 -0.34974369
1778 -0.2871975
1776 -0.18145429
1774 -0.029722091
1772 0.14039661
1770 0.27970141
1768 0.34130263
1766 0.2982032
1764 0.1942208
1762 0.10687845
1760 0.038798116
1758 -0.05337147
1756 -0.14582312
1754 -0.16940387
1752 -0.10785041
1750 0.0038450509
1748 0.10780512
1746 0.14441143
1744 0.094445899
1742 -0.022564691
1740 -0.15274885
1738 -0.23312335
1736 -0.25682998
1734 -0.26294655
1732 -0.29441214
1730 -0.37909263
1728 -0.49107102
1726 -0.56432426
1724 -0.53422725
1722 -0.34838408
1720 0.021080002
1718 0.57025647
1716 1.2300099
1714 1.8908372
1712 2.4782634
1710 2.9766595
1708 3.4836421
1706 4.1813574
1704 5.25564
1702 6.878118
1700 9.2002831
1698 12.286026
1696 15.849999
1694 19.369419
1692 22.518677
1690 25.243782
1688 27.817724
1686 30.714472
1684 34.24081
1682 38.431953
1680 42.861801
1678 46.866158
1676 50.31863
1674 53.603302
1672 57.128849
1670 61.160393
1668 65.585281
1666 70.007553
1664 74.154739
1662 77.925339
1660 81.285736
1658 84.244293
1656 86.865799
1654 89.251907
1652 91.46846
1650 93.504524
1648 95.156151
1646 96.109749
1644 96.298737
1642 95.88871
1640 94.981232
1638 93.56237
1636 91.545959
1634 88.834946
1632 85.506996
1630 81.787827
1628 77.822884
1626 73.648849
1624 69.284882
1622 64.769386
1620 60.208965
1618 55.764549
1616 51.558769
1614 47.664505
1612 44.139874
1610 41.025391
1608 38.301125
1606 35.895279
1604 33.752941
1602 31.850832
1600 30.185076
1598 28.76214
1596 27.5725
1594 26.588272
1592 25.782068
1590 25.132467
1588 24.635881
1586 24.305235
1584 24.150057
1582 24.178251
1580 24.41642
1578 24.904926
1576 25.654428
1574 26.63245
1572 27.75839
1570 28.919605
1568 30.0618
1566 31.199965
1564 32.361938
1562 33.60561
1560 35.141075
1558 37.265453
1556 39.924442
1554 42.671379
1552 45.062
1550 46.807243
1548 47.964638
1546 48.904503
1544 49.846714
1542 50.752445
1540 51.450439
1538 51.706905
1536 51.429657
1534 50.71439
1532 49.746452
1530 48.744804
1528 47.805943
1526 46.875153
1524 45.870132
1522 44.716496
1520 43.368473
1518 41.82304
1516 40.14373
1514 38.436455
1512 36.688961
1510 34.743546
1508 32.437664
1506 29.680094
1504 26.614424
1502 23.616686
1500 20.927429
1498 18.554409
1496 16.401571
1494 14.319844
1492 12.22502
1490 10.126801
1488 8.0566034
1486 6.0567007
1484 4.2131119
1482 2.6510336
1480 1.4346395
1478 0.55843323
1476 0.095043853
1474 0.19414607
1472 0.80653119
1470 1.629868
1468 2.4285426
1466 3.1324344
1464 3.7560561
1462 4.3725066
1460 5.0373878
1458 5.7553015
1456 6.4584999
1454 7.0109491
1452 7.3276114
1450 7.4141984
1448 7.3154263
1446 7.0989609
1444 6.8196359
1442 6.5061359
1440 6.1672692
1438 5.7899265
1436 5.3419156
1434 4.7814884
1432 4.1181617
1430 3.4336705
1428 2.8197081
1426 2.3527186
1424 2.066252
1422 1.9376686
1420 1.9285026
1418 1.9975042
1416 2.1154001
1414 2.272681
1412 2.4734037
1410 2.7331011
1408 3.0606508
1406 3.450877
1404 3.8901665
1402 4.3574653
1400 4.8323159
1398 5.2967081
1396 5.7290502
1394 6.1011553
1392 6.380764
1390 6.5338774
1388 6.5397496
1386 6.40031
1384 6.1384721
1382 5.7994962
1380 5.4252038
1378 5.0431533
1376 4.6661229
1374 4.2901034
1372 3.9137061
1370 3.54356
1368 3.1797767
1366 2.8091536
1364 2.4106572
1362 1.9608672
1360 1.4656291
1358 0.9765808
1356 0.55240786
1354 0.24220026
1352 0.065373063
1350 -0.00083799451
1348 0.018651988
1346 0.11141804
1344 0.27296358
1342 0.50295258
1340 0.77793431
1338 1.0376294
1336 1.2257286
1334 1.3105458
1332 1.2944194
1330 1.224473
1328 1.1471171
1326 1.0911314
1324 1.0813555
1322 1.1399711
1320 1.2751532
1318 1.4708927
1316 1.69398
1314 1.8942207
1312 2.0325921
1310 2.0970006
1308 2.0933874
1306 2.0473478
1304 1.9876217
1302 1.9394771
1300 1.921351
1298 1.9406254
1296 1.9983286
1294 2.0892401
1292 2.2094526
1290 2.3593495
1288 2.538408
1286 2.7422957
1284 2.9610546
1282 3.1763527
1280 3.3721485
1278 3.5410922
1276 3.6860228
1274 3.824523
1272 3.9759035
1270 4.1552114
1268 4.3700652
1266 4.6169605
1264 4.8936725
1262 5.2048469
1260 5.5590878
1258 5.968874
1256 6.4422455
1254 6.9769006
1252 7.5644059
1250 8.1897182
1248 8.8363352
1246 9.4889755
1244 10.134144
1242 10.761263
1240 11.356846
1238 11.899211
1236 12.3615
1234 12.713357
1232 12.92508
1230 12.975199
1228 12.851528
1226 12.558943
1224 12.112846
1222 11.544273
1220 10.891545
1218 10.204519
1216 9.5299406
1214 8.9007664
1212 8.3344221
1210 7.8236623
1208 7.3562202
1206 6.9211864
1204 6.507544
1202 6.102448
1200 5.686697
1198 5.2303271
1196 4.711257
1194 4.1310668
1192 3.5076542
1190 2.880944
1188 2.2901783
1186 1.7608122
1184 1.3103497
1182 0.94597483
1180 0.67180395
1178 0.48952109
1176 0.39480799
1174 0.37070251
1172 0.3956382
1170 0.44499511
1168 0.49860275
1166 0.54773527
1164 0.58685571
1162 0.61143899
1160 0.61746466
1158 0.60185146
1156 0.56552458
1154 0.51735133
1152 0.46399486
1150 0.40270591
1148 0.32868281
1146 0.23867857
1144 0.13887233
1142 0.055435769
1140 0.010249591
1138 0.0045184866
1136 0.039204575
1134 0.12539691
1132 0.26867247
1130 0.45595309
1128 0.672104
1126 0.90774518
1124 1.1557775
1122 1.4108257
1120 1.6634359
1118 1.894568
1116 2.0916371
1114 2.2645864
1112 2.4335756
1110 2.6305373
1108 2.8811529
1106 3.18765
1104 3.539197
1102 3.9065802
1100 4.2605276
1098 4.5842605
1096 4.8732572
1094 5.1463594
1092 5.4288683
1090 5.7472172
1088 6.1201272
1086 6.5453997
1084 7.0076394
1082 7.4709806
1080 7.8934045
1078 8.2328081
1076 8.4602795
1074 8.5834265
1072 8.624649
1070 8.6218977
1068 8.6075907
1066 8.5879307
1064 8.5595398
1062 8.5100613
1060 8.4247541
1058 8.2886257
1056 8.0928488
1054 7.8452306
1052 7.5637317
1050 7.282053
1048 7.0276198
1046 6.7986217
1044 6.5828843
1042 6.359344
1040 6.114646
1038 5.8626819
1036 5.6212201
1034 5.3985548
1032 5.1914687
1030 4.971344
1028 4.7091713
1026 4.3945723
1024 4.0273271
1022 3.6239471
1020 3.2017865
1018 2.7683487
1016 2.3325114
1014 1.9142523
1012 1.5379409
1010 1.2324333
1008 1.0151416
1006 0.86360872
1004 0.74338728
1002 0.61274242
1000 0.44217548
998 0.24581508
996 0.046361357
994 -0.14049429
992 -0.3071512
990 -0.46605039
988 -0.62895602
986 -0.78956038
984 -0.93569213
982 -1.0506045
980 -1.119046
978 -1.134745
976 -1.0925857
974 -0.98541045
972 -0.81066573
970 -0.5845288
968 -0.33317241
966 -0.10085391
964 0.071657673
962 0.17117237
960 0.20039445
958 0.1929343
956 0.18295771
954 0.17987737
952 0.18163319
950 0.16797775
948 0.12238786
946 0.05787852
944 0.0051856022
942 0.031494871
940 0.1896053
938 0.44787151
936 0.74976629
934 1.0247653
932 1.2122529
930 1.3013587
928 1.2980634
926 1.2257257
924 1.1151301
922 1.0075141
920 0.9391647
918 0.91678894
916 0.93543029
914 0.97317016
912 1.0088645
910 1.040729
908 1.0737011
906 1.1206565
904 1.1987742
902 1.3344073
900 1.5459571
898 1.8106074
896 2.0954001
