Image.
>Pix99999.
  .
5555
5555
2300
900
5555
2
1
0
701
5555
1.1572000e-001
1.1812656e-001
1.2053312e-001
1.2293968e-001
1.2534623e-001
1.2776272e-001
1.3016935e-001
1.3257590e-001
1.3498247e-001
1.3738902e-001
1.3979557e-001
1.4221197e-001
1.4460886e-001
1.4700542e-001
1.4942160e-001
1.5188707e-001
1.5424606e-001
1.5643682e-001
1.5905237e-001
1.6225260e-001
1.6389428e-001
1.6334830e-001
1.6858934e-001
1.8200018e-001
1.7388412e-001
1.2052500e-001
5.8017470e-002
2.6296899e-002
1.3231280e-002
-2.5664424e-003
-1.9988520e-002
-2.6479021e-002
1.0298463e-002
1.1304442e-001
2.4283889e-001
3.4851351e-001
4.0181360e-001
3.8972980e-001
3.3307502e-001
2.5869918e-001
1.7791171e-001
9.8596826e-002
3.4299541e-002
-6.0559320e-004
4.5293672e-003
5.4353043e-002
1.3387513e-001
2.2229159e-001
2.9956153e-001
3.4850141e-001
3.6214358e-001
3.4004885e-001
2.9535240e-001
2.4400426e-001
1.9617967e-001
1.5865672e-001
1.3212600e-001
1.1799997e-001
1.2832092e-001
1.7443977e-001
2.5060830e-001
3.4289473e-001
4.2682707e-001
4.8014501e-001
5.0313401e-001
5.0517142e-001
5.0175732e-001
5.0898695e-001
5.3751671e-001
5.9254849e-001
6.6465098e-001
7.3671812e-001
7.8047985e-001
7.7241558e-001
7.2387010e-001
6.6114825e-001
6.2216294e-001
6.3580966e-001
6.7851663e-001
7.0971745e-001
6.9513088e-001
6.1666530e-001
5.1115721e-001
4.2870611e-001
3.9319280e-001
4.1110229e-001
4.5877796e-001
5.0684661e-001
5.4631764e-001
5.7533556e-001
5.8919513e-001
5.8245498e-001
5.5211419e-001
4.9958357e-001
4.4052684e-001
3.9372084e-001
3.6869028e-001
3.6636913e-001
3.6743462e-001
3.4821203e-001
2.9866570e-001
2.1969323e-001
1.3448480e-001
6.9737762e-002
3.1471021e-002
1.4322500e-002
7.0114841e-004
-2.6762638e-002
-6.5815084e-002
-1.0590567e-001
-1.3528486e-001
-1.4545634e-001
-1.4199041e-001
-1.3547641e-001
-1.3355285e-001
-1.4096157e-001
-1.5638258e-001
-1.7682323e-001
-2.0236129e-001
-2.3338830e-001
-2.6584971e-001
-2.9263967e-001
-3.0191696e-001
-2.8325605e-001
-2.4028698e-001
-1.8492143e-001
-1.3849699e-001
-1.2235610e-001
-1.4212891e-001
-1.9256659e-001
-2.5213429e-001
-2.9456747e-001
-3.0217195e-001
-2.6790980e-001
-2.1235451e-001
-1.6660465e-001
-1.5568502e-001
-1.9354920e-001
-2.6160884e-001
-3.2905856e-001
-3.7441602e-001
-3.8794822e-001
-3.8818213e-001
-4.0183091e-001
-4.3676838e-001
-4.8658636e-001
-5.2405614e-001
-5.1992887e-001
-4.7492337e-001
-4.0799901e-001
-3.5397857e-001
-3.4722435e-001
-3.9237267e-001
-4.7567874e-001
-5.6693000e-001
-6.3432705e-001
-6.6870618e-001
-6.7536932e-001
-6.7286545e-001
-6.8092149e-001
-7.0013660e-001
-7.2152263e-001
-7.3667735e-001
-7.4188495e-001
-7.4948269e-001
-7.7524936e-001
-8.1599128e-001
-8.5747153e-001
-8.8108003e-001
-8.7183607e-001
-8.3677512e-001
-7.9341918e-001
-7.5583547e-001
-7.3377937e-001
-7.2957283e-001
-7.4210250e-001
-7.7114999e-001
-8.1537288e-001
-8.6542958e-001
-9.0864497e-001
-9.3615055e-001
-9.4376045e-001
-9.3743098e-001
-9.2634392e-001
-9.1098446e-001
-8.8677251e-001
-8.4898627e-001
-7.9627103e-001
-7.4048376e-001
-6.9697589e-001
-6.6522044e-001
-6.3657737e-001
-6.0732341e-001
-5.7939357e-001
-5.6425273e-001
-5.7351774e-001
-5.9764558e-001
-6.1575580e-001
-6.1071771e-001
-5.7175088e-001
-5.0184572e-001
-4.1127956e-001
-3.0936325e-001
-2.0447800e-001
-1.0640488e-001
-2.5100205e-002
3.2619677e-002
6.3968137e-002
7.5563535e-002
8.0709770e-002
9.8846599e-002
1.4851314e-001
2.3061463e-001
3.2947069e-001
4.0352464e-001
4.0584993e-001
3.2932949e-001
1.9677469e-001
5.1661592e-002
-5.9634492e-002
-1.2205266e-001
-1.4072727e-001
-1.2145020e-001
-7.0712276e-002
-5.4942388e-003
5.0824322e-002
7.5891659e-002
5.5720963e-002
7.7073146e-003
-3.3071756e-002
-3.9567001e-002
3.0547101e-003
8.6966544e-002
1.8918696e-001
2.7967417e-001
3.2972023e-001
3.3013892e-001
2.8811252e-001
2.2644080e-001
1.7367643e-001
1.4522229e-001
1.4412865e-001
1.6081852e-001
1.8201280e-001
2.1027178e-001
2.5735250e-001
3.2546258e-001
4.0701362e-001
4.8483348e-001
5.3931123e-001
5.6472999e-001
5.6393248e-001
5.3290719e-001
4.6660888e-001
3.8204265e-001
3.0881143e-001
2.6178807e-001
2.4285781e-001
2.5003436e-001
2.8174990e-001
3.4368628e-001
4.3918043e-001
5.3698689e-001
5.8532029e-001
5.5298138e-001
4.3740499e-001
2.8546739e-001
1.6000389e-001
4.5609772e-002
-1.1640079e-001
-3.0452341e-001
-4.4006234e-001
-4.8617160e-001
-4.5400310e-001
-3.9383018e-001
-3.7179106e-001
-4.1961423e-001
-5.2863175e-001
-6.3592446e-001
-6.5632719e-001
-5.7039398e-001
-4.2148191e-001
-2.9176745e-001
-2.6586851e-001
-3.3946258e-001
-4.3396842e-001
-4.5443976e-001
-3.1835932e-001
-1.1538118e-002
4.2360482e-001
9.2788661e-001
1.4414340e+000
1.9256520e+000
2.3782821e+000
2.8867919e+000
3.6060901e+000
4.6879120e+000
6.2698030e+000
8.4847908e+000
1.1394632e+001
1.4733286e+001
1.8007490e+001
2.0904123e+001
2.3370190e+001
2.5688732e+001
2.8352329e+001
3.1687122e+001
3.5736023e+001
4.0033840e+001
4.3849918e+001
4.7046627e+001
5.0042812e+001
5.3261135e+001
5.6950706e+001
6.0949146e+001
6.4808395e+001
6.8303192e+001
7.1464386e+001
7.4385193e+001
7.7164261e+001
7.9867943e+001
8.2524452e+001
8.5128120e+001
8.7618958e+001
8.9777985e+001
9.1299103e+001
9.2099129e+001
9.2307411e+001
9.2025223e+001
9.1270599e+001
8.9975388e+001
8.8037025e+001
8.5502411e+001
8.2553040e+001
7.9311401e+001
7.5812347e+001
7.2048965e+001
6.8008377e+001
6.3768665e+001
5.9495667e+001
5.5350571e+001
5.1463940e+001
4.7927670e+001
4.4789089e+001
4.2022156e+001
3.9544651e+001
3.7308369e+001
3.5311447e+001
3.3571907e+001
3.2107101e+001
3.0884499e+001
2.9826923e+001
2.8875097e+001
2.8007053e+001
2.7249426e+001
2.6667400e+001
2.6303635e+001
2.6170139e+001
2.6273417e+001
2.6613573e+001
2.7160372e+001
2.7846403e+001
2.8587212e+001
2.9300852e+001
2.9966959e+001
3.0628557e+001
3.1322111e+001
3.2096123e+001
3.3160160e+001
3.4836487e+001
3.7163013e+001
3.9827858e+001
4.2401695e+001
4.4474751e+001
4.5985909e+001
4.7236179e+001
4.8481236e+001
4.9815693e+001
5.1173279e+001
5.2340820e+001
5.3064144e+001
5.3125412e+001
5.2554401e+001
5.1633633e+001
5.0572109e+001
4.9430000e+001
4.8223873e+001
4.6954136e+001
4.5610119e+001
4.4176903e+001
4.2667114e+001
4.1108776e+001
3.9449162e+001
3.7543755e+001
3.5257530e+001
3.2530136e+001
2.9516914e+001
2.6580090e+001
2.3940960e+001
2.1583250e+001
1.9395714e+001
1.7224733e+001
1.4979985e+001
1.2664080e+001
1.0309900e+001
7.9717369e+000
5.7589083e+000
3.8311708e+000
2.2813344e+000
1.1180792e+000
4.0309101e-001
2.5430870e-001
6.2383461e-001
1.2525048e+000
1.9243089e+000
2.5491278e+000
3.1261988e+000
3.7261853e+000
4.3822665e+000
5.0520358e+000
5.6434197e+000
6.0361438e+000
6.1886005e+000
6.1683006e+000
6.0463095e+000
5.8648500e+000
5.6468964e+000
5.3963757e+000
5.1053467e+000
4.7535915e+000
4.3087759e+000
3.7357719e+000
3.0522537e+000
2.3483059e+000
1.7242041e+000
1.2665614e+000
1.0244397e+000
9.9488086e-001
1.1423326e+000
1.4019384e+000
1.7069315e+000
2.0041270e+000
2.2835953e+000
2.5899644e+000
2.9654109e+000
3.4274743e+000
3.9659994e+000
4.5381961e+000
5.0935841e+000
5.5836368e+000
5.9759712e+000
6.2631569e+000
6.4525871e+000
6.5621538e+000
6.5936141e+000
6.5236897e+000
6.3370743e+000
6.0412550e+000
5.6641569e+000
5.2547083e+000
4.8516741e+000
4.4710712e+000
4.1215858e+000
3.8053136e+000
3.5068772e+000
3.1859844e+000
2.7962646e+000
2.2989426e+000
1.7067806e+000
1.1084085e+000
5.9794086e-001
2.4369627e-001
6.1388008e-002
-4.9517145e-003
-1.1814360e-002
1.2478007e-002
6.6399083e-002
1.7691088e-001
3.5147059e-001
5.5450648e-001
7.3376000e-001
8.3149064e-001
8.2408869e-001
7.4616200e-001
6.4693213e-001
5.7566530e-001
5.6697512e-001
6.2968564e-001
7.5807106e-001
9.3196023e-001
1.1289899e+000
1.3289243e+000
1.5141903e+000
1.6709682e+000
1.7901388e+000
1.8696994e+000
1.9119663e+000
1.9240210e+000
1.9148883e+000
1.8950976e+000
1.8768713e+000
1.8744054e+000
1.9012461e+000
1.9676770e+000
2.0765679e+000
2.2180750e+000
2.3737702e+000
2.5169165e+000
2.6294405e+000
2.7139728e+000
2.7862701e+000
2.8759489e+000
3.0093851e+000
3.2008076e+000
3.4577086e+000
3.7804501e+000
4.1670594e+000
4.6135859e+000
5.1143498e+000
5.6616321e+000
6.2487230e+000
6.8725958e+000
7.5316911e+000
8.2252045e+000
8.9486580e+000
9.6901493e+000
1.0432955e+001
1.1154517e+001
1.1832292e+001
1.2443357e+001
1.2965614e+001
1.3371394e+001
1.3636560e+001
1.3738366e+001
1.3670365e+001
1.3457164e+001
1.3124005e+001
1.2689640e+001
1.2166921e+001
1.1563430e+001
1.0895543e+001
1.0193047e+001
9.4886637e+000
8.8023214e+000
8.1481457e+000
7.5281949e+000
6.9376583e+000
6.3630366e+000
5.7868037e+000
5.1890354e+000
4.5597572e+000
3.9118366e+000
3.2692430e+000
2.6665690e+000
2.1325040e+000
1.6767793e+000
1.2999480e+000
9.9278837e-001
7.5071335e-001
5.8259779e-001
4.9744400e-001
4.9547333e-001
5.6084329e-001
6.4738309e-001
7.0661390e-001
7.0339149e-001
6.2635684e-001
5.1011848e-001
3.9848709e-001
3.2933143e-001
3.2177657e-001
3.5525349e-001
3.9766338e-001
4.1324064e-001
3.7614819e-001
2.8681964e-001
1.6407648e-001
5.3721137e-002
-2.1267098e-003
1.3956487e-002
1.0546343e-001
2.5670582e-001
4.4628245e-001
6.5188146e-001
8.6685109e-001
1.1210643e+000
1.4387429e+000
1.8080320e+000
2.1980600e+000
2.5546165e+000
2.8434801e+000
3.0928810e+000
3.3412023e+000
3.6146801e+000
3.9269345e+000
4.2684050e+000
4.6306634e+000
5.0216417e+000
5.4490933e+000
5.9096313e+000
6.3900857e+000
6.8610973e+000
7.2962899e+000
7.6881652e+000
8.0382347e+000
8.3590298e+000
8.6582203e+000
8.9244986e+000
9.1446791e+000
9.3135805e+000
9.4363909e+000
9.5395947e+000
9.6508188e+000
9.7856359e+000
9.9462357e+000
1.0106393e+001
1.0233880e+001
1.0297933e+001
1.0280277e+001
1.0191147e+001
1.0050571e+001
9.8788500e+000
9.6887875e+000
9.4711256e+000
9.2145338e+000
8.9174147e+000
8.5841293e+000
8.2281008e+000
7.8612227e+000
7.4835138e+000
7.0936499e+000
6.6928549e+000
6.2834015e+000
5.8668385e+000
5.4492993e+000
5.0487571e+000
4.6800680e+000
4.3405490e+000
4.0154819e+000
3.6694360e+000
3.2765741e+000
2.8572624e+000
2.4461086e+000
2.0857022e+000
1.8128080e+000
1.6381249e+000
1.5548540e+000
1.5206409e+000
1.4824172e+000
1.3806756e+000
1.1719543e+000
8.6925936e-001
5.1066184e-001
1.7004243e-001
-8.2535237e-002
-2.1851407e-001
-2.3330829e-001
-1.6672280e-001
-6.2931985e-002
5.5666387e-002
1.7708287e-001
3.0561975e-001
4.4334441e-001
5.7155216e-001
6.6995430e-001
7.3051250e-001
7.5540835e-001
7.7089095e-001
8.0137938e-001
8.4431106e-001
8.8358730e-001
8.7980551e-001
7.9769599e-001
6.3700747e-001
4.1892084e-001
2.0901585e-001
6.7980491e-002
-2.0189094e-005
2.2748560e-003
9.7101450e-002
2.9031998e-001
5.0589859e-001
6.5316182e-001
6.6290146e-001
4.9696463e-001
2.1249539e-001
-1.0249496e-001
-3.3409199e-001
-3.9358827e-001
-3.1187993e-001
-1.5367822e-001
1.4714450e-003
9.0787068e-002
1.3039650e-001
1.5514877e-001
1.9605049e-001
2.7455389e-001
3.7834063e-001
4.8323578e-001
5.5154663e-001
5.4220998e-001
