Image.
>Pix99999.
  .
5555
5555
2300
900
5555
2
1
0
701
5555
1.1072000e-002
1.1302670e-002
1.1532342e-002
1.1763010e-002
1.1993680e-002
1.2223357e-002
1.2454020e-002
1.2684691e-002
1.2914372e-002
1.3145030e-002
1.3375700e-002
1.3605385e-002
1.3836040e-002
1.4066710e-002
1.4296400e-002
1.4527050e-002
1.4757721e-002
1.4987414e-002
1.5218060e-002
1.5448730e-002
1.5678428e-002
1.5909068e-002
1.6139740e-002
1.6369443e-002
1.6600080e-002
1.6830750e-002
6.2544853e-004
1.6477926e-002
4.3817401e-002
7.9165339e-002
1.1566207e-001
1.0493951e-001
9.0708442e-002
7.4475743e-002
6.2453408e-002
8.4904149e-002
1.0860094e-001
1.3006991e-001
1.4847820e-001
1.5796858e-001
1.6813429e-001
1.8085502e-001
1.8483420e-001
1.7424643e-001
1.4969909e-001
1.0885614e-001
7.6115236e-002
5.2175939e-002
4.7877777e-002
5.7812139e-002
6.7753933e-002
7.7163085e-002
7.8736611e-002
7.6900274e-002
6.3339502e-002
4.6039633e-002
1.4370198e-003
-4.9401503e-002
-1.0525142e-001
-1.6140147e-001
-1.8377657e-001
-2.0085728e-001
-1.9314280e-001
-1.8355949e-001
-1.7672160e-001
-1.7082228e-001
-1.6732736e-001
-1.5712711e-001
-1.2912971e-001
-9.4886430e-002
-5.2270301e-002
-2.8110588e-002
-3.1941481e-002
-6.6779837e-002
-1.3325216e-001
-1.9937214e-001
-2.6224124e-001
-2.9541960e-001
-3.0816108e-001
-3.0997986e-001
-3.0701315e-001
-3.3169836e-001
-3.6830786e-001
-4.3416557e-001
-5.0902838e-001
-5.7542801e-001
-6.3966256e-001
-6.6702592e-001
-6.8661124e-001
-6.6994935e-001
-6.4623827e-001
-6.0863709e-001
-5.7320160e-001
-5.5646265e-001
-5.5409789e-001
-5.8682829e-001
-6.3197339e-001
-6.9300485e-001
-7.4879897e-001
-7.9178882e-001
-8.2324713e-001
-8.4195590e-001
-8.5442787e-001
-8.6235738e-001
-8.7026697e-001
-8.7886351e-001
-9.0276742e-001
-9.3677187e-001
-9.7581404e-001
-1.0166924e+000
-1.0323715e+000
-1.0373815e+000
-1.0294319e+000
-1.0175694e+000
-1.0170231e+000
-1.0193057e+000
-1.0299617e+000
-1.0425773e+000
-1.0616611e+000
-1.0819490e+000
-1.1017228e+000
-1.1183343e+000
-1.1229991e+000
-1.1262025e+000
-1.1308321e+000
-1.1445143e+000
-1.1748520e+000
-1.2058665e+000
-1.2337898e+000
-1.2431233e+000
-1.2315600e+000
-1.2115487e+000
-1.1869897e+000
-1.1714270e+000
-1.1630783e+000
-1.1504807e+000
-1.1340222e+000
-1.1039172e+000
-1.0667309e+000
-1.0495027e+000
-1.0413400e+000
-1.0671313e+000
-1.1046103e+000
-1.1364306e+000
-1.1660314e+000
-1.1836756e+000
-1.1987298e+000
-1.2156460e+000
-1.2301823e+000
-1.2298727e+000
-1.2231072e+000
-1.2063633e+000
-1.1919446e+000
-1.1908191e+000
-1.1908320e+000
-1.1903107e+000
-1.1800971e+000
-1.1562557e+000
-1.1310751e+000
-1.1064878e+000
-1.0848544e+000
-1.0650080e+000
-1.0384420e+000
-1.0059166e+000
-9.8577797e-001
-9.7430837e-001
-9.8872811e-001
-1.0169070e+000
-1.0336760e+000
-1.0449685e+000
-1.0430571e+000
-1.0372925e+000
-1.0417835e+000
-1.0505511e+000
-1.0565572e+000
-1.0601250e+000
-1.0573069e+000
-1.0500481e+000
-1.0441222e+000
-1.0403439e+000
-1.0436599e+000
-1.0499934e+000
-1.0547340e+000
-1.0566863e+000
-1.0513977e+000
-1.0463099e+000
-1.0418956e+000
-1.0341042e+000
-1.0243857e+000
-1.0100200e+000
-9.9540526e-001
-9.8080826e-001
-9.6600038e-001
-9.5051521e-001
-9.3359226e-001
-9.3406528e-001
-9.4479322e-001
-9.5487428e-001
-9.6510172e-001
-9.2871428e-001
-8.7337714e-001
-8.0377197e-001
-7.3439318e-001
-7.0893109e-001
-7.0789260e-001
-7.4509877e-001
-7.9793102e-001
-8.5617888e-001
-9.1594434e-001
-9.7199303e-001
-1.0172830e+000
-1.0392007e+000
-1.0268475e+000
-9.7115308e-001
-8.9654332e-001
-8.2205266e-001
-7.8452897e-001
-7.9222888e-001
-8.3249575e-001
-8.8897735e-001
-9.5186257e-001
-1.0139751e+000
-1.0711304e+000
-1.1222944e+000
-1.1511240e+000
-1.1642214e+000
-1.1534154e+000
-1.1284556e+000
-1.1019663e+000
-1.0762421e+000
-1.0433257e+000
-1.0042521e+000
-9.3203557e-001
-8.3743328e-001
-7.2124618e-001
-6.0946691e-001
-5.4839486e-001
-5.3863347e-001
-5.9249002e-001
-6.7289841e-001
-7.4909800e-001
-8.0578530e-001
-8.3322620e-001
-8.3506024e-001
-8.1939071e-001
-7.7711451e-001
-7.1315187e-001
-6.5377718e-001
-6.0095268e-001
-5.7861871e-001
-5.7866073e-001
-5.5316657e-001
-5.1056999e-001
-4.3535104e-001
-3.4554693e-001
-2.7087188e-001
-2.0883296e-001
-1.5760393e-001
-1.1496186e-001
-7.6435387e-002
-3.8017400e-002
1.0593453e-002
6.5040752e-002
1.0461910e-001
1.2419977e-001
1.0344420e-001
6.2951982e-002
2.9593611e-002
1.7575195e-002
-6.2223982e-002
-1.6161071e-001
-2.1671660e-001
-2.1998446e-001
-1.7460850e-001
-1.3460192e-001
-1.1934178e-001
-1.6336051e-001
-2.6497415e-001
-3.5034487e-001
-4.0932906e-001
-3.6245599e-001
-2.3235282e-001
-9.5288992e-002
3.3836186e-002
4.0217284e-002
-3.8598660e-002
-9.9056996e-002
-1.2083440e-001
1.4958173e-002
3.0337918e-001
8.1314003e-001
1.4523182e+000
2.0638430e+000
2.6404958e+000
3.1869562e+000
3.8563421e+000
4.8013439e+000
6.2848587e+000
8.4377527e+000
1.1464226e+001
1.5322571e+001
1.9268570e+001
2.2957817e+001
2.6267204e+001
2.9251492e+001
3.2801796e+001
3.7004860e+001
4.2088474e+001
4.7864960e+001
5.2936111e+001
5.7333698e+001
6.1520645e+001
6.5641464e+001
7.0548477e+001
7.6060501e+001
8.1639046e+001
8.7128700e+001
9.2048859e+001
9.6360710e+001
9.9936348e+001
1.0274429e+002
1.0474380e+002
1.0581180e+002
1.0586149e+002
1.0474834e+002
1.0242107e+002
9.9402496e+001
9.6195366e+001
9.2744858e+001
8.9065735e+001
8.4762390e+001
7.9742516e+001
7.4660927e+001
6.9744766e+001
6.5174370e+001
6.0949036e+001
5.6667679e+001
5.2276733e+001
4.8035683e+001
4.3961716e+001
4.0195484e+001
3.6752823e+001
3.3737087e+001
3.1157410e+001
2.8987652e+001
2.7212294e+001
2.5709032e+001
2.4486601e+001
2.3513189e+001
2.2784569e+001
2.2255501e+001
2.1920874e+001
2.1743767e+001
2.1716333e+001
2.1810143e+001
2.2001329e+001
2.2263498e+001
2.2578110e+001
2.2933725e+001
2.3399261e+001
2.3997885e+001
2.4775902e+001
2.5732546e+001
2.6787050e+001
2.7916800e+001
2.9075542e+001
3.0263754e+001
3.1661938e+001
3.3367344e+001
3.5968838e+001
3.9528759e+001
4.3401321e+001
4.7350834e+001
5.0387276e+001
5.2529881e+001
5.4304356e+001
5.5718582e+001
5.6908192e+001
5.7741478e+001
5.8037445e+001
5.7753258e+001
5.6935600e+001
5.5757690e+001
5.4474060e+001
5.3098392e+001
5.1646149e+001
4.9989994e+001
4.8039619e+001
4.5776985e+001
4.3155876e+001
4.0571186e+001
3.8158691e+001
3.5871441e+001
3.3737789e+001
3.1190109e+001
2.8093594e+001
2.5003622e+001
2.1976772e+001
1.9437849e+001
1.7437281e+001
1.5452857e+001
1.3473151e+001
1.1426168e+001
9.3241701e+000
7.2290068e+000
5.2186122e+000
3.4330101e+000
1.9605718e+000
8.9250404e-001
2.5039190e-001
4.7361147e-002
3.7690321e-001
1.1932743e+000
2.2048368e+000
3.2231066e+000
4.0833001e+000
4.6774912e+000
5.1661620e+000
5.6036072e+000
6.0515065e+000
6.5257998e+000
6.9226460e+000
7.1776381e+000
7.2900462e+000
7.1917949e+000
7.0274644e+000
6.7750630e+000
6.5059366e+000
6.2141089e+000
5.8882127e+000
5.5084286e+000
5.0295806e+000
4.4564085e+000
3.8656554e+000
3.2930601e+000
2.8347728e+000
2.5094006e+000
2.3255458e+000
2.2799509e+000
2.3470733e+000
2.4904771e+000
2.6717119e+000
2.8646832e+000
3.0686884e+000
3.2939639e+000
3.5607834e+000
3.8649600e+000
4.2135420e+000
4.5871916e+000
4.9903011e+000
5.3915501e+000
5.7766280e+000
6.0984788e+000
6.2930207e+000
6.3795300e+000
6.2899699e+000
6.0930667e+000
5.7473049e+000
5.3360682e+000
4.8522477e+000
4.3547945e+000
3.8637187e+000
3.4134018e+000
3.0106547e+000
2.6533046e+000
2.3041143e+000
1.9056954e+000
1.4676222e+000
9.9332052e-001
5.5538070e-001
2.4676958e-001
4.6669848e-002
1.5681188e-003
3.4280241e-002
1.4507920e-001
2.9271680e-001
4.9757439e-001
7.2868359e-001
1.0057567e+000
1.2806804e+000
1.5412686e+000
1.7724773e+000
1.9346795e+000
2.0863051e+000
2.2242343e+000
2.3850443e+000
2.5913744e+000
2.8351123e+000
3.1355867e+000
3.4710093e+000
3.8392799e+000
4.1980448e+000
4.5259261e+000
4.7905064e+000
4.9855709e+000
5.1112418e+000
5.1820264e+000
5.2038698e+000
5.1984105e+000
5.1698799e+000
5.1313572e+000
5.0812454e+000
5.0257144e+000
4.9604979e+000
4.9016042e+000
4.8618817e+000
4.8405538e+000
4.8615861e+000
4.8912382e+000
4.9381695e+000
4.9806156e+000
5.0166802e+000
5.0494499e+000
5.0810380e+000
5.1221704e+000
5.1789207e+000
5.2555919e+000
5.3563676e+000
5.4750519e+000
5.6103435e+000
5.7466288e+000
5.8785486e+000
5.9923897e+000
6.0905700e+000
6.1739850e+000
6.2472749e+000
6.3081441e+000
6.3552995e+000
6.3700762e+000
6.3605957e+000
6.3015885e+000
6.2078400e+000
6.0316482e+000
5.8077240e+000
5.4558811e+000
5.0659299e+000
4.5774422e+000
4.0821071e+000
3.5736172e+000
3.0886700e+000
2.6530771e+000
2.2477965e+000
1.8934255e+000
1.5533576e+000
1.2360189e+000
9.4015259e-001
6.7646861e-001
4.5686793e-001
2.8338289e-001
1.4168942e-001
2.6631780e-002
-7.2493650e-002
-1.5540400e-001
-2.0812449e-001
-2.3825131e-001
-2.2999936e-001
-1.9849314e-001
-1.2316673e-001
-1.5859887e-002
1.8215884e-001
4.1912600e-001
7.6416546e-001
1.1133060e+000
1.4507049e+000
1.7423228e+000
1.8901843e+000
1.9855806e+000
1.9519939e+000
1.8935926e+000
1.7861844e+000
1.6690115e+000
1.5344234e+000
1.3852166e+000
1.2138101e+000
1.0199825e+000
8.0152106e-001
5.7488215e-001
3.4988856e-001
1.7193441e-001
4.3118365e-002
1.1812104e-002
4.7016144e-002
1.7540269e-001
3.4400481e-001
5.3717452e-001
7.3015487e-001
8.8767284e-001
1.0311110e+000
1.1331440e+000
1.2242360e+000
1.2770300e+000
1.3246001e+000
1.3541377e+000
1.3921899e+000
1.4573123e+000
1.5274750e+000
1.6071976e+000
1.6642747e+000
1.6748720e+000
1.6581314e+000
1.6010286e+000
1.5499914e+000
1.5113480e+000
1.5103776e+000
1.5478725e+000
1.6021472e+000
1.6651537e+000
1.6977928e+000
1.7076852e+000
1.6816400e+000
1.6369615e+000
1.5727983e+000
1.5010434e+000
1.4216832e+000
1.3412471e+000
1.2669507e+000
1.1968720e+000
1.1528318e+000
1.1159704e+000
1.1165694e+000
1.1171914e+000
1.1170648e+000
1.1050066e+000
1.0547870e+000
9.9329251e-001
9.0474999e-001
8.1423670e-001
7.1997952e-001
6.2904668e-001
5.4289234e-001
4.5960999e-001
3.7998748e-001
3.0306035e-001
2.2921789e-001
1.5916382e-001
9.0961665e-002
1.3640236e-002
-7.0301272e-002
-1.7245945e-001
-2.8133199e-001
-3.8504231e-001
-4.8548055e-001
-5.6525278e-001
-6.4096040e-001
-7.1106440e-001
-7.7910173e-001
-8.2879096e-001
-8.7117648e-001
-8.6496401e-001
-8.5437328e-001
-8.2500285e-001
-8.0119616e-001
-7.9483581e-001
-7.8800827e-001
-7.7959818e-001
-7.6066351e-001
-7.2314036e-001
-6.8580824e-001
-6.4972323e-001
-6.3590235e-001
-6.4615089e-001
-6.7371827e-001
-7.1414340e-001
-7.3752713e-001
-7.4902022e-001
-7.3601198e-001
-7.1222264e-001
-6.9512510e-001
-6.8093598e-001
-6.7791009e-001
-6.7518884e-001
-6.2154257e-001
-5.5835563e-001
-4.1178879e-001
-2.6005536e-001
-8.4920779e-002
2.0773709e-003
6.4880490e-002
1.9674292e-001
3.7393379e-001
5.5551970e-001
7.4907595e-001
9.0071899e-001
9.6174991e-001
9.6237165e-001
8.6651963e-001
7.5903881e-001
6.3797408e-001
5.3415972e-001
4.4632825e-001
3.6751115e-001
2.9498452e-001
2.2936691e-001
1.6794550e-001
1.0759413e-001
4.8876472e-002
2.0053316e-002
1.5592575e-004
5.4160282e-002
1.2036639e-001
2.2269000e-001
