Image.
>Pix99999.
  .
5555
5555
2300
900
5555
2
1
0
701
5555
2.2340000e-002
2.2804335e-002
2.3269668e-002
2.3734007e-002
2.4198342e-002
2.4663672e-002
2.5128014e-002
2.5593340e-002
2.6057687e-002
2.6522022e-002
2.6987342e-002
2.7454646e-002
2.7917063e-002
2.8373513e-002
2.8846519e-002
2.9341372e-002
2.9776080e-002
3.0127501e-002
3.0702060e-002
3.1591598e-002
3.1647086e-002
3.0531529e-002
3.2513566e-002
3.8863495e-002
3.3700868e-002
8.0968281e-003
2.6577944e-004
4.5218870e-002
1.1185892e-001
1.5561561e-001
1.5328385e-001
9.3794107e-002
-9.9727772e-003
-1.3747139e-001
-2.6458076e-001
-3.6680499e-001
-4.2195407e-001
-4.1521749e-001
-3.5886449e-001
-2.7599061e-001
-2.0119800e-001
-1.6011190e-001
-1.2847319e-001
-6.9321804e-002
4.4659369e-002
2.2174197e-001
4.0569162e-001
5.2924913e-001
5.6051844e-001
4.9398661e-001
3.8578787e-001
3.0239058e-001
2.7503896e-001
3.1323990e-001
3.8449687e-001
4.4762188e-001
4.7952199e-001
4.6698913e-001
4.1253990e-001
3.2624143e-001
2.2873771e-001
1.4271627e-001
8.5406557e-002
6.8030849e-002
8.4896192e-002
1.2795854e-001
2.0238192e-001
3.1370997e-001
4.5048800e-001
5.9292430e-001
7.1117699e-001
7.7846140e-001
7.9402649e-001
7.6570159e-001
6.9934916e-001
6.0341895e-001
5.0072432e-001
4.1798070e-001
3.7708923e-001
3.8966843e-001
4.3257600e-001
4.7366244e-001
4.9429440e-001
4.8395541e-001
4.4400001e-001
3.8190129e-001
3.1341186e-001
2.5690457e-001
2.2963171e-001
2.4307354e-001
2.8682673e-001
3.4661770e-001
4.2562833e-001
5.3113139e-001
6.5907592e-001
7.9578590e-001
9.0628076e-001
9.5574063e-001
9.4282556e-001
8.8205391e-001
7.9918569e-001
7.2007740e-001
6.5487748e-001
6.0668743e-001
5.7517493e-001
5.5719900e-001
5.4242635e-001
5.2076960e-001
4.9487394e-001
4.7486678e-001
4.8047656e-001
5.2973694e-001
6.1834359e-001
7.2882199e-001
8.2692462e-001
8.7601066e-001
8.5624659e-001
7.6420963e-001
6.3490462e-001
5.1633012e-001
4.4565827e-001
4.4407451e-001
4.8802012e-001
5.3624314e-001
5.5141854e-001
5.0747967e-001
4.1483921e-001
3.0120000e-001
2.0195383e-001
1.4937165e-001
1.5201758e-001
2.0349406e-001
2.7816257e-001
3.4550759e-001
3.8751650e-001
3.9851922e-001
3.9971977e-001
4.1798902e-001
4.5486346e-001
4.9695483e-001
5.1868200e-001
5.0015908e-001
4.6614417e-001
4.5697233e-001
4.9143651e-001
5.7071334e-001
6.6850358e-001
7.5036484e-001
7.9841036e-001
8.0484045e-001
7.6881862e-001
6.9425821e-001
5.9369332e-001
4.8544925e-001
3.9600760e-001
3.5008094e-001
3.4930536e-001
3.8177454e-001
4.2614293e-001
4.6232343e-001
4.9206543e-001
5.2732790e-001
5.7718766e-001
6.4286739e-001
7.0104480e-001
7.2249055e-001
7.0412326e-001
6.6016579e-001
6.1932439e-001
6.0786188e-001
6.1431772e-001
6.1021912e-001
5.7814449e-001
5.1417935e-001
4.4217443e-001
3.9626500e-001
3.9562342e-001
4.4401860e-001
5.1666594e-001
5.7700664e-001
5.9904540e-001
5.6836671e-001
4.9192780e-001
3.8753569e-001
2.7339679e-001
1.6845007e-001
9.7668663e-002
8.3379537e-002
1.2211535e-001
1.9479740e-001
2.7632299e-001
3.4426004e-001
3.9684114e-001
4.4029784e-001
4.6530804e-001
4.5555478e-001
4.0609759e-001
3.2617751e-001
2.5584799e-001
2.4738479e-001
3.3375856e-001
5.2058184e-001
7.4793714e-001
9.2307782e-001
9.6796107e-001
8.3780217e-001
5.8221096e-001
2.9892462e-001
6.2013052e-002
-8.5828692e-002
-1.5736300e-001
-1.9039716e-001
-1.9754171e-001
-1.7382398e-001
-1.1541601e-001
-2.7413838e-002
5.6188501e-002
9.0992250e-002
6.2161397e-002
-2.1964438e-002
-1.3694197e-001
-2.5415128e-001
-3.6113694e-001
-4.5933715e-001
-5.6437999e-001
-6.9141394e-001
-8.1942970e-001
-9.0498990e-001
-9.0845686e-001
-8.0402374e-001
-6.0607243e-001
-3.5294610e-001
-7.9188593e-002
1.8440714e-001
4.0102589e-001
5.3479296e-001
5.7392919e-001
5.2813524e-001
4.3185979e-001
3.2953116e-001
2.4652457e-001
1.9078992e-001
1.5515824e-001
1.2716079e-001
1.0796434e-001
1.0303750e-001
9.2083648e-002
3.9887831e-002
-7.3148444e-002
-2.3862645e-001
-3.7863570e-001
-3.8794881e-001
-2.4360400e-001
4.8098490e-003
2.5747889e-001
4.0599051e-001
4.2503273e-001
3.5288018e-001
2.4100640e-001
1.4102751e-001
9.8218344e-002
1.4298284e-001
2.5882912e-001
3.9235342e-001
4.6959829e-001
4.2697278e-001
2.9607120e-001
1.6289213e-001
4.4625826e-002
-9.0491533e-002
-2.2911230e-001
-3.2593724e-001
-3.7557760e-001
-4.0583259e-001
-4.3786523e-001
-4.8149252e-001
-5.3864628e-001
-6.0138458e-001
-6.3678735e-001
-6.0105079e-001
-4.8338401e-001
-3.0877441e-001
-1.4169624e-001
-6.0239974e-002
-8.5188225e-002
-1.8040986e-001
-2.6503205e-001
-2.2835511e-001
5.1932275e-002
6.6815847e-001
1.5491345e+000
2.5028210e+000
3.3697891e+000
4.0728788e+000
4.7115397e+000
5.5199780e+000
6.7439365e+000
8.6056423e+000
1.1269107e+001
1.4770657e+001
1.8758429e+001
2.2627701e+001
2.6012863e+001
2.8875063e+001
3.1575888e+001
3.4733971e+001
3.8821442e+001
4.4000862e+001
4.9749439e+001
5.5147308e+001
5.9966457e+001
6.4642303e+001
6.9602112e+001
7.5042229e+001
8.0611549e+001
8.5585098e+001
8.9572815e+001
9.2573891e+001
9.4734840e+001
9.6252609e+001
9.7263741e+001
9.7825539e+001
9.7923416e+001
9.7500923e+001
9.6541206e+001
9.5097466e+001
9.3346916e+001
9.1527122e+001
8.9679665e+001
8.7650726e+001
8.5261185e+001
8.2373978e+001
7.9005623e+001
7.5289352e+001
7.1264229e+001
6.6868515e+001
6.2091881e+001
5.7018501e+001
5.1858883e+001
4.6912399e+001
4.2400459e+001
3.8435635e+001
3.5056595e+001
3.2235359e+001
2.9876417e+001
2.7841850e+001
2.6048882e+001
2.4487803e+001
2.3192715e+001
2.2221361e+001
2.1592999e+001
2.1278738e+001
2.1226818e+001
2.1376980e+001
2.1698174e+001
2.2188871e+001
2.2844675e+001
2.3660019e+001
2.4671551e+001
2.5962229e+001
2.7629000e+001
2.9750210e+001
3.2284958e+001
3.5071663e+001
3.7930920e+001
4.0705708e+001
4.3308197e+001
4.5752151e+001
4.8236988e+001
5.1058197e+001
5.4110085e+001
5.6856339e+001
5.8852695e+001
5.9907185e+001
6.0131649e+001
5.9866428e+001
5.9229073e+001
5.8047863e+001
5.6174801e+001
5.3607677e+001
5.0618286e+001
4.7708546e+001
4.5179417e+001
4.3031136e+001
4.1142979e+001
3.9331951e+001
3.7430202e+001
3.5326508e+001
3.3039574e+001
3.0726250e+001
2.8555471e+001
2.6639410e+001
2.4890200e+001
2.3021383e+001
2.0836540e+001
1.8330078e+001
1.5703977e+001
1.3322148e+001
1.1370943e+001
9.7704458e+000
8.3674860e+000
7.0054364e+000
5.6221857e+000
4.2714100e+000
3.0184903e+000
1.9129586e+000
1.0011042e+000
3.2593271e-001
-8.7811828e-002
-2.2594860e-001
-1.6415000e-002
6.6396236e-001
1.8168937e+000
3.2754920e+000
4.8430991e+000
6.3471584e+000
7.7046914e+000
8.9426451e+000
1.0112122e+001
1.1252819e+001
1.2335800e+001
1.3247907e+001
1.3874403e+001
1.4134123e+001
1.4025927e+001
1.3643429e+001
1.3091532e+001
1.2454041e+001
1.1775446e+001
1.1049223e+001
1.0247319e+001
9.3376093e+000
8.3430910e+000
7.3596015e+000
6.4803319e+000
5.7677021e+000
5.2514529e+000
4.9240708e+000
4.7667179e+000
4.7556982e+000
4.8632798e+000
5.0598879e+000
5.3277788e+000
5.6656055e+000
6.0681658e+000
6.5162759e+000
6.9686022e+000
7.3570790e+000
7.6115203e+000
7.6740732e+000
7.5276861e+000
7.2135057e+000
6.7995515e+000
6.3694992e+000
5.9808888e+000
5.6460652e+000
5.3605108e+000
5.1076694e+000
4.8592772e+000
4.5751352e+000
4.2205114e+000
3.7777858e+000
3.2590041e+000
2.7122171e+000
2.1742201e+000
1.6519806e+000
1.1466160e+000
6.6351718e-001
2.3061703e-001
-9.4637617e-002
-2.7158529e-001
-2.9527590e-001
-1.6324458e-001
1.3129357e-001
5.7064748e-001
1.0981343e+000
1.6575720e+000
2.2095029e+000
2.7298028e+000
3.2092772e+000
3.6196542e+000
3.8992007e+000
3.9948792e+000
3.8863211e+000
3.5933201e+000
3.1890659e+000
2.7549446e+000
2.3611732e+000
2.0497680e+000
1.8184085e+000
1.6461900e+000
1.4994475e+000
1.3521966e+000
1.1961550e+000
1.0277641e+000
8.4553683e-001
6.5326285e-001
4.6535921e-001
3.1004766e-001
2.3445910e-001
2.8400284e-001
4.9073082e-001
8.6621755e-001
1.3893720e+000
2.0194201e+000
2.6939230e+000
3.3473873e+000
3.9201832e+000
4.3692551e+000
4.6816278e+000
4.8682313e+000
4.9706631e+000
5.0370646e+000
5.1127362e+000
5.2306309e+000
5.4027500e+000
5.6394696e+000
5.9572954e+000
6.3784480e+000
6.9316602e+000
7.6354284e+000
8.4847336e+000
9.4580269e+000
1.0513626e+001
1.1612600e+001
1.2732500e+001
1.3853909e+001
1.4955442e+001
1.5992708e+001
1.6880131e+001
1.7526756e+001
1.7856314e+001
1.7818439e+001
1.7414965e+001
1.6668125e+001
1.5630014e+001
1.4368749e+001
1.2972987e+001
1.1545703e+001
1.0203447e+001
9.0511284e+000
8.1602125e+000
7.5746832e+000
7.2954907e+000
7.2903361e+000
7.4767380e+000
7.7436500e+000
7.9485369e+000
7.9675384e+000
7.7360854e+000
7.2376499e+000
6.5277519e+000
5.6834106e+000
4.7896223e+000
3.9265809e+000
3.1581993e+000
2.5297179e+000
2.0540237e+000
1.7277092e+000
1.5283746e+000
1.4270600e+000
1.3904887e+000
1.3862112e+000
1.3869973e+000
1.3772217e+000
1.3640801e+000
1.3577403e+000
1.3619369e+000
1.3733708e+000
1.3770238e+000
1.3555385e+000
1.2927288e+000
1.1759102e+000
1.0009823e+000
7.7659822e-001
5.3642356e-001
3.1971395e-001
1.6166517e-001
7.2391950e-002
7.4344985e-003
-7.3493034e-002
-1.6910172e-001
-2.5955561e-001
-3.0562165e-001
-2.7371258e-001
-1.5729342e-001
2.3007393e-002
1.9808364e-001
3.0153280e-001
3.0495721e-001
2.1729714e-001
1.1555068e-001
7.9405680e-002
1.5255114e-001
3.4833425e-001
6.2573701e-001
9.2977458e-001
1.2052714e+000
1.4177005e+000
1.5858971e+000
1.7512571e+000
1.9779379e+000
2.3172560e+000
2.7706208e+000
3.3135629e+000
3.8852766e+000
4.4205818e+000
4.8666072e+000
5.1811781e+000
5.3432770e+000
5.3490314e+000
5.2269735e+000
5.0168962e+000
4.7675281e+000
4.5214114e+000
4.2991920e+000
4.1151280e+000
3.9816060e+000
3.9050748e+000
3.8774977e+000
3.8825572e+000
3.8910472e+000
3.8760967e+000
3.8258741e+000
3.7352829e+000
3.6081321e+000
3.4586425e+000
3.3252172e+000
3.2542050e+000
3.2950530e+000
3.4756701e+000
3.7567387e+000
4.0631728e+000
4.2654710e+000
4.2522221e+000
4.0052471e+000
3.5604656e+000
3.0447190e+000
2.5842612e+000
2.2363501e+000
2.0257428e+000
1.9276967e+000
1.8989424e+000
1.8757395e+000
1.7944120e+000
1.6087736e+000
1.3040605e+000
9.4778830e-001
6.1347234e-001
3.2810137e-001
9.7758926e-002
-1.0123526e-001
-2.9029927e-001
-4.6025243e-001
-5.9493250e-001
-6.8003577e-001
-7.0598376e-001
-6.7686969e-001
-6.0011238e-001
-4.8282886e-001
-3.3211285e-001
-1.5559314e-001
3.2869115e-002
1.9921976e-001
3.1142262e-001
3.6140952e-001
3.5576180e-001
3.3031186e-001
3.1795689e-001
3.1651953e-001
3.1283313e-001
2.8591189e-001
2.2110319e-001
1.3288313e-001
4.8268899e-002
1.2944140e-002
7.3465213e-002
2.6235670e-001
5.8828187e-001
9.8684800e-001
1.3871114e+000
1.7606208e+000
2.1040087e+000
2.4669633e+000
2.8893688e+000
3.3281465e+000
3.7143240e+000
3.9614806e+000
4.0119834e+000
3.9348187e+000
3.8288801e+000
3.7873085e+000
3.8827138e+000
4.1121979e+000
4.4521818e+000
4.8697333e+000
5.3215499e+000
5.7316980e+000
6.0337677e+000
6.2321672e+000
6.3490000e+000
