Image.
>Pix99999.
  .
5555
5555
2300
900
5555
2
1
0
701
5555
4.9231999e-002
5.0256535e-002
5.1280070e-002
5.2304603e-002
5.3329136e-002
5.4352678e-002
5.5377204e-002
5.6401741e-002
5.7426274e-002
5.8449820e-002
5.9474342e-002
6.0498878e-002
6.1522428e-002
6.2546946e-002
6.3571483e-002
6.4595036e-002
6.5619543e-002
6.6643104e-002
6.7667618e-002
6.8692148e-002
6.9716685e-002
7.0740253e-002
7.1764752e-002
7.2789289e-002
7.3812857e-002
7.4837357e-002
1.3136562e-002
4.6141632e-003
-2.3938568e-002
-9.8258920e-002
-1.7918785e-001
-3.4145236e-001
-5.0753635e-001
-6.2802500e-001
-7.2587001e-001
-6.6040355e-001
-5.7419372e-001
-4.3103933e-001
-3.2783961e-001
-3.5561776e-001
-4.3535629e-001
-6.1250204e-001
-7.5946420e-001
-8.4779781e-001
-8.8145232e-001
-8.5142404e-001
-8.2741439e-001
-8.1310916e-001
-8.5071391e-001
-9.2664802e-001
-1.0329463e+000
-1.1552022e+000
-1.2028022e+000
-1.2170839e+000
-1.1303287e+000
-1.0115993e+000
-9.1285998e-001
-8.1920439e-001
-8.4568942e-001
-8.9060903e-001
-9.7887599e-001
-1.0630227e+000
-1.0551703e+000
-1.0357730e+000
-1.0001649e+000
-9.8190099e-001
-1.0326579e+000
-1.0809631e+000
-1.1050920e+000
-1.1007098e+000
-1.0470800e+000
-9.9764627e-001
-9.6176958e-001
-9.1957891e-001
-8.6865765e-001
-7.8901821e-001
-6.8477279e-001
-6.2711143e-001
-6.0362190e-001
-6.9202936e-001
-8.3948171e-001
-9.9742687e-001
-1.1574103e+000
-1.1809597e+000
-1.1609200e+000
-1.0845635e+000
-9.9593955e-001
-9.8955625e-001
-9.9780756e-001
-1.0331160e+000
-1.0706043e+000
-1.0956711e+000
-1.1205881e+000
-1.1530360e+000
-1.1882328e+000
-1.2282629e+000
-1.2682281e+000
-1.3064343e+000
-1.3393919e+000
-1.3637329e+000
-1.3864572e+000
-1.4085257e+000
-1.4557811e+000
-1.5291406e+000
-1.6226628e+000
-1.7299050e+000
-1.8062940e+000
-1.8612208e+000
-1.8883132e+000
-1.9022691e+000
-1.9058857e+000
-1.9058634e+000
-1.8712760e+000
-1.8257064e+000
-1.7415178e+000
-1.6479594e+000
-1.5477365e+000
-1.4546102e+000
-1.4501917e+000
-1.4831101e+000
-1.6248714e+000
-1.7758961e+000
-1.8828503e+000
-1.9422034e+000
-1.9009235e+000
-1.8385142e+000
-1.7731800e+000
-1.7268381e+000
-1.7103748e+000
-1.7159046e+000
-1.7414585e+000
-1.7912006e+000
-1.8606343e+000
-1.9399290e+000
-2.0241094e+000
-2.0748651e+000
-2.1036456e+000
-2.0350883e+000
-1.9176457e+000
-1.7863696e+000
-1.6521400e+000
-1.6345433e+000
-1.6565894e+000
-1.6743314e+000
-1.6868137e+000
-1.6391706e+000
-1.5847082e+000
-1.5899950e+000
-1.6278931e+000
-1.7397796e+000
-1.8801929e+000
-2.0495617e+000
-2.2164798e+000
-2.3626940e+000
-2.4456260e+000
-2.4283786e+000
-2.3332703e+000
-2.1628432e+000
-1.9826448e+000
-1.8103960e+000
-1.6423086e+000
-1.4761800e+000
-1.2580005e+000
-9.9955589e-001
-7.9499167e-001
-6.2938237e-001
-7.2437513e-001
-9.5397747e-001
-1.2771000e+000
-1.6336616e+000
-1.8183471e+000
-1.9367583e+000
-1.9432520e+000
-1.9156470e+000
-1.8937211e+000
-1.8856250e+000
-1.9426143e+000
-2.0279980e+000
-2.1465716e+000
-2.2582200e+000
-2.3260827e+000
-2.3519888e+000
-2.3181381e+000
-2.2395103e+000
-2.1150429e+000
-1.9444849e+000
-1.7292968e+000
-1.4785037e+000
-1.2027640e+000
-1.0232304e+000
-9.3766773e-001
-9.6528918e-001
-1.0632033e+000
-1.1584787e+000
-1.2430248e+000
-1.4069672e+000
-1.6155521e+000
-1.8138250e+000
-2.0052612e+000
-1.9782380e+000
-1.8597857e+000
-1.6690416e+000
-1.4696480e+000
-1.4045020e+000
-1.4290555e+000
-1.6202729e+000
-1.8816849e+000
-2.1680279e+000
-2.4115343e+000
-2.5331233e+000
-2.5204000e+000
-2.3353267e+000
-2.0122046e+000
-1.5652741e+000
-1.1870749e+000
-9.4596457e-001
-9.6228284e-001
-1.2115171e+000
-1.5313103e+000
-1.8590884e+000
-2.1161056e+000
-2.3157246e+000
-2.4109452e+000
-2.4422870e+000
-2.3298600e+000
-2.1375108e+000
-1.9904562e+000
-1.8762984e+000
-1.9603555e+000
-2.1336951e+000
-2.2636571e+000
-2.3359129e+000
-2.2034051e+000
-1.9493052e+000
-1.5898860e+000
-1.2576386e+000
-1.1271783e+000
-1.1817099e+000
-1.4522640e+000
-1.7644808e+000
-1.9997286e+000
-2.0990925e+000
-2.0415707e+000
-1.9312246e+000
-1.8214383e+000
-1.7214500e+000
-1.6319689e+000
-1.4942038e+000
-1.3083651e+000
-1.0706314e+000
-7.9937071e-001
-4.9594840e-001
-1.7558457e-001
1.9113760e-002
1.3027401e-001
1.0486743e-001
9.4875563e-003
-7.0419088e-003
4.1908439e-002
2.3985121e-001
5.2755976e-001
8.6018729e-001
1.1373672e+000
1.1611466e+000
9.9175948e-001
6.4671457e-001
3.1099540e-001
1.5756549e-001
4.9296685e-002
-1.0811327e-001
-1.8650585e-001
-1.2661557e-001
2.0940752e-001
8.2580739e-001
1.4982623e+000
2.1371465e+000
2.3908753e+000
2.2829676e+000
2.1047220e+000
1.9316334e+000
2.0389600e+000
2.3634458e+000
2.4075930e+000
2.2204468e+000
1.5606995e+000
6.2456810e-001
-1.4670402e-002
-3.2911229e-001
1.4487126e-001
1.3020347e+000
2.9821587e+000
4.7137704e+000
5.8155775e+000
6.4968624e+000
6.9934540e+000
7.7281494e+000
9.0950375e+000
1.1284009e+001
1.4343908e+001
1.7933466e+001
2.1763857e+001
2.5109110e+001
2.7741373e+001
3.0158052e+001
3.2580685e+001
3.5869446e+001
4.0031734e+001
4.4687229e+001
4.9645561e+001
5.3740116e+001
5.7073341e+001
6.0583031e+001
6.4324959e+001
6.8754852e+001
7.3660973e+001
7.8292549e+001
8.2639984e+001
8.6611107e+001
9.0276215e+001
9.3769218e+001
9.7120544e+001
1.0038386e+002
1.0326940e+002
1.0543943e+002
1.0609274e+002
1.0460072e+002
1.0174097e+002
9.8287895e+001
9.4683586e+001
9.1217400e+001
8.7349831e+001
8.2891747e+001
7.8164955e+001
7.3316383e+001
6.8715958e+001
6.4419846e+001
6.0021641e+001
5.5473202e+001
5.0985092e+001
4.6578373e+001
4.2402687e+001
3.8478039e+001
3.4933598e+001
3.1800499e+001
2.9146965e+001
2.6956421e+001
2.5090170e+001
2.3551786e+001
2.2289915e+001
2.1306227e+001
2.0560501e+001
2.0026667e+001
1.9640377e+001
1.9377934e+001
1.9198305e+001
1.9156572e+001
1.9281355e+001
1.9648010e+001
2.0283192e+001
2.1256622e+001
2.2576799e+001
2.4092901e+001
2.5741785e+001
2.7237228e+001
2.8515961e+001
2.9679071e+001
3.0749451e+001
3.2175850e+001
3.4073776e+001
3.6906036e+001
4.0623314e+001
4.3983631e+001
4.6807755e+001
4.8724411e+001
4.9904964e+001
5.1230896e+001
5.2724281e+001
5.4372959e+001
5.5699741e+001
5.5948483e+001
5.5077259e+001
5.3225296e+001
5.1000526e+001
4.9090706e+001
4.7533627e+001
4.6344299e+001
4.5253590e+001
4.4091030e+001
4.2530418e+001
4.0389137e+001
3.8079399e+001
3.5720165e+001
3.3564922e+001
3.1705345e+001
2.9431202e+001
2.6572657e+001
2.3396942e+001
1.9908688e+001
1.6960123e+001
1.4656800e+001
1.2627857e+001
1.0909578e+001
9.3324308e+000
7.8792758e+000
6.4085503e+000
4.8962121e+000
3.3070619e+000
1.8079383e+000
6.7865908e-001
3.7768424e-002
2.1893993e-002
5.9132445e-001
1.5702308e+000
2.5346141e+000
3.1770184e+000
3.6105199e+000
3.8828707e+000
4.2986016e+000
5.0319815e+000
5.9101486e+000
6.9215603e+000
7.5368147e+000
7.5019851e+000
7.1748147e+000
6.4618301e+000
5.7953711e+000
5.2092304e+000
4.7402868e+000
4.4458389e+000
4.3105402e+000
4.3391471e+000
4.3353882e+000
4.2427611e+000
3.9528687e+000
3.5281100e+000
3.1907387e+000
3.0203068e+000
3.1250579e+000
3.4286714e+000
3.8046408e+000
4.1269884e+000
4.2471061e+000
4.2705379e+000
4.2720704e+000
4.3492594e+000
4.5936856e+000
4.9446278e+000
5.4218082e+000
5.9138641e+000
6.3964710e+000
6.7421784e+000
6.8297844e+000
6.7466526e+000
6.3798552e+000
5.9784431e+000
5.5293951e+000
5.0982785e+000
4.7000732e+000
4.3474436e+000
4.0638022e+000
3.8462884e+000
3.6980829e+000
3.5597901e+000
3.4201829e+000
3.2537520e+000
3.0536628e+000
2.8189249e+000
2.5209510e+000
2.1071925e+000
1.6227950e+000
1.0964798e+000
6.1793029e-001
2.9376948e-001
6.9963463e-002
-2.2441477e-002
-5.0499070e-002
1.3109799e-002
1.5880899e-001
4.6163297e-001
7.5148588e-001
9.9048513e-001
1.0951951e+000
9.5743251e-001
8.0931491e-001
6.6719866e-001
6.4513016e-001
8.0961901e-001
1.0935434e+000
1.5189211e+000
1.9649370e+000
2.3952301e+000
2.6971977e+000
2.8515484e+000
2.8638713e+000
2.7741003e+000
2.6669357e+000
2.5635085e+000
2.4999180e+000
2.4576752e+000
2.4257176e+000
2.3963857e+000
2.3629344e+000
2.3384020e+000
2.3392789e+000
2.3590400e+000
2.4181550e+000
2.4866295e+000
2.5716565e+000
2.6599669e+000
2.7562127e+000
2.8624001e+000
2.9896510e+000
3.1267526e+000
3.2829916e+000
3.4536996e+000
3.6521378e+000
3.8933291e+000
4.1863770e+000
4.5018420e+000
4.8284678e+000
5.1177659e+000
5.3815331e+000
5.6561322e+000
5.9619570e+000
6.3545985e+000
6.7969999e+000
7.2624965e+000
7.7066922e+000
8.0498962e+000
8.3230333e+000
8.4576683e+000
8.5398722e+000
8.5344677e+000
8.5035601e+000
8.4182329e+000
8.3061285e+000
8.1186190e+000
7.8895588e+000
7.5582371e+000
7.1797843e+000
6.7060657e+000
6.1996956e+000
5.6385655e+000
5.0595884e+000
4.4602923e+000
3.8767171e+000
3.3235240e+000
2.8342710e+000
2.4127166e+000
2.0415277e+000
1.7069356e+000
1.3741889e+000
1.0369112e+000
6.7624390e-001
3.0722284e-001
-5.4098487e-002
-3.7607646e-001
-5.4742992e-001
-6.2517840e-001
-4.6036685e-001
-2.4495359e-001
4.0804014e-002
2.9187179e-001
3.9128897e-001
4.4981667e-001
3.8375685e-001
3.0530593e-001
1.9797769e-001
9.6717201e-002
1.1085652e-002
-4.9061198e-002
-6.4806901e-002
-5.3250588e-002
-8.2076322e-003
2.9197039e-002
5.1979572e-002
3.7002519e-002
-2.6662112e-003
-6.3929744e-003
3.7520871e-002
2.1181229e-001
4.8433939e-001
8.6284918e-001
1.2789750e+000
1.6800549e+000
2.0654693e+000
2.3908489e+000
2.6770771e+000
2.8122559e+000
2.8998432e+000
2.8075142e+000
2.7091289e+000
2.5990794e+000
2.5139077e+000
2.5104041e+000
2.5487401e+000
2.6939051e+000
2.8882213e+000
3.1786156e+000
3.4887004e+000
3.8342857e+000
4.2230411e+000
4.6693139e+000
5.1547699e+000
5.6635275e+000
6.0710893e+000
6.3866730e+000
6.5929923e+000
6.7351208e+000
6.8781810e+000
7.0113645e+000
7.0712771e+000
7.0906444e+000
6.9911404e+000
6.8701482e+000
6.7841792e+000
6.7090521e+000
6.6814175e+000
6.6512957e+000
6.5908556e+000
6.5473971e+000
6.5794320e+000
6.6307802e+000
6.7403402e+000
6.8137212e+000
6.7989821e+000
6.7623706e+000
6.6890635e+000
6.6514993e+000
6.6662664e+000
6.6930304e+000
6.7260470e+000
6.6861873e+000
6.5660219e+000
6.2811837e+000
5.8748360e+000
5.3756514e+000
4.8368988e+000
4.3921480e+000
3.9907527e+000
3.6679058e+000
3.3612814e+000
3.0000601e+000
2.6224813e+000
2.1642599e+000
1.7002578e+000
1.2468224e+000
8.1534874e-001
5.3448111e-001
2.8242540e-001
1.5579942e-001
1.8906772e-002
-1.5104412e-001
-3.4144300e-001
-5.7627225e-001
-7.7674264e-001
-9.1195607e-001
-9.5396179e-001
-8.6708057e-001
-6.9966376e-001
-4.5213628e-001
-2.5101635e-001
-9.1008678e-002
-7.2104838e-003
3.2664642e-002
1.1170350e-001
2.0916757e-001
3.2118392e-001
4.3604234e-001
5.1458585e-001
5.8275843e-001
5.9407395e-001
5.9149081e-001
4.2052209e-001
2.4494094e-001
1.0150485e-001
6.3332508e-004
8.3118677e-003
2.6609176e-001
6.8166459e-001
1.0498772e+000
1.2790887e+000
1.4832958e+000
1.6346716e+000
1.7898984e+000
1.9499757e+000
2.0403161e+000
2.0458515e+000
2.0376401e+000
2.0178061e+000
2.0697672e+000
2.1707325e+000
2.1492193e+000
2.0616360e+000
1.7850094e+000
1.4382637e+000
1.3216795e+000
1.2678525e+000
1.7230369e+000
2.2603772e+000
2.9435000e+000
