Image.
>Pix99999.
  .
5555
5555
2300
900
5555
2
1
0
701
5555
6.9194997e-004
7.0643926e-004
7.2075904e-004
7.3518808e-004
7.4959750e-004
7.6399697e-004
7.7831704e-004
7.9271581e-004
8.0709544e-004
8.2146499e-004
8.3591329e-004
8.5030356e-004
8.6467329e-004
8.7908201e-004
8.9345220e-004
9.0786081e-004
9.2228974e-004
9.3671907e-004
9.5101201e-004
9.6543779e-004
9.7988662e-004
9.9421944e-004
1.0086459e-003
1.0230269e-003
1.0374063e-003
1.0517857e-003
1.1844677e-002
4.7292429e-004
-3.0399360e-002
-1.3139960e-001
-2.4259415e-001
-3.9403436e-001
-5.4484123e-001
-6.1641997e-001
-6.7028356e-001
-6.1278248e-001
-5.4660642e-001
-4.6646196e-001
-4.0945643e-001
-4.2507964e-001
-4.5449400e-001
-5.0507015e-001
-5.2724838e-001
-5.0109190e-001
-4.6016490e-001
-4.0452245e-001
-3.9561996e-001
-4.3270421e-001
-5.1904231e-001
-6.3997132e-001
-7.2537506e-001
-7.8894830e-001
-7.8772205e-001
-7.5869030e-001
-7.1742386e-001
-6.7277944e-001
-6.5623200e-001
-6.4620823e-001
-6.7549312e-001
-7.1066290e-001
-7.5130945e-001
-7.9199326e-001
-8.2751292e-001
-8.5920310e-001
-8.7168813e-001
-8.7132651e-001
-8.3088571e-001
-7.9363835e-001
-7.7482754e-001
-7.7365780e-001
-8.0247402e-001
-8.2154775e-001
-8.2204813e-001
-8.1939203e-001
-8.1536192e-001
-8.3576822e-001
-8.7790293e-001
-9.2971307e-001
-9.8663068e-001
-1.0313292e+000
-1.0690600e+000
-1.0634844e+000
-1.0400403e+000
-9.8982900e-001
-9.3158519e-001
-9.2876232e-001
-9.3895471e-001
-9.8116082e-001
-1.0266001e+000
-1.0397192e+000
-1.0464643e+000
-1.0410360e+000
-1.0378417e+000
-1.0527617e+000
-1.0770025e+000
-1.1214535e+000
-1.1602572e+000
-1.1796136e+000
-1.1776000e+000
-1.1444460e+000
-1.1100429e+000
-1.0797853e+000
-1.0724245e+000
-1.0882748e+000
-1.1206446e+000
-1.1642200e+000
-1.1883109e+000
-1.1986855e+000
-1.1763201e+000
-1.1375531e+000
-1.1120671e+000
-1.0928495e+000
-1.0966201e+000
-1.1075436e+000
-1.0763329e+000
-1.0342985e+000
-9.9023265e-001
-9.5231247e-001
-9.8553985e-001
-1.0344224e+000
-1.0925143e+000
-1.1453151e+000
-1.1712923e+000
-1.1914682e+000
-1.2093177e+000
-1.2249678e+000
-1.2366381e+000
-1.2445756e+000
-1.2491685e+000
-1.2545495e+000
-1.2629286e+000
-1.2571217e+000
-1.2368994e+000
-1.2099199e+000
-1.1788067e+000
-1.1946543e+000
-1.2404275e+000
-1.3096367e+000
-1.3883286e+000
-1.4290243e+000
-1.4538400e+000
-1.4496359e+000
-1.4370371e+000
-1.4017757e+000
-1.3617874e+000
-1.3348886e+000
-1.3191575e+000
-1.3558000e+000
-1.4078578e+000
-1.4655988e+000
-1.5177214e+000
-1.5463033e+000
-1.5720240e+000
-1.6080413e+000
-1.6422400e+000
-1.6737136e+000
-1.6708857e+000
-1.6210141e+000
-1.5518837e+000
-1.4712436e+000
-1.4034686e+000
-1.3488830e+000
-1.2448251e+000
-1.1001108e+000
-9.3930614e-001
-7.7323490e-001
-7.4824274e-001
-7.9937273e-001
-9.3054360e-001
-1.0929315e+000
-1.2139143e+000
-1.3184186e+000
-1.3869451e+000
-1.4414284e+000
-1.4549254e+000
-1.4493001e+000
-1.4141635e+000
-1.3678843e+000
-1.3292288e+000
-1.2993344e+000
-1.2896743e+000
-1.2948798e+000
-1.3129841e+000
-1.3463703e+000
-1.3930572e+000
-1.4156172e+000
-1.3985869e+000
-1.2891129e+000
-1.0937651e+000
-8.9767885e-001
-7.2477645e-001
-6.7095244e-001
-7.0344436e-001
-7.9020321e-001
-8.9979011e-001
-9.9668062e-001
-1.0855041e+000
-1.1220565e+000
-1.1361663e+000
-1.0670403e+000
-9.6515000e-001
-8.4651357e-001
-7.2874397e-001
-6.6795677e-001
-6.4352602e-001
-6.8947977e-001
-7.7279639e-001
-8.9190334e-001
-1.0173258e+000
-1.1235220e+000
-1.1893200e+000
-1.1844715e+000
-1.1004086e+000
-9.2729098e-001
-7.4063087e-001
-5.8170390e-001
-5.4421842e-001
-6.3547748e-001
-7.9234356e-001
-9.7455174e-001
-1.1253915e+000
-1.2434188e+000
-1.3165717e+000
-1.3599217e+000
-1.3621759e+000
-1.3383286e+000
-1.3531032e+000
-1.3883526e+000
-1.5180696e+000
-1.6943630e+000
-1.8630857e+000
-2.0088220e+000
-2.0268228e+000
-1.9350774e+000
-1.6620014e+000
-1.3231601e+000
-1.0374326e+000
-8.7878937e-001
-9.4212723e-001
-1.1140717e+000
-1.3136486e+000
-1.4535567e+000
-1.4881914e+000
-1.4453907e+000
-1.3536228e+000
-1.2503300e+000
-1.1514643e+000
-1.0805718e+000
-1.0301223e+000
-9.8639798e-001
-9.4308215e-001
-8.3488941e-001
-6.8606520e-001
-5.2818495e-001
-3.7481299e-001
-2.9743472e-001
-2.6801354e-001
-2.5144050e-001
-2.3534177e-001
-1.5741271e-001
-3.5954975e-002
1.3260478e-001
2.9843813e-001
3.5599199e-001
3.3107144e-001
2.1989399e-001
1.0653674e-001
8.1129059e-002
3.3044402e-002
-1.0491771e-001
-2.1812385e-001
-2.4647206e-001
-8.4852174e-002
2.7882680e-001
7.2315431e-001
1.1831592e+000
1.3702852e+000
1.2833010e+000
1.0500381e+000
7.4411201e-001
6.5401399e-001
7.4539411e-001
8.4726161e-001
9.2964566e-001
7.3516500e-001
3.5826981e-001
6.1432242e-002
-1.2497029e-001
9.7450569e-002
7.3559338e-001
1.7630100e+000
2.9315689e+000
3.9029572e+000
4.7190518e+000
5.4439759e+000
6.3294373e+000
7.6253543e+000
9.6005297e+000
1.2372860e+001
1.5921987e+001
2.0082857e+001
2.3979361e+001
2.7276669e+001
3.0140375e+001
3.2740875e+001
3.6052792e+001
4.0149269e+001
4.5017258e+001
5.0450802e+001
5.5089970e+001
5.8994244e+001
6.2837833e+001
6.6727997e+001
7.1274719e+001
7.6299721e+001
8.1198601e+001
8.5908821e+001
9.0217285e+001
9.4110069e+001
9.7538406e+001
1.0044251e+002
1.0274661e+002
1.0427100e+002
1.0484309e+002
1.0428914e+002
1.0251036e+002
1.0003315e+002
9.7367645e+001
9.4489777e+001
9.1434578e+001
8.7698669e+001
8.3146988e+001
7.8325974e+001
7.3454666e+001
6.8827469e+001
6.4489983e+001
6.0005562e+001
5.5328827e+001
5.0786331e+001
4.6404423e+001
4.2366028e+001
3.8682224e+001
3.5430950e+001
3.2625191e+001
3.0260702e+001
2.8317600e+001
2.6653645e+001
2.5282993e+001
2.4181360e+001
2.3357964e+001
2.2785500e+001
2.2438393e+001
2.2247309e+001
2.2187052e+001
2.2212635e+001
2.2368216e+001
2.2679777e+001
2.3171370e+001
2.3847008e+001
2.4725348e+001
2.5800800e+001
2.7046019e+001
2.8432312e+001
2.9822521e+001
3.1182001e+001
3.2481735e+001
3.3724659e+001
3.5141277e+001
3.6814678e+001
3.9199696e+001
4.2312099e+001
4.5408901e+001
4.8303486e+001
5.0416958e+001
5.1786907e+001
5.2933643e+001
5.3819012e+001
5.4440487e+001
5.4577820e+001
5.3908134e+001
5.2557884e+001
5.0817421e+001
4.8928921e+001
4.7214203e+001
4.5639633e+001
4.4170349e+001
4.2644127e+001
4.0947079e+001
3.9000309e+001
3.6724487e+001
3.4483757e+001
3.2405037e+001
3.0402081e+001
2.8496906e+001
2.6089222e+001
2.3022663e+001
1.9930513e+001
1.6874012e+001
1.4423331e+001
1.2656501e+001
1.0990429e+001
9.4271040e+000
7.8474965e+000
6.2759147e+000
4.7607131e+000
3.3492856e+000
2.1045599e+000
1.0885735e+000
3.8007492e-001
1.3291314e-002
1.6400978e-002
4.4391662e-001
1.2362559e+000
2.1423650e+000
2.9799669e+000
3.6904972e+000
4.2461429e+000
4.8118725e+000
5.4735188e+000
6.1729975e+000
6.8950200e+000
7.4044442e+000
7.5565405e+000
7.5150366e+000
7.1993647e+000
6.8204966e+000
6.3601985e+000
5.8962412e+000
5.4452457e+000
5.0481625e+000
4.7173772e+000
4.3780603e+000
4.0349197e+000
3.6864839e+000
3.3650219e+000
3.1633530e+000
3.0904658e+000
3.1418583e+000
3.2955041e+000
3.4949369e+000
3.7318971e+000
3.9926379e+000
4.2659979e+000
4.5724802e+000
4.8924637e+000
5.2271070e+000
5.5606213e+000
5.8728585e+000
6.1477122e+000
6.3527675e+000
6.4820142e+000
6.4736705e+000
6.4115219e+000
6.2417617e+000
6.0435381e+000
5.7944751e+000
5.5131311e+000
5.1871104e+000
4.8387303e+000
4.4632134e+000
4.0609770e+000
3.6450996e+000
3.2345679e+000
2.8426545e+000
2.4972110e+000
2.1658921e+000
1.8069125e+000
1.4199661e+000
9.9201667e-001
5.8845091e-001
2.8928772e-001
8.2085319e-002
1.7190240e-002
1.9492164e-002
8.6792782e-002
1.8038964e-001
2.9826838e-001
4.3762735e-001
6.2091780e-001
7.8989625e-001
9.1655374e-001
9.9375093e-001
9.6055686e-001
9.2117941e-001
8.7807786e-001
8.8021040e-001
9.6431726e-001
1.1041565e+000
1.3194126e+000
1.5519490e+000
1.7917900e+000
1.9878099e+000
2.1286452e+000
2.2222755e+000
2.2663913e+000
2.2776620e+000
2.2597647e+000
2.2121251e+000
2.1554575e+000
2.1021290e+000
2.0562143e+000
2.0211020e+000
1.9953905e+000
1.9849737e+000
1.9916720e+000
2.0354879e+000
2.0906858e+000
2.1659369e+000
2.2447336e+000
2.3296199e+000
2.4125371e+000
2.4954669e+000
2.5785239e+000
2.6691225e+000
2.7822859e+000
2.9337792e+000
3.1340873e+000
3.3979979e+000
3.7139699e+000
4.0797076e+000
4.4521227e+000
4.8252940e+000
5.1836729e+000
5.5381355e+000
5.9124012e+000
6.3043752e+000
6.7196922e+000
7.1342793e+000
7.5139880e+000
7.8453083e+000
8.0502787e+000
8.1748323e+000
8.1157045e+000
7.9764833e+000
7.6376257e+000
7.2355442e+000
6.6676450e+000
6.0757756e+000
5.4310584e+000
4.8119550e+000
4.2482200e+000
3.7285404e+000
3.2829335e+000
2.8590829e+000
2.4658103e+000
2.0832286e+000
1.7147959e+000
1.3606923e+000
1.0155046e+000
6.5305716e-001
2.7486086e-001
-1.1946326e-001
-5.1168513e-001
-8.5660553e-001
-1.1632657e+000
-1.3977692e+000
-1.5917960e+000
-1.7164693e+000
-1.7991980e+000
-1.7738429e+000
-1.7051600e+000
-1.5197963e+000
-1.3153960e+000
-1.0651774e+000
-8.1687576e-001
-5.7676780e-001
-3.4299862e-001
-1.2587164e-001
7.9860911e-002
2.6035184e-001
4.1588157e-001
5.2564698e-001
5.9146088e-001
5.9337789e-001
5.4571420e-001
4.4345605e-001
3.2105085e-001
1.8756659e-001
8.6251371e-002
1.9464150e-002
2.3144657e-002
8.4373847e-002
2.8722668e-001
5.6549668e-001
9.5616502e-001
1.3730571e+000
1.7677423e+000
2.1391957e+000
2.4083159e+000
2.6507127e+000
2.8004014e+000
2.9343941e+000
3.0092635e+000
3.0825248e+000
3.1518388e+000
3.2330151e+000
3.3433738e+000
3.4573190e+000
3.5794847e+000
3.7114246e+000
3.8662858e+000
4.0807476e+000
4.3796520e+000
4.7700481e+000
5.2558713e+000
5.7966757e+000
6.3706746e+000
6.8841252e+000
7.3370671e+000
7.6112981e+000
7.7819371e+000
7.7842870e+000
7.7273636e+000
7.6403046e+000
7.5592513e+000
7.5718994e+000
7.6049519e+000
7.6996660e+000
7.7890940e+000
7.8238707e+000
7.8418489e+000
7.7875876e+000
7.7380667e+000
7.7075219e+000
7.7202291e+000
7.8391180e+000
7.9967136e+000
8.2226419e+000
8.4296045e+000
8.6045609e+000
8.7321997e+000
8.8027353e+000
8.8293829e+000
8.8077536e+000
8.6831141e+000
8.4775753e+000
8.1606684e+000
7.7849221e+000
7.4009428e+000
7.0121160e+000
6.6074085e+000
6.1919851e+000
5.7037802e+000
5.2009859e+000
4.6708522e+000
4.1438251e+000
3.6795146e+000
3.2285872e+000
2.8642890e+000
2.4976599e+000
2.1187143e+000
1.7145829e+000
1.2317247e+000
7.4155343e-001
2.3824015e-001
-2.0169806e-001
-5.2507782e-001
-7.4212867e-001
-8.1571859e-001
-8.6170495e-001
-8.7982857e-001
-9.0329999e-001
-9.2541063e-001
-8.4542263e-001
-6.9999766e-001
-4.9385101e-001
-2.6755995e-001
-1.8746795e-001
-1.6063416e-001
-2.5653589e-001
-3.7374184e-001
-3.7575114e-001
-3.5877159e-001
-2.1716653e-001
-7.6224543e-002
-1.6417179e-002
1.0945406e-002
-3.5991706e-004
-9.2980899e-003
4.3453809e-002
1.0113268e-001
1.7314157e-001
2.3011260e-001
2.5497049e-001
2.7581280e-001
2.9107264e-001
3.4003481e-001
4.3147689e-001
5.9430730e-001
8.2294643e-001
1.0437785e+000
1.2571424e+000
1.3294863e+000
1.3274410e+000
1.2413989e+000
1.1262364e+000
1.2155240e+000
1.3608401e+000
1.8130362e+000
2.3149197e+000
2.7479999e+000
