Image.
>Pix99999.
  .
5555
5555
2300
900
5555
2
1
0
701
5555
-5.9675998e-003
-6.0917228e-003
-6.2158448e-003
-6.3399673e-003
-6.4641889e-003
-6.5883119e-003
-6.7124343e-003
-6.8366560e-003
-6.9607794e-003
-7.0849019e-003
-7.2090244e-003
-7.3332451e-003
-7.4573690e-003
-7.5814915e-003
-7.7056140e-003
-7.8298347e-003
-7.9539586e-003
-8.0779837e-003
-8.2022985e-003
-8.3263284e-003
-8.4505463e-003
-8.5746711e-003
-8.6987931e-003
-8.8230120e-003
-8.9470418e-003
-9.0712570e-003
8.7099085e-003
3.6241714e-004
-1.7057279e-002
-4.2630468e-002
-6.9347814e-002
-7.7843532e-002
-8.4221765e-002
-7.2649837e-002
-5.8886666e-002
-3.4460198e-002
-9.5995823e-003
1.4795048e-002
3.8411424e-002
5.9756238e-002
7.6696090e-002
8.4287137e-002
7.8461222e-002
5.1630013e-002
2.5122879e-002
6.2560395e-004
-4.6892213e-003
8.3573051e-003
2.9068759e-002
5.4608140e-002
8.1370786e-002
1.0865663e-001
1.4354064e-001
1.8174651e-001
2.1891646e-001
2.5567934e-001
2.6266402e-001
2.6279956e-001
2.2841465e-001
1.8915759e-001
1.6894314e-001
1.5362149e-001
1.7391996e-001
1.9773260e-001
2.2234897e-001
2.4532007e-001
2.6205823e-001
2.7947733e-001
3.0020127e-001
3.1914276e-001
3.3405799e-001
3.4377685e-001
3.4656709e-001
3.4566930e-001
3.4145314e-001
3.2241645e-001
2.9059455e-001
2.4859539e-001
2.0046106e-001
1.7632790e-001
1.6560657e-001
1.7591076e-001
1.9449212e-001
2.0948783e-001
2.2308880e-001
2.3080727e-001
2.3719354e-001
2.2939676e-001
2.1872023e-001
1.9600119e-001
1.7322186e-001
1.6286410e-001
1.5860577e-001
1.7333968e-001
1.9120957e-001
2.1016243e-001
2.2413246e-001
2.2679283e-001
2.2575180e-001
2.2131006e-001
2.2115856e-001
2.2731702e-001
2.3200488e-001
2.3420778e-001
2.2090822e-001
1.9502901e-001
1.6056053e-001
1.2153537e-001
9.7030051e-002
8.0503583e-002
8.1067301e-002
8.8347167e-002
9.0800919e-002
9.1491573e-002
7.1605094e-002
4.6411626e-002
2.3113554e-003
-4.4440519e-002
-8.1501611e-002
-1.1098642e-001
-1.0933886e-001
-9.8761640e-002
-7.7974163e-002
-6.1310716e-002
-6.0181949e-002
-7.1266107e-002
-1.0002896e-001
-1.3164775e-001
-1.6266057e-001
-1.8033548e-001
-1.8237413e-001
-1.6933621e-001
-1.4442086e-001
-1.1448540e-001
-8.2078218e-002
-5.1908098e-002
-2.3308629e-002
5.2534416e-004
2.2080390e-002
2.1842292e-002
1.2434199e-002
-2.3098351e-002
-6.7312770e-002
-1.1359516e-001
-1.5999486e-001
-2.0020773e-001
-2.3687764e-001
-2.5904500e-001
-2.7146235e-001
-2.5675559e-001
-2.3104785e-001
-1.9224805e-001
-1.6188978e-001
-1.5868592e-001
-1.7915060e-001
-2.3049779e-001
-2.8446764e-001
-3.3185405e-001
-3.6781982e-001
-3.9214054e-001
-4.1312799e-001
-4.3311059e-001
-4.3658403e-001
-4.2738417e-001
-3.9903855e-001
-3.6004534e-001
-3.4210959e-001
-3.3646667e-001
-3.4788281e-001
-3.6618769e-001
-3.6838499e-001
-3.6473316e-001
-3.6291748e-001
-3.6355603e-001
-3.7767878e-001
-3.9649248e-001
-4.1808286e-001
-4.3981850e-001
-4.6221754e-001
-4.8465711e-001
-5.0742853e-001
-5.2611220e-001
-5.3520238e-001
-5.3327745e-001
-5.1695281e-001
-4.9134049e-001
-4.5809096e-001
-4.2093670e-001
-3.8234550e-001
-3.4478512e-001
-3.0960971e-001
-2.7464458e-001
-2.3935698e-001
-2.2231299e-001
-2.1672255e-001
-2.5379914e-001
-3.1346521e-001
-3.6819792e-001
-4.1973004e-001
-4.1858292e-001
-3.9623284e-001
-3.6637977e-001
-3.3922121e-001
-3.5144851e-001
-3.8390365e-001
-4.4034323e-001
-5.0476217e-001
-5.6665891e-001
-6.2555897e-001
-6.7872614e-001
-7.1706802e-001
-7.2978622e-001
-7.0248991e-001
-6.2657434e-001
-5.4274035e-001
-4.7016278e-001
-4.6306279e-001
-5.2367991e-001
-6.1234438e-001
-7.0962954e-001
-7.7708775e-001
-8.1901330e-001
-8.3421773e-001
-8.3386666e-001
-8.2258040e-001
-8.0516320e-001
-8.0566645e-001
-8.1561881e-001
-8.5085422e-001
-8.9599341e-001
-9.1787273e-001
-9.2055190e-001
-8.7299252e-001
-8.0003458e-001
-7.1836144e-001
-6.5227443e-001
-6.4285189e-001
-6.7252344e-001
-7.3533720e-001
-8.0076963e-001
-8.4601200e-001
-8.6978489e-001
-8.7213045e-001
-8.6095542e-001
-8.4263176e-001
-8.0414402e-001
-7.4696428e-001
-6.7991418e-001
-6.0739321e-001
-5.4821348e-001
-5.0042355e-001
-4.5632443e-001
-4.1468120e-001
-3.8535863e-001
-3.6517906e-001
-3.4941372e-001
-3.3504748e-001
-2.9885289e-001
-2.4778369e-001
-1.7406100e-001
-8.4262460e-002
2.3040552e-002
1.2839790e-001
1.9410592e-001
2.1721864e-001
1.8028013e-001
1.2448980e-001
8.8938065e-002
3.0161869e-002
-7.9353258e-002
-1.7851429e-001
-2.3496649e-001
-2.1585622e-001
-1.2124328e-001
-3.9548464e-003
1.1180665e-001
1.2815051e-001
4.7852602e-002
-7.1345434e-002
-2.0580180e-001
-2.4345000e-001
-2.0329683e-001
-1.3131708e-001
-4.7246523e-002
-6.4165860e-002
-1.4587694e-001
-1.9165692e-001
-1.7860401e-001
3.8321614e-002
4.5456889e-001
1.1157048e+000
1.8942549e+000
2.6112247e+000
3.2839384e+000
3.9360561e+000
4.7409735e+000
5.8600082e+000
7.5351629e+000
9.8822660e+000
1.3044100e+001
1.6966715e+001
2.0944679e+001
2.4655190e+001
2.8014605e+001
3.1075748e+001
3.4711578e+001
3.9001701e+001
4.4181427e+001
5.0066681e+001
5.5291565e+001
5.9882015e+001
6.4241669e+001
6.8507515e+001
7.3472054e+001
7.8945213e+001
8.4304749e+001
8.9415436e+001
9.3805519e+001
9.7516922e+001
1.0058914e+002
1.0301514e+002
1.0478800e+002
1.0570540e+002
1.0556300e+002
1.0420332e+002
1.0160107e+002
9.8317322e+001
9.4869812e+001
9.1163055e+001
8.7182602e+001
8.2552902e+001
7.7198341e+001
7.1874397e+001
6.6830811e+001
6.2260479e+001
5.8142128e+001
5.4040882e+001
4.9887707e+001
4.5891968e+001
4.2063004e+001
3.8497829e+001
3.5212265e+001
3.2306911e+001
2.9797091e+001
2.7680994e+001
2.5946087e+001
2.4484272e+001
2.3306303e+001
2.2386864e+001
2.1724171e+001
2.1273499e+001
2.1021259e+001
2.0920553e+001
2.0957102e+001
2.1097420e+001
2.1330015e+001
2.1636120e+001
2.2007410e+001
2.2434879e+001
2.2978207e+001
2.3656286e+001
2.4501989e+001
2.5517517e+001
2.6633863e+001
2.7831841e+001
2.9062521e+001
3.0323540e+001
3.1770929e+001
3.3497776e+001
3.6117455e+001
3.9686169e+001
4.3579590e+001
4.7568642e+001
5.0648632e+001
5.2868176e+001
5.4795998e+001
5.6453423e+001
5.7980381e+001
5.9101540e+001
5.9432629e+001
5.8919029e+001
5.7635006e+001
5.5926994e+001
5.4211540e+001
5.2513504e+001
5.0851849e+001
4.9085640e+001
4.7123878e+001
4.4896618e+001
4.2349861e+001
3.9838215e+001
3.7481617e+001
3.5259239e+001
3.3193737e+001
3.0713272e+001
2.7679993e+001
2.4623362e+001
2.1597042e+001
1.9020903e+001
1.6942030e+001
1.4878858e+001
1.2828513e+001
1.0762791e+001
8.6996784e+000
6.6860733e+000
4.7845535e+000
3.0876222e+000
1.6941738e+000
7.0154548e-001
1.4108238e-001
3.7211336e-002
4.5525765e-001
1.3368909e+000
2.3723271e+000
3.3619046e+000
4.1851459e+000
4.7475171e+000
5.2113109e+000
5.6291380e+000
6.0293479e+000
6.4131398e+000
6.7063184e+000
6.8549223e+000
6.8982205e+000
6.7894168e+000
6.6223140e+000
6.3757119e+000
6.1090240e+000
5.8148189e+000
5.4961033e+000
5.1280575e+000
4.6604238e+000
4.0895801e+000
3.4825478e+000
2.8871760e+000
2.4172993e+000
2.1041434e+000
1.9688188e+000
1.9964160e+000
2.1520658e+000
2.3774228e+000
2.6127789e+000
2.8439438e+000
3.0640230e+000
3.2985263e+000
3.5706294e+000
3.8794143e+000
4.2389669e+000
4.6259441e+000
5.0481458e+000
5.4508142e+000
5.8067155e+000
6.0808749e+000
6.2068443e+000
6.2287631e+000
6.0826049e+000
5.8293586e+000
5.4316249e+000
4.9883704e+000
4.5022860e+000
4.0395861e+000
3.6134019e+000
3.2272019e+000
2.8796785e+000
2.5509896e+000
2.2149436e+000
1.8271691e+000
1.3967848e+000
9.3102002e-001
5.0120312e-001
2.0022263e-001
1.3220828e-002
-1.2522160e-002
3.2655574e-002
1.3960752e-001
2.7430356e-001
4.4079959e-001
6.3000685e-001
8.6184025e-001
1.0944301e+000
1.3217571e+000
1.5218152e+000
1.6690980e+000
1.8167419e+000
1.9706857e+000
2.1591699e+000
2.4035640e+000
2.6858926e+000
3.0165110e+000
3.3622460e+000
3.7133801e+000
4.0301781e+000
4.3009510e+000
4.5147023e+000
4.6736207e+000
4.7851272e+000
4.8522115e+000
4.8649583e+000
4.8386655e+000
4.7659898e+000
4.6777000e+000
4.5859318e+000
4.5022063e+000
4.4414458e+000
4.3882160e+000
4.3458390e+000
4.3066158e+000
4.2737150e+000
4.2488976e+000
4.2429452e+000
4.2494783e+000
4.2821217e+000
4.3291535e+000
4.4017110e+000
4.4867373e+000
4.5889144e+000
4.6966553e+000
4.8074713e+000
4.9089541e+000
4.9972224e+000
5.0680113e+000
5.1253757e+000
5.1821418e+000
5.2408123e+000
5.3079271e+000
5.3764749e+000
5.4346719e+000
5.4802723e+000
5.4960675e+000
5.4869475e+000
5.4230042e+000
5.3217769e+000
5.1323600e+000
4.9044890e+000
4.5804429e+000
4.2304544e+000
3.8131251e+000
3.3836048e+000
2.9265454e+000
2.4732819e+000
2.0312514e+000
1.6140492e+000
1.2433493e+000
9.1214013e-001
6.3817918e-001
3.9203858e-001
1.7767124e-001
-2.7637228e-002
-2.2001651e-001
-3.9045629e-001
-5.3464288e-001
-6.3341200e-001
-6.9682711e-001
-7.1980202e-001
-7.1778631e-001
-6.8591833e-001
-6.3239908e-001
-5.3017443e-001
-3.9755794e-001
-1.8581215e-001
5.6073993e-002
3.7640309e-001
7.0294350e-001
1.0338353e+000
1.3344611e+000
1.5395836e+000
1.7023920e+000
1.7602561e+000
1.7899234e+000
1.7608171e+000
1.7024114e+000
1.5916737e+000
1.4409177e+000
1.2353874e+000
1.0058756e+000
7.5399852e-001
5.1516461e-001
2.9768446e-001
1.3828079e-001
3.2394033e-002
7.8633446e-003
3.7580773e-002
1.6254114e-001
3.3080328e-001
5.3531224e-001
7.4084014e-001
8.9995748e-001
1.0352817e+000
1.0881640e+000
1.1278381e+000
1.1378386e+000
1.1564355e+000
1.2135354e+000
1.2842492e+000
1.3971480e+000
1.5057601e+000
1.6001714e+000
1.6617529e+000
1.6572572e+000
1.6252373e+000
1.5534286e+000
1.4964843e+000
1.4625521e+000
1.4650103e+000
1.5043257e+000
1.5562736e+000
1.6154548e+000
1.6574514e+000
1.6835177e+000
1.6679670e+000
1.6251729e+000
1.5202818e+000
1.3917909e+000
1.2384262e+000
1.0837649e+000
9.5966125e-001
8.4412920e-001
7.6325279e-001
6.9001895e-001
6.5542954e-001
6.3022369e-001
6.4567757e-001
6.6057640e-001
6.7216957e-001
6.6511971e-001
6.1214322e-001
5.4256898e-001
4.4228309e-001
3.4045610e-001
2.3686133e-001
1.3849270e-001
4.7227405e-002
-3.2166671e-002
-1.0157873e-001
-1.7692289e-001
-2.5971320e-001
-3.7785560e-001
-5.1395780e-001
-6.4500582e-001
-7.6822662e-001
-8.2777369e-001
-8.6894941e-001
-8.9609319e-001
-9.2535549e-001
-1.0058736e+000
-1.0904193e+000
-1.1717557e+000
-1.2463729e+000
-1.2749429e+000
-1.3018790e+000
-1.3223214e+000
-1.3456470e+000
-1.3771045e+000
-1.3989135e+000
-1.3978974e+000
-1.3772900e+000
-1.3226988e+000
-1.2669801e+000
-1.2103260e+000
-1.1631094e+000
-1.1254143e+000
-1.0816867e+000
-1.0328212e+000
-9.7971159e-001
-9.2390072e-001
-8.6958247e-001
-8.1586123e-001
-7.6118857e-001
-7.0576495e-001
-6.3914162e-001
-5.6910461e-001
-4.7495398e-001
-3.7771079e-001
-2.7560061e-001
-1.7227539e-001
-5.6519676e-002
2.5398508e-003
7.9147890e-002
2.3414794e-001
4.1790122e-001
5.8529288e-001
7.0444918e-001
8.0568510e-001
8.6890244e-001
9.3660450e-001
1.0114279e+000
1.0825400e+000
1.1487887e+000
1.1798761e+000
1.1775666e+000
1.1176628e+000
1.0167924e+000
8.8397866e-001
7.3504710e-001
6.4508414e-001
5.7886100e-001
6.3230675e-001
7.1776009e-001
8.9490926e-001
1.0868721e+000
1.2771000e+000
