##TITLE=Methyl Ethyl Ketone
##JCAMP-DX=4.24
##DATA TYPE=INFRARED SPECTRUM
##XUNITS=cm-1
##YUNITS=Absorbance
##FIRSTX=900
##LASTX=2300
##XYDATA=(X++(Y..Y))
2296 0.10584
2294 0.10803685
2292 0.11024369
2290 0.11244058
2288 0.11464737
2286 0.11684429
2284 0.11905106
2282 0.121248
2280 0.12345474
2278 0.12565172
2276 0.12785843
2274 0.13005543
2272 0.13226213
2270 0.13445914
2268 0.13666581
2266 0.13886285
2264 0.14106949
2262 0.14326656
2260 0.14547317
2258 0.14767028
2256 0.14987686
2254 0.15207401
2252 0.15428054
2250 0.15647772
2248 0.15868422
2246 0.16088143
2244 0.022782296
2242 0.008454279
2240 -0.0037860277
2238 0.084175974
2236 0.18683453
2234 0.29613051
2232 0.401858
2230 0.41731435
2228 0.41193163
2226 0.2741175
2224 0.12303863
2222 -0.058417693
2220 -0.20656252
2218 -0.24856094
2216 -0.25011742
2214 -0.17637615
2212 -0.1297438
2210 -0.13458733
2208 -0.20252617
2206 -0.34516141
2204 -0.49146679
2202 -0.63663417
2200 -0.72551483
2198 -0.7723344
2196 -0.78111213
2194 -0.76960844
2192 -0.76160675
2190 -0.75576234
2188 -0.77969342
2186 -0.81323361
2184 -0.85794556
2182 -0.90505761
2180 -0.91493565
2178 -0.91884983
2176 -0.89360571
2174 -0.86517531
2172 -0.83090848
2170 -0.80125707
2168 -0.80151016
2166 -0.82440603
2164 -0.91948324
2162 -1.0203463
2160 -1.1176674
2158 -1.1663122
2156 -1.12308
2154 -1.0532826
2152 -0.95879775
2150 -0.92446345
2148 -0.96087128
2146 -1.0404117
2144 -1.1514686
2142 -1.172088
2140 -1.1276051
2138 -0.98927212
2136 -0.80348545
2134 -0.72940218
2132 -0.70408177
2130 -0.85870939
2128 -1.0692688
2126 -1.2966442
2124 -1.5270323
2122 -1.6897346
2120 -1.8380195
2118 -1.9183983
2116 -1.9799471
2114 -1.9720399
2112 -1.9483331
2110 -1.8982743
2108 -1.8350884
2106 -1.7439471
2104 -1.6254725
2102 -1.4562272
2100 -1.263312
2098 -1.0434942
2096 -0.84196573
2094 -0.67001981
2092 -0.61917192
2090 -0.68928057
2088 -0.90457863
2086 -1.224905
2084 -1.4704564
2082 -1.6569386
2080 -1.6207869
2078 -1.4719191
2076 -1.2927785
2074 -1.106837
2072 -1.063424
2070 -1.0663346
2068 -1.1496911
2066 -1.2530322
2064 -1.3759874
2062 -1.500191
2060 -1.5896592
2058 -1.656305
2056 -1.6352
2054 -1.5814528
2052 -1.4754868
2050 -1.3534831
2048 -1.2198092
2046 -1.1064929
2044 -1.0389659
2042 -1.0418246
2040 -1.1352577
2038 -1.2581168
2036 -1.39245
2034 -1.4600686
2032 -1.4614422
2030 -1.396239
2028 -1.289708
2026 -1.1801828
2024 -1.0745194
2022 -1.0056015
2020 -0.95635474
2018 -0.91579211
2016 -0.87644398
2014 -0.83268613
2012 -0.7852177
2010 -0.84591639
2008 -0.93990397
2006 -1.1251403
2004 -1.3219372
2002 -1.4427431
2000 -1.5193788
1998 -1.4974403
1996 -1.4497072
1994 -1.4052836
1992 -1.3893241
1990 -1.4264151
1988 -1.475286
1986 -1.5099021
1984 -1.4928417
1982 -1.4088939
1980 -1.2946148
1978 -1.1684105
1976 -1.0661457
1974 -0.99143928
1972 -0.88598228
1970 -0.75488341
1968 -0.58375919
1966 -0.38980258
1964 -0.30687612
1962 -0.28134605
1960 -0.39648882
1958 -0.56885332
1956 -0.78692311
1954 -1.0156369
1952 -1.1551257
1950 -1.247221
1948 -1.2023743
1946 -1.1181
1944 -1.0481937
1942 -1.0092111
1940 -1.0281475
1938 -1.0599751
1936 -1.0706972
1934 -1.057687
1932 -1.022238
1930 -0.96248841
1928 -0.8871932
1926 -0.74985307
1924 -0.54504603
1922 -0.27785131
1920 0.044668466
1918 0.25962663
1916 0.37814015
1914 0.38569167
1912 0.32393241
1910 0.30132201
1908 0.3086749
1906 0.25836819
1904 0.1760288
1902 0.024432551
1900 -0.1540738
1898 -0.20940067
1896 -0.20575428
1894 -0.099983282
1892 0.027855713
1890 0.05446367
1888 -0.0029192232
1886 -0.2336641
1884 -0.54165959
1882 -0.88370705
1880 -1.1887499
1878 -1.3890656
1876 -1.44929
1874 -1.3393644
1872 -1.0687593
1870 -0.65344757
1868 -0.30636743
1866 -0.075109273
1864 -0.11889147
1862 -0.3946242
1860 -0.69454503
1858 -0.97158366
1856 -1.0658087
1854 -1.033396
1852 -0.81446743
1850 -0.496584
1848 -0.076928191
1846 0.38189447
1844 0.5783599
1842 0.61692816
1840 0.30157846
1838 -0.16633132
1836 -0.59099227
1834 -0.94186449
1832 -1.0788521
1830 -1.0690825
1828 -0.85504866
1826 -0.6003896
1824 -0.42277205
1822 -0.39219555
1820 -0.60991597
1818 -0.91216737
1816 -1.2198428
1814 -1.4204803
1812 -1.4761699
1810 -1.4479406
1808 -1.3698308
1806 -1.27106
1804 -1.1637031
1802 -0.98264211
1800 -0.74687833
1798 -0.44292569
1796 -0.097417414
1794 0.16787833
1792 0.38504118
1790 0.41801107
1788 0.35509706
1786 0.23749386
1784 0.10863674
1782 0.066357329
1780 0.11291641
1778 0.37951818
1776 0.78490543
1774 1.2775888
1772 1.6720346
1770 1.6811478
1768 1.4001571
1766 0.90082276
1764 0.43404379
1762 0.19412793
1760 0.052761547
1758 -0.10603832
1756 -0.15288229
1754 -0.034397647
1752 0.43097246
1750 1.2341098
1748 2.1304715
1746 3.0263178
1744 3.4283628
1742 3.3875439
1740 3.1455991
1738 2.802048
1736 2.73804
1734 2.8824208
1732 2.8147783
1730 2.5727143
1728 1.863152
1726 0.90152025
1724 0.19600396
1722 -0.20241554
1720 0.098389268
1718 1.0048432
1716 2.4942441
1714 4.1091037
1712 5.2932196
1710 6.1848021
1708 6.8762422
1706 7.8070612
1704 9.3298368
1702 11.681486
1700 14.956569
1698 18.631863
1696 22.421429
1694 25.589781
1692 27.923294
1690 30.071743
1688 32.246902
1686 35.316486
1684 39.280098
1682 43.739803
1680 48.53368
1678 52.527367
1676 55.821754
1674 59.227448
1672 62.784874
1670 66.937119
1668 71.504242
1666 75.944855
1664 80.262276
1662 84.364685
1660 88.250267
1658 91.852913
1656 95.16172
1654 98.131966
1652 100.59294
1650 102.39093
1648 102.91497
1646 101.83107
1644 99.688324
1642 96.995987
1640 94.042656
1638 90.981339
1636 87.293472
1634 82.857567
1632 78.144188
1630 73.369247
1628 68.978088
1626 64.997704
1624 60.928921
1622 56.698772
1620 52.452312
1618 48.21373
1616 44.144112
1614 40.274628
1612 36.734184
1610 33.575851
1608 30.913948
1606 28.722929
1604 26.852112
1602 25.282564
1600 23.924011
1598 22.803036
1596 21.9165
1594 21.266287
1592 20.826937
1590 20.552942
1588 20.385157
1586 20.355585
1584 20.46068
1582 20.78743
1580 21.354776
1578 22.252342
1576 23.503
1574 24.954109
1572 26.573992
1570 28.007381
1568 29.18708
1566 30.177422
1564 30.985689
1562 32.133377
1560 33.74641
1558 36.455803
1556 40.175529
1554 43.62368
1552 46.626884
1550 48.612274
1548 49.791157
1546 51.038322
1544 52.373722
1542 53.836063
1540 54.923859
1538 55.044899
1536 54.229515
1534 52.666763
1532 50.906773
1530 49.404114
1528 48.119534
1526 47.013351
1524 45.86208
1522 44.561073
1520 42.834354
1518 40.606033
1516 38.325802
1514 36.121372
1512 34.1884
1510 32.53455
1508 30.435085
1506 27.709278
1504 24.765486
1502 21.671667
1500 19.080004
1498 17.057581
1496 15.100714
1494 13.195856
1492 11.297866
1490 9.4088707
1488 7.5818343
1486 5.8001938
1484 4.0017419
1482 2.3593502
1480 1.050076
1478 0.21805146
1476 0.0015992709
1474 0.39157873
1472 1.3747063
1470 2.3765521
1468 3.064038
1466 3.5342765
1464 3.7421205
1462 4.0524898
1460 4.6331229
1458 5.3415194
1456 6.1957397
1454 6.7154574
1452 6.7352076
1450 6.5197453
1448 6.0067282
1446 5.4697571
1444 4.9031553
1442 4.392508
1440 3.9718692
1438 3.7379389
1436 3.6808772
1434 3.6547773
1432 3.5886698
1430 3.3450847
1428 3.000412
1426 2.7078729
1424 2.5456576
1422 2.5979784
1420 2.7881181
1418 3.0469284
1416 3.2703857
1414 3.3602891
1412 3.4164734
1410 3.4472659
1408 3.5415583
1406 3.7566621
1404 4.0706463
1402 4.5526118
1400 5.0931282
1398 5.7125754
1396 6.2196069
1394 6.5188303
1392 6.6112251
1390 6.4075308
1388 6.1245322
1386 5.73738
1384 5.3342352
1382 4.9192557
1380 4.5501637
1378 4.2418694
1376 4.0149827
1374 3.8258832
1372 3.5903261
1370 3.2797453
1368 2.8484726
1366 2.3523858
1364 1.8509769
1362 1.3697985
1360 0.97328991
1358 0.64948666
1356 0.41613656
1354 0.25053486
1352 0.12740399
1350 0.034700632
1348 -0.022326216
1346 -0.024552174
1344 0.12217165
1342 0.36372334
1340 0.76442897
1338 1.0955946
1336 1.2747315
1334 1.2614033
1332 0.97411621
1330 0.69291377
1328 0.45541227
1326 0.36068243
1324 0.45523557
1322 0.68359017
1320 1.0567145
1318 1.4987583
1316 1.96787
1314 2.3320234
1312 2.5655279
1310 2.5990613
1308 2.4907055
1306 2.2946043
1304 2.0676541
1302 1.878497
1300 1.7336649
1298 1.6863818
1296 1.6964571
1294 1.7948498
1292 1.9179466
1290 2.0616381
1288 2.186568
1286 2.2592185
1284 2.2955637
1282 2.2560782
1280 2.2140377
1278 2.1762979
1276 2.1948085
1274 2.317713
1272 2.5020545
1270 2.7738812
1268 3.0430477
1266 3.3065515
1264 3.5377388
1262 3.7467611
1260 3.9811358
1258 4.2524242
1256 4.5748401
1254 4.9417553
1252 5.3267021
1250 5.729353
1248 6.1519389
1246 6.58145
1244 7.011538
1242 7.4183455
1240 7.7546864
1238 8.0387449
1236 8.2127161
1234 8.3300104
1232 8.3251877
1230 8.2714081
1228 8.0962114
1226 7.8909402
1224 7.6060371
1222 7.2958646
1220 6.9250917
1218 6.5211358
1216 6.0516429
1214 5.5602689
1212 5.0331812
1210 4.5071049
1208 3.9856863
1206 3.4801536
1204 2.999378
1202 2.5467985
1200 2.1229887
1198 1.7180244
1196 1.3205372
1194 0.90119845
1192 0.47074449
1190 0.045844376
1188 -0.35530072
1186 -0.66699177
1184 -0.92999995
1182 -1.1124212
1180 -1.2480162
1178 -1.2706294
1176 -1.22416
1174 -0.96278942
1172 -0.67466116
1170 -0.33157104
1168 -0.045186285
1166 0.071105115
1164 0.15187494
1162 0.14942549
1160 0.16080584
1158 0.19567566
1156 0.21656114
1154 0.21123825
1152 0.18528005
1150 0.13299817
1148 0.086357713
1146 0.047054037
1144 0.015726568
1142 -0.0043687792
1140 -0.0048129009
1138 0.0044549378
1136 0.0079671452
1134 0.010800881
1132 0.049897894
1130 0.12385732
1128 0.30597097
1126 0.52975261
1124 0.81453967
1122 1.1009912
1120 1.3401
1118 1.5721161
1116 1.7905285
1114 2.0194035
1112 2.291764
1110 2.5534585
1108 2.7776372
1106 2.9609799
1104 3.0464892
1102 3.1357729
1100 3.2417121
1098 3.4189935
1096 3.7081714
1094 4.0280175
1092 4.385644
1090 4.7450628
1088 5.1098099
1086 5.4977322
1084 5.8902178
1082 6.1945801
1080 6.4247313
1078 6.5028996
1076 6.5110731
1074 6.5064702
1072 6.5088415
1070 6.5862947
1068 6.6789217
1066 6.7560678
1064 6.8215361
1062 6.8140497
1060 6.8127747
1058 6.8768339
1056 6.9764056
1054 7.2303734
1052 7.491034
1050 7.766717
1048 7.9842963
1046 8.0604792
1044 8.0965157
1042 8.0633945
1040 8.0573759
1038 8.0924768
1036 8.1411304
1034 8.197114
1032 8.180047
1030 8.0789833
1028 7.7922091
1026 7.3671236
1024 6.8280621
1022 6.2343659
1020 5.6842651
1018 5.1503935
1016 4.6022086
1014 4.0447717
1012 3.4286239
1010 2.8028469
1008 2.18418
1006 1.5769857
1004 1.099087
1002 0.65818805
1000 0.46318206
998 0.28724435
996 0.19290221
994 0.064461738
992 -0.16842663
990 -0.41197681
988 -0.67876661
986 -0.93653601
984 -1.1805131
982 -1.4272801
980 -1.6736519
978 -1.8319418
976 -1.8931344
974 -1.8503911
972 -1.7255635
970 -1.6150666
968 -1.5148355
966 -1.42452
964 -1.3363029
962 -1.1935959
960 -1.0318245
958 -0.85524803
956 -0.67781705
954 -0.56764567
952 -0.46609241
950 -0.38240778
948 -0.29169363
946 -0.096136391
944 0.0054202229
942 0.16221192
940 0.28237653
938 0.24593049
936 0.22786772
934 0.26347259
932 0.32694158
930 0.44749546
928 0.47550806
926 0.35656261
924 0.277031
922 0.24914634
920 0.46365818
918 0.90320355
916 1.3341872
914 1.7576033
912 2.020925
910 2.2003119
908 2.6216784
906 3.1333649
904 3.8697338
902 4.6600442
900 4.9963508
898 5.2582512
896 5.2244
