Image.
>Pix99999.
  .
5555
5555
2300
900
5555
2
1
0
701
5555
9.1695003e-003
9.3602268e-003
9.5510539e-003
9.7417813e-003
9.9325087e-003
1.0123633e-002
1.0314363e-002
1.0505090e-002
1.0695817e-002
1.0886544e-002
1.1077271e-002
1.1267998e-002
1.1458726e-002
1.1649452e-002
1.1840180e-002
1.2030907e-002
1.2221634e-002
1.2412361e-002
1.2603088e-002
1.2793816e-002
1.2984542e-002
1.3175270e-002
1.3365997e-002
1.3556724e-002
1.3747452e-002
1.3938179e-002
5.2453931e-003
1.8937800e-004
-3.0803518e-002
-5.3934760e-002
-7.5843304e-002
-8.2073785e-002
-8.7077074e-002
-8.9734785e-002
-9.8829828e-002
-1.6065040e-001
-2.3064046e-001
-3.2609499e-001
-4.1034791e-001
-4.5651412e-001
-4.8129687e-001
-4.6404737e-001
-4.1944319e-001
-3.3422589e-001
-2.3808645e-001
-1.3142942e-001
-7.2373778e-002
-5.9768293e-002
-1.0181703e-001
-1.8241040e-001
-2.3962714e-001
-2.8192663e-001
-2.6080662e-001
-2.1232297e-001
-1.6480348e-001
-1.1815614e-001
-1.3945879e-001
-1.7636119e-001
-2.4740030e-001
-3.2278633e-001
-3.4698856e-001
-3.6404163e-001
-3.5358849e-001
-3.4797099e-001
-3.8526297e-001
-4.3033499e-001
-4.8867643e-001
-5.3644067e-001
-5.5364829e-001
-5.6322300e-001
-5.6411099e-001
-5.6922287e-001
-5.8177686e-001
-5.8542514e-001
-5.7819593e-001
-5.4045284e-001
-4.7677675e-001
-4.1210160e-001
-3.4869123e-001
-3.4555116e-001
-3.7511027e-001
-4.4202453e-001
-5.2310807e-001
-5.9522802e-001
-6.6401559e-001
-7.2281176e-001
-7.7943754e-001
-8.3690119e-001
-8.9700800e-001
-1.0036719e+000
-1.1079443e+000
-1.1436460e+000
-1.1277177e+000
-9.2651045e-001
-7.0038331e-001
-4.8111308e-001
-3.2806143e-001
-3.1916618e-001
-3.6243659e-001
-4.5763287e-001
-5.5680853e-001
-6.5147549e-001
-7.4640512e-001
-8.4228224e-001
-9.2405045e-001
-9.9352252e-001
-1.0143920e+000
-1.0041012e+000
-9.4353724e-001
-8.5892212e-001
-8.0032200e-001
-7.5385696e-001
-7.7012444e-001
-8.0642217e-001
-8.2084608e-001
-8.2991457e-001
-8.2592380e-001
-8.2498157e-001
-8.7388968e-001
-9.2969900e-001
-9.6920204e-001
-9.8848230e-001
-9.4892514e-001
-8.9466429e-001
-8.3501142e-001
-7.9439926e-001
-7.9412562e-001
-8.2431191e-001
-8.8650268e-001
-9.5723200e-001
-1.0282124e+000
-1.0783037e+000
-1.1086274e+000
-1.1223670e+000
-1.1273109e+000
-1.1171036e+000
-1.0991914e+000
-1.0063771e+000
-8.7583864e-001
-7.3565978e-001
-5.9239000e-001
-6.2116104e-001
-7.0624310e-001
-8.6302030e-001
-1.0284781e+000
-1.0555193e+000
-1.0374966e+000
-9.5717037e-001
-8.7313300e-001
-8.4962052e-001
-8.4832215e-001
-8.7294108e-001
-8.9806145e-001
-9.0236294e-001
-9.0384823e-001
-8.9940947e-001
-9.1635060e-001
-9.6529049e-001
-1.0326465e+000
-1.1165341e+000
-1.1443686e+000
-1.1192880e+000
-9.8945820e-001
-7.8939021e-001
-5.9110892e-001
-4.0181199e-001
-3.8348106e-001
-4.5206550e-001
-6.2977642e-001
-8.4942794e-001
-1.0156794e+000
-1.1582557e+000
-1.2355435e+000
-1.2872934e+000
-1.3271271e+000
-1.3677001e+000
-1.4262583e+000
-1.4969414e+000
-1.5608140e+000
-1.6198407e+000
-1.6646628e+000
-1.7043605e+000
-1.7529320e+000
-1.7994881e+000
-1.8494577e+000
-1.8444129e+000
-1.7728626e+000
-1.6005567e+000
-1.3325765e+000
-1.0963470e+000
-8.9921439e-001
-7.9801339e-001
-7.6407665e-001
-7.6270264e-001
-7.7715564e-001
-8.8983864e-001
-1.0532408e+000
-1.2133439e+000
-1.3661472e+000
-1.3019291e+000
-1.1439000e+000
-9.0107262e-001
-6.5508270e-001
-5.9552401e-001
-6.6070956e-001
-9.3793112e-001
-1.2984449e+000
-1.6681395e+000
-1.9883028e+000
-2.1936476e+000
-2.2882400e+000
-2.2695675e+000
-2.1245074e+000
-1.8559897e+000
-1.5573525e+000
-1.2479265e+000
-1.1045051e+000
-1.1205770e+000
-1.2587706e+000
-1.4774088e+000
-1.6993971e+000
-1.9185693e+000
-2.0368462e+000
-2.0960290e+000
-1.9746159e+000
-1.7626250e+000
-1.5840123e+000
-1.4429408e+000
-1.5316184e+000
-1.7242886e+000
-1.9356201e+000
-2.1092021e+000
-2.0957868e+000
-1.9425464e+000
-1.5704120e+000
-1.1602100e+000
-8.5981566e-001
-7.4138147e-001
-9.1612840e-001
-1.1994244e+000
-1.4947115e+000
-1.6733859e+000
-1.6875408e+000
-1.6047055e+000
-1.4651000e+000
-1.3216050e+000
-1.1897802e+000
-1.0501895e+000
-9.0943396e-001
-7.6955014e-001
-6.3340282e-001
-4.9734941e-001
-3.4944999e-001
-2.1819243e-001
-8.4596097e-002
2.4684556e-003
6.9558792e-002
1.1741759e-001
1.7924237e-001
3.6246508e-001
6.3444197e-001
1.0053911e+000
1.3220074e+000
1.3609773e+000
1.1659538e+000
7.5593388e-001
3.5833460e-001
1.5105943e-001
3.8879141e-002
-6.6035360e-002
-9.2722759e-002
-1.5184078e-002
2.7748257e-001
7.7579224e-001
1.3071563e+000
1.8150786e+000
1.9795645e+000
1.8449799e+000
1.6330457e+000
1.4011252e+000
1.4445000e+000
1.6868393e+000
1.7883195e+000
1.7662394e+000
1.3202834e+000
6.3357526e-001
9.8557338e-002
-2.1372443e-001
1.0200796e-001
9.8331738e-001
2.4272184e+000
3.9720798e+000
5.0384560e+000
5.7482142e+000
6.1804080e+000
6.7592721e+000
7.8359146e+000
9.6932220e+000
1.2463831e+001
1.5877607e+001
1.9741428e+001
2.3260962e+001
2.6144554e+001
2.8745171e+001
3.1204634e+001
3.4378101e+001
3.8304764e+001
4.2731064e+001
4.7514080e+001
5.1511189e+001
5.4815659e+001
5.8190548e+001
6.1697041e+001
6.5901436e+001
7.0611160e+001
7.5268799e+001
7.9829605e+001
8.4074814e+001
8.8012733e+001
9.1598885e+001
9.4878456e+001
9.7903900e+001
1.0052680e+002
1.0260943e+002
1.0340240e+002
1.0239500e+002
1.0014857e+002
9.7214928e+001
9.4018211e+001
9.0809509e+001
8.7159859e+001
8.2956917e+001
7.8570496e+001
7.4164902e+001
7.0026810e+001
6.6167404e+001
6.2132839e+001
5.7870625e+001
5.3569046e+001
4.9260178e+001
4.5147827e+001
4.1267090e+001
3.7787067e+001
3.4741909e+001
3.2161953e+001
3.0018692e+001
2.8152456e+001
2.6571075e+001
2.5248709e+001
2.4201147e+001
2.3403999e+001
2.2827221e+001
2.2402983e+001
2.2102600e+001
2.1887983e+001
2.1814306e+001
2.1899748e+001
2.2198912e+001
2.2712952e+001
2.3505808e+001
2.4591543e+001
2.5874592e+001
2.7336218e+001
2.8695084e+001
2.9898439e+001
3.0948492e+001
3.1842337e+001
3.2915825e+001
3.4261444e+001
3.6465942e+001
3.9499413e+001
4.2566860e+001
4.5523258e+001
4.7719677e+001
4.9284103e+001
5.0784679e+001
5.2232491e+001
5.3691074e+001
5.4751122e+001
5.4952641e+001
5.4292973e+001
5.2907337e+001
5.1292931e+001
4.9878002e+001
4.8635849e+001
4.7538700e+001
4.6347366e+001
4.4940971e+001
4.3154488e+001
4.0952358e+001
3.8723915e+001
3.6581650e+001
3.4521881e+001
3.2496506e+001
2.9970442e+001
2.6788179e+001
2.3640743e+001
2.0647848e+001
1.8212486e+001
1.6398001e+001
1.4604428e+001
1.2814279e+001
1.1003665e+001
9.1716881e+000
7.3705001e+000
5.6101608e+000
3.8912401e+000
2.3624001e+000
1.1637256e+000
3.7787753e-001
6.0814716e-002
2.0193255e-001
8.5058701e-001
1.6237450e+000
2.2293758e+000
2.6998508e+000
2.9753931e+000
3.2944586e+000
3.7575538e+000
4.3036518e+000
4.9577799e+000
5.4225478e+000
5.6111283e+000
5.6223555e+000
5.3990436e+000
5.1020069e+000
4.7014432e+000
4.2956161e+000
3.8923457e+000
3.5920448e+000
3.3825428e+000
3.1940875e+000
2.9894910e+000
2.7070408e+000
2.4160981e+000
2.2222250e+000
2.1757057e+000
2.3103004e+000
2.5480680e+000
2.8111916e+000
3.0352600e+000
3.1618130e+000
3.2784286e+000
3.4011941e+000
3.5598044e+000
3.7681680e+000
4.0131230e+000
4.3323150e+000
4.6913280e+000
5.1174164e+000
5.4824500e+000
5.7339540e+000
5.8360801e+000
5.7251644e+000
5.5277677e+000
5.2097950e+000
4.8521957e+000
4.4504733e+000
4.0815949e+000
3.7589393e+000
3.5089228e+000
3.3128431e+000
3.1365740e+000
2.9677598e+000
2.7651954e+000
2.5291858e+000
2.2180214e+000
1.8298767e+000
1.3737633e+000
9.1217160e-001
5.2286929e-001
2.3275483e-001
8.2288720e-002
3.9844168e-003
-2.5430810e-002
-7.0281319e-002
-3.9573643e-002
5.9306324e-002
2.8066224e-001
4.9871767e-001
7.0427489e-001
7.9646134e-001
7.3690814e-001
6.5204424e-001
5.5133021e-001
5.3653604e-001
6.3903528e-001
8.6295187e-001
1.2194257e+000
1.6354399e+000
2.0717201e+000
2.4045813e+000
2.6176698e+000
2.6708472e+000
2.6182787e+000
2.5176806e+000
2.4016395e+000
2.3075390e+000
2.2178943e+000
2.1287787e+000
2.0328286e+000
1.9320784e+000
1.8466474e+000
1.8121823e+000
1.8055640e+000
1.8571249e+000
1.8964689e+000
1.8998588e+000
1.8784028e+000
1.8089561e+000
1.7677057e+000
1.7816960e+000
1.8629040e+000
2.0504055e+000
2.2788460e+000
2.5628049e+000
2.8351462e+000
3.0990100e+000
3.3553259e+000
3.6145842e+000
3.9111030e+000
4.2474051e+000
4.6239243e+000
5.0250416e+000
5.4225621e+000
5.7972250e+000
6.1083417e+000
6.3723307e+000
6.5650787e+000
6.7398100e+000
6.9177656e+000
7.0947495e+000
7.2636600e+000
7.3801713e+000
7.3262353e+000
7.2006197e+000
6.8816729e+000
6.5318232e+000
6.1108336e+000
5.6774817e+000
5.2208943e+000
4.7597427e+000
4.2945223e+000
3.8521597e+000
3.4438932e+000
3.0549693e+000
2.6799002e+000
2.2657523e+000
1.8061023e+000
1.2978867e+000
7.6538074e-001
2.8049755e-001
-1.4463803e-001
-4.3160689e-001
-6.3084781e-001
-7.1696496e-001
-7.6352310e-001
-7.9849565e-001
-8.2767427e-001
-8.4689099e-001
-8.4463000e-001
-7.6250803e-001
-6.6263890e-001
-5.0935417e-001
-3.5473961e-001
-1.9244888e-001
-2.4926543e-002
1.5575489e-001
3.4105423e-001
5.3147817e-001
7.0251304e-001
8.3272445e-001
9.0300488e-001
8.8188362e-001
7.7683622e-001
5.8144075e-001
3.6245644e-001
1.4449725e-001
3.3699051e-002
1.5299238e-002
1.1363121e-001
2.7879590e-001
5.4350996e-001
8.5182589e-001
1.1872561e+000
1.5321735e+000
1.8860445e+000
2.2442906e+000
2.6180961e+000
2.9949989e+000
3.3809543e+000
3.7500339e+000
4.0441513e+000
4.2923803e+000
4.3958702e+000
4.4842000e+000
4.5414000e+000
4.6435628e+000
4.8359132e+000
5.0645051e+000
5.3467426e+000
5.6226158e+000
5.8923764e+000
6.1719441e+000
6.4699254e+000
6.8298359e+000
7.2420826e+000
7.6954393e+000
8.1617298e+000
8.5535440e+000
8.8845224e+000
9.0216103e+000
9.0729704e+000
8.9571714e+000
8.8004570e+000
8.6101456e+000
8.4265318e+000
8.3237648e+000
8.2482157e+000
8.3230877e+000
8.4080772e+000
8.5354767e+000
8.6404219e+000
8.6724758e+000
8.6898546e+000
8.6739712e+000
8.6698666e+000
8.6907024e+000
8.7348738e+000
8.8097219e+000
8.8487196e+000
8.8345919e+000
8.6959429e+000
8.4411926e+000
8.1314888e+000
7.7852669e+000
7.4522943e+000
7.1135206e+000
6.6359596e+000
6.0956402e+000
5.4482627e+000
4.7852449e+000
4.2666774e+000
3.7793446e+000
3.3720880e+000
2.9678986e+000
2.5245953e+000
2.0888469e+000
1.7067331e+000
1.3196890e+000
9.0964001e-001
4.7494656e-001
-3.1874508e-002
-4.9348488e-001
-8.4714615e-001
-1.1254172e+000
-1.2747469e+000
-1.4232284e+000
-1.5695580e+000
-1.6814573e+000
-1.7496600e+000
-1.6832335e+000
-1.5059317e+000
-1.2557737e+000
-9.6585947e-001
-7.4021500e-001
-5.4581851e-001
-3.9158583e-001
-2.4809065e-001
-7.3237814e-002
1.0514986e-001
2.0071873e-001
2.8008881e-001
2.0568195e-001
1.2580641e-001
5.4980677e-002
1.8063411e-003
5.6885287e-002
1.8795159e-001
4.2526239e-001
7.0454395e-001
1.1061503e+000
1.5168829e+000
1.9448192e+000
2.2707393e+000
2.4326870e+000
2.5282922e+000
2.5429249e+000
2.5604568e+000
2.5816023e+000
2.6264887e+000
2.6908998e+000
2.9327195e+000
3.2675819e+000
3.7154896e+000
4.2033305e+000
4.6549168e+000
5.0950317e+000
5.6150227e+000
6.1471667e+000
6.6830001e+000
