##TITLE=Methyl Ethyl Ketone
##JCAMP-DX=4.24
##DATA TYPE=INFRARED SPECTRUM
##XUNITS=cm-1
##YUNITS=Absorbance
##FIRSTX=900
##LASTX=2300
##XYDATA=(X++(Y..Y))
2296 -0.025215
2294 -0.025739249
2292 -0.026264496
2290 -0.026788751
2288 -0.027313
2286 -0.027838243
2284 -0.0283625
2282 -0.028886748
2280 -0.029411988
2278 -0.02993625
2276 -0.030460499
2274 -0.030985733
2272 -0.031509999
2270 -0.032034252
2268 -0.032559481
2266 -0.033083748
2264 -0.033608001
2262 -0.03413225
2260 -0.034657475
2258 -0.03518175
2256 -0.035705999
2254 -0.03623122
2252 -0.036755502
2250 -0.037279751
2248 -0.037804965
2246 -0.038329251
2244 -0.0014243543
2242 0.026815206
2240 0.052258678
2238 0.046308063
2236 0.035753127
2234 0.020006394
2232 0.0037088841
2230 -0.016776431
2228 -0.037563648
2226 -0.059085499
2224 -0.075649485
2222 -0.069340914
2220 -0.060176175
2218 -0.046019573
2216 -0.045041457
2214 -0.073476262
2212 -0.11460756
2210 -0.17364077
2208 -0.21811509
2206 -0.24308257
2204 -0.23982646
2202 -0.21059008
2200 -0.16835611
2198 -0.1176817
2196 -0.073322929
2194 -0.032922346
2192 -0.012851623
2190 -0.0015786006
2188 -0.0018814148
2186 -0.0057631377
2184 0.0014719679
2182 0.011311974
2180 0.021468936
2178 0.031261362
2176 0.0089751482
2174 -0.017917596
2172 -0.0635745
2170 -0.10691018
2168 -0.12667091
2166 -0.13737771
2164 -0.12335666
2162 -0.1087602
2160 -0.099005997
2158 -0.096733026
2156 -0.1077313
2154 -0.12276307
2152 -0.14165279
2150 -0.15941352
2148 -0.17544231
2146 -0.19026285
2144 -0.20418628
2142 -0.2162365
2140 -0.22702995
2138 -0.23727772
2136 -0.24729599
2134 -0.25885689
2132 -0.27111447
2130 -0.27645594
2128 -0.279576
2126 -0.27431592
2124 -0.26712808
2122 -0.26386556
2120 -0.26153663
2118 -0.2649509
2116 -0.26866201
2114 -0.26861671
2112 -0.26660308
2110 -0.25837564
2108 -0.24773237
2106 -0.23251057
2104 -0.21747617
2102 -0.20430034
2100 -0.20372261
2098 -0.22380452
2096 -0.26013142
2094 -0.31367978
2092 -0.35648108
2090 -0.38552949
2088 -0.38878778
2086 -0.3724505
2084 -0.35165969
2082 -0.32973814
2080 -0.31691337
2078 -0.30890849
2076 -0.31102872
2074 -0.31709245
2072 -0.32904002
2070 -0.34271744
2068 -0.34695077
2066 -0.34863538
2064 -0.34530258
2062 -0.34037575
2060 -0.33021802
2058 -0.31752339
2056 -0.29654285
2054 -0.27859858
2052 -0.2770637
2050 -0.2847456
2048 -0.30739337
2046 -0.32593536
2044 -0.3306036
2042 -0.32631052
2040 -0.31288394
2038 -0.30941665
2036 -0.32046458
2034 -0.33974046
2032 -0.36432201
2030 -0.378941
2028 -0.38473302
2026 -0.38610077
2024 -0.38540012
2022 -0.38596407
2020 -0.38723385
2018 -0.4014048
2016 -0.42114601
2014 -0.46907756
2012 -0.52660543
2010 -0.58327645
2008 -0.63795942
2006 -0.6641646
2004 -0.68055499
2002 -0.67803353
2000 -0.67034703
1998 -0.65986824
1996 -0.65126497
1994 -0.64964056
1992 -0.65282273
1990 -0.66413206
1988 -0.67597318
1986 -0.68688303
1984 -0.69756985
1982 -0.70821136
1980 -0.72521853
1978 -0.74876279
1976 -0.77370799
1974 -0.7982465
1972 -0.81315434
1970 -0.82046849
1968 -0.81831771
1966 -0.81109512
1964 -0.79805464
1962 -0.78278023
1960 -0.761334
1958 -0.73745596
1956 -0.71533114
1954 -0.6945852
1952 -0.69062603
1950 -0.69392872
1948 -0.70985341
1946 -0.72860003
1944 -0.74197328
1942 -0.75122589
1940 -0.75659639
1938 -0.76317048
1936 -0.77712888
1934 -0.79251295
1932 -0.80462658
1930 -0.81290156
1928 -0.81479526
1926 -0.81228858
1924 -0.80527341
1922 -0.78693712
1920 -0.75856858
1918 -0.72196412
1916 -0.68181986
1914 -0.64372027
1912 -0.60764027
1910 -0.58533156
1908 -0.57113671
1906 -0.58449525
1904 -0.61254919
1902 -0.64186352
1900 -0.67146957
1898 -0.66534525
1896 -0.64466715
1894 -0.61502177
1892 -0.58677655
1890 -0.5939225
1888 -0.61916357
1886 -0.66671246
1884 -0.7174983
1882 -0.75338823
1880 -0.77530932
1878 -0.77591711
1876 -0.76158899
1874 -0.73048985
1872 -0.68372995
1870 -0.62006789
1868 -0.56054044
1866 -0.51615202
1864 -0.5085296
1862 -0.53818065
1860 -0.58371025
1858 -0.63360375
1856 -0.67662001
1854 -0.71215147
1852 -0.74015456
1850 -0.7627449
1848 -0.7764284
1846 -0.78380251
1844 -0.78947073
1842 -0.79313201
1840 -0.79294091
1838 -0.78983295
1836 -0.76749712
1834 -0.73277187
1832 -0.67075419
1830 -0.59528047
1828 -0.518031
1826 -0.45338485
1824 -0.43152034
1822 -0.44170642
1820 -0.48207119
1818 -0.53081942
1816 -0.57018542
1814 -0.59900516
1812 -0.61592859
1810 -0.62416065
1808 -0.62753636
1806 -0.611408
1804 -0.57667303
1802 -0.53216308
1800 -0.48179308
1798 -0.43766099
1796 -0.39911643
1794 -0.34917533
1792 -0.2923052
1790 -0.2348825
1788 -0.17999294
1786 -0.14080478
1784 -0.11231794
1782 -0.090715051
1780 -0.073568307
1778 -0.054368041
1776 -0.031445429
1774 0.0033426918
1772 0.042684771
1770 0.069055878
1768 0.081607826
1766 0.071314797
1764 0.054720059
1762 0.051097509
1760 0.01991776
1758 -0.063012198
1756 -0.14457829
1754 -0.1955101
1752 -0.19882983
1750 -0.1549792
1748 -0.10509747
1746 -0.065742716
1744 -0.090959452
1742 -0.17860302
1740 -0.26938814
1738 -0.35064036
1736 -0.33529401
1734 -0.24439974
1732 -0.14655757
1730 -0.054148845
1728 -0.062656567
1726 -0.13655737
1724 -0.17377469
1722 -0.15775619
1720 0.01719211
1718 0.3398751
1716 0.87363428
1714 1.5241407
1712 2.1411572
1710 2.7309427
1708 3.3072219
1706 4.0265779
1704 5.0371323
1702 6.5924282
1700 8.8173714
1698 11.905776
1696 15.821857
1694 19.83062
1692 23.589323
1690 26.940979
1688 29.927834
1686 33.425262
1684 37.529507
1682 42.519436
1680 48.218517
1678 53.270515
1676 57.6982
1674 61.890087
1672 65.982513
1670 70.748535
1668 76.012825
1666 81.217949
1664 86.261078
1662 90.794998
1660 94.80455
1658 98.21907
1656 100.9884
1654 103.04336
1652 104.2482
1650 104.48997
1648 103.49983
1646 101.14232
1644 98.036079
1642 94.748337
1640 91.259735
1638 87.595161
1636 83.309029
1634 78.288353
1632 73.200249
1630 68.277618
1628 63.723198
1626 59.535374
1624 55.337681
1622 51.073109
1620 46.980045
1618 43.070263
1616 39.447285
1614 36.126339
1612 33.203377
1610 30.69005
1608 28.568436
1606 26.824001
1604 25.344641
1602 24.142696
1600 23.194771
1598 22.500126
1596 22.0175
1594 21.736795
1592 21.614605
1590 21.635658
1588 21.765467
1586 21.983171
1584 22.26436
1582 22.59936
1580 22.978962
1578 23.477209
1576 24.119257
1574 24.951864
1572 25.97876
1570 27.113455
1568 28.331959
1566 29.580179
1564 30.85622
1562 32.325676
1560 34.083008
1558 36.733589
1556 40.344154
1554 44.33139
1552 48.464458
1550 51.704914
1548 54.07539
1546 56.078823
1544 57.714489
1542 59.10656
1540 60.04224
1538 60.249733
1536 59.715084
1534 58.54768
1532 56.99696
1530 55.3815
1528 53.704639
1526 51.97205
1524 50.073727
1522 47.934921
1520 45.546906
1518 42.882435
1516 40.313313
1514 37.970768
1512 35.790279
1510 33.792435
1508 31.375751
1506 28.397085
1504 25.363411
1502 22.317654
1500 19.705038
1498 17.573669
1496 15.462856
1494 13.369291
1492 11.254674
1490 9.1374245
1488 7.0676823
1486 5.1122885
1484 3.374362
1482 1.941515
1480 0.89437789
1478 0.25702536
1476 0.058353443
1474 0.39546698
1472 1.2138706
1470 2.211169
1468 3.2063491
1466 4.0532413
1464 4.6472301
1462 5.1367302
1460 5.5677533
1458 5.9926295
1456 6.4222999
1454 6.7810507
1452 7.0192442
1450 7.1346483
1448 7.0692401
1446 6.9351892
1444 6.7090144
1442 6.4668193
1440 6.2010112
1438 5.9036655
1436 5.5476799
1434 5.079689
1432 4.4977894
1430 3.8804517
1428 3.2701821
1426 2.7740386
1424 2.414552
1422 2.2028766
1420 2.1316428
1418 2.1760433
1416 2.3019686
1414 2.477133
1412 2.679997
1410 2.9081457
1408 3.1627524
1406 3.457063
1404 3.7798984
1402 4.1354623
1400 4.5087161
1398 4.9034777
1396 5.2949572
1394 5.6709967
1392 5.9798856
1390 6.1604576
1388 6.2235541
1386 6.099175
1384 5.8692126
1382 5.4977798
1380 5.0860076
1378 4.6308451
1376 4.1736517
1374 3.7247372
1372 3.2981999
1370 2.9017191
1368 2.5422504
1366 2.1905558
1364 1.7970029
1362 1.3658197
1360 0.8961004
1358 0.46274507
1356 0.16260734
1354 -0.018005449
1352 -0.026345691
1350 0.038525142
1348 0.16492659
1346 0.32255179
1344 0.51327521
1342 0.71885157
1340 0.95003432
1338 1.1783993
1336 1.3959399
1334 1.5980723
1332 1.7659183
1330 1.9380349
1328 2.1196434
1326 2.3234851
1324 2.565949
1322 2.835429
1320 3.1432142
1318 3.4714081
1316 3.8152299
1314 4.1420455
1312 4.4370928
1310 4.678885
1308 4.8657541
1306 4.9999547
1304 5.0917192
1302 5.143424
1300 5.1681519
1298 5.1626654
1296 5.1413713
1294 5.1012917
1292 5.0573826
1290 5.0136857
1288 4.9762282
1286 4.954473
1284 4.9393735
1282 4.9376416
1280 4.9378247
1278 4.9421101
1276 4.9495902
1274 4.9661322
1272 4.9953823
1270 5.0495181
1268 5.124217
1266 5.2283583
1264 5.3456345
1262 5.4768915
1260 5.6099482
1258 5.7452021
1256 5.8828716
1254 6.0218396
1252 6.1595116
1250 6.2910075
1248 6.4042249
1246 6.4997501
1244 6.5644984
1242 6.6080861
1240 6.618793
1238 6.6059289
1236 6.5455699
1234 6.4480977
1232 6.2590361
1230 6.0235262
1228 5.6674461
1226 5.2804804
1224 4.8145666
1222 4.3408942
1220 3.8502481
1218 3.369333
1216 2.9113686
1214 2.4804778
1212 2.0998328
1210 1.7589141
1208 1.4751754
1206 1.2173051
1204 0.98861438
1202 0.76600915
1200 0.554667
1198 0.36898434
1196 0.21197714
1194 0.099187098
1192 0.018487399
1190 -0.032716326
1188 -0.066376321
1186 -0.081157438
1184 -0.081835799
1182 -0.050066546
1180 0.0097284093
1178 0.15411502
1176 0.33762002
1174 0.63308954
1172 0.94061112
1170 1.2673154
1168 1.5618103
1166 1.7541364
1164 1.8972623
1162 1.918028
1160 1.9033297
1158 1.8176348
1156 1.7136743
1154 1.5776517
1152 1.419324
1150 1.228119
1148 1.0103244
1146 0.76683891
1144 0.53216445
1142 0.31462693
1140 0.15148684
1138 0.037037451
1136 -0.0082276855
1134 -0.0054303966
1132 0.076803908
1130 0.19719595
1128 0.35866374
1126 0.52550203
1124 0.66202617
1122 0.78053832
1120 0.83212638
1118 0.87334526
1116 0.89238471
1114 0.9210676
1112 0.99245566
1110 1.0778339
1108 1.2068857
1106 1.337165
1104 1.4670143
1102 1.570731
1100 1.620037
1098 1.6337854
1096 1.5933572
1094 1.5514913
1092 1.511742
1090 1.5016636
1088 1.5234013
1086 1.5684229
1084 1.6308645
1082 1.6914316
1080 1.7457234
1078 1.762413
1076 1.7543358
1074 1.6881547
1072 1.60094
1070 1.4991127
1068 1.397956
1066 1.32577
1064 1.25956
1062 1.2102966
1060 1.1646434
1058 1.1371378
1056 1.1141114
1054 1.1104454
1052 1.1033165
1050 1.0844309
1048 1.0529152
1046 0.99028575
1044 0.91544181
1042 0.81787193
1040 0.71824116
1038 0.61676943
1036 0.52775604
1034 0.45433727
1032 0.39621133
1030 0.35113111
1028 0.30012956
1026 0.24243844
1024 0.15674381
1022 0.055236325
1020 -0.058624841
1018 -0.17514488
1016 -0.26823029
1014 -0.35430801
1012 -0.43247086
1010 -0.51099199
1008 -0.60926241
1006 -0.70700371
1004 -0.77937376
1002 -0.84537834
1000 -0.86943942
998 -0.89000398
996 -0.8945893
994 -0.88774419
992 -0.84506595
990 -0.7894448
988 -0.7053802
986 -0.63634384
984 -0.59462845
982 -0.5783844
980 -0.59578097
978 -0.61204028
976 -0.6262517
974 -0.62375247
972 -0.60742515
970 -0.58028919
968 -0.54616398
966 -0.50649649
964 -0.46407172
962 -0.41737574
960 -0.36894622
958 -0.31066602
956 -0.25080729
954 -0.20070124
952 -0.1528624
950 -0.13043556
948 -0.10569102
946 -0.034449108
944 0.0020826496
942 0.065047503
940 0.19731082
938 0.37477183
936 0.54605746
934 0.69886577
932 0.83149016
930 0.92066145
928 0.98731607
926 1.0174508
924 1.014334
922 0.97040164
920 0.88923264
918 0.77397156
916 0.69051552
914 0.63056839
912 0.66129172
910 0.74021608
908 0.83274329
906 0.93021446
904 0.9208886
902 0.88376153
900 0.80487543
898 0.71962678
896 0.78728998
