##TITLE=Methyl Ethyl Ketone
##JCAMP-DX=4.24
##DATA TYPE=INFRARED SPECTRUM
##XUNITS=cm-1
##YUNITS=Absorbance
##FIRSTX=900
##LASTX=2300
##XYDATA=(X++(Y..Y))
2296 0.028441001
2294 0.029032154
2292 0.029624306
2290 0.030215463
2288 0.030807612
2286 0.031398773
2284 0.031990919
2282 0.032582082
2280 0.033174224
2278 0.033765391
2276 0.034357529
2274 0.034948699
2272 0.035540834
2270 0.036132008
2268 0.036724139
2266 0.037315316
2264 0.037907448
2262 0.038498625
2260 0.039090753
2258 0.039681934
2256 0.040274058
2254 0.040865242
2252 0.041457362
2250 0.042049516
2248 0.042640705
2246 0.043232821
2244 0.023287231
2242 0.00086851284
2240 -0.024032639
2238 -0.035389446
2236 -0.044717371
2234 -0.051204812
2232 -0.057664093
2230 -0.068073623
2228 -0.079084434
2226 -0.093329504
2224 -0.10659965
2222 -0.11460142
2220 -0.11733646
2218 -0.10485435
2216 -0.082365826
2214 -0.039915103
2212 0.0061554722
2210 0.056206018
2208 0.083750062
2206 0.082923457
2204 0.050631389
2202 -0.010258071
2200 -0.067824639
2198 -0.12151443
2196 -0.14645001
2194 -0.15495013
2192 -0.14826943
2190 -0.13542472
2188 -0.12025414
2186 -0.10445614
2184 -0.092025563
2182 -0.080381036
2180 -0.075099662
2178 -0.070759438
2176 -0.065970853
2174 -0.061286565
2172 -0.058279604
2170 -0.056134198
2168 -0.057997644
2166 -0.060929056
2164 -0.066312604
2162 -0.072194658
2160 -0.078740619
2158 -0.082176626
2156 -0.079602003
2154 -0.069673575
2152 -0.049991228
2150 -0.025602292
2148 0.0029459111
2146 0.024952427
2144 0.040792543
2142 0.048196182
2140 0.050191876
2138 0.058484551
2136 0.07050363
2134 0.084152438
2132 0.098304577
2130 0.093562014
2128 0.082767442
2126 0.06597738
2124 0.047915965
2122 0.037001416
2120 0.02689063
2118 0.010161025
2116 -0.0065656356
2114 -0.016267441
2112 -0.02069249
2110 -0.0063270442
2108 0.010999617
2106 0.028968928
2104 0.038099062
2102 0.027544498
2100 0.0072173038
2098 -0.024610186
2096 -0.04083943
2094 -0.034391817
2092 -0.0097670425
2090 0.030256022
2088 0.051624913
2086 0.055695999
2084 0.043501154
2082 0.02211678
2080 0.014592806
2078 0.01502709
2076 0.0258522
2074 0.040612143
2072 0.05910952
2070 0.078708112
2068 0.10804251
2066 0.13956363
2064 0.15843394
2062 0.17192717
2060 0.15428537
2058 0.1272624
2056 0.082355171
2054 0.03465873
2052 -0.010052709
2050 -0.04458515
2048 -0.054079447
2046 -0.049625002
2044 -0.02742896
2042 -0.013363322
2040 -0.017122377
2038 -0.041535478
2036 -0.087107748
2034 -0.13215719
2032 -0.17286715
2030 -0.20063569
2028 -0.2186244
2026 -0.22151786
2024 -0.21562663
2022 -0.18529789
2020 -0.14283794
2018 -0.10113797
2016 -0.0605762
2014 -0.061718673
2012 -0.07712055
2010 -0.12683953
2008 -0.18525544
2006 -0.23893292
2004 -0.28984836
2002 -0.3291086
2000 -0.36487624
1998 -0.39735669
1996 -0.42404929
1994 -0.4351055
1992 -0.43765205
1990 -0.43078774
1988 -0.42545938
1986 -0.42817152
1984 -0.43537274
1982 -0.44613829
1980 -0.45977357
1978 -0.47518566
1976 -0.48497227
1974 -0.48888129
1972 -0.46760342
1970 -0.42773902
1968 -0.39411727
1966 -0.36667407
1964 -0.40017486
1962 -0.46567011
1960 -0.54489839
1958 -0.62844831
1956 -0.66847354
1954 -0.692325
1952 -0.70020002
1950 -0.70439821
1948 -0.71617275
1946 -0.7303775
1944 -0.74549794
1942 -0.75765085
1940 -0.76220244
1938 -0.76495099
1936 -0.77001345
1934 -0.77879822
1932 -0.79228461
1930 -0.79966038
1928 -0.7936123
1926 -0.76488483
1924 -0.71050298
1922 -0.64522851
1920 -0.5762139
1918 -0.53587312
1916 -0.52363789
1914 -0.52351159
1912 -0.52779019
1910 -0.51806772
1908 -0.49834642
1906 -0.50144231
1904 -0.5181492
1902 -0.54565912
1900 -0.57789928
1898 -0.57343256
1896 -0.55349427
1894 -0.51922846
1892 -0.48292401
1890 -0.4724595
1888 -0.47886845
1886 -0.51746458
1884 -0.5693447
1882 -0.62566382
1880 -0.67438829
1878 -0.70060122
1876 -0.703749
1874 -0.67636496
1872 -0.62566811
1870 -0.55366337
1868 -0.49468273
1866 -0.46309793
1864 -0.47923496
1862 -0.53997552
1860 -0.60710615
1858 -0.66855788
1856 -0.70021343
1854 -0.70864552
1852 -0.69418937
1850 -0.66624862
1848 -0.6240896
1846 -0.57346678
1844 -0.52866918
1842 -0.48738977
1840 -0.47964376
1838 -0.48939463
1836 -0.50673544
1834 -0.52337891
1832 -0.51072347
1830 -0.47864661
1828 -0.42616171
1826 -0.37610927
1824 -0.36193228
1822 -0.38044313
1820 -0.43661299
1818 -0.49521989
1816 -0.52969915
1814 -0.53345871
1812 -0.50424403
1810 -0.46833193
1808 -0.43849301
1806 -0.411385
1804 -0.38552737
1802 -0.35061017
1800 -0.30591419
1798 -0.25652048
1796 -0.20471142
1794 -0.15424702
1792 -0.10657864
1790 -0.082006842
1788 -0.073799402
1786 -0.082103655
1784 -0.098995805
1782 -0.098596521
1780 -0.084048808
1778 -0.034238264
1776 0.038318936
1774 0.12832019
1772 0.212853
1770 0.24550018
1768 0.23575103
1766 0.18021765
1764 0.11620558
1762 0.080867633
1760 0.027641136
1758 -0.072814375
1756 -0.14963157
1754 -0.16691534
1752 -0.095529392
1750 0.060505316
1748 0.21564378
1746 0.34071356
1744 0.32470033
1742 0.17887235
1740 0.0055077374
1738 -0.16737059
1736 -0.195806
1734 -0.11127578
1732 0.0021238402
1730 0.1215279
1728 0.1032282
1726 -0.0055809952
1724 -0.087498471
1722 -0.1203781
1720 0.020953432
1718 0.32292753
1716 0.82762194
1714 1.4386344
1712 2.0103216
1710 2.5703909
1708 3.158282
1706 3.9339499
1704 5.0458555
1702 6.7229958
1700 9.0703945
1698 12.232674
1696 16.154572
1694 20.134529
1692 23.85117
1690 27.202263
1688 30.239475
1686 33.804893
1684 37.982159
1682 42.93763
1680 48.502758
1678 53.39109
1676 57.641029
1674 61.750195
1672 65.830643
1670 70.540329
1668 75.682655
1666 80.556396
1664 85.089592
1662 88.984772
1660 92.311928
1658 95.182793
1656 97.602798
1654 99.590256
1652 100.9246
1650 101.37461
1648 100.74692
1646 98.959641
1644 96.552574
1642 94.018898
1640 91.219498
1638 88.115639
1636 84.348473
1634 79.850578
1632 75.237885
1630 70.734528
1628 66.487656
1626 62.498268
1624 58.38768
1622 54.11533
1620 49.931782
1618 45.859165
1616 42.061657
1614 38.560566
1612 35.485401
1610 32.844788
1608 30.608034
1606 28.752157
1604 27.136253
1602 25.771967
1600 24.637691
1598 23.740335
1596 23.055
1594 22.579563
1592 22.278595
1590 22.142275
1588 22.138174
1586 22.248814
1584 22.449959
1582 22.73074
1580 23.079237
1578 23.555466
1576 24.177544
1574 24.993568
1572 26.008448
1570 27.156229
1568 28.417521
1566 29.707886
1564 31.021351
1562 32.492599
1560 34.204868
1558 36.727814
1556 40.111183
1554 43.772873
1552 47.502716
1550 50.395306
1548 52.482441
1546 54.260784
1544 55.742092
1542 57.053253
1540 57.980522
1538 58.234421
1536 57.754517
1534 56.590656
1532 55.047039
1530 53.4939
1528 51.976593
1526 50.53035
1524 49.017586
1522 47.349152
1520 45.414635
1518 43.139484
1516 40.841759
1514 38.62368
1512 36.501282
1510 34.499928
1508 32.042908
1506 28.980179
1504 25.837914
1502 22.659679
1500 19.945269
1498 17.75145
1496 15.612429
1494 13.531689
1492 11.45692
1490 9.3980207
1488 7.3698025
1486 5.4255676
1484 3.64957
1482 2.1434731
1480 1.0207368
1478 0.31383619
1476 0.062394373
1474 0.35496315
1472 1.1288857
1470 2.0785899
1468 3.0214949
1466 3.8182316
1464 4.3669791
1462 4.8267322
1460 5.2514057
1458 5.7014647
1456 6.20052
1454 6.6253924
1452 6.9171958
1450 7.061614
1448 6.9915361
1446 6.8634501
1444 6.6587048
1442 6.4490862
1440 6.2299118
1438 5.9844551
1436 5.6890459
1434 5.2962136
1432 4.805706
1430 4.2893567
1428 3.7889099
1426 3.4037764
1424 3.1560035
1422 3.0549927
1420 3.0886984
1418 3.2270412
1416 3.4245143
1414 3.634418
1412 3.8381078
1410 4.0259771
1408 4.2212524
1406 4.4436955
1404 4.699512
1402 5.0037079
1400 5.3317361
1398 5.6886592
1396 6.029243
1394 6.3300915
1392 6.5608344
1390 6.6621699
1388 6.6674247
1386 6.5182052
1384 6.277657
1382 5.9116392
1380 5.4962673
1378 5.02351
1376 4.5344114
1374 4.0404215
1372 3.5726819
1370 3.1468837
1368 2.7835712
1366 2.4514942
1364 2.0922768
1362 1.6934474
1360 1.2293434
1358 0.77143383
1356 0.40309158
1354 0.13633974
1352 0.036471438
1350 0.029546969
1348 0.11765157
1346 0.22869536
1344 0.40393043
1342 0.60909164
1340 0.8650015
1338 1.1158981
1336 1.3479686
1334 1.5410361
1332 1.6586323
1330 1.7695169
1328 1.8766148
1326 2.0221443
1324 2.2311952
1322 2.4864981
1320 2.8012857
1318 3.1373003
1316 3.4867101
1314 3.8087833
1312 4.0879803
1310 4.3035445
1308 4.4588609
1306 4.5646653
1304 4.634851
1302 4.6795917
1300 4.7058291
1298 4.7083654
1296 4.7007856
1294 4.6843543
1292 4.6710606
1290 4.6706781
1288 4.67484
1286 4.6856318
1284 4.697298
1282 4.7094846
1280 4.7259769
1278 4.7518487
1276 4.7798839
1274 4.8132339
1272 4.8491578
1270 4.8940935
1268 4.9605303
1266 5.0610442
1264 5.1906729
1262 5.3512502
1260 5.5101242
1258 5.6593089
1256 5.7773743
1254 5.8677011
1252 5.9434862
1250 6.0134778
1248 6.0952258
1246 6.1822252
1244 6.2663059
1242 6.3345594
1240 6.3529058
1238 6.3293552
1236 6.2137485
1234 6.0532775
1232 5.8025517
1230 5.5248308
1228 5.1890187
1226 4.8358445
1224 4.4360332
1222 4.0165353
1220 3.5506368
1218 3.0787799
1216 2.5996087
1214 2.1465716
1212 1.7422285
1210 1.3778882
1208 1.0721331
1206 0.79841143
1204 0.5652768
1202 0.36188853
1200 0.18970171
1198 0.039501585
1196 -0.093631923
1194 -0.22128966
1192 -0.33975655
1190 -0.43256229
1188 -0.49932969
1186 -0.50503647
1184 -0.4765476
1182 -0.38957852
1180 -0.27405193
1178 -0.095728889
1176 0.10763119
1174 0.37785989
1172 0.65062273
1170 0.91622084
1168 1.1535703
1166 1.3018501
1164 1.414292
1162 1.4373389
1160 1.4332646
1158 1.3736702
1156 1.292057
1154 1.17309
1152 1.0348126
1150 0.86910272
1148 0.68569338
1146 0.48606181
1144 0.29729772
1142 0.13092594
1140 0.038050033
1138 0.007536158
1136 0.051745318
1134 0.13782752
1132 0.27212793
1130 0.42657447
1128 0.5901866
1126 0.75228304
1124 0.89358312
1122 1.0248361
1120 1.1222041
1118 1.217151
1116 1.3158672
1114 1.4177293
1112 1.531572
1110 1.6391667
1108 1.7267926
1106 1.8109699
1104 1.8865577
1102 1.961315
1100 2.0320871
1098 2.0822413
1096 2.0982287
1094 2.0918622
1092 2.062134
1090 2.0594149
1088 2.0913725
1086 2.1859984
1084 2.3298891
1082 2.4871879
1080 2.6451836
1078 2.7517941
1076 2.8259344
1074 2.8322785
1072 2.8081164
1070 2.7245567
1068 2.6264927
1066 2.5189886
1064 2.4193439
1062 2.3862801
1060 2.369144
1058 2.4336026
1056 2.5008085
1054 2.5794127
1052 2.6452191
1050 2.6696692
1048 2.6848292
1046 2.677407
1044 2.6663971
1042 2.6474738
1040 2.6187668
1038 2.5753431
1036 2.5280399
1034 2.477529
1032 2.4372594
1030 2.4088469
1028 2.4093139
1026 2.4298823
1024 2.4534948
1022 2.4723849
1020 2.4265115
1018 2.3517175
1016 2.2351201
1014 2.1061072
1012 1.9650183
1010 1.8151542
1008 1.5896159
1006 1.3539708
1004 1.075662
1002 0.80841869
1000 0.61974823
998 0.44755536
996 0.34763145
994 0.25095421
992 0.16441563
990 0.082371406
988 0.011645671
986 -0.040838778
984 -0.060643032
982 -0.064016521
980 -0.046199642
978 -0.041549914
976 -0.052676141
974 -0.10114191
972 -0.18039101
970 -0.27986729
968 -0.39011869
966 -0.4749195
964 -0.54495329
962 -0.55036682
960 -0.53260392
958 -0.46337563
956 -0.38280344
954 -0.29266384
952 -0.2025288
950 -0.13939355
948 -0.077917695
946 -0.02535782
944 0.0016299784
942 0.050981767
940 0.15704753
938 0.30872399
936 0.44500285
934 0.53614092
932 0.62040305
930 0.69045508
928 0.77807778
926 0.89356393
924 1.0002435
922 1.0955362
920 1.1506034
918 1.1680927
916 1.1738614
914 1.1709763
912 1.1535132
910 1.127755
908 1.0331653
906 0.91251433
904 0.77609754
902 0.63609076
900 0.54774135
898 0.46796146
896 0.48297
