##TITLE=Methyl Ethyl Ketone
##JCAMP-DX=4.24
##DATA TYPE=INFRARED SPECTRUM
##XUNITS=cm-1
##YUNITS=Absorbance
##FIRSTX=900
##LASTX=2300
##XYDATA=(X++(Y..Y))
2296 0.14974
2294 0.15285555
2292 0.15597109
2290 0.15908663
2288 0.16220218
2286 0.16531771
2284 0.16843325
2282 0.1715488
2280 0.17466435
2278 0.17777002
2276 0.18088543
2274 0.18401082
2272 0.18711668
2270 0.19021243
2268 0.1933472
2266 0.19654143
2264 0.19958052
2262 0.20242102
2260 0.20580257
2258 0.20993708
2256 0.21207057
2254 0.2113928
2252 0.21815
2250 0.23540139
2248 0.22499983
2246 0.15428464
2244 0.058712292
2242 -0.012695095
2240 -0.033343039
2238 0.0052981791
2236 0.065077536
2234 0.10738984
2232 0.14517795
2230 0.20085077
2228 0.27476299
2226 0.35335502
2224 0.39338365
2222 0.35869503
2220 0.27672768
2218 0.19359432
2216 0.15461171
2214 0.18692039
2212 0.2463342
2210 0.27611044
2208 0.25585335
2206 0.19087307
2204 0.14473809
2202 0.18151173
2200 0.29535905
2198 0.45033979
2196 0.57694143
2194 0.61268008
2192 0.56446815
2190 0.46390685
2188 0.35333213
2186 0.27254686
2184 0.23874401
2182 0.25939617
2180 0.33183071
2178 0.44508132
2176 0.56680113
2174 0.66438568
2172 0.73216164
2170 0.779163
2168 0.83779967
2166 0.93804109
2164 1.0690695
2162 1.2033265
2160 1.3005269
2158 1.3258257
2156 1.28134
2154 1.1858038
2152 1.0740434
2150 0.97897315
2148 0.90443325
2146 0.84077895
2144 0.76546454
2142 0.66001099
2140 0.54000413
2138 0.43070179
2136 0.34731743
2134 0.29504758
2132 0.25402507
2130 0.20279057
2128 0.14981961
2126 0.11481736
2124 0.11800872
2122 0.172341
2120 0.26138467
2118 0.3595565
2116 0.44803402
2114 0.51197815
2112 0.54097497
2110 0.52919441
2108 0.48332861
2106 0.41676143
2104 0.35127565
2102 0.30944479
2100 0.3046402
2098 0.34393954
2096 0.42344573
2094 0.53300029
2092 0.65356594
2090 0.76362622
2088 0.84518659
2086 0.88496196
2084 0.88297629
2082 0.84656507
2080 0.79186207
2078 0.73763436
2076 0.69993699
2074 0.69027126
2072 0.70618761
2070 0.73752928
2068 0.76520962
2066 0.77148724
2064 0.75844634
2062 0.73659927
2060 0.71701938
2058 0.70418543
2056 0.67549682
2054 0.60456783
2052 0.49665296
2050 0.37677413
2048 0.29470846
2046 0.29994786
2044 0.399378
2042 0.57402498
2040 0.77489334
2038 0.94571984
2036 1.0501592
2034 1.0695386
2032 1.0205216
2030 0.93647259
2028 0.85729706
2026 0.82021409
2024 0.84165198
2022 0.92141259
2020 1.0287284
2018 1.1229087
2016 1.1772801
2014 1.1795323
2012 1.1493419
2010 1.1128973
2008 1.0659239
2006 0.99311978
2004 0.89654291
2002 0.79151779
2000 0.71137828
1998 0.68594414
1996 0.69668001
1994 0.70564175
1992 0.69118452
1990 0.64920676
1988 0.61148584
1986 0.61706907
1984 0.66573554
1982 0.73613697
1980 0.80188298
1978 0.84099329
1976 0.85495287
1974 0.85661429
1972 0.85811096
1970 0.86780339
1968 0.88287437
1966 0.89590079
1964 0.90306252
1962 0.90524518
1960 0.91409039
1958 0.94238663
1956 0.98537374
1954 1.0276477
1952 1.0479584
1950 1.0274345
1948 0.96825486
1946 0.8854425
1944 0.80222195
1942 0.74024081
1940 0.69952595
1938 0.66817325
1936 0.63262081
1934 0.58149189
1932 0.51272881
1930 0.42953461
1928 0.33659765
1926 0.24587278
1924 0.19923078
1922 0.24474034
1920 0.38751331
1918 0.59963715
1916 0.81641728
1914 0.96879584
1912 1.0471171
1910 1.0740194
1908 1.0640765
1906 1.0231335
1904 0.95205921
1902 0.85790288
1900 0.78359038
1898 0.78466851
1896 0.88273716
1894 1.0677445
1892 1.2832183
1890 1.454433
1888 1.5351623
1886 1.5079129
1884 1.4009154
1882 1.2619716
1880 1.1164018
1878 0.97186625
1876 0.82573599
1874 0.6765517
1872 0.54845035
1870 0.47661594
1868 0.47619733
1866 0.54163271
1864 0.63521945
1862 0.70731509
1860 0.73486352
1858 0.7128672
1856 0.63724059
1854 0.50243211
1852 0.30201963
1850 0.036885407
1848 -0.25768673
1846 -0.52403897
1844 -0.6994133
1842 -0.73311746
1840 -0.6324476
1838 -0.44326255
1836 -0.22132643
1834 -0.014410064
1832 0.17582689
1830 0.37317994
1828 0.58331597
1826 0.78909242
1824 0.93751007
1822 0.96626693
1820 0.86754721
1818 0.67546892
1816 0.44312856
1814 0.22651923
1812 0.058284543
1810 -0.044635721
1808 -0.062737688
1806 0.014826301
1804 0.14348283
1802 0.24262598
1800 0.23761497
1798 0.086678222
1796 -0.14116679
1794 -0.31157649
1792 -0.32891878
1790 -0.15505955
1788 0.14719261
1786 0.45891938
1784 0.70090067
1782 0.83777738
1780 0.87241584
1778 0.83128738
1776 0.74757856
1774 0.6530211
1772 0.56393605
1770 0.48375115
1768 0.40759513
1766 0.32819307
1764 0.24760419
1762 0.16723272
1760 0.052237026
1758 -0.14092469
1756 -0.37124071
1754 -0.54185808
1752 -0.59779853
1750 -0.53649479
1748 -0.4155876
1746 -0.32447821
1744 -0.31982279
1742 -0.41113633
1740 -0.52664262
1738 -0.55112094
1736 -0.429618
1734 -0.17973837
1732 0.090744637
1730 0.23421684
1728 0.19929749
1726 0.031971347
1724 -0.14985535
1722 -0.1902376
1720 0.04307875
1718 0.62551492
1716 1.4816954
1714 2.4285231
1712 3.3096035
1710 4.0420222
1708 4.7099462
1706 5.5209622
1704 6.6722765
1702 8.3343048
1700 10.681299
1698 13.819844
1696 17.495571
1694 21.19626
1692 24.564037
1690 27.497509
1688 30.307772
1686 33.583992
1684 37.771973
1682 43.005581
1680 48.74012
1678 54.048046
1676 58.715515
1674 63.205944
1672 67.956619
1670 73.161118
1668 78.496582
1666 83.298599
1664 87.242622
1662 90.378456
1660 92.829659
1658 94.711441
1656 96.083031
1654 96.95414
1652 97.345657
1650 97.285278
1648 96.7537
1646 95.713676
1644 94.241234
1642 92.506668
1640 90.608551
1638 88.543381
1636 86.223839
1634 83.52243
1632 80.403831
1630 76.915688
1628 73.041176
1626 68.703819
1624 63.905281
1622 58.755203
1620 53.493553
1618 48.445377
1616 43.841198
1614 39.792091
1612 36.334724
1610 33.445251
1608 31.04421
1606 29.014078
1604 27.263685
1602 25.741411
1600 24.429045
1598 23.335598
1596 22.4755
1594 21.863194
1592 21.502676
1590 21.385487
1588 21.498709
1586 21.82345
1584 22.336332
1582 23.022749
1580 23.924648
1578 25.140409
1576 26.762028
1574 28.839996
1572 31.309364
1570 33.994446
1568 36.734238
1566 39.417603
1564 41.985722
1562 44.461498
1560 47.057873
1558 50.083305
1556 53.385998
1554 56.32914
1552 58.402977
1550 59.409798
1548 59.518368
1546 59.177681
1544 58.598042
1542 57.662052
1540 56.22422
1538 54.225994
1536 51.831028
1534 49.401718
1532 47.167549
1530 45.144608
1528 43.243408
1526 41.3092
1524 39.209827
1522 36.876873
1520 34.363403
1518 31.845722
1516 29.491199
1514 27.391539
1512 25.459202
1510 23.441071
1508 21.200157
1506 18.798014
1504 16.427341
1502 14.34911
1500 12.632403
1498 11.10659
1496 9.6009283
1494 8.023242
1492 6.3915052
1490 4.8304029
1488 3.439573
1486 2.2582514
1484 1.306831
1482 0.59698606
1480 0.13187808
1478 -0.082681239
1476 0.017197728
1474 0.54536587
1472 1.5054297
1470 2.7487869
1468 4.109447
1466 5.4546227
1464 6.7296867
1462 7.9727421
1460 9.2441301
1458 10.585986
1456 11.9256
1454 13.058469
1452 13.818366
1450 14.141973
1448 14.071879
1446 13.750393
1444 13.297154
1442 12.76882
1440 12.181588
1438 11.517096
1436 10.746143
1434 9.843749
1432 8.8387022
1430 7.8316298
1428 6.9194098
1426 6.1686835
1424 5.6093507
1422 5.2302041
1420 5.0161562
1418 4.9590178
1416 5.0495486
1414 5.2723713
1412 5.5955658
1410 5.9680624
1408 6.3468556
1406 6.7076221
1404 7.0339932
1402 7.3132443
1400 7.5232682
1398 7.628849
1396 7.6046071
1394 7.4465394
1392 7.172358
1390 6.8244433
1388 6.4458623
1386 6.0710597
1384 5.721632
1382 5.3996539
1380 5.0855403
1378 4.7356267
1376 4.315217
1374 3.8149948
1372 3.253592
1370 2.6792488
1368 2.1195531
1366 1.5619535
1364 0.99307621
1362 0.41926375
1360 -0.11006847
1358 -0.49176753
1356 -0.64950943
1354 -0.57132214
1352 -0.27929589
1350 0.17245838
1348 0.71774018
1346 1.2868643
1344 1.8352439
1342 2.3586662
1340 2.8540206
1338 3.303659
1336 3.6746056
1334 3.9174535
1332 3.9962299
1330 3.9062631
1328 3.6681819
1326 3.3334744
1324 2.9667687
1322 2.6388299
1320 2.395925
1318 2.2384088
1316 2.13942
1314 2.046385
1312 1.9143102
1310 1.7243254
1308 1.4812026
1306 1.2206292
1304 0.98532462
1302 0.81643128
1300 0.74457568
1298 0.78219271
1296 0.93623567
1294 1.2108958
1292 1.6073766
1290 2.1209559
1288 2.7349038
1286 3.4118278
1284 4.102447
1282 4.7461491
1280 5.2901888
1278 5.7038312
1276 5.982327
1274 6.1594901
1272 6.2826023
1270 6.4051242
1268 6.5668974
1266 6.7802191
1264 7.0517511
1262 7.3905563
1260 7.8157663
1258 8.3614244
1256 9.0499458
1254 9.8742666
1252 10.81332
1250 11.834545
1248 12.909834
1246 14.0245
1244 15.157643
1242 16.264971
1240 17.290039
1238 18.162397
1236 18.819386
1234 19.220423
1232 19.326641
1230 19.103384
1228 18.526428
1226 17.598679
1224 16.359846
1222 14.913565
1220 13.391866
1218 11.95414
1216 10.741262
1214 9.8342552
1212 9.2689161
1210 9.0129566
1208 9.0067101
1206 9.1648083
1204 9.3822899
1202 9.5289974
1200 9.4860172
1198 9.176897
1196 8.5788364
1194 7.7619748
1192 6.8229666
1190 5.8665047
1188 4.9834161
1186 4.2289596
1184 3.6379178
1182 3.2171206
1180 2.9547052
1178 2.8134181
1176 2.7527602
1174 2.7393517
1172 2.7469571
1170 2.7614074
1168 2.7704062
1166 2.7600658
1164 2.7189193
1162 2.6420131
1160 2.5289829
1158 2.3862267
1156 2.2207601
1154 2.0375247
1152 1.8376468
1150 1.6153141
1148 1.362832
1146 1.07455
1144 0.75960845
1142 0.45983261
1140 0.21607175
1138 0.048046336
1136 -0.0376084
1134 -0.053768493
1132 -0.022072816
1130 0.027445965
1128 0.075040579
1126 0.13026536
1124 0.20798717
1122 0.31787765
1120 0.4585084
1118 0.60463721
1116 0.72695148
1114 0.80095333
1112 0.81064844
1110 0.75876242
1108 0.65675449
1106 0.52749747
1104 0.40364698
1102 0.33429679
1100 0.36005676
1098 0.48884505
1096 0.70946145
1094 0.98362494
1092 1.282532
1090 1.6179295
1088 2.0033994
1086 2.4306741
1084 2.8679028
1082 3.2374394
1080 3.4697485
1078 3.546603
1076 3.475333
1074 3.2980995
1072 3.0613759
1070 2.8018546
1068 2.5582099
1066 2.3799722
1064 2.306776
1062 2.3432553
1060 2.471915
1058 2.6389565
1056 2.7962058
1054 2.9364939
1052 3.0676112
1050 3.210052
1048 3.3717268
1046 3.5169177
1044 3.6042743
1042 3.6075988
1040 3.5238953
1038 3.4054556
1036 3.3099499
1034 3.2686293
1032 3.2825353
1030 3.2831023
1028 3.1963372
1026 2.9849463
1024 2.642977
1022 2.2313089
1020 1.8133817
1018 1.4116857
1016 1.0336823
1014 0.67213863
1012 0.32370919
1010 0.00695391
1008 -0.26203078
1006 -0.49101537
1004 -0.68839866
1002 -0.84633189
1000 -0.95243198
998 -0.99346954
996 -0.97227573
994 -0.94307142
992 -0.97074896
990 -1.1124791
988 -1.3959463
986 -1.7598
984 -2.1170571
982 -2.3708673
980 -2.45047
978 -2.3789077
976 -2.2059629
974 -1.9907724
972 -1.7833586
970 -1.5938706
968 -1.4171292
966 -1.229575
964 -1.0072261
962 -0.74093026
960 -0.44372973
958 -0.19103339
956 -0.05829484
954 -0.066267662
952 -0.190796
950 -0.29949865
948 -0.27220744
946 -0.12664416
944 0.086176485
942 0.3183443
940 0.52137291
938 0.64257574
936 0.65093881
934 0.59777272
932 0.54522318
930 0.51995885
928 0.53654593
926 0.59687996
924 0.68662858
922 0.74265617
920 0.70058006
918 0.53762913
916 0.2751846
914 0.062841497
912 0.054826751
910 0.29957899
908 0.79090941
906 1.4129671
904 2.0370817
902 2.5926316
900 3.042501
898 3.4273434
896 3.8071001
