##TITLE=Methyl Ethyl Ketone
##JCAMP-DX=4.24
##DATA TYPE=INFRARED SPECTRUM
##XUNITS=cm-1
##YUNITS=Absorbance
##FIRSTX=900
##LASTX=2300
##XYDATA=(X++(Y..Y))
2296 -0.11186
2294 -0.11419666
2292 -0.11652334
2290 -0.11885002
2288 -0.12117668
2286 -0.12350336
2284 -0.12583004
2282 -0.12815669
2280 -0.13048337
2278 -0.13281004
2276 -0.13513671
2274 -0.13746339
2272 -0.13979004
2270 -0.14211673
2268 -0.14444341
2266 -0.14677006
2264 -0.14909674
2262 -0.15142342
2260 -0.15375008
2258 -0.15607676
2256 -0.15841314
2254 -0.16074009
2252 -0.16306677
2250 -0.16539344
2248 -0.16772011
2246 -0.17004679
2244 -0.0063191145
2242 0.1505501
2240 0.30169401
2238 0.37503171
2236 0.43696702
2234 0.34789968
2232 0.24595024
2230 0.09842433
2228 -0.041511901
2226 -0.10329525
2224 -0.14305149
2222 -0.10013743
2220 -0.044403363
2218 0.036987111
2216 0.10067052
2214 0.12245723
2212 0.12107079
2210 0.085861862
2208 0.064779222
2206 0.063895151
2204 0.097313307
2202 0.16251606
2200 0.23221207
2198 0.303691
2196 0.33602858
2194 0.34575114
2192 0.33064064
2190 0.30532086
2188 0.29289404
2186 0.28486049
2184 0.2402648
2182 0.18718621
2180 0.080833718
2178 -0.032346539
2176 -0.057308916
2174 -0.064381592
2172 0.039602716
2170 0.1491684
2168 0.23048641
2166 0.29058456
2164 0.28350115
2162 0.27144805
2160 0.26381844
2158 0.27102554
2156 0.30546001
2154 0.34886193
2152 0.40116668
2150 0.46088552
2148 0.52790415
2146 0.5693211
2144 0.58744329
2142 0.53404123
2140 0.43263268
2138 0.32626268
2136 0.21984057
2134 0.21835102
2132 0.26093531
2130 0.37262094
2128 0.50503236
2126 0.57191265
2124 0.62322569
2122 0.59938425
2120 0.56490469
2118 0.55237257
2116 0.54468787
2114 0.5490979
2112 0.54356813
2110 0.48582083
2108 0.41452885
2106 0.32546994
2104 0.25863275
2102 0.2467941
2100 0.27307761
2098 0.34980899
2096 0.43901858
2094 0.53501552
2092 0.60451585
2090 0.64555281
2088 0.63692588
2086 0.59030402
2084 0.52816749
2082 0.45913613
2080 0.43394291
2078 0.43247354
2076 0.49001271
2074 0.57095087
2072 0.68243641
2070 0.80312026
2068 0.88878381
2066 0.96430856
2064 0.95014143
2062 0.91906142
2060 0.88907015
2058 0.86881781
2056 0.90084797
2054 0.93080026
2052 0.91760552
2050 0.86819583
2048 0.74911231
2046 0.61494821
2044 0.47887981
2042 0.3827796
2040 0.34628898
2038 0.35928944
2036 0.41650799
2034 0.46513915
2032 0.49783418
2030 0.50480837
2028 0.49477836
2026 0.47752699
2024 0.45817384
2022 0.4343172
2020 0.40872627
2018 0.40262219
2016 0.40410599
2014 0.42412895
2012 0.44899058
2010 0.45912075
2008 0.46505862
2006 0.47731242
2004 0.49359095
2002 0.5304659
2000 0.56730855
1998 0.58631021
1996 0.58828074
1994 0.55557901
1992 0.51022017
1990 0.45100501
1988 0.39355099
1986 0.33874115
1984 0.28383166
1982 0.22810225
1980 0.17310141
1978 0.121778
1976 0.13837142
1974 0.2186134
1972 0.41944614
1970 0.70383072
1968 0.91230834
1966 1.0626172
1964 0.95654124
1962 0.71844655
1960 0.46678159
1958 0.21604201
1956 0.11817885
1954 0.075756751
1952 0.067561679
1950 0.065729752
1948 0.047668144
1946 0.022211
1944 -0.019020371
1942 -0.056283012
1940 -0.080825292
1938 -0.091121748
1936 -0.078797884
1934 -0.079206243
1932 -0.11219374
1930 -0.18376194
1928 -0.2952325
1926 -0.34992379
1924 -0.31183875
1922 -0.11833727
1920 0.21310176
1918 0.49189529
1916 0.68627185
1914 0.70635945
1912 0.60849804
1910 0.51049674
1908 0.42897344
1906 0.34270871
1904 0.25128201
1902 0.17751721
1900 0.11032775
1898 0.21232027
1896 0.38332713
1894 0.59797263
1892 0.80410558
1890 0.82880098
1888 0.74349862
1886 0.47348285
1884 0.14176813
1882 -0.17050129
1880 -0.4121516
1878 -0.50055689
1876 -0.465956
1874 -0.29115102
1872 -0.019403718
1870 0.33516544
1868 0.6351583
1866 0.8212657
1864 0.78275436
1862 0.52967322
1860 0.20307159
1858 -0.13479501
1856 -0.37091115
1854 -0.52080625
1852 -0.57501215
1850 -0.57081705
1848 -0.54056841
1846 -0.49383464
1844 -0.54344851
1842 -0.64026809
1840 -0.80600512
1838 -0.9950487
1836 -1.0710442
1834 -1.0696549
1832 -0.90157384
1830 -0.62884325
1828 -0.25869277
1826 0.10175221
1824 0.29631495
1822 0.30756152
1820 0.076536551
1818 -0.25339979
1816 -0.57708085
1814 -0.82187927
1812 -0.94982827
1810 -0.9833675
1808 -0.95289218
1806 -0.85334599
1804 -0.70293075
1802 -0.54458576
1800 -0.38570458
1798 -0.25437519
1796 -0.143455
1794 0.015293412
1792 0.20318867
1790 0.37025714
1788 0.51224595
1786 0.52035713
1784 0.44558653
1782 0.34013104
1780 0.23244148
1778 0.24562849
1776 0.34313342
1774 0.52820271
1772 0.71203148
1770 0.71933347
1768 0.60754871
1766 0.39655814
1764 0.1938554
1762 0.11634152
1760 0.041298799
1758 -0.10610605
1756 -0.20375071
1754 -0.19033669
1752 0.084807545
1750 0.64059687
1748 1.2892256
1746 1.9391857
1744 2.2456405
1742 2.2106969
1740 2.050894
1738 1.8497826
1736 1.92778
1734 2.2346039
1732 2.3694153
1730 2.3432927
1728 1.8111023
1726 0.95676941
1724 0.2883696
1722 -0.14816639
1720 0.079553664
1718 0.88461316
1716 2.2246144
1714 3.7106333
1712 4.7228923
1710 5.3765426
1708 5.8199439
1706 6.4314485
1704 7.5862446
1702 9.5225172
1700 12.323594
1698 15.78528
1696 19.646286
1694 23.133549
1692 25.980284
1690 28.518038
1688 30.951593
1686 34.108913
1684 38.025265
1682 42.506157
1680 47.362679
1678 51.483379
1676 54.938202
1674 58.488251
1672 62.204441
1670 66.556618
1668 71.363098
1666 75.9692
1664 80.340149
1662 84.348915
1660 88.025848
1658 91.433472
1656 94.585915
1654 97.526863
1652 100.13496
1650 102.27328
1648 103.31114
1646 102.69464
1644 100.79298
1642 98.077591
1640 94.920197
1638 91.627975
1636 87.874298
1634 83.568199
1632 79.109795
1630 74.649918
1628 70.419022
1626 66.450829
1624 62.330841
1622 58.019661
1620 53.736557
1618 49.505688
1616 45.465027
1614 41.633732
1612 38.169373
1610 35.098572
1608 32.491276
1606 30.326029
1604 28.449974
1602 26.8731
1600 25.561754
1598 24.531673
1596 23.7665
1594 23.241138
1592 22.885258
1590 22.662771
1588 22.516146
1586 22.492022
1584 22.620354
1582 22.97035
1580 23.571581
1578 24.458447
1576 25.625656
1574 26.931955
1572 28.309206
1570 29.563793
1568 30.649361
1566 31.678528
1564 32.678143
1562 34.010666
1560 35.774738
1558 38.312305
1556 41.601799
1554 44.596409
1552 47.132015
1550 48.912739
1548 50.041859
1546 51.21043
1544 52.410172
1542 53.598637
1540 54.435059
1538 54.337376
1536 53.349712
1534 51.689877
1532 49.7621
1530 48.087883
1528 46.661465
1526 45.46505
1524 44.295765
1522 43.010242
1520 41.401703
1518 39.317463
1516 37.126328
1514 34.943882
1512 32.874878
1510 30.996696
1508 28.698837
1506 25.833935
1504 22.827023
1502 19.700085
1500 17.105261
1498 15.1202
1496 13.278714
1494 11.600526
1492 9.9694338
1490 8.3872194
1488 6.7998633
1486 5.2032843
1484 3.5949383
1482 2.0942092
1480 0.92596263
1478 0.19730699
1476 0.032185264
1474 0.47656676
1472 1.423068
1470 2.47594
1468 3.3372934
1466 3.9672623
1464 4.3432226
1462 4.7652712
1460 5.391808
1458 6.1618509
1456 7.0886202
1454 7.7445626
1452 7.9212289
1450 7.8424387
1448 7.407743
1446 6.9484892
1444 6.4640088
1442 6.0043211
1440 5.6010942
1438 5.2877197
1436 5.0853839
1434 4.8846035
1432 4.6710377
1430 4.3857908
1428 4.063242
1426 3.8427143
1424 3.7723548
1422 3.9174416
1420 4.2384405
1418 4.6434183
1416 5.0220399
1414 5.2374549
1412 5.3362961
1410 5.3657928
1408 5.4210024
1406 5.5823736
1404 5.8187618
1402 6.1353292
1400 6.4614959
1398 6.7744598
1396 7.0120358
1394 7.1005902
1392 7.0986505
1390 6.9219918
1388 6.6984124
1386 6.3933101
1384 6.0395932
1382 5.62501
1380 5.2066779
1378 4.8017282
1376 4.4408116
1374 4.1384788
1372 3.8458381
1370 3.5541072
1368 3.246145
1366 2.9089906
1364 2.5523202
1362 2.1775231
1360 1.7722673
1358 1.360157
1356 0.9619354
1354 0.59372699
1352 0.30501872
1350 0.08458592
1348 -0.036489315
1346 -0.093883425
1344 -0.028567839
1342 0.10137485
1340 0.34690654
1338 0.57457459
1336 0.74269998
1334 0.82586747
1332 0.72660953
1330 0.60481226
1328 0.45766646
1326 0.37716442
1324 0.42294726
1322 0.5816741
1320 0.89222592
1318 1.2572
1316 1.65338
1314 1.9615431
1312 2.1535974
1310 2.2202046
1308 2.1757383
1306 2.0757773
1304 1.94016
1302 1.792935
1300 1.647504
1298 1.5118873
1296 1.3952857
1294 1.312804
1292 1.2564288
1290 1.2443335
1288 1.2487719
1286 1.2774143
1284 1.3052114
1282 1.3222147
1280 1.3378365
1278 1.3512295
1276 1.3845657
1274 1.465555
1272 1.5860349
1270 1.7773582
1268 1.9942971
1266 2.2419164
1264 2.4870703
1262 2.7280128
1260 2.979156
1258 3.2501919
1256 3.5631144
1254 3.9165459
1252 4.302794
1250 4.7152562
1248 5.1498146
1246 5.5993247
1244 6.0569892
1242 6.4929042
1240 6.8417082
1238 7.1193123
1236 7.2433929
1234 7.3011661
1232 7.237092
1230 7.1255269
1228 6.9003406
1226 6.6408715
1224 6.2916346
1222 5.9220257
1220 5.5002751
1218 5.049191
1216 4.5371146
1214 3.9970574
1212 3.4156818
1210 2.8462887
1208 2.3043039
1206 1.8218887
1204 1.411226
1202 1.0399004
1200 0.69549125
1198 0.31470695
1196 -0.10139817
1194 -0.56023324
1192 -1.0312297
1190 -1.4514639
1188 -1.8165699
1186 -2.0461664
1184 -2.2068536
1182 -2.2664199
1180 -2.2941525
1178 -2.2832973
1176 -2.2467201
1174 -2.1258624
1172 -1.9762267
1170 -1.7368962
1168 -1.5084891
1166 -1.3171543
1164 -1.1497663
1162 -1.0357677
1160 -0.89251387
1158 -0.68693805
1156 -0.445261
1154 -0.15324171
1152 0.09780477
1150 0.28541064
1148 0.4031266
1146 0.43820429
1144 0.41322947
1142 0.32937595
1140 0.19759443
1138 0.051628195
1136 -0.00202594
1134 0.03614819
1132 0.29190627
1130 0.65366864
1128 1.1360589
1126 1.6378794
1124 2.0705955
1122 2.4668341
1120 2.734524
1118 2.9760485
1116 3.1406028
1114 3.3069196
1112 3.4857013
1110 3.6609993
1108 3.8224206
1106 3.9588101
1104 4.0372224
1102 4.1422248
1100 4.3091097
1098 4.5649304
1096 4.9632001
1094 5.4192619
1092 5.9450803
1090 6.4713964
1088 6.9938502
1086 7.485745
1084 7.9478984
1082 8.361496
1080 8.7365952
1078 9.0378437
1076 9.2879772
1074 9.4081659
1072 9.4616442
1070 9.3429623
1068 9.1752005
1066 8.9291296
1064 8.6999884
1062 8.6722078
1060 8.7019014
1058 9.0368996
1056 9.3715715
1054 9.7004223
1052 9.9686918
1050 10.04625
1048 10.120275
1046 10.193822
1044 10.338283
1042 10.61374
1040 10.877303
1038 11.110577
1036 11.2187
1034 11.178946
1032 11.070486
1030 10.901112
1028 10.735538
1026 10.561278
1024 10.278878
1022 9.9210443
1020 9.3752565
1018 8.7565403
1016 8.1335287
1014 7.5204206
1012 7.028491
1010 6.558135
1008 6.0987802
1006 5.6380157
1004 5.1487765
1002 4.6559935
1000 4.1402016
998 3.6238434
996 3.1068788
994 2.621861
992 2.2368543
990 1.886564
988 1.615398
986 1.3450587
984 1.0802168
982 0.86392784
980 0.71854144
978 0.67053276
976 0.72190911
974 0.76464736
972 0.79855156
970 0.79837859
968 0.78222764
966 0.84324503
964 0.93798172
962 1.0083323
960 1.0637797
958 0.97892255
956 0.86038315
954 0.66620058
952 0.46222481
950 0.24510713
948 0.039879337
946 0.013141286
944 0.0042243451
942 0.13275042
940 0.42853189
938 0.90431714
936 1.3944314
934 1.925828
932 2.4215128
930 2.8391292
928 3.1616108
926 3.3303363
924 3.3994761
922 3.3491421
920 3.3413348
918 3.3761313
916 3.6410043
914 4.068634
912 4.5687737
910 5.1057997
908 5.4045982
906 5.6131539
904 5.6904535
902 5.7353983
900 5.9213986
898 6.130702
896 6.4116998
