Image.
>Pix99999.
  .
5555
5555
2300
900
5555
2
1
0
701
5555
2.0643000e-001
2.1072386e-001
2.1501772e-001
2.1931157e-001
2.2360542e-001
2.2789928e-001
2.3219314e-001
2.3648700e-001
2.4078086e-001
2.4507472e-001
2.4936858e-001
2.5366244e-001
2.5795630e-001
2.6225013e-001
2.6654398e-001
2.7083784e-001
2.7514148e-001
2.7943558e-001
2.8372943e-001
2.8802329e-001
2.9231715e-001
2.9661098e-001
3.0090484e-001
3.0519870e-001
3.0949256e-001
3.1378642e-001
1.8127753e-001
6.7947428e-003
-1.8056640e-001
-1.9786744e-001
-1.9002028e-001
-3.1240357e-002
1.3559932e-001
2.4015510e-001
3.2024607e-001
2.2891900e-001
1.1410337e-001
-6.8282828e-002
-2.3234758e-001
-3.2964179e-001
-3.8130513e-001
-3.4152034e-001
-2.6274878e-001
-1.2912738e-001
-2.8750906e-003
1.0998894e-001
1.6069099e-001
1.5228519e-001
1.3938870e-001
1.2601011e-001
1.7489713e-001
2.5968814e-001
3.4961423e-001
4.4073501e-001
4.8102972e-001
5.0479174e-001
4.5662400e-001
3.9215949e-001
2.9233676e-001
1.8772326e-001
1.1199085e-001
4.3450363e-002
2.6214313e-002
2.2465261e-002
6.8142191e-002
1.0718654e-001
1.0446963e-001
7.4427091e-002
-1.4933943e-002
-7.6964699e-002
-7.5692296e-002
-2.5691649e-002
8.5425422e-002
1.6791502e-001
2.1096927e-001
2.1941142e-001
2.0089799e-001
2.0623399e-001
2.3009625e-001
2.4757238e-001
2.6055458e-001
2.2402762e-001
1.6687432e-001
9.6971929e-002
2.3608800e-002
-8.5616782e-003
-3.1099686e-002
2.9674685e-003
4.6227969e-002
9.4818890e-002
1.3649742e-001
1.2102270e-001
8.6443417e-002
4.0401453e-003
-7.4181713e-002
-1.1864385e-001
-1.2096412e-001
-4.1317299e-002
6.9686621e-002
2.1296379e-001
3.2510430e-001
3.9020526e-001
3.8271320e-001
3.0713189e-001
1.9890200e-001
7.1829855e-002
-1.5837654e-002
-7.5739115e-002
-6.8383224e-002
-2.7618984e-002
3.6922399e-002
1.0966392e-001
1.2545760e-001
1.2255029e-001
1.2884688e-001
1.3934435e-001
2.3407109e-001
3.4004661e-001
3.9299560e-001
4.2388308e-001
3.9095715e-001
3.6132824e-001
3.8841137e-001
4.3451560e-001
5.0027311e-001
5.3433037e-001
4.9903399e-001
4.2433044e-001
3.1073132e-001
2.0802821e-001
1.2783843e-001
8.5571893e-002
7.5966321e-002
8.5510612e-002
1.0529620e-001
1.0953107e-001
1.0251000e-001
8.7403364e-002
6.8840951e-002
8.9310385e-002
1.2660660e-001
2.3817243e-001
3.7452906e-001
5.2977288e-001
6.8446404e-001
7.5249386e-001
7.8468442e-001
7.1895170e-001
6.2197125e-001
4.9595708e-001
3.8114858e-001
3.2135600e-001
2.9792485e-001
3.2697874e-001
3.5802901e-001
3.7206358e-001
3.7981769e-001
3.8438651e-001
4.2813769e-001
5.1616359e-001
6.2753713e-001
7.5118017e-001
8.3258277e-001
8.7943465e-001
9.1095322e-001
9.3684012e-001
9.5905751e-001
9.8029512e-001
9.3911403e-001
8.7082589e-001
7.9983896e-001
7.2968018e-001
6.8374610e-001
6.4480793e-001
5.9209824e-001
5.4374498e-001
5.4306710e-001
5.6727368e-001
6.3263202e-001
6.8944168e-001
6.9210631e-001
6.6559637e-001
6.1095482e-001
5.6545812e-001
5.4567033e-001
5.3257853e-001
5.1770854e-001
4.9169222e-001
4.5523548e-001
4.3292478e-001
4.2764384e-001
4.6201652e-001
5.2353948e-001
6.0943139e-001
7.0707428e-001
7.7277750e-001
8.2028878e-001
8.3438373e-001
8.3442950e-001
8.6974657e-001
9.2447853e-001
1.0465679e+000
1.1949183e+000
1.3458620e+000
1.4726194e+000
1.4948615e+000
1.4507623e+000
1.3236158e+000
1.1687194e+000
1.0173981e+000
8.8719499e-001
7.9034632e-001
7.3465264e-001
7.2237223e-001
7.3803228e-001
7.7576685e-001
8.0682409e-001
8.2773209e-001
8.5669649e-001
8.9380866e-001
9.0920347e-001
9.0472984e-001
7.7610892e-001
5.6536436e-001
2.6494879e-001
-8.2638927e-002
-2.2859128e-001
-2.6236537e-001
-5.2397441e-002
2.6619762e-001
5.2964085e-001
7.5123978e-001
8.7682998e-001
9.4728082e-001
9.7702497e-001
9.7290283e-001
9.3264741e-001
8.7752116e-001
8.2188517e-001
7.7232277e-001
7.2949088e-001
6.7473948e-001
5.9738624e-001
5.2627826e-001
4.7312033e-001
4.5440352e-001
4.6664706e-001
3.8347122e-001
2.0381966e-001
-7.7563182e-002
-4.2395860e-001
-5.7231838e-001
-5.6984884e-001
-3.4273070e-001
1.6990840e-002
2.9749778e-001
5.1716691e-001
5.7277578e-001
5.2618217e-001
3.9659011e-001
2.4579430e-001
1.9269499e-001
2.3054095e-001
4.0658537e-001
5.8757710e-001
6.2189424e-001
5.3852701e-001
3.4917685e-001
9.9313147e-002
-1.8053359e-001
-3.8990471e-001
-4.8325464e-001
-5.4928690e-001
-6.3404429e-001
-7.8542686e-001
-1.0004182e+000
-1.2448881e+000
-1.4975634e+000
-1.6710882e+000
-1.7770567e+000
-1.7079200e+000
-1.5148301e+000
-1.2031611e+000
-8.2090902e-001
-5.6146342e-001
-3.8920450e-001
-2.8946519e-001
-2.0433560e-001
8.0776915e-002
5.9838301e-001
1.3600729e+000
2.1449678e+000
2.6781836e+000
3.0284524e+000
3.2592120e+000
3.6006985e+000
4.2569828e+000
5.5261388e+000
7.5617523e+000
1.0718594e+001
1.5033856e+001
1.9669470e+001
2.4190161e+001
2.8213251e+001
3.1711023e+001
3.5506626e+001
3.9731789e+001
4.4551273e+001
4.9849960e+001
5.4499466e+001
5.8551613e+001
6.2591759e+001
6.6704597e+001
7.1511047e+001
7.6818466e+001
8.2007698e+001
8.7016747e+001
9.1597168e+001
9.5733948e+001
9.9354774e+001
1.0240171e+002
1.0478285e+002
1.0643439e+002
1.0732928e+002
1.0722697e+002
1.0601321e+002
1.0395977e+002
1.0136735e+002
9.8355804e+001
9.5050461e+001
9.1171143e+001
8.6683296e+001
8.2014603e+001
7.7339294e+001
7.2719406e+001
6.8157242e+001
6.3245041e+001
5.7967201e+001
5.2846142e+001
4.7933640e+001
4.3580887e+001
3.9796608e+001
3.6576084e+001
3.3904449e+001
3.1608313e+001
2.9656893e+001
2.7896721e+001
2.6369846e+001
2.5128996e+001
2.4195332e+001
2.3551500e+001
2.3155958e+001
2.2920927e+001
2.2817745e+001
2.2801851e+001
2.2876608e+001
2.3032389e+001
2.3245600e+001
2.3494051e+001
2.3861290e+001
2.4378571e+001
2.5149738e+001
2.6202488e+001
2.7431705e+001
2.8810961e+001
3.0191336e+001
3.1552776e+001
3.2977718e+001
3.4531239e+001
3.6751556e+001
3.9663830e+001
4.2779049e+001
4.5915943e+001
4.8281681e+001
4.9874012e+001
5.1033714e+001
5.1735901e+001
5.2089451e+001
5.2009838e+001
5.1489563e+001
5.0585369e+001
4.9435963e+001
4.8144161e+001
4.6811474e+001
4.5401787e+001
4.3889000e+001
4.2216843e+001
4.0354355e+001
3.8438580e+001
3.6541302e+001
3.4724857e+001
3.3015869e+001
3.1092680e+001
2.8846373e+001
2.6132860e+001
2.2867186e+001
1.9938772e+001
1.7490995e+001
1.5551334e+001
1.4157840e+001
1.2687428e+001
1.1127677e+001
9.5294886e+000
7.9051027e+000
6.3160315e+000
4.7919388e+000
3.3697140e+000
2.1352661e+000
1.1748168e+000
5.1169401e-001
1.3567485e-001
1.5200160e-001
6.2191856e-001
1.2861388e+000
2.0478871e+000
2.7342036e+000
3.2137852e+000
3.5338392e+000
3.6753750e+000
3.8282046e+000
4.0572801e+000
4.4516668e+000
5.0926943e+000
5.6322155e+000
5.9937801e+000
6.1614323e+000
6.0571890e+000
5.8563051e+000
5.5256548e+000
5.1351466e+000
4.6711187e+000
4.1858592e+000
3.7048538e+000
3.3099902e+000
3.0209041e+000
2.8210385e+000
2.7153554e+000
2.6854091e+000
2.7608089e+000
2.9855063e+000
3.3254056e+000
3.7579570e+000
4.1921339e+000
4.5403566e+000
4.8306184e+000
5.0560894e+000
5.2711306e+000
5.4996862e+000
5.7128839e+000
5.8967199e+000
6.0363503e+000
6.1013536e+000
6.1373372e+000
6.1291895e+000
6.0826573e+000
5.9744000e+000
5.8163471e+000
5.5799890e+000
5.2750840e+000
4.8757815e+000
4.4111056e+000
3.8972974e+000
3.4407060e+000
3.0600889e+000
2.7657492e+000
2.5051093e+000
2.1631279e+000
1.7458913e+000
1.2586285e+000
7.8581953e-001
4.3099672e-001
1.7863163e-001
6.0103986e-002
6.0542994e-003
3.2114599e-002
1.0696007e-001
1.8836081e-001
2.4035184e-001
2.2571626e-001
2.1085313e-001
2.0808057e-001
2.6611814e-001
4.4140974e-001
6.3235551e-001
8.4260547e-001
1.0239444e+000
1.1687251e+000
1.3366359e+000
1.5437241e+000
1.8162978e+000
2.1468301e+000
2.4671991e+000
2.7547925e+000
2.9543011e+000
3.0777771e+000
3.1375852e+000
3.1562788e+000
3.1533141e+000
3.1460509e+000
3.1555624e+000
3.1791430e+000
3.2293632e+000
3.2799070e+000
3.3164248e+000
3.3403840e+000
3.3373234e+000
3.3377678e+000
3.3545797e+000
3.3929513e+000
3.4782474e+000
3.5610456e+000
3.6356301e+000
3.6960177e+000
3.7458467e+000
3.8623841e+000
4.0862846e+000
4.3955412e+000
4.7991452e+000
5.1964722e+000
5.5859137e+000
5.9668283e+000
6.3486061e+000
6.7574024e+000
7.1846104e+000
7.6169462e+000
8.0535755e+000
8.4981346e+000
8.9400320e+000
9.3640747e+000
9.7386713e+000
9.9665871e+000
1.0100893e+001
1.0019040e+001
9.8705750e+000
9.5775490e+000
9.2481575e+000
8.8239069e+000
8.3719292e+000
7.8569770e+000
7.3485050e+000
6.8554797e+000
6.3797221e+000
5.9296322e+000
5.4722686e+000
5.0028400e+000
4.5199947e+000
4.0263281e+000
3.5482643e+000
3.0922885e+000
2.6736889e+000
2.2825358e+000
1.8956287e+000
1.5077171e+000
1.1056268e+000
7.0565057e-001
3.4028342e-001
9.0445578e-003
-2.2856441e-001
-4.0376580e-001
-4.1188282e-001
-3.5043600e-001
-1.0003004e-001
1.6833173e-001
4.6232200e-001
7.1970677e-001
8.6379397e-001
9.6947449e-001
9.7803110e-001
9.4684470e-001
8.3678687e-001
7.1316057e-001
5.7241976e-001
4.5801285e-001
3.7583935e-001
2.8762639e-001
1.9328608e-001
9.9231876e-002
1.6651198e-002
-5.7449779e-003
1.8245600e-002
7.9760373e-002
1.6302501e-001
3.2113802e-001
5.1556408e-001
7.5000089e-001
9.8644519e-001
1.1755772e+000
1.3342352e+000
1.3763239e+000
1.4034135e+000
1.4094000e+000
1.4508947e+000
1.6432046e+000
1.8593121e+000
2.1467795e+000
2.4018500e+000
2.5764427e+000
2.7327073e+000
2.8598580e+000
3.0312409e+000
3.2748430e+000
3.5576138e+000
3.8858321e+000
4.2023611e+000
4.5053344e+000
4.7919807e+000
5.0651197e+000
5.3299828e+000
5.5828137e+000
5.7854390e+000
5.9469285e+000
5.9766216e+000
5.9385238e+000
5.7218580e+000
5.4537873e+000
5.0969291e+000
4.7490716e+000
4.5517116e+000
4.4006791e+000
4.5005608e+000
4.6060915e+000
4.7330790e+000
4.8194981e+000
4.7767611e+000
4.7170320e+000
4.6204820e+000
4.5601664e+000
4.5698047e+000
4.6137967e+000
4.7019734e+000
4.7396603e+000
4.7067637e+000
4.5373993e+000
4.2383447e+000
3.8461492e+000
3.3964136e+000
3.0106258e+000
2.6667249e+000
2.4129763e+000
2.1897631e+000
1.9212058e+000
1.6355429e+000
1.2951934e+000
9.4810766e-001
6.2931716e-001
3.1907141e-001
8.2117781e-002
-1.4039549e-001
-2.6875708e-001
-3.9891887e-001
-5.3767431e-001
-6.8913758e-001
-8.7630516e-001
-1.0108870e+000
-1.0227166e+000
-9.8866093e-001
-8.7993234e-001
-8.4198642e-001
-9.0051496e-001
-9.9546069e-001
-1.1214572e+000
-1.1382945e+000
-1.0623064e+000
-8.7851959e-001
-6.3147879e-001
-4.1789201e-001
-2.2382574e-001
-1.1740156e-001
-3.8848910e-002
4.4186428e-002
1.2846842e-001
2.1699585e-001
3.0104840e-001
2.6427516e-001
2.1761224e-001
9.9408217e-002
2.2553140e-004
8.4450729e-003
7.1920335e-002
3.4314480e-001
6.3463229e-001
9.8298180e-001
1.2449108e+000
1.3211194e+000
1.3189949e+000
1.1957922e+000
1.2463260e+000
1.5112791e+000
1.9921914e+000
2.6722584e+000
3.2917542e+000
3.8660829e+000
4.2363014e+000
4.4973731e+000
4.6440783e+000
4.7467718e+000
4.8967276e+000
5.0586019e+000
5.1755133e+000
5.2847600e+000
5.1869001e+000
