Image.
>Pix99999.
  .
5555
5555
2300
900
5555
2
1
0
701
5555
1.3323000e-001
1.3600603e-001
1.3878205e-001
1.4154813e-001
1.4432411e-001
1.4709021e-001
1.4986618e-001
1.5263230e-001
1.5540823e-001
1.5817438e-001
1.6095029e-001
1.6372631e-001
1.6649251e-001
1.6925856e-001
1.7203440e-001
1.7484957e-001
1.7757760e-001
1.8021588e-001
1.8312491e-001
1.8640070e-001
1.8868543e-001
1.8957451e-001
1.9415228e-001
2.0392306e-001
2.0000085e-001
1.6252249e-001
9.0505756e-002
-7.6782145e-004
-5.1982094e-002
-1.1679951e-002
9.0022013e-002
2.0135815e-001
2.7739477e-001
2.8785113e-001
2.5286394e-001
2.0876600e-001
1.9840126e-001
2.5158721e-001
3.3837029e-001
4.1338766e-001
4.4043198e-001
4.0021828e-001
3.2979959e-001
2.7748084e-001
2.6862344e-001
3.1196591e-001
3.7811840e-001
4.3319547e-001
4.7188035e-001
4.9913287e-001
5.2499354e-001
5.5512708e-001
5.7174486e-001
5.5730730e-001
5.2553880e-001
5.0108767e-001
5.1206321e-001
5.7667166e-001
6.6875905e-001
7.4950665e-001
7.8673887e-001
7.6002342e-001
6.8658251e-001
5.9670985e-001
5.2372795e-001
4.9607357e-001
5.1915228e-001
5.8770245e-001
6.8422538e-001
7.8748238e-001
8.7697399e-001
9.3769044e-001
9.7568566e-001
1.0068953e+000
1.0580337e+000
1.1536107e+000
1.2934788e+000
1.4657511e+000
1.6451317e+000
1.8028846e+000
1.9130456e+000
1.9558616e+000
1.9328846e+000
1.8578161e+000
1.7634560e+000
1.6843379e+000
1.6340374e+000
1.6147264e+000
1.6132371e+000
1.6129509e+000
1.6058414e+000
1.5879220e+000
1.5596902e+000
1.5258836e+000
1.5025140e+000
1.5067736e+000
1.5425005e+000
1.6035621e+000
1.6639280e+000
1.6964258e+000
1.6998857e+000
1.6854240e+000
1.6716380e+000
1.6743054e+000
1.6869348e+000
1.6962250e+000
1.6979243e+000
1.6933407e+000
1.6911469e+000
1.6994272e+000
1.7127157e+000
1.7219679e+000
1.7282560e+000
1.7361602e+000
1.7474620e+000
1.7573394e+000
1.7394612e+000
1.6668060e+000
1.5459951e+000
1.4015430e+000
1.2720000e+000
1.1937407e+000
1.1721566e+000
1.1989501e+000
1.2645103e+000
1.3585392e+000
1.4681220e+000
1.5782610e+000
1.6699451e+000
1.7250726e+000
1.7365057e+000
1.7041793e+000
1.6370412e+000
1.5501380e+000
1.4684759e+000
1.4186543e+000
1.4158789e+000
1.4636073e+000
1.5362383e+000
1.5976225e+000
1.6204599e+000
1.5927148e+000
1.5457805e+000
1.5248191e+000
1.5497205e+000
1.6196944e+000
1.7013929e+000
1.7542291e+000
1.7683526e+000
1.7505511e+000
1.7149142e+000
1.6738169e+000
1.6209600e+000
1.5457387e+000
1.4571979e+000
1.3745250e+000
1.3186200e+000
1.3057607e+000
1.3326871e+000
1.3892354e+000
1.4752429e+000
1.5951370e+000
1.7485706e+000
1.9243693e+000
2.0760503e+000
2.1467443e+000
2.1109791e+000
1.9706643e+000
1.7729920e+000
1.5791749e+000
1.4190714e+000
1.3023698e+000
1.2263401e+000
1.1832736e+000
1.1652575e+000
1.1622000e+000
1.1547891e+000
1.1238339e+000
1.0723654e+000
1.0158246e+000
9.7105086e-001
9.4937700e-001
9.3837339e-001
9.1936553e-001
9.0120971e-001
9.1204190e-001
9.9548382e-001
1.1826568e+000
1.4189223e+000
1.6120770e+000
1.7104458e+000
1.7009960e+000
1.6257840e+000
1.5413567e+000
1.4452746e+000
1.3090578e+000
1.1432440e+000
9.8727179e-001
8.9912546e-001
9.3220216e-001
1.0844400e+000
1.3156993e+000
1.5604060e+000
1.7435321e+000
1.8004704e+000
1.6892822e+000
1.4369545e+000
1.1118203e+000
7.9354465e-001
5.5797356e-001
4.5252600e-001
5.0113076e-001
6.9869483e-001
1.0098886e+000
1.3339497e+000
1.5464379e+000
1.5826268e+000
1.4364510e+000
1.1866463e+000
9.4561315e-001
7.6510715e-001
6.5291107e-001
6.0643744e-001
6.2041545e-001
6.8691999e-001
7.8976786e-001
8.8228440e-001
9.0963680e-001
8.6450058e-001
7.7756858e-001
7.0780271e-001
7.2002369e-001
8.4088767e-001
1.0577374e+000
1.2973080e+000
1.4577750e+000
1.4696018e+000
1.3057463e+000
1.0193495e+000
7.0824337e-001
4.5024171e-001
2.9270604e-001
2.2979748e-001
2.2679688e-001
2.6653153e-001
3.4567600e-001
4.5363778e-001
5.7219362e-001
6.7885315e-001
7.5819623e-001
8.3637857e-001
9.5507365e-001
1.0976920e+000
1.2089401e+000
1.2540234e+000
1.2257993e+000
1.1551206e+000
1.0927383e+000
1.0721109e+000
1.1102971e+000
1.2183086e+000
1.3875690e+000
1.5306952e+000
1.5213727e+000
1.3087600e+000
9.2465287e-001
5.0143921e-001
2.0367417e-001
4.9833462e-002
-4.1145317e-002
-8.5502230e-002
-3.8982037e-002
1.3460967e-001
4.3825319e-001
7.8764939e-001
1.0485679e+000
1.1435343e+000
1.0712818e+000
9.4954205e-001
9.4804740e-001
1.0984000e+000
1.3018079e+000
1.3881397e+000
1.1903039e+000
7.2911489e-001
1.8287060e-001
-2.2778931e-001
-2.9392898e-001
8.8650301e-002
8.9982021e-001
1.9228243e+000
2.8373187e+000
3.4953811e+000
3.9437289e+000
4.4100637e+000
5.2280025e+000
6.6713424e+000
8.9068327e+000
1.1905292e+001
1.5446038e+001
1.9087143e+001
2.2309490e+001
2.4966608e+001
2.7292370e+001
2.9773193e+001
3.2985565e+001
3.7205044e+001
4.2326069e+001
4.7735641e+001
5.2603752e+001
5.6847115e+001
6.1034462e+001
6.5589607e+001
7.0602913e+001
7.5689728e+001
8.0178497e+001
8.3757973e+001
8.6504883e+001
8.8606300e+001
9.0274132e+001
9.1678856e+001
9.2925926e+001
9.3993561e+001
9.4732674e+001
9.4873199e+001
9.4130463e+001
9.2589516e+001
9.0649635e+001
8.8578751e+001
8.6434540e+001
8.4107124e+001
8.1398834e+001
7.8252487e+001
7.4751831e+001
7.0947624e+001
6.6835541e+001
6.2427521e+001
5.7775082e+001
5.3003819e+001
4.8295055e+001
4.3796486e+001
3.9614956e+001
3.5856655e+001
3.2614750e+001
2.9889132e+001
2.7591900e+001
2.5638197e+001
2.3972921e+001
2.2580412e+001
2.1475630e+001
2.0654499e+001
2.0085646e+001
1.9734217e+001
1.9573795e+001
1.9610672e+001
1.9880650e+001
2.0407343e+001
2.1202129e+001
2.2309280e+001
2.3802963e+001
2.5731142e+001
2.8088066e+001
3.0760241e+001
3.3542740e+001
3.6284000e+001
3.8922234e+001
4.1476078e+001
4.4059738e+001
4.6937679e+001
5.0395844e+001
5.4118870e+001
5.7215229e+001
5.9153675e+001
5.9985546e+001
6.0112537e+001
6.0115253e+001
6.0202419e+001
6.0108112e+001
5.9408260e+001
5.7701649e+001
5.5050972e+001
5.2014236e+001
4.9103531e+001
4.6620148e+001
4.4618553e+001
4.2919197e+001
4.1296856e+001
3.9543243e+001
3.7530125e+001
3.5246162e+001
3.2833813e+001
3.0552109e+001
2.8494841e+001
2.6525314e+001
2.4438482e+001
2.2051271e+001
1.9412600e+001
1.6821440e+001
1.4492114e+001
1.2459900e+001
1.0669415e+001
9.0112438e+000
7.4216256e+000
5.9036059e+000
4.4536352e+000
3.0549893e+000
1.7544219e+000
6.7874193e-001
-4.5419186e-002
-3.1253392e-001
-1.9493282e-002
9.0132797e-001
2.3127627e+000
3.8555400e+000
5.2849350e+000
6.5803514e+000
7.8462691e+000
9.2691631e+000
1.0955674e+001
1.2847610e+001
1.4657400e+001
1.5897356e+001
1.6326277e+001
1.6093544e+001
1.5451514e+001
1.4661857e+001
1.3890951e+001
1.3172070e+001
1.2507812e+001
1.1892037e+001
1.1277671e+001
1.0576182e+001
9.7415276e+000
8.8056583e+000
7.8593478e+000
7.0413241e+000
6.4550290e+000
6.1307354e+000
6.0330701e+000
6.0611749e+000
6.1240458e+000
6.1749649e+000
6.2317142e+000
6.3829718e+000
6.6909375e+000
7.1527028e+000
7.7238703e+000
8.3204021e+000
8.8474512e+000
9.2109900e+000
9.3384361e+000
9.1970921e+000
8.8134003e+000
8.2850246e+000
7.7075772e+000
7.1465902e+000
6.6402521e+000
6.1947436e+000
5.8056183e+000
5.4593053e+000
5.1187859e+000
4.7199383e+000
4.2213578e+000
3.6292214e+000
2.9803216e+000
2.3372049e+000
1.7392583e+000
1.1839395e+000
6.7566288e-001
2.4544893e-001
-6.4418182e-002
-2.0542204e-001
-1.4153932e-001
1.3765928e-001
6.1572826e-001
1.2442429e+000
1.9782240e+000
2.7850726e+000
3.6067598e+000
4.3401585e+000
4.8734655e+000
5.1087737e+000
5.0204082e+000
4.6956811e+000
4.2469611e+000
3.7818899e+000
3.3823583e+000
3.0853612e+000
2.8941686e+000
2.7720723e+000
2.6729698e+000
2.5527201e+000
2.3844693e+000
2.1712947e+000
1.9298582e+000
1.6877235e+000
1.4710658e+000
1.2991620e+000
1.1855040e+000
1.1382506e+000
1.1735857e+000
1.3228881e+000
1.6159492e+000
2.0689268e+000
2.6675479e+000
3.3488193e+000
4.0383658e+000
4.6646743e+000
5.1790299e+000
5.5741677e+000
5.8599615e+000
6.0608530e+000
6.2047033e+000
6.3202066e+000
6.4399362e+000
6.6018662e+000
6.8376989e+000
7.1644239e+000
7.5879722e+000
8.1021452e+000
8.7100430e+000
9.4373398e+000
1.0311777e+001
1.1351590e+001
1.2549091e+001
1.3849751e+001
1.5182381e+001
1.6459606e+001
1.7598732e+001
1.8531506e+001
1.9200829e+001
1.9563316e+001
1.9585279e+001
1.9243416e+001
1.8534550e+001
1.7489466e+001
1.6169193e+001
1.4675742e+001
1.3129080e+001
1.1660410e+001
1.0389588e+001
9.3955240e+000
8.7270632e+000
8.3867092e+000
8.3414421e+000
8.5068550e+000
8.7729282e+000
9.0045061e+000
9.0772276e+000
8.9064655e+000
8.4509287e+000
7.7443314e+000
6.8617253e+000
5.9265208e+000
5.0532269e+000
4.3098726e+000
3.7229640e+000
3.2536085e+000
2.8544383e+000
2.4954956e+000
2.1665001e+000
1.8915234e+000
1.6988652e+000
1.6061103e+000
1.6139222e+000
1.6904621e+000
1.7950132e+000
1.8849130e+000
1.9259217e+000
1.9040092e+000
1.8123243e+000
1.6499441e+000
1.4238160e+000
1.1561432e+000
8.7607837e-001
6.1926889e-001
4.1364449e-001
2.6355761e-001
1.5133674e-001
2.3984909e-002
-1.5278600e-001
-3.4953833e-001
-5.2477455e-001
-6.4580494e-001
-6.9470185e-001
-6.8395638e-001
-6.3365078e-001
-5.6401974e-001
-4.8917639e-001
-4.0834570e-001
-3.1784856e-001
-2.1591049e-001
-1.0360408e-001
1.1843584e-002
1.1926023e-001
2.0202500e-001
2.4943532e-001
2.6999742e-001
2.8666767e-001
3.4626245e-001
4.9116287e-001
7.3639071e-001
1.0775361e+000
1.4775554e+000
1.8968201e+000
2.3094544e+000
2.6968892e+000
3.0503156e+000
3.3579652e+000
3.5946372e+000
3.7349029e+000
3.7626262e+000
3.6768234e+000
3.5124547e+000
3.3149781e+000
3.1331186e+000
2.9997480e+000
2.9017725e+000
2.8120441e+000
2.6957932e+000
2.5318859e+000
2.3427553e+000
2.1635230e+000
2.0347509e+000
1.9883548e+000
2.0279107e+000
2.1466691e+000
2.3276472e+000
2.5503783e+000
2.7901835e+000
3.0193000e+000
3.2054694e+000
3.3261251e+000
3.3902652e+000
3.4146698e+000
3.4144337e+000
3.3878069e+000
3.2853289e+000
3.0638914e+000
2.7346430e+000
2.3352914e+000
1.9425352e+000
1.6168568e+000
1.3418833e+000
1.0831512e+000
8.1070733e-001
5.1333195e-001
2.3315965e-001
1.1462688e-002
-1.5497750e-001
-2.8904215e-001
-4.4018960e-001
-6.4546537e-001
-8.8094294e-001
-1.0997329e+000
-1.2309164e+000
-1.2225405e+000
-1.1052465e+000
-9.3438262e-001
-7.7817851e-001
-6.8640661e-001
-6.3673472e-001
-5.9216225e-001
-5.2653778e-001
-4.2756516e-001
-3.2016999e-001
-2.2947857e-001
-1.4993219e-001
-6.5896347e-002
4.6246797e-002
1.9768029e-001
3.4972546e-001
4.5238200e-001
4.6007714e-001
3.5140026e-001
1.8654270e-001
4.5152936e-002
3.6908463e-003
1.2079433e-001
3.9348739e-001
7.8858340e-001
1.2189170e+000
1.5959516e+000
1.8746537e+000
2.0352211e+000
2.1095800e+000
2.1463821e+000
2.2067885e+000
2.3419240e+000
2.5539916e+000
2.8270528e+000
3.1242235e+000
3.4133949e+000
3.7014999e+000
4.0116539e+000
4.3914752e+000
4.8777313e+000
5.4425163e+000
6.0285320e+000
6.5287213e+000
6.8234000e+000
