##TITLE=Methyl Ethyl Ketone
##JCAMP-DX=4.24
##DATA TYPE=INFRARED SPECTRUM
##XUNITS=cm-1
##YUNITS=Absorbance
##FIRSTX=900
##LASTX=2300
##XYDATA=(X++(Y..Y))
2296 0.21029
2294 0.21466374
2292 0.21903749
2290 0.22341122
2288 0.22778496
2286 0.23215871
2284 0.23653246
2282 0.24090621
2280 0.24527995
2278 0.24965368
2276 0.25403729
2274 0.25841117
2272 0.26278493
2270 0.26713902
2268 0.271532
2266 0.27598444
2264 0.28028172
2262 0.28438044
2260 0.28902015
2258 0.29444206
2256 0.29781514
2254 0.298298
2252 0.30640727
2250 0.32525849
2248 0.31578863
2246 0.24140178
2244 0.12268386
2242 -0.0035684849
2240 -0.10010136
2238 -0.14589584
2236 -0.185498
2234 -0.26380962
2232 -0.35188109
2230 -0.40527847
2228 -0.40335295
2226 -0.34282401
2224 -0.26180077
2222 -0.20507987
2220 -0.19606906
2218 -0.24308537
2216 -0.31950772
2214 -0.39045367
2212 -0.4290598
2210 -0.41918996
2208 -0.37767178
2206 -0.32806072
2204 -0.28062961
2202 -0.24150239
2200 -0.21698417
2198 -0.2141517
2196 -0.24282715
2194 -0.30806717
2192 -0.39215931
2190 -0.47104797
2188 -0.52413875
2186 -0.53641891
2184 -0.51059717
2182 -0.45928422
2180 -0.41234788
2178 -0.40058821
2176 -0.43638572
2174 -0.51946592
2172 -0.62299782
2170 -0.71737772
2168 -0.79691297
2166 -0.86405033
2164 -0.92145342
2162 -0.96651524
2160 -0.97570378
2158 -0.92556167
2156 -0.82193798
2154 -0.68470085
2152 -0.54962176
2150 -0.4526298
2148 -0.4090029
2146 -0.42197216
2144 -0.47508886
2142 -0.54436654
2140 -0.60200882
2138 -0.62555927
2136 -0.61905342
2134 -0.5982458
2132 -0.58822751
2130 -0.61138231
2128 -0.66622436
2126 -0.73885411
2124 -0.80010122
2122 -0.82390845
2120 -0.8188448
2118 -0.80811745
2116 -0.82213432
2114 -0.8844313
2112 -0.98089123
2110 -1.0832462
2108 -1.162954
2106 -1.1978321
2104 -1.1887572
2102 -1.1468159
2100 -1.088972
2098 -1.0311463
2096 -0.9780857
2094 -0.93051833
2092 -0.89127153
2090 -0.86375189
2088 -0.84960663
2086 -0.84951699
2084 -0.86312556
2082 -0.89041448
2080 -0.93435413
2078 -0.99402237
2076 -1.0471071
2074 -1.0647923
2072 -1.0266999
2070 -0.92498714
2068 -0.78805435
2066 -0.65732509
2064 -0.56790876
2062 -0.54410589
2060 -0.5787825
2058 -0.6522814
2056 -0.74674487
2054 -0.8473044
2052 -0.94605374
2050 -1.0374682
2048 -1.1138623
2046 -1.1692036
2044 -1.2078381
2042 -1.238366
2040 -1.2675606
2038 -1.2980239
2036 -1.3192528
2034 -1.3163785
2032 -1.2807388
2030 -1.210997
2028 -1.1238903
2026 -1.0397072
2024 -0.96259463
2022 -0.88919538
2020 -0.81816602
2018 -0.75527871
2016 -0.73091
2014 -0.77848744
2012 -0.89745539
2010 -1.0678836
2008 -1.2564086
2006 -1.4291378
2004 -1.5732963
2002 -1.685524
2000 -1.7597457
1998 -1.788026
1996 -1.7625929
1994 -1.6837006
1992 -1.5841137
1990 -1.5095443
1988 -1.4942759
1986 -1.5577092
1984 -1.6823463
1982 -1.8342217
1980 -1.9841266
1978 -2.1053193
1976 -2.1681285
1974 -2.1477611
1972 -2.0474782
1970 -1.8932914
1968 -1.7487485
1966 -1.6832064
1964 -1.7152623
1962 -1.8266243
1960 -1.9546039
1958 -2.0287662
1956 -2.0331359
1954 -1.9847572
1952 -1.9173754
1950 -1.8642133
1948 -1.8278283
1946 -1.797425
1944 -1.7756274
1942 -1.7714725
1940 -1.7873601
1938 -1.8170382
1936 -1.8358742
1934 -1.8168123
1932 -1.762576
1930 -1.6930491
1928 -1.6317406
1926 -1.5956321
1924 -1.5718722
1922 -1.5378584
1920 -1.4988549
1918 -1.473992
1916 -1.47176
1914 -1.4897697
1912 -1.5091628
1910 -1.511058
1908 -1.5133698
1906 -1.5476693
1904 -1.613248
1902 -1.6833814
1900 -1.7039474
1898 -1.61923
1896 -1.4267571
1894 -1.165696
1892 -0.91941941
1890 -0.78322399
1888 -0.80597913
1886 -0.99158186
1884 -1.2720083
1882 -1.5486851
1880 -1.7588531
1878 -1.8706248
1876 -1.88053
1874 -1.7991241
1872 -1.635816
1870 -1.4084804
1868 -1.1826152
1866 -1.0424879
1864 -1.0307811
1862 -1.150638
1860 -1.3541957
1858 -1.5746279
1856 -1.78538
1854 -1.9840726
1852 -2.1540694
1850 -2.2669551
1848 -2.293956
1846 -2.2164929
1844 -2.057534
1842 -1.8643978
1840 -1.677552
1838 -1.5218104
1836 -1.3822771
1834 -1.222765
1832 -1.0203435
1830 -0.77548695
1828 -0.54449743
1826 -0.4066
1824 -0.3893832
1822 -0.47499186
1820 -0.60775697
1818 -0.72124082
1816 -0.79196429
1814 -0.83001459
1812 -0.86014742
1810 -0.90280694
1808 -0.93126214
1806 -0.893125
1804 -0.7643382
1802 -0.552311
1800 -0.30442175
1798 -0.082763344
1796 0.093316242
1794 0.23034674
1792 0.30798519
1790 0.29442516
1788 0.20656754
1786 0.097717121
1784 0.022619346
1782 0.023984844
1780 0.10562841
1778 0.24861519
1776 0.4515377
1774 0.71392107
1772 0.96797663
1770 1.1051069
1768 1.0563805
1766 0.8122009
1764 0.4765788
1762 0.20601845
1760 0.04619937
1758 -0.040100239
1756 -0.05767487
1754 0.02267386
1752 0.2227723
1750 0.53530478
1748 0.86541468
1746 1.0698186
1744 1.072492
1742 0.88373834
1740 0.64372611
1738 0.54886997
1736 0.64549202
1734 0.83826411
1732 0.95486993
1730 0.82107878
1728 0.44133639
1726 -0.02650629
1724 -0.36993471
1722 -0.37135151
1720 0.11162034
1718 1.1027641
1716 2.3566029
1714 3.4709911
1712 4.2473679
1710 4.7220936
1708 5.1461282
1706 5.8930159
1704 7.2536845
1702 9.3938131
1700 12.297031
1698 15.770967
1696 19.414572
1694 22.74341
1692 25.576775
1690 28.060801
1688 30.61956
1686 33.80637
1684 37.91468
1682 42.890415
1680 48.170799
1678 52.963615
1676 57.202713
1674 61.45414
1672 66.125435
1670 71.27742
1668 76.481224
1666 81.021194
1664 84.592155
1662 87.317581
1660 89.395477
1658 91.007683
1656 92.289459
1654 93.321609
1652 94.107559
1650 94.567566
1648 94.515221
1646 93.744217
1644 92.349525
1642 90.673088
1640 88.898392
1638 86.990707
1636 84.77803
1634 82.041176
1632 78.763847
1630 75.115005
1628 71.194382
1626 66.998001
1624 62.506119
1622 57.726665
1620 52.788799
1618 47.925434
1616 43.33474
1614 39.152573
1612 35.472378
1610 32.340378
1608 29.709291
1606 27.457506
1604 25.49299
1602 23.775631
1600 22.317228
1598 21.165087
1596 20.335501
1594 19.801567
1592 19.514509
1590 19.419546
1588 19.496546
1586 19.765327
1584 20.252806
1582 20.99073
1580 22.049692
1578 23.530323
1576 25.483572
1574 27.879953
1572 30.574171
1570 33.332264
1568 36.000359
1566 38.533764
1564 40.924927
1562 43.224579
1560 45.693985
1558 48.704201
1556 52.109657
1554 55.21492
1552 57.447983
1550 58.573307
1548 58.794636
1546 58.661858
1544 58.446251
1542 58.014221
1540 57.096958
1538 55.435909
1536 53.111687
1534 50.564411
1532 48.183208
1530 46.181595
1528 44.582874
1526 43.2272
1524 41.903767
1522 40.396931
1520 38.561852
1518 36.368156
1516 33.949684
1514 31.571983
1512 29.338039
1510 27.124268
1508 24.766203
1506 22.147358
1504 19.377846
1502 16.796427
1500 14.601067
1498 12.75546
1496 11.147142
1494 9.643095
1492 8.1738033
1490 6.7452121
1488 5.3383694
1486 3.9016743
1484 2.4735079
1482 1.2112503
1480 0.28238839
1478 -0.16787779
1476 -0.014829129
1474 0.80430633
1472 2.1225514
1470 3.530575
1468 4.752017
1466 5.7629571
1464 6.6669235
1462 7.6509972
1460 8.8564386
1458 10.310656
1456 11.8572
1454 13.15434
1452 13.952877
1450 14.197574
1448 13.967571
1446 13.45575
1444 12.8257
1442 12.166329
1440 11.527474
1438 10.919424
1436 10.306173
1434 9.6115551
1432 8.8085651
1430 7.9529524
1428 7.1394882
1426 6.4813585
1424 6.0409679
1422 5.8002181
1420 5.700994
1418 5.6599026
1416 5.6214886
1414 5.5830603
1412 5.5818815
1410 5.6902151
1408 5.9557023
1406 6.3755407
1404 6.9134874
1402 7.4986405
1400 8.040432
1398 8.4352999
1396 8.6030207
1394 8.5109472
1392 8.1892281
1390 7.7403879
1388 7.2556868
1386 6.7831149
1384 6.3442669
1382 5.9360547
1380 5.5540833
1378 5.197
1376 4.8454313
1374 4.4551077
1372 3.9963281
1370 3.4723244
1368 2.9068079
1366 2.3401194
1364 1.7935206
1362 1.2572012
1360 0.737481
1358 0.27773699
1356 -0.062726989
1354 -0.21770827
1352 -0.14839005
1350 0.13631675
1348 0.60538948
1346 1.2112728
1344 1.91302
1342 2.6814475
1340 3.4619935
1338 4.1554823
1336 4.6538057
1334 4.8622165
1332 4.7581148
1330 4.4312439
1328 3.9904308
1326 3.5328035
1324 3.1407554
1322 2.8721144
1320 2.7509017
1318 2.7504585
1316 2.81161
1314 2.8449802
1312 2.7857394
1310 2.6251841
1308 2.3841715
1306 2.1102085
1304 1.8457835
1302 1.614915
1300 1.4416372
1298 1.3568494
1296 1.3918285
1294 1.5733328
1292 1.9102722
1290 2.3801606
1288 2.9439759
1286 3.5470064
1284 4.1379375
1282 4.6797757
1280 5.1482959
1278 5.5375342
1276 5.8498602
1274 6.0963011
1272 6.2943296
1270 6.4705706
1268 6.6551547
1266 6.8801799
1264 7.1718159
1262 7.5431519
1260 7.9999218
1258 8.5397205
1256 9.1594772
1254 9.8579054
1252 10.634837
1250 11.491123
1248 12.427172
1246 13.4365
1244 14.498457
1242 15.568759
1240 16.586742
1238 17.47497
1236 18.163401
1234 18.595699
1232 18.726439
1230 18.522917
1228 17.968966
1226 17.084471
1224 15.9184
1222 14.566781
1220 13.145463
1218 11.78718
1216 10.614075
1214 9.7137623
1212 9.1358242
1210 8.8698845
1208 8.8675041
1206 9.0311098
1204 9.2460899
1202 9.3902311
1200 9.3612671
1198 9.1065722
1196 8.6134863
1194 7.9299912
1192 7.1256452
1190 6.2839537
1188 5.4766703
1186 4.7418609
1184 4.0957656
1182 3.5262551
1180 3.0218332
1178 2.588352
1176 2.2400801
1174 1.9987079
1172 1.872716
1170 1.8376706
1168 1.8577914
1166 1.8909607
1164 1.9061641
1162 1.9001
1160 1.8793366
1158 1.8558449
1156 1.8322471
1154 1.7873834
1152 1.6941336
1150 1.5271024
1148 1.276958
1146 0.9713161
1144 0.65188527
1142 0.37079063
1140 0.16581489
1138 0.035181656
1136 -0.0303626
1134 -0.036342815
1132 0.0055941753
1130 0.067536816
1128 0.12152097
1126 0.15002277
1124 0.14911443
1122 0.14143795
1120 0.15350759
1118 0.20405555
1116 0.29487985
1114 0.39131731
1112 0.4558444
1110 0.4671919
1108 0.42515504
1106 0.37174049
1104 0.35395154
1102 0.40397903
1100 0.53271049
1098 0.7074222
1096 0.89847142
1094 1.1117895
1092 1.3705821
1090 1.7173445
1088 2.1720171
1086 2.6824443
1084 3.1754763
1082 3.5697646
1080 3.8041651
1078 3.876555
1076 3.8057227
1074 3.6282983
1072 3.3846052
1070 3.1126671
1068 2.8485479
1066 2.6238871
1064 2.459368
1062 2.3483663
1060 2.2769482
1058 2.2294457
1056 2.1955285
1054 2.1786888
1052 2.1780541
1050 2.1698282
1048 2.1305308
1046 2.0541072
1044 1.9548463
1042 1.8919772
1040 1.9203503
1038 2.0478611
1036 2.25207
1034 2.4564886
1032 2.5876479
1030 2.6203806
1028 2.5528789
1026 2.4167957
1024 2.2441416
1022 2.0425491
1020 1.8184551
1018 1.5903555
1016 1.3778858
1014 1.1924636
1012 1.0309771
1010 0.85309005
1008 0.62720519
1006 0.37695217
1004 0.1425513
1002 -0.028092705
1000 -0.11173497
998 -0.16743141
996 -0.25889498
994 -0.40002888
992 -0.58225107
990 -0.76517546
988 -0.9170723
986 -1.0588129
984 -1.2127171
982 -1.3638092
980 -1.4853921
978 -1.5434587
976 -1.5173229
974 -1.4362063
972 -1.335624
970 -1.2293549
968 -1.1223166
966 -1.0072995
964 -0.87687296
962 -0.73416477
960 -0.58017594
958 -0.40044254
956 -0.1850912
954 0.046222016
952 0.25731242
950 0.38086671
948 0.36853892
946 0.26602858
944 0.13301748
942 -0.003782846
940 -0.11603766
938 -0.14067774
936 -0.026395887
934 0.20413026
932 0.50749362
930 0.83209288
928 1.1327457
926 1.3960963
924 1.624164
922 1.8474667
920 2.0932021
918 2.3494861
916 2.5960901
914 2.8186622
912 3.0096793
910 3.1825671
908 3.3488429
906 3.4933901
904 3.6037736
902 3.7041194
900 3.8252618
898 3.9867125
896 4.2052002
