Image.
>Pix99999.
  .
5555
5555
2300
900
5555
2
1
0
701
5555
1.4294000e-001
1.4597566e-001
1.4901131e-001
1.5204698e-001
1.5508263e-001
1.5812822e-001
1.6116394e-001
1.6419961e-001
1.6723526e-001
1.7027092e-001
1.7330658e-001
1.7634223e-001
1.7937788e-001
1.8242337e-001
1.8545920e-001
1.8849485e-001
1.9153051e-001
1.9456616e-001
1.9760182e-001
2.0063749e-001
2.0368285e-001
2.0671880e-001
2.0975445e-001
2.1279012e-001
2.1582577e-001
2.1886143e-001
8.5865587e-002
3.1139099e-003
-8.2855679e-002
-9.6351914e-002
-9.9265955e-002
-4.5281660e-002
1.3290240e-002
8.3265819e-002
1.4836650e-001
1.6943699e-001
1.7167005e-001
9.7434744e-002
9.8290928e-003
-1.0633859e-001
-2.0732771e-001
-2.7159745e-001
-3.3011723e-001
-3.8271669e-001
-4.8278370e-001
-6.4246577e-001
-8.3382100e-001
-1.0519178e+000
-1.1722308e+000
-1.2181300e+000
-1.0929500e+000
-8.7206376e-001
-6.1674756e-001
-3.4918821e-001
-1.9211872e-001
-7.1207702e-002
-5.0222959e-002
-5.1673610e-002
-1.3342416e-001
-2.2705944e-001
-3.2856801e-001
-4.2333114e-001
-4.3381858e-001
-4.3305722e-001
-4.1395268e-001
-4.0914622e-001
-4.6331060e-001
-5.3211725e-001
-6.2330741e-001
-6.8728799e-001
-6.9513500e-001
-6.5988237e-001
-5.7060659e-001
-4.9396494e-001
-4.3796906e-001
-4.6000215e-001
-5.4916567e-001
-7.2570288e-001
-9.5828754e-001
-1.1314538e+000
-1.2691400e+000
-1.1813923e+000
-9.9982166e-001
-7.3428100e-001
-4.4459122e-001
-2.8365073e-001
-1.5327400e-001
-1.7109494e-001
-2.1676908e-001
-3.4739000e-001
-4.8625284e-001
-5.9514898e-001
-6.9039702e-001
-7.4337566e-001
-7.9451323e-001
-8.5893768e-001
-9.1110283e-001
-9.3229419e-001
-9.2208701e-001
-8.6707616e-001
-8.0903000e-001
-7.5610751e-001
-7.4158198e-001
-7.6606953e-001
-8.3531922e-001
-9.3611801e-001
-1.0344676e+000
-1.1280690e+000
-1.1904212e+000
-1.2371929e+000
-1.2528814e+000
-1.2565194e+000
-1.2149841e+000
-1.1595368e+000
-1.0895398e+000
-1.0188657e+000
-1.0209823e+000
-1.0459373e+000
-1.1470952e+000
-1.2575021e+000
-1.3359228e+000
-1.3784907e+000
-1.3184952e+000
-1.2292427e+000
-1.1209577e+000
-1.0517322e+000
-1.0677321e+000
-1.1422782e+000
-1.2768846e+000
-1.4230206e+000
-1.5650586e+000
-1.6640507e+000
-1.7227508e+000
-1.7108730e+000
-1.6515449e+000
-1.5438607e+000
-1.4120257e+000
-1.2906334e+000
-1.1776602e+000
-1.1707469e+000
-1.2062600e+000
-1.3535507e+000
-1.5342584e+000
-1.7114253e+000
-1.8823491e+000
-1.9991229e+000
-2.0918868e+000
-2.1224711e+000
-2.1233132e+000
-2.0764160e+000
-2.0158927e+000
-1.9581741e+000
-1.9354880e+000
-1.9782355e+000
-2.0654120e+000
-2.1869137e+000
-2.2813239e+000
-2.3271172e+000
-2.2985861e+000
-2.2051497e+000
-2.0177970e+000
-1.7602140e+000
-1.4324660e+000
-1.0646605e+000
-8.2410949e-001
-6.6849214e-001
-7.9206806e-001
-1.0518181e+000
-1.3530440e+000
-1.6633674e+000
-1.7744642e+000
-1.8086715e+000
-1.7452481e+000
-1.6516573e+000
-1.6134714e+000
-1.6124001e+000
-1.7058492e+000
-1.8474518e+000
-2.0085394e+000
-2.1487224e+000
-2.2078800e+000
-2.2094340e+000
-2.1604280e+000
-2.0965359e+000
-2.0490348e+000
-1.9496671e+000
-1.7868301e+000
-1.5103822e+000
-1.1201389e+000
-8.1197685e-001
-5.8644146e-001
-5.4039073e-001
-6.1835694e-001
-7.4245960e-001
-8.8592553e-001
-1.1028537e+000
-1.3555520e+000
-1.5883600e+000
-1.8051554e+000
-1.8031034e+000
-1.7046286e+000
-1.5067519e+000
-1.2904960e+000
-1.1872740e+000
-1.1677870e+000
-1.2952757e+000
-1.4893311e+000
-1.7136776e+000
-1.9166726e+000
-2.0574117e+000
-2.0925999e+000
-2.0004380e+000
-1.7492869e+000
-1.3383454e+000
-9.8561263e-001
-7.3468316e-001
-8.0755651e-001
-1.1613985e+000
-1.6288557e+000
-2.1451421e+000
-2.5510056e+000
-2.8765817e+000
-2.9205520e+000
-2.7989912e+000
-2.3453159e+000
-1.7272999e+000
-1.3316985e+000
-1.0881778e+000
-1.3575628e+000
-1.8472191e+000
-2.2447672e+000
-2.5064850e+000
-2.3678021e+000
-2.0067499e+000
-1.4632940e+000
-9.9126458e-001
-8.5825235e-001
-1.0175194e+000
-1.5053620e+000
-2.0419443e+000
-2.4757714e+000
-2.7155635e+000
-2.7454147e+000
-2.6846538e+000
-2.5906000e+000
-2.4665101e+000
-2.3178337e+000
-2.0543554e+000
-1.7054663e+000
-1.2837011e+000
-8.2312000e-001
-4.7301337e-001
-1.8816024e-001
-1.6119926e-001
-2.7041045e-001
-4.2882508e-001
-5.8798397e-001
-6.1977351e-001
-5.4462141e-001
-2.9200661e-001
7.9811990e-002
5.5083680e-001
9.6077037e-001
1.1004879e+000
9.9754459e-001
6.6539991e-001
3.2147679e-001
1.1599879e-001
3.7524257e-002
-1.0284373e-001
-1.5941286e-001
-1.8178497e-002
5.2120268e-001
1.4426239e+000
2.4112539e+000
3.3184893e+000
3.6602693e+000
3.5137453e+000
3.2735972e+000
3.0289710e+000
3.1111801e+000
3.4215450e+000
3.3432066e+000
2.9653974e+000
2.0583439e+000
8.7998486e-001
6.5918490e-002
-3.3647239e-001
1.1734942e-001
1.2682662e+000
3.0135558e+000
4.8048382e+000
5.9502234e+000
6.6980371e+000
7.2513142e+000
8.1140575e+000
9.6825953e+000
1.2113786e+001
1.5444411e+001
1.9043196e+001
2.2604286e+001
2.5563011e+001
2.7775555e+001
2.9960743e+001
3.2304783e+001
3.5562187e+001
3.9699097e+001
4.4116711e+001
4.8680679e+001
5.2409645e+001
5.5435230e+001
5.8805580e+001
6.2514343e+001
6.6903084e+001
7.1737038e+001
7.6251854e+001
8.0483032e+001
8.4381844e+001
8.8025757e+001
9.1501801e+001
9.4882515e+001
9.8248375e+001
1.0136220e+002
1.0397026e+002
1.0498017e+002
1.0365036e+002
1.0075534e+002
9.7033463e+001
9.3216629e+001
8.9682549e+001
8.5862541e+001
8.1568542e+001
7.6936058e+001
7.2079956e+001
6.7525337e+001
6.3323685e+001
5.9199600e+001
5.5090225e+001
5.1021088e+001
4.6989296e+001
4.2960114e+001
3.8979111e+001
3.5283504e+001
3.1950251e+001
2.9182995e+001
2.6945135e+001
2.5045515e+001
2.3457478e+001
2.2076942e+001
2.0939022e+001
2.0054001e+001
1.9406797e+001
1.8950018e+001
1.8613859e+001
1.8323013e+001
1.8157949e+001
1.8151062e+001
1.8455811e+001
1.9117315e+001
2.0218203e+001
2.1771856e+001
2.3517960e+001
2.5397120e+001
2.7028818e+001
2.8343441e+001
2.9536900e+001
3.0634832e+001
3.2161533e+001
3.4230942e+001
3.7256134e+001
4.1090572e+001
4.4355122e+001
4.6932522e+001
4.8601501e+001
4.9628231e+001
5.0931431e+001
5.2540646e+001
5.4445389e+001
5.5999519e+001
5.6407108e+001
5.5619457e+001
5.3762779e+001
5.1646835e+001
4.9962753e+001
4.8745384e+001
4.8003498e+001
4.7379570e+001
4.6697247e+001
4.5342182e+001
4.3091160e+001
4.0506798e+001
3.7720215e+001
3.5373241e+001
3.3569218e+001
3.1399019e+001
2.8658236e+001
2.5400555e+001
2.1652042e+001
1.8459736e+001
1.5958730e+001
1.3850000e+001
1.2150923e+001
1.0597866e+001
9.1226730e+000
7.5336161e+000
5.7999792e+000
3.9109077e+000
2.1270971e+000
7.7049494e-001
5.0172210e-003
1.7689437e-002
6.7538279e-001
1.8101234e+000
2.8156390e+000
3.2890832e+000
3.5130143e+000
3.5326726e+000
3.7937360e+000
4.5265231e+000
5.4431133e+000
6.5405803e+000
7.1437492e+000
7.0059590e+000
6.5602350e+000
5.7384233e+000
4.9800539e+000
4.3243442e+000
3.8472149e+000
3.6131353e+000
3.6226234e+000
3.8350756e+000
3.9794369e+000
3.9441750e+000
3.5928969e+000
3.0530980e+000
2.6193829e+000
2.4119868e+000
2.5610800e+000
2.9290895e+000
3.3689477e+000
3.7047372e+000
3.7572069e+000
3.7142296e+000
3.6242123e+000
3.6204481e+000
3.7903821e+000
4.0754189e+000
4.5453606e+000
5.0928240e+000
5.7543750e+000
6.3139143e+000
6.6828465e+000
6.8161011e+000
6.6209006e+000
6.3538642e+000
5.9981003e+000
5.6345320e+000
5.2630444e+000
4.9115319e+000
4.5808568e+000
4.3000145e+000
4.0184793e+000
3.6879599e+000
3.3174541e+000
2.9355035e+000
2.6048114e+000
2.3642757e+000
2.1440907e+000
1.8721640e+000
1.5310130e+000
1.0900575e+000
6.6878861e-001
3.3032382e-001
7.8457184e-002
-4.1067429e-002
-9.9321544e-002
-4.1364431e-003
1.8393332e-001
5.2441466e-001
8.2703513e-001
1.0474029e+000
1.0908740e+000
9.0189302e-001
6.9804859e-001
5.0754869e-001
4.5557228e-001
5.8535200e-001
8.7429202e-001
1.3281417e+000
1.8441430e+000
2.3668299e+000
2.7433553e+000
2.9592342e+000
2.9707835e+000
2.8503180e+000
2.6642230e+000
2.4659896e+000
2.3225288e+000
2.2238936e+000
2.2089615e+000
2.2249858e+000
2.2747672e+000
2.3252871e+000
2.3681192e+000
2.4040079e+000
2.4307842e+000
2.4670868e+000
2.5413678e+000
2.6379571e+000
2.7868836e+000
2.9346814e+000
3.0680070e+000
3.1946104e+000
3.3077958e+000
3.4599986e+000
3.6808958e+000
3.9522932e+000
4.2844605e+000
4.5953979e+000
4.8746619e+000
5.1052146e+000
5.3100486e+000
5.5542555e+000
5.8416257e+000
6.1914134e+000
6.5618000e+000
6.9113154e+000
7.2269230e+000
7.4657359e+000
7.6590195e+000
7.7691598e+000
7.8433623e+000
7.8457642e+000
7.8240008e+000
7.7438664e+000
7.6356578e+000
7.4463968e+000
7.2029042e+000
6.8324990e+000
6.4274769e+000
5.9597397e+000
5.5016532e+000
5.0519557e+000
4.5747519e+000
4.0538168e+000
3.4922128e+000
2.8961360e+000
2.3339920e+000
1.8123720e+000
1.3401122e+000
9.0392786e-001
4.7695422e-001
6.3314453e-002
-3.1575379e-001
-6.5162611e-001
-8.6999726e-001
-1.0183663e+000
-1.0360647e+000
-1.0066198e+000
-9.0972328e-001
-8.0157000e-001
-6.8803638e-001
-5.8530486e-001
-5.2090085e-001
-4.5516160e-001
-3.7731037e-001
-2.6925951e-001
-8.8010676e-002
1.0006267e-001
2.9240328e-001
4.3450254e-001
4.8590949e-001
4.7040039e-001
3.6489668e-001
2.3815921e-001
9.7139679e-002
-2.6247352e-003
-5.2842461e-002
-2.7987832e-002
5.1583186e-002
2.1833572e-001
4.4562268e-001
7.3009211e-001
1.0375478e+000
1.3479692e+000
1.6679071e+000
2.0297921e+000
2.3974595e+000
2.7576680e+000
3.0873647e+000
3.2586985e+000
3.4013565e+000
3.4368491e+000
3.4868131e+000
3.5843208e+000
3.7020700e+000
3.8670156e+000
4.0097175e+000
4.1085978e+000
4.1942077e+000
4.2659717e+000
4.3876252e+000
4.5800724e+000
4.8459678e+000
5.1923938e+000
5.6057849e+000
6.0666304e+000
6.5089483e+000
6.9192028e+000
7.1877627e+000
7.3758812e+000
7.4455814e+000
7.4680557e+000
7.4219933e+000
7.3487549e+000
7.1817398e+000
7.0003119e+000
6.8008871e+000
6.6171150e+000
6.5413346e+000
6.4796772e+000
6.4794998e+000
6.4793439e+000
6.4789357e+000
6.4899125e+000
6.5274677e+000
6.5526652e+000
6.5506768e+000
6.4833736e+000
6.3216295e+000
6.1368299e+000
5.9277587e+000
5.7419386e+000
5.5703363e+000
5.3535323e+000
5.0990729e+000
4.7837834e+000
4.4364877e+000
4.0799408e+000
3.7176874e+000
3.3225114e+000
2.9162910e+000
2.4869070e+000
2.0597477e+000
1.7076720e+000
1.3691729e+000
1.1195315e+000
8.6395508e-001
5.6434351e-001
2.5414297e-001
-1.0109329e-001
-4.3797910e-001
-7.1558923e-001
-9.7495687e-001
-1.1905303e+000
-1.3794150e+000
-1.5208520e+000
-1.6092918e+000
-1.6280761e+000
-1.6369886e+000
-1.6346571e+000
-1.6248029e+000
-1.6034223e+000
-1.4866292e+000
-1.3087949e+000
-1.0445285e+000
-7.4393672e-001
-4.9108660e-001
-2.5654590e-001
-1.0697298e-001
2.2292316e-002
8.3726607e-002
1.3250735e-001
6.6939287e-002
1.4782660e-003
4.8722466e-004
7.7218264e-003
2.3274559e-001
4.6196282e-001
7.0631146e-001
9.3680573e-001
1.1266745e+000
1.3521632e+000
1.6532822e+000
1.9398137e+000
2.2001655e+000
2.3495760e+000
2.3637352e+000
2.3982291e+000
2.4558480e+000
2.7344241e+000
3.1704931e+000
3.6829960e+000
4.2321429e+000
4.6854348e+000
5.0978684e+000
5.5968647e+000
6.1142173e+000
6.4676318e+000
6.7921238e+000
6.3196001e+000
