Image.
>Pix99999.
  .
5555
5555
2300
900
5555
2
1
0
701
5555
-4.3219000e-002
-4.4136688e-002
-4.5055371e-002
-4.5973063e-002
-4.6891745e-002
-4.7809437e-002
-4.8728112e-002
-4.9645811e-002
-5.0564487e-002
-5.1482182e-002
-5.2400857e-002
-5.3319544e-002
-5.4237247e-002
-5.5155914e-002
-5.6073621e-002
-5.6992285e-002
-5.7909992e-002
-5.8828656e-002
-5.9746366e-002
-6.0665030e-002
-6.1582744e-002
-6.2501401e-002
-6.3420087e-002
-6.4337805e-002
-6.5256454e-002
-6.6174179e-002
-2.4591172e-003
7.4660696e-002
9.4496317e-002
1.0499652e-001
1.1444586e-001
7.8275770e-002
3.5901710e-002
-7.1918003e-002
-1.8533723e-001
-3.1844500e-001
-4.4023120e-001
-5.0572324e-001
-5.4013455e-001
-4.8907778e-001
-4.1589630e-001
-3.0487317e-001
-2.1432559e-001
-1.6079313e-001
-1.4939314e-001
-1.8769085e-001
-2.3837295e-001
-2.9795462e-001
-3.4030035e-001
-3.6933669e-001
-3.8159856e-001
-3.8468930e-001
-3.8296303e-001
-3.7939939e-001
-3.7230009e-001
-3.6410058e-001
-3.5491240e-001
-3.4549868e-001
-3.3750290e-001
-3.2950598e-001
-3.0341285e-001
-2.7705836e-001
-2.6679501e-001
-2.6620200e-001
-3.1233910e-001
-3.5788307e-001
-3.8468567e-001
-3.9795473e-001
-3.8133276e-001
-3.7647235e-001
-3.9965799e-001
-4.3074572e-001
-4.6909213e-001
-4.8169199e-001
-4.6442869e-001
-4.3822536e-001
-4.0687668e-001
-4.0215510e-001
-4.1631490e-001
-4.4993180e-001
-4.9307543e-001
-5.1433778e-001
-5.2595955e-001
-5.0389743e-001
-4.7135040e-001
-4.5015514e-001
-4.3180722e-001
-4.4100681e-001
-4.5388207e-001
-4.5378920e-001
-4.4939199e-001
-4.2667329e-001
-4.0479994e-001
-3.9838269e-001
-3.9721534e-001
-4.0503687e-001
-4.0825593e-001
-3.9844823e-001
-3.9811862e-001
-4.1697818e-001
-4.5499569e-001
-5.1442194e-001
-5.5810130e-001
-5.8222705e-001
-5.8902264e-001
-5.8376098e-001
-5.8754838e-001
-5.9839779e-001
-6.1216688e-001
-6.2703115e-001
-6.2971556e-001
-6.2729776e-001
-6.1463320e-001
-5.9885931e-001
-6.1540711e-001
-6.4110929e-001
-7.2196734e-001
-8.1261849e-001
-8.9245343e-001
-9.6186060e-001
-9.8557830e-001
-9.9789333e-001
-1.0018888e+000
-1.0049376e+000
-1.0099435e+000
-1.0056429e+000
-9.8248297e-001
-9.5045704e-001
-9.1027343e-001
-8.8403988e-001
-8.7617570e-001
-8.9173532e-001
-9.2679054e-001
-9.6567428e-001
-1.0050366e+000
-1.0213978e+000
-1.0231777e+000
-1.0020036e+000
-9.7010273e-001
-9.6007586e-001
-9.5972401e-001
-1.0005373e+000
-1.0546428e+000
-1.0983447e+000
-1.1369622e+000
-1.1428971e+000
-1.1374931e+000
-1.1117890e+000
-1.0792772e+000
-1.0408143e+000
-1.0092785e+000
-1.0037843e+000
-1.0205966e+000
-1.0722420e+000
-1.1375819e+000
-1.2106929e+000
-1.2813115e+000
-1.3457476e+000
-1.4041891e+000
-1.4579842e+000
-1.4901342e+000
-1.5034920e+000
-1.4635054e+000
-1.3858230e+000
-1.2954246e+000
-1.2014222e+000
-1.1923736e+000
-1.2280993e+000
-1.3073120e+000
-1.4028573e+000
-1.4517400e+000
-1.4824202e+000
-1.4898509e+000
-1.4895236e+000
-1.4877468e+000
-1.4857000e+000
-1.4846011e+000
-1.4890323e+000
-1.5087209e+000
-1.5309765e+000
-1.5468258e+000
-1.5529208e+000
-1.5443280e+000
-1.5296998e+000
-1.5135372e+000
-1.4688094e+000
-1.3879205e+000
-1.2591015e+000
-1.0880725e+000
-9.4421017e-001
-8.3300626e-001
-7.8915554e-001
-7.9116774e-001
-8.3608067e-001
-9.0335119e-001
-1.0049598e+000
-1.1232160e+000
-1.2011640e+000
-1.2590903e+000
-1.2357358e+000
-1.1803857e+000
-1.1242236e+000
-1.0754877e+000
-1.0777780e+000
-1.1080498e+000
-1.1724914e+000
-1.2504985e+000
-1.3305063e+000
-1.3960794e+000
-1.4275181e+000
-1.4033700e+000
-1.3004541e+000
-1.1198012e+000
-8.6251640e-001
-6.4259267e-001
-4.9674278e-001
-5.1793879e-001
-6.9078171e-001
-9.1421795e-001
-1.1487153e+000
-1.2993886e+000
-1.3842845e+000
-1.3617535e+000
-1.2766140e+000
-1.1379679e+000
-9.7449642e-001
-8.8626462e-001
-8.4128135e-001
-8.7649459e-001
-9.4203955e-001
-9.5158631e-001
-9.1729254e-001
-7.9517275e-001
-6.3772243e-001
-4.9254680e-001
-3.9803749e-001
-4.2113879e-001
-5.1955074e-001
-6.7532462e-001
-8.2585818e-001
-9.3112659e-001
-9.6979529e-001
-9.3735731e-001
-8.6725956e-001
-7.7964199e-001
-7.0429653e-001
-6.4716947e-001
-6.0310960e-001
-5.6757313e-001
-5.1755965e-001
-4.5471999e-001
-3.7660089e-001
-2.8794160e-001
-2.5049326e-001
-2.4473631e-001
-2.5890648e-001
-2.7961743e-001
-2.6400179e-001
-2.2083983e-001
-1.3321140e-001
-8.4837452e-003
1.7310035e-001
3.5982221e-001
4.7738701e-001
5.0465691e-001
3.9640009e-001
2.3986781e-001
1.0719551e-001
3.1284463e-002
-5.9749890e-002
-1.1689857e-001
-8.8479877e-002
5.9253395e-002
3.1479281e-001
5.6538486e-001
7.7612036e-001
7.9346335e-001
6.3906914e-001
4.5381686e-001
2.7188057e-001
2.3870400e-001
3.1779560e-001
3.3889496e-001
3.0653286e-001
1.2593421e-001
-1.3439697e-001
-2.6616266e-001
-2.5827819e-001
5.1354319e-003
4.3469605e-001
1.0347936e+000
1.6599125e+000
2.0494235e+000
2.3219371e+000
2.6089940e+000
3.1426334e+000
4.1263685e+000
5.7834129e+000
8.2051992e+000
1.1418281e+001
1.5319143e+001
1.9179501e+001
2.2683849e+001
2.5865906e+001
2.8803257e+001
3.2349514e+001
3.6571556e+001
4.1456306e+001
4.6839119e+001
5.1422012e+001
5.5276283e+001
5.9033031e+001
6.2785851e+001
6.7044571e+001
7.1622726e+001
7.5819595e+001
7.9647240e+001
8.3043709e+001
8.6104332e+001
8.9004631e+001
9.1772682e+001
9.4454666e+001
9.6747322e+001
9.8301666e+001
9.8510048e+001
9.6937210e+001
9.4427513e+001
9.1738647e+001
8.9058907e+001
8.6494102e+001
8.3483017e+001
7.9839043e+001
7.5849442e+001
7.1665749e+001
6.7617516e+001
6.3761887e+001
5.9790283e+001
5.5670113e+001
5.1557232e+001
4.7473885e+001
4.3603886e+001
3.9977432e+001
3.6778008e+001
3.4020672e+001
3.1683264e+001
2.9733458e+001
2.8005533e+001
2.6515930e+001
2.5256834e+001
2.4258224e+001
2.3527500e+001
2.3046062e+001
2.2754543e+001
2.2599514e+001
2.2509342e+001
2.2486887e+001
2.2526943e+001
2.2688379e+001
2.2994465e+001
2.3514051e+001
2.4264429e+001
2.5174002e+001
2.6214691e+001
2.7243134e+001
2.8227840e+001
2.9214701e+001
3.0214914e+001
3.1515560e+001
3.3230202e+001
3.5972507e+001
3.9760559e+001
4.3681850e+001
4.7498646e+001
5.0276634e+001
5.2116970e+001
5.3757000e+001
5.5297661e+001
5.6999569e+001
5.8614479e+001
5.9756077e+001
6.0099232e+001
5.9348164e+001
5.7939117e+001
5.6381844e+001
5.4826401e+001
5.3394051e+001
5.1918015e+001
5.0297272e+001
4.8369804e+001
4.6051605e+001
4.3698528e+001
4.1421608e+001
3.9283161e+001
3.7309208e+001
3.4816761e+001
3.1625872e+001
2.8261772e+001
2.4772854e+001
2.1848694e+001
1.9565630e+001
1.7386572e+001
1.5299292e+001
1.3168071e+001
1.0984044e+001
8.7621527e+000
6.5546074e+000
4.4731660e+000
2.6597404e+000
1.2822661e+000
3.9692941e-001
7.8106701e-002
3.9789754e-001
1.2583685e+000
2.2693310e+000
3.2001195e+000
3.9751194e+000
4.5162153e+000
5.0416546e+000
5.6449404e+000
6.3188686e+000
7.0848603e+000
7.6746516e+000
7.9742632e+000
8.0585880e+000
7.8429899e+000
7.5759678e+000
7.2407584e+000
6.9076180e+000
6.5733232e+000
6.2291803e+000
5.8462415e+000
5.3642130e+000
4.7737746e+000
4.1370602e+000
3.5128400e+000
3.0265872e+000
2.7100863e+000
2.5771828e+000
2.5859673e+000
2.6729038e+000
2.7789686e+000
2.8422670e+000
2.9056342e+000
2.9992361e+000
3.1658835e+000
3.4572251e+000
3.8421445e+000
4.3542376e+000
4.9178557e+000
5.5431051e+000
6.1326427e+000
6.6434941e+000
7.0270886e+000
7.1940293e+000
7.2268443e+000
7.0498447e+000
6.7613840e+000
6.3249083e+000
5.8536634e+000
5.3513393e+000
4.8798971e+000
4.4452929e+000
4.0430961e+000
3.6745334e+000
3.3269360e+000
2.9757693e+000
2.5688138e+000
2.0968223e+000
1.5414006e+000
9.8578870e-001
5.2706063e-001
1.9037133e-001
5.4586127e-002
2.9855687e-002
1.3026452e-001
2.8675142e-001
5.2837360e-001
8.0293363e-001
1.1275226e+000
1.4330589e+000
1.6936543e+000
1.9005926e+000
2.0197780e+000
2.1400509e+000
2.2724371e+000
2.4572699e+000
2.7226753e+000
3.0534837e+000
3.4656487e+000
3.9185123e+000
4.3997002e+000
4.8473258e+000
5.2431674e+000
5.5528479e+000
5.7834764e+000
5.9408741e+000
6.0447669e+000
6.1061540e+000
6.1388240e+000
6.1433067e+000
6.1311426e+000
6.0997090e+000
6.0681429e+000
6.0488186e+000
6.0428200e+000
6.0674543e+000
6.0936227e+000
6.1185689e+000
6.1331334e+000
6.1260357e+000
6.1246529e+000
6.1372609e+000
6.1766472e+000
6.2636766e+000
6.3856058e+000
6.5611563e+000
6.7684059e+000
7.0126033e+000
7.2612319e+000
7.5068045e+000
7.7241001e+000
7.9110489e+000
8.0656776e+000
8.1971245e+000
8.3172636e+000
8.4303999e+000
8.5396967e+000
8.6381731e+000
8.7060442e+000
8.7470675e+000
8.7274685e+000
8.6671438e+000
8.5104399e+000
8.3040981e+000
7.9677520e+000
7.5957522e+000
7.1318121e+000
6.6603632e+000
6.1731968e+000
5.6974111e+000
5.2453599e+000
4.8033328e+000
4.3790965e+000
3.9662223e+000
3.5753114e+000
3.2197964e+000
2.9104500e+000
2.6373150e+000
2.3962903e+000
2.1558638e+000
1.9152213e+000
1.6716009e+000
1.4372040e+000
1.2489570e+000
1.1024220e+000
1.0450171e+000
1.0376817e+000
1.1163813e+000
1.2330009e+000
1.4246490e+000
1.6459399e+000
1.9453452e+000
2.2510846e+000
2.5614927e+000
2.8340497e+000
2.9876835e+000
3.0886569e+000
3.0596120e+000
3.0014086e+000
2.8846767e+000
2.7517271e+000
2.5867853e+000
2.3818703e+000
2.1159942e+000
1.7911201e+000
1.4037607e+000
1.0057569e+000
6.1435169e-001
3.0596471e-001
8.0592662e-002
9.7541772e-003
4.4948228e-002
1.8948060e-001
3.8300914e-001
6.1392498e-001
8.4562075e-001
1.0274068e+000
1.1857985e+000
1.2673199e+000
1.3399059e+000
1.4030415e+000
1.4693727e+000
1.5484633e+000
1.6163443e+000
1.6479495e+000
1.6664051e+000
1.6535103e+000
1.6439586e+000
1.6415020e+000
1.6432687e+000
1.6502857e+000
1.6493292e+000
1.6399380e+000
1.6377652e+000
1.6490999e+000
1.7070485e+000
1.8061315e+000
1.9477739e+000
2.1082976e+000
2.2254009e+000
2.3033800e+000
2.2422593e+000
2.1185000e+000
1.8699474e+000
1.5960677e+000
1.3376172e+000
1.1020280e+000
1.0204767e+000
9.6761096e-001
1.0505539e+000
1.1303657e+000
1.1945977e+000
1.2344215e+000
1.1968210e+000
1.1574880e+000
1.1153500e+000
1.0859869e+000
1.0778905e+000
1.0461690e+000
9.7654021e-001
8.6361599e-001
7.0047641e-001
5.2188027e-001
3.3141518e-001
1.5983054e-001
5.4502860e-003
-1.0392378e-001
-1.8449560e-001
-2.0920077e-001
-2.0994803e-001
-1.8474914e-001
-1.5684327e-001
-1.7584714e-001
-2.1220869e-001
-3.5521880e-001
-5.1135439e-001
-7.1671396e-001
-9.0924054e-001
-1.0104142e+000
-1.0867031e+000
-1.0532929e+000
-1.0104494e+000
-9.3815643e-001
-8.6186659e-001
-7.7627200e-001
-6.8784022e-001
-5.9645385e-001
-5.3459603e-001
-5.1344705e-001
-5.1483679e-001
-5.3878659e-001
-5.5331051e-001
-5.6162101e-001
-5.9352940e-001
-6.4059365e-001
-7.0257199e-001
-7.6853299e-001
-7.7922058e-001
-7.6905078e-001
-6.9614017e-001
-6.0899985e-001
-5.0428754e-001
-3.9770639e-001
-2.9723042e-001
-1.9483313e-001
-6.4216606e-002
2.4016127e-003
7.2666138e-002
1.5375111e-001
2.8035212e-001
3.9961571e-001
4.9586946e-001
5.3689003e-001
4.5925727e-001
3.3443967e-001
1.3519415e-001
-2.3923598e-002
-1.3321216e-001
-1.7634749e-001
-1.5800571e-001
-1.3095459e-001
-9.8040991e-002
-8.9570656e-002
-9.4363853e-002
-1.1828111e-001
-1.4990643e-001
-1.8716320e-001
-2.2591299e-001
-2.0561497e-001
-1.7574817e-001
-4.1643001e-002
