Image.
>Pix99999.
  .
5555
5555
2300
900
5555
2
1
0
701
5555
1.3266000e-001
1.3541605e-001
1.3818209e-001
1.4093816e-001
1.4370418e-001
1.4646028e-001
1.4921634e-001
1.5198229e-001
1.5473846e-001
1.5749452e-001
1.6026042e-001
1.6302647e-001
1.6578269e-001
1.6852893e-001
1.7129460e-001
1.7410958e-001
1.7681806e-001
1.7939734e-001
1.8233414e-001
1.8575662e-001
1.8788029e-001
1.8816310e-001
1.9329375e-001
2.0527849e-001
1.9921938e-001
1.5215464e-001
7.8751653e-002
5.4371790e-003
-3.6705010e-002
-2.8174475e-002
-1.1296599e-003
7.1699172e-003
-1.7413350e-003
-1.4709307e-002
-1.7274670e-002
1.9338002e-003
4.0795155e-002
9.4202980e-002
1.6097185e-001
2.3862478e-001
3.1451514e-001
3.7497798e-001
4.1451898e-001
4.3269125e-001
4.3923101e-001
4.4598159e-001
4.6087343e-001
4.8952124e-001
5.3328460e-001
5.8924913e-001
6.4239782e-001
6.7453206e-001
6.6970605e-001
6.1807323e-001
5.3141421e-001
4.3016571e-001
3.4203401e-001
2.9050091e-001
2.7266446e-001
2.7501792e-001
2.7573401e-001
2.5862652e-001
2.4083038e-001
2.4790500e-001
2.9467010e-001
3.8237521e-001
4.7214067e-001
5.1920396e-001
5.0927764e-001
4.4689652e-001
3.7022001e-001
3.2014424e-001
3.0302531e-001
3.1077316e-001
3.2586241e-001
3.3335036e-001
3.4089616e-001
3.6122099e-001
3.9496103e-001
4.3747184e-001
4.8082888e-001
5.1798683e-001
5.4990405e-001
5.7794267e-001
5.9320557e-001
5.8548319e-001
5.5477065e-001
5.0804645e-001
4.6524504e-001
4.4609901e-001
4.5033684e-001
4.6825111e-001
4.8244625e-001
4.7755033e-001
4.5731980e-001
4.3294892e-001
4.1609490e-001
4.1575038e-001
4.3010959e-001
4.5350367e-001
4.8135713e-001
5.0825042e-001
5.2293229e-001
5.1466513e-001
4.8426092e-001
4.3949699e-001
3.9765462e-001
3.7545443e-001
3.7233320e-001
3.8085949e-001
3.9413044e-001
4.0745053e-001
4.2300680e-001
4.4330579e-001
4.6065006e-001
4.6467206e-001
4.5170656e-001
4.2366120e-001
3.9328456e-001
3.7468079e-001
3.6945084e-001
3.7367952e-001
3.8337302e-001
3.9523333e-001
4.0814945e-001
4.2121428e-001
4.3065119e-001
4.3292215e-001
4.3075114e-001
4.2946324e-001
4.3376043e-001
4.4741181e-001
4.7200948e-001
5.0671220e-001
5.4420972e-001
5.7518613e-001
5.9365475e-001
5.9632176e-001
5.8437788e-001
5.6027222e-001
5.2388400e-001
4.7737727e-001
4.3805194e-001
4.2550904e-001
4.3943059e-001
4.6625978e-001
4.7662452e-001
4.4151899e-001
3.6193371e-001
2.5568908e-001
1.5085000e-001
7.4889183e-002
3.6089081e-002
3.1525668e-002
5.0253801e-002
7.9109639e-002
1.0923668e-001
1.3451061e-001
1.5072775e-001
1.5633222e-001
1.5782914e-001
1.6582930e-001
1.9198340e-001
2.4202794e-001
2.9541612e-001
3.2161123e-001
3.0325365e-001
2.3743010e-001
1.5099759e-001
7.9853296e-002
3.6797184e-002
1.9666303e-002
1.6802387e-002
1.4908500e-002
1.0454859e-002
4.9476251e-003
-1.3033893e-003
-9.2879068e-003
-2.1187978e-002
-3.8249280e-002
-5.5324201e-002
-6.4962268e-002
-6.4485461e-002
-5.5545580e-002
-4.6435297e-002
-4.3836519e-002
-3.3010066e-002
8.8231992e-003
8.8159963e-002
1.9800690e-001
3.1533256e-001
4.1350636e-001
4.8494908e-001
5.3089130e-001
5.4246795e-001
5.0709534e-001
4.2461041e-001
3.0867219e-001
2.0064597e-001
1.4923921e-001
1.6994858e-001
2.4972677e-001
3.3849764e-001
3.7533802e-001
3.3639902e-001
2.2761114e-001
8.4671676e-002
-4.8924427e-002
-1.6164306e-001
-2.6234445e-001
-3.6156702e-001
-4.6314850e-001
-5.4537666e-001
-5.7641512e-001
-5.4595619e-001
-4.6289071e-001
-3.5802346e-001
-2.6835218e-001
-2.0639734e-001
-1.6930878e-001
-1.5662372e-001
-1.7122546e-001
-2.1712852e-001
-2.9627770e-001
-3.9982522e-001
-5.1104283e-001
-6.0791188e-001
-6.6944861e-001
-6.9084889e-001
-6.7835599e-001
-6.4115560e-001
-5.8445370e-001
-4.9233001e-001
-3.4381592e-001
-1.5569437e-001
2.7228024e-002
1.4932984e-001
1.6392183e-001
8.2880184e-002
-4.4161879e-002
-1.7045583e-001
-2.6244786e-001
-3.1790486e-001
-3.5095814e-001
-3.6007079e-001
-3.3566150e-001
-2.8927991e-001
-2.4895829e-001
-2.4695127e-001
-3.0492908e-001
-3.9208072e-001
-4.4653004e-001
-4.2690280e-001
-3.1852022e-001
-1.4499417e-001
4.6812169e-002
2.1327753e-001
3.2066506e-001
3.5654965e-001
3.2817391e-001
2.6813999e-001
2.2021350e-001
2.0621872e-001
2.2341780e-001
2.3669498e-001
2.0280243e-001
1.3609280e-001
8.1763074e-002
2.4986789e-002
-8.3823346e-002
-2.2850400e-001
-3.4483176e-001
-3.9714304e-001
-3.8501000e-001
-3.4041363e-001
-3.1250894e-001
-3.3765560e-001
-4.2668465e-001
-5.2883941e-001
-5.5935550e-001
-4.8059398e-001
-3.0900550e-001
-1.1915942e-001
-9.5233051e-003
-1.3058525e-002
-9.7839959e-002
-1.8721865e-001
-1.7649120e-001
4.7828108e-002
5.7495934e-001
1.3666981e+000
2.2873378e+000
3.2105184e+000
4.0620413e+000
4.9079223e+000
5.9278908e+000
7.3326769e+000
9.3266954e+000
1.2048294e+001
1.5508818e+001
1.9382286e+001
2.3129292e+001
2.6436867e+001
2.9291809e+001
3.2034435e+001
3.5231773e+001
3.9320187e+001
4.4453243e+001
5.0132118e+001
5.5477081e+001
6.0253830e+001
6.4858734e+001
6.9723236e+001
7.5090477e+001
8.0665771e+001
8.5769249e+001
8.9995216e+001
9.3275185e+001
9.5683350e+001
9.7351776e+001
9.8365028e+001
9.8757179e+001
9.8570854e+001
9.7873589e+001
9.6767830e+001
9.5386070e+001
9.3866653e+001
9.2315002e+001
9.0676476e+001
8.8748993e+001
8.6313644e+001
8.3207718e+001
7.9486908e+001
7.5380501e+001
7.1024261e+001
6.6430420e+001
6.1601078e+001
5.6574509e+001
5.1499393e+001
4.6614998e+001
4.2110657e+001
3.8099224e+001
3.4643658e+001
3.1757881e+001
2.9382538e+001
2.7400999e+001
2.5721661e+001
2.4297899e+001
2.3116972e+001
2.2190361e+001
2.1529999e+001
2.1139366e+001
2.1011995e+001
2.1134449e+001
2.1488337e+001
2.2049286e+001
2.2780092e+001
2.3645210e+001
2.4678413e+001
2.5986433e+001
2.7696571e+001
2.9912230e+001
3.2587284e+001
3.5522060e+001
3.8502399e+001
4.1350285e+001
4.3964222e+001
4.6353813e+001
4.8722744e+001
5.1377827e+001
5.4236271e+001
5.6793209e+001
5.8617851e+001
5.9511375e+001
5.9588776e+001
5.9208714e+001
5.8497082e+001
5.7278095e+001
5.5409519e+001
5.2905537e+001
5.0042515e+001
4.7306042e+001
4.4957737e+001
4.2944157e+001
4.1128292e+001
3.9355000e+001
3.7479519e+001
3.5392975e+001
3.3083046e+001
3.0652058e+001
2.8260672e+001
2.6072809e+001
2.4069960e+001
2.2029579e+001
1.9780479e+001
1.7297092e+001
1.4744194e+001
1.2442016e+001
1.0547934e+001
8.9797459e+000
7.5989428e+000
6.2753696e+000
4.9625874e+000
3.7120028e+000
2.5761600e+000
1.5845194e+000
7.6808536e-001
1.6390558e-001
-1.9831628e-001
-2.8961220e-001
-2.9336125e-002
7.0064688e-001
1.8781835e+000
3.2981529e+000
4.7544518e+000
6.1067863e+000
7.3161511e+000
8.4525642e+000
9.5855398e+000
1.0740671e+001
1.1863000e+001
1.2810472e+001
1.3461728e+001
1.3756513e+001
1.3699217e+001
1.3361215e+001
1.2819312e+001
1.2133551e+001
1.1341549e+001
1.0452601e+001
9.4693174e+000
8.4035816e+000
7.3171625e+000
6.3316870e+000
5.5390840e+000
4.9674573e+000
4.6047521e+000
4.4046531e+000
4.3262711e+000
4.3479691e+000
4.4589314e+000
4.6571207e+000
4.9406505e+000
5.3041892e+000
5.7366490e+000
6.2168427e+000
6.7050252e+000
7.1370697e+000
7.4399681e+000
7.5438399e+000
7.4237499e+000
7.1226888e+000
6.7156019e+000
6.2955623e+000
5.9212170e+000
5.5933399e+000
5.2964129e+000
5.0095940e+000
4.7107468e+000
4.3773851e+000
3.9850116e+000
3.5106261e+000
2.9537380e+000
2.3472362e+000
1.7275885e+000
1.1246272e+000
5.6233382e-001
6.0758039e-002
-3.4464896e-001
-5.9752989e-001
-6.6303086e-001
-5.4721004e-001
-2.6392215e-001
1.7244866e-001
7.3199022e-001
1.3622750e+000
2.0174079e+000
2.6678381e+000
3.2743332e+000
3.7775643e+000
4.1246285e+000
4.2836761e+000
4.2509365e+000
4.0606718e+000
3.7569056e+000
3.3857634e+000
2.9957342e+000
2.6358371e+000
2.3409753e+000
2.1203778e+000
1.9639499e+000
1.8406463e+000
1.7231942e+000
1.5999093e+000
1.4699489e+000
1.3453143e+000
1.2390835e+000
1.1626480e+000
1.1323286e+000
1.1735808e+000
1.3136142e+000
1.5764134e+000
1.9709785e+000
2.4791873e+000
3.0665920e+000
3.6814880e+000
4.2741022e+000
4.8067679e+000
5.2532897e+000
5.6044636e+000
5.8610754e+000
6.0359769e+000
6.1516323e+000
6.2426906e+000
6.3446317e+000
6.4891691e+000
6.7037058e+000
7.0095191e+000
7.4259181e+000
7.9704323e+000
8.6531372e+000
9.4703178e+000
1.0407845e+001
1.1438097e+001
1.2527589e+001
1.3634500e+001
1.4714277e+001
1.5714395e+001
1.6583319e+001
1.7271250e+001
1.7733086e+001
1.7930931e+001
1.7833881e+001
1.7417635e+001
1.6678261e+001
1.5645836e+001
1.4378874e+001
1.2976521e+001
1.1549323e+001
1.0215483e+001
9.0765514e+000
8.1981030e+000
7.6164484e+000
7.3259797e+000
7.2889156e+000
7.4209051e+000
7.6178460e+000
7.7608161e+000
7.7500930e+000
7.5373459e+000
7.1097713e+000
6.5056458e+000
5.7792072e+000
4.9928560e+000
4.2044554e+000
3.4566913e+000
2.7852879e+000
2.2175610e+000
1.7743168e+000
1.4649115e+000
1.2845800e+000
1.2040322e+000
1.1897063e+000
1.2115717e+000
1.2482983e+000
1.2960578e+000
1.3536749e+000
1.4168230e+000
1.4726268e+000
1.4915617e+000
1.4417229e+000
1.2976590e+000
1.0558590e+000
7.5955045e-001
4.6405458e-001
2.2465622e-001
7.8193009e-002
1.7041989e-002
9.5118443e-003
-4.7922544e-003
-6.8268336e-002
-1.6472629e-001
-2.6453477e-001
-3.4005851e-001
-3.7054259e-001
-3.5185897e-001
-2.9535195e-001
-2.3943995e-001
-2.2319400e-001
-2.6958725e-001
-3.8133830e-001
-5.2123678e-001
-6.4653385e-001
-7.2558588e-001
-7.3882866e-001
-6.9045699e-001
-5.9121573e-001
-4.5391589e-001
-2.9116625e-001
-1.1306138e-001
7.7802852e-002
2.9679111e-001
5.6618559e-001
9.1335237e-001
1.3511600e+000
1.8507886e+000
2.3664734e+000
2.8351457e+000
3.1941819e+000
3.3963301e+000
3.4164941e+000
3.2818773e+000
3.0482743e+000
2.8124070e+000
2.6579142e+000
2.6044335e+000
2.6368761e+000
2.6891496e+000
2.6965625e+000
2.6336761e+000
2.4983742e+000
2.3258517e+000
2.1541398e+000
2.0028601e+000
1.8816321e+000
1.7839357e+000
1.7107995e+000
1.6960374e+000
1.7780720e+000
1.9842122e+000
2.3126800e+000
2.6857607e+000
3.0072954e+000
3.1846950e+000
3.1573045e+000
2.9567442e+000
2.6457326e+000
2.3107829e+000
2.0259485e+000
1.8090099e+000
1.6549971e+000
1.5312631e+000
1.4034206e+000
1.2525904e+000
1.0667081e+000
8.4291255e-001
5.8178782e-001
2.8678802e-001
-3.5832614e-002
-3.7310258e-001
-7.0666146e-001
-1.0064659e+000
-1.2443817e+000
-1.4079578e+000
-1.4980477e+000
-1.5449471e+000
-1.5773629e+000
-1.5941410e+000
-1.5816100e+000
-1.5103377e+000
-1.3567286e+000
-1.1307266e+000
-8.5663396e-001
-5.7864565e-001
-3.4167033e-001
-1.7516875e-001
-8.9776590e-002
-4.5355935e-002
5.8047548e-003
9.3568176e-002
2.2527272e-001
3.4596613e-001
3.9712521e-001
3.6220190e-001
2.4933320e-001
1.1688528e-001
3.1453189e-002
4.3860734e-002
1.7904803e-001
3.8313788e-001
5.9206802e-001
7.7613866e-001
9.2017949e-001
1.0310736e+000
1.1201074e+000
1.1944778e+000
1.2584020e+000
1.3080219e+000
1.3354286e+000
1.3247043e+000
1.2674929e+000
1.1903762e+000
1.1351554e+000
1.1676050e+000
1.3387966e+000
1.6182972e+000
1.9389126e+000
2.1674170e+000
2.1942439e+000
2.0696335e+000
1.8834000e+000
