Image.
>Pix99999.
  .
5555
5555
2300
900
5555
2
1
0
701
5555
-3.0738000e-002
-3.1378083e-002
-3.2017171e-002
-3.2656260e-002
-3.3296339e-002
-3.3935428e-002
-3.4575507e-002
-3.5214599e-002
-3.5853688e-002
-3.6493760e-002
-3.7132859e-002
-3.7772927e-002
-3.8412031e-002
-3.9051112e-002
-3.9691180e-002
-4.0330287e-002
-4.0969372e-002
-4.1609433e-002
-4.2248543e-002
-4.2888604e-002
-4.3527711e-002
-4.4166800e-002
-4.4806853e-002
-4.5445971e-002
-4.6085060e-002
-4.6725109e-002
-1.7363543e-003
4.0603049e-002
8.3343036e-002
3.9685857e-002
-1.6800556e-002
-1.3298921e-001
-2.5341365e-001
-3.7315851e-001
-4.9247715e-001
-6.0913551e-001
-7.2304076e-001
-8.2531911e-001
-8.9481944e-001
-8.6653596e-001
-7.8570461e-001
-6.0209560e-001
-4.3241081e-001
-2.9532945e-001
-2.2707097e-001
-2.4212922e-001
-2.9666626e-001
-3.8410595e-001
-4.6913376e-001
-5.5073571e-001
-5.9750146e-001
-6.2435776e-001
-6.1099201e-001
-5.8060879e-001
-5.8202219e-001
-5.9412509e-001
-6.9193238e-001
-8.0928338e-001
-9.0406007e-001
-9.9393535e-001
-9.7356856e-001
-9.3978506e-001
-8.6888123e-001
-7.9865283e-001
-7.5258273e-001
-7.3005617e-001
-7.8494829e-001
-8.7418997e-001
-1.0316113e+000
-1.1774958e+000
-1.2884500e+000
-1.3629087e+000
-1.3899269e+000
-1.4182653e+000
-1.4537625e+000
-1.4822429e+000
-1.5038309e+000
-1.4853630e+000
-1.4397042e+000
-1.3853297e+000
-1.3276399e+000
-1.3283396e+000
-1.3535786e+000
-1.4455599e+000
-1.5579960e+000
-1.6287193e+000
-1.6894917e+000
-1.6451453e+000
-1.5843811e+000
-1.5258124e+000
-1.4698614e+000
-1.4305969e+000
-1.3856721e+000
-1.3043320e+000
-1.2235429e+000
-1.1608564e+000
-1.1204292e+000
-1.1235697e+000
-1.1488080e+000
-1.2004366e+000
-1.2725857e+000
-1.3666465e+000
-1.4613446e+000
-1.5533923e+000
-1.6365469e+000
-1.7121950e+000
-1.7750779e+000
-1.8300457e+000
-1.8440509e+000
-1.8371638e+000
-1.8087286e+000
-1.7723988e+000
-1.7181159e+000
-1.6583341e+000
-1.4811715e+000
-1.2748550e+000
-1.0181543e+000
-7.6681846e-001
-6.6530401e-001
-6.1350089e-001
-6.7241144e-001
-7.4537110e-001
-7.9197061e-001
-8.2043362e-001
-8.1766951e-001
-8.2889783e-001
-8.8029778e-001
-9.7312182e-001
-1.1150209e+000
-1.2540450e+000
-1.3761001e+000
-1.4368107e+000
-1.4413183e+000
-1.3908900e+000
-1.3062860e+000
-1.2321771e+000
-1.1692097e+000
-1.1527960e+000
-1.1602103e+000
-1.2144730e+000
-1.2862800e+000
-1.3816557e+000
-1.4829099e+000
-1.5427288e+000
-1.5903697e+000
-1.6322900e+000
-1.6752062e+000
-1.7400739e+000
-1.7977983e+000
-1.8069386e+000
-1.7918428e+000
-1.7442937e+000
-1.7104583e+000
-1.7194034e+000
-1.7545660e+000
-1.8092357e+000
-1.8491892e+000
-1.8624076e+000
-1.8413134e+000
-1.7916518e+000
-1.6835743e+000
-1.5290970e+000
-1.2892658e+000
-9.9277204e-001
-7.2464520e-001
-4.8086271e-001
-4.5750582e-001
-5.4635328e-001
-7.6335156e-001
-1.0293719e+000
-1.2031986e+000
-1.3388124e+000
-1.3904080e+000
-1.4136145e+000
-1.4462514e+000
-1.4896250e+000
-1.5695194e+000
-1.6651223e+000
-1.7519672e+000
-1.8244814e+000
-1.8608943e+000
-1.8900877e+000
-1.9349999e+000
-1.9797586e+000
-2.0257194e+000
-1.9646021e+000
-1.7685066e+000
-1.4310327e+000
-9.7443563e-001
-6.4121342e-001
-4.3699586e-001
-4.3013626e-001
-5.5252320e-001
-6.8957591e-001
-8.2266903e-001
-9.9003154e-001
-1.1750400e+000
-1.3360480e+000
-1.4824423e+000
-1.4395899e+000
-1.3152286e+000
-1.1156982e+000
-9.1257334e-001
-8.7078148e-001
-9.3641096e-001
-1.1842626e+000
-1.4966006e+000
-1.7956417e+000
-2.0379612e+000
-2.1659570e+000
-2.1781499e+000
-2.0641406e+000
-1.8256069e+000
-1.4706627e+000
-1.1779814e+000
-9.9124265e-001
-1.0535157e+000
-1.3311449e+000
-1.6383811e+000
-1.9282787e+000
-2.0689116e+000
-2.1042435e+000
-2.0022500e+000
-1.8281437e+000
-1.5830320e+000
-1.3104286e+000
-1.2075611e+000
-1.2065517e+000
-1.4196401e+000
-1.7205349e+000
-1.9600443e+000
-2.1228631e+000
-2.0773063e+000
-1.8892982e+000
-1.5105400e+000
-1.1156020e+000
-8.6502159e-001
-8.0159259e-001
-1.0115308e+000
-1.3148932e+000
-1.6130171e+000
-1.8153998e+000
-1.8905692e+000
-1.8760940e+000
-1.7996583e+000
-1.6544350e+000
-1.4547571e+000
-1.2269273e+000
-9.9352604e-001
-8.0780542e-001
-6.6365498e-001
-5.1358283e-001
-3.4490079e-001
-1.9974478e-001
-6.0078703e-002
-1.7050689e-002
-2.1226194e-002
-1.1324152e-002
3.7926100e-002
2.6162454e-001
5.9333396e-001
9.8620617e-001
1.2801929e+000
1.2075263e+000
8.9841318e-001
4.6883708e-001
1.4735460e-001
1.2589255e-001
6.3332230e-002
-9.0559259e-002
-2.3120642e-001
-3.7058994e-001
-2.2718549e-001
2.5119460e-001
9.3027437e-001
1.7215357e+000
2.1057560e+000
2.0926251e+000
1.9111440e+000
1.6508114e+000
1.7656000e+000
2.1658599e+000
2.3643572e+000
2.3822365e+000
1.7986566e+000
8.6317539e-001
1.5442210e-001
-2.5678912e-001
1.2118781e-001
1.1824011e+000
2.8554101e+000
4.6166849e+000
5.7739959e+000
6.4983282e+000
6.9329100e+000
7.5561218e+000
8.7762489e+000
1.0869132e+001
1.3949663e+001
1.7580214e+001
2.1474001e+001
2.4816360e+001
2.7348715e+001
2.9672651e+001
3.2004852e+001
3.5223049e+001
3.9331402e+001
4.3886681e+001
4.8721478e+001
5.2738979e+001
5.6044544e+001
5.9486347e+001
6.3099140e+001
6.7224365e+001
7.1701065e+001
7.6015602e+001
8.0206223e+001
8.4314209e+001
8.8329491e+001
9.2192780e+001
9.5868713e+001
9.9284599e+001
1.0220020e+002
1.0437943e+002
1.0509183e+002
1.0385429e+002
1.0134194e+002
9.8197220e+001
9.4871826e+001
9.1626450e+001
8.7940971e+001
8.3658943e+001
7.9093864e+001
7.4403893e+001
7.0052406e+001
6.6085480e+001
6.2091560e+001
5.8005154e+001
5.3873135e+001
4.9710922e+001
4.5635941e+001
4.1687138e+001
3.8081055e+001
3.4860149e+001
3.2105972e+001
2.9784885e+001
2.7724787e+001
2.5947269e+001
2.4453766e+001
2.3287027e+001
2.2459999e+001
2.1921146e+001
2.1566235e+001
2.1328440e+001
2.1130512e+001
2.1030651e+001
2.1054892e+001
2.1268379e+001
2.1683605e+001
2.2369274e+001
2.3341658e+001
2.4539955e+001
2.5951488e+001
2.7313080e+001
2.8572279e+001
2.9765436e+001
3.0899714e+001
3.2387733e+001
3.4327328e+001
3.7071224e+001
4.0522171e+001
4.3537678e+001
4.5997971e+001
4.7680157e+001
4.8746876e+001
4.9883286e+001
5.1067204e+001
5.2248409e+001
5.3025558e+001
5.2926815e+001
5.2015884e+001
5.0509903e+001
4.8881645e+001
4.7542797e+001
4.6430504e+001
4.5486301e+001
4.4439846e+001
4.3145363e+001
4.1401886e+001
3.9140820e+001
3.6861588e+001
3.4716766e+001
3.2820881e+001
3.1185322e+001
2.9084410e+001
2.6335743e+001
2.3360468e+001
2.0218487e+001
1.7628025e+001
1.5674701e+001
1.3866858e+001
1.2192535e+001
1.0512394e+001
8.8086615e+000
7.0766611e+000
5.3220663e+000
3.5651221e+000
1.9841638e+000
7.8892428e-001
9.3609445e-002
2.6050672e-002
5.2614236e-001
1.4645114e+000
2.3957109e+000
3.0273261e+000
3.5086999e+000
3.8622634e+000
4.3804226e+000
5.2197394e+000
6.1484113e+000
7.1378403e+000
7.6888013e+000
7.5771961e+000
7.2174993e+000
6.5491810e+000
5.9032750e+000
5.2931538e+000
4.7521019e+000
4.3177552e+000
4.0504045e+000
3.9500616e+000
3.8852959e+000
3.8014731e+000
3.5781429e+000
3.2786639e+000
3.0390649e+000
2.9387445e+000
3.0713735e+000
3.3629415e+000
3.7305884e+000
4.0285568e+000
4.1013060e+000
4.0838342e+000
4.0236592e+000
4.0547419e+000
4.2801299e+000
4.6205459e+000
5.1167369e+000
5.6398797e+000
6.1810732e+000
6.6316929e+000
6.9189978e+000
7.0499229e+000
6.9488521e+000
6.7562623e+000
6.4304099e+000
6.0446959e+000
5.5847859e+000
5.1352558e+000
4.7133899e+000
4.3810945e+000
4.1324029e+000
3.9351320e+000
3.7805080e+000
3.6214950e+000
3.4623437e+000
3.2731640e+000
3.0124369e+000
2.6262147e+000
2.1429739e+000
1.5708656e+000
1.0136274e+000
5.4282415e-001
1.6242820e-001
-7.1693659e-002
-2.0024785e-001
-1.2159648e-001
7.4545622e-002
4.7005510e-001
8.4008819e-001
1.1427171e+000
1.2992793e+000
1.2384605e+000
1.1562530e+000
1.0682034e+000
1.0934778e+000
1.2864037e+000
1.6472973e+000
2.1982548e+000
2.8168919e+000
3.4408200e+000
3.8763652e+000
4.1003513e+000
4.0933709e+000
3.9424965e+000
3.7805099e+000
3.6447189e+000
3.5963020e+000
3.5861852e+000
3.5910358e+000
3.5893142e+000
3.5681400e+000
3.5445077e+000
3.5318539e+000
3.5273640e+000
3.5433900e+000
3.5649760e+000
3.6024187e+000
3.6381063e+000
3.6737964e+000
3.7234015e+000
3.8014910e+000
3.9342937e+000
4.1557026e+000
4.4218531e+000
4.7450943e+000
5.0446057e+000
5.3190217e+000
5.5781040e+000
5.8367801e+000
6.1486225e+000
6.5141296e+000
6.9269996e+000
7.3735867e+000
7.8334894e+000
8.2953758e+000
8.7486086e+000
9.1805573e+000
9.5578680e+000
9.8920183e+000
1.0132643e+001
1.0316278e+001
1.0367120e+001
1.0354727e+001
1.0179129e+001
9.9592009e+000
9.6235275e+000
9.2683105e+000
8.8658361e+000
8.4418964e+000
7.9714055e+000
7.4604521e+000
6.8777337e+000
6.2563004e+000
5.5839043e+000
4.9092374e+000
4.2466259e+000
3.6460853e+000
3.1247337e+000
2.7136593e+000
2.3974357e+000
2.1538327e+000
1.9473474e+000
1.7240061e+000
1.4887027e+000
1.2358500e+000
9.9636590e-001
8.3538783e-001
7.2748923e-001
7.6084977e-001
8.3393198e-001
9.8818576e-001
1.1445334e+000
1.2931700e+000
1.4372983e+000
1.5673029e+000
1.6672601e+000
1.6863661e+000
1.6367160e+000
1.4503778e+000
1.2421600e+000
1.0054741e+000
8.0909079e-001
6.6679621e-001
5.4621601e-001
4.4596535e-001
3.3419582e-001
2.1565053e-001
1.0856089e-001
2.4841387e-002
2.5084574e-002
9.9055097e-002
3.6685291e-001
7.3437679e-001
1.2347045e+000
1.7557993e+000
2.1935699e+000
2.5827265e+000
2.7937999e+000
2.9821310e+000
3.1379142e+000
3.3253000e+000
3.6479778e+000
3.9962146e+000
4.4195991e+000
4.7981501e+000
5.0592394e+000
5.2391815e+000
5.2631836e+000
5.2740870e+000
5.2804575e+000
5.4024682e+000
5.6817780e+000
6.0886707e+000
6.6128330e+000
7.0992842e+000
7.5362568e+000
7.8275757e+000
8.0124207e+000
8.0546923e+000
8.0219889e+000
7.9102817e+000
7.7820759e+000
7.7155747e+000
7.6770945e+000
7.7398286e+000
7.8141479e+000
7.8766146e+000
7.9262319e+000
7.8983598e+000
7.8701143e+000
7.8409672e+000
7.8286686e+000
7.8664007e+000
7.8779173e+000
7.8204608e+000
7.6884580e+000
7.4205637e+000
7.1509638e+000
6.8860302e+000
6.6844997e+000
6.5517650e+000
6.3995275e+000
6.2142015e+000
5.8767881e+000
5.4221406e+000
4.8349495e+000
4.1881690e+000
3.6366591e+000
3.1394367e+000
2.8282771e+000
2.5724030e+000
2.3754809e+000
2.1862419e+000
1.9719640e+000
1.7551965e+000
1.5342443e+000
1.3196378e+000
1.1488799e+000
9.8190379e-001
8.3156645e-001
6.7840111e-001
5.1478732e-001
3.0943707e-001
6.2794983e-003
-3.4752473e-001
-7.8293467e-001
-1.1059130e+000
-1.2678241e+000
-1.2251182e+000
-9.6865141e-001
-6.6464508e-001
-3.2887894e-001
-1.0324114e-001
5.3709224e-002
1.8533000e-001
3.1032228e-001
5.3400791e-001
7.8794283e-001
9.9750215e-001
1.1897299e+000
1.1964579e+000
1.1710119e+000
9.0623343e-001
6.2783360e-001
2.9228464e-001
1.3780454e-004
4.9518738e-003
3.8601547e-002
2.3584901e-001
4.4266140e-001
6.7896855e-001
9.9461555e-001
1.4789135e+000
1.9561605e+000
2.4188621e+000
2.7397699e+000
2.8883085e+000
3.0503018e+000
3.2266271e+000
3.4962015e+000
3.8321390e+000
4.1925564e+000
4.5657158e+000
5.0670023e+000
5.6147041e+000
6.1465082e+000
6.6714110e+000
7.0000477e+000
7.2964334e+000
7.5994000e+000
