Image.
>Pix99999.
  .
5555
5555
2300
900
5555
2
1
0
701
5555
7.6940998e-002
7.8541711e-002
8.0142416e-002
8.1743129e-002
8.3343841e-002
8.4944546e-002
8.6545259e-002
8.8144980e-002
8.9745678e-002
9.1346391e-002
9.2947096e-002
9.4548792e-002
9.6148536e-002
9.7745299e-002
9.9349856e-002
1.0096533e-001
1.0255366e-001
1.0409260e-001
1.0574731e-001
1.0757033e-001
1.0896057e-001
1.0975660e-001
1.1213363e-001
1.1672655e-001
1.1546040e-001
9.9116467e-002
6.3556470e-002
1.4161568e-002
-1.1166960e-002
2.3178482e-002
1.0662207e-001
2.1389899e-001
3.1382319e-001
3.7969637e-001
4.0920827e-001
4.1221300e-001
4.1893053e-001
4.6021605e-001
5.4559046e-001
6.7163461e-001
8.0846113e-001
9.2080915e-001
9.8340917e-001
9.8049510e-001
9.2228580e-001
8.2874984e-001
7.2741431e-001
6.4651126e-001
6.0794592e-001
6.2764329e-001
7.0511860e-001
8.2966137e-001
9.6962678e-001
1.0903680e+000
1.1716597e+000
1.2049743e+000
1.2102439e+000
1.2136232e+000
1.2287577e+000
1.2624247e+000
1.3109314e+000
1.3709755e+000
1.4546828e+000
1.5746851e+000
1.7230852e+000
1.8811357e+000
2.0138240e+000
2.0889478e+000
2.1070662e+000
2.0826995e+000
2.0399401e+000
2.0018036e+000
1.9740463e+000
1.9562520e+000
1.9489554e+000
1.9529428e+000
1.9692783e+000
1.9962981e+000
2.0210810e+000
2.0300987e+000
2.0240800e+000
2.0120580e+000
2.0164268e+000
2.0575695e+000
2.1278560e+000
2.2090065e+000
2.2813649e+000
2.3289819e+000
2.3541715e+000
2.3645940e+000
2.3640444e+000
2.3542299e+000
2.3350811e+000
2.3061256e+000
2.2678177e+000
2.2230887e+000
2.1845429e+000
2.1674261e+000
2.1821840e+000
2.2340102e+000
2.3124714e+000
2.4021554e+000
2.4894519e+000
2.5641880e+000
2.6251342e+000
2.6751249e+000
2.7181249e+000
2.7577081e+000
2.7943149e+000
2.8274238e+000
2.8582070e+000
2.8894207e+000
2.9276640e+000
2.9792829e+000
3.0424142e+000
3.1092436e+000
3.1590943e+000
3.1710477e+000
3.1424673e+000
3.0828819e+000
3.0211086e+000
2.9895906e+000
3.0050173e+000
3.0722580e+000
3.1767080e+000
3.2957749e+000
3.4066160e+000
3.4895573e+000
3.5381651e+000
3.5516100e+000
3.5313215e+000
3.4799044e+000
3.4037988e+000
3.3131890e+000
3.2281458e+000
3.1703093e+000
3.1506314e+000
3.1723480e+000
3.2266927e+000
3.2991078e+000
3.3713000e+000
3.4248099e+000
3.4445050e+000
3.4220941e+000
3.3706639e+000
3.3126972e+000
3.2689428e+000
3.2538061e+000
3.2589393e+000
3.2676482e+000
3.2710714e+000
3.2657747e+000
3.2517526e+000
3.2289987e+000
3.1916978e+000
3.1359079e+000
3.0779142e+000
3.0419836e+000
3.0424235e+000
3.0819063e+000
3.1361001e+000
3.1733088e+000
3.1835973e+000
3.1719956e+000
3.1557188e+000
3.1515944e+000
3.1521101e+000
3.1382136e+000
3.0966358e+000
3.0225456e+000
2.9306200e+000
2.8439445e+000
2.7802548e+000
2.7482820e+000
2.7321806e+000
2.7048750e+000
2.6422541e+000
2.5308061e+000
2.3918426e+000
2.2620153e+000
2.1670058e+000
2.1198432e+000
2.1112220e+000
2.1238556e+000
2.1554270e+000
2.2132158e+000
2.3067923e+000
2.4380991e+000
2.5744965e+000
2.6696110e+000
2.6989772e+000
2.6573718e+000
2.5639920e+000
2.4459853e+000
2.3107555e+000
2.1579864e+000
2.0052080e+000
1.8812703e+000
1.8164549e+000
1.8315560e+000
1.9067000e+000
1.9993799e+000
2.0679474e+000
2.0791202e+000
2.0254996e+000
1.9163607e+000
1.7698085e+000
1.6074815e+000
1.4493057e+000
1.3140887e+000
1.2212501e+000
1.1881295e+000
1.2206000e+000
1.3098979e+000
1.4139280e+000
1.4776100e+000
1.4740303e+000
1.4023440e+000
1.2947897e+000
1.1954018e+000
1.1201142e+000
1.0669438e+000
1.0391574e+000
1.0431169e+000
1.0770400e+000
1.1290715e+000
1.1667017e+000
1.1524177e+000
1.0804143e+000
9.6901143e-001
8.4994525e-001
7.5807226e-001
7.1510547e-001
7.2837543e-001
7.8098345e-001
8.4077764e-001
8.7205291e-001
8.4604961e-001
7.6816821e-001
6.6743195e-001
5.7927227e-001
5.3387851e-001
5.3036362e-001
5.4879683e-001
5.7635212e-001
6.0921401e-001
6.5231818e-001
7.1367580e-001
7.9263616e-001
8.7924981e-001
9.5053428e-001
9.7672117e-001
9.3372679e-001
8.1381696e-001
6.6158283e-001
5.4705775e-001
4.9563360e-001
4.9868822e-001
5.5301362e-001
6.6159749e-001
8.1816918e-001
9.9887162e-001
1.1340503e+000
1.1371042e+000
9.8874754e-001
7.3089063e-001
4.4866040e-001
2.2955903e-001
6.1019775e-002
-1.2386940e-001
-2.9592744e-001
-3.5822690e-001
-2.6916006e-001
-5.1467866e-002
2.1126321e-001
4.0741751e-001
4.7007978e-001
3.9060068e-001
2.5301367e-001
1.8564214e-001
2.2661400e-001
3.2633555e-001
3.8369724e-001
2.9412797e-001
6.7084573e-002
-1.9259065e-001
-3.5840788e-001
-3.0985618e-001
3.0164167e-002
6.8011045e-001
1.5427172e+000
2.4452639e+000
3.2588458e+000
3.9331481e+000
4.5671902e+000
5.3690987e+000
6.5402684e+000
8.2412605e+000
1.0545510e+001
1.3413712e+001
1.6583857e+001
1.9664181e+001
2.2444597e+001
2.4941740e+001
2.7424532e+001
3.0302906e+001
3.3802353e+001
3.7883686e+001
4.2107719e+001
4.5848755e+001
4.9024971e+001
5.2051598e+001
5.5325394e+001
5.9071003e+001
6.3161522e+001
6.7227646e+001
7.1073853e+001
7.4700890e+001
7.8120682e+001
8.1325729e+001
8.4330315e+001
8.7165672e+001
8.9836296e+001
9.2281639e+001
9.4251030e+001
9.5392570e+001
9.5651093e+001
9.5241516e+001
9.4290222e+001
9.2782539e+001
9.0639954e+001
8.7796524e+001
8.4403214e+001
8.0780540e+001
7.7098206e+001
7.3340317e+001
6.9439644e+001
6.5334633e+001
6.1066357e+001
5.6774868e+001
5.2603600e+001
4.8676834e+001
4.5105396e+001
4.1974468e+001
3.9278027e+001
3.6927734e+001
3.4846272e+001
3.2989475e+001
3.1346109e+001
2.9927134e+001
2.8728001e+001
2.7722811e+001
2.6881195e+001
2.6175760e+001
2.5598419e+001
2.5163557e+001
2.4891577e+001
2.4808290e+001
2.4959221e+001
2.5396338e+001
2.6115343e+001
2.7040676e+001
2.8036581e+001
2.8940809e+001
2.9705801e+001
3.0414785e+001
3.1173872e+001
3.2109966e+001
3.3455521e+001
3.5476353e+001
3.8065445e+001
4.0722740e+001
4.3017452e+001
4.4738056e+001
4.5984489e+001
4.7115463e+001
4.8332439e+001
4.9584709e+001
5.0686237e+001
5.1382637e+001
5.1538086e+001
5.1187572e+001
5.0496208e+001
4.9713375e+001
4.8983257e+001
4.8293301e+001
4.7544136e+001
4.6581284e+001
4.5277622e+001
4.3582302e+001
4.1604713e+001
3.9589153e+001
3.7623322e+001
3.5572124e+001
3.3255775e+001
3.0543413e+001
2.7556114e+001
2.4667658e+001
2.2109102e+001
1.9865870e+001
1.7829285e+001
1.5850849e+001
1.3834435e+001
1.1759060e+001
9.6184797e+000
7.4201527e+000
5.2646279e+000
3.3522100e+000
1.8179971e+000
7.0468414e-001
1.2048728e-001
2.2841322e-001
9.2466712e-001
1.7878950e+000
2.5348711e+000
3.1561384e+000
3.7415404e+000
4.4139485e+000
5.1995292e+000
5.9793277e+000
6.5563998e+000
6.7115908e+000
6.4292121e+000
5.9506779e+000
5.4682226e+000
5.0321927e+000
4.6503739e+000
4.3156171e+000
4.0247388e+000
3.7778897e+000
3.5409684e+000
3.2395065e+000
2.8296070e+000
2.3286369e+000
1.8047100e+000
1.3699592e+000
1.1056502e+000
1.0309806e+000
1.1205801e+000
1.3081387e+000
1.5309286e+000
1.7482250e+000
1.9483718e+000
2.1528473e+000
2.3834891e+000
2.6518013e+000
2.9653583e+000
3.3281727e+000
3.7359400e+000
4.1710906e+000
4.5993214e+000
4.9682579e+000
5.2351623e+000
5.3791895e+000
5.3961329e+000
5.3011551e+000
5.1220465e+000
4.8974109e+000
4.6603112e+000
4.4284010e+000
4.1967316e+000
3.9348445e+000
3.6278579e+000
3.2930701e+000
2.9548080e+000
2.6327693e+000
2.3196554e+000
1.9730844e+000
1.5733445e+000
1.1494819e+000
7.4927330e-001
4.2655003e-001
2.0080706e-001
3.7935525e-002
-9.0049244e-002
-1.8055108e-001
-2.1389320e-001
-1.6080071e-001
-3.0018657e-002
1.0703548e-001
1.7845772e-001
1.4222404e-001
9.2543587e-003
-1.3762100e-001
-2.2240846e-001
-2.0998544e-001
-9.1346055e-002
1.1303647e-001
3.6787254e-001
6.2515640e-001
8.4011197e-001
9.8184204e-001
1.0443617e+000
1.0577537e+000
1.0542641e+000
1.0537894e+000
1.0634137e+000
1.0740269e+000
1.0805489e+000
1.0908260e+000
1.1137143e+000
1.1535671e+000
1.2092068e+000
1.2720833e+000
1.3374600e+000
1.4102871e+000
1.4966817e+000
1.6004964e+000
1.7206812e+000
1.8489169e+000
1.9793458e+000
2.1142240e+000
2.2604325e+000
2.4292181e+000
2.6319113e+000
2.8774228e+000
3.1725783e+000
3.5207865e+000
3.9191959e+000
4.3553967e+000
4.8179002e+000
5.3023405e+000
5.8127871e+000
6.3648672e+000
6.9676857e+000
7.6110001e+000
8.2709208e+000
8.9061537e+000
9.4782381e+000
9.9631567e+000
1.0349985e+001
1.0646736e+001
1.0862679e+001
1.1000370e+001
1.1054969e+001
1.1012535e+001
1.0862880e+001
1.0609856e+001
1.0265179e+001
9.8451777e+000
9.3599367e+000
8.8117180e+000
8.2046785e+000
7.5529361e+000
6.8749537e+000
6.1936994e+000
5.5298500e+000
4.8967266e+000
4.3020406e+000
3.7442322e+000
3.2169929e+000
2.7084584e+000
2.2114937e+000
1.7322630e+000
1.2815604e+000
8.7349492e-001
5.1954949e-001
2.2430450e-001
-6.1455220e-003
-1.5958518e-001
-2.2739600e-001
-2.1343462e-001
-1.3552019e-001
-3.4822594e-002
4.9396008e-002
9.6026540e-002
1.0104619e-001
8.8280052e-002
8.1801452e-002
9.0468273e-002
1.1200714e-001
1.2767850e-001
1.2003227e-001
8.4248282e-002
2.4343584e-002
-4.1962788e-002
-9.2092730e-002
-1.0053453e-001
-4.7744285e-002
6.9455728e-002
2.4369857e-001
4.5264971e-001
6.7629284e-001
9.1016769e-001
1.1665595e+000
1.4868801e+000
1.8991828e+000
2.3821685e+000
2.8989601e+000
3.4047811e+000
3.8670528e+000
4.2880359e+000
4.6774855e+000
5.0427847e+000
5.3898830e+000
5.7220802e+000
6.0400724e+000
6.3393531e+000
6.6208401e+000
6.9019527e+000
7.2044711e+000
7.5508752e+000
7.9540739e+000
8.4011841e+000
8.8707066e+000
9.3346748e+000
9.7630501e+000
1.0124599e+001
1.0394052e+001
1.0564570e+001
1.0647015e+001
1.0685704e+001
1.0725543e+001
1.0789558e+001
1.0883778e+001
1.0984836e+001
1.1059840e+001
1.1083376e+001
1.1035060e+001
1.0907089e+001
1.0703657e+001
1.0454093e+001
1.0189304e+001
9.9235706e+000
9.6592731e+000
9.3777571e+000
9.0647182e+000
8.7317266e+000
8.3923731e+000
8.0461082e+000
7.6841898e+000
7.2842722e+000
6.8312807e+000
6.3403354e+000
5.8378129e+000
5.3600645e+000
4.9371080e+000
4.5728598e+000
4.2602339e+000
3.9786928e+000
3.7085056e+000
3.4417450e+000
3.1742790e+000
2.9039190e+000
2.6328521e+000
2.3742979e+000
2.1357255e+000
1.9002534e+000
1.6425314e+000
1.3312353e+000
9.5100641e-001
5.4041380e-001
1.4949641e-001
-1.7828813e-001
-4.0941039e-001
-5.3744501e-001
-5.6640971e-001
-5.1309955e-001
-4.0470520e-001
-2.9151896e-001
-2.1622029e-001
-1.7668261e-001
-1.4856781e-001
-7.1110196e-002
1.0571404e-001
3.6506552e-001
6.6371489e-001
9.2563111e-001
1.0852292e+000
1.1409910e+000
1.1114542e+000
1.0300584e+000
9.2109442e-001
7.6400959e-001
5.4653215e-001
3.2405716e-001
1.4782189e-001
-5.2078515e-003
-1.6302100e-001
-3.0549610e-001
-4.0934628e-001
-4.8301506e-001
-5.3213078e-001
-5.2350831e-001
-4.3150419e-001
-2.9420108e-001
-1.6388911e-001
-8.6497858e-002
-9.1373004e-002
-1.5137404e-001
-2.2977972e-001
-3.0719084e-001
-3.7240121e-001
-4.2934421e-001
-4.9100322e-001
-5.9088832e-001
-7.5876981e-001
-9.8956203e-001
-1.2555243e+000
-1.4735044e+000
-1.5465000e+000
