Image.
>Pix99999.
  .
5555
5555
2300
900
5555
2
1
0
701
5555
1.2340000e-001
1.2597632e-001
1.2854265e-001
1.3110898e-001
1.3367531e-001
1.3624164e-001
1.3880798e-001
1.4137429e-001
1.4394063e-001
1.4650697e-001
1.4907329e-001
1.5164946e-001
1.5421593e-001
1.5676264e-001
1.5934820e-001
1.6196385e-001
1.6448240e-001
1.6685243e-001
1.6960877e-001
1.7290989e-001
1.7476800e-001
1.7460661e-001
1.7979154e-001
1.9254252e-001
1.8537949e-001
1.3357857e-001
5.6777045e-002
-1.4847412e-002
-5.8604680e-002
-5.8763947e-002
-1.8679814e-002
4.9571414e-002
1.2056656e-001
1.6686055e-001
1.6819079e-001
1.1541550e-001
3.5799075e-002
-3.7106842e-002
-8.7256521e-002
-1.1067513e-001
-1.3080429e-001
-1.6936237e-001
-2.0835941e-001
-2.1864970e-001
-1.7466509e-001
-6.2257573e-002
9.1559805e-002
2.4762759e-001
3.6856881e-001
4.2496702e-001
4.1662142e-001
3.5706750e-001
2.7890274e-001
2.1536154e-001
1.7868145e-001
1.7062885e-001
1.7794399e-001
1.8561034e-001
1.9056809e-001
1.9373462e-001
1.9618429e-001
1.9931114e-001
2.0607936e-001
2.2030540e-001
2.4728081e-001
2.8858593e-001
3.2873330e-001
3.4726700e-001
3.2683641e-001
2.5826907e-001
1.6102101e-001
6.3872054e-002
-6.1955829e-003
-3.1290270e-002
-2.7329540e-002
-1.9995822e-002
-2.7067965e-002
-5.7563320e-002
-9.7179815e-002
-1.2851720e-001
-1.5489657e-001
-1.8656391e-001
-2.3087846e-001
-2.8954238e-001
-3.4632438e-001
-3.8213557e-001
-3.9298293e-001
-3.8346645e-001
-3.7012470e-001
-3.6941507e-001
-3.7983415e-001
-3.9080688e-001
-3.8210982e-001
-3.3695403e-001
-2.6674390e-001
-1.9489478e-001
-1.5023154e-001
-1.5386283e-001
-1.8786520e-001
-2.2169033e-001
-2.3469572e-001
-2.1965885e-001
-2.0697175e-001
-2.3262261e-001
-2.9573947e-001
-3.7638649e-001
-4.3796927e-001
-4.4782436e-001
-4.1464812e-001
-3.6296856e-001
-3.1348756e-001
-2.8092372e-001
-2.6445320e-001
-2.5808424e-001
-2.6021165e-001
-2.7163592e-001
-2.9464385e-001
-3.3036360e-001
-3.7281725e-001
-4.1172978e-001
-4.3142399e-001
-4.1821268e-001
-3.7583199e-001
-3.1673983e-001
-2.5872558e-001
-2.1834964e-001
-1.9891420e-001
-1.9960986e-001
-2.2646503e-001
-2.8492990e-001
-3.6416143e-001
-4.4313419e-001
-4.8850879e-001
-4.7097740e-001
-3.9946121e-001
-2.9835093e-001
-1.8485805e-001
-7.0790946e-002
3.7308946e-002
1.2810390e-001
1.6095600e-001
9.4539776e-002
-5.8820084e-002
-2.5619760e-001
-4.3193451e-001
-5.2346784e-001
-5.1951563e-001
-4.3685561e-001
-3.0845749e-001
-1.7159761e-001
-5.6153715e-002
1.4345145e-002
2.6948944e-002
-2.2053301e-002
-1.1728010e-001
-2.3477522e-001
-3.5150325e-001
-4.4753420e-001
-5.1196110e-001
-5.3822905e-001
-5.2013803e-001
-4.5304951e-001
-3.3943424e-001
-1.8966089e-001
-3.2876644e-002
9.5359370e-002
1.7084663e-001
1.8270749e-001
1.5029520e-001
1.0374727e-001
5.6294959e-002
1.0714537e-002
-3.3680338e-002
-7.6392591e-002
-1.0728762e-001
-1.1607500e-001
-1.1360600e-001
-1.2000649e-001
-1.4663894e-001
-1.9499189e-001
-2.4745314e-001
-2.8137016e-001
-2.9394680e-001
-2.9322070e-001
-2.8529450e-001
-2.7027076e-001
-2.3058303e-001
-1.4874890e-001
-4.8279177e-002
2.9824249e-002
6.8402037e-002
7.0589207e-002
6.2932774e-002
7.3728330e-002
8.8299915e-002
7.5378172e-002
3.9476279e-002
1.0193309e-002
3.0167494e-002
1.3458663e-001
3.0245429e-001
4.7943574e-001
6.0637200e-001
6.3304251e-001
5.4763985e-001
3.6689556e-001
1.3602713e-001
-8.8961780e-002
-2.6813650e-001
-3.7483168e-001
-3.9367598e-001
-3.1838474e-001
-1.5808435e-001
5.8546513e-002
2.5418800e-001
3.3704498e-001
2.7566975e-001
8.8857204e-002
-1.5433267e-001
-3.7007004e-001
-5.2632058e-001
-6.2512296e-001
-6.6827285e-001
-6.5567183e-001
-5.9510201e-001
-5.0205785e-001
-4.0317991e-001
-3.2668474e-001
-2.7952760e-001
-2.5292563e-001
-2.3021472e-001
-1.9073869e-001
-1.1154293e-001
2.1106865e-002
1.7484891e-001
2.8921264e-001
3.1027383e-001
2.0594382e-001
8.5817948e-003
-2.0997903e-001
-3.8422573e-001
-4.6813756e-001
-4.6384594e-001
-4.0199119e-001
-3.0372024e-001
-1.8038151e-001
-4.3545384e-002
9.3414351e-002
2.1494766e-001
3.1129822e-001
4.0489641e-001
5.2734989e-001
6.5265280e-001
7.2230148e-001
7.2051662e-001
6.7233396e-001
6.3183302e-001
6.5889400e-001
7.6808292e-001
9.3973017e-001
1.1507086e+000
1.3712206e+000
1.5320026e+000
1.5453637e+000
1.3674794e+000
1.0115660e+000
5.9351021e-001
2.6976639e-001
6.6480160e-002
-7.8068554e-002
-1.5602228e-001
-1.0061254e-001
1.3012771e-001
5.3128511e-001
1.0053229e+000
1.3977821e+000
1.5891994e+000
1.5285763e+000
1.3212051e+000
1.1598595e+000
1.1260200e+000
1.1822631e+000
1.1990368e+000
1.0226986e+000
6.4547718e-001
1.8957008e-001
-1.7095523e-001
-2.4909911e-001
9.7919196e-002
9.2470121e-001
2.0477057e+000
3.1346331e+000
3.9964988e+000
4.6249642e+000
5.2063560e+000
6.0519600e+000
7.4389343e+000
9.5654440e+000
1.2477983e+001
1.6053043e+001
1.9897572e+001
2.3482311e+001
2.6575054e+001
2.9277260e+001
3.1992538e+001
3.5279385e+001
3.9469528e+001
4.4564384e+001
5.0028641e+001
5.5058609e+001
5.9521027e+001
6.3890705e+001
6.8554840e+001
7.3625580e+001
7.8742310e+001
8.3250946e+001
8.6854332e+001
8.9640137e+001
9.1781853e+001
9.3445000e+001
9.4718315e+001
9.5610664e+001
9.6084259e+001
9.6071739e+001
9.5495743e+001
9.4312500e+001
9.2658669e+001
9.0796371e+001
8.8817635e+001
8.6622574e+001
8.4043304e+001
8.0925079e+001
7.7321495e+001
7.3454697e+001
6.9435333e+001
6.5234734e+001
6.0812160e+001
5.6167747e+001
5.1420471e+001
4.6784721e+001
4.2428516e+001
3.8450912e+001
3.4921261e+001
3.1882038e+001
2.9305668e+001
2.7104414e+001
2.5208448e+001
2.3584589e+001
2.2237057e+001
2.1196743e+001
2.0476000e+001
2.0057392e+001
1.9895639e+001
1.9928007e+001
2.0117975e+001
2.0460985e+001
2.0972315e+001
2.1693562e+001
2.2718103e+001
2.4178860e+001
2.6162628e+001
2.8668018e+001
3.1543089e+001
3.4512772e+001
3.7373962e+001
4.0036922e+001
4.2474834e+001
4.4742329e+001
4.7096203e+001
4.9900097e+001
5.3047199e+001
5.5921741e+001
5.7996223e+001
5.9027012e+001
5.9173050e+001
5.8917786e+001
5.8504017e+001
5.7819714e+001
5.6649239e+001
5.4800545e+001
5.2368401e+001
4.9748966e+001
4.7286144e+001
4.5163666e+001
4.3392590e+001
4.1818748e+001
4.0237614e+001
3.8445919e+001
3.6351242e+001
3.4011276e+001
3.1606415e+001
2.9379009e+001
2.7355560e+001
2.5299931e+001
2.2988209e+001
2.0324629e+001
1.7473234e+001
1.4836337e+001
1.2648048e+001
1.0867751e+001
9.3639708e+000
7.9796510e+000
6.6279497e+000
5.3111711e+000
4.0266957e+000
2.7566929e+000
1.5534718e+000
5.5646616e-001
-1.0349530e-001
-3.2922971e-001
-2.6862293e-002
8.6604917e-001
2.2168646e+000
3.6784580e+000
5.0000911e+000
6.1279163e+000
7.1193609e+000
8.1130915e+000
9.2185726e+000
1.0462971e+001
1.1743000e+001
1.2823352e+001
1.3525331e+001
1.3794979e+001
1.3673406e+001
1.3286750e+001
1.2757580e+001
1.2171950e+001
1.1580909e+001
1.0993586e+001
1.0375886e+001
9.6609173e+000
8.8294582e+000
7.9419894e+000
7.0906982e+000
6.3798652e+000
5.8736978e+000
5.5730591e+000
5.4451675e+000
5.4322720e+000
5.4891973e+000
5.5987000e+000
5.7645211e+000
6.0072756e+000
6.3273892e+000
6.6914077e+000
7.0591326e+000
7.3919826e+000
7.6559157e+000
7.8226624e+000
7.8667355e+000
7.7692046e+000
7.5376768e+000
7.2148895e+000
6.8403964e+000
6.4368100e+000
6.0206790e+000
5.6047506e+000
5.1995082e+000
4.8096895e+000
4.4179659e+000
3.9797122e+000
3.4681780e+000
2.8949659e+000
2.2904890e+000
1.6976135e+000
1.1426511e+000
6.2540776e-001
1.6260892e-001
-1.9495289e-001
-3.9596871e-001
-4.0450355e-001
-2.1263599e-001
1.4794564e-001
6.3275182e-001
1.1945393e+000
1.8061960e+000
2.4684258e+000
3.1552808e+000
3.7866113e+000
4.2637858e+000
4.4898443e+000
4.4397421e+000
4.2031631e+000
3.8826401e+000
3.5556650e+000
3.2753901e+000
3.0616796e+000
2.9156246e+000
2.8175282e+000
2.7331700e+000
2.6145058e+000
2.4278908e+000
2.1713309e+000
1.8635865e+000
1.5449493e+000
1.2548858e+000
1.0221102e+000
8.7006873e-001
8.1747323e-001
8.8169718e-001
1.0782037e+000
1.4115971e+000
1.8663135e+000
2.4112680e+000
2.9967279e+000
3.5720983e+000
4.0945454e+000
4.5341187e+000
4.8819366e+000
5.1451387e+000
5.3509779e+000
5.5325217e+000
5.7238960e+000
5.9511981e+000
6.2252631e+000
6.5508852e+000
6.9284635e+000
7.3597741e+000
7.8515267e+000
8.4157200e+000
9.0707664e+000
9.8308849e+000
1.0698202e+001
1.1660703e+001
1.2683250e+001
1.3722283e+001
1.4730516e+001
1.5654206e+001
1.6433121e+001
1.7006014e+001
1.7314831e+001
1.7316160e+001
1.6999876e+001
1.6375563e+001
1.5479665e+001
1.4360971e+001
1.3084013e+001
1.1732191e+001
1.0421677e+001
9.2662878e+000
8.3587780e+000
7.7549243e+000
7.4435377e+000
7.3794169e+000
7.4785104e+000
7.6416883e+000
7.7583566e+000
7.7289381e+000
7.4870858e+000
7.0112786e+000
6.3594241e+000
5.6165423e+000
4.8822641e+000
4.2337527e+000
3.6915357e+000
3.2526126e+000
2.8930402e+000
2.5919628e+000
2.3453093e+000
2.1526000e+000
2.0112479e+000
1.9139874e+000
1.8443290e+000
1.7877303e+000
1.7377356e+000
1.6917026e+000
1.6502230e+000
1.6106200e+000
1.5611988e+000
1.4879757e+000
1.3777994e+000
1.2226388e+000
1.0267217e+000
8.0098724e-001
5.6645858e-001
3.4951180e-001
1.8150172e-001
7.6933995e-002
9.3868114e-003
-4.5456745e-002
-8.3737746e-002
-9.2812695e-002
-5.6457721e-002
3.0664116e-002
1.4585716e-001
2.6107720e-001
3.5305861e-001
4.1335481e-001
4.6554989e-001
5.2876830e-001
5.9274185e-001
6.4356488e-001
6.7676508e-001
6.9943243e-001
7.4034595e-001
8.1888908e-001
9.1793853e-001
1.0128305e+000
1.0840505e+000
1.1315143e+000
1.2015009e+000
1.3458641e+000
1.6012913e+000
1.9841114e+000
2.4677670e+000
3.0079978e+000
3.5419331e+000
3.9986057e+000
4.2996979e+000
4.3852830e+000
4.2505922e+000
3.9339097e+000
3.5506485e+000
3.2165861e+000
2.9956064e+000
2.9101479e+000
2.9058683e+000
2.9217067e+000
2.9294808e+000
2.9163370e+000
2.8889322e+000
2.8559215e+000
2.8179579e+000
2.7763829e+000
2.7409251e+000
2.7188728e+000
2.7059240e+000
2.6989245e+000
2.7066951e+000
2.7426100e+000
2.8233328e+000
2.9459634e+000
3.0484407e+000
3.0610154e+000
2.9354699e+000
2.6620884e+000
2.3282340e+000
2.0277743e+000
1.8015157e+000
1.6547600e+000
1.5263855e+000
1.3600849e+000
1.1640717e+000
9.6302164e-001
7.8378648e-001
6.4034605e-001
5.0546277e-001
3.4824175e-001
1.5836105e-001
-6.5096632e-002
-3.0938509e-001
-5.5818594e-001
-7.9462755e-001
-1.0020013e+000
-1.1648099e+000
-1.2717823e+000
-1.3239150e+000
-1.3242661e+000
-1.2720857e+000
-1.1618279e+000
-9.7573406e-001
-7.0450234e-001
-3.7726057e-001
-3.8676172e-002
2.4664199e-001
4.2097157e-001
4.6688193e-001
3.8413405e-001
1.9743159e-001
-5.6248367e-002
-3.1865835e-001
-5.2083361e-001
-5.7627547e-001
-4.3301612e-001
-1.7561960e-001
1.0465217e-001
4.1274121e-001
7.6088941e-001
1.1020100e+000
1.3868513e+000
1.6107980e+000
1.7784234e+000
1.8866993e+000
1.9397274e+000
1.9764757e+000
2.0418599e+000
2.1711648e+000
2.3794200e+000
2.6129925e+000
2.8084514e+000
2.9298465e+000
2.9723897e+000
3.0249860e+000
3.1845775e+000
3.4858465e+000
3.9259999e+000
4.4151068e+000
4.8591738e+000
5.2344298e+000
5.5346999e+000
