Image.
>Pix99999.
  .
5555
5555
2300
900
5555
2
1
0
701
5555
9.8422997e-002
1.0046708e-001
1.0251414e-001
1.0456122e-001
1.0661823e-001
1.0866536e-001
1.1071243e-001
1.1275950e-001
1.1480657e-001
1.1685364e-001
1.1890071e-001
1.2094779e-001
1.2299486e-001
1.2503213e-001
1.2708880e-001
1.2916543e-001
1.3118382e-001
1.3313265e-001
1.3527472e-001
1.3770376e-001
1.3938257e-001
1.4001200e-001
1.4342000e-001
1.5077390e-001
1.4775589e-001
1.2050500e-001
7.4303485e-002
1.6133757e-002
-6.1826959e-002
-1.6673240e-001
-2.8605416e-001
-3.9840245e-001
-4.6961650e-001
-4.7538176e-001
-4.4597766e-001
-4.2536551e-001
-4.4894698e-001
-5.3633744e-001
-6.5434200e-001
-7.5632620e-001
-8.0419058e-001
-7.7439308e-001
-6.9120163e-001
-5.8958179e-001
-4.8974314e-001
-4.0439278e-001
-3.3486798e-001
-2.7955660e-001
-2.3886640e-001
-2.1082540e-001
-1.8107215e-001
-1.3303642e-001
-5.6951199e-002
5.1083606e-002
1.8007721e-001
3.1249809e-001
4.2335722e-001
4.8847193e-001
4.9648741e-001
4.4378594e-001
3.4122771e-001
2.0631480e-001
6.4697564e-002
-5.4211482e-002
-1.1628197e-001
-9.4113290e-002
5.9371665e-003
1.6017611e-001
3.2026634e-001
4.3890134e-001
5.0581700e-001
5.2597278e-001
5.1395828e-001
4.8303849e-001
4.2853841e-001
3.4475002e-001
2.4750732e-001
1.5740310e-001
8.2932211e-002
2.4208063e-002
-3.4794599e-002
-1.0777728e-001
-1.7588277e-001
-2.1367687e-001
-2.1759440e-001
-1.9866437e-001
-1.9407643e-001
-2.3580801e-001
-2.9615057e-001
-3.2878533e-001
-3.0235314e-001
-2.0542160e-001
-8.2873099e-002
1.0016775e-002
6.0992472e-002
8.0243476e-002
1.0072337e-001
1.5115780e-001
2.0941959e-001
2.3763897e-001
2.1461570e-001
1.3790503e-001
5.3047020e-002
1.4208459e-002
3.4861054e-002
1.0319715e-001
1.7169069e-001
1.8969372e-001
1.4939784e-001
6.6109076e-002
-2.2017058e-002
-7.4145988e-002
-7.3368043e-002
-1.9353196e-002
6.0970657e-002
1.3084866e-001
1.5706731e-001
1.1692134e-001
2.3476735e-002
-9.3393512e-002
-1.9520058e-001
-2.4595284e-001
-2.3249622e-001
-1.5622458e-001
-3.8682092e-002
9.2331961e-002
2.1681620e-001
3.2110000e-001
4.0241793e-001
4.5935684e-001
4.7714844e-001
4.4036490e-001
3.5618567e-001
2.4836691e-001
1.6736189e-001
1.6515379e-001
2.5262612e-001
4.1138324e-001
5.7918334e-001
6.8269378e-001
6.8033999e-001
5.6123221e-001
3.7907770e-001
2.1166946e-001
1.1805834e-001
1.3289879e-001
2.3106329e-001
3.6062679e-001
4.7069833e-001
5.2256572e-001
5.2017641e-001
4.8619953e-001
4.3813702e-001
3.8771784e-001
3.3795300e-001
2.8947949e-001
2.4963383e-001
2.2575571e-001
2.1028289e-001
1.9275895e-001
1.8220113e-001
1.9809930e-001
2.6196745e-001
3.8649368e-001
5.4510677e-001
6.9426394e-001
8.0109847e-001
8.4558582e-001
8.3410883e-001
7.8494489e-001
7.1239328e-001
6.2743258e-001
5.3936607e-001
4.5894727e-001
4.0600851e-001
4.0156752e-001
4.5138669e-001
5.4729187e-001
6.5658480e-001
7.3967737e-001
7.7978373e-001
7.7337390e-001
7.1830440e-001
6.1344427e-001
4.6350193e-001
2.8474891e-001
1.3017695e-001
6.0839687e-002
8.8154927e-002
1.8840970e-001
3.0895087e-001
3.9456517e-001
4.3738225e-001
4.5695981e-001
4.7401467e-001
5.0402522e-001
5.4686320e-001
5.9514964e-001
6.4711177e-001
7.0715845e-001
7.8964001e-001
9.0616256e-001
1.0330485e+000
1.1255770e+000
1.1377006e+000
1.0383731e+000
8.5836881e-001
6.6146982e-001
4.9961096e-001
4.0707594e-001
3.8559300e-001
4.1902196e-001
4.9226156e-001
5.8970076e-001
6.8311417e-001
7.4098653e-001
7.5143164e-001
7.1823788e-001
6.5916532e-001
5.9298140e-001
5.1091117e-001
3.8851014e-001
2.0929995e-001
-2.8789438e-002
-2.9336280e-001
-5.3162825e-001
-6.9149065e-001
-7.3353624e-001
-6.6331202e-001
-5.1139486e-001
-2.9569358e-001
-2.2574075e-002
3.0417609e-001
6.6876203e-001
9.9966526e-001
1.2030085e+000
1.2448828e+000
1.1438653e+000
9.6263760e-001
7.7680987e-001
6.1258054e-001
4.6016088e-001
3.0519569e-001
1.4173511e-001
-2.8613582e-003
-8.8128105e-002
-1.1348677e-001
-1.0964154e-001
-1.1689428e-001
-1.6475387e-001
-2.2031143e-001
-2.1695608e-001
-1.2813976e-001
3.1561516e-002
2.0815518e-001
3.3635706e-001
4.0420914e-001
4.3817201e-001
4.5905465e-001
4.7454521e-001
4.7331601e-001
4.3523410e-001
3.5561362e-001
2.4517207e-001
1.2800965e-001
3.5023216e-002
-7.9159904e-003
5.2461820e-003
1.0719333e-002
-8.3789304e-002
-2.7319455e-001
-4.7967139e-001
-6.4619511e-001
-7.5114959e-001
-8.1789011e-001
-8.9699179e-001
-1.0283287e+000
-1.2235054e+000
-1.4194951e+000
-1.5095037e+000
-1.4345200e+000
-1.1981455e+000
-8.9202869e-001
-6.5114546e-001
-5.3159106e-001
-5.0622427e-001
-4.8007843e-001
-3.2289219e-001
6.4741433e-002
7.2260690e-001
1.5515642e+000
2.3651967e+000
3.0527184e+000
3.6072564e+000
4.1597462e+000
4.9372606e+000
6.1631851e+000
8.0272398e+000
1.0643696e+001
1.3999949e+001
1.7757572e+001
2.1377621e+001
2.4570871e+001
2.7363092e+001
3.0130468e+001
3.3456520e+001
3.7729256e+001
4.3002388e+001
4.8692081e+001
5.3873116e+001
5.8359756e+001
6.2663467e+001
6.7299698e+001
7.2549095e+001
7.8109009e+001
8.3256805e+001
8.7525574e+001
9.0789185e+001
9.3123146e+001
9.4722015e+001
9.5767395e+001
9.6395142e+001
9.6676659e+001
9.6620209e+001
9.6157356e+001
9.5190964e+001
9.3778694e+001
9.2104233e+001
9.0254150e+001
8.8187889e+001
8.5793114e+001
8.2940384e+001
7.9629738e+001
7.5968513e+001
7.1984001e+001
6.7621719e+001
6.2891041e+001
5.7902027e+001
5.2874008e+001
4.8087524e+001
4.3710972e+001
3.9785839e+001
3.6322971e+001
3.3321182e+001
3.0747601e+001
2.8543936e+001
2.6659058e+001
2.5056187e+001
2.3718548e+001
2.2647160e+001
2.1852001e+001
2.1347010e+001
2.1133698e+001
2.1198639e+001
2.1509577e+001
2.2019714e+001
2.2688641e+001
2.3501120e+001
2.4524651e+001
2.5899481e+001
2.7736544e+001
3.0073658e+001
3.2797867e+001
3.5665550e+001
3.8488560e+001
4.1176678e+001
4.3701614e+001
4.6107441e+001
4.8591206e+001
5.1414413e+001
5.4416355e+001
5.7002769e+001
5.8737064e+001
5.9506123e+001
5.9506477e+001
5.9145786e+001
5.8576206e+001
5.7619213e+001
5.6063820e+001
5.3796074e+001
5.1002888e+001
4.8153797e+001
4.5570896e+001
4.3324303e+001
4.1360760e+001
3.9543301e+001
3.7721275e+001
3.5764309e+001
3.3622154e+001
3.1346148e+001
2.9078714e+001
2.7011639e+001
2.5174360e+001
2.3392799e+001
2.1459120e+001
1.9213579e+001
1.6709452e+001
1.4223068e+001
1.1961549e+001
9.9801846e+000
8.2453861e+000
6.6629696e+000
5.1793375e+000
3.8069072e+000
2.5696497e+000
1.4913985e+000
6.1088777e-001
-1.7942905e-002
-3.5710251e-001
-3.8338864e-001
-2.8522968e-002
8.0747402e-001
2.0770764e+000
3.5463901e+000
5.0023098e+000
6.3276987e+000
7.5179486e+000
8.6801004e+000
9.9030457e+000
1.1201309e+001
1.2475000e+001
1.3511234e+001
1.4158077e+001
1.4387482e+001
1.4242732e+001
1.3823500e+001
1.3230917e+001
1.2547710e+001
1.1838115e+001
1.1135711e+001
1.0428041e+001
9.6583281e+000
8.8069706e+000
7.9237680e+000
7.0866699e+000
6.3848028e+000
5.8710794e+000
5.5419288e+000
5.3662710e+000
5.2944684e+000
5.2887974e+000
5.3371658e+000
5.4508781e+000
5.6629171e+000
5.9887085e+000
6.4080572e+000
6.8729920e+000
7.3082414e+000
7.6427479e+000
7.8251190e+000
7.8322644e+000
7.6783895e+000
7.3950834e+000
7.0263047e+000
6.6105232e+000
6.1733599e+000
5.7347641e+000
5.3081927e+000
4.8941236e+000
4.4756098e+000
4.0300117e+000
3.5361891e+000
2.9961879e+000
2.4453974e+000
1.9158292e+000
1.4214849e+000
9.6384913e-001
5.3521234e-001
1.4986068e-001
-1.4320865e-001
-3.0430230e-001
-3.1953499e-001
-1.7575932e-001
1.4265329e-001
6.1990583e-001
1.1922450e+000
1.8028280e+000
2.4214931e+000
3.0144019e+000
3.5314775e+000
3.9164257e+000
4.1137104e+000
4.0976844e+000
3.8938670e+000
3.5520904e+000
3.1435380e+000
2.7445881e+000
2.4274709e+000
2.2342217e+000
2.1544785e+000
2.1437302e+000
2.1239915e+000
2.0350039e+000
1.8634250e+000
1.6296580e+000
1.3916243e+000
1.2018125e+000
1.0868560e+000
1.0556391e+000
1.0986587e+000
1.2132000e+000
1.4154354e+000
1.7227709e+000
2.1451154e+000
2.6723521e+000
3.2619386e+000
3.8597751e+000
4.4066014e+000
4.8551221e+000
5.1847129e+000
5.3975587e+000
5.5264301e+000
5.6122146e+000
5.6977248e+000
5.8227158e+000
6.0201116e+000
6.3155236e+000
6.7226982e+000
7.2416720e+000
7.8525481e+000
8.5358543e+000
9.2822008e+000
1.0090642e+001
1.0970939e+001
1.1932217e+001
1.2978001e+001
1.4095852e+001
1.5245978e+001
1.6360594e+001
1.7330206e+001
1.8046114e+001
1.8426004e+001
1.8418081e+001
1.8018909e+001
1.7247032e+001
1.6149036e+001
1.4793977e+001
1.3287907e+001
1.1752717e+001
1.0322451e+001
9.1123171e+000
8.1955538e+000
7.6178575e+000
7.3847952e+000
7.4634809e+000
7.7583556e+000
8.1398277e+000
8.4422522e+000
8.5259285e+000
8.3281059e+000
7.8423429e+000
7.1429090e+000
6.3222179e+000
5.4684429e+000
4.6514049e+000
3.9031115e+000
3.2413697e+000
2.6727796e+000
2.2091832e+000
1.8775395e+000
1.6970800e+000
1.6590135e+000
1.7289885e+000
1.8324506e+000
1.9023520e+000
1.9121650e+000
1.8666737e+000
1.8162429e+000
1.8033640e+000
1.8256617e+000
1.8543586e+000
1.8267388e+000
1.6943177e+000
1.4601364e+000
1.1513802e+000
8.2102394e-001
5.2096951e-001
2.8459221e-001
1.2475655e-001
1.7970767e-002
-5.6963600e-002
-9.6698761e-002
-1.0408083e-001
-1.0867833e-001
-1.2976262e-001
-1.4673357e-001
-1.3070887e-001
-5.7226710e-002
8.5484475e-002
2.8103858e-001
5.0885373e-001
7.5416917e-001
1.0000627e+000
1.2213799e+000
1.3970642e+000
1.5216950e+000
1.5966240e+000
1.6311330e+000
1.6355288e+000
1.6197555e+000
1.6049714e+000
1.6414866e+000
1.7782019e+000
2.0407908e+000
2.4317904e+000
2.9074442e+000
3.4070427e+000
3.8566713e+000
4.1914997e+000
4.3808160e+000
4.4184732e+000
4.3416533e+000
4.1902933e+000
3.9833238e+000
3.7381554e+000
3.4811714e+000
3.2441919e+000
3.0660923e+000
2.9692233e+000
2.9252286e+000
2.8916371e+000
2.8220029e+000
2.6830378e+000
2.4830370e+000
2.2532296e+000
2.0595000e+000
1.9630044e+000
1.9849946e+000
2.1217182e+000
2.3258474e+000
2.5470901e+000
2.7587752e+000
2.9386742e+000
3.0621474e+000
3.1003623e+000
3.0164688e+000
2.7893999e+000
2.4519658e+000
2.0633368e+000
1.7204700e+000
1.4990144e+000
1.3806131e+000
1.3133771e+000
1.2137321e+000
1.0214560e+000
7.7030927e-001
5.0869656e-001
2.5677061e-001
1.8597424e-002
-2.2987136e-001
-5.0638282e-001
-7.8709960e-001
-1.0421801e+000
-1.2550966e+000
-1.4104295e+000
-1.4844964e+000
-1.4489515e+000
-1.2682941e+000
-9.3126440e-001
-5.1148617e-001
-1.0361113e-001
1.9934042e-001
3.3451885e-001
3.3864096e-001
2.7540952e-001
2.1589151e-001
2.1650136e-001
2.7728409e-001
3.7742075e-001
4.7268069e-001
5.2364957e-001
5.2748740e-001
4.8941278e-001
4.1120607e-001
2.9786590e-001
1.6886204e-001
5.3352818e-002
1.7435625e-003
5.8236420e-002
2.2537851e-001
4.8507029e-001
7.8207648e-001
1.0630134e+000
1.3153250e+000
1.5425091e+000
1.7707222e+000
2.0290282e+000
2.3360600e+000
2.7001486e+000
3.0990684e+000
3.4965043e+000
3.8308582e+000
4.0517082e+000
4.1741543e+000
4.2396450e+000
4.3270378e+000
4.5004015e+000
4.7278357e+000
4.9692893e+000
5.2451959e+000
5.5917001e+000
