Image.
>Pix99999.
  .
5555
5555
2300
900
5555
2
1
0
701
5555
1.9285001e-002
1.9686427e-002
2.0087851e-002
2.0489277e-002
2.0890703e-002
2.1291135e-002
2.1692554e-002
2.2093980e-002
2.2495406e-002
2.2895845e-002
2.3297258e-002
2.3700653e-002
2.4100143e-002
2.4493683e-002
2.4901818e-002
2.5329808e-002
2.5705429e-002
2.6006715e-002
2.6505040e-002
2.7276829e-002
2.7320342e-002
2.6340330e-002
2.8067956e-002
3.3613533e-002
2.9095041e-002
6.7539606e-003
2.2035743e-004
4.1900981e-002
1.1255608e-001
1.7589667e-001
1.8596613e-001
1.1083680e-001
-1.4335245e-002
-1.3677084e-001
-2.1031977e-001
-2.0294051e-001
-1.3095205e-001
-2.5641948e-002
7.8250341e-002
1.5032989e-001
1.8120629e-001
1.7281379e-001
1.4759959e-001
1.3217670e-001
1.4543024e-001
1.9768523e-001
2.7448601e-001
3.5513613e-001
4.2444736e-001
4.7313899e-001
5.0842071e-001
5.4204124e-001
5.8332372e-001
6.3860673e-001
7.0565277e-001
7.7873552e-001
8.4903961e-001
9.0752298e-001
9.4801527e-001
9.6731162e-001
9.7048146e-001
9.6502590e-001
9.5759052e-001
9.5275223e-001
9.4822419e-001
9.4089758e-001
9.3365073e-001
9.3278915e-001
9.5021325e-001
9.9626899e-001
1.0676999e+000
1.1539946e+000
1.2358377e+000
1.2947184e+000
1.3294855e+000
1.3457572e+000
1.3538965e+000
1.3628880e+000
1.3704754e+000
1.3725420e+000
1.3751800e+000
1.3881452e+000
1.4217594e+000
1.4817945e+000
1.5548600e+000
1.6213465e+000
1.6651751e+000
1.6771182e+000
1.6711057e+000
1.6680052e+000
1.6837343e+000
1.7259459e+000
1.7794108e+000
1.8221529e+000
1.8413649e+000
1.8320050e+000
1.8059536e+000
1.7783246e+000
1.7511081e+000
1.7221439e+000
1.6938286e+000
1.6717445e+000
1.6678457e+000
1.6914095e+000
1.7312599e+000
1.7689500e+000
1.7908775e+000
1.7899030e+000
1.7753303e+000
1.7602202e+000
1.7463528e+000
1.7311579e+000
1.7145040e+000
1.6996406e+000
1.6984719e+000
1.7211807e+000
1.7572194e+000
1.7878195e+000
1.7956101e+000
1.7702210e+000
1.7257086e+000
1.6851760e+000
1.6676657e+000
1.6854302e+000
1.7310897e+000
1.7880535e+000
1.8342520e+000
1.8500401e+000
1.8330057e+000
1.7907062e+000
1.7404900e+000
1.7005992e+000
1.6759920e+000
1.6646100e+000
1.6602317e+000
1.6562101e+000
1.6483903e+000
1.6331880e+000
1.6037269e+000
1.5548242e+000
1.4943800e+000
1.4382181e+000
1.4091048e+000
1.4270188e+000
1.4872880e+000
1.5725986e+000
1.6613206e+000
1.7343891e+000
1.7893537e+000
1.8305050e+000
1.8570857e+000
1.8628843e+000
1.8310030e+000
1.7461451e+000
1.6197560e+000
1.4781414e+000
1.3555297e+000
1.2835002e+000
1.2704322e+000
1.3101475e+000
1.3820485e+000
1.4607300e+000
1.5258597e+000
1.5626307e+000
1.5693469e+000
1.5506514e+000
1.5140042e+000
1.4678514e+000
1.4206040e+000
1.3802468e+000
1.3515414e+000
1.3371383e+000
1.3361593e+000
1.3448309e+000
1.3545634e+000
1.3550251e+000
1.3386800e+000
1.3026924e+000
1.2583699e+000
1.2222385e+000
1.2025086e+000
1.2006019e+000
1.2107720e+000
1.2253263e+000
1.2430109e+000
1.2649686e+000
1.2861528e+000
1.2988553e+000
1.3000371e+000
1.2908860e+000
1.2784472e+000
1.2694737e+000
1.2553532e+000
1.2222632e+000
1.1716429e+000
1.1157115e+000
1.0745840e+000
1.0674306e+000
1.0932415e+000
1.1386425e+000
1.1865143e+000
1.2181065e+000
1.2135903e+000
1.1573249e+000
1.0558063e+000
9.3130881e-001
8.1839317e-001
7.5203067e-001
7.4252522e-001
7.8356814e-001
8.6142701e-001
9.5919478e-001
1.0589595e+000
1.1408699e+000
1.1781106e+000
1.1477785e+000
1.0617348e+000
9.5343041e-001
8.5687810e-001
7.9754257e-001
7.7079684e-001
7.5625271e-001
7.4389696e-001
7.3211133e-001
7.1990681e-001
7.0518857e-001
6.8295121e-001
6.4895767e-001
6.1026609e-001
5.8079243e-001
5.7257283e-001
5.9325641e-001
6.3961637e-001
6.9894958e-001
7.4607879e-001
7.5317222e-001
7.1293986e-001
6.3548726e-001
5.4611981e-001
4.7459319e-001
4.3342572e-001
4.2004305e-001
4.1883332e-001
4.1070911e-001
3.9328748e-001
3.7602749e-001
3.6804137e-001
3.7464103e-001
3.9122859e-001
4.0713462e-001
4.1344714e-001
4.0331909e-001
3.7039641e-001
3.1261066e-001
2.4704571e-001
1.9962071e-001
1.7669308e-001
1.6941346e-001
1.6866885e-001
1.7047760e-001
1.8636371e-001
2.3242094e-001
2.9711735e-001
3.4735790e-001
3.4662384e-001
2.7229151e-001
1.6427620e-001
8.9470454e-002
3.3482533e-002
-6.7442164e-002
-2.0764558e-001
-3.3026701e-001
-4.1428158e-001
-4.7366288e-001
-5.2618521e-001
-5.8563608e-001
-6.5610713e-001
-7.3188037e-001
-7.9374146e-001
-8.1865782e-001
-8.0804396e-001
-7.8314018e-001
-7.6608026e-001
-7.6994151e-001
-7.7562642e-001
-7.3964691e-001
-6.1742806e-001
-3.6916700e-001
3.5245016e-002
6.0656887e-001
1.2980053e+000
2.0236993e+000
2.7190199e+000
3.3627393e+000
4.0279078e+000
4.8612280e+000
6.0227461e+000
7.6783361e+000
1.0023001e+001
1.3192487e+001
1.6939285e+001
2.0731409e+001
2.4174719e+001
2.7119762e+001
2.9811852e+001
3.2769558e+001
3.6410240e+001
4.0892910e+001
4.5768761e+001
5.0229900e+001
5.4040329e+001
5.7544437e+001
6.1196491e+001
6.5355110e+001
6.9923584e+001
7.4446953e+001
7.8602249e+001
8.2270622e+001
8.5463509e+001
8.8276062e+001
9.0821541e+001
9.3185661e+001
9.5309280e+001
9.6989006e+001
9.7932228e+001
9.7872108e+001
9.6942886e+001
9.5594017e+001
9.4043739e+001
9.2219955e+001
8.9945488e+001
8.7040535e+001
8.3537628e+001
7.9652893e+001
7.5520950e+001
7.1167343e+001
6.6617676e+001
6.1933525e+001
5.7259144e+001
5.2795597e+001
4.8671570e+001
4.4931843e+001
4.1598671e+001
3.8678780e+001
3.6136124e+001
3.3898941e+001
3.1912292e+001
3.0148886e+001
2.8601383e+001
2.7277269e+001
2.6179501e+001
2.5303596e+001
2.4637617e+001
2.4161654e+001
2.3857269e+001
2.3709023e+001
2.3709349e+001
2.3866089e+001
2.4219116e+001
2.4829741e+001
2.5726086e+001
2.6888214e+001
2.8239174e+001
2.9661442e+001
3.1078840e+001
3.2467598e+001
3.3816166e+001
3.5147934e+001
3.6650646e+001
3.8620789e+001
4.1056126e+001
4.3606060e+001
4.5881199e+001
4.7587841e+001
4.8743637e+001
4.9654716e+001
5.0498913e+001
5.1227928e+001
5.1688759e+001
5.1688969e+001
5.1162113e+001
5.0207752e+001
4.9005695e+001
4.7765759e+001
4.6596886e+001
4.5476601e+001
4.4331200e+001
4.3065990e+001
4.1613228e+001
3.9955727e+001
3.8152157e+001
3.6311977e+001
3.4419762e+001
3.2310356e+001
2.9839655e+001
2.6964849e+001
2.3862635e+001
2.0910210e+001
1.8324926e+001
1.6074440e+001
1.4050571e+001
1.2129148e+001
1.0242489e+001
8.3952484e+000
6.5980740e+000
4.8610096e+000
3.2496300e+000
1.8911901e+000
8.8065982e-001
2.5826684e-001
6.7051202e-002
3.4363762e-001
9.9478084e-001
1.7808230e+000
2.5267916e+000
3.1881094e+000
3.7810874e+000
4.3618546e+000
4.9794016e+000
5.6519489e+000
6.3385601e+000
6.9329886e+000
7.3361940e+000
7.4892077e+000
7.4038796e+000
7.1712928e+000
6.8779397e+000
6.5748649e+000
6.2717166e+000
5.9322243e+000
5.5075841e+000
4.9558496e+000
4.2921515e+000
3.6053748e+000
2.9881001e+000
2.5102043e+000
2.2064424e+000
2.0687830e+000
2.0740283e+000
2.1905534e+000
2.3849142e+000
2.6265180e+000
2.9009237e+000
3.2158947e+000
3.5810492e+000
3.9995759e+000
4.4622335e+000
4.9433193e+000
5.4103317e+000
5.8271866e+000
6.1622572e+000
6.3936672e+000
6.5125475e+000
6.5258045e+000
6.4426160e+000
6.2711101e+000
6.0236535e+000
5.7194710e+000
5.3793330e+000
5.0217552e+000
4.6537600e+000
4.2670655e+000
3.8573802e+000
3.4312263e+000
2.9948468e+000
2.5493214e+000
2.0892131e+000
1.6051056e+000
1.1114125e+000
6.5969402e-001
3.0303898e-001
7.9503544e-002
-1.7361509e-003
2.9402338e-002
1.4165425e-001
3.1617677e-001
5.4072243e-001
8.0710393e-001
1.0958200e+000
1.3674135e+000
1.5768714e+000
1.6821505e+000
1.6708955e+000
1.5778580e+000
1.4471874e+000
1.3193364e+000
1.2266603e+000
1.1888213e+000
1.2154634e+000
1.3028389e+000
1.4345800e+000
1.5782071e+000
1.7010691e+000
1.7781682e+000
1.7983620e+000
1.7721229e+000
1.7184812e+000
1.6619440e+000
1.6237191e+000
1.6162993e+000
1.6475714e+000
1.7208216e+000
1.8394600e+000
2.0077336e+000
2.2242520e+000
2.4766815e+000
2.7470057e+000
3.0117183e+000
3.2533915e+000
3.4676526e+000
3.6576142e+000
3.8343880e+000
4.0111976e+000
4.2013521e+000
4.4171839e+000
4.6690040e+000
4.9651737e+000
5.3108239e+000
5.7085900e+000
6.1572657e+000
6.6547084e+000
7.1988072e+000
7.7887573e+000
8.4258242e+000
9.1088209e+000
9.8301754e+000
1.0575677e+001
1.1319673e+001
1.2028926e+001
1.2659380e+001
1.3168171e+001
1.3520632e+001
1.3694880e+001
1.3689122e+001
1.3508198e+001
1.3166750e+001
1.2681005e+001
1.2066301e+001
1.1346254e+001
1.0558481e+001
9.7494202e+000
8.9745798e+000
8.2810402e+000
7.6919518e+000
7.2080655e+000
6.7954712e+000
6.4086318e+000
5.9964476e+000
5.5214276e+000
4.9784541e+000
4.3818927e+000
3.7695730e+000
3.1768527e+000
2.6215470e+000
2.1126873e+000
1.6503607e+000
1.2386220e+000
8.9456272e-001
6.3596815e-001
4.7352251e-001
4.0420800e-001
3.9859581e-001
4.2090449e-001
4.3687284e-001
4.2634833e-001
3.9993513e-001
3.7731940e-001
3.8073638e-001
4.2082036e-001
4.8041826e-001
5.3349584e-001
5.4993296e-001
5.0859547e-001
4.1201410e-001
2.7523300e-001
1.2937321e-001
1.0147259e-002
-4.6944786e-002
-2.3639124e-002
5.8863968e-002
1.7709401e-001
3.2378569e-001
4.9012405e-001
6.5550232e-001
8.0536062e-001
9.4687992e-001
1.0964348e+000
1.2790828e+000
1.5123440e+000
1.7906972e+000
2.0988042e+000
2.4126439e+000
2.7132189e+000
2.9983995e+000
3.2673421e+000
3.5124600e+000
3.7290835e+000
3.9244745e+000
4.1146960e+000
4.3305731e+000
4.6013570e+000
4.9436412e+000
5.3639398e+000
5.8510842e+000
6.3813262e+000
6.9098949e+000
7.3873386e+000
7.7665267e+000
8.0153952e+000
8.1405382e+000
8.1647854e+000
8.1301107e+000
8.0775032e+000
8.0328789e+000
8.0121031e+000
8.0120363e+000
8.0223598e+000
8.0251007e+000
8.0037832e+000
7.9510379e+000
7.8641372e+000
7.7469082e+000
7.6017890e+000
7.4236908e+000
7.2082391e+000
6.9583216e+000
6.6845131e+000
6.4135938e+000
6.1716628e+000
5.9711628e+000
5.8156600e+000
5.6919374e+000
5.5811176e+000
5.4598994e+000
5.3027039e+000
5.0808983e+000
4.7748222e+000
4.3932390e+000
3.9605057e+000
3.5268960e+000
3.1372714e+000
2.8007283e+000
2.5079360e+000
2.2203012e+000
1.9023120e+000
1.5496393e+000
1.1734091e+000
8.0960727e-001
4.9658036e-001
2.6051691e-001
1.1496565e-001
4.2636372e-002
1.2872320e-002
-2.2707872e-002
-1.0518974e-001
-2.3761651e-001
-4.0477204e-001
-5.6282878e-001
-6.6707546e-001
-6.9332248e-001
-6.3016599e-001
-4.9187118e-001
-3.0234361e-001
-9.6409447e-002
9.0276033e-002
2.2871351e-001
2.9873285e-001
3.0480370e-001
2.6093686e-001
1.9293547e-001
1.2542400e-001
6.8887025e-002
2.8948272e-002
6.3523385e-003
-1.3685708e-003
-3.5677322e-003
-4.9524484e-003
1.2170594e-002
6.2941842e-002
1.3323399e-001
1.9884914e-001
2.2571932e-001
1.8835419e-001
1.0185860e-001
-1.7511174e-003
-6.5569177e-002
-3.8986467e-002
8.1627712e-002
2.7674812e-001
4.8378539e-001
6.3935369e-001
7.1825010e-001
7.1622616e-001
6.7312402e-001
6.3484854e-001
6.2798941e-001
6.6289222e-001
7.0510703e-001
7.2069478e-001
7.2236735e-001
7.3448002e-001
