##TITLE=Methyl Ethyl Ketone
##JCAMP-DX=4.24
##DATA TYPE=INFRARED SPECTRUM
##XUNITS=cm-1
##YUNITS=Absorbance
##FIRSTX=900
##LASTX=2300
##XYDATA=(X++(Y..Y))
2296 0.026848
2294 0.027418185
2292 0.027988369
2290 0.028558552
2288 0.029129731
2286 0.029699922
2284 0.030270105
2282 0.030840289
2280 0.031411462
2278 0.031981658
2276 0.03255184
2274 0.033122025
2272 0.033692211
2270 0.034263376
2268 0.034833577
2266 0.035404745
2264 0.035973974
2262 0.036543157
2260 0.037115265
2258 0.037693284
2256 0.038255915
2254 0.038798708
2252 0.039396141
2250 0.040070724
2248 0.040541094
2246 0.03895532
2244 0.027465923
2242 0.00056628376
2240 -0.031092128
2238 -0.055556759
2236 -0.074065141
2234 -0.091342717
2232 -0.11086158
2230 -0.13563861
2228 -0.16850257
2226 -0.21108399
2224 -0.26048833
2222 -0.31179944
2220 -0.35744599
2218 -0.38957947
2216 -0.40255001
2214 -0.39276132
2212 -0.3621428
2210 -0.31585434
2208 -0.26546496
2206 -0.22342914
2204 -0.19805685
2202 -0.19296178
2200 -0.19807503
2198 -0.20080429
2196 -0.19534357
2194 -0.18184656
2192 -0.17559898
2190 -0.19235322
2188 -0.23054509
2186 -0.28134999
2184 -0.32921201
2182 -0.36239591
2180 -0.39301872
2178 -0.43856108
2176 -0.50675774
2174 -0.59544837
2172 -0.6756801
2170 -0.71513331
2168 -0.70351213
2166 -0.64548683
2164 -0.57629091
2162 -0.53583354
2160 -0.54199183
2158 -0.59756738
2156 -0.675035
2154 -0.74017406
2152 -0.77272791
2150 -0.76430857
2148 -0.73441648
2146 -0.7098614
2144 -0.70831841
2142 -0.73855758
2140 -0.78682411
2138 -0.83450496
2136 -0.87513798
2134 -0.90964961
2132 -0.95073831
2130 -1.0110501
2128 -1.086084
2126 -1.1636529
2124 -1.2262549
2122 -1.2587454
2120 -1.264136
2118 -1.2530528
2116 -1.2405943
2114 -1.240566
2112 -1.2552183
2110 -1.2798591
2108 -1.2987963
2106 -1.2954957
2104 -1.2660394
2102 -1.2154136
2100 -1.1648279
2098 -1.1375377
2096 -1.1413143
2094 -1.1745038
2092 -1.2214183
2090 -1.263723
2088 -1.2922777
2086 -1.3043599
2084 -1.3086852
2082 -1.3167396
2080 -1.3344222
2078 -1.3637418
2076 -1.3991957
2074 -1.4335085
2072 -1.463176
2070 -1.487758
2068 -1.5108544
2066 -1.5379164
2064 -1.5745366
2062 -1.6247915
2060 -1.6861463
2058 -1.751995
2056 -1.8118542
2054 -1.8551512
2052 -1.8780363
2050 -1.8817297
2048 -1.8766983
2046 -1.8751893
2044 -1.8819879
2042 -1.8952055
2040 -1.9003332
2038 -1.8813229
2036 -1.8372443
2034 -1.7765024
2032 -1.7178618
2030 -1.68108
2028 -1.6724935
2026 -1.6911907
2024 -1.7321377
2022 -1.7897202
2020 -1.8629383
2018 -1.950369
2016 -2.0404601
2014 -2.1174345
2012 -2.1660988
2010 -2.1766098
2008 -2.158355
2006 -2.1277323
2004 -2.093775
2002 -2.059582
2000 -2.0195954
1998 -1.9664838
1996 -1.90115
1994 -1.8309941
1992 -1.7737389
1990 -1.7485031
1988 -1.7597541
1986 -1.8016828
1984 -1.855143
1982 -1.8974978
1980 -1.9163431
1978 -1.9059296
1976 -1.8660514
1974 -1.800653
1972 -1.7219689
1970 -1.6476588
1968 -1.602928
1966 -1.6102972
1964 -1.6676846
1962 -1.7567165
1960 -1.844556
1958 -1.8968841
1956 -1.9013214
1954 -1.8611852
1952 -1.7966789
1950 -1.7350556
1948 -1.6992097
1946 -1.703375
1944 -1.7352463
1942 -1.7698786
1940 -1.78623
1938 -1.7720791
1936 -1.7391114
1934 -1.7087917
1932 -1.691658
1930 -1.6878307
1928 -1.6819503
1926 -1.6520164
1924 -1.5787045
1922 -1.4532
1920 -1.3014046
1918 -1.1653759
1916 -1.0763943
1914 -1.0508192
1912 -1.073184
1910 -1.1152825
1908 -1.1661837
1906 -1.2241136
1904 -1.279248
1902 -1.3142482
1900 -1.3020201
1898 -1.2173754
1896 -1.0663286
1894 -0.87787384
1892 -0.70277351
1890 -0.59677368
1888 -0.59042627
1886 -0.68862706
1884 -0.85110617
1882 -1.0164989
1880 -1.1390245
1878 -1.1912519
1876 -1.1763401
1874 -1.1129689
1872 -1.0128751
1870 -0.88467634
1868 -0.74772626
1866 -0.62866974
1864 -0.55593753
1862 -0.55045378
1860 -0.59825617
1858 -0.66415387
1856 -0.71228683
1854 -0.71203965
1852 -0.64844978
1850 -0.52299362
1848 -0.3684504
1846 -0.23521107
1844 -0.17053181
1842 -0.20565461
1840 -0.31751361
1838 -0.45050082
1836 -0.55353057
1834 -0.58694524
1832 -0.53344476
1830 -0.39544451
1828 -0.203356
1826 -0.0058400333
1824 0.14023833
1822 0.18578236
1820 0.1321772
1818 0.015438804
1816 -0.1214288
1814 -0.23996207
1812 -0.3256695
1810 -0.37811244
1808 -0.38879716
1806 -0.34697002
1804 -0.2640084
1802 -0.16717646
1800 -0.085044488
1798 -0.037932318
1796 -0.013179929
1794 0.020250289
1792 0.076177478
1790 0.15310398
1788 0.2454394
1786 0.34417701
1784 0.42938
1782 0.47856987
1780 0.49158454
1778 0.4860687
1776 0.48591286
1774 0.5076111
1772 0.52337837
1770 0.48275548
1768 0.37581006
1766 0.23135693
1764 0.10522175
1762 0.04766126
1760 0.014501862
1758 -0.084525257
1756 -0.22987744
1754 -0.32278737
1752 -0.30959287
1750 -0.19514611
1748 -0.046816431
1746 0.037216
1744 0.0002214089
1742 -0.16070053
1740 -0.36656764
1738 -0.49700448
1736 -0.49911001
1734 -0.39257789
1732 -0.26258513
1730 -0.21714877
1728 -0.27917862
1726 -0.39110765
1724 -0.44955435
1722 -0.33527181
1720 0.029418513
1718 0.66141266
1716 1.4601762
1714 2.249419
1712 2.900383
1710 3.3682246
1708 3.7676501
1706 4.3318815
1704 5.2968044
1702 6.8638496
1700 9.1469936
1698 12.12767
1696 15.485143
1694 18.71673
1692 21.559105
1690 24.040787
1688 26.479074
1686 29.346371
1684 32.908642
1682 37.135868
1680 41.53828
1678 45.402
1676 48.607285
1674 51.588028
1672 54.796692
1670 58.531483
1668 62.722198
1666 67.024651
1664 71.199501
1662 75.159332
1660 78.867844
1658 82.324898
1656 85.609222
1654 88.842148
1652 92.046364
1650 95.089554
1648 97.562477
1646 98.927643
1644 99.1073
1642 98.451523
1640 97.230774
1638 95.533524
1636 93.302589
1634 90.418602
1632 86.96505
1630 83.20607
1628 79.307579
1626 75.299347
1624 71.151321
1622 66.82225
1620 62.364925
1618 57.922794
1616 53.638741
1614 49.633526
1612 46.006844
1610 42.825439
1608 40.07048
1606 37.648163
1604 35.48024
1602 33.525028
1600 31.777309
1598 30.257998
1596 28.9765
1594 27.925343
1592 27.085617
1590 26.431435
1588 25.943331
1586 25.608856
1584 25.418028
1582 25.36729
1580 25.479134
1578 25.798368
1576 26.351343
1574 27.126139
1572 28.041645
1570 28.96636
1568 29.82844
1566 30.638029
1564 31.454662
1562 32.39983
1560 33.72187
1558 35.715424
1556 38.305698
1554 41.016689
1552 43.398624
1550 45.183876
1548 46.43412
1546 47.502892
1544 48.610119
1542 49.734726
1540 50.699081
1538 51.232262
1536 51.189342
1534 50.612656
1532 49.68763
1530 48.687088
1528 47.735012
1526 46.763351
1524 45.671097
1522 44.380161
1520 42.870163
1518 41.190281
1516 39.438671
1514 37.723492
1512 36.005802
1510 34.08186
1508 31.768921
1506 28.995735
1504 25.93528
1502 22.985449
1500 20.38271
1498 18.098949
1496 16.008572
1494 13.95298
1492 11.857189
1490 9.7549038
1488 7.6930962
1486 5.7124624
1484 3.8868639
1482 2.3283384
1480 1.1283331
1478 0.34746423
1476 0.068606183
1474 0.37519386
1472 1.1635398
1470 2.1155629
1468 3.0022371
1466 3.7786627
1464 4.4915962
1462 5.236907
1460 6.02074
1458 6.7165194
1456 7.1608596
1454 7.2114162
1452 6.9010739
1450 6.466989
1448 6.0724812
1446 5.7243571
1444 5.3996043
1442 5.0820632
1440 4.7651892
1438 4.4484468
1436 4.1064758
1434 3.6865683
1432 3.1730742
1430 2.612397
1428 2.0795479
1426 1.6632829
1424 1.4164017
1422 1.3342837
1420 1.3806012
1418 1.4961205
1416 1.6387628
1414 1.800102
1412 1.9946134
1410 2.2544625
1408 2.5913692
1406 2.9826601
1404 3.3995161
1402 3.8157122
1400 4.2088399
1398 4.5617013
1396 4.859386
1394 5.0899448
1392 5.2495389
1390 5.3437896
1388 5.3712792
1386 5.3189349
1384 5.1805391
1382 4.9649692
1380 4.6899409
1378 4.3805089
1376 4.0569744
1374 3.7309844
1372 3.417798
1370 3.1374784
1368 2.8911016
1366 2.6479506
1364 2.365418
1362 2.0006399
1360 1.5522143
1358 1.0822192
1356 0.66018641
1354 0.33932963
1352 0.13670149
1350 0.020360032
1348 -0.038824324
1346 -0.047334071
1344 -0.0025688782
1342 0.10069513
1340 0.24573879
1338 0.38216886
1336 0.46830601
1334 0.49241993
1332 0.46999645
1330 0.44762108
1328 0.46385235
1326 0.53224587
1324 0.65957797
1322 0.84912384
1320 1.0936589
1318 1.3687932
1316 1.64091
1314 1.8697712
1312 2.030704
1310 2.1288793
1308 2.1812055
1306 2.2118485
1304 2.238173
1302 2.2631469
1300 2.2879317
1298 2.3158896
1296 2.3527715
1294 2.4061735
1292 2.4787338
1290 2.5636442
1288 2.6535239
1286 2.7441664
1284 2.8377855
1282 2.9456539
1280 3.076659
1278 3.2305584
1276 3.4005287
1274 3.5720658
1272 3.7361789
1270 3.8976586
1268 4.0702419
1266 4.2774935
1264 4.5414214
1262 4.875906
1260 5.2852564
1258 5.7591867
1256 6.2821259
1254 6.8354669
1252 7.4055414
1250 7.9893475
1248 8.5851879
1246 9.1895256
1244 9.7948189
1242 10.38686
1240 10.94972
1238 11.467035
1236 11.926543
1234 12.324983
1232 12.66112
1230 12.93177
1228 13.123086
1226 13.199457
1224 13.131423
1222 12.91076
1220 12.54932
1218 12.085629
1216 11.556171
1214 10.98126
1212 10.37547
1210 9.7524137
1208 9.1263609
1206 8.5097466
1204 7.9071217
1202 7.3057842
1200 6.6925211
1198 6.0624309
1196 5.4217
1194 4.7943087
1192 4.2048836
1190 3.669656
1188 3.1955266
1186 2.7747087
1184 2.3992131
1182 2.0691528
1180 1.7928294
1178 1.5903114
1176 1.4747601
1174 1.4364042
1172 1.4511157
1170 1.4759743
1168 1.4747772
1166 1.4363194
1164 1.3623077
1162 1.269703
1160 1.1729748
1158 1.0727444
1156 0.96606857
1154 0.84932101
1152 0.72169936
1150 0.58927691
1148 0.45774201
1146 0.32845643
1144 0.20405897
1142 0.093670547
1140 0.017192196
1138 0.014182061
1136 0.11182299
1134 0.2968832
1132 0.54566181
1130 0.83363831
1128 1.1466914
1126 1.4955236
1124 1.8917383
1122 2.333514
1120 2.8089559
1118 3.2892723
1116 3.7486987
1114 4.1789618
1112 4.577179
1110 4.9440689
1108 5.2827573
1106 5.6005597
1104 5.9101982
1102 6.2338853
1100 6.5864038
1098 6.958097
1096 7.3346715
1094 7.7066345
1092 8.07376
1090 8.4564037
1088 8.8661156
1086 9.2795038
1084 9.6652975
1082 9.9956522
1080 10.258835
1078 10.4846
1076 10.705057
1074 10.932006
1072 11.165908
1070 11.382371
1068 11.555971
1066 11.679229
1064 11.74936
1062 11.77234
1060 11.753557
1058 11.693775
1056 11.590743
1054 11.432509
1052 11.20724
1050 10.904531
1048 10.52112
1046 10.077171
1044 9.6050978
1042 9.1538057
1040 8.7708731
1038 8.4814196
1036 8.2814302
1034 8.0993242
1032 7.8541055
1030 7.48873
1028 6.9865379
1026 6.431303
1024 5.9200997
1022 5.5126338
1020 5.2323585
1018 5.0214005
1016 4.8103886
1014 4.5553236
1012 4.2364502
1010 3.8870921
1008 3.5489359
1006 3.2472894
1004 2.9904544
1002 2.7479415
1000 2.4905212
998 2.2235804
996 1.9616071
994 1.720513
992 1.5072949
990 1.3008548
988 1.0787135
986 0.83618397
984 0.57725835
982 0.31899112
980 0.08440657
978 -0.094759561
976 -0.18658143
974 -0.16621611
972 -0.023507833
970 0.20843121
968 0.48374587
966 0.750099
964 0.96216249
962 1.1040378
960 1.1718611
958 1.1775753
956 1.1345487
954 1.0476354
952 0.91607159
950 0.72825432
948 0.48809296
946 0.26337788
944 0.1114048
942 -0.0040479973
940 -0.12696922
938 -0.24620199
936 -0.34882313
934 -0.46486822
932 -0.6143772
930 -0.74201316
928 -0.78919506
926 -0.75495517
924 -0.6635204
922 -0.57943946
920 -0.56412661
918 -0.62913084
916 -0.7649523
914 -0.92916209
912 -1.0764148
910 -1.1819969
908 -1.2311854
906 -1.2291957
904 -1.1864886
902 -1.1144855
900 -1.0177861
898 -0.87302083
896 -0.64991999
