Image.
>Pix99999.
  .
5555
5555
2300
900
5555
2
1
0
701
5555
-8.1508001e-003
-8.3203577e-003
-8.4900148e-003
-8.6595723e-003
-8.8291299e-003
-8.9986874e-003
-9.1682440e-003
-9.3378024e-003
-9.5073590e-003
-9.6769165e-003
-9.8464740e-003
-1.0016327e-002
-1.0186085e-002
-1.0354862e-002
-1.0524600e-002
-1.0694358e-002
-1.0864114e-002
-1.1033871e-002
-1.1202655e-002
-1.1372386e-002
-1.1542143e-002
-1.1711900e-002
-1.1881657e-002
-1.2050447e-002
-1.2220172e-002
-1.2389929e-002
-4.6042286e-004
1.2378393e-002
-1.0478800e-003
-1.4409591e-002
-2.7580015e-002
-2.2975542e-002
-1.6307931e-002
7.9292916e-003
3.4152709e-002
6.9638595e-002
1.0310326e-001
1.2529723e-001
1.3639838e-001
1.1559137e-001
8.0296628e-002
1.7284032e-002
-4.6466842e-002
-1.0876325e-001
-1.5903479e-001
-1.9441342e-001
-2.2210798e-001
-2.4331276e-001
-2.6163405e-001
-2.7811339e-001
-3.0239999e-001
-3.3124331e-001
-3.7092623e-001
-4.1522786e-001
-4.3944812e-001
-4.5705700e-001
-4.4487679e-001
-4.2594400e-001
-4.2376468e-001
-4.2450666e-001
-4.5538229e-001
-4.8784658e-001
-5.0674760e-001
-5.2273351e-001
-5.2928436e-001
-5.3742903e-001
-5.5463964e-001
-5.6897384e-001
-5.7362348e-001
-5.7347518e-001
-5.6611198e-001
-5.6831020e-001
-5.8542657e-001
-6.1217916e-001
-6.4801550e-001
-6.7539215e-001
-6.9442505e-001
-7.0245200e-001
-7.0341325e-001
-7.0713937e-001
-7.1277374e-001
-7.2912723e-001
-7.4997604e-001
-7.7427655e-001
-7.9954439e-001
-8.0765933e-001
-8.1172824e-001
-8.0712086e-001
-8.0223840e-001
-8.1757838e-001
-8.3662271e-001
-8.6197102e-001
-8.8305676e-001
-8.8143766e-001
-8.7018365e-001
-8.3982843e-001
-8.1462008e-001
-8.0689365e-001
-8.1865859e-001
-8.5875046e-001
-9.0153432e-001
-9.4230211e-001
-9.7655499e-001
-1.0043418e+000
-1.0413353e+000
-1.0867100e+000
-1.1328191e+000
-1.1786839e+000
-1.2104795e+000
-1.2349252e+000
-1.2681843e+000
-1.3054219e+000
-1.3631440e+000
-1.4272556e+000
-1.4819012e+000
-1.5332886e+000
-1.5510440e+000
-1.5590631e+000
-1.5359391e+000
-1.5076770e+000
-1.4851686e+000
-1.4730631e+000
-1.4932640e+000
-1.5254312e+000
-1.5710440e+000
-1.6216571e+000
-1.6763921e+000
-1.7313396e+000
-1.7860794e+000
-1.8301969e+000
-1.8624915e+000
-1.8721644e+000
-1.8619024e+000
-1.8269000e+000
-1.7747477e+000
-1.7284436e+000
-1.6873491e+000
-1.6713767e+000
-1.6678746e+000
-1.6740717e+000
-1.6839399e+000
-1.6946245e+000
-1.7058874e+000
-1.7094731e+000
-1.7111503e+000
-1.7123722e+000
-1.7165571e+000
-1.7408260e+000
-1.7734172e+000
-1.8182042e+000
-1.8598286e+000
-1.8814192e+000
-1.8787371e+000
-1.8344903e+000
-1.7691699e+000
-1.6870650e+000
-1.6230812e+000
-1.5897211e+000
-1.5973500e+000
-1.6422614e+000
-1.6997371e+000
-1.7607089e+000
-1.8044132e+000
-1.8339361e+000
-1.8611039e+000
-1.8885943e+000
-1.9256905e+000
-1.9684744e+000
-2.0001800e+000
-2.0269263e+000
-2.0498056e+000
-2.0723302e+000
-2.1131251e+000
-2.1596076e+000
-2.1962729e+000
-2.2226748e+000
-2.2122314e+000
-2.1874237e+000
-2.1601691e+000
-2.1429777e+000
-2.1559172e+000
-2.1825082e+000
-2.2156260e+000
-2.2456017e+000
-2.2646468e+000
-2.2679906e+000
-2.2530878e+000
-2.2160673e+000
-2.1619308e+000
-2.1133771e+000
-2.0763557e+000
-2.0542297e+000
-2.0412719e+000
-2.0206723e+000
-1.9931817e+000
-1.9797893e+000
-1.9751080e+000
-1.9892619e+000
-2.0124116e+000
-2.0055299e+000
-1.9845285e+000
-1.9286138e+000
-1.8600806e+000
-1.8026990e+000
-1.7593822e+000
-1.7626085e+000
-1.7930472e+000
-1.8546128e+000
-1.9275086e+000
-1.9985806e+000
-2.0598500e+000
-2.0995939e+000
-2.1108336e+000
-2.0872891e+000
-2.0392780e+000
-1.9796350e+000
-1.9304919e+000
-1.9008850e+000
-1.8883669e+000
-1.8846945e+000
-1.9007629e+000
-1.9282444e+000
-1.9692211e+000
-2.0157547e+000
-2.0496399e+000
-2.0732572e+000
-2.0800645e+000
-2.0762837e+000
-2.0584519e+000
-2.0332730e+000
-1.9866629e+000
-1.9265270e+000
-1.8329583e+000
-1.7197784e+000
-1.5939916e+000
-1.4754343e+000
-1.4016405e+000
-1.3686824e+000
-1.3823860e+000
-1.4190501e+000
-1.4582914e+000
-1.4880617e+000
-1.5002640e+000
-1.4888817e+000
-1.4572412e+000
-1.4033450e+000
-1.3331463e+000
-1.2720543e+000
-1.2209080e+000
-1.1799124e+000
-1.1445643e+000
-1.0612222e+000
-9.4615042e-001
-8.1686425e-001
-6.8496424e-001
-6.1514497e-001
-5.8407557e-001
-5.6897688e-001
-5.5911851e-001
-5.1578289e-001
-4.4522229e-001
-3.3358458e-001
-1.9883537e-001
-7.0552289e-002
3.2965470e-002
7.6528423e-002
8.3572939e-002
8.0113329e-002
2.9636588e-002
-8.6600214e-002
-1.9228686e-001
-2.4648482e-001
-2.4063148e-001
-1.8009590e-001
-1.3484557e-001
-1.2632965e-001
-1.9964868e-001
-3.4746230e-001
-4.8181707e-001
-5.8968091e-001
-5.7391399e-001
-4.6236104e-001
-3.1236035e-001
-1.4830001e-001
-9.8498084e-002
-1.2825599e-001
-1.4822228e-001
-1.3702670e-001
3.0020289e-002
3.5552257e-001
8.8232696e-001
1.5148157e+000
2.1078291e+000
2.6713977e+000
3.2281420e+000
3.9408934e+000
4.9672308e+000
6.5553298e+000
8.8233652e+000
1.1919874e+001
1.5782287e+001
1.9693211e+001
2.3327135e+001
2.6603964e+001
2.9585188e+001
3.3154850e+001
3.7392685e+001
4.2507637e+001
4.8311642e+001
5.3454880e+001
5.7963772e+001
6.2352242e+001
6.6740356e+001
7.1886002e+001
7.7579315e+001
8.3116051e+001
8.8384048e+001
9.2980835e+001
9.6937355e+001
1.0027881e+002
1.0303600e+002
1.0526496e+002
1.0677100e+002
1.0735925e+002
1.0648611e+002
1.0375607e+002
1.0000644e+002
9.6009483e+001
9.1980225e+001
8.8065186e+001
8.3735458e+001
7.8808464e+001
7.3761696e+001
6.8771912e+001
6.4102570e+001
5.9775330e+001
5.5444160e+001
5.1056358e+001
4.6844021e+001
4.2818985e+001
3.9106312e+001
3.5720032e+001
3.2753078e+001
3.0213791e+001
2.8070280e+001
2.6306351e+001
2.4801468e+001
2.3566542e+001
2.2577641e+001
2.1835054e+001
2.1300499e+001
2.0972355e+001
2.0816679e+001
2.0823666e+001
2.0960375e+001
2.1200956e+001
2.1516035e+001
2.1888491e+001
2.2306507e+001
2.2809620e+001
2.3410000e+001
2.4132566e+001
2.4974188e+001
2.5935646e+001
2.7012239e+001
2.8182913e+001
2.9450834e+001
3.0902452e+001
3.2622139e+001
3.5172039e+001
3.8620258e+001
4.2438732e+001
4.6404831e+001
4.9524143e+001
5.1825245e+001
5.3815609e+001
5.5528732e+001
5.7128448e+001
5.8415298e+001
5.9091904e+001
5.9076740e+001
5.8383385e+001
5.7245407e+001
5.5980228e+001
5.4579052e+001
5.3040749e+001
5.1225204e+001
4.9036125e+001
4.6532936e+001
4.3710018e+001
4.1032917e+001
3.8670357e+001
3.6462280e+001
3.4414505e+001
3.1876640e+001
2.8687893e+001
2.5465755e+001
2.2266918e+001
1.9595020e+001
1.7510601e+001
1.5469143e+001
1.3461327e+001
1.1403297e+001
9.3132915e+000
7.2541447e+000
5.2949762e+000
3.5496061e+000
2.0980277e+000
1.0171206e+000
3.2958302e-001
6.1152589e-002
3.2377908e-001
1.0810415e+000
2.0529499e+000
3.0720565e+000
3.9498878e+000
4.5620351e+000
5.0437951e+000
5.4308743e+000
5.8246822e+000
6.2533798e+000
6.6502051e+000
6.9768076e+000
7.1498704e+000
7.0911808e+000
6.9465785e+000
6.6900721e+000
6.4346070e+000
6.1786461e+000
5.8986120e+000
5.5670400e+000
5.1121264e+000
4.5324259e+000
3.9130530e+000
3.2974360e+000
2.8021314e+000
2.4457142e+000
2.2336762e+000
2.1596222e+000
2.1962655e+000
2.3170800e+000
2.4967051e+000
2.7041657e+000
2.9345496e+000
3.1816604e+000
3.4524372e+000
3.7513058e+000
4.0866761e+000
4.4554238e+000
4.8723211e+000
5.2897644e+000
5.6931639e+000
6.0186205e+000
6.1955223e+000
6.2613902e+000
6.1501899e+000
5.9458876e+000
5.6113219e+000
5.2149568e+000
4.7440524e+000
4.2390542e+000
3.7205148e+000
3.2471080e+000
2.8369009e+000
2.5078776e+000
2.2111986e+000
1.8603709e+000
1.4558163e+000
9.8737073e-001
5.4384589e-001
2.3392242e-001
3.6415689e-002
-2.8916069e-003
2.6354700e-002
1.1179291e-001
2.1890393e-001
3.5406560e-001
5.0769216e-001
6.9680500e-001
8.8850003e-001
1.0786400e+000
1.2574961e+000
1.4052322e+000
1.5610490e+000
1.7333378e+000
1.9371078e+000
2.1948073e+000
2.4851141e+000
2.8207252e+000
3.1719956e+000
3.5333998e+000
3.8712888e+000
4.1705923e+000
4.4149256e+000
4.6023898e+000
4.7395558e+000
4.8401065e+000
4.9147372e+000
4.9692955e+000
4.9944100e+000
4.9920282e+000
4.9365525e+000
4.8635955e+000
4.7746181e+000
4.6966720e+000
4.6528063e+000
4.6202517e+000
4.6093497e+000
4.5986104e+000
4.5877805e+000
4.5797830e+000
4.5811977e+000
4.5978532e+000
4.6452231e+000
4.7208071e+000
4.8376536e+000
4.9775877e+000
5.1390123e+000
5.2894301e+000
5.4227223e+000
5.5287089e+000
5.6149378e+000
5.7053232e+000
5.8024144e+000
5.9150734e+000
6.0285497e+000
6.1163874e+000
6.1747847e+000
6.1653709e+000
6.1190853e+000
6.0132613e+000
5.8830743e+000
5.7099280e+000
5.5105767e+000
5.2402434e+000
4.9439173e+000
4.5776691e+000
4.1938891e+000
3.7676535e+000
3.3285420e+000
2.8659770e+000
2.4123027e+000
1.9798572e+000
1.5843710e+000
1.2460828e+000
9.5342052e-001
7.1759140e-001
5.1965439e-001
3.5965326e-001
2.1944705e-001
9.5949918e-002
-1.7236076e-002
-1.1693657e-001
-1.8451290e-001
-2.2400434e-001
-2.0583950e-001
-1.5619040e-001
-5.4745287e-002
7.2888121e-002
2.6019749e-001
4.7492200e-001
7.6814574e-001
1.0679609e+000
1.3730685e+000
1.6454475e+000
1.8136922e+000
1.9316024e+000
1.9234010e+000
1.8719617e+000
1.7339795e+000
1.5739415e+000
1.3805332e+000
1.1935052e+000
1.0176221e+000
8.5721505e-001
7.1107537e-001
5.5595922e-001
3.9169919e-001
2.1922041e-001
5.4167666e-002
-4.2900085e-002
-7.8375302e-002
3.5828203e-002
2.2444077e-001
5.0356030e-001
7.9259843e-001
1.0045099e+000
1.1726080e+000
1.1810241e+000
1.1645304e+000
1.0935143e+000
1.0387070e+000
1.0567434e+000
1.0993664e+000
1.2197860e+000
1.3507149e+000
1.5038434e+000
1.6334630e+000
1.7114704e+000
1.7378405e+000
1.6833572e+000
1.6075450e+000
1.5102360e+000
1.4422849e+000
1.4082880e+000
1.4152707e+000
1.4564183e+000
1.5195237e+000
1.5890172e+000
1.6118470e+000
1.6018386e+000
1.5072123e+000
1.3846868e+000
1.2614135e+000
1.1447686e+000
1.0787749e+000
1.0228844e+000
9.9307138e-001
9.6963006e-001
9.7885537e-001
9.8839229e-001
9.9789584e-001
9.8989999e-001
9.2551053e-001
8.4427202e-001
7.2280324e-001
6.0041118e-001
4.7687846e-001
3.6213613e-001
2.6177680e-001
1.8169600e-001
1.2624060e-001
8.7993532e-002
6.3805185e-002
2.5888378e-002
-2.2154626e-002
-7.9107553e-002
-1.3775641e-001
-1.6449669e-001
-1.8104684e-001
-2.1831544e-001
-2.6763174e-001
-3.8852161e-001
-5.1785761e-001
-6.0618919e-001
-6.8442243e-001
-6.8499404e-001
-6.8727165e-001
-7.0532894e-001
-7.1776551e-001
-7.0461571e-001
-6.7412961e-001
-5.9147072e-001
-5.2409315e-001
-4.9287742e-001
-4.8270178e-001
-5.0754118e-001
-5.1648581e-001
-5.0429577e-001
-4.9599516e-001
-4.9289030e-001
-5.0826758e-001
-5.3691989e-001
-5.4008931e-001
-5.2682847e-001
-4.9887648e-001
-4.6480489e-001
-4.4165120e-001
-4.2092413e-001
-3.7357461e-001
-3.1990257e-001
-2.4857458e-001
-1.7651960e-001
-1.3683665e-001
-9.6636645e-002
-3.1233212e-002
1.0693707e-003
3.3444002e-002
1.0292091e-001
2.0282641e-001
3.1785142e-001
4.7745711e-001
6.4403075e-001
8.2471693e-001
9.7646940e-001
1.0817921e+000
1.1695380e+000
1.2361679e+000
1.2934332e+000
1.3407898e+000
1.3139671e+000
1.2328570e+000
1.0033844e+000
6.9556952e-001
3.2384634e-001
-7.0235014e-002
-2.8637645e-001
-4.5445022e-001
-4.3344226e-001
-3.8184285e-001
-3.5589001e-001
