Image.
>Pix99999.
  .
5555
5555
2300
900
5555
2
1
0
701
5555
-7.5240999e-002
-7.6805763e-002
-7.8371525e-002
-7.9936288e-002
-8.1502035e-002
-8.3067805e-002
-8.4632568e-002
-8.6198315e-002
-8.7763086e-002
-8.9328840e-002
-9.0893611e-002
-9.2459358e-002
-9.4024144e-002
-9.5589884e-002
-9.7154662e-002
-9.8720402e-002
-1.0028420e-001
-1.0185187e-001
-1.0341962e-001
-1.0497766e-001
-1.0654514e-001
-1.0811289e-001
-1.0968065e-001
-1.1123874e-001
-1.1280617e-001
-1.1437393e-001
-4.2502573e-003
1.0464189e-001
2.1482399e-001
2.1642180e-001
2.0196201e-001
1.2428943e-001
4.4872418e-002
2.7715100e-002
1.9908383e-002
6.2879197e-002
1.0882274e-001
1.5655814e-001
1.9980301e-001
2.2910880e-001
2.3190685e-001
1.7852569e-001
1.0325992e-001
-2.3027631e-003
-7.2731383e-002
-9.7033478e-002
-8.9949042e-002
-5.5444643e-002
-4.9934942e-002
-6.7439452e-002
-1.1011028e-001
-1.6639674e-001
-2.1018131e-001
-2.4807617e-001
-2.6322168e-001
-2.7109620e-001
-2.5498199e-001
-2.3345004e-001
-1.9182931e-001
-1.4722432e-001
-9.9944629e-002
-5.5684768e-002
-4.8478540e-002
-5.0695360e-002
-8.6793780e-002
-1.2203216e-001
-1.4209817e-001
-1.4855228e-001
-1.2402280e-001
-8.5296288e-002
-2.5597399e-002
3.5901479e-002
9.6875101e-002
1.4302720e-001
1.7256692e-001
1.7669751e-001
1.5991177e-001
1.2366509e-001
7.5411282e-002
4.8891328e-002
3.4878429e-002
4.7972996e-002
7.1979441e-002
8.7705053e-002
1.0047352e-001
1.1297972e-001
1.2548183e-001
1.4878149e-001
1.7257309e-001
1.7334168e-001
1.6617928e-001
1.2435830e-001
7.8040801e-002
3.4034841e-002
1.0220066e-003
1.9613886e-004
1.6771246e-002
6.1292384e-002
1.0299096e-001
1.3301192e-001
1.3776571e-001
1.1172225e-001
8.1523381e-002
5.1667213e-002
3.8220055e-002
3.8280502e-002
4.2988513e-002
4.9531642e-002
3.7480880e-002
1.5523301e-002
-3.8391087e-002
-1.0509653e-001
-1.7913520e-001
-2.5512108e-001
-3.1402537e-001
-3.6858630e-001
-4.1696671e-001
-4.6426910e-001
-5.1266390e-001
-5.5743152e-001
-5.8105230e-001
-5.9254563e-001
-5.7540721e-001
-5.5557901e-001
-5.4332960e-001
-5.4990536e-001
-5.9016699e-001
-6.4188606e-001
-7.0108873e-001
-7.4261618e-001
-7.6115054e-001
-7.5481170e-001
-7.2845393e-001
-6.8709707e-001
-6.3669854e-001
-6.0959822e-001
-5.9836942e-001
-6.4226913e-001
-7.1361643e-001
-7.7315378e-001
-8.2623202e-001
-8.2815337e-001
-8.1306833e-001
-8.2536805e-001
-8.4769416e-001
-9.0995383e-001
-9.8019797e-001
-1.0349215e+000
-1.0816377e+000
-1.1107424e+000
-1.1438929e+000
-1.2027923e+000
-1.2709172e+000
-1.3454449e+000
-1.3933780e+000
-1.3921564e+000
-1.3633435e+000
-1.3125376e+000
-1.2564077e+000
-1.2000335e+000
-1.1350515e+000
-1.0621580e+000
-1.0110291e+000
-9.7774732e-001
-1.0044796e+000
-1.0672300e+000
-1.1638814e+000
-1.2753983e+000
-1.3405759e+000
-1.3845359e+000
-1.3333714e+000
-1.2476505e+000
-1.1299022e+000
-1.0120344e+000
-9.8807591e-001
-1.0107350e+000
-1.1229743e+000
-1.2476583e+000
-1.3169754e+000
-1.3471209e+000
-1.3193229e+000
-1.2882004e+000
-1.2852480e+000
-1.3079448e+000
-1.3587703e+000
-1.4047321e+000
-1.4342774e+000
-1.4053099e+000
-1.3178406e+000
-1.1877160e+000
-1.0318828e+000
-9.1427952e-001
-8.3003604e-001
-7.9566354e-001
-7.8930318e-001
-7.9078001e-001
-7.9415202e-001
-7.7737534e-001
-7.5110447e-001
-7.2475976e-001
-7.0102715e-001
-7.1166849e-001
-7.3620212e-001
-7.6425952e-001
-7.8515750e-001
-7.6981062e-001
-7.3727101e-001
-6.9352990e-001
-6.5116030e-001
-6.2134361e-001
-6.2793297e-001
-6.9357318e-001
-8.2047427e-001
-1.0100948e+000
-1.1442699e+000
-1.1847922e+000
-1.0826583e+000
-8.5862213e-001
-6.2885094e-001
-4.2223391e-001
-2.9957199e-001
-2.3769304e-001
-2.2627418e-001
-2.4090466e-001
-2.5851721e-001
-2.7561286e-001
-3.0027345e-001
-3.3030632e-001
-4.0276885e-001
-5.0199205e-001
-6.6150987e-001
-8.5357559e-001
-1.0701072e+000
-1.2582136e+000
-1.3052796e+000
-1.2275622e+000
-9.7779638e-001
-6.7934638e-001
-4.2795581e-001
-2.5908381e-001
-2.0098600e-001
-2.0838460e-001
-2.5192025e-001
-2.8148860e-001
-2.7917892e-001
-2.5027749e-001
-2.0355856e-001
-2.0043489e-001
-2.4146685e-001
-3.3815441e-001
-4.7164428e-001
-5.3659320e-001
-5.4839879e-001
-3.6919367e-001
-7.3570669e-002
2.0765325e-001
4.6268693e-001
5.3789181e-001
5.0630224e-001
4.2619959e-001
3.1238258e-001
1.6494805e-001
-8.1899911e-003
-2.0839511e-001
-3.5386822e-001
-3.3368906e-001
-2.0700359e-001
-1.9029938e-002
2.4018543e-002
-1.0705424e-001
-3.1902570e-001
-5.8506715e-001
-8.2793045e-001
-1.0192004e+000
-1.1406457e+000
-1.2042679e+000
-1.2354537e+000
-1.2501888e+000
-1.2551219e+000
-1.2546180e+000
-1.1789200e+000
-1.0459398e+000
-8.4937859e-001
-6.1498797e-001
-4.4416371e-001
-3.2007936e-001
-2.2992013e-001
-1.4574000e-001
-1.9477785e-002
1.9322909e-001
7.5639749e-001
1.6048067e+000
2.6503844e+000
3.7402627e+000
4.6916938e+000
5.6485562e+000
6.7459288e+000
8.2788525e+000
1.0415799e+001
1.3272736e+001
1.6801428e+001
2.0295580e+001
2.3449554e+001
2.6181887e+001
2.8556486e+001
3.1283922e+001
3.4455791e+001
3.8345234e+001
4.2820122e+001
4.6904240e+001
5.0595943e+001
5.4078529e+001
5.7455994e+001
6.1341358e+001
6.5632515e+001
7.0079750e+001
7.4578987e+001
7.8820610e+001
8.2742989e+001
8.6185410e+001
8.9176918e+001
9.1770103e+001
9.4073700e+001
9.6245232e+001
9.8013046e+001
9.9155426e+001
9.9551537e+001
9.9205643e+001
9.8098480e+001
9.6328407e+001
9.3696632e+001
9.0240677e+001
8.6424835e+001
8.2460281e+001
7.8527840e+001
7.4666374e+001
7.0538719e+001
6.6130058e+001
6.1696369e+001
5.7276669e+001
5.3139427e+001
4.9311913e+001
4.5950523e+001
4.3054192e+001
4.0535431e+001
3.8361786e+001
3.6371876e+001
3.4583611e+001
3.2999855e+001
3.1628145e+001
3.0447500e+001
2.9456810e+001
2.8626629e+001
2.7964981e+001
2.7457491e+001
2.7103928e+001
2.6886896e+001
2.6780481e+001
2.6760397e+001
2.6868761e+001
2.7116428e+001
2.7576332e+001
2.8262968e+001
2.9082470e+001
3.0009680e+001
3.0887121e+001
3.1695532e+001
3.2562317e+001
3.3543358e+001
3.5063034e+001
3.7144241e+001
3.9367260e+001
4.1612717e+001
4.3367973e+001
4.4638996e+001
4.5676357e+001
4.6496105e+001
4.7209778e+001
4.7818581e+001
4.8350864e+001
4.8675713e+001
4.8654213e+001
4.8274334e+001
4.7562279e+001
4.6535099e+001
4.5220749e+001
4.3623291e+001
4.1743023e+001
3.9764015e+001
3.7764317e+001
3.5960358e+001
3.4442013e+001
3.2922680e+001
3.1343426e+001
2.9295008e+001
2.6645437e+001
2.3980680e+001
2.1350260e+001
1.9096310e+001
1.7251780e+001
1.5379857e+001
1.3464343e+001
1.1482840e+001
9.4577131e+000
7.4853439e+000
5.6389742e+000
4.0285158e+000
2.7017853e+000
1.6645405e+000
9.0765262e-001
3.7834287e-001
2.0188323e-001
5.3309047e-001
1.1927776e+000
1.9957834e+000
2.8330028e+000
3.6418045e+000
4.4115047e+000
5.1283226e+000
5.6474028e+000
5.8642001e+000
5.8796182e+000
5.6386685e+000
5.4707389e+000
5.4240503e+000
5.3736749e+000
5.3040104e+000
5.1407671e+000
4.8482351e+000
4.4687524e+000
3.9767613e+000
3.4064510e+000
2.7836909e+000
2.2293289e+000
1.7929200e+000
1.5344393e+000
1.4470841e+000
1.4762212e+000
1.5865706e+000
1.7228794e+000
1.8939571e+000
2.1129820e+000
2.3892777e+000
2.7451649e+000
3.1278753e+000
3.5141699e+000
3.8708634e+000
4.1691141e+000
4.4291439e+000
4.6345596e+000
4.8359284e+000
5.0367208e+000
5.2309823e+000
5.4056687e+000
5.5093436e+000
5.4975300e+000
5.4048681e+000
5.2027006e+000
4.9653792e+000
4.6818995e+000
4.3697972e+000
4.0255318e+000
3.6648021e+000
3.2946663e+000
2.9365652e+000
2.5688729e+000
2.1517417e+000
1.6934640e+000
1.2020073e+000
7.4691439e-001
4.2016059e-001
1.9245973e-001
8.7853074e-002
2.7026545e-002
-3.4726515e-002
-1.3105001e-001
-2.0279039e-001
-2.4651501e-001
-2.3456164e-001
-2.0415373e-001
-1.4066054e-001
-7.8003488e-002
-1.7059295e-002
4.4498220e-002
1.0850506e-001
1.8083721e-001
2.6623321e-001
3.6082566e-001
4.6750930e-001
5.8078003e-001
7.0170999e-001
8.2741785e-001
9.5504797e-001
1.0767056e+000
1.1854972e+000
1.2672800e+000
1.3248543e+000
1.3543750e+000
1.3717633e+000
1.3888814e+000
1.4100286e+000
1.4426353e+000
1.4725955e+000
1.4883556e+000
1.4982561e+000
1.4982885e+000
1.5121065e+000
1.5640643e+000
1.6329468e+000
1.7386137e+000
1.8436285e+000
1.9476150e+000
2.0524492e+000
2.1653292e+000
2.3135407e+000
2.5193565e+000
2.7756691e+000
3.0972340e+000
3.4581540e+000
3.8679745e+000
4.3263946e+000
4.8342876e+000
5.3878975e+000
5.9757318e+000
6.5842853e+000
7.2010999e+000
7.8114305e+000
8.4060888e+000
8.9564400e+000
9.4720001e+000
9.9130945e+000
1.0300496e+001
1.0558800e+001
1.0744523e+001
1.0738731e+001
1.0672671e+001
1.0447474e+001
1.0183918e+001
9.8277321e+000
9.4394693e+000
8.9847660e+000
8.4945307e+000
7.9433813e+000
7.3656454e+000
6.7534003e+000
6.1420851e+000
5.5351577e+000
4.9437566e+000
4.3689928e+000
3.8072238e+000
3.2571428e+000
2.7179768e+000
2.1936293e+000
1.7058959e+000
1.2555202e+000
8.9353645e-001
5.8481991e-001
3.7637854e-001
2.0880109e-001
1.1527407e-001
4.9298201e-002
5.4159071e-002
7.7907473e-002
1.5823990e-001
2.3287892e-001
2.8787565e-001
3.1859529e-001
2.8958851e-001
2.4824572e-001
1.8391609e-001
1.2517388e-001
7.5697094e-002
2.9357225e-002
-1.3430599e-002
-5.8743320e-002
-1.0232092e-001
-1.2172434e-001
-1.0992219e-001
-3.6995471e-002
8.1555530e-002
2.3608513e-001
4.4148529e-001
7.2743928e-001
1.0580821e+000
1.4615462e+000
1.8852679e+000
2.3112237e+000
2.7353024e+000
3.1477041e+000
3.5696082e+000
4.0477343e+000
4.5255618e+000
4.9964867e+000
5.4410110e+000
5.8019629e+000
6.1528196e+000
6.4802380e+000
6.8169208e+000
7.1729751e+000
7.5420847e+000
7.9332857e+000
8.3421421e+000
8.7733078e+000
9.2108946e+000
9.6545811e+000
1.0096986e+001
1.0531506e+001
1.0917696e+001
1.1257915e+001
1.1468890e+001
1.1610871e+001
1.1675959e+001
1.1720686e+001
1.1806931e+001
1.1900828e+001
1.1980593e+001
1.2046761e+001
1.2019205e+001
1.1982683e+001
1.1910743e+001
1.1821714e+001
1.1657429e+001
1.1434202e+001
1.1017850e+001
1.0534167e+001
9.8926678e+000
9.2594833e+000
8.6504641e+000
8.1327219e+000
7.7523718e+000
7.4407201e+000
7.2042446e+000
6.9474854e+000
6.6665330e+000
6.3211193e+000
5.9283824e+000
5.5027514e+000
5.0638809e+000
4.6669188e+000
4.2938719e+000
4.0046058e+000
3.7413177e+000
3.5158293e+000
3.2925594e+000
3.0206959e+000
2.7372637e+000
2.3654172e+000
1.9870589e+000
1.5703875e+000
1.1656647e+000
8.1441069e-001
4.8802459e-001
2.3907208e-001
4.8832744e-003
-1.9415720e-001
-3.6817080e-001
-4.9517268e-001
-5.6018990e-001
-5.3945577e-001
-4.6291205e-001
-3.2807627e-001
-1.7824540e-001
-1.3830289e-002
1.9859298e-001
4.4409171e-001
7.6513249e-001
1.1169353e+000
1.4023645e+000
1.6564440e+000
1.7012044e+000
1.6920215e+000
1.4747453e+000
1.2279568e+000
8.7481213e-001
5.2308953e-001
2.5400376e-001
1.5678370e-002
-2.4300814e-003
-7.0543721e-002
3.8004227e-002
1.4779571e-001
2.6012981e-001
3.3061275e-001
3.1254312e-001
3.1380463e-001
3.4714371e-001
4.3869779e-001
5.9981525e-001
7.0511973e-001
7.5632131e-001
6.5764773e-001
4.5310599e-001
2.2742973e-001
-7.3363110e-003
-3.9449386e-002
7.5034797e-003
2.7172813e-001
5.9314251e-001
9.6188682e-001
1.3380257e+000
1.5657001e+000
