Image.
>Pix99999.
  .
5555
5555
2300
900
5555
2
1
0
701
5555
-4.6381000e-002
-4.7346618e-002
-4.8311241e-002
-4.9275860e-002
-5.0241474e-002
-5.1206101e-002
-5.2170720e-002
-5.3135339e-002
-5.4100946e-002
-5.5065580e-002
-5.6030203e-002
-5.6995805e-002
-5.7960439e-002
-5.8921132e-002
-5.9889600e-002
-6.0867999e-002
-6.1820216e-002
-6.2735751e-002
-6.3747868e-002
-6.4895704e-002
-6.5684713e-002
-6.5968901e-002
-6.7586765e-002
-7.1087830e-002
-6.9627993e-002
-5.2531142e-002
-1.9277142e-003
8.4489383e-002
1.3828956e-001
9.3724824e-002
-2.3657385e-002
-1.6336559e-001
-2.7989635e-001
-3.4111270e-001
-3.6206180e-001
-3.6707500e-001
-3.6291707e-001
-3.4998828e-001
-3.2448336e-001
-2.8474090e-001
-2.4266315e-001
-2.1575403e-001
-2.2801980e-001
-2.9660854e-001
-4.0338537e-001
-5.1290721e-001
-5.6310529e-001
-4.9893698e-001
-3.2644287e-001
-7.8102268e-002
1.8343793e-001
3.9775226e-001
5.5042195e-001
6.4510638e-001
6.9940406e-001
7.2784311e-001
7.1546757e-001
6.4376479e-001
5.1860327e-001
3.6143729e-001
2.2458628e-001
1.5778302e-001
1.5988347e-001
2.0714650e-001
2.5277200e-001
2.5611988e-001
2.3148608e-001
2.1387365e-001
2.4708514e-001
3.6561793e-001
5.5563200e-001
7.8353107e-001
1.0023111e+000
1.1647897e+000
1.2400334e+000
1.2131608e+000
1.1121125e+000
9.8058605e-001
8.6526591e-001
8.0298889e-001
7.8672343e-001
8.0054361e-001
8.5611826e-001
9.6976829e-001
1.1342280e+000
1.3202229e+000
1.4449363e+000
1.4277619e+000
1.2776440e+000
1.0450321e+000
8.1367552e-001
6.6589183e-001
6.3163161e-001
7.1157664e-001
8.6771947e-001
1.0491123e+000
1.2087058e+000
1.3103851e+000
1.3558080e+000
1.3629888e+000
1.3570428e+000
1.3587383e+000
1.3605669e+000
1.3427194e+000
1.2794892e+000
1.1537399e+000
9.9116248e-001
8.3644670e-001
7.4295801e-001
7.5457674e-001
8.6407471e-001
1.0428904e+000
1.2592961e+000
1.4823884e+000
1.6854264e+000
1.8421707e+000
1.9212458e+000
1.9009511e+000
1.8098112e+000
1.6953241e+000
1.5958571e+000
1.5360577e+000
1.5037974e+000
1.4754903e+000
1.4419469e+000
1.3993286e+000
1.3360500e+000
1.2400783e+000
1.1144543e+000
9.7538638e-001
8.6727560e-001
8.3739758e-001
8.9549237e-001
1.0287491e+000
1.2015152e+000
1.3739828e+000
1.5274543e+000
1.6533360e+000
1.7427343e+000
1.7898352e+000
1.8033401e+000
1.8003280e+000
1.8054975e+000
1.8396448e+000
1.8953395e+000
1.9531100e+000
1.9995062e+000
2.0228989e+000
2.0046990e+000
1.9252809e+000
1.7753643e+000
1.5610828e+000
1.3339566e+000
1.1614468e+000
1.0878440e+000
1.1326236e+000
1.2618074e+000
1.4170955e+000
1.5431914e+000
1.5968819e+000
1.5738885e+000
1.4960930e+000
1.4155746e+000
1.3869134e+000
1.4176977e+000
1.4870265e+000
1.5576845e+000
1.5952438e+000
1.6047120e+000
1.6069654e+000
1.6033871e+000
1.5840384e+000
1.5404103e+000
1.4712592e+000
1.4015028e+000
1.3654749e+000
1.3827548e+000
1.4564486e+000
1.5564780e+000
1.6394168e+000
1.6756629e+000
1.6504341e+000
1.5764780e+000
1.4782271e+000
1.3716148e+000
1.2712471e+000
1.2122103e+000
1.2334718e+000
1.3418560e+000
1.5172870e+000
1.7025014e+000
1.8364031e+000
1.9233720e+000
2.0002151e+000
2.0821478e+000
2.1632586e+000
2.2126000e+000
2.1993153e+000
2.1481905e+000
2.1114452e+000
2.1195428e+000
2.1798921e+000
2.2671938e+000
2.3425062e+000
2.3815315e+000
2.3730650e+000
2.3190877e+000
2.2284784e+000
2.1098588e+000
1.9695407e+000
1.8067300e+000
1.6202470e+000
1.4267634e+000
1.2546290e+000
1.1361269e+000
1.0958922e+000
1.1183275e+000
1.1680430e+000
1.2282423e+000
1.2963810e+000
1.3727400e+000
1.4504268e+000
1.4893448e+000
1.4357936e+000
1.2655480e+000
9.8774570e-001
6.6955656e-001
4.0333885e-001
2.4283233e-001
2.0078395e-001
2.3078001e-001
2.6387581e-001
2.8363115e-001
3.1865114e-001
4.3349683e-001
6.8961877e-001
1.0496820e+000
1.4111354e+000
1.6727860e+000
1.7577299e+000
1.6596057e+000
1.4251442e+000
1.1363734e+000
8.8955778e-001
7.6496696e-001
8.0636799e-001
9.5008391e-001
1.0667723e+000
1.0476532e+000
8.3854622e-001
5.3390211e-001
3.1131825e-001
2.8201121e-001
4.7051764e-001
7.6661754e-001
9.9533153e-001
1.0754446e+000
1.0080369e+000
8.2634020e-001
5.7375401e-001
2.8115058e-001
-2.3235865e-002
-2.7564085e-001
-3.9921105e-001
-3.7787870e-001
-2.4974713e-001
-8.7840453e-002
2.1779377e-002
1.9642485e-002
-1.1713964e-001
-3.4259287e-001
-5.7311535e-001
-7.6825708e-001
-9.2708629e-001
-1.0561609e+000
-1.1619178e+000
-1.2479092e+000
-1.3121357e+000
-1.3357688e+000
-1.2873821e+000
-1.1353400e+000
-8.6387825e-001
-5.2516246e-001
-2.1752825e-001
-1.5961889e-002
4.4845864e-002
1.2177955e-003
-5.5211890e-002
-1.1364840e-002
2.3931533e-001
7.3038960e-001
1.4204850e+000
2.1886566e+000
2.8931661e+000
3.5460439e+000
4.3001881e+000
5.3641415e+000
6.9671674e+000
9.3216114e+000
1.2538140e+001
1.6328714e+001
2.0123440e+001
2.3529860e+001
2.6436182e+001
2.9138046e+001
3.2224720e+001
3.6244492e+001
4.1493320e+001
4.7460079e+001
5.3119301e+001
5.8107170e+001
6.2748398e+001
6.7513748e+001
7.2767509e+001
7.8301872e+001
8.3475548e+001
8.7879997e+001
9.1413383e+001
9.4107155e+001
9.6053642e+001
9.7326370e+001
9.7986320e+001
9.8170784e+001
9.8066284e+001
9.7747330e+001
9.7171112e+001
9.6267181e+001
9.4974106e+001
9.3291603e+001
9.1264542e+001
8.8905418e+001
8.6194138e+001
8.3136200e+001
7.9748833e+001
7.5951790e+001
7.1595055e+001
6.6653282e+001
6.1263557e+001
5.5708755e+001
5.0356663e+001
4.5467827e+001
4.1167084e+001
3.7492416e+001
3.4414490e+001
3.1848383e+001
2.9674122e+001
2.7807114e+001
2.6208683e+001
2.4867029e+001
2.3787144e+001
2.2974998e+001
2.2433081e+001
2.2157909e+001
2.2141026e+001
2.2368517e+001
2.2818029e+001
2.3450880e+001
2.4223639e+001
2.5145901e+001
2.6290491e+001
2.7775684e+001
2.9728050e+001
3.2145397e+001
3.4878551e+001
3.7713959e+001
4.0422543e+001
4.2875629e+001
4.5101124e+001
4.7362606e+001
5.0051773e+001
5.3123528e+001
5.6040550e+001
5.8269718e+001
5.9468342e+001
5.9683529e+001
5.9298679e+001
5.8482502e+001
5.7107574e+001
5.5121841e+001
5.2658531e+001
5.0030457e+001
4.7656151e+001
4.5686737e+001
4.3947029e+001
4.2231293e+001
4.0388252e+001
3.8324799e+001
3.6018078e+001
3.3551483e+001
3.1106487e+001
2.8830643e+001
2.6780249e+001
2.4849199e+001
2.2786810e+001
2.0445520e+001
1.7862057e+001
1.5226886e+001
1.2833700e+001
1.0816290e+001
9.0853510e+000
7.5010428e+000
5.9380088e+000
4.3721399e+000
2.9004526e+000
1.6438252e+000
7.0677805e-001
1.1747920e-001
-1.8736395e-001
-2.8929770e-001
-2.4566540e-001
9.4884336e-003
6.6386348e-001
1.7816024e+000
3.2299480e+000
4.8072996e+000
6.2969112e+000
7.5820141e+000
8.6834202e+000
9.6699381e+000
1.0633006e+001
1.1658800e+001
1.2794279e+001
1.3947914e+001
1.4878374e+001
1.5416977e+001
1.5545000e+001
1.5317297e+001
1.4832270e+001
1.4156583e+001
1.3301246e+001
1.2259800e+001
1.1032978e+001
9.7004604e+000
8.4401922e+000
7.4022241e+000
6.6610684e+000
6.2174764e+000
5.9950771e+000
5.9136381e+000
5.9156466e+000
5.9755945e+000
6.1048002e+000
6.3148766e+000
6.6027956e+000
6.9432092e+000
7.2838063e+000
7.5692844e+000
7.7515898e+000
7.8003483e+000
7.7117295e+000
7.5029788e+000
7.2125592e+000
6.8767118e+000
6.5206890e+000
6.1615644e+000
5.8082848e+000
5.4686775e+000
5.1487579e+000
4.8375025e+000
4.5000634e+000
4.1028342e+000
3.6261771e+000
3.0763140e+000
2.4898114e+000
1.8851216e+000
1.2466869e+000
5.7397968e-001
-9.1757923e-002
-6.6300935e-001
-1.0064006e+000
-1.0465404e+000
-8.1583560e-001
-3.7428927e-001
2.1254009e-001
8.7743556e-001
1.5550821e+000
2.1948879e+000
2.7712915e+000
3.2773860e+000
3.7238693e+000
4.1075344e+000
4.3960671e+000
4.5507030e+000
4.5368247e+000
4.3466692e+000
4.0174594e+000
3.6067786e+000
3.1875243e+000
2.8229468e+000
2.5502172e+000
2.3738000e+000
2.2528932e+000
2.1371102e+000
1.9822233e+000
1.7734903e+000
1.5440686e+000
1.3376360e+000
1.1951610e+000
1.1439346e+000
1.1892076e+000
1.3358285e+000
1.5961726e+000
1.9824936e+000
2.5010409e+000
3.1400042e+000
3.8568816e+000
4.5932140e+000
5.2770581e+000
5.8467269e+000
6.2675486e+000
6.5306730e+000
6.6637220e+000
6.7086215e+000
6.7178459e+000
6.7476273e+000
6.8553624e+000
7.0909524e+000
7.4867420e+000
8.0527115e+000
8.7650795e+000
9.5959654e+000
1.0525691e+001
1.1541374e+001
1.2637544e+001
1.3797948e+001
1.4983250e+001
1.6149389e+001
1.7250320e+001
1.8232822e+001
1.9032679e+001
1.9585629e+001
1.9836035e+001
1.9754280e+001
1.9355654e+001
1.8663437e+001
1.7694685e+001
1.6480560e+001
1.5082111e+001
1.3599272e+001
1.2193270e+001
1.1013314e+001
1.0149325e+001
9.6371374e+000
9.4215012e+000
9.4215822e+000
9.5439959e+000
9.6919479e+000
9.7683468e+000
9.6825037e+000
9.3631029e+000
8.7841997e+000
8.0073500e+000
7.1268978e+000
6.2589812e+000
5.4887829e+000
4.8228917e+000
4.2381363e+000
3.6899867e+000
3.1515577e+000
2.6460478e+000
2.2120600e+000
1.8943871e+000
1.7198548e+000
1.6718521e+000
1.7173966e+000
1.8111029e+000
1.9108437e+000
1.9889450e+000
2.0238955e+000
2.0017579e+000
1.9172615e+000
1.7807318e+000
1.6020149e+000
1.3813543e+000
1.1186712e+000
8.2001501e-001
5.1133406e-001
2.5775295e-001
1.0277227e-001
1.8131191e-002
-3.4583654e-002
-7.5584956e-002
-1.0514683e-001
-8.8971242e-002
-7.1274489e-003
1.0650559e-001
2.0851377e-001
2.6578051e-001
2.6769480e-001
2.5115991e-001
2.5280330e-001
2.8016004e-001
3.2938221e-001
3.8648021e-001
4.4227716e-001
5.0542700e-001
5.8622777e-001
6.8769079e-001
8.0477786e-001
9.1798747e-001
1.0183429e+000
1.1327093e+000
1.2978621e+000
1.5508704e+000
1.9063674e+000
2.3199272e+000
2.7321680e+000
3.0829499e+000
3.3271070e+000
3.4594319e+000
3.4805443e+000
3.3832154e+000
3.1698055e+000
2.8765929e+000
2.5622046e+000
2.3214300e+000
2.2225082e+000
2.2353835e+000
2.2963188e+000
2.3166296e+000
2.2343686e+000
2.0783212e+000
1.9049915e+000
1.7853460e+000
1.7772223e+000
1.8889821e+000
2.0976419e+000
2.3248296e+000
2.4958107e+000
2.5867691e+000
2.6180000e+000
2.6991675e+000
2.9227276e+000
3.2639031e+000
3.6378164e+000
3.8683450e+000
3.8093710e+000
3.4722362e+000
2.9414086e+000
2.4042792e+000
2.0326943e+000
1.8718148e+000
1.8888841e+000
1.9089596e+000
1.7587759e+000
1.3785925e+000
7.8340715e-001
1.3108596e-001
-4.2292035e-001
-8.4100342e-001
-1.1260357e+000
-1.3166289e+000
-1.4463229e+000
-1.5049027e+000
-1.4770751e+000
-1.3656864e+000
-1.1844273e+000
-9.6709520e-001
-7.4926579e-001
-5.5525386e-001
-3.9951885e-001
-2.7300683e-001
-1.5801650e-001
-2.8080143e-002
1.3155954e-001
2.8874549e-001
3.9957133e-001
4.2048466e-001
3.2875764e-001
1.7260164e-001
9.6488893e-003
-1.3060403e-001
-2.2655520e-001
-2.5988817e-001
-2.1555975e-001
-8.7398104e-002
1.2861538e-001
4.3570191e-001
8.0798113e-001
1.1162889e+000
1.2366458e+000
1.1565272e+000
9.0062505e-001
5.2828687e-001
1.2216337e-001
-1.8058278e-001
-2.4424167e-001
9.8606348e-003
5.8434498e-001
1.2489445e+000
1.7427887e+000
1.9118630e+000
1.7055440e+000
1.3701440e+000
1.1872400e+000
1.2874764e+000
1.7187297e+000
2.3532567e+000
3.0421619e+000
3.7278259e+000
4.3750000e+000
