Image.
>Pix99999.
  .
5555
5555
2300
900
5555
2
1
0
701
5555
1.1099000e-001
1.1329670e-001
1.1560340e-001
1.1791009e-001
1.2021679e-001
1.2253343e-001
1.2484020e-001
1.2714690e-001
1.2945360e-001
1.3176030e-001
1.3407686e-001
1.3638370e-001
1.3869040e-001
1.4099710e-001
1.4331360e-001
1.4564006e-001
1.4792766e-001
1.5017536e-001
1.5253906e-001
1.5509051e-001
1.5717086e-001
1.5860739e-001
1.6174944e-001
1.6731437e-001
1.6651498e-001
1.4654821e-001
8.8888772e-002
-1.4701180e-002
-1.2455236e-001
-1.9694188e-001
-2.2632587e-001
-2.1983561e-001
-1.9132857e-001
-1.5411445e-001
-1.1192331e-001
-6.8781048e-002
-4.1261788e-002
-4.7797538e-002
-9.9384174e-002
-1.9684300e-001
-3.0890629e-001
-3.9958963e-001
-4.5244101e-001
-4.6403039e-001
-4.5934200e-001
-4.6588621e-001
-4.8669004e-001
-5.1740235e-001
-5.5470866e-001
-5.9742945e-001
-6.5108502e-001
-7.1795154e-001
-7.7868354e-001
-8.1132299e-001
-8.1114751e-001
-7.8320497e-001
-7.4944037e-001
-7.3238945e-001
-7.3552227e-001
-7.5629467e-001
-7.9329681e-001
-8.4481627e-001
-9.0587389e-001
-9.6813488e-001
-1.0138634e+000
-1.0265179e+000
-1.0080178e+000
-9.6733278e-001
-9.1806108e-001
-8.7360924e-001
-8.4063303e-001
-8.2255167e-001
-8.1916547e-001
-8.2902890e-001
-8.5040194e-001
-8.8173640e-001
-9.2241818e-001
-9.7126311e-001
-1.0233544e+000
-1.0731136e+000
-1.1171399e+000
-1.1526963e+000
-1.1771823e+000
-1.1914467e+000
-1.2104241e+000
-1.2520722e+000
-1.3263557e+000
-1.4338173e+000
-1.5498166e+000
-1.6458502e+000
-1.7153014e+000
-1.7607750e+000
-1.7882749e+000
-1.8030463e+000
-1.8037611e+000
-1.7881292e+000
-1.7616262e+000
-1.7329909e+000
-1.7116280e+000
-1.7058809e+000
-1.7164571e+000
-1.7395217e+000
-1.7629194e+000
-1.7732081e+000
-1.7650342e+000
-1.7398551e+000
-1.7137220e+000
-1.7054796e+000
-1.7221217e+000
-1.7632084e+000
-1.8167257e+000
-1.8682287e+000
-1.9114120e+000
-1.9435925e+000
-1.9628152e+000
-1.9673550e+000
-1.9545183e+000
-1.9225835e+000
-1.8752948e+000
-1.8198390e+000
-1.7692685e+000
-1.7362338e+000
-1.7243291e+000
-1.7318023e+000
-1.7519674e+000
-1.7789822e+000
-1.8189319e+000
-1.8808713e+000
-1.9657892e+000
-2.0685656e+000
-2.1740887e+000
-2.2644999e+000
-2.3268082e+000
-2.3529711e+000
-2.3447950e+000
-2.3103600e+000
-2.2650926e+000
-2.2262416e+000
-2.2053514e+000
-2.2092931e+000
-2.2351799e+000
-2.2749796e+000
-2.3152261e+000
-2.3423176e+000
-2.3506949e+000
-2.3408172e+000
-2.3218548e+000
-2.3059871e+000
-2.3014019e+000
-2.3112328e+000
-2.3256285e+000
-2.3317018e+000
-2.3281941e+000
-2.3200452e+000
-2.3142779e+000
-2.3154578e+000
-2.3157892e+000
-2.3040643e+000
-2.2821946e+000
-2.2570922e+000
-2.2298543e+000
-2.1969349e+000
-2.1498029e+000
-2.0828424e+000
-2.0132656e+000
-1.9660701e+000
-1.9507786e+000
-1.9639241e+000
-1.9834200e+000
-1.9830935e+000
-1.9569685e+000
-1.9104830e+000
-1.8501782e+000
-1.7835563e+000
-1.7216392e+000
-1.6777500e+000
-1.6680251e+000
-1.7026675e+000
-1.7616037e+000
-1.8106718e+000
-1.8242286e+000
-1.7887442e+000
-1.7196380e+000
-1.6430038e+000
-1.5674669e+000
-1.4881071e+000
-1.3875439e+000
-1.2507303e+000
-1.0988795e+000
-9.6958393e-001
-8.8487887e-001
-8.5129982e-001
-8.5238355e-001
-8.6536008e-001
-8.9141989e-001
-9.4210964e-001
-1.0118296e+000
-1.0813910e+000
-1.1187872e+000
-1.0942938e+000
-1.0151643e+000
-9.1055632e-001
-8.1173927e-001
-7.4471098e-001
-7.1559691e-001
-7.1994251e-001
-7.5676984e-001
-8.2474637e-001
-9.0750778e-001
-9.7785664e-001
-1.0005029e+000
-9.4396269e-001
-8.1004024e-001
-6.2769490e-001
-4.5702356e-001
-3.6553258e-001
-3.8038418e-001
-4.9437740e-001
-6.6222137e-001
-8.2157242e-001
-9.2480457e-001
-9.3846661e-001
-8.4320986e-001
-6.3599008e-001
-3.5314161e-001
-5.7365108e-002
1.7585683e-001
2.7955836e-001
2.4923417e-001
1.2343933e-001
-4.3858871e-002
-1.9783670e-001
-3.0411404e-001
-3.4738344e-001
-3.3705822e-001
-2.9981223e-001
-2.7570242e-001
-3.0371577e-001
-3.8656020e-001
-4.9773458e-001
-5.8861941e-001
-6.0750127e-001
-5.4134905e-001
-4.0828031e-001
-2.4613279e-001
-9.5015392e-002
3.9558638e-002
1.7509989e-001
3.2366663e-001
4.8230192e-001
6.0969430e-001
6.4888787e-001
5.8598161e-001
4.4765168e-001
2.9805461e-001
2.0937379e-001
1.9152606e-001
2.1431290e-001
2.7297840e-001
3.8080409e-001
5.2636027e-001
6.6982448e-001
7.3434567e-001
6.4296395e-001
4.2598280e-001
1.8934101e-001
2.2767300e-002
-2.7101614e-002
-1.0523978e-002
-2.4630420e-002
-7.4821331e-002
-9.2905737e-002
-1.9249056e-002
1.7186816e-001
4.2562896e-001
6.3551855e-001
7.1912378e-001
6.4088166e-001
4.6328264e-001
3.0431241e-001
2.1721600e-001
1.8649492e-001
1.4850435e-001
2.9445544e-002
-1.6128671e-001
-3.4411651e-001
-4.2618367e-001
-3.2017708e-001
3.3593491e-002
6.5552598e-001
1.4819269e+000
2.3910620e+000
3.2808115e+000
4.0991144e+000
4.9134979e+000
5.8890266e+000
7.2240353e+000
9.1069555e+000
1.1620109e+001
1.4704876e+001
1.8043428e+001
2.1177189e+001
2.3900583e+001
2.6293787e+001
2.8678183e+001
3.1488001e+001
3.4944656e+001
3.8992722e+001
4.3198799e+001
4.6959099e+001
5.0204227e+001
5.3347729e+001
5.6766094e+001
6.0655300e+001
6.4883064e+001
6.9093704e+001
7.3107689e+001
7.6942726e+001
8.0620575e+001
8.4134979e+001
8.7488373e+001
9.0675926e+001
9.3596100e+001
9.6038849e+001
9.7691406e+001
9.8250999e+001
9.7814484e+001
9.6798302e+001
9.5401344e+001
9.3549065e+001
9.1090927e+001
8.7906639e+001
8.4136185e+001
8.0128265e+001
7.6094269e+001
7.2061386e+001
6.7974716e+001
6.3757107e+001
5.9429188e+001
5.5109070e+001
5.0921398e+001
4.6979630e+001
4.3388630e+001
4.0232193e+001
3.7523045e+001
3.5206699e+001
3.3228577e+001
3.1547375e+001
3.0122257e+001
2.8909901e+001
2.7862499e+001
2.6933260e+001
2.6099749e+001
2.5367411e+001
2.4765499e+001
2.4339329e+001
2.4119942e+001
2.4125740e+001
2.4388361e+001
2.4949667e+001
2.5824230e+001
2.6975885e+001
2.8277718e+001
2.9534531e+001
3.0618879e+001
3.1504679e+001
3.2242275e+001
3.2973057e+001
3.4004265e+001
3.5722466e+001
3.8126770e+001
4.0778271e+001
4.3199017e+001
4.5040428e+001
4.6335545e+001
4.7471607e+001
4.8692455e+001
4.9968784e+001
5.1088398e+001
5.1730820e+001
5.1733658e+001
5.1160645e+001
5.0216003e+001
4.9186405e+001
4.8230297e+001
4.7330399e+001
4.6404194e+001
4.5334797e+001
4.4002296e+001
4.2321411e+001
4.0360371e+001
3.8330051e+001
3.6311398e+001
3.4189232e+001
3.1782255e+001
2.8933344e+001
2.5768034e+001
2.2705999e+001
2.0028608e+001
1.7757200e+001
1.5776857e+001
1.3890856e+001
1.1968600e+001
9.9859009e+000
7.9574804e+000
5.9298606e+000
4.0082302e+000
2.3549666e+000
1.0978315e+000
3.0923426e-001
7.0076272e-002
4.4851696e-001
1.3103081e+000
2.2983110e+000
3.1816118e+000
3.9600456e+000
4.7149367e+000
5.5460148e+000
6.4330311e+000
7.1968603e+000
7.6439400e+000
7.6412106e+000
7.2504277e+000
6.7473035e+000
6.3065333e+000
5.9117570e+000
5.5339417e+000
5.1820831e+000
4.8706732e+000
4.6033921e+000
4.3444028e+000
4.0172157e+000
3.5910046e+000
3.1123495e+000
2.6581941e+000
2.3153014e+000
2.1244919e+000
2.0590475e+000
2.0746534e+000
2.1276171e+000
2.1992972e+000
2.3055270e+000
2.4669411e+000
2.6982265e+000
2.9997890e+000
3.3551850e+000
3.7519796e+000
4.1868343e+000
4.6468801e+000
5.1003122e+000
5.4990001e+000
5.7817783e+000
5.9141378e+000
5.9059668e+000
5.7823858e+000
5.5766149e+000
5.3214083e+000
5.0462499e+000
4.7790947e+000
4.5425277e+000
4.3349342e+000
4.1216717e+000
3.8712800e+000
3.5705369e+000
3.2241685e+000
2.8547385e+000
2.4716866e+000
2.0604417e+000
1.6177343e+000
1.1677591e+000
7.4807286e-001
4.0355894e-001
1.6027583e-001
1.2322191e-002
-4.9094282e-002
-2.6657786e-002
7.4520156e-002
2.4026561e-001
4.3693742e-001
6.0597020e-001
7.0246261e-001
7.1645617e-001
6.6695392e-001
6.0467529e-001
5.7002008e-001
5.7502192e-001
6.2798882e-001
7.4015456e-001
9.1419178e-001
1.1353376e+000
1.3732200e+000
1.5806956e+000
1.7240286e+000
1.8005586e+000
1.8232703e+000
1.8195400e+000
1.8130462e+000
1.8150930e+000
1.8298640e+000
1.8538400e+000
1.8823143e+000
1.9122707e+000
1.9450183e+000
1.9880378e+000
2.0470800e+000
2.1220458e+000
2.2105165e+000
2.3089845e+000
2.4164445e+000
2.5369627e+000
2.6755085e+000
2.8364921e+000
3.0226035e+000
3.2333887e+000
3.4660656e+000
3.7151234e+000
3.9777544e+000
4.2573781e+000
4.5601478e+000
4.8944650e+000
5.2698426e+000
5.6960344e+000
6.1809292e+000
6.7270651e+000
7.3268719e+000
7.9558001e+000
8.5854464e+000
9.1887207e+000
9.7442970e+000
1.0241928e+001
1.0671371e+001
1.1014462e+001
1.1249880e+001
1.1351614e+001
1.1311511e+001
1.1151607e+001
1.0902417e+001
1.0597924e+001
1.0257052e+001
9.8681812e+000
9.4185772e+000
8.9049501e+000
8.3388281e+000
7.7550545e+000
7.1836801e+000
6.6320052e+000
6.0929561e+000
5.5419121e+000
4.9620447e+000
4.3620772e+000
3.7618072e+000
3.1898341e+000
2.6678240e+000
2.1978800e+000
1.7741518e+000
1.3852372e+000
1.0273354e+000
7.1629071e-001
4.7373965e-001
3.2163951e-001
2.6728800e-001
2.8534272e-001
3.4004754e-001
3.9141122e-001
4.1156584e-001
4.0219527e-001
3.7451747e-001
3.4457609e-001
3.2256052e-001
3.0304068e-001
2.7879030e-001
2.4704763e-001
2.0761183e-001
1.6349524e-001
1.1651884e-001
6.4799964e-002
1.2404785e-002
-2.1224445e-002
-1.6943332e-002
3.5211317e-002
1.4376086e-001
3.1779781e-001
5.5628848e-001
8.3441424e-001
1.1272336e+000
1.4238436e+000
1.7213738e+000
2.0282769e+000
2.3543200e+000
2.7052326e+000
3.0829859e+000
3.4812093e+000
3.8871973e+000
4.2771587e+000
4.6303940e+000
4.9416299e+000
5.2177539e+000
5.4867740e+000
5.7734737e+000
6.0814476e+000
6.4038715e+000
6.7207732e+000
7.0168519e+000
7.2974596e+000
7.5746598e+000
7.8643713e+000
8.1757555e+000
8.4981222e+000
8.8100662e+000
9.0768681e+000
9.2708559e+000
9.3944960e+000
9.4665298e+000
9.5299244e+000
9.6237926e+000
9.7603827e+000
9.9332962e+000
1.0103296e+001
1.0220514e+001
1.0234271e+001
1.0109571e+001
9.8582449e+000
9.5091734e+000
9.1100969e+000
8.7045507e+000
8.3109856e+000
7.9398794e+000
7.5947471e+000
7.2737422e+000
6.9628878e+000
6.6437602e+000
6.2930050e+000
5.8937249e+000
5.4527078e+000
4.9920216e+000
4.5621643e+000
4.2136426e+000
3.9743681e+000
3.8439412e+000
3.7534077e+000
3.6223202e+000
3.3886511e+000
3.0258527e+000
2.6028111e+000
2.2072561e+000
1.9119885e+000
1.7523029e+000
1.6593667e+000
1.5482926e+000
1.3663391e+000
1.0902071e+000
7.6331151e-001
4.4113606e-001
1.6299024e-001
-4.8444599e-002
-2.1100071e-001
-3.4600675e-001
-4.5339057e-001
-5.2065700e-001
-5.1252550e-001
-4.0181944e-001
-2.0690966e-001
3.9872199e-002
2.9737550e-001
5.2945429e-001
7.2409403e-001
8.7113881e-001
9.4700086e-001
9.3235660e-001
8.3447266e-001
6.7606115e-001
5.1014501e-001
3.8206959e-001
2.8423068e-001
2.0001483e-001
1.2710622e-001
6.3721694e-002
-2.3412034e-003
-7.2148710e-002
-9.8177060e-002
-4.6098456e-002
2.6940722e-002
5.3547665e-002
1.2311943e-002
-9.9360764e-002
-2.5670251e-001
-4.2479640e-001
-5.5651063e-001
-6.1223340e-001
-5.9229809e-001
-5.1516843e-001
-4.3025592e-001
-3.8217029e-001
-3.6748999e-001
-3.6734155e-001
-3.4972998e-001
-2.8800684e-001
-1.8948919e-001
-6.5720387e-002
8.8679478e-002
2.8334001e-001
