Image.
>Pix99999.
  .
5555
5555
2300
900
5555
2
1
0
701
5555
-1.1186000e-001
-1.1419666e-001
-1.1652334e-001
-1.1885002e-001
-1.2117668e-001
-1.2350336e-001
-1.2583004e-001
-1.2815669e-001
-1.3048337e-001
-1.3281004e-001
-1.3513671e-001
-1.3746339e-001
-1.3979004e-001
-1.4211673e-001
-1.4444341e-001
-1.4677006e-001
-1.4909674e-001
-1.5142342e-001
-1.5375008e-001
-1.5607676e-001
-1.5841314e-001
-1.6074009e-001
-1.6306677e-001
-1.6539344e-001
-1.6772011e-001
-1.7004679e-001
-6.3191145e-003
1.5055010e-001
3.0169401e-001
3.7503171e-001
4.3696702e-001
3.4789968e-001
2.4595024e-001
9.8424330e-002
-4.1511901e-002
-1.0329525e-001
-1.4305149e-001
-1.0013743e-001
-4.4403363e-002
3.6987111e-002
1.0067052e-001
1.2245723e-001
1.2107079e-001
8.5861862e-002
6.4779222e-002
6.3895151e-002
9.7313307e-002
1.6251606e-001
2.3221207e-001
3.0369100e-001
3.3602858e-001
3.4575114e-001
3.3064064e-001
3.0532086e-001
2.9289404e-001
2.8486049e-001
2.4026480e-001
1.8718621e-001
8.0833718e-002
-3.2346539e-002
-5.7308916e-002
-6.4381592e-002
3.9602716e-002
1.4916840e-001
2.3048641e-001
2.9058456e-001
2.8350115e-001
2.7144805e-001
2.6381844e-001
2.7102554e-001
3.0546001e-001
3.4886193e-001
4.0116668e-001
4.6088552e-001
5.2790415e-001
5.6932110e-001
5.8744329e-001
5.3404123e-001
4.3263268e-001
3.2626268e-001
2.1984057e-001
2.1835102e-001
2.6093531e-001
3.7262094e-001
5.0503236e-001
5.7191265e-001
6.2322569e-001
5.9938425e-001
5.6490469e-001
5.5237257e-001
5.4468787e-001
5.4909790e-001
5.4356813e-001
4.8582083e-001
4.1452885e-001
3.2546994e-001
2.5863275e-001
2.4679410e-001
2.7307761e-001
3.4980899e-001
4.3901858e-001
5.3501552e-001
6.0451585e-001
6.4555281e-001
6.3692588e-001
5.9030402e-001
5.2816749e-001
4.5913613e-001
4.3394291e-001
4.3247354e-001
4.9001271e-001
5.7095087e-001
6.8243641e-001
8.0312026e-001
8.8878381e-001
9.6430856e-001
9.5014143e-001
9.1906142e-001
8.8907015e-001
8.6881781e-001
9.0084797e-001
9.3080026e-001
9.1760552e-001
8.6819583e-001
7.4911231e-001
6.1494821e-001
4.7887981e-001
3.8277960e-001
3.4628898e-001
3.5928944e-001
4.1650799e-001
4.6513915e-001
4.9783418e-001
5.0480837e-001
4.9477836e-001
4.7752699e-001
4.5817384e-001
4.3431720e-001
4.0872627e-001
4.0262219e-001
4.0410599e-001
4.2412895e-001
4.4899058e-001
4.5912075e-001
4.6505862e-001
4.7731242e-001
4.9359095e-001
5.3046590e-001
5.6730855e-001
5.8631021e-001
5.8828074e-001
5.5557901e-001
5.1022017e-001
4.5100501e-001
3.9355099e-001
3.3874115e-001
2.8383166e-001
2.2810225e-001
1.7310141e-001
1.2177800e-001
1.3837142e-001
2.1861340e-001
4.1944614e-001
7.0383072e-001
9.1230834e-001
1.0626172e+000
9.5654124e-001
7.1844655e-001
4.6678159e-001
2.1604201e-001
1.1817885e-001
7.5756751e-002
6.7561679e-002
6.5729752e-002
4.7668144e-002
2.2211000e-002
-1.9020371e-002
-5.6283012e-002
-8.0825292e-002
-9.1121748e-002
-7.8797884e-002
-7.9206243e-002
-1.1219374e-001
-1.8376194e-001
-2.9523250e-001
-3.4992379e-001
-3.1183875e-001
-1.1833727e-001
2.1310176e-001
4.9189529e-001
6.8627185e-001
7.0635945e-001
6.0849804e-001
5.1049674e-001
4.2897344e-001
3.4270871e-001
2.5128201e-001
1.7751721e-001
1.1032775e-001
2.1232027e-001
3.8332713e-001
5.9797263e-001
8.0410558e-001
8.2880098e-001
7.4349862e-001
4.7348285e-001
1.4176813e-001
-1.7050129e-001
-4.1215160e-001
-5.0055689e-001
-4.6595600e-001
-2.9115102e-001
-1.9403718e-002
3.3516544e-001
6.3515830e-001
8.2126570e-001
7.8275436e-001
5.2967322e-001
2.0307159e-001
-1.3479501e-001
-3.7091115e-001
-5.2080625e-001
-5.7501215e-001
-5.7081705e-001
-5.4056841e-001
-4.9383464e-001
-5.4344851e-001
-6.4026809e-001
-8.0600512e-001
-9.9504870e-001
-1.0710442e+000
-1.0696549e+000
-9.0157384e-001
-6.2884325e-001
-2.5869277e-001
1.0175221e-001
2.9631495e-001
3.0756152e-001
7.6536551e-002
-2.5339979e-001
-5.7708085e-001
-8.2187927e-001
-9.4982827e-001
-9.8336750e-001
-9.5289218e-001
-8.5334599e-001
-7.0293075e-001
-5.4458576e-001
-3.8570458e-001
-2.5437519e-001
-1.4345500e-001
1.5293412e-002
2.0318867e-001
3.7025714e-001
5.1224595e-001
5.2035713e-001
4.4558653e-001
3.4013104e-001
2.3244148e-001
2.4562849e-001
3.4313342e-001
5.2820271e-001
7.1203148e-001
7.1933347e-001
6.0754871e-001
3.9655814e-001
1.9385540e-001
1.1634152e-001
4.1298799e-002
-1.0610605e-001
-2.0375071e-001
-1.9033669e-001
8.4807545e-002
6.4059687e-001
1.2892256e+000
1.9391857e+000
2.2456405e+000
2.2106969e+000
2.0508940e+000
1.8497826e+000
1.9277800e+000
2.2346039e+000
2.3694153e+000
2.3432927e+000
1.8111023e+000
9.5676941e-001
2.8836960e-001
-1.4816639e-001
7.9553664e-002
8.8461316e-001
2.2246144e+000
3.7106333e+000
4.7228923e+000
5.3765426e+000
5.8199439e+000
6.4314485e+000
7.5862446e+000
9.5225172e+000
1.2323594e+001
1.5785280e+001
1.9646286e+001
2.3133549e+001
2.5980284e+001
2.8518038e+001
3.0951593e+001
3.4108913e+001
3.8025265e+001
4.2506157e+001
4.7362679e+001
5.1483379e+001
5.4938202e+001
5.8488251e+001
6.2204441e+001
6.6556618e+001
7.1363098e+001
7.5969200e+001
8.0340149e+001
8.4348915e+001
8.8025848e+001
9.1433472e+001
9.4585915e+001
9.7526863e+001
1.0013496e+002
1.0227328e+002
1.0331114e+002
1.0269464e+002
1.0079298e+002
9.8077591e+001
9.4920197e+001
9.1627975e+001
8.7874298e+001
8.3568199e+001
7.9109795e+001
7.4649918e+001
7.0419022e+001
6.6450829e+001
6.2330841e+001
5.8019661e+001
5.3736557e+001
4.9505688e+001
4.5465027e+001
4.1633732e+001
3.8169373e+001
3.5098572e+001
3.2491276e+001
3.0326029e+001
2.8449974e+001
2.6873100e+001
2.5561754e+001
2.4531673e+001
2.3766500e+001
2.3241138e+001
2.2885258e+001
2.2662771e+001
2.2516146e+001
2.2492022e+001
2.2620354e+001
2.2970350e+001
2.3571581e+001
2.4458447e+001
2.5625656e+001
2.6931955e+001
2.8309206e+001
2.9563793e+001
3.0649361e+001
3.1678528e+001
3.2678143e+001
3.4010666e+001
3.5774738e+001
3.8312305e+001
4.1601799e+001
4.4596409e+001
4.7132015e+001
4.8912739e+001
5.0041859e+001
5.1210430e+001
5.2410172e+001
5.3598637e+001
5.4435059e+001
5.4337376e+001
5.3349712e+001
5.1689877e+001
4.9762100e+001
4.8087883e+001
4.6661465e+001
4.5465050e+001
4.4295765e+001
4.3010242e+001
4.1401703e+001
3.9317463e+001
3.7126328e+001
3.4943882e+001
3.2874878e+001
3.0996696e+001
2.8698837e+001
2.5833935e+001
2.2827023e+001
1.9700085e+001
1.7105261e+001
1.5120200e+001
1.3278714e+001
1.1600526e+001
9.9694338e+000
8.3872194e+000
6.7998633e+000
5.2032843e+000
3.5949383e+000
2.0942092e+000
9.2596263e-001
1.9730699e-001
3.2185264e-002
4.7656676e-001
1.4230680e+000
2.4759400e+000
3.3372934e+000
3.9672623e+000
4.3432226e+000
4.7652712e+000
5.3918080e+000
6.1618509e+000
7.0886202e+000
7.7445626e+000
7.9212289e+000
7.8424387e+000
7.4077430e+000
6.9484892e+000
6.4640088e+000
6.0043211e+000
5.6010942e+000
5.2877197e+000
5.0853839e+000
4.8846035e+000
4.6710377e+000
4.3857908e+000
4.0632420e+000
3.8427143e+000
3.7723548e+000
3.9174416e+000
4.2384405e+000
4.6434183e+000
5.0220399e+000
5.2374549e+000
5.3362961e+000
5.3657928e+000
5.4210024e+000
5.5823736e+000
5.8187618e+000
6.1353292e+000
6.4614959e+000
6.7744598e+000
7.0120358e+000
7.1005902e+000
7.0986505e+000
6.9219918e+000
6.6984124e+000
6.3933101e+000
6.0395932e+000
5.6250100e+000
5.2066779e+000
4.8017282e+000
4.4408116e+000
4.1384788e+000
3.8458381e+000
3.5541072e+000
3.2461450e+000
2.9089906e+000
2.5523202e+000
2.1775231e+000
1.7722673e+000
1.3601570e+000
9.6193540e-001
5.9372699e-001
3.0501872e-001
8.4585920e-002
-3.6489315e-002
-9.3883425e-002
-2.8567839e-002
1.0137485e-001
3.4690654e-001
5.7457459e-001
7.4269998e-001
8.2586747e-001
7.2660953e-001
6.0481226e-001
4.5766646e-001
3.7716442e-001
4.2294726e-001
5.8167410e-001
8.9222592e-001
1.2572000e+000
1.6533800e+000
1.9615431e+000
2.1535974e+000
2.2202046e+000
2.1757383e+000
2.0757773e+000
1.9401600e+000
1.7929350e+000
1.6475040e+000
1.5118873e+000
1.3952857e+000
1.3128040e+000
1.2564288e+000
1.2443335e+000
1.2487719e+000
1.2774143e+000
1.3052114e+000
1.3222147e+000
1.3378365e+000
1.3512295e+000
1.3845657e+000
1.4655550e+000
1.5860349e+000
1.7773582e+000
1.9942971e+000
2.2419164e+000
2.4870703e+000
2.7280128e+000
2.9791560e+000
3.2501919e+000
3.5631144e+000
3.9165459e+000
4.3027940e+000
4.7152562e+000
5.1498146e+000
5.5993247e+000
6.0569892e+000
6.4929042e+000
6.8417082e+000
7.1193123e+000
7.2433929e+000
7.3011661e+000
7.2370920e+000
7.1255269e+000
6.9003406e+000
6.6408715e+000
6.2916346e+000
5.9220257e+000
5.5002751e+000
5.0491910e+000
4.5371146e+000
3.9970574e+000
3.4156818e+000
2.8462887e+000
2.3043039e+000
1.8218887e+000
1.4112260e+000
1.0399004e+000
6.9549125e-001
3.1470695e-001
-1.0139817e-001
-5.6023324e-001
-1.0312297e+000
-1.4514639e+000
-1.8165699e+000
-2.0461664e+000
-2.2068536e+000
-2.2664199e+000
-2.2941525e+000
-2.2832973e+000
-2.2467201e+000
-2.1258624e+000
-1.9762267e+000
-1.7368962e+000
-1.5084891e+000
-1.3171543e+000
-1.1497663e+000
-1.0357677e+000
-8.9251387e-001
-6.8693805e-001
-4.4526100e-001
-1.5324171e-001
9.7804770e-002
2.8541064e-001
4.0312660e-001
4.3820429e-001
4.1322947e-001
3.2937595e-001
1.9759443e-001
5.1628195e-002
-2.0259400e-003
3.6148190e-002
2.9190627e-001
6.5366864e-001
1.1360589e+000
1.6378794e+000
2.0705955e+000
2.4668341e+000
2.7345240e+000
2.9760485e+000
3.1406028e+000
3.3069196e+000
3.4857013e+000
3.6609993e+000
3.8224206e+000
3.9588101e+000
4.0372224e+000
4.1422248e+000
4.3091097e+000
4.5649304e+000
4.9632001e+000
5.4192619e+000
5.9450803e+000
6.4713964e+000
6.9938502e+000
7.4857450e+000
7.9478984e+000
8.3614960e+000
8.7365952e+000
9.0378437e+000
9.2879772e+000
9.4081659e+000
9.4616442e+000
9.3429623e+000
9.1752005e+000
8.9291296e+000
8.6999884e+000
8.6722078e+000
8.7019014e+000
9.0368996e+000
9.3715715e+000
9.7004223e+000
9.9686918e+000
1.0046250e+001
1.0120275e+001
1.0193822e+001
1.0338283e+001
1.0613740e+001
1.0877303e+001
1.1110577e+001
1.1218700e+001
1.1178946e+001
1.1070486e+001
1.0901112e+001
1.0735538e+001
1.0561278e+001
1.0278878e+001
9.9210443e+000
9.3752565e+000
8.7565403e+000
8.1335287e+000
7.5204206e+000
7.0284910e+000
6.5581350e+000
6.0987802e+000
5.6380157e+000
5.1487765e+000
4.6559935e+000
4.1402016e+000
3.6238434e+000
3.1068788e+000
2.6218610e+000
2.2368543e+000
1.8865640e+000
1.6153980e+000
1.3450587e+000
1.0802168e+000
8.6392784e-001
7.1854144e-001
6.7053276e-001
7.2190911e-001
7.6464736e-001
7.9855156e-001
7.9837859e-001
7.8222764e-001
8.4324503e-001
9.3798172e-001
1.0083323e+000
1.0637797e+000
9.7892255e-001
8.6038315e-001
6.6620058e-001
4.6222481e-001
2.4510713e-001
3.9879337e-002
1.3141286e-002
4.2243451e-003
1.3275042e-001
4.2853189e-001
9.0431714e-001
1.3944314e+000
1.9258280e+000
2.4215128e+000
2.8391292e+000
3.1616108e+000
3.3303363e+000
3.3994761e+000
3.3491421e+000
3.3413348e+000
3.3761313e+000
3.6410043e+000
4.0686340e+000
4.5687737e+000
5.1057997e+000
5.4045982e+000
5.6131539e+000
5.6904535e+000
5.7353983e+000
5.9213986e+000
6.1307020e+000
6.4116998e+000
