##TITLE=Methyl Ethyl Ketone
##JCAMP-DX=4.24
##DATA TYPE=INFRARED SPECTRUM
##XUNITS=cm-1
##YUNITS=Absorbance
##FIRSTX=900
##LASTX=2300
##XYDATA=(X++(Y..Y))
2296 -0.0035969999
2294 -0.0036717928
2292 -0.0037466858
2290 -0.0038214789
2288 -0.003896272
2286 -0.0039711646
2284 -0.0040459577
2282 -0.0041209487
2280 -0.004195645
2278 -0.0042701405
2276 -0.0043453244
2274 -0.004421304
2272 -0.0044950349
2270 -0.0045655887
2268 -0.0046445159
2266 -0.0047351499
2264 -0.004794654
2262 -0.0048106359
2260 -0.0049424311
2258 -0.0052362978
2256 -0.0051000458
2254 -0.0043589883
2252 -0.0052171159
2250 -0.0083302082
2248 -0.0054997113
2246 0.0091510396
2244 0.022266833
2242 0.018633241
2240 -0.002722848
2238 -0.034039676
2236 -0.048703313
2234 -0.022595476
2232 0.036849614
2230 0.11335293
2228 0.19180131
2226 0.26024851
2224 0.31794623
2222 0.36552885
2220 0.39587128
2218 0.40181369
2216 0.38523999
2214 0.35319993
2212 0.322694
2210 0.30927864
2208 0.31074101
2206 0.32056528
2204 0.3368139
2202 0.36047581
2200 0.39836052
2198 0.45359358
2196 0.50712645
2194 0.53577816
2192 0.52794516
2190 0.48192546
2188 0.42105824
2186 0.37379292
2184 0.35720721
2182 0.38094574
2180 0.43979272
2178 0.5238995
2176 0.62378716
2174 0.73111337
2172 0.84136134
2170 0.952443
2168 1.0672547
2166 1.18575
2164 1.2902696
2162 1.3572413
2160 1.3642029
2158 1.2995775
2156 1.1939499
2154 1.0900877
2152 1.0222726
2150 1.0118484
2148 1.041448
2146 1.0810714
2144 1.1054572
2142 1.096508
2140 1.0598238
2138 1.0098008
2136 0.9644174
2134 0.93885648
2132 0.9337433
2130 0.94459653
2128 0.9674136
2126 1.0007888
2124 1.0525411
2122 1.1295199
2120 1.220896
2118 1.3084513
2116 1.3709142
2114 1.3906801
2112 1.370091
2110 1.3196142
2108 1.2530121
2106 1.1837322
2104 1.1194223
2102 1.0662503
2100 1.032784
2098 1.0269545
2096 1.0505285
2094 1.0981414
2092 1.1459076
2090 1.1676397
2088 1.1572583
2086 1.1229551
2084 1.0989709
2082 1.1236557
2080 1.2113264
2078 1.3607259
2076 1.5482558
2074 1.7411641
2072 1.906116
2070 2.0132091
2068 2.047401
2066 2.0060387
2064 1.9136879
2062 1.804986
2060 1.7103412
2058 1.651574
2056 1.6227314
2054 1.6082606
2052 1.602054
2050 1.6043323
2048 1.6250777
2046 1.6739213
2044 1.7441161
2042 1.8219854
2040 1.8946439
2038 1.9519117
2036 1.9921914
2034 2.0188525
2032 2.0387361
2030 2.0581758
2028 2.0734625
2026 2.0773301
2024 2.0661588
2022 2.0400758
2020 2.0073438
2018 1.977699
2016 1.952
2014 1.9289522
2012 1.9169866
2010 1.9257627
2008 1.9519314
2006 1.9854329
2004 2.0136521
2002 2.0237031
2000 2.003372
1998 1.942185
1996 1.8330715
1994 1.678385
1992 1.513024
1990 1.3819783
1988 1.3089119
1986 1.3008606
1984 1.3399915
1982 1.4010663
1980 1.4743683
1978 1.5569611
1976 1.6392257
1974 1.708874
1972 1.7581477
1970 1.7833593
1968 1.7882829
1966 1.779305
1964 1.7603275
1962 1.734513
1960 1.7090759
1958 1.690887
1956 1.6754915
1954 1.6524537
1952 1.6103715
1950 1.541784
1948 1.4568241
1946 1.374825
1944 1.3162485
1942 1.2960527
1940 1.3054569
1938 1.3219296
1936 1.3174343
1934 1.2668744
1932 1.166384
1930 1.0258853
1928 0.86665684
1926 0.71632856
1924 0.60795486
1922 0.57292902
1920 0.62461215
1918 0.76029843
1916 0.95074886
1914 1.1545007
1912 1.336284
1910 1.4687139
1908 1.5388055
1906 1.5458692
1904 1.5093039
1902 1.4584032
1900 1.4192172
1898 1.4103873
1896 1.4294143
1894 1.4609233
1892 1.4836191
1890 1.4761909
1888 1.427848
1886 1.3389614
1884 1.2326478
1882 1.1408062
1880 1.0800651
1878 1.0511117
1876 1.03008
1874 0.98731619
1872 0.92759359
1870 0.87854123
1868 0.87347203
1866 0.93611461
1864 1.0420971
1862 1.142146
1860 1.2051154
1858 1.2176141
1856 1.18414
1854 1.1164362
1852 1.0174389
1850 0.88614255
1848 0.73191202
1846 0.57435608
1844 0.44714043
1842 0.38564074
1840 0.39731997
1838 0.46846297
1836 0.57261598
1834 0.68210518
1832 0.79099822
1830 0.90514225
1828 1.0185001
1826 1.11542
1824 1.1791068
1822 1.1964645
1820 1.170398
1818 1.113566
1816 1.0357685
1814 0.94529563
1812 0.85762358
1810 0.79258728
1808 0.76696408
1806 0.78644997
1804 0.81825173
1802 0.8100158
1800 0.7355479
1798 0.59992671
1796 0.45675358
1794 0.37911648
1792 0.39089319
1790 0.47265381
1788 0.57697827
1786 0.64944768
1784 0.67015123
1782 0.64731795
1780 0.6005863
1778 0.5523482
1776 0.51602
1774 0.49506626
1772 0.47898561
1770 0.44905835
1768 0.38994184
1766 0.29634929
1764 0.192764
1762 0.11241984
1760 0.033205584
1758 -0.096402392
1756 -0.26719671
1754 -0.42697063
1752 -0.55457276
1750 -0.6583848
1748 -0.74742907
1746 -0.82669002
1744 -0.89895546
1742 -0.96275294
1740 -1.0019854
1738 -0.99132442
1736 -0.91225803
1734 -0.76046449
1732 -0.56663984
1730 -0.38375154
1728 -0.24981394
1726 -0.18033001
1724 -0.15593769
1722 -0.12452701
1720 0.0046627298
1718 0.33439615
1716 0.90099061
1714 1.6721249
1712 2.553901
1710 3.4358425
1708 4.3175321
1706 5.3045716
1704 6.5641794
1702 8.3025265
1700 10.745024
1698 14.040114
1696 17.926287
1694 21.84396
1692 25.391302
1690 28.435612
1688 31.265196
1686 34.465538
1684 38.539371
1682 43.718529
1680 49.511841
1678 54.980202
1676 59.815186
1674 64.350601
1672 69.02343
1670 74.14119
1668 79.475151
1666 84.393097
1664 88.494263
1662 91.686607
1660 94.042885
1658 95.724533
1656 96.861458
1654 97.528763
1652 97.746857
1650 97.494102
1648 96.75029
1646 95.531319
1644 93.989235
1642 92.356445
1640 90.683601
1638 88.82901
1636 86.593018
1634 83.795334
1632 80.433273
1630 76.65155
1628 72.518486
1626 68.00972
1624 63.133522
1622 57.97298
1620 52.74234
1618 47.748867
1616 43.214798
1614 39.246685
1612 35.863968
1610 33.013901
1608 30.598343
1606 28.499914
1604 26.658173
1602 25.074768
1600 23.767668
1598 22.756771
1596 22.044998
1594 21.617414
1592 21.453108
1590 21.528681
1588 21.821726
1586 22.309351
1584 22.96176
1582 23.75095
1580 24.701466
1578 25.897642
1576 27.450686
1574 29.466171
1572 31.94523
1570 34.772285
1568 37.778
1566 40.767651
1564 43.579082
1562 46.135227
1560 48.587818
1558 51.249062
1556 54.0961
1554 56.71167
1552 58.676636
1550 59.717701
1548 59.887924
1546 59.522785
1544 58.766384
1542 57.503483
1540 55.669441
1538 53.349392
1536 50.806744
1534 48.423618
1532 46.364586
1530 44.513481
1528 42.695148
1526 40.741447
1524 38.529949
1522 36.01955
1520 33.321308
1518 30.690065
1516 28.337757
1514 26.348492
1512 24.58112
1510 22.692158
1508 20.472988
1506 17.956921
1504 15.370943
1502 13.070568
1500 11.215497
1498 9.6929131
1496 8.3263283
1494 6.9506993
1492 5.4995289
1490 4.0296884
1488 2.6410251
1486 1.4486542
1484 0.54039502
1482 -0.042167187
1480 -0.30926612
1478 -0.30898196
1476 -0.018146873
1474 0.66667962
1472 1.758464
1470 3.13116
1468 4.6247616
1466 6.0874968
1464 7.4398413
1462 8.6930904
1460 9.8714809
1458 10.984536
1456 12.0104
1454 12.890501
1452 13.556734
1450 13.947517
1448 14.046765
1446 13.898
1444 13.556946
1442 13.07533
1440 12.472606
1438 11.7298
1436 10.825429
1434 9.7597666
1432 8.5989552
1430 7.4851336
1428 6.5387621
1426 5.8195453
1424 5.3335209
1422 5.0327144
1420 4.8707743
1418 4.8231115
1416 4.8864002
1414 5.0775561
1412 5.4012923
1410 5.8372865
1408 6.3519483
1406 6.8996296
1404 7.4245405
1402 7.8613181
1400 8.1484118
1398 8.2389145
1396 8.1252069
1394 7.8531933
1392 7.4832702
1390 7.076293
1388 6.6731853
1386 6.2848749
1384 5.9143977
1382 5.5604887
1380 5.2085872
1378 4.8264294
1376 4.3841486
1374 3.8645103
1372 3.2714999
1370 2.6345451
1368 1.9762098
1366 1.3023193
1364 0.63131917
1362 0.010027975
1360 -0.49057087
1358 -0.78074861
1356 -0.81921685
1354 -0.64500964
1352 -0.30156082
1350 0.18544602
1348 0.77275467
1346 1.3877608
1344 1.980312
1342 2.5460734
1340 3.087034
1338 3.5945377
1336 4.0335855
1334 4.3340054
1332 4.4423409
1330 4.350071
1328 4.0862927
1326 3.7237928
1324 3.3379271
1322 2.9887142
1320 2.7130382
1318 2.513716
1316 2.3778601
1314 2.2798812
1312 2.1954401
1310 2.1078045
1308 2.0067987
1306 1.8916149
1304 1.7681252
1302 1.6510299
1300 1.5634426
1298 1.5392857
1296 1.6160001
1294 1.8295752
1292 2.1996715
1290 2.7150085
1288 3.3406479
1286 4.0131721
1284 4.6683426
1282 5.2543688
1280 5.7338219
1278 6.0923896
1276 6.3329744
1274 6.4816084
1272 6.5795817
1270 6.6842537
1268 6.8446603
1266 7.085691
1264 7.4161401
1262 7.8264813
1260 8.311204
1258 8.8806734
1256 9.5513945
1254 10.342841
1252 11.261303
1250 12.285109
1248 13.378343
1246 14.48425
1244 15.550301
1242 16.537405
1240 17.410692
1238 18.140549
1236 18.690742
1234 19.011005
1232 19.04812
1230 18.748629
1228 18.086931
1226 17.09025
1224 15.823422
1222 14.4007
1220 12.949694
1218 11.59885
1216 10.454223
1214 9.5751839
1212 8.9940586
1210 8.7028532
1208 8.6645384
1206 8.7985229
1204 8.9981623
1202 9.1268387
1200 9.0660715
1198 8.7542868
1196 8.1792431
1194 7.4045153
1192 6.5180178
1190 5.6184959
1188 4.7908821
1186 4.0818906
1184 3.5101006
1182 3.0536339
1180 2.6844854
1178 2.3833141
1176 2.1400201
1174 1.9602176
1172 1.8492643
1170 1.8035697
1168 1.8149424
1166 1.8685451
1164 1.9415195
1162 1.9982951
1160 2.0073383
1158 1.9553185
1156 1.84405
1154 1.6978986
1152 1.5349748
1150 1.3471301
1148 1.1234866
1146 0.86304855
1144 0.58309418
1142 0.33537948
1140 0.1562922
1138 0.028197892
1136 -0.071004286
1134 -0.1437991
1132 -0.19019988
1130 -0.21598227
1128 -0.23275337
1126 -0.26176035
1124 -0.31752074
1122 -0.39149469
1120 -0.4601588
1118 -0.47929561
1116 -0.42258573
1114 -0.31976563
1112 -0.21319908
1110 -0.14100941
1108 -0.11916368
1106 -0.11153055
1104 -0.076472223
1102 0.0091427192
1100 0.15513517
1098 0.3493647
1096 0.57946002
1094 0.846264
1092 1.15714
1090 1.5274767
1088 1.9680246
1086 2.4716744
1084 3.0122283
1082 3.5265243
1080 3.9453933
1078 4.2110863
1076 4.2930961
1074 4.2266693
1072 4.069171
1070 3.8931034
1068 3.7527981
1066 3.6445365
1064 3.543232
1062 3.4066668
1060 3.2063046
1058 2.9627118
1056 2.7105541
1054 2.4898641
1052 2.3294203
1050 2.223088
1048 2.1575913
1046 2.1245999
1044 2.1194997
1042 2.1460886
1040 2.2111158
1038 2.3233473
1036 2.4862299
1034 2.6850452
1032 2.8838062
1030 2.9996316
1028 2.9607949
1026 2.7643685
1024 2.4479978
1022 2.1185811
1020 1.8659183
1018 1.6777866
1016 1.5087143
1014 1.289587
1012 0.97393489
1010 0.60167938
1008 0.2294782
1006 -0.10047781
1004 -0.35740578
1002 -0.53506947
1000 -0.63702655
998 -0.67921227
996 -0.69126576
994 -0.73519433
992 -0.85851061
990 -1.0367967
988 -1.2219663
986 -1.3481622
984 -1.3668017
982 -1.2985066
980 -1.1804639
978 -1.045408
976 -0.91584575
974 -0.78335392
972 -0.63609809
970 -0.4763009
968 -0.31652972
966 -0.192035
964 -0.13240306
962 -0.12881964
960 -0.15967521
958 -0.19264929
956 -0.20376299
954 -0.20687872
952 -0.2151196
950 -0.20627505
948 -0.1561759
946 -0.064197503
944 0.07159701
942 0.27812928
940 0.5719142
938 0.90979153
936 1.2356572
934 1.5006334
932 1.6687032
930 1.7447604
928 1.7508183
926 1.7344272
924 1.7306199
922 1.7055141
920 1.6192726
918 1.4775324
916 1.31554
914 1.2367549
912 1.3361971
910 1.608144
908 2.012454
906 2.4729514
904 2.9131749
902 3.2928462
900 3.5829201
898 3.7644811
896 3.8211
