Image.
>Pix99999.
  .
5555
5555
2300
900
5555
2
1
0
701
5555
-7.2041000e-003
-7.3539857e-003
-7.5038713e-003
-7.6537570e-003
-7.8035425e-003
-7.9533290e-003
-8.1032142e-003
-8.2532968e-003
-8.4030852e-003
-8.5521806e-003
-8.7027457e-003
-8.8552991e-003
-9.0025729e-003
-9.1426959e-003
-9.3020014e-003
-9.4882911e-003
-9.6027171e-003
-9.6167158e-003
-9.8980814e-003
-1.0553909e-002
-1.0216457e-002
-8.4815342e-003
-1.0440698e-002
-1.7608698e-002
-1.1047509e-002
2.1595929e-002
4.3328930e-002
1.3794659e-002
-6.5201201e-002
-1.7776516e-001
-2.9961556e-001
-4.1212937e-001
-5.2870369e-001
-6.6373384e-001
-7.9833597e-001
-9.0696698e-001
-9.7656780e-001
-1.0030183e+000
-1.0031651e+000
-9.9569678e-001
-9.8166400e-001
-9.5599574e-001
-9.1031700e-001
-8.3951926e-001
-7.5542223e-001
-6.7683232e-001
-6.2986922e-001
-6.3918710e-001
-7.1468669e-001
-8.5537410e-001
-1.0347821e+000
-1.2179307e+000
-1.3678429e+000
-1.4535747e+000
-1.4726200e+000
-1.4346315e+000
-1.3636800e+000
-1.2878048e+000
-1.2315240e+000
-1.2149125e+000
-1.2426001e+000
-1.3090174e+000
-1.3873763e+000
-1.4486361e+000
-1.4831651e+000
-1.4927222e+000
-1.4981097e+000
-1.5214784e+000
-1.5653411e+000
-1.6236153e+000
-1.6836801e+000
-1.7331909e+000
-1.7693206e+000
-1.7939492e+000
-1.8154483e+000
-1.8413607e+000
-1.8676445e+000
-1.8836720e+000
-1.8695723e+000
-1.8086050e+000
-1.7096944e+000
-1.5931121e+000
-1.4867001e+000
-1.4186056e+000
-1.4091641e+000
-1.4711028e+000
-1.5981143e+000
-1.7694386e+000
-1.9318103e+000
-2.0310807e+000
-2.0568914e+000
-2.0233300e+000
-1.9778720e+000
-1.9695455e+000
-2.0052135e+000
-2.0708680e+000
-2.1340561e+000
-2.1629298e+000
-2.1553640e+000
-2.1244943e+000
-2.0965571e+000
-2.0997169e+000
-2.1484838e+000
-2.2452118e+000
-2.3635228e+000
-2.4658201e+000
-2.5141339e+000
-2.4809620e+000
-2.3805332e+000
-2.2453001e+000
-2.1146028e+000
-2.0234516e+000
-1.9796920e+000
-1.9785961e+000
-2.0076280e+000
-2.0519607e+000
-2.0974767e+000
-2.1330674e+000
-2.1578228e+000
-2.1777191e+000
-2.2091713e+000
-2.2679372e+000
-2.3495986e+000
-2.4398396e+000
-2.5195892e+000
-2.5729749e+000
-2.6037400e+000
-2.6216972e+000
-2.6256623e+000
-2.6077912e+000
-2.5531328e+000
-2.4515355e+000
-2.3249085e+000
-2.2089319e+000
-2.1372879e+000
-2.1308079e+000
-2.1631200e+000
-2.1908681e+000
-2.1871290e+000
-2.1445279e+000
-2.1020200e+000
-2.1107500e+000
-2.1882572e+000
-2.3276098e+000
-2.4897366e+000
-2.6278021e+000
-2.7210844e+000
-2.7637799e+000
-2.7591445e+000
-2.7139878e+000
-2.6369929e+000
-2.5415342e+000
-2.4581976e+000
-2.4209173e+000
-2.4432240e+000
-2.5226507e+000
-2.6315165e+000
-2.7329199e+000
-2.7986472e+000
-2.8086178e+000
-2.7559600e+000
-2.6445811e+000
-2.4991541e+000
-2.3551424e+000
-2.2529562e+000
-2.2260678e+000
-2.2706056e+000
-2.3606858e+000
-2.4560678e+000
-2.5178423e+000
-2.5374928e+000
-2.5241566e+000
-2.4944348e+000
-2.4661481e+000
-2.4500320e+000
-2.4517000e+000
-2.4695439e+000
-2.4976385e+000
-2.5267019e+000
-2.5467272e+000
-2.5525858e+000
-2.5441287e+000
-2.5306399e+000
-2.5237503e+000
-2.5256960e+000
-2.5282714e+000
-2.5035405e+000
-2.4228733e+000
-2.2993007e+000
-2.1664829e+000
-2.0457215e+000
-1.9452395e+000
-1.8561177e+000
-1.7696942e+000
-1.7172025e+000
-1.7424879e+000
-1.8445560e+000
-1.9896755e+000
-2.1181531e+000
-2.1685908e+000
-2.1257999e+000
-2.0086238e+000
-1.8654603e+000
-1.7552819e+000
-1.7203434e+000
-1.7796285e+000
-1.8994011e+000
-2.0204380e+000
-2.1016805e+000
-2.1237447e+000
-2.1037700e+000
-2.0718868e+000
-2.0274217e+000
-1.9527076e+000
-1.8439800e+000
-1.7146878e+000
-1.6075376e+000
-1.5720280e+000
-1.6138506e+000
-1.7096545e+000
-1.8330371e+000
-1.9616622e+000
-2.0866010e+000
-2.2062085e+000
-2.3143840e+000
-2.4003928e+000
-2.4479489e+000
-2.4411991e+000
-2.3799360e+000
-2.2743299e+000
-2.1356258e+000
-1.9715601e+000
-1.7756703e+000
-1.5420492e+000
-1.3075180e+000
-1.1336157e+000
-1.0650445e+000
-1.1194909e+000
-1.2552940e+000
-1.3971413e+000
-1.4841399e+000
-1.4807140e+000
-1.4042343e+000
-1.3039126e+000
-1.2218879e+000
-1.1871850e+000
-1.2080375e+000
-1.2755893e+000
-1.3614583e+000
-1.4241055e+000
-1.4155929e+000
-1.2994695e+000
-1.1050639e+000
-8.9883626e-001
-7.1181321e-001
-5.4301512e-001
-3.8186938e-001
-2.1920563e-001
-6.5161258e-002
6.3022107e-002
1.7860143e-001
3.1172365e-001
4.6419275e-001
6.0695553e-001
6.7474133e-001
6.0159600e-001
4.2260480e-001
2.3351851e-001
6.3286282e-002
-1.0323066e-001
-2.1672913e-001
-1.8827671e-001
2.3833886e-003
3.0565900e-001
6.1482638e-001
8.0209786e-001
8.0005455e-001
6.1512220e-001
3.6714503e-001
2.2980522e-001
2.6657000e-001
4.2938200e-001
5.8701301e-001
5.8540183e-001
3.9445582e-001
9.7746879e-002
-1.6399318e-001
-2.2241800e-001
8.4520340e-002
8.6113846e-001
1.9842899e+000
3.1733029e+000
4.2318730e+000
5.0968027e+000
5.8972220e+000
6.8983722e+000
8.3590851e+000
1.0490185e+001
1.3396854e+001
1.7037056e+001
2.1045715e+001
2.4863091e+001
2.8183886e+001
3.1024466e+001
3.3762394e+001
3.6992111e+001
4.1127949e+001
4.6266209e+001
5.1880360e+001
5.7104324e+001
6.1749184e+001
6.6260391e+001
7.1053780e+001
7.6301682e+001
8.1638039e+001
8.6339699e+001
9.0032692e+001
9.2740318e+001
9.4619675e+001
9.5861931e+001
9.6590317e+001
9.6857651e+001
9.6698540e+001
9.6136765e+001
9.5158630e+001
9.3744675e+001
9.1996552e+001
9.0100647e+001
8.8115349e+001
8.5950066e+001
8.3439758e+001
8.0414787e+001
7.6883728e+001
7.3005089e+001
6.8854462e+001
6.4405777e+001
5.9658722e+001
5.4679733e+001
4.9647182e+001
4.4820068e+001
4.0386715e+001
3.6441994e+001
3.3033047e+001
3.0166430e+001
2.7785908e+001
2.5787870e+001
2.4098143e+001
2.2683994e+001
2.1538109e+001
2.0668957e+001
2.0070000e+001
1.9716839e+001
1.9585571e+001
1.9657766e+001
1.9930346e+001
2.0412279e+001
2.1098755e+001
2.1981649e+001
2.3115234e+001
2.4615347e+001
2.6573887e+001
2.9015213e+001
3.1820669e+001
3.4747662e+001
3.7614281e+001
4.0335121e+001
4.2854053e+001
4.5171844e+001
4.7520550e+001
5.0284874e+001
5.3434071e+001
5.6454361e+001
5.8806355e+001
6.0111454e+001
6.0413116e+001
6.0130787e+001
5.9463356e+001
5.8285625e+001
5.6471657e+001
5.4022007e+001
5.1208374e+001
4.8530945e+001
4.6277977e+001
4.4428711e+001
4.2843407e+001
4.1319801e+001
3.9660610e+001
3.7713879e+001
3.5462742e+001
3.3045502e+001
3.0656887e+001
2.8475782e+001
2.6451561e+001
2.4290743e+001
2.1796715e+001
1.8988157e+001
1.6112120e+001
1.3586849e+001
1.1599826e+001
1.0017389e+001
8.6502714e+000
7.3409433e+000
6.0327039e+000
4.7750688e+000
3.5971658e+000
2.4840250e+000
1.4618578e+000
6.1738849e-001
3.5741150e-002
-2.1066342e-001
-2.2997141e-002
7.0205730e-001
1.9000320e+000
3.3058820e+000
4.6952248e+000
5.9651656e+000
7.1097307e+000
8.2113037e+000
9.3486700e+000
1.0554384e+001
1.1759600e+001
1.2784388e+001
1.3474508e+001
1.3753727e+001
1.3642560e+001
1.3263500e+001
1.2744060e+001
1.2178650e+001
1.1614068e+001
1.1036101e+001
1.0395991e+001
9.6277552e+000
8.7315855e+000
7.8021297e+000
6.9532399e+000
6.2859449e+000
5.8423886e+000
5.5868745e+000
5.4678879e+000
5.4400063e+000
5.4840140e+000
5.6144357e+000
5.8442230e+000
6.1710763e+000
6.5736856e+000
7.0089750e+000
7.4300656e+000
7.7910829e+000
8.0448360e+000
8.1449423e+000
8.0627146e+000
7.7998476e+000
7.3923898e+000
6.9145708e+000
6.4321017e+000
5.9834499e+000
5.5887718e+000
5.2473388e+000
4.9403439e+000
4.6282301e+000
4.2653232e+000
3.8094649e+000
3.2532220e+000
2.6399739e+000
2.0192509e+000
1.4298779e+000
8.9295793e-001
4.0944961e-001
-3.4981221e-003
-2.9915839e-001
-4.3952057e-001
-4.1143131e-001
-2.1185383e-001
1.5241754e-001
6.5723169e-001
1.2562572e+000
1.9099159e+000
2.5940337e+000
3.2671514e+000
3.8545103e+000
4.2768145e+000
4.4670777e+000
4.4076476e+000
4.1570368e+000
3.7896821e+000
3.3772335e+000
2.9852166e+000
2.6667936e+000
2.4513555e+000
2.3294616e+000
2.2626801e+000
2.1817384e+000
2.0326319e+000
1.8026918e+000
1.5113482e+000
1.2160364e+000
9.7429496e-001
8.2636410e-001
7.9356718e-001
8.7111157e-001
1.0486071e+000
1.3171701e+000
1.6738183e+000
2.1234643e+000
2.6600080e+000
3.2532935e+000
3.8592780e+000
4.4209881e+000
4.8905048e+000
5.2440343e+000
5.4786830e+000
5.6204829e+000
5.7082548e+000
5.7902493e+000
5.9099960e+000
6.0978208e+000
6.3748946e+000
6.7516022e+000
7.2350121e+000
7.8300610e+000
8.5387373e+000
9.3573332e+000
1.0278505e+001
1.1290063e+001
1.2375868e+001
1.3516750e+001
1.4682100e+001
1.5815679e+001
1.6847126e+001
1.7686563e+001
1.8254385e+001
1.8498964e+001
1.8387600e+001
1.7920843e+001
1.7122402e+001
1.6047121e+001
1.4765343e+001
1.3367549e+001
1.1951712e+001
1.0619515e+001
9.4614630e+000
8.5369434e+000
7.8868942e+000
7.5230908e+000
7.4290733e+000
7.5409470e+000
7.7602420e+000
7.9435539e+000
7.9599938e+000
7.7323093e+000
7.2346644e+000
6.5228624e+000
5.6775141e+000
4.7891788e+000
3.9349012e+000
3.1566622e+000
2.4811046e+000
1.9194620e+000
1.4813745e+000
1.1798120e+000
1.0162020e+000
9.6398461e-001
9.8697281e-001
1.0434624e+000
1.1043897e+000
1.1708329e+000
1.2428237e+000
1.3013040e+000
1.3211675e+000
1.2760266e+000
1.1587787e+000
1.0067250e+000
8.6076993e-001
7.4470085e-001
6.6281217e-001
5.8529145e-001
4.8571557e-001
3.6368099e-001
2.1899757e-001
3.9519116e-002
-1.7208201e-001
-3.7231803e-001
-5.1633954e-001
-5.8041120e-001
-5.5675602e-001
-4.6392208e-001
-3.2766074e-001
-1.7472315e-001
-2.1395281e-002
1.4170654e-001
3.2550943e-001
5.2902710e-001
7.4266273e-001
9.4288111e-001
1.1071285e+000
1.2240900e+000
1.2900937e+000
1.3146559e+000
1.3137006e+000
1.3123991e+000
1.3403000e+000
1.4327369e+000
1.6241460e+000
1.9419774e+000
2.3941314e+000
2.9411385e+000
3.5161479e+000
4.0124464e+000
4.3358779e+000
4.4524860e+000
4.3652272e+000
4.1350121e+000
3.8261251e+000
3.4752340e+000
3.1176732e+000
2.8034005e+000
2.5867958e+000
2.5217998e+000
2.6314309e+000
2.8542690e+000
3.1028628e+000
3.2769272e+000
3.3011096e+000
3.1787322e+000
2.9447868e+000
2.6681392e+000
2.4154246e+000
2.2222109e+000
2.1141233e+000
2.1093791e+000
2.2167299e+000
2.4214792e+000
2.6857650e+000
2.9217467e+000
3.0464098e+000
3.0273070e+000
2.8640440e+000
2.6139250e+000
2.3363342e+000
2.0542700e+000
1.7783142e+000
1.5084704e+000
1.2413601e+000
9.7139239e-001
6.9180322e-001
3.9536852e-001
8.7959573e-002
-1.8402717e-001
-3.7528223e-001
-4.7569644e-001
-4.9396715e-001
-4.7062099e-001
-4.4727764e-001
-4.4406709e-001
-4.7424981e-001
-5.4561234e-001
-6.5693510e-001
-7.8196597e-001
-8.8489217e-001
-9.1968733e-001
-8.5299540e-001
-7.0228070e-001
-5.0487971e-001
-3.2226804e-001
-2.1114646e-001
-1.9168049e-001
-2.6367977e-001
-3.8865849e-001
-5.2013093e-001
-6.1716461e-001
-6.5125316e-001
-6.3195086e-001
-5.7218915e-001
-4.6397001e-001
-3.0232716e-001
-1.1104675e-001
8.9916676e-002
3.1936717e-001
5.9444797e-001
8.9217550e-001
1.1935829e+000
1.5302218e+000
1.9290491e+000
2.3536482e+000
2.7528224e+000
3.0791099e+000
3.2964380e+000
3.4065013e+000
3.4272611e+000
3.4017308e+000
3.3789899e+000
3.4073155e+000
3.5178137e+000
3.6762781e+000
3.8334651e+000
3.9454751e+000
3.9981167e+000
4.0890040e+000
4.3234487e+000
4.7252183e+000
5.2972999e+000
