Image.
>Pix99999.
  .
5555
5555
2300
900
5555
2
1
0
701
5555
4.8833001e-002
4.9848545e-002
5.0864093e-002
5.1880639e-002
5.2896187e-002
5.3912729e-002
5.4928284e-002
5.5943832e-002
5.6960367e-002
5.7975926e-002
5.8991473e-002
6.0008004e-002
6.1023567e-002
6.2039115e-002
6.3055634e-002
6.4071208e-002
6.5086752e-002
6.6103280e-002
6.7118846e-002
6.8134397e-002
6.9150910e-002
7.0166491e-002
7.1182035e-002
7.2198555e-002
7.3214129e-002
7.4230641e-002
3.0138293e-002
1.0968171e-003
-2.9648639e-002
-4.5294207e-002
-5.8697727e-002
-7.5517140e-002
-9.3077831e-002
-1.2157970e-001
-1.4933312e-001
-1.6686800e-001
-1.7959613e-001
-1.7275758e-001
-1.6989061e-001
-1.8229011e-001
-2.0127429e-001
-2.3274107e-001
-2.4720719e-001
-2.3274882e-001
-2.1542497e-001
-1.9674793e-001
-2.2046675e-001
-2.8513190e-001
-3.7316260e-001
-4.7666243e-001
-5.6979924e-001
-6.5635675e-001
-7.2353351e-001
-7.8240752e-001
-7.6075929e-001
-7.1311671e-001
-5.8158082e-001
-4.3111435e-001
-3.2821965e-001
-2.3361488e-001
-2.2395943e-001
-2.2339834e-001
-2.3757829e-001
-2.5412059e-001
-2.7621731e-001
-3.0197549e-001
-3.3908886e-001
-3.7571546e-001
-4.0817365e-001
-4.2893097e-001
-4.2830402e-001
-4.2127171e-001
-4.0816531e-001
-4.0212810e-001
-4.0475577e-001
-3.9659429e-001
-3.7808907e-001
-3.3339131e-001
-2.7122590e-001
-2.1365593e-001
-1.5957086e-001
-1.6522521e-001
-1.9590428e-001
-3.0302054e-001
-4.3380040e-001
-5.9365880e-001
-7.5984865e-001
-8.6343652e-001
-9.5185238e-001
-9.4315219e-001
-9.1610658e-001
-8.5547668e-001
-7.8960687e-001
-7.2210300e-001
-6.5271509e-001
-5.7834703e-001
-5.0889623e-001
-4.5193776e-001
-4.0690580e-001
-3.7881482e-001
-3.5438713e-001
-3.3148673e-001
-3.1449017e-001
-3.0338261e-001
-3.2938817e-001
-3.8536850e-001
-4.8267689e-001
-6.0453463e-001
-7.0678836e-001
-7.9704076e-001
-8.2292598e-001
-8.2267094e-001
-7.5526875e-001
-6.6704857e-001
-5.4911608e-001
-4.2644116e-001
-4.0790686e-001
-4.1967347e-001
-5.3353935e-001
-6.6160321e-001
-7.5695115e-001
-8.3650380e-001
-8.8248140e-001
-9.2204940e-001
-9.6213996e-001
-1.0010840e+000
-1.0374380e+000
-1.0826185e+000
-1.1418629e+000
-1.2103000e+000
-1.2866329e+000
-1.3558866e+000
-1.4167800e+000
-1.4663939e+000
-1.5082281e+000
-1.5215693e+000
-1.5173405e+000
-1.4626758e+000
-1.3831431e+000
-1.3244044e+000
-1.2758200e+000
-1.3035933e+000
-1.3567631e+000
-1.4099933e+000
-1.4611497e+000
-1.4857129e+000
-1.5015880e+000
-1.5035360e+000
-1.5017806e+000
-1.4987237e+000
-1.5056214e+000
-1.5436203e+000
-1.5873977e+000
-1.6267288e+000
-1.6420420e+000
-1.6173729e+000
-1.5840765e+000
-1.5520322e+000
-1.5328985e+000
-1.5280861e+000
-1.4770172e+000
-1.3802260e+000
-1.1766460e+000
-8.9847183e-001
-6.6608769e-001
-4.7148991e-001
-4.9977183e-001
-6.4252299e-001
-8.1718796e-001
-9.9938476e-001
-1.0540485e+000
-1.0614809e+000
-1.0350423e+000
-9.9958980e-001
-9.7556829e-001
-9.6608746e-001
-1.0148342e+000
-1.0981957e+000
-1.2404617e+000
-1.3809599e+000
-1.4696515e+000
-1.5022165e+000
-1.4525360e+000
-1.3631618e+000
-1.2482948e+000
-1.0887743e+000
-8.8016480e-001
-6.0928303e-001
-2.8511897e-001
-4.6558786e-002
1.0292105e-001
1.3487059e-001
9.2305243e-002
1.3468203e-002
-7.9509974e-002
-3.0513805e-001
-6.0227919e-001
-8.9057869e-001
-1.1709293e+000
-1.1716146e+000
-1.0540429e+000
-8.3335876e-001
-5.9767544e-001
-5.3158122e-001
-5.6789982e-001
-7.6527727e-001
-1.0271703e+000
-1.3027339e+000
-1.5436617e+000
-1.6923970e+000
-1.7275100e+000
-1.6114974e+000
-1.3602743e+000
-9.8057479e-001
-6.3822043e-001
-3.9272022e-001
-3.7792829e-001
-5.7741529e-001
-8.3525050e-001
-1.0955691e+000
-1.2275628e+000
-1.2597010e+000
-1.1299918e+000
-9.0451610e-001
-5.4835999e-001
-1.2397551e-001
1.0624810e-001
2.2146139e-001
-2.2841826e-002
-4.2859471e-001
-7.7188301e-001
-1.0303577e+000
-9.9610490e-001
-7.8305376e-001
-3.9813441e-001
-1.9848496e-002
1.4047109e-001
7.7507108e-002
-2.6885828e-001
-6.9614971e-001
-1.0720702e+000
-1.3016469e+000
-1.3472005e+000
-1.2887838e+000
-1.1786851e+000
-1.0338939e+000
-8.6904991e-001
-6.3512093e-001
-3.4270892e-001
-2.0251587e-002
3.1593570e-001
5.6104100e-001
7.3961437e-001
7.4426907e-001
6.4376098e-001
5.0710803e-001
3.6141565e-001
3.1921816e-001
3.5852775e-001
5.5718261e-001
8.5206711e-001
1.1953723e+000
1.4607586e+000
1.4040149e+000
1.1257937e+000
6.8819463e-001
2.9236880e-001
1.2433659e-001
3.7202995e-002
-7.4470639e-002
-1.0141879e-001
4.2370744e-003
3.8605934e-001
1.0489517e+000
1.7282863e+000
2.3325429e+000
2.4784663e+000
2.2064593e+000
1.8477139e+000
1.4891270e+000
1.4871800e+000
1.7594349e+000
1.8616426e+000
1.8071681e+000
1.2891158e+000
4.9579012e-001
-5.4839209e-002
-3.2366601e-001
1.2548640e-001
1.1917623e+000
2.7508099e+000
4.3704853e+000
5.4293461e+000
6.1186142e+000
6.6486602e+000
7.4266181e+000
8.8256388e+000
1.1063709e+001
1.4208189e+001
1.7903625e+001
2.1858999e+001
2.5307140e+001
2.8006920e+001
3.0451889e+001
3.2864239e+001
3.6141750e+001
4.0301609e+001
4.5073570e+001
5.0259083e+001
5.4579090e+001
5.8123898e+001
6.1632557e+001
6.5197525e+001
6.9361755e+001
7.3954651e+001
7.8411301e+001
8.2695908e+001
8.6654053e+001
9.0310204e+001
9.3693512e+001
9.6824402e+001
9.9738747e+001
1.0218100e+002
1.0385399e+002
1.0408012e+002
1.0234500e+002
9.9401360e+001
9.5981461e+001
9.2453445e+001
8.9054726e+001
8.5233269e+001
8.0801819e+001
7.6090210e+001
7.1252678e+001
6.6698212e+001
6.2483685e+001
5.8253517e+001
5.3954956e+001
4.9749889e+001
4.5649151e+001
4.1748230e+001
3.8069172e+001
3.4758156e+001
3.1849760e+001
2.9424446e+001
2.7463556e+001
2.5825472e+001
2.4498121e+001
2.3399794e+001
2.2527857e+001
2.1840500e+001
2.1334124e+001
2.0977291e+001
2.0759182e+001
2.0650826e+001
2.0699871e+001
2.0925955e+001
2.1400890e+001
2.2145958e+001
2.3220900e+001
2.4632057e+001
2.6211304e+001
2.7894270e+001
2.9385969e+001
3.0622839e+001
3.1708992e+001
3.2665581e+001
3.3933376e+001
3.5623653e+001
3.8222149e+001
4.1684402e+001
4.4852062e+001
4.7540688e+001
4.9309071e+001
5.0313290e+001
5.1383392e+001
5.2523304e+001
5.3716942e+001
5.4527740e+001
5.4304253e+001
5.3131172e+001
5.1284504e+001
4.9255928e+001
4.7578110e+001
4.6245464e+001
4.5238201e+001
4.4347836e+001
4.3445442e+001
4.2138149e+001
4.0221218e+001
3.8022556e+001
3.5619797e+001
3.3391640e+001
3.1443436e+001
2.9147055e+001
2.6359207e+001
2.3365046e+001
2.0193039e+001
1.7548670e+001
1.5518300e+001
1.3664429e+001
1.1996798e+001
1.0365389e+001
8.7523623e+000
7.0916815e+000
5.3797541e+000
3.6318960e+000
2.0175419e+000
7.9936069e-001
9.2482425e-002
1.6163573e-002
5.2634811e-001
1.4752171e+000
2.4261539e+000
3.0560131e+000
3.4623830e+000
3.6726811e+000
4.0137420e+000
4.6646719e+000
5.4641943e+000
6.4079599e+000
7.0091338e+000
7.0477033e+000
6.8299561e+000
6.2730346e+000
5.7316642e+000
5.2249441e+000
4.8093357e+000
4.5300360e+000
4.3846383e+000
4.3669858e+000
4.2930341e+000
4.1184201e+000
3.7869852e+000
3.3638361e+000
3.0480428e+000
2.8963733e+000
2.9727530e+000
3.2223666e+000
3.5565045e+000
3.8722258e+000
4.0526237e+000
4.1524348e+000
4.1994610e+000
4.2856989e+000
4.4835000e+000
4.7757597e+000
5.1993742e+000
5.6754284e+000
6.2120819e+000
6.6551218e+000
6.9089055e+000
6.9647293e+000
6.6897016e+000
6.3116188e+000
5.7845049e+000
5.2456169e+000
4.7083635e+000
4.2453752e+000
3.8869400e+000
3.6145201e+000
3.4199874e+000
3.2106540e+000
2.9766793e+000
2.7051640e+000
2.4106801e+000
2.1253996e+000
1.8370456e+000
1.5266783e+000
1.2013807e+000
8.6444813e-001
5.5015981e-001
3.0008698e-001
9.6708231e-002
-3.1362340e-002
-8.2329214e-002
-3.1164080e-002
1.1214788e-001
4.3059832e-001
7.2780854e-001
9.5659429e-001
1.0337706e+000
8.4488183e-001
6.4381582e-001
4.4663188e-001
3.6819637e-001
4.7249717e-001
7.0031679e-001
1.0807807e+000
1.5176919e+000
1.9830300e+000
2.3590045e+000
2.6155589e+000
2.7156060e+000
2.6884565e+000
2.5890393e+000
2.4609082e+000
2.3627341e+000
2.3010323e+000
2.3060954e+000
2.3408859e+000
2.3977826e+000
2.4480138e+000
2.4664400e+000
2.4737000e+000
2.4633522e+000
2.4614358e+000
2.4844275e+000
2.5152931e+000
2.5640066e+000
2.6185243e+000
2.6870251e+000
2.7764461e+000
2.9028459e+000
3.0516832e+000
3.2331407e+000
3.4284890e+000
3.6443069e+000
3.8810899e+000
4.1457562e+000
4.4435601e+000
4.7750645e+000
5.1381421e+000
5.5289116e+000
5.9483953e+000
6.3901501e+000
6.8595386e+000
7.3311720e+000
7.7754512e+000
8.1738462e+000
8.4466629e+000
8.6381035e+000
8.6404400e+000
8.5649176e+000
8.2979031e+000
7.9787507e+000
7.5234976e+000
7.0398521e+000
6.4911771e+000
5.9459381e+000
5.4101658e+000
4.8924680e+000
4.4010072e+000
3.8959417e+000
3.3709395e+000
2.8356121e+000
2.2979598e+000
1.8020227e+000
1.3519257e+000
9.4187558e-001
5.6592929e-001
2.1422976e-001
-1.1038156e-001
-3.7871790e-001
-6.0857278e-001
-7.8134084e-001
-9.3015343e-001
-1.0570432e+000
-1.1623751e+000
-1.2003012e+000
-1.1926399e+000
-1.0372279e+000
-8.5798085e-001
-6.2156743e-001
-4.0829647e-001
-2.6498285e-001
-1.2564506e-001
6.9692656e-003
1.6125920e-001
3.5453531e-001
5.2850473e-001
6.6121131e-001
7.2538358e-001
6.9042408e-001
5.8475924e-001
4.0662393e-001
2.2943594e-001
7.0176758e-002
4.1308831e-003
1.3280787e-002
9.5418826e-002
2.1963230e-001
4.2808080e-001
6.8126875e-001
1.0002203e+000
1.3422065e+000
1.7108922e+000
2.0747499e+000
2.3884201e+000
2.6726298e+000
2.8238599e+000
2.9514263e+000
2.9910121e+000
3.0426111e+000
3.1353478e+000
3.2590649e+000
3.4599457e+000
3.6784830e+000
3.9324250e+000
4.1990232e+000
4.4875426e+000
4.7950130e+000
5.1328616e+000
5.5238042e+000
5.9773526e+000
6.5148997e+000
7.1151943e+000
7.7095113e+000
8.2800474e+000
8.7069035e+000
9.0359402e+000
9.1266651e+000
9.1075382e+000
8.8575535e+000
8.5563393e+000
8.2526255e+000
7.9764481e+000
7.9063840e+000
7.8754158e+000
8.0317926e+000
8.2073917e+000
8.4651613e+000
8.7013979e+000
8.8654461e+000
8.9793253e+000
8.9724894e+000
8.9492865e+000
8.8936968e+000
8.8117666e+000
8.6903753e+000
8.5521498e+000
8.4018345e+000
8.3217316e+000
8.3028975e+000
8.2773714e+000
8.2357702e+000
8.0743113e+000
7.8426199e+000
7.5279746e+000
7.1717057e+000
6.7096057e+000
6.2098265e+000
5.6067042e+000
4.9912057e+000
4.4337282e+000
3.8957329e+000
3.5294595e+000
3.1775508e+000
2.9120522e+000
2.6260767e+000
2.2477000e+000
1.8267829e+000
1.2762876e+000
7.5520730e-001
3.0633652e-001
-5.3621948e-002
-2.6061267e-001
-4.7688162e-001
-7.0676422e-001
-9.5837200e-001
-1.2228371e+000
-1.3223506e+000
-1.2803229e+000
-1.0461450e+000
-6.9729078e-001
-3.8021070e-001
-8.8322520e-002
-1.2382370e-002
-1.2262747e-002
-1.4368421e-001
-2.9945585e-001
-3.7138569e-001
-4.2749801e-001
-3.4599054e-001
-2.5332373e-001
-8.3387569e-002
4.2925701e-003
1.3369226e-001
3.9302695e-001
6.8989360e-001
9.6034801e-001
1.1517662e+000
1.2754729e+000
1.2539846e+000
1.1900942e+000
1.0587316e+000
9.2500734e-001
7.8951561e-001
7.0460665e-001
6.6784632e-001
7.1292973e-001
8.1648701e-001
9.8362678e-001
1.1865220e+000
1.6088467e+000
2.1169391e+000
2.8637328e+000
3.6720390e+000
4.1935606e+000
4.6682854e+000
4.6578999e+000
