Image.
>Pix99999.
  .
5555
5555
2300
900
5555
2
1
0
701
5555
-1.0608000e-002
-1.0828684e-002
-1.1049368e-002
-1.1270053e-002
-1.1490737e-002
-1.1711421e-002
-1.1932106e-002
-1.2152790e-002
-1.2373474e-002
-1.2594159e-002
-1.2814843e-002
-1.3035527e-002
-1.3256212e-002
-1.3476896e-002
-1.3697580e-002
-1.3918264e-002
-1.4138948e-002
-1.4359633e-002
-1.4580317e-002
-1.4801001e-002
-1.5021686e-002
-1.5242370e-002
-1.5463054e-002
-1.5683739e-002
-1.5904423e-002
-1.6125107e-002
-5.9922569e-004
4.2553786e-003
3.7272200e-003
-4.8717640e-002
-1.0876285e-001
-1.8073486e-001
-2.5097904e-001
-2.6367095e-001
-2.6875445e-001
-2.3498000e-001
-2.0075834e-001
-1.7341767e-001
-1.4374152e-001
-1.0573667e-001
-6.2282484e-002
-7.9543926e-003
4.5753635e-002
9.7381890e-002
1.5117446e-001
2.0780279e-001
2.4714972e-001
2.6963249e-001
2.6977530e-001
2.5404668e-001
2.4906285e-001
2.5091171e-001
2.6361418e-001
2.8089666e-001
3.2214358e-001
3.7106305e-001
4.4605678e-001
5.2692908e-001
5.5090237e-001
5.6579363e-001
5.3729659e-001
5.1159734e-001
5.6297469e-001
6.2989616e-001
7.4405640e-001
8.4640628e-001
8.8894635e-001
8.9992368e-001
8.4532070e-001
7.6715559e-001
6.5692103e-001
5.4101020e-001
4.2170537e-001
3.3913809e-001
2.9839009e-001
3.1428108e-001
3.7639356e-001
4.4799918e-001
5.2290386e-001
5.7125694e-001
6.0493970e-001
6.2736803e-001
6.4557898e-001
6.4432937e-001
6.3696319e-001
6.1086649e-001
5.8055818e-001
5.6230694e-001
5.4533470e-001
5.1542443e-001
4.8507157e-001
4.6499929e-001
4.6076468e-001
5.1989794e-001
5.9458649e-001
6.8825865e-001
7.6647258e-001
8.0449772e-001
8.0741060e-001
7.6141536e-001
6.9865429e-001
6.2350011e-001
5.8674288e-001
5.9162349e-001
6.4341170e-001
7.2882301e-001
7.7892339e-001
8.0257922e-001
7.4010175e-001
6.3423854e-001
5.2777100e-001
4.2326277e-001
4.3493241e-001
4.8413375e-001
5.9538788e-001
7.1936959e-001
7.4816120e-001
7.5116086e-001
6.7851371e-001
5.9503090e-001
5.3390539e-001
4.8473182e-001
4.6342719e-001
4.4547841e-001
4.2296046e-001
3.9610571e-001
3.6302760e-001
3.4030667e-001
3.3426213e-001
3.3529618e-001
3.4006342e-001
3.2633290e-001
2.9416674e-001
2.6738390e-001
2.4796209e-001
2.7432007e-001
3.2959950e-001
3.9290145e-001
4.5836422e-001
4.6536332e-001
4.4723201e-001
4.1193369e-001
3.7107828e-001
3.7122598e-001
3.8091806e-001
3.7249735e-001
3.5331246e-001
2.9299060e-001
2.2750737e-001
1.8783833e-001
1.6756427e-001
1.8797483e-001
2.0819388e-001
2.0249127e-001
1.7877220e-001
1.3102071e-001
9.8305680e-002
9.4578147e-002
1.0692878e-001
1.3142355e-001
1.4109914e-001
1.3545410e-001
1.3756417e-001
1.4861943e-001
1.8290240e-001
2.3077071e-001
2.3008440e-001
2.0170484e-001
1.1184284e-001
-3.7180092e-003
-1.2658684e-001
-2.5148809e-001
-3.6948663e-001
-4.8058605e-001
-5.3487414e-001
-5.5701500e-001
-5.0617039e-001
-4.3344468e-001
-3.7493089e-001
-3.4111196e-001
-3.6297086e-001
-4.0595323e-001
-4.5415920e-001
-5.0083226e-001
-5.3875220e-001
-5.8689988e-001
-6.4922267e-001
-7.0751083e-001
-7.5949997e-001
-7.7331978e-001
-7.5782043e-001
-7.1591008e-001
-6.5850508e-001
-5.9619862e-001
-5.3150791e-001
-4.9607292e-001
-4.7751719e-001
-4.8576963e-001
-5.0671625e-001
-4.7214419e-001
-4.1311288e-001
-3.1533024e-001
-2.1117069e-001
-1.7110920e-001
-1.7048879e-001
-2.3982428e-001
-3.3693412e-001
-4.4056737e-001
-5.3735572e-001
-6.0978323e-001
-6.6165900e-001
-6.8483633e-001
-6.8243992e-001
-6.5210491e-001
-6.1187285e-001
-5.7767963e-001
-5.6818593e-001
-5.8972591e-001
-6.1661869e-001
-6.3834155e-001
-6.6057485e-001
-6.8098456e-001
-7.5828248e-001
-8.7096083e-001
-1.0501744e+000
-1.2616714e+000
-1.4002843e+000
-1.4917439e+000
-1.4252675e+000
-1.2837505e+000
-1.1124157e+000
-9.3479991e-001
-7.7670985e-001
-6.2843311e-001
-4.9005109e-001
-3.6212778e-001
-2.6586527e-001
-2.0966645e-001
-2.0978761e-001
-2.5264990e-001
-3.2361314e-001
-3.9914417e-001
-4.6290743e-001
-4.8748747e-001
-4.7094932e-001
-4.1818851e-001
-3.4119645e-001
-3.3514008e-001
-3.9674160e-001
-5.2719468e-001
-6.9984066e-001
-7.3607147e-001
-6.7434520e-001
-4.9413392e-001
-2.5196880e-001
-7.7567607e-002
4.7603600e-002
1.0033986e-001
1.0456709e-001
6.7312188e-002
2.0640960e-002
2.9596727e-002
9.9008329e-002
2.5053072e-001
3.9986154e-001
4.3653950e-001
3.7907398e-001
2.4753575e-001
7.1100399e-002
-1.2194838e-001
-2.5426102e-001
-2.9080024e-001
-2.4822749e-001
-1.4536001e-001
-4.7359876e-002
2.2340786e-002
-2.8014801e-002
-1.9355957e-001
-3.8692355e-001
-5.8103430e-001
-5.9534401e-001
-4.6601588e-001
-2.4869432e-001
1.0321833e-002
8.2234383e-002
2.0301901e-002
-6.3785091e-002
-1.2583371e-001
4.3447092e-002
4.5456219e-001
1.1669873e+000
2.0112412e+000
2.7319155e+000
3.3414915e+000
3.8655300e+000
4.5081406e+000
5.4714103e+000
7.0419841e+000
9.3601589e+000
1.2713288e+001
1.7079430e+001
2.1599461e+001
2.5865452e+001
2.9593212e+001
3.2819069e+001
3.6380177e+001
4.0404972e+001
4.5101849e+001
5.0330318e+001
5.4894169e+001
5.8836872e+001
6.2670265e+001
6.6496635e+001
7.0889534e+001
7.5671799e+001
8.0195648e+001
8.4416145e+001
8.8138000e+001
9.1386360e+001
9.4192940e+001
9.6524742e+001
9.8344009e+001
9.9604820e+001
1.0027927e+002
1.0024589e+002
9.9427147e+001
9.7988434e+001
9.6151085e+001
9.3811028e+001
9.0992477e+001
8.7349915e+001
8.2843330e+001
7.8094276e+001
7.3344925e+001
6.8767883e+001
6.4386703e+001
5.9733681e+001
5.4776402e+001
4.9967148e+001
4.5349838e+001
4.1246799e+001
3.7662128e+001
3.4591805e+001
3.2022430e+001
2.9822121e+001
2.7975721e+001
2.6368299e+001
2.5036207e+001
2.4009645e+001
2.3297638e+001
2.2865000e+001
2.2678656e+001
2.2657806e+001
2.2764374e+001
2.2941305e+001
2.3201757e+001
2.3550200e+001
2.3999821e+001
2.4554699e+001
2.5291582e+001
2.6232714e+001
2.7424032e+001
2.8861561e+001
3.0382435e+001
3.1945200e+001
3.3395500e+001
3.4713581e+001
3.5985508e+001
3.7266171e+001
3.9108532e+001
4.1576015e+001
4.4353790e+001
4.7258354e+001
4.9486721e+001
5.1011547e+001
5.2128464e+001
5.2831532e+001
5.3246742e+001
5.3357960e+001
5.3163406e+001
5.2656887e+001
5.1887554e+001
5.0911907e+001
4.9850574e+001
4.8730148e+001
4.7573551e+001
4.6280087e+001
4.4775669e+001
4.3052109e+001
4.1071880e+001
3.9083370e+001
3.7169899e+001
3.5154198e+001
3.3007000e+001
3.0258131e+001
2.6751257e+001
2.3329565e+001
2.0087530e+001
1.7493914e+001
1.5628209e+001
1.3843857e+001
1.2148566e+001
1.0464227e+001
8.7876091e+000
7.0877867e+000
5.3869658e+000
3.7378700e+000
2.2545967e+000
1.1172457e+000
3.6874765e-001
5.3927310e-002
2.3197734e-001
8.2644689e-001
1.5697200e+000
2.2858024e+000
2.8577771e+000
3.2115698e+000
3.5028853e+000
3.7942986e+000
4.2199559e+000
4.8550401e+000
5.5474992e+000
6.2709680e+000
6.7741599e+000
6.9371700e+000
6.9747963e+000
6.8442864e+000
6.6838799e+000
6.4782743e+000
6.2048874e+000
5.8396087e+000
5.3640523e+000
4.7968073e+000
4.2536273e+000
3.7756438e+000
3.4506848e+000
3.2816455e+000
3.2432957e+000
3.3360906e+000
3.5391345e+000
3.8388000e+000
4.2237372e+000
4.6220098e+000
4.9960008e+000
5.3416395e+000
5.6523099e+000
5.9597802e+000
6.2671380e+000
6.5515680e+000
6.7886062e+000
6.9681358e+000
7.0424256e+000
7.0737128e+000
7.0141945e+000
6.8857417e+000
6.6402402e+000
6.3072405e+000
5.8541474e+000
5.3524151e+000
4.7918286e+000
4.1982055e+000
3.5894427e+000
3.0094700e+000
2.4845924e+000
2.0574079e+000
1.6949135e+000
1.3409363e+000
9.9119997e-001
6.3273501e-001
3.1438333e-001
1.0254821e-001
-2.2438586e-002
-2.2929087e-002
3.8123026e-002
1.6289884e-001
3.0974644e-001
4.7107720e-001
6.3200015e-001
7.9104447e-001
9.4077814e-001
1.0644429e+000
1.1568823e+000
1.1734849e+000
1.1636070e+000
1.1140269e+000
1.0776592e+000
1.0792989e+000
1.1380050e+000
1.2820388e+000
1.4845111e+000
1.7464300e+000
2.0136991e+000
2.2641103e+000
2.4594626e+000
2.5865698e+000
2.6329734e+000
2.6198244e+000
2.5623240e+000
2.4902811e+000
2.4255278e+000
2.3701999e+000
2.3292952e+000
2.2982633e+000
2.2823133e+000
2.2842400e+000
2.3262143e+000
2.3948188e+000
2.5237045e+000
2.6701236e+000
2.8526962e+000
3.0271885e+000
3.1856520e+000
3.3198543e+000
3.4152751e+000
3.4940407e+000
3.5520749e+000
3.6226070e+000
3.7181790e+000
3.8700399e+000
4.0894179e+000
4.3696089e+000
4.7018509e+000
5.0561280e+000
5.4226894e+000
5.7857184e+000
6.1389751e+000
6.4615788e+000
6.7520533e+000
6.9716921e+000
7.1376505e+000
7.1920843e+000
7.1805887e+000
7.0228519e+000
6.8024220e+000
6.4267135e+000
6.0172334e+000
5.5239096e+000
5.0306520e+000
4.5370669e+000
4.0447240e+000
3.5560772e+000
3.0793231e+000
2.6296551e+000
2.2233775e+000
1.8806863e+000
1.5725378e+000
1.3062639e+000
1.0637231e+000
8.4573066e-001
6.4342272e-001
4.4988430e-001
2.4471152e-001
3.4178630e-002
-1.7116880e-001
-3.6222601e-001
-5.0386578e-001
-6.1436319e-001
-6.6350460e-001
-6.8424505e-001
-6.4481801e-001
-5.8054799e-001
-4.4817600e-001
-3.0317193e-001
-1.2656753e-001
3.5282575e-002
1.4974770e-001
2.4529843e-001
2.9522312e-001
3.4256521e-001
3.8313693e-001
4.0940744e-001
4.0931436e-001
3.8260287e-001
3.2132134e-001
2.5352660e-001
1.8140680e-001
1.2264280e-001
7.6368473e-002
3.9551850e-002
6.6481847e-003
-4.0022172e-002
-9.1213703e-002
-9.8416209e-002
-7.4572191e-002
2.4686262e-002
1.5428592e-001
3.3604458e-001
5.2526170e-001
7.0493603e-001
8.6443919e-001
9.2034197e-001
9.5544565e-001
9.1159940e-001
8.7312007e-001
8.5105145e-001
8.2647651e-001
7.9339463e-001
7.4123132e-001
6.5563023e-001
5.9325254e-001
5.7598287e-001
6.3281095e-001
7.8633881e-001
9.9379379e-001
1.2518189e+000
1.5022907e+000
1.7432923e+000
1.9564127e+000
2.1510520e+000
2.3288779e+000
2.4916484e+000
2.6005082e+000
2.6776354e+000
2.6540830e+000
2.6009493e+000
2.4955637e+000
2.3852839e+000
2.2887292e+000
2.1932003e+000
2.0996079e+000
2.0091457e+000
1.9341110e+000
1.8780234e+000
1.8824780e+000
1.8944571e+000
1.9217678e+000
1.9208865e+000
1.8656932e+000
1.7881960e+000
1.6805526e+000
1.5941600e+000
1.5332291e+000
1.4862583e+000
1.4446044e+000
1.3288014e+000
1.1567738e+000
9.2537165e-001
6.6997319e-001
4.8949736e-001
3.4228775e-001
2.4532688e-001
1.6006047e-001
5.4798942e-002
-5.2755743e-002
-1.4886920e-001
-2.5060692e-001
-4.3044221e-001
-6.2092668e-001
-8.7794596e-001
-1.1002219e+000
-1.1679572e+000
-1.1940460e+000
-1.0944537e+000
-1.0347881e+000
-1.0690835e+000
-1.1555464e+000
-1.3294309e+000
-1.4647599e+000
-1.5435100e+000
-1.5365298e+000
-1.4404172e+000
-1.3244457e+000
-1.1960814e+000
-1.1297618e+000
-1.0990269e+000
-1.0366526e+000
-9.5196760e-001
-7.1137190e-001
-4.2116100e-001
-1.3861041e-001
1.3335273e-001
2.0904678e-001
2.5590399e-001
1.7968883e-001
9.9944338e-002
4.1540299e-002
1.3774949e-003
4.3769032e-003
1.4464593e-001
5.0921589e-001
9.1688973e-001
1.4501370e+000
1.9538658e+000
2.3932428e+000
2.7496359e+000
2.9733036e+000
3.1637080e+000
3.3127213e+000
3.3988767e+000
3.4241853e+000
3.2945828e+000
3.0560319e+000
2.8411925e+000
2.6415248e+000
2.6346853e+000
2.7041585e+000
2.9502795e+000
3.2443600e+000
3.6778052e+000
4.1336060e+000
4.3477001e+000
