Image.
>Pix99999.
  .
5555
5555
2300
900
5555
2
1
0
701
5555
2.9270001e-002
2.9879129e-002
3.0488256e-002
3.1097384e-002
3.1706512e-002
3.2314651e-002
3.2923769e-002
3.3532903e-002
3.4142029e-002
3.4751158e-002
3.5359301e-002
3.5968415e-002
3.6577541e-002
3.7186671e-002
3.7795801e-002
3.8403951e-002
3.9013058e-002
3.9622184e-002
4.0231314e-002
4.0840439e-002
4.1448601e-002
4.2057700e-002
4.2666830e-002
4.3275960e-002
4.3885086e-002
4.4493251e-002
1.3798894e-002
4.8654000e-004
-3.5493121e-002
-4.3366630e-002
-4.7012143e-002
-1.0753261e-001
-1.7275937e-001
-2.5110194e-001
-3.2704341e-001
-3.7920851e-001
-4.3713760e-001
-5.2716345e-001
-6.2257212e-001
-7.2930902e-001
-8.0438316e-001
-8.0883360e-001
-7.8060299e-001
-7.0583546e-001
-6.5669566e-001
-6.4309025e-001
-6.7327553e-001
-7.4343663e-001
-8.3371401e-001
-9.3704551e-001
-1.0469108e+000
-1.1600307e+000
-1.2349515e+000
-1.2930768e+000
-1.2599320e+000
-1.1974599e+000
-1.0994800e+000
-9.9362725e-001
-9.6318704e-001
-9.4431591e-001
-9.4660914e-001
-9.4403970e-001
-8.6437458e-001
-7.7731711e-001
-6.8984276e-001
-6.2398148e-001
-6.3725209e-001
-6.8266475e-001
-7.9014057e-001
-9.0485626e-001
-1.0212290e+000
-1.0780982e+000
-1.0483909e+000
-9.5069039e-001
-7.8643686e-001
-6.8061358e-001
-6.3263220e-001
-6.8496770e-001
-8.0293816e-001
-9.1305178e-001
-1.0151989e+000
-1.0717217e+000
-1.1091180e+000
-1.1145339e+000
-1.1102999e+000
-1.0682315e+000
-1.0176780e+000
-9.7290361e-001
-9.3152434e-001
-9.3425065e-001
-9.4787014e-001
-9.9546331e-001
-1.0498109e+000
-1.1120635e+000
-1.1763386e+000
-1.2430800e+000
-1.3175184e+000
-1.4082713e+000
-1.4868180e+000
-1.5409437e+000
-1.5474143e+000
-1.4962994e+000
-1.4315735e+000
-1.3614471e+000
-1.3184755e+000
-1.2981801e+000
-1.2710763e+000
-1.2372195e+000
-1.1961262e+000
-1.1519449e+000
-1.1254457e+000
-1.1065701e+000
-1.0197001e+000
-9.1080308e-001
-7.2776008e-001
-5.3013349e-001
-4.6407005e-001
-4.3724653e-001
-5.4315645e-001
-6.6741550e-001
-7.4843770e-001
-8.0685264e-001
-8.1617928e-001
-8.2657194e-001
-8.6633873e-001
-9.2582500e-001
-1.0133420e+000
-1.0977958e+000
-1.1679572e+000
-1.2059950e+000
-1.2067515e+000
-1.1782068e+000
-1.1283263e+000
-1.0813450e+000
-1.0405997e+000
-9.9362761e-001
-9.4277406e-001
-8.8309926e-001
-8.1959504e-001
-8.2434499e-001
-8.5731399e-001
-9.3496192e-001
-1.0255671e+000
-1.0622423e+000
-1.0815942e+000
-1.0644686e+000
-1.0339909e+000
-9.7776431e-001
-9.1569430e-001
-8.6187899e-001
-8.4073430e-001
-9.1519076e-001
-1.0390391e+000
-1.2158152e+000
-1.3665000e+000
-1.4425350e+000
-1.4602959e+000
-1.4215180e+000
-1.3916268e+000
-1.3890823e+000
-1.4005457e+000
-1.4211020e+000
-1.3632772e+000
-1.2452618e+000
-1.0809703e+000
-8.9405900e-001
-8.1215012e-001
-7.8588307e-001
-8.1034279e-001
-8.5326368e-001
-8.5177219e-001
-8.3315897e-001
-8.2533252e-001
-8.2173264e-001
-8.4550428e-001
-8.7643498e-001
-8.9525861e-001
-9.0332603e-001
-8.6694992e-001
-8.1823498e-001
-7.6842314e-001
-7.4747705e-001
-7.9228944e-001
-8.8342845e-001
-1.0253761e+000
-1.1101543e+000
-1.1059742e+000
-9.3741018e-001
-6.1267644e-001
-3.0824560e-001
-4.9490370e-002
3.6149014e-002
-2.8071422e-003
-8.1859440e-002
-1.7343254e-001
-2.8679842e-001
-4.0986639e-001
-5.3891814e-001
-6.6826105e-001
-6.5727246e-001
-5.8403713e-001
-4.3535578e-001
-2.7636319e-001
-2.3608899e-001
-2.7263388e-001
-4.3273729e-001
-6.4121062e-001
-8.5431284e-001
-1.0583863e+000
-1.2430050e+000
-1.3899601e+000
-1.4916441e+000
-1.4848765e+000
-1.3442670e+000
-1.1335106e+000
-8.7314093e-001
-7.2053051e-001
-6.8413550e-001
-7.2604585e-001
-8.1633794e-001
-8.8087314e-001
-9.2274296e-001
-8.6074221e-001
-7.3741710e-001
-4.9510920e-001
-1.9498792e-001
-5.2167289e-002
-6.9428957e-003
-2.2608809e-001
-5.6152529e-001
-8.6844730e-001
-1.1268436e+000
-1.2366195e+000
-1.2369229e+000
-1.0716926e+000
-8.4932613e-001
-6.3793933e-001
-5.2281815e-001
-6.0434699e-001
-7.8351444e-001
-1.0132663e+000
-1.1921147e+000
-1.2774092e+000
-1.2961124e+000
-1.2680491e+000
-1.2286301e+000
-1.1906894e+000
-1.1217752e+000
-1.0298407e+000
-8.9090770e-001
-7.2020644e-001
-5.5389100e-001
-3.8710999e-001
-2.6598006e-001
-1.6476497e-001
-1.0592868e-001
-6.4608410e-002
-1.5339648e-002
6.1673041e-002
2.6544645e-001
5.4698831e-001
8.6967289e-001
1.1186243e+000
1.1042243e+000
8.9986092e-001
5.6174749e-001
2.5539580e-001
1.1412697e-001
3.2987356e-002
-7.5615868e-002
-1.2362086e-001
-7.2355829e-002
2.2802120e-001
7.8210676e-001
1.4263361e+000
2.0894644e+000
2.4083259e+000
2.4092493e+000
2.3257539e+000
2.2219479e+000
2.3724000e+000
2.7108591e+000
2.7540865e+000
2.5636766e+000
1.9265331e+000
1.0367987e+000
3.6756814e-001
-5.3879708e-002
5.7645127e-002
6.3894749e-001
1.7119329e+000
2.9571042e+000
3.9804137e+000
4.8427434e+000
5.5771160e+000
6.5105343e+000
7.9150038e+000
1.0046843e+001
1.3021481e+001
1.6546124e+001
2.0406715e+001
2.3833281e+001
2.6564054e+001
2.9031889e+001
3.1414257e+001
3.4600471e+001
3.8618114e+001
4.3197052e+001
4.8167358e+001
5.2282936e+001
5.5640728e+001
5.9024433e+001
6.2516495e+001
6.6762878e+001
7.1563095e+001
7.6324295e+001
8.0975746e+001
8.5235115e+001
8.9126717e+001
9.2649246e+001
9.5855743e+001
9.8818207e+001
1.0136820e+002
1.0333403e+002
1.0402480e+002
1.0296357e+002
1.0072208e+002
9.7862747e+001
9.4738190e+001
9.1570061e+001
8.7922058e+001
8.3679031e+001
7.9231697e+001
7.4750961e+001
7.0520432e+001
6.6559265e+001
6.2445641e+001
5.8130768e+001
5.3838589e+001
4.9595276e+001
4.5555401e+001
4.1746479e+001
3.8299046e+001
3.5252399e+001
3.2680092e+001
3.0559908e+001
2.8749926e+001
2.7243872e+001
2.5976326e+001
2.4960178e+001
2.4171501e+001
2.3583746e+001
2.3137064e+001
2.2779474e+001
2.2451784e+001
2.2222044e+001
2.2125887e+001
2.2249020e+001
2.2614994e+001
2.3290583e+001
2.4287657e+001
2.5534950e+001
2.7012806e+001
2.8416340e+001
2.9682760e+001
3.0788857e+001
3.1732285e+001
3.2929726e+001
3.4483147e+001
3.6907536e+001
4.0154987e+001
4.3241081e+001
4.6014355e+001
4.7971737e+001
4.9236263e+001
5.0430462e+001
5.1556343e+001
5.2655575e+001
5.3405483e+001
5.3435699e+001
5.2739887e+001
5.1428566e+001
4.9911636e+001
4.8562721e+001
4.7402962e+001
4.6442299e+001
4.5451019e+001
4.4304852e+001
4.2692532e+001
4.0485039e+001
3.8112873e+001
3.5690601e+001
3.3458839e+001
3.1457367e+001
2.9092707e+001
2.6223558e+001
2.3246229e+001
2.0227100e+001
1.7685652e+001
1.5693199e+001
1.3814428e+001
1.2052781e+001
1.0333565e+001
8.6515579e+000
6.9928441e+000
5.3620448e+000
3.7556200e+000
2.3038192e+000
1.1479805e+000
3.7706363e-001
5.9338715e-002
2.3171195e-001
9.0587729e-001
1.6339121e+000
2.1760588e+000
2.5964150e+000
2.8773103e+000
3.2856965e+000
3.9606302e+000
4.7655749e+000
5.7105999e+000
6.3545012e+000
6.5277386e+000
6.4467750e+000
6.0306234e+000
5.5929427e+000
5.1296320e+000
4.7066269e+000
4.3388281e+000
4.0459409e+000
3.8049386e+000
3.5183172e+000
3.1599150e+000
2.7324286e+000
2.3182759e+000
2.0643921e+000
2.0170834e+000
2.1958554e+000
2.5241618e+000
2.9102070e+000
3.2588115e+000
3.4715941e+000
3.6297402e+000
3.7520974e+000
3.9217749e+000
4.1965051e+000
4.5323443e+000
4.9562058e+000
5.3781638e+000
5.7812753e+000
6.1189570e+000
6.3448915e+000
6.4754400e+000
6.4652443e+000
6.3568273e+000
6.0991850e+000
5.7528553e+000
5.2960758e+000
4.8492112e+000
4.4302897e+000
4.0981998e+000
3.8488786e+000
3.6459601e+000
3.4733062e+000
3.2725978e+000
3.0397720e+000
2.7408407e+000
2.3752968e+000
1.9483685e+000
1.4979370e+000
1.0648731e+000
6.7797327e-001
3.6423546e-001
1.1183747e-001
-3.9598428e-002
-1.0120910e-001
-2.7414117e-002
1.2374118e-001
4.0539032e-001
6.6812938e-001
8.8039917e-001
9.5991623e-001
8.3715945e-001
6.8932867e-001
5.3131086e-001
4.9850836e-001
6.4519477e-001
9.2873192e-001
1.3593166e+000
1.8141896e+000
2.2569602e+000
2.5920000e+000
2.8104756e+000
2.9040284e+000
2.9057689e+000
2.8477063e+000
2.7618520e+000
2.6832161e+000
2.6224291e+000
2.6128476e+000
2.6318285e+000
2.6930156e+000
2.7689886e+000
2.8634171e+000
2.9514961e+000
3.0182335e+000
3.0636783e+000
3.0625486e+000
3.0583298e+000
3.0510819e+000
3.0618587e+000
3.1042130e+000
3.1654658e+000
3.2548258e+000
3.3593318e+000
3.4918706e+000
3.6500058e+000
3.8501966e+000
4.0901499e+000
4.3786564e+000
4.7117028e+000
5.0898943e+000
5.5080519e+000
5.9559212e+000
6.4197226e+000
6.8789997e+000
7.3013425e+000
7.6773200e+000
7.9494772e+000
8.1638975e+000
8.2810345e+000
8.3696957e+000
8.4215641e+000
8.4464760e+000
8.3930655e+000
8.2758951e+000
7.9782505e+000
7.6143990e+000
7.0983582e+000
6.5782828e+000
6.0589314e+000
5.5883694e+000
5.1967483e+000
4.8185778e+000
4.4482203e+000
4.0275435e+000
3.5456879e+000
3.0278108e+000
2.4860926e+000
1.9813650e+000
1.5158999e+000
1.1081891e+000
7.4005854e-001
4.0035355e-001
8.0152646e-002
-2.1037135e-001
-4.7326094e-001
-6.6228753e-001
-7.9336131e-001
-7.5868160e-001
-6.5438801e-001
-3.6109629e-001
-5.7865828e-002
2.4054681e-001
4.8853767e-001
5.8462435e-001
6.5620750e-001
6.7146742e-001
7.0490909e-001
7.7368468e-001
8.4828812e-001
9.2794114e-001
9.8568416e-001
1.0075899e+000
9.8620981e-001
9.0680677e-001
7.5152069e-001
5.3081936e-001
2.9226092e-001
6.9784790e-002
-5.8266921e-003
2.8025702e-002
2.8666458e-001
6.4482224e-001
1.0727401e+000
1.5070872e+000
1.8736143e+000
2.2057009e+000
2.4195120e+000
2.6146674e+000
2.7692657e+000
2.9380701e+000
3.1685858e+000
3.3971567e+000
3.6160495e+000
3.8000450e+000
3.8981810e+000
3.9791217e+000
4.0324798e+000
4.1253324e+000
4.2893858e+000
4.5400486e+000
4.9069920e+000
5.3570814e+000
5.8878989e+000
6.4228091e+000
6.9457402e+000
7.3624315e+000
7.6953311e+000
7.8825731e+000
7.9934030e+000
8.0254517e+000
8.0296783e+000
8.0163126e+000
7.9957156e+000
7.9474101e+000
7.8987198e+000
7.8727913e+000
7.8674808e+000
7.9888511e+000
8.1335144e+000
8.3786669e+000
8.6173248e+000
8.8316278e+000
9.0040693e+000
9.0730677e+000
9.0965099e+000
9.0344772e+000
8.9456577e+000
8.8201437e+000
8.7057695e+000
8.6064053e+000
8.5351048e+000
8.4848576e+000
8.4039640e+000
8.2927637e+000
8.0874586e+000
7.8157392e+000
7.3564978e+000
6.8073053e+000
6.0633516e+000
5.2718358e+000
4.5325737e+000
3.8156068e+000
3.2539239e+000
2.7103834e+000
2.2305965e+000
1.7726393e+000
1.4627401e+000
1.1937647e+000
1.1046000e+000
1.0223818e+000
9.5925248e-001
8.4819382e-001
6.2575376e-001
3.6241215e-001
3.2379568e-002
-2.1889518e-001
-3.5684019e-001
-3.4008098e-001
-1.6256645e-001
3.6504313e-002
2.4550530e-001
3.2335952e-001
3.1926936e-001
2.7738148e-001
2.2696602e-001
3.4889895e-001
5.2853066e-001
7.4451900e-001
9.5526946e-001
8.6655807e-001
7.3472965e-001
4.3114501e-001
1.3542899e-001
5.0326068e-002
3.8423985e-003
1.2025307e-001
3.7275955e-001
7.4181485e-001
1.0838029e+000
1.3459870e+000
1.6066266e+000
1.8655516e+000
2.1908698e+000
2.6222091e+000
3.0608580e+000
3.5063314e+000
3.8559811e+000
4.1150403e+000
4.2497759e+000
4.2953382e+000
4.2120562e+000
4.0597353e+000
3.9134459e+000
3.7703865e+000
4.0487161e+000
4.4376469e+000
5.2176094e+000
6.0591097e+000
6.4154000e+000
