Image.
>Pix99999.
  .
5555
5555
2300
900
5555
2
1
0
701
5555
6.4456001e-002
6.5797076e-002
6.7137159e-002
6.8478242e-002
6.9819324e-002
7.1160406e-002
7.2501488e-002
7.3842570e-002
7.5183652e-002
7.6523744e-002
7.7864818e-002
7.9208851e-002
8.0547027e-002
8.1877261e-002
8.3227940e-002
8.4609337e-002
8.5911244e-002
8.7105028e-002
8.8588610e-002
9.0478346e-002
9.1290623e-002
9.0588413e-002
9.3890138e-002
1.0283962e-001
9.6905351e-002
5.9621681e-002
1.5629090e-002
-3.4413736e-003
1.5739659e-002
7.5212441e-002
1.5269415e-001
2.2734627e-001
3.1185973e-001
4.2400411e-001
5.6280738e-001
7.1525502e-001
8.4188980e-001
8.9803660e-001
8.4885246e-001
6.7560583e-001
4.1245943e-001
1.1458410e-001
-1.4169385e-001
-2.8682828e-001
-3.0377367e-001
-2.0198222e-001
-3.3387709e-002
1.4353389e-001
2.9565793e-001
4.0495062e-001
4.8215431e-001
5.4153532e-001
5.7578242e-001
5.7084197e-001
5.1335508e-001
4.0101400e-001
2.7488959e-001
1.8594331e-001
1.6872469e-001
2.3836493e-001
3.5344970e-001
4.5971736e-001
5.2504313e-001
5.3434932e-001
5.1069826e-001
4.8575562e-001
4.7533479e-001
4.8667073e-001
5.1501858e-001
5.5105752e-001
5.8279598e-001
6.0087222e-001
6.1001527e-001
6.2126029e-001
6.5164161e-001
7.1349180e-001
7.9184991e-001
8.6153167e-001
8.9479417e-001
8.7129927e-001
8.0372995e-001
7.1851718e-001
6.5026087e-001
6.2870157e-001
6.5292323e-001
7.1092510e-001
7.9089320e-001
8.8096648e-001
9.6730620e-001
1.0326523e+000
1.0489657e+000
9.9127489e-001
8.6371022e-001
6.8705285e-001
5.0489432e-001
3.6431050e-001
2.9285035e-001
3.0227327e-001
3.7073359e-001
4.6547273e-001
5.6059432e-001
6.3784796e-001
6.9763452e-001
7.4796057e-001
7.9880166e-001
8.5842150e-001
9.2594779e-001
9.9383014e-001
1.0418342e+000
1.0495443e+000
1.0163229e+000
9.5414501e-001
8.9377958e-001
8.6603427e-001
8.7194622e-001
8.9689589e-001
9.1292810e-001
8.9390552e-001
8.4197253e-001
7.7171171e-001
6.9982517e-001
6.4115864e-001
6.0156262e-001
5.8011609e-001
5.6346095e-001
5.3382432e-001
4.7630081e-001
3.8489372e-001
2.8486371e-001
2.1106300e-001
1.8223171e-001
2.0420443e-001
2.6095599e-001
3.2993171e-001
3.9971361e-001
4.6527407e-001
5.2566582e-001
5.8110988e-001
6.3038331e-001
6.7210948e-001
7.0751601e-001
7.3802370e-001
7.6083368e-001
7.7073777e-001
7.6064694e-001
7.2468507e-001
6.6518116e-001
5.8680832e-001
4.8797017e-001
3.6727422e-001
2.3764500e-001
1.2274075e-001
6.2506378e-002
9.4219491e-002
2.1279339e-001
3.8947493e-001
5.8291042e-001
7.5307310e-001
8.8588727e-001
9.8122269e-001
1.0431972e+000
1.0787230e+000
1.0998186e+000
1.1155304e+000
1.1106538e+000
1.0612493e+000
9.5730162e-001
8.0673009e-001
6.6167998e-001
5.8564621e-001
5.9792560e-001
6.8583471e-001
8.0238092e-001
8.9081836e-001
9.2033684e-001
8.8305247e-001
8.0733114e-001
7.3649603e-001
7.0213282e-001
7.1948361e-001
7.6549459e-001
8.0007732e-001
7.9414856e-001
7.3171324e-001
6.2175399e-001
4.9186963e-001
3.9535978e-001
3.8903636e-001
4.8938641e-001
6.8024242e-001
9.0304059e-001
1.0887042e+000
1.2145480e+000
1.2853497e+000
1.3053094e+000
1.2765557e+000
1.2036000e+000
1.0979548e+000
9.9691081e-001
9.4462848e-001
9.5381284e-001
1.0131736e+000
1.0894203e+000
1.1425719e+000
1.1492189e+000
1.1028157e+000
1.0233864e+000
9.4263697e-001
8.8026571e-001
8.4231341e-001
8.1151700e-001
7.6337242e-001
6.9820738e-001
6.3297433e-001
5.8772928e-001
5.7661790e-001
5.8633322e-001
5.9161741e-001
5.8729130e-001
5.8115828e-001
5.7759458e-001
5.7447708e-001
5.5631810e-001
5.0285375e-001
4.0741599e-001
2.7811036e-001
1.4795488e-001
5.9566602e-002
3.3660017e-002
6.9425553e-002
1.3795364e-001
2.0437771e-001
2.7898064e-001
3.9762890e-001
5.7465231e-001
7.9494989e-001
9.8820120e-001
1.0671059e+000
1.0195322e+000
8.9056814e-001
7.4651974e-001
6.4983732e-001
6.1009842e-001
6.0267973e-001
6.0948622e-001
6.1923552e-001
6.1301601e-001
5.6636167e-001
4.5729822e-001
2.7926040e-001
8.4730715e-002
-3.9968815e-002
-3.4757879e-002
1.2125545e-001
3.7389719e-001
6.2716460e-001
8.1608737e-001
9.1078967e-001
9.1622585e-001
8.5803562e-001
7.6176172e-001
6.4871871e-001
5.3329039e-001
4.2357132e-001
3.1951240e-001
2.1896543e-001
1.3400260e-001
7.8371942e-002
2.3714172e-002
-7.5086355e-002
-1.9413471e-001
-2.6651764e-001
-2.7724501e-001
-2.5917000e-001
-2.5718030e-001
-3.1151035e-001
-4.2870536e-001
-5.8116311e-001
-7.0009005e-001
-6.9952011e-001
-5.3979599e-001
-2.3838884e-001
1.0078669e-001
3.3024573e-001
3.7801859e-001
2.5599200e-001
5.9058316e-002
-6.3853830e-002
3.6739014e-002
4.7256583e-001
1.2137767e+000
2.1180837e+000
3.0267539e+000
3.8208244e+000
4.5520563e+000
5.4147344e+000
6.6433063e+000
8.4736137e+000
1.1094816e+001
1.4570635e+001
1.8554142e+001
2.2426411e+001
2.5815138e+001
2.8682465e+001
3.1384754e+001
3.4537457e+001
3.8640579e+001
4.3899426e+001
4.9786362e+001
5.5328716e+001
6.0218601e+001
6.4817726e+001
6.9568878e+001
7.4766304e+001
8.0182022e+001
8.5202446e+001
8.9448418e+001
9.2840263e+001
9.5433136e+001
9.7345726e+001
9.8679626e+001
9.9504562e+001
9.9855438e+001
9.9735962e+001
9.9120743e+001
9.7988930e+001
9.6442177e+001
9.4663681e+001
9.2680344e+001
9.0355751e+001
8.7535187e+001
8.4117027e+001
8.0204147e+001
7.6050613e+001
7.1766914e+001
6.7300385e+001
6.2602081e+001
5.7684772e+001
5.2687973e+001
4.7850502e+001
4.3356514e+001
3.9312527e+001
3.5785652e+001
3.2803329e+001
3.0320595e+001
2.8231750e+001
2.6454134e+001
2.4948589e+001
2.3709845e+001
2.2755344e+001
2.2090500e+001
2.1701366e+001
2.1559080e+001
2.1626793e+001
2.1877068e+001
2.2292950e+001
2.2858040e+001
2.3563219e+001
2.4457853e+001
2.5653206e+001
2.7272259e+001
2.9406004e+001
3.1983273e+001
3.4771889e+001
3.7539879e+001
4.0111843e+001
4.2428806e+001
4.4577904e+001
4.6832092e+001
4.9539337e+001
5.2591240e+001
5.5393829e+001
5.7439754e+001
5.8491966e+001
5.8673759e+001
5.8393177e+001
5.7826321e+001
5.6834755e+001
5.5284500e+001
5.3158588e+001
5.0658173e+001
4.8166767e+001
4.5905373e+001
4.3857212e+001
4.1917549e+001
3.9941200e+001
3.7796501e+001
3.5400444e+001
3.2802063e+001
3.0189074e+001
2.7763929e+001
2.5672998e+001
2.3850479e+001
2.2012539e+001
1.9937304e+001
1.7567465e+001
1.5050417e+001
1.2706955e+001
1.0728882e+001
9.0962267e+000
7.7075429e+000
6.4283280e+000
5.1859660e+000
3.9931107e+000
2.8817124e+000
1.8861707e+000
1.0452745e+000
4.0062636e-001
-1.7205626e-002
-1.8032482e-001
-7.9569221e-004
6.5794754e-001
1.7941715e+000
3.2195051e+000
4.7270875e+000
6.1551094e+000
7.4433208e+000
8.6488237e+000
9.8418903e+000
1.1062377e+001
1.2267400e+001
1.3317113e+001
1.4070678e+001
1.4431968e+001
1.4401525e+001
1.4088535e+001
1.3598495e+001
1.2995160e+001
1.2301240e+001
1.1499475e+001
1.0580722e+001
9.5652351e+000
8.5239553e+000
7.5797668e+000
6.8136377e+000
6.2312570e+000
5.8112621e+000
5.5203910e+000
5.3398666e+000
5.2742910e+000
5.3296399e+000
5.5047817e+000
5.7850556e+000
6.1391311e+000
6.5329995e+000
6.9327531e+000
7.2967048e+000
7.5726991e+000
7.7088842e+000
7.6648202e+000
7.4434142e+000
7.1076689e+000
6.7347212e+000
6.3955717e+000
6.1190376e+000
5.8745050e+000
5.6257257e+000
5.3490076e+000
5.0289702e+000
4.6581726e+000
4.2292714e+000
3.7351041e+000
3.1853459e+000
2.6126246e+000
2.0383372e+000
1.4607136e+000
8.8327020e-001
3.2996276e-001
-1.4578110e-001
-4.5941621e-001
-5.6286615e-001
-4.7578022e-001
-2.2991794e-001
1.4752081e-001
6.2904948e-001
1.1849579e+000
1.7842040e+000
2.3935659e+000
2.9745378e+000
3.4809937e+000
3.8649771e+000
4.0815859e+000
4.1056838e+000
3.9464259e+000
3.6380012e+000
3.2427785e+000
2.8290348e+000
2.4602454e+000
2.1768503e+000
1.9808191e+000
1.8532600e+000
1.7567344e+000
1.6578765e+000
1.5391915e+000
1.3972392e+000
1.2467914e+000
1.1067668e+000
9.9552143e-001
9.2759776e-001
9.1116428e-001
9.5440000e-001
1.0685972e+000
1.2688917e+000
1.5737942e+000
1.9889600e+000
2.4936223e+000
3.0447345e+000
3.5731778e+000
4.0206633e+000
4.3624973e+000
4.6010728e+000
4.7734523e+000
4.9213243e+000
5.0795674e+000
5.2774854e+000
5.5359216e+000
5.8702126e+000
6.2883792e+000
6.7942638e+000
7.3872399e+000
8.0679827e+000
8.8417645e+000
9.7116117e+000
1.0674190e+001
1.1717560e+001
1.2815750e+001
1.3932423e+001
1.5015075e+001
1.6000017e+001
1.6813587e+001
1.7384457e+001
1.7660036e+001
1.7602200e+001
1.7200827e+001
1.6469765e+001
1.5464800e+001
1.4262132e+001
1.2962327e+001
1.1664334e+001
1.0458024e+001
9.4158344e+000
8.5898733e+000
8.0148344e+000
7.7012315e+000
7.6308069e+000
7.7351847e+000
7.9180522e+000
8.0522184e+000
8.0226774e+000
7.7601123e+000
7.2438927e+000
6.5336046e+000
5.7163229e+000
4.8945141e+000
4.1523480e+000
3.5255744e+000
3.0256424e+000
2.6367586e+000
2.3428483e+000
2.1403739e+000
2.0276999e+000
1.9995323e+000
2.0423474e+000
2.1269975e+000
2.2246406e+000
2.3141036e+000
2.3733010e+000
2.3747149e+000
2.2982736e+000
2.1446247e+000
1.9320371e+000
1.7051051e+000
1.4956726e+000
1.2927097e+000
1.0768832e+000
8.3555251e-001
5.7458162e-001
3.3752424e-001
1.5882230e-001
3.1455349e-002
-5.4884400e-002
-9.5390111e-002
-8.5872158e-002
-3.1914495e-002
6.0762890e-002
1.9173314e-001
3.6197960e-001
5.7167822e-001
8.1016320e-001
1.0413544e+000
1.2272829e+000
1.3418359e+000
1.3768944e+000
1.3609322e+000
1.3309014e+000
1.3213550e+000
1.3593771e+000
1.4539652e+000
1.6066806e+000
1.8110181e+000
2.0583427e+000
2.3397741e+000
2.6542940e+000
3.0203483e+000
3.4545760e+000
3.9552629e+000
4.5004992e+000
5.0275812e+000
5.4676309e+000
5.7630410e+000
5.8753271e+000
5.8106318e+000
5.5976119e+000
5.2957244e+000
4.9668508e+000
4.6582036e+000
4.4011040e+000
4.1926856e+000
4.0211754e+000
3.8734207e+000
3.7399998e+000
3.6234834e+000
3.5272748e+000
3.4503880e+000
3.3948772e+000
3.3739929e+000
3.4009018e+000
3.4797168e+000
3.6046834e+000
3.7485681e+000
3.8858099e+000
4.0099754e+000
4.1142640e+000
4.1762190e+000
4.1661420e+000
4.0447383e+000
3.7891531e+000
3.4318900e+000
3.0245018e+000
2.6336737e+000
2.3112657e+000
2.0525594e+000
1.8366539e+000
1.6360247e+000
1.4382840e+000
1.2819999e+000
1.2036897e+000
1.1953516e+000
1.2279783e+000
1.2425531e+000
1.1827857e+000
1.0242071e+000
7.6264668e-001
4.3339708e-001
8.8195845e-002
-2.0057578e-001
-3.7362823e-001
-4.3100256e-001
-3.9719400e-001
-3.2786009e-001
-2.6933688e-001
-2.1176463e-001
-1.3438420e-001
-2.6919998e-002
1.0428771e-001
2.0611350e-001
2.2680831e-001
1.5903303e-001
1.7594144e-002
-1.4472955e-001
-2.7535498e-001
-3.5496780e-001
-3.7371480e-001
-3.2647046e-001
-2.1771930e-001
-8.1528574e-002
5.1150128e-002
1.8642250e-001
3.3103192e-001
4.6142280e-001
5.6354940e-001
6.8490875e-001
8.7417185e-001
1.1278822e+000
1.4136504e+000
1.6399772e+000
1.7247580e+000
1.6761113e+000
1.5428308e+000
1.4419280e+000
1.4772857e+000
1.6381307e+000
1.8815880e+000
2.1513050e+000
2.4118614e+000
2.7227066e+000
3.1434469e+000
3.6410348e+000
4.1617255e+000
4.6599178e+000
5.0920000e+000
