Image.
>Pix99999.
  .
5555
5555
2300
900
5555
2
1
0
701
5555
-1.9771000e-002
-2.0181414e-002
-2.0592824e-002
-2.1004234e-002
-2.1415645e-002
-2.1827057e-002
-2.2238469e-002
-2.2649880e-002
-2.3061290e-002
-2.3471715e-002
-2.3883114e-002
-2.4294525e-002
-2.4705937e-002
-2.5117349e-002
-2.5528759e-002
-2.5940171e-002
-2.6351582e-002
-2.6762994e-002
-2.7173432e-002
-2.7584817e-002
-2.7996229e-002
-2.8407639e-002
-2.8819051e-002
-2.9230462e-002
-2.9641874e-002
-3.0053286e-002
-1.1168114e-003
4.0900134e-002
8.6852677e-002
1.2575833e-001
1.6362615e-001
1.6763929e-001
1.6858977e-001
1.5551870e-001
1.4396663e-001
1.5000300e-001
1.5883023e-001
1.7640486e-001
1.9441123e-001
2.1236825e-001
2.3279285e-001
2.5861660e-001
2.8178883e-001
3.0010182e-001
3.0790120e-001
3.0296963e-001
3.0175915e-001
3.0489969e-001
3.2465276e-001
3.5658473e-001
3.8421142e-001
4.0890282e-001
4.0613550e-001
3.9140660e-001
3.6050478e-001
3.2459056e-001
2.9852840e-001
2.7480415e-001
2.6125979e-001
2.4932216e-001
2.4751543e-001
2.4798772e-001
2.6381683e-001
2.8029218e-001
2.9222766e-001
3.0037385e-001
2.9632691e-001
2.8946382e-001
2.7850646e-001
2.6493326e-001
2.4717200e-001
2.3184448e-001
2.2064880e-001
2.2173451e-001
2.3619126e-001
2.5303072e-001
2.7074417e-001
2.8366259e-001
2.9319486e-001
3.1870514e-001
3.5310343e-001
3.8114837e-001
4.0608776e-001
3.7820053e-001
3.3353600e-001
2.7440834e-001
2.1223119e-001
1.8373550e-001
1.6165063e-001
1.5891746e-001
1.6102886e-001
1.7859210e-001
1.9856748e-001
2.1921057e-001
2.3093879e-001
2.1547644e-001
1.9079264e-001
1.5467632e-001
1.2947801e-001
1.2546587e-001
1.3892572e-001
1.7121702e-001
1.9873062e-001
2.1846579e-001
2.2245309e-001
2.1423800e-001
1.9647440e-001
1.7348425e-001
1.3083874e-001
7.8287296e-002
2.3218771e-002
-3.2375447e-002
-4.9763199e-002
-5.4751314e-002
-3.4787543e-002
-9.0692351e-003
4.6109618e-003
1.5314216e-002
1.8315850e-002
2.1210210e-002
3.1831570e-002
4.4276964e-002
5.8292650e-002
6.8492003e-002
6.8640336e-002
6.2888533e-002
4.9790941e-002
4.0141836e-002
3.7360556e-002
4.2879388e-002
5.6221515e-002
6.4118706e-002
6.5439701e-002
5.0485190e-002
2.3990400e-002
4.7879783e-004
-1.9651968e-002
-1.1619721e-002
1.0957830e-002
3.0579554e-002
4.7911800e-002
3.3113588e-002
7.1647391e-003
-2.4500620e-002
-5.8459140e-002
-1.0486743e-001
-1.5657337e-001
-2.2200790e-001
-2.8448457e-001
-3.1724110e-001
-3.2960501e-001
-3.0193457e-001
-2.6055989e-001
-2.1240923e-001
-1.7213739e-001
-1.5073107e-001
-1.4701554e-001
-1.6164221e-001
-1.8838623e-001
-2.2317475e-001
-2.4952143e-001
-2.6591951e-001
-2.5148138e-001
-2.1460275e-001
-1.6822211e-001
-1.1850879e-001
-1.0114446e-001
-1.0169978e-001
-1.2524800e-001
-1.5806937e-001
-2.0113185e-001
-2.4781078e-001
-2.9282308e-001
-3.3480537e-001
-3.4572887e-001
-3.4468752e-001
-3.3376503e-001
-3.2219326e-001
-3.2598755e-001
-3.3483416e-001
-3.4606141e-001
-3.5884306e-001
-3.7096679e-001
-3.8504472e-001
-4.0020356e-001
-4.0769255e-001
-4.0331537e-001
-3.8391861e-001
-3.5294086e-001
-3.3158949e-001
-3.2378328e-001
-3.3549133e-001
-3.5958594e-001
-3.8474262e-001
-4.0834922e-001
-4.3540844e-001
-4.6488360e-001
-4.8788729e-001
-5.0840753e-001
-4.9533799e-001
-4.6865860e-001
-4.3176997e-001
-3.9695680e-001
-4.0617651e-001
-4.4001967e-001
-5.1092714e-001
-5.8980715e-001
-6.5167552e-001
-6.9944203e-001
-7.2688198e-001
-7.4260700e-001
-7.4583489e-001
-7.2414929e-001
-6.6888547e-001
-5.9836876e-001
-5.2647442e-001
-5.0041586e-001
-5.2731711e-001
-5.9104723e-001
-6.7386955e-001
-7.4535918e-001
-8.0281043e-001
-8.4175682e-001
-8.6828882e-001
-8.8341278e-001
-8.9078784e-001
-8.8119662e-001
-8.6166137e-001
-8.4413165e-001
-8.2922739e-001
-8.1553972e-001
-7.9692590e-001
-7.3755080e-001
-6.5235436e-001
-5.4359996e-001
-4.4123435e-001
-3.9266402e-001
-3.8748944e-001
-4.2679080e-001
-4.7982910e-001
-5.2177858e-001
-5.5047727e-001
-5.6368828e-001
-5.6228065e-001
-5.5057448e-001
-5.1286852e-001
-4.5158386e-001
-3.9302489e-001
-3.4072697e-001
-3.1997305e-001
-3.2280427e-001
-3.0190745e-001
-2.6378721e-001
-1.9887719e-001
-1.2164132e-001
-7.5817958e-002
-5.1293172e-002
-4.2240497e-002
-3.9898377e-002
-1.6938513e-002
2.5091533e-002
1.0253385e-001
1.9347420e-001
2.5875428e-001
2.8682902e-001
2.4831764e-001
1.7913181e-001
1.1599149e-001
3.5657018e-002
-7.3750257e-002
-1.6790314e-001
-2.2404386e-001
-2.3601770e-001
-2.0744750e-001
-1.7795266e-001
-1.6280428e-001
-2.0095326e-001
-2.9117149e-001
-3.8063192e-001
-4.5864740e-001
-4.4508800e-001
-3.5917687e-001
-2.4650770e-001
-1.2556006e-001
-1.0385776e-001
-1.4944385e-001
-1.7215094e-001
-1.5295030e-001
5.7790801e-003
2.8137168e-001
7.3017025e-001
1.2743700e+000
1.7687286e+000
2.2319014e+000
2.6952841e+000
3.3038893e+000
4.1974368e+000
5.6151652e+000
7.6730742e+000
1.0584740e+001
1.4323000e+001
1.8182230e+001
2.1827761e+001
2.5088472e+001
2.7999668e+001
3.1425634e+001
3.5458546e+001
4.0402279e+001
4.6076641e+001
5.1098969e+001
5.5488914e+001
5.9563614e+001
6.3475079e+001
6.8038460e+001
7.3099503e+001
7.8194199e+001
8.3191841e+001
8.7676003e+001
9.1622261e+001
9.4942566e+001
9.7640312e+001
9.9735207e+001
1.0111780e+002
1.0170155e+002
1.0130731e+002
9.9848930e+001
9.7799973e+001
9.5602142e+001
9.3070816e+001
9.0153442e+001
8.6384300e+001
8.1674721e+001
7.6724129e+001
7.1802940e+001
6.7174545e+001
6.2863064e+001
5.8499718e+001
5.4035355e+001
4.9717827e+001
4.5564976e+001
4.1746086e+001
3.8279568e+001
3.5282730e+001
3.2753361e+001
3.0604633e+001
2.8810543e+001
2.7226311e+001
2.5881086e+001
2.4795387e+001
2.3977966e+001
2.3401001e+001
2.3026953e+001
2.2776030e+001
2.2635412e+001
2.2576126e+001
2.2619707e+001
2.2774778e+001
2.3031349e+001
2.3376680e+001
2.3841825e+001
2.4432056e+001
2.5164673e+001
2.6034639e+001
2.6970762e+001
2.7953760e+001
2.8959450e+001
2.9990320e+001
3.1237959e+001
3.2805210e+001
3.5337364e+001
3.8917030e+001
4.2962250e+001
4.7219063e+001
5.0518784e+001
5.2862518e+001
5.4736713e+001
5.6151325e+001
5.7285435e+001
5.8058662e+001
5.8392223e+001
5.8232742e+001
5.7596489e+001
5.6562584e+001
5.5279716e+001
5.3818638e+001
5.2243702e+001
5.0591633e+001
4.8878891e+001
4.7013744e+001
4.4931339e+001
4.2736156e+001
4.0453182e+001
3.8160362e+001
3.5885250e+001
3.3171112e+001
2.9890549e+001
2.6635258e+001
2.3472202e+001
2.0812550e+001
1.8710140e+001
1.6630428e+001
1.4559709e+001
1.2425835e+001
1.0233911e+001
8.0278311e+000
5.8835001e+000
3.9460759e+000
2.3200440e+000
1.1179450e+000
3.6015460e-001
7.2393544e-002
3.5403252e-001
1.1310074e+000
2.0946140e+000
3.0651884e+000
3.9036565e+000
4.5157542e+000
5.0515623e+000
5.5655742e+000
6.0972557e+000
6.6598802e+000
7.1174726e+000
7.3936472e+000
7.5023232e+000
7.3683710e+000
7.1713605e+000
6.8908553e+000
6.6004748e+000
6.2934136e+000
5.9494600e+000
5.5480857e+000
5.0559134e+000
4.4836264e+000
3.9189217e+000
3.3927960e+000
2.9736199e+000
2.6693120e+000
2.4708688e+000
2.3844085e+000
2.4038949e+000
2.5116258e+000
2.6932089e+000
2.9094510e+000
3.1479235e+000
3.4035983e+000
3.6834335e+000
3.9918785e+000
4.3386240e+000
4.7125082e+000
5.1230602e+000
5.5333147e+000
5.9311342e+000
6.2684879e+000
6.4857073e+000
6.5842919e+000
6.4888897e+000
6.2636938e+000
5.8645668e+000
5.4152861e+000
4.9169264e+000
4.4338059e+000
3.9803591e+000
3.5615840e+000
3.1825087e+000
2.8392053e+000
2.4976263e+000
2.1026623e+000
1.6546699e+000
1.1441364e+000
6.5549839e-001
2.9152650e-001
5.0529525e-002
-6.7684799e-004
3.4614258e-002
1.4381368e-001
2.6891321e-001
4.1703922e-001
5.8022892e-001
7.7252662e-001
9.6977597e-001
1.1703542e+000
1.3516301e+000
1.4884280e+000
1.6256801e+000
1.7690680e+000
1.9481342e+000
2.1876576e+000
2.4673405e+000
2.8001800e+000
3.1501050e+000
3.5105500e+000
3.8454349e+000
4.1399202e+000
4.3778148e+000
4.5565166e+000
4.6788845e+000
4.7563024e+000
4.7925000e+000
4.8036122e+000
4.7902570e+000
4.7622571e+000
4.7125201e+000
4.6578469e+000
4.6016121e+000
4.5616078e+000
4.5640712e+000
4.5822291e+000
4.6317549e+000
4.6759596e+000
4.7073946e+000
4.7338028e+000
4.7540069e+000
4.7843032e+000
4.8362908e+000
4.9125905e+000
5.0257192e+000
5.1641240e+000
5.3298984e+000
5.4989457e+000
5.6658354e+000
5.8133488e+000
5.9418674e+000
6.0552711e+000
6.1595006e+000
6.2649527e+000
6.3707500e+000
6.4737535e+000
6.5652814e+000
6.6209540e+000
6.6430168e+000
6.5873756e+000
6.4876075e+000
6.2913880e+000
6.0569930e+000
5.7304502e+000
5.3781772e+000
4.9592738e+000
4.5277901e+000
4.0665183e+000
3.6033061e+000
3.1379800e+000
2.6840975e+000
2.2536800e+000
1.8522824e+000
1.4960338e+000
1.1754800e+000
9.0001398e-001
6.5715140e-001
4.5126480e-001
2.8193676e-001
1.4778736e-001
5.2158285e-002
-1.4543764e-002
-5.1477082e-002
-6.8729773e-002
-5.8807742e-002
-3.0026907e-002
3.9559886e-002
1.3619451e-001
3.0593902e-001
5.0759399e-001
7.9846007e-001
1.0984000e+000
1.4109145e+000
1.6922703e+000
1.8749599e+000
2.0166464e+000
2.0571818e+000
2.0745521e+000
2.0434361e+000
1.9863371e+000
1.8818583e+000
1.7353287e+000
1.5295908e+000
1.2887681e+000
1.0117589e+000
7.3464376e-001
4.6528634e-001
2.4015874e-001
5.8757734e-002
-4.4620797e-002
-8.8736296e-002
-1.5296243e-002
1.1530633e-001
3.1031236e-001
5.1140678e-001
6.5259498e-001
7.6646531e-001
7.9186600e-001
8.0682850e-001
8.0952799e-001
8.1872076e-001
8.5684329e-001
9.0895897e-001
1.0060999e+000
1.1166949e+000
1.2572497e+000
1.3762065e+000
1.4480582e+000
1.4709270e+000
1.4174428e+000
1.3455633e+000
1.2559340e+000
1.1992080e+000
1.1791046e+000
1.1950901e+000
1.2359705e+000
1.2595068e+000
1.2654908e+000
1.2177920e+000
1.1397629e+000
1.0153216e+000
8.7407720e-001
7.2124249e-001
5.7175589e-001
4.6610650e-001
3.7460202e-001
3.4602129e-001
3.2610437e-001
3.4168726e-001
3.5336998e-001
3.4669423e-001
3.2143897e-001
2.3722020e-001
1.4618573e-001
4.0595286e-002
-4.7077209e-002
-1.0228354e-001
-1.5860218e-001
-2.1859607e-001
-2.9795402e-001
-3.9793819e-001
-4.8769069e-001
-5.6739014e-001
-6.3899946e-001
-7.0610237e-001
-7.8482056e-001
-8.6808527e-001
-9.3454379e-001
-9.9406338e-001
-1.0469972e+000
-1.0995977e+000
-1.1673248e+000
-1.2351385e+000
-1.2758800e+000
-1.3096972e+000
-1.2891257e+000
-1.2638644e+000
-1.2107668e+000
-1.1600566e+000
-1.1196285e+000
-1.0777730e+000
-1.0310134e+000
-9.7247052e-001
-8.8720405e-001
-8.0580151e-001
-7.3171651e-001
-6.7258173e-001
-6.3381559e-001
-6.0688132e-001
-5.9311825e-001
-5.9449935e-001
-6.0724616e-001
-6.0766733e-001
-5.9896678e-001
-5.6251603e-001
-5.1422012e-001
-4.8012400e-001
-4.5098495e-001
-4.2646152e-001
-4.0128055e-001
-3.3654866e-001
-2.6707080e-001
-1.9692224e-001
-1.2571670e-001
-4.0903069e-002
2.1587983e-003
6.7541510e-002
2.0870230e-001
4.1349840e-001
6.1085856e-001
7.8573477e-001
9.2752910e-001
9.9779266e-001
1.0199540e+000
9.6493006e-001
8.8223439e-001
7.6655829e-001
6.7435873e-001
6.0472697e-001
5.9369099e-001
6.2452298e-001
7.0974767e-001
8.2394439e-001
9.3221539e-001
1.0384321e+000
1.0847777e+000
1.1157142e+000
1.1189973e+000
1.1180013e+000
1.0490000e+000
