Image.
>Pix99999.
  .
5555
5555
2300
900
5555
2
1
0
701
5555
4.3763999e-002
4.4674695e-002
4.5585398e-002
4.6495095e-002
4.7405787e-002
4.8316486e-002
4.9227186e-002
5.0136890e-002
5.1047578e-002
5.1958274e-002
5.2868973e-002
5.3778682e-002
5.4689366e-002
5.5600062e-002
5.6510761e-002
5.7420481e-002
5.8331154e-002
5.9241854e-002
6.0152549e-002
6.1062273e-002
6.1972942e-002
6.2883638e-002
6.3794337e-002
6.4704061e-002
6.5614730e-002
6.6525429e-002
3.1597618e-002
1.1667472e-003
-3.5112001e-002
-6.2024113e-002
-8.7602928e-002
-8.8019483e-002
-8.8778153e-002
-1.3798724e-001
-1.8503249e-001
-1.9683850e-001
-1.7476399e-001
-6.5231016e-003
1.8885025e-001
4.4277802e-001
6.6507715e-001
8.1107098e-001
8.7117338e-001
7.9852140e-001
6.2423640e-001
3.3342892e-001
4.7237299e-002
-2.2728293e-001
-3.8718331e-001
-4.6196529e-001
-4.6819359e-001
-4.3820494e-001
-3.7315989e-001
-2.9380819e-001
-1.9446529e-001
-8.8911034e-002
2.7576801e-003
9.1164380e-002
2.0472097e-001
3.2185319e-001
4.2169744e-001
5.1007801e-001
4.8612899e-001
4.3563080e-001
2.9375479e-001
1.3208571e-001
-6.9498532e-002
-2.7021006e-001
-4.5843291e-001
-5.8959603e-001
-6.1483800e-001
-5.5520308e-001
-3.8847503e-001
-2.2912873e-001
-9.0712443e-002
-2.7750822e-002
-2.9593177e-002
-3.8200580e-002
-4.6912447e-002
-5.6438942e-002
-6.6354029e-002
-1.3112354e-001
-2.1876588e-001
-2.8243130e-001
-3.3773360e-001
-3.0399993e-001
-2.4978366e-001
-1.8170503e-001
-1.1441537e-001
-9.9600688e-002
-9.5193870e-002
-1.1179303e-001
-1.2225401e-001
-9.1429010e-002
-4.3622527e-002
3.7128944e-002
1.0630450e-001
1.3894977e-001
1.3367420e-001
7.3662601e-002
-4.3062856e-003
-9.5511608e-002
-1.9058846e-001
-2.8769767e-001
-3.7799743e-001
-4.6191049e-001
-5.0151730e-001
-5.1226455e-001
-4.6398255e-001
-3.8691369e-001
-2.6463684e-001
-1.2511785e-001
-8.8039516e-003
9.9259518e-002
1.2110708e-001
1.2031693e-001
6.6545658e-002
1.5589194e-003
-6.5704666e-002
-1.3235819e-001
-1.9290371e-001
-2.5253662e-001
-3.1544322e-001
-3.6769658e-001
-3.9342910e-001
-3.9023748e-001
-3.4226421e-001
-3.0206755e-001
-2.8451931e-001
-3.2415456e-001
-4.2475414e-001
-5.2614915e-001
-6.1787653e-001
-6.4886868e-001
-6.3500023e-001
-5.9307688e-001
-5.3906310e-001
-4.7105137e-001
-3.9739138e-001
-3.6714825e-001
-3.5439399e-001
-4.7015893e-001
-6.2685704e-001
-7.6422608e-001
-8.8611716e-001
-8.6570537e-001
-8.0940843e-001
-7.6199359e-001
-7.3463309e-001
-7.9222894e-001
-8.6102784e-001
-9.0386349e-001
-9.1994649e-001
-8.8285947e-001
-8.3510423e-001
-7.8150594e-001
-7.4510300e-001
-7.3486996e-001
-7.6458722e-001
-8.3673429e-001
-8.7546742e-001
-8.7707406e-001
-7.3107105e-001
-4.7965032e-001
-2.1337005e-001
5.0387997e-002
6.5471120e-002
-4.7912102e-002
-2.8676343e-001
-5.7236779e-001
-6.8678403e-001
-7.3281533e-001
-6.4567399e-001
-5.2021682e-001
-4.6327022e-001
-4.5147499e-001
-5.5833656e-001
-7.0294559e-001
-8.1991851e-001
-8.9525431e-001
-8.7696427e-001
-8.3047581e-001
-7.9413617e-001
-7.5718451e-001
-7.2522944e-001
-6.1029267e-001
-3.9168239e-001
-9.5918223e-002
2.5960079e-001
4.9668062e-001
6.2418944e-001
6.3603574e-001
5.7738519e-001
5.3373927e-001
5.0533801e-001
4.1815442e-001
2.9920039e-001
1.6786256e-001
3.5479736e-002
7.8584045e-002
1.9864714e-001
3.9555746e-001
5.9352213e-001
6.1174673e-001
5.0983441e-001
2.0454586e-001
-1.7477888e-001
-5.4501146e-001
-8.6068386e-001
-1.0651401e+000
-1.1510900e+000
-1.1070818e+000
-8.9546502e-001
-5.0648856e-001
-1.0084637e-001
2.7782387e-001
4.0940046e-001
3.0742809e-001
1.0327053e-001
-1.4604747e-001
-3.3364457e-001
-4.7430065e-001
-5.2575272e-001
-5.3154176e-001
-4.1540799e-001
-2.4175179e-001
-1.2600477e-001
-5.6807615e-002
-1.6450621e-001
-3.4579894e-001
-4.9901688e-001
-5.9746188e-001
-5.3261566e-001
-3.6493233e-001
-7.3282883e-002
1.9826464e-001
3.1322536e-001
2.5460002e-001
-3.8494408e-002
-3.9515221e-001
-7.2544771e-001
-9.3434489e-001
-9.9206507e-001
-9.5145088e-001
-8.4705138e-001
-7.2303849e-001
-5.9640771e-001
-4.8616916e-001
-4.0026784e-001
-3.0410379e-001
-1.9817215e-001
-3.8189549e-002
1.7039260e-001
2.6076597e-001
2.8620499e-001
2.1336542e-001
1.0645524e-001
1.4919512e-001
3.1271270e-001
6.8608201e-001
1.1696974e+000
1.6425622e+000
1.9718022e+000
1.9192414e+000
1.5870417e+000
1.0517501e+000
5.3450060e-001
2.0803665e-001
5.1633555e-002
-1.3570066e-001
-2.6526329e-001
-2.4536256e-001
5.6698918e-002
6.2701404e-001
1.2433958e+000
1.8297071e+000
2.0042548e+000
1.8163949e+000
1.5470986e+000
1.2654957e+000
1.3329400e+000
1.6551777e+000
1.8102266e+000
1.8169663e+000
1.3373497e+000
5.8215368e-001
2.9908389e-002
-2.6093888e-001
9.3373924e-002
9.7756314e-001
2.3056371e+000
3.6487458e+000
4.4447274e+000
4.8912063e+000
5.1597400e+000
5.6625848e+000
6.7362289e+000
8.6326485e+000
1.1456672e+001
1.4910501e+001
1.8787714e+001
2.2270769e+001
2.5067560e+001
2.7573128e+001
2.9944983e+001
3.3066994e+001
3.6976570e+001
4.1426140e+001
4.6263557e+001
5.0352100e+001
5.3776630e+001
5.7293350e+001
6.0947639e+001
6.5189011e+001
6.9842323e+001
7.4375099e+001
7.8799461e+001
8.3065208e+001
8.7176514e+001
9.1094475e+001
9.4823433e+001
9.8347237e+001
1.0143050e+002
1.0382868e+002
1.0471629e+002
1.0355035e+002
1.0104927e+002
9.7897957e+001
9.4582108e+001
9.1367531e+001
8.7762398e+001
8.3619179e+001
7.9249825e+001
7.4805687e+001
7.0622894e+001
6.6724068e+001
6.2655762e+001
5.8365623e+001
5.4033463e+001
4.9693222e+001
4.5591515e+001
4.1758709e+001
3.8320480e+001
3.5302090e+001
3.2697388e+001
3.0475037e+001
2.8479509e+001
2.6721775e+001
2.5190046e+001
2.3917336e+001
2.2909000e+001
2.2143969e+001
2.1566366e+001
2.1126228e+001
2.0760874e+001
2.0518114e+001
2.0411972e+001
2.0554031e+001
2.0976751e+001
2.1768394e+001
2.2947857e+001
2.4318228e+001
2.5828979e+001
2.7177828e+001
2.8306599e+001
2.9355608e+001
3.0344482e+001
3.1685898e+001
3.3489883e+001
3.6258228e+001
3.9910828e+001
4.3276329e+001
4.6197178e+001
4.8194782e+001
4.9473385e+001
5.0869392e+001
5.2422123e+001
5.4184948e+001
5.5628559e+001
5.6066589e+001
5.5432026e+001
5.3810074e+001
5.1844559e+001
5.0128201e+001
4.8682743e+001
4.7515701e+001
4.6428646e+001
4.5328518e+001
4.3910847e+001
4.2079636e+001
4.0079170e+001
3.7960117e+001
3.5987400e+001
3.4178062e+001
3.1916704e+001
2.9031872e+001
2.5889612e+001
2.2548780e+001
1.9761465e+001
1.7616720e+001
1.5632572e+001
1.3795766e+001
1.1953875e+001
1.0089197e+001
8.2069035e+000
6.3107543e+000
4.4124460e+000
2.6850946e+000
1.3174455e+000
4.1542876e-001
5.9619859e-002
2.1357101e-001
8.9824170e-001
1.6991220e+000
2.2954237e+000
2.7715421e+000
3.1025875e+000
3.5357132e+000
4.1889992e+000
4.9459262e+000
5.8209801e+000
6.4159393e+000
6.5909505e+000
6.5328059e+000
6.1713977e+000
5.7801857e+000
5.3484445e+000
4.9437990e+000
4.5780349e+000
4.3053041e+000
4.1077313e+000
3.9111886e+000
3.6831229e+000
3.3880296e+000
3.0930879e+000
2.8942671e+000
2.8279886e+000
2.9063070e+000
3.0590992e+000
3.2215621e+000
3.3449972e+000
3.3885300e+000
3.4630783e+000
3.6144185e+000
3.8663423e+000
4.2525873e+000
4.6754384e+000
5.1352162e+000
5.5650043e+000
5.9429498e+000
6.2345858e+000
6.3838754e+000
6.4014335e+000
6.2362037e+000
5.9998584e+000
5.6687298e+000
5.3203325e+000
4.9550190e+000
4.6184063e+000
4.3092227e+000
4.0184398e+000
3.7141554e+000
3.3775520e+000
3.0281754e+000
2.7126429e+000
2.4569244e+000
2.2553971e+000
2.0493252e+000
1.7696320e+000
1.4299090e+000
1.0342083e+000
6.6182607e-001
3.6128995e-001
1.1556066e-001
-5.2961484e-002
-1.5283179e-001
-1.1029896e-001
3.5299480e-002
3.6229667e-001
6.5373886e-001
8.6057317e-001
9.1432035e-001
7.5071704e-001
5.8596611e-001
4.4842616e-001
4.3198633e-001
5.8438247e-001
8.8343847e-001
1.3451492e+000
1.8736606e+000
2.4228199e+000
2.8457782e+000
3.1247022e+000
3.2238171e+000
3.1985755e+000
3.1088665e+000
2.9939771e+000
2.8985140e+000
2.8165884e+000
2.7640586e+000
2.7208285e+000
2.6916840e+000
2.6753559e+000
2.6918316e+000
2.7264760e+000
2.8005700e+000
2.8812046e+000
2.9796643e+000
3.0928102e+000
3.2446580e+000
3.4334671e+000
3.6859210e+000
3.9554737e+000
4.2389994e+000
4.4903359e+000
4.6956320e+000
4.8664632e+000
5.0093384e+000
5.1690860e+000
5.3577337e+000
5.5964346e+000
5.8803582e+000
6.1884885e+000
6.5108624e+000
6.8280711e+000
7.1410751e+000
7.4566498e+000
7.7623787e+000
8.0382729e+000
8.2753487e+000
8.4096174e+000
8.4943266e+000
8.4764996e+000
8.4342003e+000
8.3436565e+000
8.2353058e+000
8.0754690e+000
7.8739109e+000
7.5718956e+000
7.2261992e+000
6.7948198e+000
6.3421545e+000
5.8519397e+000
5.3458343e+000
4.8212485e+000
4.3070545e+000
3.8171420e+000
3.3824565e+000
3.0041566e+000
2.6612086e+000
2.3360357e+000
1.9817662e+000
1.6076982e+000
1.2196500e+000
8.4184366e-001
5.3287584e-001
2.6341423e-001
6.4324141e-002
-1.0149293e-001
-1.9961658e-001
-2.6045600e-001
-2.0931463e-001
-1.3518021e-001
5.3202957e-003
1.4544269e-001
2.8697151e-001
4.2271769e-001
5.4202741e-001
6.4094728e-001
6.9325608e-001
7.0277542e-001
6.3960016e-001
5.4577005e-001
4.1549948e-001
3.0481282e-001
2.1833786e-001
1.5405075e-001
1.0824500e-001
5.9146870e-002
1.3260035e-002
-4.0928712e-003
9.2698336e-003
1.2551086e-001
2.9955921e-001
5.6875640e-001
8.6681795e-001
1.1777557e+000
1.4867560e+000
1.7743440e+000
2.0521131e+000
2.2871671e+000
2.4829590e+000
2.5160160e+000
2.5165920e+000
2.4217055e+000
2.3833051e+000
2.4899166e+000
2.6652434e+000
2.9696670e+000
3.2588377e+000
3.5239713e+000
3.7825267e+000
4.0401158e+000
4.3467236e+000
4.6977549e+000
5.0275736e+000
5.3273296e+000
5.5314431e+000
5.6736279e+000
5.7825069e+000
5.8706799e+000
5.9192152e+000
5.9354625e+000
5.8084383e+000
5.6394067e+000
5.3901405e+000
5.1514559e+000
5.0672526e+000
5.0344973e+000
5.2857909e+000
5.5639997e+000
5.9563055e+000
6.3143349e+000
6.5572662e+000
6.7261186e+000
6.7153282e+000
6.6664467e+000
6.5519228e+000
6.4693871e+000
6.4336123e+000
6.4005203e+000
6.3603501e+000
6.2250800e+000
5.9947014e+000
5.6607294e+000
5.2590027e+000
4.8943114e+000
4.5622921e+000
4.3665257e+000
4.2237782e+000
4.0826225e+000
3.9300904e+000
3.6471705e+000
3.3351812e+000
2.9468679e+000
2.5529680e+000
2.1703782e+000
1.7974875e+000
1.4913349e+000
1.2100686e+000
1.0388694e+000
8.7717623e-001
7.4311912e-001
5.6197339e-001
2.7144328e-001
-6.1910689e-002
-4.6861789e-001
-8.4453642e-001
-1.1750060e+000
-1.4138637e+000
-1.5519172e+000
-1.5821078e+000
-1.5242660e+000
-1.4228871e+000
-1.2958063e+000
-1.1637950e+000
-1.0256234e+000
-8.0268204e-001
-5.5021620e-001
-2.6604348e-001
1.5714444e-002
7.9720870e-002
1.1044845e-001
-3.2101944e-002
-1.6434719e-001
-5.4168750e-002
1.2888014e-002
3.8774663e-001
7.4535847e-001
1.0265779e+000
1.2432885e+000
1.2716932e+000
1.3321146e+000
1.4629918e+000
1.6839406e+000
2.0485935e+000
2.4260559e+000
2.8179348e+000
3.1904943e+000
3.5450873e+000
3.8744643e+000
4.1841779e+000
4.3133717e+000
4.3424768e+000
4.0394835e+000
3.6055837e+000
3.0438800e+000
2.4476390e+000
2.1772740e+000
1.9593935e+000
2.3743000e+000
