Image.
>Pix99999.
  .
5555
5555
2300
900
5555
2
1
0
701
5555
2.1156999e-001
2.1597369e-001
2.2037740e-001
2.2477116e-001
2.2917481e-001
2.3357850e-001
2.3798220e-001
2.4237600e-001
2.4677961e-001
2.5118327e-001
2.5558701e-001
2.5999072e-001
2.6438457e-001
2.6877829e-001
2.7319160e-001
2.7762488e-001
2.8199011e-001
2.8627580e-001
2.9079351e-001
2.9564783e-001
2.9961714e-001
3.0231988e-001
3.0834702e-001
3.1904319e-001
3.1742996e-001
2.8015786e-001
1.7880654e-001
3.4300853e-003
-1.7602925e-001
-2.8436846e-001
-3.1608558e-001
-2.8998613e-001
-2.4198863e-001
-2.0327464e-001
-1.6664770e-001
-1.1799700e-001
-6.0375314e-002
-6.1224084e-003
1.5569085e-002
-2.0778654e-002
-1.0574441e-001
-2.1663307e-001
-3.1931621e-001
-3.8558426e-001
-4.2448479e-001
-4.5492014e-001
-4.8960605e-001
-5.3274113e-001
-5.6227231e-001
-5.5551589e-001
-5.2023357e-001
-4.7797173e-001
-4.6725988e-001
-5.2291125e-001
-6.4374465e-001
-8.1221294e-001
-9.9111998e-001
-1.1422753e+000
-1.2486823e+000
-1.3014290e+000
-1.2982771e+000
-1.2404552e+000
-1.1362011e+000
-1.0006833e+000
-8.6870742e-001
-7.7621639e-001
-7.3779255e-001
-7.5373948e-001
-7.9593718e-001
-8.3190012e-001
-8.4995800e-001
-8.4865069e-001
-8.3832586e-001
-8.2982618e-001
-8.2001823e-001
-8.0417430e-001
-7.9121256e-001
-7.9247552e-001
-8.0922079e-001
-8.3561432e-001
-8.5204887e-001
-8.3958608e-001
-8.0181539e-001
-7.5086313e-001
-7.0028919e-001
-6.6342849e-001
-6.5170550e-001
-6.7448819e-001
-7.3566902e-001
-8.3242661e-001
-9.4255269e-001
-1.0398980e+000
-1.1112760e+000
-1.1553192e+000
-1.1974063e+000
-1.2650692e+000
-1.3513354e+000
-1.4322420e+000
-1.4669501e+000
-1.4205736e+000
-1.3060143e+000
-1.1584026e+000
-1.0263826e+000
-9.5652235e-001
-9.6686715e-001
-1.0564765e+000
-1.1921972e+000
-1.3306056e+000
-1.4355103e+000
-1.4820386e+000
-1.4768429e+000
-1.4365991e+000
-1.3674920e+000
-1.2718428e+000
-1.1551591e+000
-1.0291300e+000
-9.2363685e-001
-8.6760414e-001
-8.5547310e-001
-8.6602247e-001
-8.7391967e-001
-8.5871738e-001
-8.2478988e-001
-7.8577423e-001
-7.5021923e-001
-7.2625142e-001
-7.3152298e-001
-7.8446156e-001
-8.8888794e-001
-1.0339389e+000
-1.1746157e+000
-1.2585006e+000
-1.2645160e+000
-1.1945980e+000
-1.0872314e+000
-9.8911512e-001
-9.1643012e-001
-8.6924851e-001
-8.4068787e-001
-8.2743925e-001
-8.5110998e-001
-9.3564034e-001
-1.0663501e+000
-1.2088646e+000
-1.3228709e+000
-1.3770692e+000
-1.3868455e+000
-1.3860940e+000
-1.3961303e+000
-1.4233015e+000
-1.4425499e+000
-1.4214519e+000
-1.3580211e+000
-1.2706430e+000
-1.1986520e+000
-1.1840779e+000
-1.2411424e+000
-1.3643935e+000
-1.5223603e+000
-1.6698413e+000
-1.7520572e+000
-1.7199069e+000
-1.5664042e+000
-1.3163509e+000
-1.0404233e+000
-8.2317364e-001
-7.1774650e-001
-7.4860364e-001
-8.9096606e-001
-1.0983578e+000
-1.3320271e+000
-1.5591044e+000
-1.7480628e+000
-1.8685162e+000
-1.8945265e+000
-1.8129749e+000
-1.6557480e+000
-1.4762695e+000
-1.3217986e+000
-1.2254061e+000
-1.1807829e+000
-1.1643184e+000
-1.1660141e+000
-1.1837747e+000
-1.2120566e+000
-1.2388607e+000
-1.2356871e+000
-1.1774288e+000
-1.0929149e+000
-1.0337219e+000
-1.0197257e+000
-1.0423050e+000
-1.0535852e+000
-1.0026108e+000
-9.1169810e-001
-8.4162045e-001
-8.3719319e-001
-9.1695476e-001
-1.0395427e+000
-1.1359190e+000
-1.1586000e+000
-1.0891955e+000
-9.7063595e-001
-8.7894410e-001
-8.8667268e-001
-1.0416512e+000
-1.3052865e+000
-1.5919553e+000
-1.8260679e+000
-1.9513764e+000
-1.9486101e+000
-1.8204864e+000
-1.5751212e+000
-1.2354990e+000
-8.8623768e-001
-6.3866055e-001
-5.6073010e-001
-6.7189640e-001
-9.0768212e-001
-1.1667926e+000
-1.3962429e+000
-1.5807233e+000
-1.7208180e+000
-1.8213745e+000
-1.8787040e+000
-1.8852072e+000
-1.8404943e+000
-1.7495797e+000
-1.6187749e+000
-1.4534752e+000
-1.2543299e+000
-1.0220287e+000
-7.6998073e-001
-5.2685720e-001
-3.5175440e-001
-3.1078357e-001
-4.1873765e-001
-6.4721382e-001
-9.3124819e-001
-1.1938354e+000
-1.3927715e+000
-1.5152208e+000
-1.5681865e+000
-1.5645025e+000
-1.4969686e+000
-1.3515401e+000
-1.1498249e+000
-9.3925965e-001
-7.6975334e-001
-6.7430758e-001
-6.1576641e-001
-5.2156788e-001
-3.7267599e-001
-1.9389199e-001
-1.7477751e-002
1.3022073e-001
2.4941444e-001
3.5570183e-001
4.5126054e-001
5.3302431e-001
6.2706202e-001
7.6855582e-001
9.3440711e-001
1.0544719e+000
1.0444034e+000
8.4487277e-001
5.3245437e-001
2.5846690e-001
6.8780802e-002
-6.8589568e-002
-1.3519329e-001
-7.3687911e-002
1.2900543e-001
4.3166009e-001
7.2173214e-001
8.5341823e-001
7.4475944e-001
3.9639688e-001
-5.7296142e-002
-4.0972930e-001
-5.4666603e-001
-4.6271101e-001
-2.7572864e-001
-1.6323249e-001
-2.0179218e-001
-3.5669371e-001
-4.8712963e-001
-3.9026451e-001
1.0726020e-001
1.0865289e+000
2.3503141e+000
3.5233026e+000
4.3869247e+000
4.9241719e+000
5.3394961e+000
5.9752650e+000
7.1122479e+000
8.9407768e+000
1.1563457e+001
1.4958736e+001
1.8795143e+001
2.2545401e+001
2.5891863e+001
2.8802837e+001
3.1617823e+001
3.4901558e+001
3.9010048e+001
4.3970482e+001
4.9260681e+001
5.4084843e+001
5.8347958e+001
6.2581802e+001
6.7206718e+001
7.2334763e+001
7.7570854e+001
8.2209145e+001
8.5927574e+001
8.8812477e+001
9.1024231e+001
9.2705551e+001
9.3940117e+001
9.4760353e+001
9.5188080e+001
9.5227524e+001
9.4798355e+001
9.3783218e+001
9.2251755e+001
9.0431908e+001
8.8452568e+001
8.6302147e+001
8.3870598e+001
8.1013077e+001
7.7737289e+001
7.4181068e+001
7.0384171e+001
6.6274155e+001
6.1796680e+001
5.6964142e+001
5.1936119e+001
4.6992424e+001
4.2373829e+001
3.8245861e+001
3.4697742e+001
3.1741261e+001
2.9301971e+001
2.7242865e+001
2.5456951e+001
2.3888691e+001
2.2532440e+001
2.1420597e+001
2.0583000e+001
2.0034575e+001
1.9762405e+001
1.9731152e+001
1.9915342e+001
2.0304485e+001
2.0889154e+001
2.1668180e+001
2.2690117e+001
2.4048456e+001
2.5822828e+001
2.8047312e+001
3.0642443e+001
3.3427330e+001
3.6246319e+001
3.8993877e+001
4.1589333e+001
4.4015881e+001
4.6502537e+001
4.9436352e+001
5.2745300e+001
5.5840061e+001
5.8172989e+001
5.9437840e+001
5.9759575e+001
5.9624966e+001
5.9263332e+001
5.8533726e+001
5.7245140e+001
5.5292824e+001
5.2857315e+001
5.0385880e+001
4.8180801e+001
4.6295444e+001
4.4658993e+001
4.3114952e+001
4.1485176e+001
3.9607887e+001
3.7420681e+001
3.4989849e+001
3.2481274e+001
3.0107994e+001
2.7884680e+001
2.5596235e+001
2.3081451e+001
2.0338472e+001
1.7574537e+001
1.5160403e+001
1.3247240e+001
1.1680799e+001
1.0267071e+001
8.8600893e+000
7.4192219e+000
6.0104046e+000
4.6601772e+000
3.3333542e+000
2.0584521e+000
9.5865393e-001
1.6609275e-001
-2.0056246e-001
-2.1348298e-002
7.9256582e-001
2.1355028e+000
3.6808960e+000
5.1601834e+000
6.4571648e+000
7.5752316e+000
8.6285591e+000
9.7420416e+000
1.0999345e+001
1.2348400e+001
1.3576870e+001
1.4472788e+001
1.4892592e+001
1.4822251e+001
1.4396965e+001
1.3757257e+001
1.3006070e+001
1.2216697e+001
1.1428802e+001
1.0648442e+001
9.8486948e+000
9.0191898e+000
8.1835585e+000
7.3881779e+000
6.6972756e+000
6.1664085e+000
5.8285880e+000
5.6835399e+000
5.6903114e+000
5.7938743e+000
5.9375372e+000
6.0977798e+000
6.2981939e+000
6.5698738e+000
6.9347239e+000
7.3823066e+000
7.8560967e+000
8.2775364e+000
8.5570707e+000
8.6364431e+000
8.5118074e+000
8.2184381e+000
7.8272357e+000
7.3931432e+000
6.9361849e+000
6.4714160e+000
6.0162158e+000
5.5792418e+000
5.1513853e+000
4.7005515e+000
4.1725745e+000
3.5480380e+000
2.8689795e+000
2.1946461e+000
1.5838293e+000
1.0634005e+000
6.1441618e-001
2.2841030e-001
-7.1120188e-002
-2.5358385e-001
-2.9023239e-001
-1.6254331e-001
1.2993804e-001
5.6870484e-001
1.1148182e+000
1.7443440e+000
2.4594789e+000
3.2374649e+000
4.0022516e+000
4.6447630e+000
5.0331383e+000
5.0961037e+000
4.8730202e+000
4.4449663e+000
3.9196587e+000
3.4008639e+000
2.9712119e+000
2.6774707e+000
2.5110495e+000
2.4298601e+000
2.3600504e+000
2.2418041e+000
2.0543172e+000
1.8015108e+000
1.5140879e+000
1.2294046e+000
9.8525268e-001
8.2009518e-001
7.7103007e-001
8.6125284e-001
1.0884007e+000
1.4339200e+000
1.8622308e+000
2.3413920e+000
2.8528073e+000
3.3788881e+000
3.8973672e+000
4.3790321e+000
4.7860165e+000
5.0952058e+000
5.3153472e+000
5.4730182e+000
5.6119509e+000
5.7686429e+000
5.9588923e+000
6.1962838e+000
6.5005183e+000
6.8982501e+000
7.4238648e+000
8.0968370e+000
8.9044962e+000
9.8188677e+000
1.0799385e+001
1.1814732e+001
1.2855499e+001
1.3912983e+001
1.4965557e+001
1.5966811e+001
1.6835886e+001
1.7490257e+001
1.7867075e+001
1.7924921e+001
1.7655420e+001
1.7065830e+001
1.6180128e+001
1.5039429e+001
1.3713575e+001
1.2298454e+001
1.0922314e+001
9.7132282e+000
8.7726841e+000
8.1635227e+000
7.8772364e+000
7.8629313e+000
8.0171175e+000
8.2237082e+000
8.3687315e+000
8.3620558e+000
8.1646719e+000
7.7668500e+000
7.1959567e+000
6.4917688e+000
5.7020612e+000
4.8816166e+000
4.0944982e+000
3.3976808e+000
2.8252609e+000
2.3862116e+000
2.0474727e+000
1.7701800e+000
1.5265448e+000
1.3094451e+000
1.1496900e+000
1.0772189e+000
1.0978078e+000
1.1973046e+000
1.3306960e+000
1.4511057e+000
1.5248253e+000
1.5251029e+000
1.4361901e+000
1.2584417e+000
1.0229928e+000
7.6919496e-001
5.3640997e-001
3.5182795e-001
2.1383518e-001
1.0915117e-001
1.5096322e-002
-7.7113286e-002
-1.4028190e-001
-1.5663719e-001
-1.5084441e-001
-1.5460749e-001
-1.9049093e-001
-2.6476446e-001
-3.4958690e-001
-4.0964401e-001
-4.1287702e-001
-3.4240243e-001
-2.1712889e-001
-6.8740502e-002
6.1545499e-002
1.3789965e-001
1.4493604e-001
8.3988652e-002
-1.3992317e-002
-1.1277092e-001
-1.8070422e-001
-1.8688285e-001
-9.9372916e-002
1.1589652e-001
4.9545482e-001
1.0538121e+000
1.7447522e+000
2.4887762e+000
3.1599674e+000
3.6444972e+000
3.8929908e+000
3.9003499e+000
3.7379355e+000
3.4884646e+000
3.2144575e+000
2.9654422e+000
2.7671692e+000
2.6325159e+000
2.5544147e+000
2.5136721e+000
2.4726512e+000
2.4052973e+000
2.3292124e+000
2.2706473e+000
2.2503641e+000
2.2749143e+000
2.3161643e+000
2.3457539e+000
2.3593798e+000
2.3661537e+000
2.3972318e+000
2.4811699e+000
2.6224751e+000
2.8075325e+000
2.9866524e+000
3.1086183e+000
3.1446493e+000
3.0761223e+000
2.8999820e+000
2.6235251e+000
2.2760561e+000
1.9041001e+000
1.5892805e+000
1.3934005e+000
1.2909188e+000
1.2252160e+000
1.1121436e+000
8.9633936e-001
6.3288409e-001
3.9208412e-001
2.0634387e-001
7.8532577e-002
-5.1749751e-002
-2.4577296e-001
-5.1700377e-001
-8.4864342e-001
-1.1647058e+000
-1.3817440e+000
-1.4407637e+000
-1.3153560e+000
-1.0653094e+000
-7.6791656e-001
-4.8688388e-001
-2.6079881e-001
-5.6239396e-002
1.6523714e-001
3.9875251e-001
6.2212491e-001
7.9118085e-001
8.6821914e-001
8.5617214e-001
7.6510990e-001
5.9543115e-001
3.5975921e-001
1.2192998e-001
-3.9048918e-002
-3.6151037e-002
2.0262879e-001
6.8719524e-001
1.3672514e+000
2.0328009e+000
2.4818115e+000
2.6863654e+000
2.6910684e+000
2.6454952e+000
2.6932325e+000
2.8584270e+000
3.1211641e+000
3.4081166e+000
3.6501327e+000
3.8437757e+000
4.0075569e+000
4.1798015e+000
4.3897462e+000
4.6118894e+000
4.7995925e+000
4.8791838e+000
4.8066907e+000
4.6829820e+000
4.6325803e+000
4.7308431e+000
5.0405998e+000
