##TITLE=Methyl Ethyl Ketone
##JCAMP-DX=4.24
##DATA TYPE=INFRARED SPECTRUM
##XUNITS=cm-1
##YUNITS=Absorbance
##FIRSTX=900
##LASTX=2300
##XYDATA=(X++(Y..Y))
2296 -0.026911
2294 -0.0274712
2292 -0.028031396
2290 -0.028590601
2288 -0.029150795
2286 -0.02971
2284 -0.030270191
2282 -0.030830389
2280 -0.031390589
2278 -0.031948812
2276 -0.032509971
2274 -0.033072151
2272 -0.033629432
2270 -0.034178786
2268 -0.034748577
2266 -0.035349101
2264 -0.035870112
2262 -0.036281068
2260 -0.03698469
2258 -0.03809844
2256 -0.03812414
2254 -0.036620498
2252 -0.039162025
2250 -0.047408685
2248 -0.040617935
2246 -0.0047217929
2244 0.022466134
2242 -0.0025922526
2240 -0.087913506
2238 -0.22364555
2236 -0.36874869
2234 -0.48466778
2232 -0.57823139
2230 -0.66698843
2228 -0.75877756
2226 -0.85609347
2224 -0.95191956
2222 -1.0385411
2220 -1.116582
2218 -1.1877499
2216 -1.2485542
2214 -1.2929522
2212 -1.312232
2210 -1.2999723
2208 -1.2627389
2206 -1.2120171
2204 -1.16292
2202 -1.1275165
2200 -1.103032
2198 -1.082707
2196 -1.0624499
2194 -1.0433843
2192 -1.0438515
2190 -1.0842988
2188 -1.1701957
2186 -1.2957799
2184 -1.428628
2182 -1.5322595
2180 -1.5882832
2178 -1.590036
2176 -1.5528629
2174 -1.4973671
2172 -1.4340686
2170 -1.3705239
2168 -1.3146468
2166 -1.2745843
2164 -1.25832
2162 -1.2711972
2160 -1.306196
2158 -1.3516263
2156 -1.3949
2154 -1.4250789
2152 -1.441188
2150 -1.4469098
2148 -1.4521397
2146 -1.4663608
2144 -1.4893051
2142 -1.517176
2140 -1.5459797
2138 -1.5733303
2136 -1.6017314
2134 -1.6336509
2132 -1.6622965
2130 -1.6795266
2128 -1.6835999
2126 -1.6766078
2124 -1.6650742
2122 -1.6558938
2120 -1.6506909
2118 -1.6501873
2116 -1.6602215
2114 -1.687017
2112 -1.7311018
2110 -1.7879279
2108 -1.8427083
2106 -1.8777436
2104 -1.8789937
2102 -1.8385297
2100 -1.7671701
2098 -1.683879
2096 -1.6123285
2094 -1.5727067
2092 -1.5658206
2090 -1.5839218
2088 -1.6162188
2086 -1.65241
2084 -1.6882788
2082 -1.7216556
2080 -1.7489423
2078 -1.7677749
2076 -1.78407
2074 -1.8058687
2072 -1.836044
2070 -1.8728818
2068 -1.9057049
2066 -1.9226
2064 -1.9224806
2062 -1.9090074
2060 -1.8879423
2058 -1.865857
2056 -1.8502514
2054 -1.8477173
2052 -1.8591775
2050 -1.8803937
2048 -1.897072
2046 -1.8938857
2044 -1.869066
2042 -1.8293563
2040 -1.7930182
2038 -1.78089
2036 -1.8043542
2034 -1.8641363
2032 -1.9355909
2030 -1.984778
2028 -1.9855803
2026 -1.9247171
2024 -1.824308
2022 -1.7197738
2020 -1.6365362
2018 -1.590245
2016 -1.57868
2014 -1.5915952
2012 -1.6180577
2010 -1.6467371
2008 -1.6647526
2006 -1.6605264
2004 -1.6318496
2002 -1.58293
2000 -1.52764
1998 -1.4829761
1996 -1.4616857
1994 -1.4718682
1992 -1.5098891
1990 -1.5657387
1988 -1.6237839
1986 -1.6695114
1984 -1.7026029
1982 -1.7296461
1980 -1.7566379
1978 -1.7849036
1976 -1.8001943
1974 -1.7828571
1972 -1.7221009
1970 -1.6168416
1968 -1.4869881
1966 -1.3617221
1964 -1.2668128
1962 -1.2215536
1960 -1.2271
1958 -1.2738558
1956 -1.3427471
1954 -1.410755
1952 -1.4561909
1950 -1.4642695
1948 -1.44539
1946 -1.4222749
1944 -1.4147286
1942 -1.4338247
1940 -1.4641392
1938 -1.4807593
1936 -1.4780543
1934 -1.4627542
1932 -1.447888
1930 -1.4442261
1928 -1.4413252
1926 -1.4177136
1924 -1.3541614
1922 -1.2415402
1920 -1.1060582
1918 -0.9891957
1916 -0.91747457
1914 -0.90258259
1912 -0.93429714
1910 -0.99391937
1908 -1.0745549
1906 -1.1721579
1904 -1.26288
1902 -1.3162022
1900 -1.3237274
1898 -1.2957902
1896 -1.2646571
1894 -1.2657385
1892 -1.2990954
1890 -1.344612
1888 -1.3867136
1886 -1.4174929
1884 -1.4431134
1882 -1.4724033
1880 -1.4918617
1878 -1.4759988
1876 -1.40636
1874 -1.2754143
1872 -1.1008103
1870 -0.91758347
1868 -0.77399462
1866 -0.71738201
1864 -0.76217067
1862 -0.89652473
1860 -1.0824368
1858 -1.2707092
1856 -1.4230286
1854 -1.5114944
1852 -1.5183015
1850 -1.4385464
1848 -1.3020281
1846 -1.1608001
1844 -1.0722117
1842 -1.0816774
1840 -1.1759658
1838 -1.304361
1836 -1.4130272
1834 -1.4568601
1832 -1.4210143
1830 -1.3166403
1828 -1.1862268
1826 -1.0864315
1824 -1.0567102
1822 -1.113212
1820 -1.225298
1818 -1.3356011
1816 -1.3957372
1814 -1.3766044
1812 -1.2947295
1810 -1.1925029
1808 -1.0987486
1806 -1.02396
1804 -0.95071024
1802 -0.84886205
1800 -0.70867562
1798 -0.54200697
1796 -0.38730571
1794 -0.2921657
1792 -0.27273721
1790 -0.31277427
1788 -0.35500041
1786 -0.33137643
1784 -0.23987463
1782 -0.1232723
1780 -0.0065103061
1778 0.10474595
1776 0.20817086
1774 0.29621977
1772 0.33752894
1770 0.2949613
1768 0.18191451
1766 0.053153258
1764 -0.021294395
1762 0.0059668552
1760 0.051099397
1758 -0.028925583
1756 -0.21118477
1754 -0.35007161
1752 -0.34774736
1750 -0.17822942
1748 0.097050533
1746 0.36229143
1744 0.51368886
1742 0.48984206
1740 0.34823012
1738 0.21765161
1736 0.157786
1734 0.15224874
1732 0.1288266
1730 0.0027286708
1728 -0.21565303
1726 -0.43371743
1724 -0.53543359
1722 -0.40121511
1720 0.073846608
1718 0.94666708
1716 2.1068902
1714 3.3285587
1712 4.4436908
1710 5.3847542
1708 6.2534361
1706 7.2749643
1704 8.6752014
1702 10.631195
1700 13.176831
1698 16.195852
1696 19.394142
1694 22.39749
1692 25.045723
1690 27.418354
1688 29.804314
1686 32.595814
1684 36.003883
1682 39.991474
1680 44.147842
1678 47.884514
1676 51.109074
1674 54.188606
1672 57.50124
1670 61.290752
1668 65.480064
1666 69.753952
1664 73.895393
1662 77.817352
1660 81.435356
1658 84.659821
1656 87.470802
1654 89.911163
1652 92.035759
1650 93.862106
1648 95.22541
1646 95.849533
1644 95.689529
1642 94.916023
1640 93.622665
1638 91.78582
1636 89.341896
1634 86.251656
1632 82.673149
1630 78.912102
1628 75.11573
1626 71.248436
1624 67.248878
1622 63.086071
1620 58.825077
1618 54.612659
1616 50.573227
1614 46.796276
1612 43.373062
1610 40.385891
1608 37.839382
1606 35.660557
1604 33.764843
1602 32.080658
1600 30.573433
1598 29.239716
1596 28.075001
1594 27.06883
1592 26.210749
1590 25.497744
1588 24.947134
1586 24.590786
1584 24.441395
1582 24.48856
1580 24.731047
1578 25.182262
1576 25.847914
1574 26.714819
1572 27.720482
1570 28.763241
1568 29.78196
1566 30.765299
1564 31.708447
1562 32.636219
1560 33.745518
1558 35.360111
1556 37.550114
1554 40.06218
1552 42.517994
1550 44.536743
1548 46.04084
1546 47.264786
1544 48.374092
1542 49.3699
1540 50.160942
1538 50.604134
1536 50.618515
1534 50.222294
1532 49.527302
1530 48.712128
1528 47.876541
1526 47.003948
1524 46.012814
1522 44.785236
1520 43.25272
1518 41.432091
1516 39.451958
1514 37.5145
1512 35.642521
1510 33.635246
1508 31.290237
1506 28.507994
1504 25.461782
1502 22.581928
1500 20.122522
1498 18.046719
1496 16.201857
1494 14.387233
1492 12.4856
1490 10.49993
1488 8.4642248
1486 6.4296746
1484 4.5032024
1482 2.8414369
1480 1.5324495
1478 0.58422422
1476 0.091225006
1474 0.22691041
1472 0.90878308
1470 1.742154
1468 2.4628727
1466 3.0636144
1464 3.6029606
1462 4.1387296
1460 4.6495667
1458 5.0204077
1456 5.1672997
1454 5.0871139
1452 4.8649087
1450 4.658813
1448 4.5323801
1446 4.4106359
1444 4.2366309
1442 4.0167542
1440 3.7641971
1438 3.4797246
1436 3.1447041
1434 2.7249899
1432 2.222312
1430 1.6935911
1428 1.2136902
1426 0.85899663
1424 0.67024696
1422 0.63478261
1420 0.71128005
1418 0.8392821
1416 0.98043656
1414 1.135419
1412 1.3236704
1410 1.5751607
1408 1.9003417
1406 2.2790706
1404 2.687963
1402 3.1081083
1400 3.5181599
1398 3.8913047
1396 4.1979074
1394 4.4094977
1392 4.5201921
1390 4.5557237
1388 4.5395508
1386 4.4806199
1384 4.3807087
1382 4.2366319
1380 4.0522976
1378 3.8426604
1376 3.6200514
1374 3.3894691
1372 3.1574099
1370 2.934315
1368 2.7244577
1366 2.5193021
1364 2.2945554
1362 2.0106282
1360 1.6514628
1358 1.2450407
1356 0.83990157
1354 0.49532032
1352 0.23859122
1350 0.045228198
1348 -0.10496338
1346 -0.205715
1344 -0.23785479
1342 -0.17720211
1340 -0.034969568
1338 0.1212156
1336 0.22638085
1334 0.24612638
1332 0.18632743
1330 0.10498802
1328 0.056006998
1326 0.065967396
1324 0.14834884
1322 0.30331263
1320 0.51747817
1318 0.75983852
1316 0.99557799
1314 1.1922771
1312 1.3307011
1310 1.4136126
1308 1.4525558
1306 1.4651664
1304 1.4696274
1302 1.48263
1300 1.5185947
1298 1.5877379
1296 1.6928
1294 1.8239813
1292 1.9654626
1290 2.0965548
1288 2.2027881
1286 2.284025
1284 2.3509011
1282 2.4259517
1280 2.5290926
1278 2.6689217
1276 2.8433058
1274 3.036036
1272 3.2312655
1270 3.4208009
1268 3.6055341
1266 3.7993791
1264 4.0203137
1262 4.2872782
1260 4.6149201
1258 5.009171
1256 5.4703803
1254 5.99156
1252 6.5638227
1250 7.1778054
1248 7.8238759
1246 8.4920998
1244 9.1702566
1242 9.8419962
1240 10.487868
1238 11.084624
1236 11.609229
1234 12.040501
1232 12.35856
1230 12.542892
1228 12.586009
1226 12.500458
1224 12.308555
1222 12.036718
1220 11.704288
1218 11.31088
1216 10.851972
1214 10.325371
1212 9.737421
1210 9.1150389
1208 8.4851141
1206 7.8652143
1204 7.2622142
1202 6.6663723
1200 6.0686922
1198 5.47014
1196 4.8776283
1194 4.3046775
1192 3.7652326
1190 3.2702241
1188 2.8252447
1186 2.42681
1184 2.0696464
1182 1.7499981
1180 1.4728849
1178 1.2607317
1176 1.13296
1174 1.0926238
1172 1.1260889
1170 1.1922474
1168 1.2493258
1166 1.2697151
1164 1.2399869
1162 1.171319
1160 1.0788019
1158 0.97319794
1156 0.86015773
1154 0.73649037
1152 0.5986948
1150 0.44774839
1148 0.28968579
1146 0.14019839
1144 0.021159954
1142 -0.038261354
1140 -0.021923501
1138 0.052542344
1136 0.16670772
1134 0.31918061
1132 0.51198751
1130 0.7455191
1128 1.0192165
1126 1.3310021
1124 1.6774665
1122 2.0525482
1120 2.4493959
1118 2.8601866
1116 3.2720599
1114 3.6609049
1112 4.0046082
1110 4.2936997
1108 4.5289397
1106 4.7297301
1104 4.9227486
1102 5.1411424
1100 5.4137712
1098 5.7527947
1096 6.1521001
1094 6.5693278
1092 6.9646616
1090 7.3285422
1088 7.6691885
1086 8.020483
1084 8.4034052
1082 8.7894363
1080 9.1361713
1078 9.398221
1076 9.5470905
1074 9.6024218
1072 9.5979815
1070 9.573947
1068 9.5634298
1066 9.5752153
1064 9.6058807
1062 9.6342525
1060 9.6329384
1058 9.5702887
1056 9.4189596
1054 9.1677589
1052 8.8185015
1050 8.3994036
1048 7.9468536
1046 7.5016575
1044 7.0939984
1042 6.7202263
1040 6.3648539
1038 6.0038443
1036 5.6214199
1034 5.2322726
1032 4.8550382
1030 4.4975953
1028 4.1586123
1026 3.819345
1024 3.4640102
1022 3.099791
1020 2.7431107
1018 2.4211843
1016 2.1550715
1014 1.9402466
1012 1.763592
1010 1.6058867
1008 1.4514401
1006 1.2997357
1004 1.1472033
1002 0.97010797
1000 0.74352169
998 0.4552117
996 0.10698929
994 -0.264741
992 -0.61823845
990 -0.92224491
988 -1.1541194
986 -1.3106543
984 -1.3919588
982 -1.3940393
980 -1.311058
978 -1.1349139
976 -0.86298084
974 -0.51395011
972 -0.1159319
970 0.28871235
968 0.65680492
966 0.954557
964 1.1548774
962 1.2457787
960 1.2265052
958 1.1214797
956 0.96228629
954 0.78331107
952 0.61117882
950 0.44342047
948 0.27729028
946 0.13460918
944 0.039234072
942 0.00054785982
940 0.018312342
938 0.07050541
936 0.12603199
934 0.14095105
932 0.086009793
930 -0.0027561635
928 -0.082764216
926 -0.14753857
924 -0.2057434
922 -0.28864861
920 -0.41660926
918 -0.54744571
916 -0.62930048
914 -0.63314027
912 -0.55371809
910 -0.45531821
908 -0.40679938
906 -0.426976
904 -0.50891501
902 -0.59340143
900 -0.61441052
898 -0.53050941
896 -0.30641001
