Image.
>Pix99999.
  .
5555
5555
2300
900
5555
2
1
0
701
5555
1.6588999e-001
1.6934505e-001
1.7279014e-001
1.7624517e-001
1.7970023e-001
1.8314536e-001
1.8660034e-001
1.9004551e-001
1.9350046e-001
1.9695552e-001
2.0040071e-001
2.0385562e-001
2.0730086e-001
2.1075575e-001
2.1421079e-001
2.1765608e-001
2.2111093e-001
2.2455621e-001
2.2801103e-001
2.3146610e-001
2.3491143e-001
2.3836620e-001
2.4182124e-001
2.4526665e-001
2.4872138e-001
2.5216681e-001
9.8095171e-002
3.5542415e-003
-7.0507199e-002
1.0221007e-003
9.3923353e-002
2.5427571e-001
4.1517910e-001
4.7995919e-001
5.2358776e-001
4.3511599e-001
3.3102509e-001
1.8623951e-001
6.5800838e-002
2.6135746e-002
4.5403540e-002
1.8347958e-001
3.4857520e-001
5.4631245e-001
7.0519727e-001
8.1313026e-001
8.6123079e-001
8.5479277e-001
8.1244791e-001
7.4594468e-001
6.6369927e-001
5.7329583e-001
4.5876798e-001
3.3389032e-001
2.8020206e-001
2.4987151e-001
4.2433199e-001
6.4556104e-001
8.9876366e-001
1.1540558e+000
1.2170172e+000
1.2563188e+000
1.2276176e+000
1.1941971e+000
1.1707572e+000
1.1413043e+000
1.0866026e+000
1.0416827e+000
1.0285617e+000
1.0299437e+000
1.0527000e+000
1.0315676e+000
9.4376117e-001
8.1680477e-001
6.5361756e-001
5.6106496e-001
5.3430492e-001
6.1629838e-001
7.6915580e-001
9.0788430e-001
1.0349840e+000
1.0663784e+000
1.0580057e+000
9.8410249e-001
8.9045084e-001
7.1441841e-001
5.1956582e-001
3.4317330e-001
1.8198028e-001
2.4902113e-001
3.6509627e-001
6.0407919e-001
8.3253032e-001
9.3546969e-001
9.8680258e-001
9.3775755e-001
8.8308108e-001
8.4858334e-001
8.2536739e-001
8.1604105e-001
8.1058711e-001
8.0748820e-001
8.1653839e-001
8.3782542e-001
8.7646067e-001
9.2803401e-001
9.8896688e-001
1.0549059e+000
1.1132212e+000
1.1671693e+000
1.2068543e+000
1.2409720e+000
1.2227800e+000
1.1879438e+000
1.1103569e+000
1.0234421e+000
9.7816467e-001
9.4799209e-001
9.8996282e-001
1.0555996e+000
1.1734886e+000
1.2999681e+000
1.4196471e+000
1.5226462e+000
1.5857863e+000
1.6211464e+000
1.6178440e+000
1.5762812e+000
1.4884006e+000
1.3862736e+000
1.2778729e+000
1.2201898e+000
1.2127360e+000
1.2415121e+000
1.2916204e+000
1.2864028e+000
1.2433811e+000
1.1199328e+000
9.5740032e-001
7.9919696e-001
6.4507198e-001
6.0953051e-001
6.1399770e-001
6.4741176e-001
6.8183142e-001
6.1717564e-001
5.3772038e-001
5.3208059e-001
5.7010490e-001
7.1521622e-001
8.4553361e-001
8.4909433e-001
7.8673911e-001
6.4770114e-001
5.7528758e-001
6.5305352e-001
8.0761987e-001
1.0194752e+000
1.1405375e+000
1.1438653e+000
1.0442228e+000
8.7260270e-001
7.6434302e-001
7.1552390e-001
7.5105315e-001
8.3323991e-001
8.3033186e-001
7.7884704e-001
6.6303003e-001
5.2188671e-001
4.9081641e-001
5.0267088e-001
5.9184700e-001
6.9257128e-001
6.6729653e-001
5.7934499e-001
3.7133887e-001
1.5380290e-001
3.9637789e-002
-1.5620684e-002
9.0034213e-004
3.7761712e-003
-6.5256447e-002
-1.8385525e-001
-3.4973446e-001
-4.6226028e-001
-4.8868713e-001
-3.2981858e-001
5.3988546e-003
4.1150460e-001
8.4405941e-001
1.1504557e+000
1.3564086e+000
1.3970530e+000
1.3431952e+000
1.1145250e+000
7.9827517e-001
5.2300692e-001
2.7192640e-001
2.6502150e-001
3.6032572e-001
5.3516144e-001
7.2295052e-001
7.9109079e-001
7.8246075e-001
6.4273560e-001
4.4950402e-001
2.4245310e-001
3.8560890e-002
-1.4720133e-001
-3.4418401e-001
-5.7533193e-001
-7.8829139e-001
-9.5794582e-001
-1.0008858e+000
-8.9989078e-001
-7.4205106e-001
-5.6581390e-001
-4.5209759e-001
-3.9967126e-001
-4.2474458e-001
-4.9991062e-001
-6.1732101e-001
-7.5754297e-001
-8.5978162e-001
-9.3898433e-001
-1.0329138e+000
-1.1388447e+000
-1.3156348e+000
-1.5228431e+000
-1.7096800e+000
-1.8632400e+000
-1.8978652e+000
-1.8104086e+000
-1.4736238e+000
-1.0329863e+000
-5.9785295e-001
-3.1778947e-001
-3.6238781e-001
-5.8784473e-001
-9.0943885e-001
-1.1697000e+000
-1.2920529e+000
-1.2863795e+000
-1.1800543e+000
-1.0404745e+000
-8.9763570e-001
-8.0543166e-001
-7.6127356e-001
-7.9030550e-001
-8.6984211e-001
-8.9351135e-001
-8.7005758e-001
-6.4875358e-001
-3.0469865e-001
2.5697857e-002
3.3269051e-001
4.8158351e-001
5.4592371e-001
6.2420613e-001
7.1098715e-001
8.0191052e-001
8.3733457e-001
6.9755918e-001
4.8812521e-001
3.1918329e-001
2.3324379e-001
2.7221435e-001
1.1763669e-001
-2.4596554e-001
-6.2736773e-001
-9.8498452e-001
-1.1083937e+000
-9.5689863e-001
-5.9427959e-001
-9.4818212e-002
1.9795994e-001
2.6250404e-001
1.2122930e-001
-1.5569945e-001
-1.8642201e-001
-1.3700850e-002
3.0596215e-001
6.9858557e-001
7.0389652e-001
4.4968849e-001
1.5718523e-001
-8.7839425e-002
8.1026793e-002
6.7568481e-001
1.7507467e+000
3.0014067e+000
4.0416818e+000
4.8878169e+000
5.5427799e+000
6.3330183e+000
7.5554461e+000
9.5292721e+000
1.2407854e+001
1.6005093e+001
2.0106857e+001
2.3853930e+001
2.6933760e+001
2.9677526e+001
3.2266834e+001
3.5571636e+001
3.9636066e+001
4.4245529e+001
4.9231400e+001
5.3416847e+001
5.6887459e+001
6.0379452e+001
6.3978806e+001
6.8301628e+001
7.3179138e+001
7.8130600e+001
8.3067421e+001
8.7704956e+001
9.1985535e+001
9.5751785e+001
9.8999260e+001
1.0172026e+002
1.0383440e+002
1.0528782e+002
1.0561737e+002
1.0450643e+002
1.0234963e+002
9.9574379e+001
9.6412254e+001
9.3051918e+001
8.9157799e+001
8.4659027e+001
8.0007683e+001
7.5381653e+001
7.0955719e+001
6.6740219e+001
6.2299839e+001
5.7598118e+001
5.2980965e+001
4.8483505e+001
4.4331001e+001
4.0537785e+001
3.7163929e+001
3.4224339e+001
3.1705719e+001
2.9586821e+001
2.7730974e+001
2.6145529e+001
2.4798599e+001
2.3704067e+001
2.2844000e+001
2.2219257e+001
2.1796896e+001
2.1561172e+001
2.1472115e+001
2.1532972e+001
2.1728367e+001
2.2047569e+001
2.2472254e+001
2.3068949e+001
2.3856544e+001
2.4860878e+001
2.6083780e+001
2.7326824e+001
2.8545120e+001
2.9665230e+001
3.0681210e+001
3.1907593e+001
3.3443188e+001
3.5851337e+001
3.9139656e+001
4.2496628e+001
4.5743141e+001
4.8195515e+001
4.9903580e+001
5.1362785e+001
5.2528851e+001
5.3406464e+001
5.3764019e+001
5.3350246e+001
5.2293999e+001
5.0875843e+001
4.9361183e+001
4.8024853e+001
4.6797447e+001
4.5619202e+001
4.4297173e+001
4.2713165e+001
4.0863914e+001
3.8739346e+001
3.6724197e+001
3.4953888e+001
3.3201599e+001
3.1415642e+001
2.8997028e+001
2.5761621e+001
2.2483303e+001
1.9246561e+001
1.6650444e+001
1.4783950e+001
1.3048857e+001
1.1452125e+001
9.8900394e+000
8.3649645e+000
6.8632798e+000
5.3830857e+000
3.9105761e+000
2.5415761e+000
1.4091287e+000
5.9032339e-001
1.4661014e-001
1.7893228e-001
7.3398972e-001
1.4529680e+000
2.1549225e+000
2.7774351e+000
3.2631280e+000
3.8004246e+000
4.4850717e+000
5.2316456e+000
6.0347800e+000
6.5973606e+000
6.7783046e+000
6.8103342e+000
6.6483498e+000
6.4762177e+000
6.2835879e+000
6.0483460e+000
5.7589149e+000
5.4585114e+000
5.1363401e+000
4.7846174e+000
4.3955722e+000
3.9793918e+000
3.5763519e+000
3.2688186e+000
3.0853670e+000
3.0453696e+000
3.1380017e+000
3.3445835e+000
3.6384687e+000
4.0008321e+000
4.3859820e+000
4.7548599e+000
5.0830994e+000
5.3386817e+000
5.5236359e+000
5.6080856e+000
5.6414042e+000
5.6092949e+000
5.6085286e+000
5.6760378e+000
5.7720966e+000
5.9092307e+000
5.9769163e+000
5.9317899e+000
5.8016400e+000
5.5518298e+000
5.2454438e+000
4.8694205e+000
4.4690742e+000
4.0604525e+000
3.7089360e+000
3.4191942e+000
3.1740885e+000
2.9268816e+000
2.5831852e+000
2.1576939e+000
1.6658640e+000
1.1832323e+000
8.0079514e-001
4.9309862e-001
2.7193069e-001
9.3606703e-002
-4.0344231e-002
-1.2397642e-001
-1.1624880e-001
-5.8361892e-002
8.6109109e-002
2.2964749e-001
3.6358830e-001
4.6152386e-001
5.0202894e-001
5.4301971e-001
5.9324461e-001
6.8529087e-001
8.4465539e-001
1.0712370e+000
1.3805789e+000
1.7273663e+000
2.0898101e+000
2.3846035e+000
2.5930908e+000
2.6923575e+000
2.7071147e+000
2.6793814e+000
2.6365182e+000
2.6158490e+000
2.6047740e+000
2.5957158e+000
2.5708714e+000
2.5023415e+000
2.4252646e+000
2.3529935e+000
2.3074760e+000
2.3309278e+000
2.3787758e+000
2.4775546e+000
2.5679309e+000
2.6375899e+000
2.6846485e+000
2.6924820e+000
2.7203920e+000
2.7913699e+000
2.9271150e+000
3.1565092e+000
3.4212978e+000
3.7260141e+000
4.0309300e+000
4.3393292e+000
4.6607199e+000
4.9939637e+000
5.3342538e+000
5.6780267e+000
6.0187097e+000
6.3646498e+000
6.7349324e+000
7.1192327e+000
7.5200601e+000
7.9103589e+000
8.2510529e+000
8.5418768e+000
8.7005920e+000
8.7869701e+000
8.6808271e+000
8.5108356e+000
8.1707973e+000
7.7891245e+000
7.3094945e+000
6.8143353e+000
6.2893572e+000
5.7628598e+000
5.2296638e+000
4.6735892e+000
4.0851536e+000
3.4843659e+000
2.8861082e+000
2.3615353e+000
1.9237418e+000
1.5829473e+000
1.3128715e+000
1.0490338e+000
7.8095233e-001
4.7967702e-001
1.7281473e-001
-9.6841842e-002
-3.2760590e-001
-4.4876951e-001
-5.1286954e-001
-4.4596460e-001
-3.3802000e-001
-1.3656843e-001
6.8936020e-002
2.6882762e-001
4.5413244e-001
5.9551370e-001
7.3268121e-001
8.5815388e-001
9.7117472e-001
1.0570053e+000
1.1221914e+000
1.1521618e+000
1.1649177e+000
1.1466776e+000
1.0757262e+000
9.3802214e-001
7.3064995e-001
4.7057891e-001
2.3637822e-001
5.9036087e-002
9.4184637e-002
2.8553131e-001
7.4786317e-001
1.3139366e+000
1.8799434e+000
2.4115171e+000
2.7615700e+000
3.0742071e+000
3.3583040e+000
3.6519477e+000
4.0096216e+000
4.3566117e+000
4.6524935e+000
4.9183221e+000
5.0887618e+000
5.2444448e+000
5.3666978e+000
5.5071383e+000
5.6882429e+000
5.9146366e+000
6.2119999e+000
6.5264778e+000
6.8618102e+000
7.1979399e+000
7.5423422e+000
7.9408278e+000
8.3838043e+000
8.8515434e+000
9.3146887e+000
9.6437216e+000
9.8807487e+000
9.8905373e+000
9.8185225e+000
9.6898384e+000
9.5642939e+000
9.5516434e+000
9.5525122e+000
9.5449209e+000
9.5296488e+000
9.4685202e+000
9.4193888e+000
9.4220619e+000
9.4153557e+000
9.3762465e+000
9.3046007e+000
9.1587114e+000
9.0457497e+000
8.9969130e+000
8.9849167e+000
9.0139713e+000
8.9228506e+000
8.6783199e+000
8.2486362e+000
7.6561518e+000
7.0664034e+000
6.4993978e+000
6.1460376e+000
5.9143248e+000
5.7910633e+000
5.6965485e+000
5.4632797e+000
5.1788597e+000
4.7412457e+000
4.2703991e+000
3.7154839e+000
3.1544914e+000
2.6048040e+000
2.0747035e+000
1.6784400e+000
1.2949072e+000
9.6690857e-001
6.3001239e-001
2.6749077e-001
-6.8464994e-002
-3.4170592e-001
-5.7864881e-001
-7.5429749e-001
-9.4998014e-001
-1.1692240e+000
-1.3360186e+000
-1.4342686e+000
-1.2803414e+000
-9.1575974e-001
-3.6307266e-001
2.9180068e-001
7.2815299e-001
1.0468568e+000
9.8646462e-001
7.9956794e-001
5.1988000e-001
2.2732025e-001
8.9030005e-002
-2.5708679e-002
-2.1414539e-002
-1.2365084e-002
-4.0764213e-003
3.9493740e-003
1.2010214e-001
2.7468115e-001
5.9117210e-001
8.7392682e-001
1.0565856e+000
1.1854728e+000
1.2017201e+000
1.2916406e+000
1.5018964e+000
1.8595459e+000
2.3979745e+000
3.0381122e+000
3.7710323e+000
4.3947244e+000
4.9369335e+000
5.1159549e+000
5.1029992e+000
5.0628629e+000
5.0162287e+000
5.5663419e+000
6.2738709e+000
7.2691803e+000
8.3102369e+000
8.9651003e+000
