##TITLE=Methyl Ethyl Ketone
##JCAMP-DX=4.24
##DATA TYPE=INFRARED SPECTRUM
##XUNITS=cm-1
##YUNITS=Absorbance
##FIRSTX=900
##LASTX=2300
##XYDATA=(X++(Y..Y))
2296 0.0072511998
2294 0.0074052797
2292 0.0075592594
2290 0.0077133388
2288 0.0078674182
2286 0.0080214981
2284 0.008175578
2282 0.0083295582
2280 0.0084836371
2278 0.0086377161
2276 0.0087917959
2274 0.0089456784
2272 0.0090998532
2270 0.0092544248
2268 0.0094080241
2266 0.0095601371
2264 0.0097161271
2262 0.0098772785
2260 0.010024225
2258 0.010151553
2256 0.0103318
2254 0.01058435
2252 0.010643334
2250 0.010429326
2248 0.01093576
2246 0.01208125
2244 0.008242975
2242 -0.0038574494
2240 -0.011814436
2238 -0.0033718464
2236 0.015229065
2234 0.030109292
2232 0.017974526
2230 -0.040622216
2228 -0.13888979
2226 -0.25922301
2224 -0.37114158
2222 -0.44754633
2220 -0.48977253
2218 -0.51012862
2216 -0.53111315
2214 -0.56805664
2212 -0.59534037
2210 -0.57867539
2208 -0.49866629
2206 -0.35018766
2204 -0.166713
2202 0.0082014808
2200 0.13801527
2198 0.19717179
2196 0.19512929
2194 0.1551559
2192 0.11242017
2190 0.098101437
2188 0.11270315
2186 0.14643429
2184 0.18740761
2182 0.22644405
2180 0.26718533
2178 0.31535843
2176 0.36809257
2174 0.4178912
2172 0.45008147
2170 0.4509609
2168 0.42036101
2166 0.36624599
2164 0.3115046
2162 0.27833524
2160 0.26618794
2158 0.26473126
2156 0.25545499
2154 0.22280927
2152 0.17395222
2150 0.12221869
2148 0.073817946
2146 0.029951286
2144 -0.017937286
2142 -0.076898478
2140 -0.13412581
2138 -0.17065947
2136 -0.17138229
2134 -0.12953353
2132 -0.066276677
2130 -0.0092261648
2128 0.028404333
2126 0.044229779
2124 0.057766531
2122 0.089510031
2120 0.13178496
2118 0.16505051
2116 0.16449885
2114 0.110054
2112 0.0076493667
2110 -0.12210747
2108 -0.23833559
2106 -0.29842457
2104 -0.28281865
2102 -0.19320635
2100 -0.081869215
2098 -0.012133834
2096 -0.014165601
2094 -0.093354121
2092 -0.20835045
2090 -0.30613884
2088 -0.35839242
2086 -0.35294351
2084 -0.301498
2082 -0.22558087
2080 -0.1502444
2078 -0.09765745
2076 -0.07374806
2074 -0.074663445
2072 -0.083089277
2070 -0.080000237
2068 -0.060808152
2066 -0.029477557
2064 -0.00012013456
2062 0.011468905
2060 -0.0012555365
2058 -0.039455365
2056 -0.098592401
2054 -0.17104313
2052 -0.24546397
2050 -0.30912706
2048 -0.34963512
2046 -0.36054787
2044 -0.35967681
2042 -0.37335762
2040 -0.42025432
2038 -0.50700444
2036 -0.60581857
2034 -0.67929852
2032 -0.7117064
2030 -0.70282972
2028 -0.67438596
2026 -0.65132082
2024 -0.63363147
2022 -0.61078173
2020 -0.57686824
2018 -0.53209096
2016 -0.49076998
2014 -0.46866724
2012 -0.4611721
2010 -0.4565495
2008 -0.45366603
2006 -0.45818672
2004 -0.48133552
2002 -0.53305221
2000 -0.6080718
1998 -0.69483978
1996 -0.78561145
1994 -0.87449378
1992 -0.95380652
1990 -1.0131704
1988 -1.0349281
1986 -1.0033572
1984 -0.92681789
1982 -0.82741463
1980 -0.73625094
1978 -0.68120545
1976 -0.66099882
1974 -0.65878069
1972 -0.65288752
1970 -0.62607181
1968 -0.5859012
1966 -0.55185503
1964 -0.54135573
1962 -0.56679875
1960 -0.6271376
1958 -0.71380854
1956 -0.81430471
1954 -0.91361135
1952 -0.99243903
1950 -1.0337892
1948 -1.040448
1946 -1.0263751
1944 -1.0098977
1942 -1.0070207
1940 -1.0170197
1938 -1.0311666
1936 -1.0444828
1934 -1.054028
1932 -1.055534
1930 -1.0431875
1928 -1.0088762
1926 -0.94444811
1924 -0.84630239
1922 -0.71789622
1920 -0.58222049
1918 -0.4694266
1916 -0.39573443
1914 -0.36589321
1912 -0.3715148
1910 -0.40180504
1908 -0.46373114
1906 -0.56689727
1904 -0.68696201
1902 -0.78026688
1900 -0.80537063
1898 -0.7374171
1896 -0.61105573
1894 -0.48941579
1892 -0.41400734
1890 -0.40259939
1888 -0.43609464
1886 -0.48112449
1884 -0.52851367
1882 -0.58431923
1880 -0.65201616
1878 -0.72735822
1876 -0.78533399
1874 -0.79421151
1872 -0.74507362
1870 -0.64857101
1868 -0.53717619
1866 -0.44947693
1864 -0.40002587
1862 -0.3843286
1860 -0.38236737
1858 -0.3690269
1856 -0.33136541
1854 -0.26483324
1852 -0.16582863
1850 -0.035084091
1848 0.10604028
1846 0.22246429
1844 0.27466309
1842 0.23237221
1840 0.11289922
1838 -0.038025953
1836 -0.18128306
1834 -0.28902161
1832 -0.35074463
1830 -0.36589655
1828 -0.33288047
1826 -0.25370449
1824 -0.15463743
1822 -0.07431259
1820 -0.035854101
1818 -0.044387467
1816 -0.077240631
1814 -0.098484255
1812 -0.08810734
1810 -0.042189498
1808 0.026457537
1806 0.097728252
1804 0.16204067
1802 0.21979293
1800 0.27957302
1798 0.34912118
1796 0.41178501
1794 0.43768665
1792 0.41408882
1790 0.34816778
1788 0.27525786
1786 0.24004757
1784 0.24965143
1782 0.28804278
1780 0.36194175
1778 0.48826331
1776 0.64212203
1774 0.76343936
1772 0.77628708
1770 0.62297493
1768 0.3619459
1766 0.12468442
1764 -0.00460824
1762 -0.010239813
1760 0.014164235
1758 -0.064452738
1756 -0.22584213
1754 -0.33994752
1752 -0.32779482
1750 -0.1799296
1748 0.039927974
1746 0.22752249
1744 0.30570394
1742 0.24191019
1740 0.087460905
1738 -0.055284157
1736 -0.119904
1734 -0.090067074
1732 -0.018283749
1730 0.0077585177
1728 -0.044770468
1726 -0.15043516
1724 -0.23824845
1722 -0.2125988
1720 0.0072824508
1718 0.46966016
1716 1.1432917
1714 1.934993
1712 2.7390647
1710 3.4761674
1708 4.19414
1706 5.0502543
1704 6.2454801
1702 7.9825616
1700 10.382423
1698 13.432313
1696 16.803715
1694 19.980709
1692 22.707073
1690 25.031805
1688 27.276142
1686 29.906349
1684 33.220428
1682 37.253162
1680 41.582359
1678 45.539074
1676 48.952328
1674 52.137501
1672 55.480011
1670 59.273964
1668 63.462315
1666 67.715797
1664 71.805641
1662 75.6492
1660 79.227356
1658 82.55088
1656 85.63208
1654 88.472183
1652 91.037201
1650 93.243996
1648 94.901604
1646 95.777786
1644 95.866165
1642 95.36348
1640 94.412987
1638 93.047081
1636 91.177155
1634 88.654739
1632 85.496803
1630 81.883484
1628 77.981209
1626 73.900551
1624 69.697762
1622 65.398804
1620 61.077595
1618 56.855785
1616 52.832573
1614 49.07497
1612 45.643208
1610 42.587849
1608 39.904434
1606 37.539101
1604 35.445744
1602 33.596561
1600 31.97216
1598 30.557621
1596 29.333
1594 28.274403
1592 27.374342
1590 26.645239
1588 26.10848
1586 25.7855
1584 25.673103
1582 25.745399
1580 25.998978
1578 26.45862
1576 27.150801
1574 28.082922
1572 29.172628
1570 30.256241
1568 31.2164
1566 32.01857
1564 32.728477
1562 33.523617
1560 34.704582
1558 36.600742
1556 39.141087
1554 41.825352
1552 44.18391
1550 45.935787
1548 47.120277
1546 48.059105
1544 48.953701
1542 49.794838
1540 50.47876
1538 50.856037
1536 50.831799
1534 50.403343
1532 49.673855
1530 48.829258
1528 47.971966
1526 47.081299
1524 46.080364
1522 44.86565
1520 43.384041
1518 41.663403
1516 39.822269
1514 38.032627
1512 36.299923
1510 34.427017
1508 32.215378
1506 29.559406
1504 26.595417
1502 23.690046
1500 21.067411
1498 18.71339
1496 16.529428
1494 14.388227
1492 12.232032
1490 10.095205
1488 8.0212994
1486 6.0462885
1484 4.2398419
1482 2.7048774
1480 1.4924178
1478 0.59839606
1476 0.10875543
1474 0.19351441
1472 0.80377918
1470 1.616061
1468 2.4005663
1466 3.1308572
1464 3.8587806
1462 4.6653652
1460 5.5532856
1458 6.4087811
1456 7.0631199
1454 7.3386645
1452 7.2173791
1450 6.8810987
1448 6.4769864
1446 6.0486717
1444 5.6193695
1442 5.2138081
1440 4.8515663
1438 4.5384707
1436 4.242887
1434 3.8938577
1432 3.455987
1430 2.9587972
1428 2.468116
1426 2.0739365
1424 1.8361628
1422 1.7608154
1420 1.8190272
1418 1.952003
1416 2.109477
1414 2.2667248
1412 2.4298062
1410 2.6367528
1408 2.9129944
1406 3.255065
1404 3.6496444
1402 4.0776262
1400 4.5144601
1398 4.9287801
1396 5.2824287
1394 5.5342116
1392 5.6660156
1390 5.6933146
1388 5.6305585
1386 5.4800448
1384 5.2465849
1382 4.9445229
1380 4.6031952
1378 4.2666302
1376 3.9567285
1374 3.6582665
1372 3.355546
1370 3.0459561
1368 2.7354364
1366 2.4355757
1364 2.1395056
1362 1.814038
1360 1.4436491
1358 1.0511386
1356 0.6767897
1354 0.37060016
1352 0.1584117
1350 0.025718316
1348 -0.04268802
1346 -0.047570571
1344 0.020698756
1342 0.17780571
1340 0.40887618
1338 0.64920402
1336 0.83330542
1334 0.91830087
1332 0.89983159
1330 0.82648772
1328 0.74736035
1326 0.69264472
1324 0.68809259
1322 0.75665987
1320 0.90601039
1318 1.1179472
1316 1.3609
1314 1.5932356
1312 1.7859371
1310 1.9352561
1308 2.0425661
1306 2.1071813
1304 2.1256418
1302 2.0927131
1300 2.0145199
1298 1.9182106
1296 1.8385428
1294 1.812559
1292 1.8618666
1290 1.9787873
1288 2.1387279
1286 2.3012865
1284 2.4339783
1282 2.5268354
1280 2.5860384
1278 2.6371169
1276 2.7035356
1274 2.7963121
1272 2.9183538
1270 3.0630283
1268 3.2257378
1266 3.4094913
1264 3.6204605
1262 3.8677001
1260 4.1616001
1258 4.5128255
1256 4.9289541
1254 5.4100637
1252 5.9462204
1250 6.5131216
1248 7.0878692
1246 7.657825
1244 8.2187777
1242 8.7759094
1240 9.3260651
1238 9.8443556
1236 10.291915
1234 10.61332
1232 10.7632
1230 10.722149
1228 10.504775
1226 10.179422
1224 9.8075628
1222 9.4171858
1220 9.0135565
1218 8.575429
1216 8.0907764
1214 7.578908
1212 7.0668683
1210 6.5816798
1208 6.1403842
1206 5.7377806
1204 5.354404
1202 4.9528909
1200 4.5019717
1198 3.9933395
1196 3.438643
1194 2.8787189
1192 2.3506811
1190 1.868948
1188 1.4387026
1186 1.0573103
1184 0.72404695
1182 0.44490713
1180 0.22533205
1178 0.065807082
1176 -0.033772599
1174 -0.072760083
1172 -0.054444805
1170 0.0080995038
1168 0.09385898
1166 0.17054465
1164 0.21286698
1162 0.21772219
1160 0.19188543
1158 0.1515197
1156 0.1065585
1154 0.048380982
1152 -0.03035748
1150 -0.123209
1148 -0.2143172
1146 -0.27438572
1144 -0.27701515
1142 -0.21081921
1140 -0.075680546
1138 0.11126031
1136 0.33496687
1134 0.59447008
1132 0.88736081
1130 1.1999183
1128 1.5168692
1126 1.8259971
1124 2.1162481
1122 2.377939
1120 2.6090281
1118 2.8248684
1116 3.0467687
1114 3.2979767
1112 3.5894527
1110 3.9006023
1108 4.2053723
1106 4.4849348
1104 4.7338724
1102 4.9762926
1100 5.2393398
1098 5.5399179
1096 5.8894429
1094 6.2912478
1092 6.7422481
1090 7.226615
1088 7.7180614
1086 8.1709852
1084 8.5427771
1082 8.8121109
1080 8.976428
1078 9.0689611
1076 9.1269817
1074 9.1747856
1072 9.2264242
1070 9.2765808
1068 9.321023
1066 9.3699589
1064 9.4310598
1062 9.4950075
1060 9.5425444
1058 9.538722
1056 9.4539194
1054 9.2834225
1052 9.0366077
1050 8.7448826
1048 8.4433184
1046 8.1605244
1044 7.9137411
1042 7.6911163
1040 7.4750628
1038 7.2507181
1036 7.0113602
1034 6.770371
1032 6.5393643
1030 6.3094506
1028 6.062655
1026 5.7686849
1024 5.4064584
1022 4.9918451
1020 4.5544605
1018 4.1368527
1016 3.7693372
1014 3.436224
1012 3.1106782
1010 2.7698822
1008 2.41046
1006 2.087425
1004 1.8534135
1002 1.710276
1000 1.6360841
998 1.5754659
996 1.4788786
994 1.341935
992 1.1704177
990 0.96631992
988 0.73442501
986 0.48998183
984 0.25752014
982 0.082656808
980 0.0072611962
978 0.043510377
976 0.19103286
974 0.43179837
972 0.73704219
970 1.05677
968 1.3395852
966 1.548165
964 1.6643949
962 1.722981
960 1.7620789
958 1.7843211
956 1.7747943
954 1.6882639
952 1.48526
950 1.1716378
948 0.78228813
946 0.4120782
944 0.14837235
942 -0.0014360212
940 -0.040701937
938 0.059198886
936 0.30533341
934 0.59811592
932 0.83055478
930 0.96599334
928 0.99513721
926 0.94510704
924 0.84998423
922 0.73592061
920 0.6255343
918 0.53536934
916 0.47386557
914 0.42447251
912 0.36282337
910 0.25851482
908 0.091940627
906 -0.10871208
904 -0.30883837
902 -0.49547666
900 -0.66950989
898 -0.8652823
896 -1.1255
