##TITLE=Methyl Ethyl Ketone
##JCAMP-DX=4.24
##DATA TYPE=INFRARED SPECTRUM
##XUNITS=cm-1
##YUNITS=Absorbance
##FIRSTX=900
##LASTX=2300
##XYDATA=(X++(Y..Y))
2296 0.018463001
2294 0.01884645
2292 0.019230898
2290 0.019614354
2288 0.0199988
2286 0.02038325
2284 0.020766709
2282 0.02115115
2280 0.0215356
2278 0.02192005
2276 0.022303514
2274 0.022685982
2272 0.023071382
2270 0.023460759
2268 0.023839422
2266 0.0242032
2264 0.02460772
2262 0.025066804
2260 0.02537808
2258 0.02548134
2256 0.026135828
2254 0.027566351
2252 0.026945559
2250 0.023433581
2248 0.027543863
2246 0.044871788
2244 0.04853715
2242 0.011750527
2240 -0.055266321
2238 -0.13303685
2236 -0.20721386
2234 -0.26789531
2232 -0.31695738
2230 -0.36034343
2228 -0.40686879
2226 -0.46441099
2224 -0.53401411
2222 -0.60953707
2220 -0.66410792
2218 -0.67221302
2216 -0.63857716
2214 -0.58066505
2212 -0.53079158
2210 -0.51480263
2208 -0.5148778
2206 -0.50330907
2204 -0.46618497
2202 -0.40264913
2200 -0.3466123
2198 -0.3345795
2196 -0.37013716
2194 -0.44008222
2192 -0.50533706
2190 -0.52416217
2188 -0.47636166
2186 -0.3566215
2184 -0.19189641
2182 -0.019636191
2180 0.12147348
2178 0.19998027
2176 0.21484487
2174 0.17850672
2172 0.11784077
2170 0.062472962
2168 0.034680892
2166 0.048612416
2164 0.095528923
2162 0.15751746
2160 0.21024868
2158 0.23406479
2156 0.236534
2154 0.23447734
2152 0.2445392
2150 0.27668485
2148 0.31490782
2146 0.33584821
2144 0.32302773
2142 0.269155
2140 0.1938646
2138 0.12491316
2136 0.084832601
2134 0.08675611
2132 0.11408044
2130 0.13989134
2128 0.13847239
2126 0.093718268
2124 0.025944084
2122 -0.032227904
2120 -0.052144971
2118 -0.015703138
2116 0.059451599
2114 0.14388712
2112 0.21391125
2110 0.25193998
2108 0.25487635
2106 0.22498636
2104 0.16457216
2102 0.077495731
2100 -0.024979221
2098 -0.1277943
2096 -0.21180858
2094 -0.25950968
2092 -0.2661809
2090 -0.23453665
2088 -0.1771484
2086 -0.110834
2084 -0.054788344
2082 -0.026345829
2080 -0.031834327
2078 -0.068145573
2076 -0.11127093
2074 -0.13091813
2072 -0.10486324
2070 -0.022189789
2068 0.095908314
2066 0.21452071
2064 0.29559377
2062 0.30906597
2060 0.26137814
2058 0.17699319
2056 0.092460424
2054 0.042180754
2052 0.033502743
2050 0.057402801
2048 0.084887281
2046 0.083176322
2044 0.0368312
2042 -0.055508621
2040 -0.16888073
2038 -0.271658
2036 -0.35023758
2034 -0.4032535
2032 -0.44530079
2030 -0.4928301
2028 -0.5424307
2026 -0.58019388
2024 -0.58638406
2022 -0.54688823
2020 -0.48005024
2018 -0.41927472
2016 -0.39945999
2014 -0.44427612
2012 -0.53041762
2010 -0.61688614
2008 -0.67835259
2006 -0.70304453
2004 -0.70070881
2002 -0.6864689
2000 -0.65804493
1998 -0.60653371
1996 -0.53182214
1994 -0.44367802
1992 -0.37410542
1990 -0.35972989
1988 -0.41327742
1986 -0.52869225
1984 -0.67128682
1982 -0.79595315
1980 -0.86864871
1978 -0.86660194
1976 -0.78860229
1974 -0.64815217
1972 -0.47839981
1970 -0.32149237
1968 -0.21954583
1966 -0.20534542
1964 -0.27434328
1962 -0.39970607
1960 -0.53878158
1958 -0.6496281
1956 -0.72193515
1954 -0.76333481
1952 -0.78748173
1950 -0.80637723
1948 -0.81684381
1946 -0.80873752
1944 -0.77604347
1942 -0.71882862
1940 -0.6514501
1938 -0.59380066
1936 -0.55825168
1934 -0.54973394
1932 -0.56052703
1930 -0.57749796
1928 -0.59158492
1926 -0.59624749
1924 -0.5841831
1922 -0.55065084
1920 -0.50462765
1918 -0.4620961
1916 -0.43695101
1914 -0.44023028
1912 -0.47833508
1910 -0.5553875
1908 -0.67617977
1906 -0.83742166
1904 -0.99808002
1902 -1.0995294
1900 -1.0989363
1898 -0.97673863
1896 -0.76871568
1894 -0.53953427
1892 -0.34770522
1890 -0.2383393
1888 -0.22518109
1886 -0.29888412
1884 -0.42523265
1882 -0.56011301
1880 -0.67181939
1878 -0.74055785
1876 -0.76188397
1874 -0.73842645
1872 -0.66796649
1870 -0.55093098
1868 -0.41563514
1866 -0.30542514
1864 -0.25527686
1862 -0.2855199
1860 -0.38129419
1858 -0.50966477
1856 -0.64879858
1854 -0.78482693
1852 -0.9000082
1850 -0.97689903
1848 -1.0139384
1846 -1.0223072
1844 -1.0241251
1842 -1.0415901
1840 -1.0709075
1838 -1.0893415
1836 -1.06604
1834 -0.9725278
1832 -0.80578411
1830 -0.5887835
1828 -0.38696885
1826 -0.28021428
1824 -0.29953125
1822 -0.43107888
1820 -0.61338282
1818 -0.76683688
1816 -0.85176855
1814 -0.86484122
1812 -0.8353166
1810 -0.80422038
1808 -0.78416145
1806 -0.76783448
1804 -0.75235301
1802 -0.7397567
1800 -0.72976196
1798 -0.71537828
1796 -0.66924214
1794 -0.5609175
1792 -0.4073948
1790 -0.25563848
1788 -0.13472304
1786 -0.053403173
1784 -0.0027190633
1782 0.035773452
1780 0.077378988
1778 0.1348497
1776 0.22509199
1774 0.35866788
1772 0.50169289
1770 0.59218341
1768 0.5848164
1766 0.46512899
1764 0.2870726
1762 0.13716576
1760 0.036579352
1758 -0.036857806
1756 -0.059718899
1754 0.021329872
1752 0.21214834
1750 0.46779889
1748 0.69397682
1746 0.78282392
1744 0.70634288
1742 0.51464051
1740 0.32639697
1738 0.27657586
1736 0.37982598
1734 0.54533935
1732 0.63935381
1730 0.53872979
1728 0.25692427
1726 -0.079602644
1724 -0.31444201
1722 -0.29586262
1720 0.071484238
1718 0.80405176
1716 1.7574871
1714 2.6923277
1712 3.4779344
1710 4.1201987
1708 4.784256
1706 5.7370243
1704 7.2080832
1702 9.3509731
1700 12.180326
1698 15.557974
1696 19.119999
1694 22.39732
1692 25.209658
1690 27.697172
1688 30.28023
1686 33.521435
1684 37.768749
1682 43.034458
1680 48.725563
1678 53.93581
1676 58.492901
1674 62.90649
1672 67.64637
1670 72.919724
1668 78.386398
1666 83.333603
1664 87.361465
1662 90.441139
1660 92.69577
1658 94.313126
1656 95.447823
1654 96.196899
1652 96.577698
1650 96.535736
1648 95.973709
1646 94.812675
1644 93.185295
1642 91.38047
1640 89.508255
1638 87.469971
1636 85.08313
1634 82.164398
1632 78.719208
1630 74.913269
1628 70.838341
1626 66.486656
1624 61.857719
1622 56.996811
1620 52.047661
1618 47.228989
1616 42.709831
1614 38.591755
1612 34.954258
1610 31.85215
1608 29.261753
1606 27.089758
1604 25.248802
1602 23.678785
1600 22.35808
1598 21.298176
1596 20.5075
1594 19.982065
1592 19.706446
1590 19.659725
1588 19.834848
1586 20.23975
1584 20.878012
1582 21.75643
1580 22.932993
1578 24.510191
1576 26.558115
1574 29.077177
1572 31.938396
1570 34.905991
1568 37.81432
1566 40.602234
1564 43.255802
1562 45.826401
1560 48.545277
1558 51.718071
1556 55.140713
1554 58.08807
1552 60.030418
1550 60.838699
1548 60.770634
1546 60.351501
1544 59.786942
1542 58.865746
1540 57.326221
1538 55.014095
1536 52.133743
1534 49.227142
1532 46.665699
1530 44.527042
1528 42.746624
1526 41.162701
1524 39.572578
1522 37.765633
1520 35.616791
1518 33.133308
1516 30.496058
1514 28.017715
1512 25.82132
1510 23.763683
1508 21.63274
1506 19.246471
1504 16.658777
1502 14.172741
1500 12.000929
1498 10.169059
1496 8.6114712
1494 7.2095194
1492 5.8899093
1490 4.6472936
1488 3.4716485
1486 2.3411829
1484 1.2912624
1482 0.42937103
1480 -0.13802505
1478 -0.32214114
1476 -0.021866322
1474 0.8477785
1472 2.1788149
1470 3.6438189
1468 4.9918919
1466 6.14958
1464 7.1754513
1462 8.2385292
1460 9.4700356
1458 10.892179
1456 12.3518
1454 13.52075
1452 14.171702
1450 14.277109
1448 13.934114
1446 13.339214
1444 12.650911
1442 11.94127
1440 11.23256
1438 10.504481
1436 9.7187691
1434 8.8361378
1432 7.8790007
1430 6.9530034
1428 6.1607862
1426 5.5700436
1424 5.2065606
1422 5.0465665
1420 5.0476789
1418 5.1570029
1416 5.3225002
1414 5.5020943
1412 5.6865563
1410 5.9084811
1408 6.1998692
1406 6.5738778
1404 7.0122337
1402 7.4548349
1400 7.821816
1398 8.0237751
1396 8.0029783
1394 7.7583995
1392 7.3426509
1390 6.8629045
1388 6.4036856
1386 5.9953704
1384 5.6415052
1382 5.3236947
1380 5.0198722
1378 4.7076926
1376 4.3520885
1374 3.9054205
1372 3.354368
1370 2.7430849
1368 2.1329887
1366 1.5860164
1364 1.1286579
1362 0.73516083
1360 0.38383302
1358 0.080392107
1356 -0.14570144
1354 -0.23935588
1352 -0.15168057
1350 0.1427992
1348 0.63769639
1346 1.2847321
1344 2.0293159
1342 2.8183908
1340 3.5801389
1338 4.2132206
1336 4.618083
1334 4.7196598
1332 4.5133343
1330 4.0998411
1328 3.5977657
1326 3.1119366
1324 2.718998
1322 2.449872
1320 2.3021474
1318 2.2337046
1316 2.1884799
1314 2.1050568
1312 1.9411268
1310 1.6924872
1308 1.3856877
1306 1.083833
1304 0.85075277
1302 0.73283988
1300 0.74987578
1298 0.88250959
1296 1.1062714
1294 1.4046197
1292 1.7708606
1290 2.2103381
1288 2.717612
1286 3.2631907
1284 3.8096325
1282 4.3167734
1280 4.7537265
1278 5.1084013
1276 5.3779082
1274 5.5689998
1272 5.6966338
1270 5.7879663
1268 5.8806777
1266 6.0257874
1264 6.2736478
1262 6.6640296
1260 7.2134538
1258 7.8992448
1256 8.6842861
1254 9.5240631
1252 10.390059
1250 11.287905
1248 12.2284
1246 13.2195
1244 14.248526
1242 15.26447
1240 16.201925
1238 16.981236
1236 17.527599
1234 17.783449
1232 17.70352
1230 17.264467
1228 16.468473
1226 15.359507
1224 14.012772
1222 12.544043
1220 11.079082
1218 9.7388077
1216 8.623312
1214 7.7860961
1212 7.2545791
1210 7.0223136
1208 7.0510039
1206 7.2516413
1204 7.5087581
1202 7.6807365
1200 7.6501126
1198 7.3670878
1196 6.8314857
1194 6.1142964
1192 5.3011479
1190 4.4715939
1188 3.6905284
1186 2.9931207
1184 2.401696
1182 1.9251337
1180 1.5623349
1178 1.2975352
1176 1.11066
1174 0.98128933
1172 0.89529598
1170 0.85344797
1168 0.8581931
1166 0.90734327
1164 0.98893255
1162 1.071923
1160 1.1233519
1158 1.1177164
1156 1.0445237
1154 0.92388409
1152 0.78343678
1150 0.65031397
1148 0.54047722
1146 0.44468001
1144 0.35098714
1142 0.2548084
1140 0.15054065
1138 0.027363084
1136 -0.11666252
1134 -0.25986001
1132 -0.37804478
1130 -0.45458356
1128 -0.47575966
1126 -0.43233663
1124 -0.33185846
1122 -0.2191624
1120 -0.14174199
1118 -0.12934193
1116 -0.18557599
1114 -0.26147088
1112 -0.306748
1110 -0.30011174
1108 -0.23715538
1106 -0.13743354
1104 -0.019082345
1102 0.11765824
1100 0.27505076
1098 0.45092151
1096 0.6430614
1094 0.85312104
1092 1.096366
1090 1.4190819
1088 1.8578988
1086 2.4028521
1084 3.0128775
1082 3.5967734
1080 4.0639381
1078 4.3596749
1076 4.4503932
1074 4.3370543
1072 4.0436616
1070 3.6346352
1068 3.18859
1066 2.7941129
1064 2.5189879
1062 2.3666923
1060 2.3139675
1058 2.308147
1056 2.2937114
1054 2.2294722
1052 2.0930076
1050 1.905813
1048 1.7101989
1046 1.5743035
1044 1.5511854
1042 1.6321453
1040 1.7887045
1038 1.97887
1036 2.1663499
1034 2.3404293
1032 2.489356
1030 2.5802388
1028 2.5833535
1026 2.4944208
1024 2.3230858
1022 2.1016629
1020 1.8624746
1018 1.6215476
1016 1.3876286
1014 1.1578834
1012 0.91806966
1010 0.6288569
1008 0.25590801
1006 -0.19890577
1004 -0.70429313
1002 -1.1664851
1000 -1.4980892
998 -1.681582
996 -1.7343857
994 -1.7294409
992 -1.738077
990 -1.7807552
988 -1.8539897
986 -1.9173771
984 -1.9280171
982 -1.8664117
980 -1.730992
978 -1.5598298
976 -1.3972743
974 -1.2759839
972 -1.2107037
970 -1.1675602
968 -1.1063114
966 -1.0072355
964 -0.86542165
962 -0.71025681
960 -0.57342994
958 -0.46604848
956 -0.38967329
954 -0.33063164
952 -0.27262801
950 -0.20356843
948 -0.119594
946 -0.04162493
944 0.018351108
942 0.10179931
940 0.2536754
938 0.4833194
936 0.77687776
934 1.0684392
932 1.2877645
930 1.3960183
928 1.3831731
926 1.3169743
924 1.2751521
922 1.2993317
920 1.4095886
918 1.5783193
916 1.7771757
914 2.0210731
912 2.3387372
910 2.7714529
908 3.3363295
906 3.9450572
904 4.4832377
902 4.8382511
900 4.942904
898 4.9094796
896 4.8951998
