##TITLE=Methyl Ethyl Ketone
##JCAMP-DX=4.24
##DATA TYPE=INFRARED SPECTRUM
##XUNITS=cm-1
##YUNITS=Absorbance
##FIRSTX=900
##LASTX=2300
##XYDATA=(X++(Y..Y))
2296 0.087782003
2294 0.089608386
2292 0.091434777
2290 0.093260169
2288 0.095086545
2286 0.096912943
2284 0.098739326
2282 0.10056175
2280 0.10238909
2278 0.10421647
2276 0.10604385
2274 0.10787124
2272 0.10969862
2270 0.1115162
2268 0.1133434
2266 0.11520993
2264 0.11699909
2262 0.11869872
2260 0.1206496
2258 0.12296676
2256 0.124322
2254 0.1243309
2252 0.12790403
2250 0.13650185
2248 0.13184555
2246 0.097636499
2244 0.047602471
2242 0.0035540888
2240 -0.014140224
2238 0.0099308528
2236 0.073127188
2234 0.16586179
2232 0.27123201
2230 0.37046051
2228 0.44547865
2226 0.47624001
2224 0.43355194
2222 0.30012277
2220 0.11743674
2218 -0.050974436
2216 -0.12263325
2214 -0.031881157
2212 0.19693041
2210 0.50266153
2208 0.78501153
2206 0.9494555
2204 0.97132134
2202 0.86088812
2200 0.68270802
2198 0.5121358
2196 0.40171859
2194 0.38584208
2192 0.45487776
2190 0.5822354
2188 0.72812837
2186 0.85492659
2184 0.94989759
2182 1.011955
2180 1.0547698
2178 1.0926309
2176 1.1244172
2174 1.1435314
2172 1.1411809
2170 1.112772
2168 1.0720217
2166 1.0388086
2164 1.0337168
2162 1.0724747
2160 1.1525302
2158 1.2631924
2156 1.38564
2154 1.4970226
2152 1.568488
2150 1.5746834
2148 1.5110162
2146 1.3901072
2144 1.2631103
2142 1.18611
2140 1.1794552
2138 1.242321
2136 1.3386058
2134 1.4258717
2132 1.4847102
2130 1.506008
2128 1.484768
2126 1.4243171
2124 1.355
2122 1.3152245
2120 1.3359793
2118 1.4317737
2116 1.56171
2114 1.671207
2112 1.7338136
2110 1.7408532
2108 1.7119718
2106 1.673015
2104 1.633172
2102 1.5962578
2100 1.572108
2098 1.5733787
2096 1.6131001
2094 1.696871
2092 1.7990021
2090 1.8818315
2088 1.9082297
2086 1.85232
2084 1.7327039
2082 1.5881617
2080 1.4680046
2078 1.4177794
2076 1.4520042
2074 1.5652676
2072 1.7216159
2070 1.8718762
2068 1.9634411
2066 1.9537851
2064 1.8472669
2062 1.6749203
2060 1.4982349
2058 1.381533
2056 1.3513542
2054 1.4089333
2052 1.5177783
2050 1.6281945
2048 1.6968538
2046 1.6933714
2044 1.626258
2042 1.524531
2040 1.4332731
2038 1.396644
2036 1.4301085
2034 1.5295962
2032 1.6624771
2030 1.786105
2028 1.8648723
2026 1.8756785
2024 1.8331223
2022 1.7660565
2020 1.6946352
2018 1.6286476
2016 1.55396
2014 1.4537716
2012 1.3437577
2010 1.2542008
2008 1.2113446
2006 1.2308643
2004 1.2949994
2002 1.3721941
2000 1.4352257
1998 1.4628918
1996 1.4457858
1994 1.3829825
1992 1.2851783
1990 1.1705822
1988 1.067446
1986 1.0031835
1984 0.98448318
1982 1.0058669
1980 1.0544888
1978 1.1179404
1976 1.1978772
1974 1.301569
1972 1.430634
1970 1.5772783
1968 1.7068658
1966 1.7761543
1964 1.7593063
1962 1.648397
1960 1.4723281
1958 1.2747065
1956 1.0848657
1954 0.92244744
1952 0.80112565
1950 0.73030192
1948 0.71179456
1946 0.73884249
1944 0.78376484
1942 0.81324279
1940 0.81530482
1938 0.79339302
1936 0.76587659
1934 0.75246078
1932 0.74868858
1930 0.73826528
1928 0.71140254
1926 0.66972744
1924 0.64483392
1922 0.67420852
1920 0.75263143
1918 0.84885532
1916 0.92452741
1914 0.94909704
1912 0.93393397
1910 0.90686339
1908 0.86636353
1906 0.79597586
1904 0.69363362
1902 0.57607585
1900 0.50011653
1898 0.53094041
1896 0.6753729
1894 0.89710915
1892 1.1238497
1890 1.2737811
1888 1.3002554
1886 1.1892849
1884 0.97532976
1882 0.71865112
1880 0.47873825
1878 0.3040776
1876 0.20746301
1874 0.18031248
1872 0.21085875
1870 0.28752339
1868 0.39908156
1866 0.53099054
1864 0.65303212
1862 0.72944313
1860 0.7414571
1858 0.6833806
1856 0.55787569
1854 0.37280577
1852 0.14175108
1850 -0.1155066
1848 -0.365358
1846 -0.56665248
1844 -0.68108034
1842 -0.68192691
1840 -0.58252037
1838 -0.42030081
1836 -0.22985044
1834 -0.034248248
1832 0.17495051
1830 0.41587743
1828 0.66262114
1826 0.85879236
1824 0.94707894
1822 0.88819188
1820 0.71146423
1818 0.48806125
1816 0.278732
1814 0.12601253
1812 0.043631926
1810 0.028212592
1808 0.078429013
1806 0.18621799
1804 0.29762065
1802 0.3346954
1800 0.25112423
1798 0.04762299
1796 -0.17486537
1794 -0.26881993
1792 -0.16914721
1790 0.10702071
1788 0.45952463
1786 0.75416631
1784 0.92496091
1782 0.96570158
1780 0.9002403
1778 0.77020448
1776 0.63372284
1774 0.54903197
1772 0.53021318
1770 0.5516299
1768 0.55389309
1766 0.47505215
1764 0.3320148
1762 0.1885173
1760 0.052558631
1758 -0.10204849
1756 -0.23812744
1754 -0.27978027
1752 -0.21411549
1750 -0.088488042
1748 0.016521189
1746 0.014638593
1744 -0.12745847
1742 -0.38590139
1740 -0.66425741
1738 -0.83140832
1736 -0.819148
1734 -0.63361436
1732 -0.37553105
1730 -0.19218713
1728 -0.15078457
1726 -0.23033178
1724 -0.32550192
1722 -0.27685541
1720 0.073836684
1718 0.83286202
1716 1.9050701
1714 3.0496778
1712 4.0699673
1710 4.8710232
1708 5.5655861
1706 6.4195709
1704 7.6916165
1702 9.5924072
1700 12.246837
1698 15.644009
1696 19.436142
1694 23.07033
1692 26.25009
1690 29.007839
1688 31.746155
1686 35.088352
1684 39.460178
1682 44.93462
1680 50.88596
1678 56.306091
1676 60.965313
1674 65.370926
1672 70.022064
1670 75.175171
1668 80.550003
1666 85.493454
1664 89.634079
1662 92.932487
1660 95.445473
1658 97.253151
1656 98.400429
1654 98.902161
1652 98.79982
1650 98.165131
1648 97.065025
1646 95.565285
1644 93.782936
1642 91.857872
1640 89.813438
1638 87.551125
1636 84.927032
1634 81.81031
1632 78.23053
1630 74.345383
1628 70.210922
1626 65.769173
1624 60.993721
1622 55.938354
1620 50.793575
1618 45.850853
1616 41.324085
1614 37.317402
1612 33.869678
1610 30.96652
1608 28.541496
1606 26.497049
1604 24.773006
1602 23.352541
1600 22.227196
1598 21.385492
1596 20.7945
1594 20.404432
1592 20.193342
1590 20.174145
1588 20.381586
1586 20.855587
1584 21.58868
1582 22.53554
1580 23.696325
1578 25.131454
1576 26.933115
1574 29.18759
1572 31.852797
1570 34.753284
1568 37.696121
1566 40.514278
1564 43.128151
1562 45.585045
1560 48.138481
1558 51.135632
1556 54.428699
1554 57.349342
1552 59.372925
1550 60.317837
1548 60.378464
1546 60.027641
1544 59.465298
1542 58.522518
1540 56.974979
1538 54.681229
1536 51.818287
1534 48.867847
1532 46.179741
1530 43.85685
1528 41.833965
1526 39.915951
1524 37.897301
1522 35.620926
1520 33.089771
1518 30.485743
1516 28.03653
1514 25.933529
1512 24.12912
1510 22.319504
1508 20.259176
1506 17.877394
1504 15.329086
1502 12.960462
1500 10.968014
1498 9.3123188
1496 7.8761287
1494 6.5243211
1492 5.2038922
1490 3.9626703
1488 2.8417807
1486 1.8501871
1484 1.0055032
1482 0.34494856
1480 -0.088938102
1478 -0.24307704
1476 -0.016379148
1474 0.72012931
1472 1.9434263
1470 3.4353139
1468 4.9757204
1466 6.4147415
1464 7.7143435
1462 8.9549398
1460 10.201436
1458 11.452377
1456 12.623
1454 13.552559
1452 14.14668
1450 14.422571
1448 14.428589
1446 14.218107
1444 13.835289
1442 13.30905
1440 12.664502
1438 11.921673
1436 11.082543
1434 10.136181
1432 9.117486
1430 8.1240005
1428 7.2401261
1426 6.5072999
1424 5.9312639
1422 5.4863586
1420 5.1706705
1418 5.0218344
1416 5.0678396
1414 5.304811
1412 5.6910253
1410 6.1444402
1408 6.595993
1406 7.0084805
1404 7.3541989
1402 7.6091127
1400 7.7525721
1398 7.7703834
1396 7.6636715
1394 7.4550118
1392 7.1742187
1390 6.8527341
1388 6.51087
1386 6.1523452
1384 5.7821088
1382 5.4108086
1380 5.0410104
1378 4.6605005
1376 4.2476029
1374 3.775584
1372 3.2401941
1370 2.6708026
1368 2.0892532
1366 1.4956293
1364 0.89214647
1362 0.29824257
1360 -0.2264621
1358 -0.57469797
1356 -0.68148816
1354 -0.56567502
1352 -0.26868263
1350 0.16223365
1348 0.68044078
1346 1.2444394
1344 1.8262961
1342 2.4152749
1340 2.9875035
1338 3.4924991
1336 3.8749571
1334 4.0864024
1332 4.1091895
1330 3.9737499
1328 3.7233675
1326 3.4039593
1324 3.0589509
1322 2.7253411
1320 2.4310691
1318 2.1893811
1316 1.9998099
1314 1.8443536
1312 1.701136
1310 1.5498002
1308 1.3791869
1306 1.1946379
1304 1.0136243
1302 0.86790597
1300 0.79014844
1298 0.80797881
1296 0.93991429
1294 1.1901779
1292 1.5570766
1290 2.0331168
1288 2.6018641
1286 3.2314973
1284 3.8772299
1282 4.4788203
1280 4.9855504
1278 5.3732295
1276 5.6415715
1274 5.821712
1272 5.9477987
1270 6.046257
1268 6.1447496
1266 6.276752
1264 6.4822083
1262 6.8075919
1260 7.2816238
1258 7.8961086
1256 8.6302261
1254 9.4572325
1252 10.362148
1250 11.352028
1248 12.428868
1246 13.57075
1244 14.738106
1242 15.863488
1240 16.877651
1238 17.722092
1236 18.338814
1234 18.670038
1232 18.66412
1230 18.284725
1228 17.531672
1226 16.470829
1224 15.190171
1222 13.785288
1220 12.350842
1218 10.978348
1216 9.7567253
1214 8.7644777
1212 8.058979
1210 7.6515598
1208 7.5228114
1206 7.6096587
1204 7.8222518
1202 8.0370064
1200 8.1296701
1198 7.9966998
1196 7.5788574
1194 6.902885
1192 6.0403605
1190 5.1125541
1188 4.2358966
1186 3.4887636
1184 2.9129164
1182 2.4913309
1180 2.1907268
1178 1.9738141
1176 1.8104401
1174 1.6884534
1172 1.6015348
1170 1.5460589
1168 1.5178434
1166 1.5093243
1164 1.5128995
1162 1.522818
1160 1.5358679
1158 1.5533364
1156 1.5714115
1154 1.5727533
1152 1.5361412
1150 1.4398794
1148 1.2703221
1146 1.0341679
1144 0.75372326
1142 0.47432366
1140 0.23570138
1138 0.051088993
1136 -0.077105194
1134 -0.1584253
1132 -0.2162821
1130 -0.29754603
1128 -0.4302161
1126 -0.58306825
1124 -0.70637447
1122 -0.74325359
1120 -0.66608721
1118 -0.52155316
1116 -0.36307558
1114 -0.21589252
1112 -0.08918006
1110 0.029382557
1108 0.1416584
1106 0.21315651
1104 0.22505252
1102 0.21970172
1100 0.25151116
1098 0.36596814
1096 0.58402145
1094 0.8706485
1092 1.1906359
1090 1.5425975
1088 1.9305297
1086 2.3496087
1084 2.7781878
1082 3.1569223
1080 3.4278085
1078 3.5614669
1076 3.5541544
1074 3.4518728
1072 3.3130102
1070 3.1949475
1068 3.1333477
1066 3.1048386
1064 3.0651159
1062 2.9535391
1060 2.7320132
1058 2.4352102
1056 2.1232543
1054 1.874284
1052 1.7425746
1050 1.703226
1048 1.709632
1046 1.7101107
1044 1.6720655
1042 1.6211567
1040 1.5959228
1038 1.6291356
1036 1.73506
1034 1.8774791
1032 2.0036926
1030 2.0501106
1028 1.9719135
1026 1.7860308
1024 1.528935
1022 1.247519
1020 0.97766322
1018 0.71402979
1016 0.4440783
1014 0.16498655
1012 -0.12477607
1010 -0.42995605
1008 -0.75751001
1006 -1.1177821
1004 -1.5060657
1002 -1.8686557
1000 -2.1527498
998 -2.3464992
996 -2.4648144
994 -2.574594
992 -2.7301714
990 -2.9058802
988 -3.0555675
986 -3.1318471
984 -3.1039994
982 -2.9940627
980 -2.8269479
978 -2.5937061
976 -2.2877514
974 -1.9390444
972 -1.5918734
970 -1.3084438
968 -1.1341864
966 -1.042578
964 -0.9849354
962 -0.89851612
960 -0.73489356
958 -0.50787807
956 -0.2562905
954 -0.051457901
952 0.048294559
950 0.058534496
948 0.020728443
946 0.0025639795
944 0.06160666
942 0.19574542
940 0.3741529
938 0.51650989
936 0.55074173
934 0.47990856
932 0.35043737
930 0.29870588
928 0.45568395
926 0.84863502
924 1.442786
922 2.0686426
920 2.5571949
918 2.8689151
916 3.0217257
914 3.1292
912 3.3008153
910 3.5383401
908 3.801327
906 3.9897015
904 4.0170693
902 3.9065137
900 3.7234223
898 3.5916836
896 3.6501
