##TITLE=Methyl Ethyl Ketone
##JCAMP-DX=4.24
##DATA TYPE=INFRARED SPECTRUM
##XUNITS=cm-1
##YUNITS=Absorbance
##FIRSTX=900
##LASTX=2300
##XYDATA=(X++(Y..Y))
2296 0.036417998
2294 0.037175916
2292 0.037932836
2290 0.03869075
2288 0.039448664
2286 0.040205587
2284 0.040963497
2282 0.041721411
2280 0.042478338
2278 0.043236241
2276 0.043994155
2274 0.044752073
2272 0.045509007
2270 0.046266902
2268 0.04702482
2266 0.047781758
2264 0.04853965
2262 0.049297567
2260 0.050055481
2258 0.050812427
2256 0.051570315
2254 0.052328233
2252 0.053085178
2250 0.053843062
2248 0.05460098
2246 0.055357929
2244 0.0020571572
2242 0.023752093
2240 0.0221946
2238 0.032052435
2236 0.043750484
2234 -0.010739667
2232 -0.07036192
2230 -0.13795127
2228 -0.20146154
2226 -0.2294205
2224 -0.25542131
2222 -0.28073218
2220 -0.30260146
2218 -0.31412938
2216 -0.32429114
2214 -0.33273092
2212 -0.37411001
2210 -0.46940392
2208 -0.58242613
2206 -0.71342307
2204 -0.7849195
2202 -0.79795092
2200 -0.74554372
2198 -0.64709622
2196 -0.56054074
2194 -0.48260424
2192 -0.47113729
2190 -0.48858264
2188 -0.55245358
2186 -0.63080382
2184 -0.71548843
2182 -0.80141741
2180 -0.89919049
2178 -0.99869585
2176 -1.0950543
2174 -1.1842705
2172 -1.1965572
2170 -1.1866261
2168 -1.0918354
2166 -0.990071
2164 -0.89309174
2162 -0.8183831
2160 -0.7994681
2158 -0.79494387
2156 -0.80695599
2154 -0.798895
2152 -0.75929773
2150 -0.69932783
2148 -0.6201188
2146 -0.58532357
2144 -0.59158456
2142 -0.667045
2140 -0.7876569
2138 -0.87747186
2136 -0.94799513
2134 -0.93273473
2132 -0.88212401
2130 -0.83924836
2128 -0.799878
2126 -0.8387835
2124 -0.89585096
2122 -0.98642057
2120 -1.0792538
2118 -1.1169984
2116 -1.1338714
2114 -1.053498
2112 -0.95168501
2110 -0.81694812
2108 -0.69760221
2106 -0.63928294
2104 -0.61294138
2102 -0.63729095
2100 -0.67457062
2098 -0.72097689
2096 -0.77837139
2094 -0.84840429
2092 -0.91757339
2090 -0.98393124
2088 -1.0358382
2086 -1.07601
2084 -1.1335628
2082 -1.2035401
2080 -1.2735308
2078 -1.3425556
2076 -1.3339143
2074 -1.2929406
2072 -1.201396
2070 -1.0946505
2068 -1.0507463
2066 -1.0241221
2064 -1.0775491
2062 -1.1459675
2060 -1.2078676
2058 -1.2586869
2056 -1.2558143
2054 -1.2377843
2052 -1.2037008
2050 -1.1762631
2048 -1.173775
2046 -1.1745286
2044 -1.1718941
2042 -1.1571387
2040 -1.1249098
2038 -1.1076326
2036 -1.1123657
2034 -1.123104
2032 -1.1357486
2030 -1.103775
2028 -1.0365126
2026 -0.96830845
2024 -0.90329474
2022 -0.89511532
2020 -0.91625947
2018 -0.96577346
2016 -1.025604
2014 -1.080284
2012 -1.1329297
2010 -1.1545808
2008 -1.16574
2006 -1.1395156
2004 -1.1036876
2002 -1.0673651
2000 -1.0341502
1998 -1.0148631
1996 -0.99561286
1994 -0.96561819
1992 -0.93101907
1990 -0.89200562
1988 -0.86627281
1986 -0.86550742
1984 -0.88188976
1982 -0.91389871
1980 -0.95186263
1978 -0.99251896
1976 -1.0474914
1974 -1.115054
1972 -1.1924551
1970 -1.2754166
1968 -1.3165932
1966 -1.3305372
1964 -1.2700168
1962 -1.1723775
1960 -1.081476
1958 -0.99557388
1956 -1.0110939
1954 -1.0641131
1952 -1.154588
1950 -1.2507697
1948 -1.2912326
1946 -1.3039501
1944 -1.2629577
1942 -1.2026749
1940 -1.1332848
1938 -1.0784299
1936 -1.0688715
1934 -1.088065
1932 -1.13806
1930 -1.1900331
1928 -1.2310115
1926 -1.2687365
1924 -1.3061622
1922 -1.3454876
1920 -1.3867737
1918 -1.397562
1916 -1.3802786
1914 -1.3395061
1912 -1.285452
1910 -1.2487508
1908 -1.2248694
1906 -1.2118021
1904 -1.2034841
1902 -1.2015156
1900 -1.2022454
1898 -1.1881857
1896 -1.1643571
1894 -1.0855291
1892 -0.98762023
1890 -0.90530628
1888 -0.85171193
1886 -0.89532608
1884 -0.98159087
1882 -1.0872434
1880 -1.177672
1878 -1.2163897
1876 -1.2324001
1874 -1.2397436
1872 -1.2387297
1870 -1.2295601
1868 -1.1858008
1866 -1.101655
1864 -1.0003259
1862 -0.8927778
1860 -0.79524601
1858 -0.708269
1856 -0.67969233
1854 -0.69452649
1852 -0.8575424
1850 -1.1143532
1848 -1.47532
1846 -1.889125
1844 -2.0900569
1842 -2.1695757
1840 -1.9576114
1838 -1.6112242
1836 -1.27992
1834 -0.9723742
1832 -0.75274944
1830 -0.59949666
1828 -0.54337031
1826 -0.54852104
1824 -0.60551465
1822 -0.6584667
1820 -0.65753978
1818 -0.62757319
1816 -0.58397281
1814 -0.56094301
1812 -0.57485354
1810 -0.58622891
1808 -0.57928061
1806 -0.52824348
1804 -0.43661195
1802 -0.42179334
1800 -0.48721257
1798 -0.66153103
1796 -0.90901428
1794 -1.0130043
1792 -1.0058455
1790 -0.83334482
1788 -0.56504703
1786 -0.35669836
1784 -0.19236784
1782 -0.11424786
1780 -0.095952742
1778 -0.15782771
1776 -0.25638342
1774 -0.32914415
1772 -0.33540049
1770 -0.17397313
1768 0.043959282
1766 0.20135328
1764 0.27270019
1762 0.22787067
1760 0.073454976
1758 -0.18118626
1756 -0.41868129
1754 -0.57672882
1752 -0.74098241
1750 -0.94706523
1748 -1.2265518
1746 -1.5709037
1744 -1.9021646
1742 -2.2045915
1740 -2.3944032
1738 -2.4934621
1736 -2.41998
1734 -2.224695
1732 -1.8656213
1730 -1.4028885
1728 -1.0071812
1726 -0.66885835
1724 -0.42937165
1722 -0.23793851
1720 0.095027596
1718 0.64802653
1716 1.4723159
1714 2.38673
1712 3.1960657
1710 3.8905892
1708 4.4509258
1706 5.0526495
1704 5.8585091
1702 7.154892
1700 9.0986395
1698 12.106441
1696 16.250286
1694 20.7784
1692 25.283413
1690 29.317488
1688 32.833035
1686 36.604771
1684 40.763264
1682 45.582714
1680 50.94516
1678 55.748913
1676 60.022858
1674 64.23233
1672 68.467003
1670 73.329361
1668 78.643883
1666 83.833954
1664 88.831429
1662 93.374619
1660 97.447655
1658 100.97536
1656 103.91743
1654 106.19872
1652 107.691
1650 108.29002
1648 107.73228
1646 105.90357
1644 103.24126
1642 100.18207
1640 96.828224
1638 93.278809
1636 89.173637
1634 84.433235
1632 79.527527
1630 74.639725
1628 69.891647
1626 65.291771
1624 60.45536
1622 55.356247
1620 50.450222
1618 45.773319
1616 41.577599
1614 37.874611
1612 34.69873
1610 32.048241
1608 29.821239
1606 27.986794
1604 26.38076
1602 25.020496
1600 23.900755
1598 23.039909
1596 22.424999
1594 22.057383
1592 21.903114
1590 21.939016
1588 22.117596
1586 22.406614
1584 22.768148
1582 23.180149
1580 23.623812
1578 24.16972
1576 24.843885
1574 25.695192
1572 26.733072
1570 27.87875
1568 29.11208
1566 30.321842
1564 31.493689
1562 32.684517
1560 33.960335
1558 35.946186
1556 38.712627
1554 41.921749
1552 45.368198
1550 48.038357
1548 49.88781
1546 51.176426
1544 51.880775
1542 52.15308
1540 51.969181
1538 51.403225
1536 50.527401
1534 49.489864
1532 48.330494
1530 47.102947
1528 45.763393
1526 44.280998
1524 42.587994
1522 40.64209
1520 38.618538
1518 36.594879
1516 34.752014
1514 33.16711
1512 31.47756
1510 29.591961
1508 27.16436
1506 24.061237
1504 21.044662
1502 18.203882
1500 15.877392
1498 14.12809
1496 12.437714
1494 10.815915
1492 9.2346048
1490 7.705544
1488 6.2283273
1486 4.8201365
1484 3.4888561
1482 2.3052793
1480 1.3521882
1478 0.66011012
1476 0.23355515
1474 0.15196185
1472 0.5024159
1470 1.1207234
1468 1.8681283
1466 2.5432222
1464 3.0080967
1462 3.3331699
1460 3.5176709
1458 3.7519584
1456 4.1094799
1454 4.5988255
1452 5.267024
1450 5.8062782
1448 6.1323814
1446 6.3031464
1444 6.2547216
1442 6.1149678
1440 5.8434424
1438 5.4610801
1436 4.946547
1434 4.3768973
1432 3.791728
1430 3.324986
1428 2.994992
1426 2.7775328
1424 2.6653869
1422 2.6189699
1420 2.6774051
1418 2.8914979
1416 3.2416229
1414 3.720551
1412 4.2210569
1410 4.6565847
1408 5.036921
1406 5.3479733
1404 5.6270308
1402 5.8757329
1400 6.0741
1398 6.1879182
1396 6.258893
1394 6.2638297
1392 6.2664938
1390 6.2596312
1388 6.2000976
1386 6.0513048
1384 5.8204679
1382 5.4720783
1380 5.0593362
1378 4.5644732
1376 4.0269485
1374 3.4703643
1372 2.9871421
1370 2.603931
1368 2.3410153
1366 2.1453235
1364 1.9043452
1362 1.6064047
1360 1.2284124
1358 0.84443891
1356 0.53833258
1354 0.30181348
1352 0.16188875
1350 0.057617478
1348 -0.010274284
1346 -0.035323679
1344 -0.04543848
1342 -0.03520827
1340 0.017025512
1338 0.11142231
1336 0.29024059
1334 0.49791682
1332 0.75373924
1330 0.99146867
1328 1.1990771
1326 1.3913207
1324 1.5654229
1322 1.7483358
1320 1.9441829
1318 2.1533775
1316 2.3785
1314 2.6152575
1312 2.858901
1310 3.093796
1308 3.3114438
1306 3.4932773
1304 3.6478305
1302 3.7788191
1300 3.8941476
1298 3.9935777
1296 4.0764284
1294 4.1282077
1292 4.1703548
1290 4.2058377
1288 4.2459321
1286 4.3006444
1284 4.3577223
1282 4.4183908
1280 4.4799447
1278 4.544136
1276 4.6140771
1274 4.698369
1272 4.8067384
1270 4.9599223
1268 5.1514359
1266 5.3985314
1264 5.6683745
1262 5.9649944
1260 6.2680702
1258 6.5826354
1256 6.9186201
1254 7.2808633
1252 7.6797595
1250 8.1069441
1248 8.553853
1246 9.0069504
1244 9.4482508
1242 9.8689375
1240 10.235737
1238 10.557453
1236 10.777815
1234 10.936277
1232 10.95792
1230 10.917002
1228 10.7172
1226 10.466486
1224 10.079309
1222 9.6515484
1220 9.1260824
1218 8.567955
1216 7.9466343
1214 7.3208141
1212 6.6933274
1210 6.0961585
1208 5.5424566
1206 5.0083742
1204 4.4938359
1202 3.9713914
1200 3.4484503
1198 2.9550886
1196 2.498807
1194 2.1114767
1192 1.7649875
1190 1.425735
1188 1.088629
1186 0.74703228
1184 0.4309845
1182 0.22534305
1180 0.081204914
1178 0.085607752
1176 0.135258
1174 0.2859996
1172 0.44868854
1170 0.63259149
1168 0.77853322
1166 0.80546486
1164 0.78404152
1162 0.64942849
1160 0.53467673
1158 0.46545857
1156 0.44489202
1154 0.49619827
1152 0.52159309
1150 0.50260937
1148 0.41691542
1146 0.26456249
1144 0.12280617
1142 0.0072498266
1140 -0.013528435
1138 0.042773686
1136 0.18360943
1134 0.39794582
1132 0.69467783
1130 1.0203073
1128 1.3320063
1126 1.6250322
1124 1.839518
1122 2.0397921
1120 2.238276
1118 2.4443307
1116 2.6909213
1114 2.9251688
1112 3.1042829
1110 3.2642467
1108 3.3648365
1106 3.4686999
1104 3.5821445
1102 3.7092719
1100 3.8659644
1098 4.0503097
1096 4.2807283
1094 4.5414176
1092 4.838274
1090 5.1313996
1088 5.4208522
1086 5.7086639
1084 5.9960113
1082 6.2880192
1080 6.5729537
1078 6.7882848
1076 6.95645
1074 7.0104361
1072 7.0179472
1070 6.9590278
1068 6.8857265
1066 6.8152637
1064 6.7519398
1062 6.7393141
1060 6.7305236
1058 6.7295661
1056 6.708477
1054 6.5965128
1052 6.4400945
1050 6.1410646
1048 5.8152466
1046 5.4311786
1044 5.1053061
1042 4.8929672
1040 4.7498741
1038 4.7009063
1036 4.6010699
1034 4.4346499
1032 4.1739535
1030 3.8299351
1028 3.483779
1026 3.1439207
1024 2.8837955
1022 2.667099
1020 2.4691918
1018 2.2685866
1016 1.9609228
1014 1.6201297
1012 1.2311535
1010 0.84204876
1008 0.54322237
1006 0.25710925
1004 0.031818405
1002 -0.19272035
1000 -0.41511095
998 -0.63046616
996 -0.81397712
994 -0.97964668
992 -1.0885286
990 -1.1686736
988 -1.1810828
986 -1.1601343
984 -1.0802363
982 -0.9806
980 -0.85529959
978 -0.73868424
976 -0.63286716
974 -0.55918175
972 -0.5109486
970 -0.46177772
968 -0.4111329
966 -0.343209
964 -0.26738366
962 -0.18929854
960 -0.10842773
958 0.015465111
956 0.14665371
954 0.23552586
952 0.3126516
950 0.23005909
948 0.14146441
946 0.059531141
944 0.0016035773
942 0.050746687
940 0.17581289
938 0.43086469
936 0.66851258
934 0.85378003
932 0.98385578
930 0.99640405
928 1.004632
926 1.0072601
924 1.0673981
922 1.1979407
920 1.3729097
918 1.5884647
916 1.7701557
914 1.9266305
912 1.9905714
910 2.0050519
908 1.9701371
906 1.9159878
904 1.8303628
902 1.736513
900 1.6463439
898 1.5571522
896 1.6635
