Image.
>Pix99999.
  .
5555
5555
2300
900
5555
2
1
0
701
5555
9.0457998e-002
9.2380248e-002
9.4301499e-002
9.6223749e-002
9.8145001e-002
1.0006625e-001
1.0199346e-001
1.0391080e-001
1.0583795e-001
1.0775532e-001
1.0967258e-001
1.1159967e-001
1.1351708e-001
1.1544415e-001
1.1736160e-001
1.1928864e-001
1.2120612e-001
1.2313313e-001
1.2505063e-001
1.2697761e-001
1.2889515e-001
1.3082209e-001
1.3273965e-001
1.3465691e-001
1.3658382e-001
1.3850142e-001
7.7004917e-002
2.8785856e-003
-8.7009601e-002
-1.5517081e-001
-2.2001158e-001
-1.8470480e-001
-1.4184846e-001
-9.1309056e-002
-5.7234846e-002
-1.5726990e-001
-2.7440915e-001
-4.3840608e-001
-5.7947814e-001
-6.4305669e-001
-6.8290514e-001
-6.8047881e-001
-6.6811097e-001
-6.4359415e-001
-6.1247319e-001
-5.7405329e-001
-5.6344044e-001
-5.8010924e-001
-6.0475683e-001
-6.3401729e-001
-6.2433428e-001
-5.9199983e-001
-5.5838901e-001
-5.2488023e-001
-5.0507331e-001
-4.8972565e-001
-4.4794041e-001
-4.0002462e-001
-3.6167881e-001
-3.2579660e-001
-3.7107259e-001
-4.2892912e-001
-5.4497737e-001
-6.6038269e-001
-7.4038106e-001
-7.9809928e-001
-7.8711396e-001
-7.7777976e-001
-7.9023296e-001
-8.2930362e-001
-9.1469002e-001
-9.8646724e-001
-1.0316337e+000
-1.0463903e+000
-1.0301615e+000
-1.0141715e+000
-1.0012324e+000
-9.9717218e-001
-9.9900812e-001
-1.0095886e+000
-1.0246285e+000
-1.0600028e+000
-1.1039521e+000
-1.1557394e+000
-1.2099600e+000
-1.2284486e+000
-1.2385205e+000
-1.1875074e+000
-1.1253697e+000
-1.0344040e+000
-9.4439429e-001
-8.9167070e-001
-8.5776782e-001
-8.8352108e-001
-9.2214125e-001
-9.7318393e-001
-1.0181890e+000
-1.0459080e+000
-1.0705560e+000
-1.0945199e+000
-1.1161572e+000
-1.1347740e+000
-1.1467971e+000
-1.1525791e+000
-1.1739898e+000
-1.2091349e+000
-1.2556012e+000
-1.3083916e+000
-1.3495829e+000
-1.3841369e+000
-1.4135900e+000
-1.4411552e+000
-1.4511280e+000
-1.4554704e+000
-1.4429568e+000
-1.4268615e+000
-1.4403852e+000
-1.4601738e+000
-1.4859486e+000
-1.5078470e+000
-1.5017056e+000
-1.4941581e+000
-1.5007617e+000
-1.5155061e+000
-1.5431503e+000
-1.5670643e+000
-1.5782340e+000
-1.5951073e+000
-1.6248120e+000
-1.6533768e+000
-1.6783686e+000
-1.6574576e+000
-1.5926902e+000
-1.5045609e+000
-1.4038171e+000
-1.3302635e+000
-1.2751806e+000
-1.2258313e+000
-1.1779234e+000
-1.1417323e+000
-1.1106200e+000
-1.1359638e+000
-1.1805686e+000
-1.2655724e+000
-1.3618869e+000
-1.4702035e+000
-1.5803571e+000
-1.6807990e+000
-1.7709520e+000
-1.8253363e+000
-1.8582571e+000
-1.8522867e+000
-1.8276062e+000
-1.7843478e+000
-1.7421540e+000
-1.7124900e+000
-1.7008492e+000
-1.7100600e+000
-1.7293051e+000
-1.7533214e+000
-1.7466571e+000
-1.7101980e+000
-1.6012543e+000
-1.4410625e+000
-1.3119115e+000
-1.2085299e+000
-1.2847291e+000
-1.4541277e+000
-1.6517040e+000
-1.8566657e+000
-1.9222243e+000
-1.9360663e+000
-1.9030714e+000
-1.8587260e+000
-1.8348501e+000
-1.8214250e+000
-1.8307514e+000
-1.8465555e+000
-1.8678752e+000
-1.8807219e+000
-1.8688371e+000
-1.8488491e+000
-1.8248039e+000
-1.7966337e+000
-1.7607675e+000
-1.6601335e+000
-1.4760435e+000
-1.2169528e+000
-9.0203559e-001
-6.8854499e-001
-5.8156461e-001
-5.9528804e-001
-6.8281949e-001
-7.4293727e-001
-7.7544445e-001
-8.3896917e-001
-9.2234796e-001
-1.0449162e+000
-1.1854777e+000
-1.2051591e+000
-1.1710714e+000
-1.0562664e+000
-9.2332208e-001
-8.8373357e-001
-9.0637130e-001
-1.0470039e+000
-1.2338037e+000
-1.4281260e+000
-1.6019794e+000
-1.7194699e+000
-1.7530400e+000
-1.6632475e+000
-1.4361686e+000
-1.0611920e+000
-7.1599460e-001
-4.7094598e-001
-4.6068722e-001
-6.7271072e-001
-9.5033562e-001
-1.2331173e+000
-1.4365143e+000
-1.5753568e+000
-1.5747749e+000
-1.4869031e+000
-1.2374080e+000
-8.9849395e-001
-7.1694255e-001
-6.2768137e-001
-8.1521356e-001
-1.1226822e+000
-1.3293629e+000
-1.4478610e+000
-1.3346183e+000
-1.0846398e+000
-7.2024441e-001
-3.7524700e-001
-2.2621657e-001
-2.8002405e-001
-5.9235084e-001
-9.9019605e-001
-1.3559972e+000
-1.5979514e+000
-1.6756288e+000
-1.6270543e+000
-1.4929714e+000
-1.2825000e+000
-1.0195392e+000
-7.3485506e-001
-4.4068748e-001
-1.8702832e-001
3.3147857e-002
2.1050468e-001
3.5860398e-001
3.7994233e-001
3.1945980e-001
2.0158522e-001
6.1314084e-002
4.4749215e-002
1.1939022e-001
3.5352498e-001
6.7620713e-001
1.0151122e+000
1.2662885e+000
1.2034299e+000
9.3907893e-001
5.4773664e-001
2.0684659e-001
8.8883586e-002
3.0767931e-002
-7.9642646e-002
-1.5476914e-001
-1.5114309e-001
1.2542830e-001
7.0537281e-001
1.3954732e+000
2.1014571e+000
2.4320648e+000
2.3957655e+000
2.2608168e+000
2.1086581e+000
2.2463000e+000
2.6126232e+000
2.6751695e+000
2.4871168e+000
1.7930599e+000
7.9994845e-001
1.1355601e-001
-2.5081265e-001
1.0331142e-001
1.0433598e+000
2.4053514e+000
3.8058844e+000
4.6572275e+000
5.1630759e+000
5.5623240e+000
6.2226920e+000
7.4902554e+000
9.5783167e+000
1.2551392e+001
1.6131672e+001
2.0047142e+001
2.3505951e+001
2.6246643e+001
2.8706785e+001
3.1105059e+001
3.4336380e+001
3.8426083e+001
4.3039124e+001
4.7981720e+001
5.2054478e+001
5.5356956e+001
5.8797012e+001
6.2437313e+001
6.6719124e+001
7.1451431e+001
7.5962906e+001
8.0260368e+001
8.4329445e+001
8.8199905e+001
9.1931274e+001
9.5501427e+001
9.8884056e+001
1.0179940e+002
1.0392635e+002
1.0458572e+002
1.0325928e+002
1.0068247e+002
9.7584045e+001
9.4303604e+001
9.1075699e+001
8.7389816e+001
8.3077438e+001
7.8561104e+001
7.4011635e+001
6.9779945e+001
6.5908669e+001
6.1936001e+001
5.7806004e+001
5.3651447e+001
4.9494240e+001
4.5482944e+001
4.1645657e+001
3.8181953e+001
3.5127319e+001
3.2572453e+001
3.0490658e+001
2.8713602e+001
2.7230436e+001
2.5964794e+001
2.4917606e+001
2.4055500e+001
2.3379362e+001
2.2861240e+001
2.2510149e+001
2.2311731e+001
2.2295300e+001
2.2466383e+001
2.2862478e+001
2.3490396e+001
2.4414188e+001
2.5642742e+001
2.7057020e+001
2.8602570e+001
3.0017267e+001
3.1241520e+001
3.2328735e+001
3.3294441e+001
3.4553005e+001
3.6210678e+001
3.8727150e+001
4.2066246e+001
4.5104382e+001
4.7664673e+001
4.9363792e+001
5.0330208e+001
5.1327213e+001
5.2329361e+001
5.3274208e+001
5.3783558e+001
5.3282982e+001
5.1929340e+001
5.0080784e+001
4.8144718e+001
4.6583340e+001
4.5327526e+001
4.4307201e+001
4.3292561e+001
4.2133877e+001
4.0544361e+001
3.8351925e+001
3.6009842e+001
3.3652489e+001
3.1544239e+001
2.9792780e+001
2.7681561e+001
2.5055536e+001
2.2194567e+001
1.9109966e+001
1.6529926e+001
1.4529610e+001
1.2663571e+001
1.0943433e+001
9.2555294e+000
7.6147571e+000
6.0252333e+000
4.4869061e+000
2.9774799e+000
1.6163630e+000
5.9097272e-001
1.4399320e-002
2.1910712e-002
6.0435557e-001
1.6109428e+000
2.6333160e+000
3.3755107e+000
3.9315164e+000
4.3469820e+000
4.8899732e+000
5.7165775e+000
6.6366072e+000
7.6154599e+000
8.1816893e+000
8.0823450e+000
7.7336969e+000
7.0620537e+000
6.4438891e+000
5.9113622e+000
5.4675694e+000
5.1576819e+000
4.9682684e+000
4.9027557e+000
4.7983618e+000
4.6199079e+000
4.3080487e+000
3.9180522e+000
3.6346922e+000
3.5086207e+000
3.5997746e+000
3.8527997e+000
4.1688051e+000
4.4509087e+000
4.5830431e+000
4.6283865e+000
4.6345301e+000
4.6930394e+000
4.8851843e+000
5.1771026e+000
5.5943561e+000
6.0404758e+000
6.5017171e+000
6.8765216e+000
7.0810733e+000
7.1450982e+000
6.9632463e+000
6.6938887e+000
6.2902303e+000
5.8461361e+000
5.3610082e+000
4.9182687e+000
4.5468626e+000
4.2601857e+000
4.0589948e+000
3.8547421e+000
3.6260598e+000
3.3331308e+000
2.9764779e+000
2.5787663e+000
2.1449206e+000
1.6736658e+000
1.2052920e+000
7.8529811e-001
4.3171513e-001
2.0166117e-001
4.6852678e-002
-2.4839658e-002
-4.7247600e-002
5.0943598e-002
2.2794189e-001
5.4774427e-001
8.1775939e-001
9.6166801e-001
9.5900953e-001
6.9022852e-001
4.3166369e-001
2.1185334e-001
1.2413923e-001
2.3955715e-001
4.6766767e-001
8.3301622e-001
1.2240258e+000
1.6108601e+000
1.8903883e+000
2.0406182e+000
2.0584283e+000
1.9752294e+000
1.8640364e+000
1.7400571e+000
1.6249580e+000
1.5104958e+000
1.3831140e+000
1.2528143e+000
1.1220577e+000
1.0030062e+000
9.1384333e-001
8.4766084e-001
8.2963395e-001
8.2940304e-001
8.6539483e-001
9.0881872e-001
9.6902454e-001
1.0408214e+000
1.1371839e+000
1.2412914e+000
1.3597640e+000
1.4807892e+000
1.6107521e+000
1.7708211e+000
1.9734913e+000
2.2210181e+000
2.5130594e+000
2.8173170e+000
3.1287229e+000
3.4325585e+000
3.7349684e+000
4.0494847e+000
4.3733249e+000
4.7062678e+000
5.0286293e+000
5.3022838e+000
5.5321183e+000
5.6627970e+000
5.7411399e+000
5.7096519e+000
5.6372390e+000
5.4680099e+000
5.2664385e+000
4.9767113e+000
4.6432905e+000
4.2052884e+000
3.7428079e+000
3.2384858e+000
2.7681041e+000
2.3573296e+000
1.9770858e+000
1.6300532e+000
1.2486086e+000
8.2189000e-001
3.5849509e-001
-1.2657169e-001
-5.6405270e-001
-9.4745076e-001
-1.2447376e+000
-1.4859995e+000
-1.6973640e+000
-1.8963566e+000
-2.0989571e+000
-2.2935319e+000
-2.4507999e+000
-2.5691133e+000
-2.5624261e+000
-2.4975400e+000
-2.2654073e+000
-2.0058961e+000
-1.6795647e+000
-1.3674371e+000
-1.0989969e+000
-8.3229685e-001
-5.6634820e-001
-2.7330157e-001
6.7468375e-002
3.7591344e-001
6.1653548e-001
7.4921846e-001
7.3367524e-001
6.5156138e-001
4.9991572e-001
3.4212080e-001
1.8727139e-001
7.7151239e-002
1.9952189e-002
8.8520311e-002
2.4335060e-001
5.2064818e-001
8.5481668e-001
1.2420337e+000
1.6479456e+000
2.0769475e+000
2.5006518e+000
2.8743520e+000
3.2185965e+000
3.4296927e+000
3.6224577e+000
3.7485723e+000
3.8831947e+000
4.0447125e+000
4.2144399e+000
4.4050913e+000
4.6069274e+000
4.8338475e+000
5.0932984e+000
5.4054141e+000
5.7433438e+000
6.1156039e+000
6.5123973e+000
6.9364872e+000
7.3890510e+000
7.8623862e+000
8.3294992e+000
8.7835493e+000
9.1691284e+000
9.4988918e+000
9.6486959e+000
9.7117691e+000
9.5741549e+000
9.3884563e+000
9.1754742e+000
8.9799356e+000
8.9394083e+000
8.9361877e+000
9.1244297e+000
9.3267488e+000
9.5891447e+000
9.8382654e+000
1.0044889e+001
1.0240674e+001
1.0411465e+001
1.0572012e+001
1.0712662e+001
1.0841725e+001
1.0957085e+001
1.1088100e+001
1.1233462e+001
1.1324274e+001
1.1345910e+001
1.1140963e+001
1.0759493e+001
1.0161794e+001
9.4523745e+000
8.7718859e+000
8.1115599e+000
7.5533257e+000
7.0122709e+000
6.3598037e+000
5.6812353e+000
4.9195161e+000
4.1665769e+000
3.5991468e+000
3.0555518e+000
2.6638594e+000
2.2843466e+000
1.9588715e+000
1.6579800e+000
1.4325223e+000
1.2106247e+000
9.9470407e-001
7.4456346e-001
4.3658143e-001
1.4111328e-001
-1.3397340e-001
-3.5082155e-001
-5.0368917e-001
-5.8434314e-001
-6.0149544e-001
-5.0693280e-001
-3.4577876e-001
-2.0845920e-001
-8.6880699e-002
-6.5811284e-002
-7.4066900e-002
-1.4310487e-002
5.7351112e-002
7.3722899e-002
7.7955753e-002
-4.7869019e-002
-1.6302550e-001
-5.3102251e-002
6.3065141e-003
1.9589376e-001
5.5857182e-001
9.0088862e-001
1.1894715e+000
1.3198144e+000
1.3944737e+000
1.3493956e+000
1.2484572e+000
1.0591302e+000
8.8858217e-001
7.4548209e-001
8.4796399e-001
1.1816933e+000
1.7556300e+000
2.4980974e+000
3.1966360e+000
3.8717659e+000
4.4672575e+000
5.0333462e+000
5.6270432e+000
6.2282782e+000
6.7124319e+000
7.1774864e+000
7.3077002e+000
