Image.
>Pix99999.
  .
5555
5555
2300
900
5555
2
1
0
701
5555
-1.0933000e-002
-1.1160674e-002
-1.1388349e-002
-1.1616023e-002
-1.1843697e-002
-1.2070378e-002
-1.2298046e-002
-1.2525721e-002
-1.2753394e-002
-1.2980081e-002
-1.3207743e-002
-1.3437386e-002
-1.3663126e-002
-1.3883895e-002
-1.4117320e-002
-1.4368600e-002
-1.4573337e-002
-1.4714600e-002
-1.5025875e-002
-1.5571990e-002
-1.5491799e-002
-1.4530640e-002
-1.5899617e-002
-2.0552469e-002
-1.6547738e-002
4.9771531e-003
2.6082393e-002
2.5867075e-002
1.7886384e-003
-4.2485788e-002
-9.9376395e-002
-1.6181107e-001
-2.2901383e-001
-3.0018166e-001
-3.6694369e-001
-4.1688201e-001
-4.3009681e-001
-3.8807750e-001
-2.8684449e-001
-1.3348371e-001
3.7566431e-002
1.8752252e-001
2.9284382e-001
3.4048548e-001
3.4100708e-001
3.1184351e-001
2.6946083e-001
2.3218824e-001
2.2747457e-001
2.7759510e-001
3.7235215e-001
4.8461780e-001
5.5985618e-001
5.4945248e-001
4.6343249e-001
3.3625099e-001
2.2542641e-001
1.8238054e-001
2.0513006e-001
2.7205449e-001
3.5246858e-001
4.1980812e-001
4.7476891e-001
5.2688819e-001
5.8507580e-001
6.5475827e-001
7.2912365e-001
7.9641443e-001
8.4145033e-001
8.5186595e-001
8.3090496e-001
7.8911561e-001
7.4483687e-001
7.1615738e-001
7.0974606e-001
7.2727537e-001
7.6643318e-001
8.2337880e-001
8.9338398e-001
9.7071570e-001
1.0466417e+000
1.1110984e+000
1.1522135e+000
1.1601375e+000
1.1346401e+000
1.0816364e+000
1.0190136e+000
9.6628457e-001
9.3266726e-001
9.2183697e-001
9.2998004e-001
9.4960868e-001
9.6887761e-001
9.7549027e-001
9.6165395e-001
9.2428547e-001
8.7279701e-001
8.2066125e-001
7.7887797e-001
7.5679117e-001
7.6134861e-001
7.9591578e-001
8.5247248e-001
9.1676629e-001
9.6674323e-001
9.8205203e-001
9.6137929e-001
9.1184527e-001
8.4386182e-001
7.6751941e-001
6.8734717e-001
6.0673833e-001
5.3384644e-001
4.7733518e-001
4.3961951e-001
4.2097464e-001
4.2387623e-001
4.5116168e-001
5.0289685e-001
5.7387280e-001
6.4173740e-001
6.8160719e-001
6.8773991e-001
6.6683495e-001
6.4231700e-001
6.3921571e-001
6.6121000e-001
7.0038456e-001
7.4006653e-001
7.6236331e-001
7.5801170e-001
7.2387201e-001
6.6598970e-001
5.9535867e-001
5.2772152e-001
4.7814199e-001
4.5084080e-001
4.4202077e-001
4.3493858e-001
4.1046700e-001
3.6277798e-001
2.9566929e-001
2.2692920e-001
1.7505077e-001
1.3606822e-001
9.6620008e-002
4.8675254e-002
-8.9445887e-003
-6.1551735e-002
-9.2621177e-002
-1.0846743e-001
-1.2617575e-001
-1.6111457e-001
-2.2055663e-001
-2.8364140e-001
-3.2118198e-001
-3.2515004e-001
-3.0208701e-001
-2.7356735e-001
-2.6292565e-001
-2.7287573e-001
-2.9392311e-001
-3.0924985e-001
-3.0314866e-001
-2.7714822e-001
-2.4326707e-001
-2.2117940e-001
-2.2920753e-001
-2.6613760e-001
-3.1990960e-001
-3.7497944e-001
-4.1723943e-001
-4.4307098e-001
-4.5538640e-001
-4.6171269e-001
-4.7076750e-001
-4.8798954e-001
-5.1475644e-001
-5.4286593e-001
-5.6169713e-001
-5.7120740e-001
-5.7759303e-001
-5.8838779e-001
-6.0818142e-001
-6.2766242e-001
-6.3332194e-001
-6.2566501e-001
-6.1406898e-001
-6.1112404e-001
-6.2554723e-001
-6.4451075e-001
-6.4696050e-001
-6.2763846e-001
-5.9249908e-001
-5.5415410e-001
-5.2459645e-001
-5.0063801e-001
-4.7206673e-001
-4.3590039e-001
-3.9647868e-001
-3.6898714e-001
-3.7200388e-001
-4.1395256e-001
-4.9214140e-001
-5.8274311e-001
-6.5298760e-001
-6.8151808e-001
-6.5931320e-001
-5.9795195e-001
-5.1885509e-001
-4.3707898e-001
-3.6079094e-001
-2.8883830e-001
-2.1831171e-001
-1.6080102e-001
-1.3542478e-001
-1.5416852e-001
-2.1871300e-001
-3.0798721e-001
-3.9093402e-001
-4.5092857e-001
-4.8383394e-001
-4.9596271e-001
-4.9795142e-001
-4.9575439e-001
-4.9135393e-001
-4.8430577e-001
-4.7316220e-001
-4.5711839e-001
-4.3556479e-001
-4.0639758e-001
-3.6739832e-001
-3.2031584e-001
-2.7051282e-001
-2.2784385e-001
-2.0319821e-001
-2.0051509e-001
-2.1783231e-001
-2.4799320e-001
-2.8193948e-001
-3.1471771e-001
-3.4511605e-001
-3.7526882e-001
-4.0698564e-001
-4.3219361e-001
-4.3904251e-001
-4.2917600e-001
-4.1374630e-001
-4.0268078e-001
-3.9992481e-001
-3.9136857e-001
-3.5589254e-001
-2.9486880e-001
-2.2566518e-001
-1.6210125e-001
-1.1144134e-001
-7.1630612e-002
-3.5238739e-002
2.9231887e-003
4.5278560e-002
9.2118308e-002
1.4057779e-001
1.7888431e-001
1.9085139e-001
1.6813914e-001
1.1483257e-001
6.2792018e-002
4.5673579e-002
1.7947506e-002
-1.0365054e-001
-3.0204856e-001
-4.9011022e-001
-6.2971878e-001
-7.3139954e-001
-8.1453890e-001
-8.9724535e-001
-9.9129510e-001
-1.0988029e+000
-1.1981997e+000
-1.2537863e+000
-1.2428200e+000
-1.1612966e+000
-1.0349003e+000
-9.0555459e-001
-7.9367054e-001
-6.9331849e-001
-5.6666291e-001
-3.5418189e-001
3.9369166e-003
5.4928493e-001
1.2520852e+000
2.0235631e+000
2.7560010e+000
3.3648670e+000
3.9055660e+000
4.5501122e+000
5.4968829e+000
6.9559469e+000
9.1734209e+000
1.2326110e+001
1.6135143e+001
1.9985210e+001
2.3430368e+001
2.6309885e+001
2.8882217e+001
3.1684193e+001
3.5103775e+001
3.9241165e+001
4.3652279e+001
4.7589947e+001
5.0869156e+001
5.3857693e+001
5.6999588e+001
6.0630013e+001
6.4694656e+001
6.8834999e+001
7.2785416e+001
7.6432449e+001
7.9741455e+001
8.2731476e+001
8.5467232e+001
8.8035614e+001
9.0477516e+001
9.2751160e+001
9.4633011e+001
9.5800034e+001
9.6178299e+001
9.5925308e+001
9.5133186e+001
9.3779572e+001
9.1778786e+001
8.9047546e+001
8.5699791e+001
8.2009338e+001
7.8140289e+001
7.4113930e+001
6.9898003e+001
6.5459389e+001
6.0871109e+001
5.6306034e+001
5.1934315e+001
4.7896500e+001
4.4296463e+001
4.1191929e+001
3.8555664e+001
3.6291435e+001
3.4312382e+001
3.2560417e+001
3.1013365e+001
2.9674234e+001
2.8539001e+001
2.7590731e+001
2.6804537e+001
2.6153528e+001
2.5630606e+001
2.5248199e+001
2.5014845e+001
2.4936470e+001
2.5035715e+001
2.5349421e+001
2.5899372e+001
2.6676531e+001
2.7620272e+001
2.8629612e+001
2.9632200e+001
3.0600206e+001
3.1521044e+001
3.2419998e+001
3.3494499e+001
3.5067360e+001
3.7217560e+001
3.9710300e+001
4.2165871e+001
4.4180202e+001
4.5661472e+001
4.6849678e+001
4.7925594e+001
4.8912434e+001
4.9749500e+001
5.0322136e+001
5.0535084e+001
5.0349438e+001
4.9832352e+001
4.9142246e+001
4.8368828e+001
4.7494198e+001
4.6461834e+001
4.5204556e+001
4.3711956e+001
4.2048164e+001
4.0321842e+001
3.8644356e+001
3.6965881e+001
3.5058105e+001
3.2736362e+001
2.9955606e+001
2.6909309e+001
2.4002853e+001
2.1467497e+001
1.9259199e+001
1.7243713e+001
1.5262161e+001
1.3232454e+001
1.1173001e+001
9.1193562e+000
7.1109757e+000
5.2270460e+000
3.5830417e+000
2.2367554e+000
1.1788208e+000
4.6651545e-001
2.3119853e-001
4.6993396e-001
9.9486673e-001
1.6184214e+000
2.2183421e+000
2.7596726e+000
3.2986341e+000
3.8890474e+000
4.5452309e+000
5.2150798e+000
5.7790079e+000
6.1482983e+000
6.3011827e+000
6.2672305e+000
6.1212034e+000
5.9257951e+000
5.7105927e+000
5.4760871e+000
5.1908135e+000
4.8045802e+000
4.2627692e+000
3.5728359e+000
2.8281488e+000
2.1362581e+000
1.5902178e+000
1.2377372e+000
1.0667515e+000
1.0482168e+000
1.1486773e+000
1.3376857e+000
1.5919600e+000
1.8963922e+000
2.2452192e+000
2.6360223e+000
3.0675242e+000
3.5364990e+000
4.0347767e+000
4.5440640e+000
5.0331826e+000
5.4685287e+000
5.8193631e+000
6.0685468e+000
6.2176576e+000
6.2706428e+000
6.2288098e+000
6.0932102e+000
5.8669505e+000
5.5601430e+000
5.1934938e+000
4.7930255e+000
4.3883309e+000
4.0038018e+000
3.6506267e+000
3.3149903e+000
2.9519751e+000
2.5259814e+000
2.0320880e+000
1.5035205e+000
1.0169711e+000
6.2879872e-001
3.4627298e-001
1.5552039e-001
2.9515740e-002
-4.3767493e-002
-4.9450539e-002
2.3792520e-002
1.6948292e-001
3.6281890e-001
5.5731487e-001
7.1042490e-001
7.9688692e-001
8.1312364e-001
7.8444582e-001
7.4121416e-001
7.1105075e-001
7.1913832e-001
7.8613406e-001
9.2280960e-001
1.1231003e+000
1.3646500e+000
1.6052676e+000
1.8064103e+000
1.9458481e+000
2.0186939e+000
2.0438080e+000
2.0437560e+000
2.0381551e+000
2.0428789e+000
2.0677757e+000
2.1187286e+000
2.1970179e+000
2.2997246e+000
2.4189978e+000
2.5480042e+000
2.6836164e+000
2.8250568e+000
2.9739459e+000
3.1309342e+000
3.2938490e+000
3.4607072e+000
3.6311798e+000
3.8081810e+000
3.9998655e+000
4.2167621e+000
4.4713316e+000
4.7747068e+000
5.1350446e+000
5.5564642e+000
6.0365744e+000
6.5703516e+000
7.1513338e+000
7.7766862e+000
8.4503355e+000
9.1716747e+000
9.9277000e+000
1.0694672e+001
1.1434505e+001
1.2110868e+001
1.2697853e+001
1.3175958e+001
1.3537186e+001
1.3780400e+001
1.3915837e+001
1.3948380e+001
1.3870929e+001
1.3666732e+001
1.3312461e+001
1.2802902e+001
1.2168390e+001
1.1454628e+001
1.0718776e+001
1.0007281e+001
9.3448591e+000
8.7391167e+000
8.1787481e+000
7.6425362e+000
7.1011128e+000
6.5302186e+000
5.9223685e+000
5.2839069e+000
4.6410913e+000
4.0210299e+000
3.4421940e+000
2.9150214e+000
2.4383886e+000
2.0126698e+000
1.6479983e+000
1.3579917e+000
1.1581661e+000
1.0516000e+000
1.0137447e+000
1.0113760e+000
1.0074975e+000
9.7732675e-001
9.2541027e-001
8.6224043e-001
7.9621112e-001
7.3204011e-001
6.6786581e-001
6.0435331e-001
5.5073857e-001
5.1265168e-001
4.8253411e-001
4.4750738e-001
3.9076036e-001
3.0430382e-001
2.0255107e-001
1.0338434e-001
2.0765929e-002
-2.8595401e-002
-1.9960538e-002
6.7168683e-002
2.3795241e-001
4.8766658e-001
7.9667509e-001
1.1420588e+000
1.5019238e+000
1.8570679e+000
2.1949463e+000
2.5084414e+000
2.8000393e+000
3.0733137e+000
3.3288162e+000
3.5651751e+000
3.7784998e+000
3.9717920e+000
4.1657677e+000
4.3842154e+000
4.6477489e+000
4.9696569e+000
5.3465877e+000
5.7692223e+000
6.2235918e+000
6.6960931e+000
7.1761713e+000
7.6494198e+000
8.0881767e+000
8.4594212e+000
8.7251997e+000
8.8630486e+000
8.8954849e+000
8.8648119e+000
8.8359985e+000
8.8636370e+000
8.9579802e+000
9.1035280e+000
9.2433167e+000
9.3220968e+000
9.3167067e+000
9.2245970e+000
9.0775366e+000
8.9053278e+000
8.7087154e+000
8.4817019e+000
8.2197790e+000
7.9289427e+000
7.6429343e+000
7.3907261e+000
7.1668029e+000
6.9486599e+000
6.6908603e+000
6.3540506e+000
5.9341145e+000
5.4416380e+000
4.9061723e+000
4.3633499e+000
3.8533630e+000
3.4128268e+000
3.0646262e+000
2.8155630e+000
2.6347876e+000
2.4804971e+000
2.3074310e+000
2.0820081e+000
1.8102700e+000
1.5130515e+000
1.2253156e+000
9.7460181e-001
7.5347751e-001
5.4292142e-001
3.1547922e-001
5.0619856e-002
-2.4305126e-001
-5.4231393e-001
-8.0059099e-001
-9.7668993e-001
-1.0661074e+000
-1.0797300e+000
-1.0492765e+000
-1.0015497e+000
-9.3050778e-001
-8.2286435e-001
-6.6768748e-001
-4.6130452e-001
-2.2256435e-001
2.2418827e-002
2.4192314e-001
4.0954211e-001
5.2195716e-001
5.8266056e-001
5.9891802e-001
5.7373440e-001
4.9259537e-001
3.5232419e-001
2.0433179e-001
9.3857773e-002
-3.6891997e-003
-1.1547628e-001
-2.1580940e-001
-2.7573088e-001
-3.0213407e-001
-3.0895087e-001
-3.0335385e-001
-2.8977183e-001
-2.6855320e-001
-2.3129840e-001
-1.4076604e-001
3.4262866e-002
2.7505252e-001
5.4003227e-001
7.4826264e-001
8.3026397e-001
7.9843128e-001
6.9475275e-001
5.9656262e-001
5.6928891e-001
5.9718370e-001
6.5409386e-001
7.5339603e-001
9.1838002e-001
