Image.
>Pix99999.
  .
5555
5555
2300
900
5555
2
1
0
701
5555
7.5383000e-002
7.6950759e-002
7.8518517e-002
8.0087267e-002
8.1655033e-002
8.3223782e-002
8.4791541e-002
8.6360283e-002
8.7928057e-002
8.9496799e-002
9.1064572e-002
9.2633314e-002
9.4201088e-002
9.5769823e-002
9.7337604e-002
9.8906338e-002
1.0047411e-001
1.0204187e-001
1.0360963e-001
1.0517738e-001
1.0674514e-001
1.0831290e-001
1.0988066e-001
1.1144841e-001
1.1301617e-001
1.1458392e-001
6.3658640e-002
2.3795485e-003
-4.2383041e-002
-7.3819660e-002
-1.0343152e-001
-3.9591007e-002
3.2684240e-002
1.4306313e-001
2.4088642e-001
2.2389299e-001
1.9743264e-001
1.5422469e-001
1.4455126e-001
2.3972949e-001
3.5121515e-001
4.8538187e-001
5.8190620e-001
6.1479735e-001
6.1001998e-001
5.6313109e-001
5.0874114e-001
4.4972831e-001
3.9268583e-001
3.3735099e-001
3.3225429e-001
3.5604319e-001
4.6608046e-001
6.1307931e-001
7.7488190e-001
9.4070280e-001
1.0413816e+000
1.1270785e+000
1.1297811e+000
1.1196935e+000
1.0667771e+000
1.0126970e+000
9.9019068e-001
9.9089879e-001
1.1074916e+000
1.2583557e+000
1.4928697e+000
1.7020829e+000
1.8249062e+000
1.8691726e+000
1.7809100e+000
1.6639497e+000
1.5250440e+000
1.4232575e+000
1.3658817e+000
1.3445857e+000
1.3511686e+000
1.3712460e+000
1.3988354e+000
1.4529220e+000
1.5210458e+000
1.6170748e+000
1.7243900e+000
1.7933351e+000
1.8497400e+000
1.8312728e+000
1.7955211e+000
1.7671806e+000
1.7450904e+000
1.8148471e+000
1.9047871e+000
2.0474348e+000
2.1886001e+000
2.2894652e+000
2.3667688e+000
2.3908880e+000
2.4063880e+000
2.4200432e+000
2.4404759e+000
2.4726057e+000
2.5079999e+000
2.5452747e+000
2.5887158e+000
2.6381841e+000
2.6905556e+000
2.7447250e+000
2.7877762e+000
2.8233960e+000
2.8683641e+000
2.9185743e+000
2.9747956e+000
3.0331075e+000
3.0280361e+000
3.0023232e+000
2.9264917e+000
2.8388901e+000
2.7665007e+000
2.6998649e+000
2.6650212e+000
2.6445961e+000
2.6692400e+000
2.7102363e+000
2.7770514e+000
2.8455691e+000
2.9041560e+000
2.9455786e+000
2.9566641e+000
2.9436026e+000
2.9038103e+000
2.8648474e+000
2.8341229e+000
2.8380477e+000
2.8737931e+000
2.9135950e+000
2.9514215e+000
2.9527886e+000
2.9304514e+000
2.9324777e+000
2.9485712e+000
2.9892061e+000
3.0398400e+000
3.0443704e+000
3.0338128e+000
3.0078673e+000
2.9778125e+000
2.9382207e+000
2.8975263e+000
2.8637412e+000
2.8443041e+000
2.8756917e+000
2.9267430e+000
2.9963725e+000
3.0657125e+000
3.1273859e+000
3.1844139e+000
3.2413342e+000
3.2814331e+000
3.2981431e+000
3.2746840e+000
3.2099860e+000
3.1186800e+000
3.0099752e+000
2.9162352e+000
2.8357329e+000
2.7984338e+000
2.7871735e+000
2.8141072e+000
2.8602340e+000
2.9176521e+000
2.9792831e+000
2.9924829e+000
2.9865346e+000
2.9103520e+000
2.8172889e+000
2.7617121e+000
2.7306252e+000
2.7693384e+000
2.8154571e+000
2.8232901e+000
2.8032718e+000
2.7441800e+000
2.6876681e+000
2.6550601e+000
2.6327901e+000
2.6113777e+000
2.5909121e+000
2.5684910e+000
2.5636191e+000
2.5808496e+000
2.6024761e+000
2.6279442e+000
2.6771834e+000
2.7434821e+000
2.8357530e+000
2.9413073e+000
2.9671321e+000
2.9488959e+000
2.8323150e+000
2.6735249e+000
2.5672789e+000
2.4929142e+000
2.5491471e+000
2.6528215e+000
2.7395551e+000
2.7867081e+000
2.6999750e+000
2.5525198e+000
2.3734632e+000
2.2015502e+000
2.0690897e+000
1.9826800e+000
1.9481162e+000
1.9881234e+000
2.1097527e+000
2.2221317e+000
2.3008463e+000
2.2546709e+000
2.0954390e+000
1.9138325e+000
1.7350389e+000
1.5872142e+000
1.4588801e+000
1.3180372e+000
1.1627529e+000
1.0269096e+000
8.9926392e-001
8.6570579e-001
8.7852782e-001
9.5954305e-001
1.0794895e+000
1.2403214e+000
1.4388609e+000
1.7113137e+000
1.9878254e+000
2.1680009e+000
2.2129056e+000
2.0239148e+000
1.7242815e+000
1.3931900e+000
1.1063569e+000
9.0755033e-001
7.8571081e-001
7.2404003e-001
7.1297431e-001
7.4162298e-001
8.0350250e-001
8.8875669e-001
9.2034167e-001
8.9321744e-001
8.1336117e-001
7.0035571e-001
6.9130915e-001
7.6535076e-001
8.3049607e-001
8.8940477e-001
8.3921522e-001
7.3234445e-001
6.4576423e-001
5.8093816e-001
5.6730038e-001
6.0081631e-001
7.1755147e-001
8.6137789e-001
9.7985983e-001
9.9672002e-001
8.0767179e-001
5.2949840e-001
2.4803796e-001
5.3381771e-002
-1.5301731e-001
-3.2428598e-001
-3.9116502e-001
-3.3700165e-001
-1.8531670e-001
-3.0802291e-002
9.8603427e-002
5.4135438e-002
-1.3968503e-001
-3.2247272e-001
-4.7263119e-001
-4.3329999e-001
-2.5888172e-001
-1.3877480e-001
-7.0030160e-002
-1.7448445e-001
-3.7004736e-001
-4.4910082e-001
-3.7750310e-001
8.1878275e-002
8.7454736e-001
1.9683187e+000
3.0573595e+000
3.7155509e+000
4.0832987e+000
4.2919617e+000
4.6556935e+000
5.4447222e+000
6.9026942e+000
9.1396837e+000
1.2232000e+001
1.6115572e+001
2.0068439e+001
2.3754385e+001
2.7133961e+001
3.0243904e+001
3.3910736e+001
3.8204762e+001
4.3019302e+001
4.8217358e+001
5.2614029e+001
5.6297359e+001
5.9994926e+001
6.3782131e+001
6.8200554e+001
7.3065872e+001
7.7791351e+001
8.2374001e+001
8.6737495e+001
9.0897339e+001
9.4854698e+001
9.8554741e+001
1.0190549e+002
1.0465680e+002
1.0655093e+002
1.0704274e+002
1.0579179e+002
1.0339208e+002
1.0042592e+002
9.7185196e+001
9.3861549e+001
9.0040970e+001
8.5617561e+001
8.0988022e+001
7.6323441e+001
7.1883133e+001
6.7687683e+001
6.3288521e+001
5.8642086e+001
5.3965153e+001
4.9296192e+001
4.4950542e+001
4.0962421e+001
3.7501488e+001
3.4571480e+001
3.2069382e+001
2.9957287e+001
2.8054977e+001
2.6390221e+001
2.4983463e+001
2.3861557e+001
2.3021000e+001
2.2443689e+001
2.2071749e+001
2.1873079e+001
2.1794621e+001
2.1834272e+001
2.1972982e+001
2.2233030e+001
2.2612268e+001
2.3193254e+001
2.4001657e+001
2.5023268e+001
2.6253160e+001
2.7534487e+001
2.8833799e+001
3.0111300e+001
3.1362200e+001
3.2786900e+001
3.4459103e+001
3.6817322e+001
3.9830685e+001
4.2742863e+001
4.5408592e+001
4.7335621e+001
4.8612675e+001
4.9763786e+001
5.0795967e+001
5.1774204e+001
5.2434078e+001
5.2465626e+001
5.1834827e+001
5.0607758e+001
4.9115379e+001
4.7679493e+001
4.6305664e+001
4.4995998e+001
4.3673183e+001
4.2300446e+001
4.0803604e+001
3.9169151e+001
3.7438686e+001
3.5611950e+001
3.3721680e+001
3.1737295e+001
2.9301823e+001
2.6286865e+001
2.3215725e+001
2.0162981e+001
1.7624634e+001
1.5674830e+001
1.3840428e+001
1.2119596e+001
1.0411775e+001
8.7133446e+000
7.0250568e+000
5.3667688e+000
3.7687621e+000
2.3482320e+000
1.2311738e+000
4.7578996e-001
1.1114110e-001
1.5365046e-001
6.5507603e-001
1.3373020e+000
1.9658613e+000
2.4956443e+000
2.8563218e+000
3.2084465e+000
3.6149211e+000
4.1262360e+000
4.7980399e+000
5.4053016e+000
5.8963823e+000
6.1606793e+000
6.0972104e+000
5.9219179e+000
5.5962820e+000
5.2692342e+000
4.9426365e+000
4.6529522e+000
4.3796101e+000
4.0599589e+000
3.6715050e+000
3.2181537e+000
2.7598159e+000
2.4123807e+000
2.2339821e+000
2.2794864e+000
2.4961183e+000
2.8166859e+000
3.1342771e+000
3.3374150e+000
3.4996331e+000
3.6481295e+000
3.8508458e+000
4.1622500e+000
4.5289888e+000
4.9654150e+000
5.4095640e+000
5.8551283e+000
6.2394571e+000
6.5126996e+000
6.6699324e+000
6.6467509e+000
6.5351954e+000
6.2879949e+000
5.9606261e+000
5.5227609e+000
5.0447097e+000
4.5233717e+000
4.0212688e+000
3.5404866e+000
3.1016860e+000
2.7157347e+000
2.3820915e+000
2.0947971e+000
1.8142662e+000
1.5174909e+000
1.1771411e+000
8.2863873e-001
5.1344603e-001
2.6121813e-001
1.1454758e-001
2.3486478e-002
-7.9752170e-003
-1.3713225e-002
2.2794645e-002
9.1265745e-002
2.1569626e-001
3.3789271e-001
4.5414943e-001
5.3225654e-001
5.6699777e-001
6.0761309e-001
6.6966307e-001
7.8378779e-001
9.7073150e-001
1.2238063e+000
1.5498737e+000
1.9045634e+000
2.2684300e+000
2.5801044e+000
2.8293715e+000
2.9934661e+000
3.0927279e+000
3.1438143e+000
3.1638610e+000
3.1651452e+000
3.1549373e+000
3.1415186e+000
3.1368856e+000
3.1655500e+000
3.2152650e+000
3.3042262e+000
3.3954999e+000
3.4796822e+000
3.5521982e+000
3.5989208e+000
3.6454642e+000
3.6952167e+000
3.7653556e+000
3.8751662e+000
4.0197473e+000
4.2201147e+000
4.4443340e+000
4.7019744e+000
4.9599633e+000
5.2230458e+000
5.4940400e+000
5.7792606e+000
6.0903425e+000
6.4233894e+000
6.7639575e+000
7.1036234e+000
7.4225650e+000
7.7241001e+000
8.0043621e+000
8.2707319e+000
8.5203724e+000
8.7501106e+000
8.9288101e+000
9.0679569e+000
9.1077719e+000
9.0944662e+000
8.9393244e+000
8.7314367e+000
8.3821726e+000
8.0066977e+000
7.5705638e+000
7.1281877e+000
6.6713967e+000
6.1952567e+000
5.6846614e+000
5.1546969e+000
4.6029906e+000
4.0691528e+000
3.5647478e+000
3.1047502e+000
2.6912005e+000
2.3109038e+000
1.9590286e+000
1.6287837e+000
1.3153325e+000
1.0216323e+000
7.4769729e-001
5.2020276e-001
3.3195928e-001
2.4259780e-001
1.9817880e-001
2.4426989e-001
3.0663002e-001
3.8380766e-001
4.5157698e-001
4.8021215e-001
4.9393362e-001
4.6360943e-001
4.2665726e-001
3.7679207e-001
3.4945056e-001
3.6687231e-001
3.9592558e-001
4.3432981e-001
4.2036772e-001
3.3399433e-001
2.1540701e-001
7.3806800e-002
-1.1650834e-002
-4.0884394e-002
-1.8665196e-002
3.3446975e-002
7.0017427e-002
1.0393066e-001
2.0580760e-001
3.5242060e-001
5.9668142e-001
8.7477732e-001
1.1895912e+000
1.5143346e+000
1.8575480e+000
2.1942041e+000
2.4860656e+000
2.7428360e+000
2.8540583e+000
2.9336345e+000
2.9152920e+000
2.9070749e+000
2.9289742e+000
2.9970984e+000
3.1581731e+000
3.3585143e+000
3.6197715e+000
3.8932729e+000
4.1785560e+000
4.4399185e+000
4.6736536e+000
4.8722696e+000
5.0458622e+000
5.2309952e+000
5.4215827e+000
5.6047997e+000
5.7770600e+000
5.8961816e+000
6.0004740e+000
6.1215730e+000
6.2499743e+000
6.4021821e+000
6.5386200e+000
6.5356755e+000
6.5000544e+000
6.2992835e+000
6.0974083e+000
5.8914204e+000
5.6985626e+000
5.5470881e+000
5.3990998e+000
5.2592034e+000
5.1183462e+000
4.9748044e+000
4.8175044e+000
4.6398635e+000
4.4521599e+000
4.2540302e+000
4.0657754e+000
3.8786364e+000
3.6203978e+000
3.3019271e+000
2.8670332e+000
2.3814058e+000
1.9992377e+000
1.6755151e+000
1.5512228e+000
1.4764122e+000
1.3573937e+000
1.2149574e+000
8.9306283e-001
5.5262661e-001
1.7129718e-001
-1.8245259e-001
-3.4368691e-001
-4.5800763e-001
-3.6778000e-001
-2.9123420e-001
-2.6119485e-001
-3.0983847e-001
-5.3905648e-001
-7.9560363e-001
-1.0931578e+000
-1.2798510e+000
-1.3107120e+000
-1.1914227e+000
-9.1593456e-001
-6.1641049e-001
-3.0218649e-001
-6.7924209e-002
1.1278337e-001
2.0351601e-001
2.5204462e-001
2.7038145e-001
2.8406298e-001
3.9784425e-001
5.3666168e-001
7.5239801e-001
9.6779162e-001
9.5030701e-001
8.9997208e-001
5.1401103e-001
1.4441292e-001
-8.3650947e-003
-2.5031477e-001
-1.1273217e-001
8.6557835e-002
4.6489903e-001
8.0133760e-001
1.0486472e+000
1.2973417e+000
1.5509557e+000
1.9342220e+000
2.4743743e+000
3.0051622e+000
3.5229945e+000
3.7741058e+000
3.8352025e+000
3.7256062e+000
3.5257909e+000
3.3852758e+000
3.2666349e+000
3.2437069e+000
3.2455103e+000
3.3877707e+000
3.5523620e+000
3.8053000e+000
