##TITLE=Methyl Ethyl Ketone
##JCAMP-DX=4.24
##DATA TYPE=INFRARED SPECTRUM
##XUNITS=cm-1
##YUNITS=Absorbance
##FIRSTX=900
##LASTX=2300
##XYDATA=(X++(Y..Y))
2296 -0.011196
2294 -0.011428667
2292 -0.011662331
2290 -0.011895002
2288 -0.012127669
2286 -0.012360335
2284 -0.012593994
2282 -0.01282667
2280 -0.013059338
2278 -0.013292004
2276 -0.013525657
2274 -0.013758339
2272 -0.013991006
2270 -0.014223673
2268 -0.01445732
2266 -0.014690007
2264 -0.014922675
2262 -0.015155341
2260 -0.015388982
2258 -0.015621676
2256 -0.015854344
2254 -0.016087009
2252 -0.016320646
2250 -0.016553344
2248 -0.016786011
2246 -0.017018678
2244 -0.00063243142
2242 0.021244688
2240 0.043889962
2238 0.068305045
2236 0.092979655
2234 0.09349902
2232 0.090921283
2230 0.057871114
2228 0.023903893
2226 -0.0057205101
2224 -0.031152006
2222 -0.038433153
2220 -0.042954624
2218 -0.042040139
2216 -0.042198285
2214 -0.045367669
2212 -0.049699999
2210 -0.055638604
2208 -0.06361679
2206 -0.074014693
2204 -0.08874099
2202 -0.10749153
2200 -0.1235704
2198 -0.13744751
2196 -0.13568
2194 -0.12497474
2192 -0.097363532
2190 -0.06259688
2188 -0.021918975
2186 0.020531127
2184 0.051047601
2182 0.078791045
2180 0.080701657
2178 0.078646354
2176 0.065883085
2174 0.053262249
2172 0.053343922
2170 0.053955771
2168 0.050714158
2166 0.037681185
2164 -0.00968544
2162 -0.066276677
2160 -0.13773167
2158 -0.19905995
2156 -0.238299
2154 -0.26114854
2152 -0.26354328
2150 -0.26027375
2148 -0.25302187
2146 -0.25201356
2144 -0.25689286
2142 -0.2654199
2140 -0.276041
2138 -0.27891785
2136 -0.27746484
2134 -0.27549911
2132 -0.27348664
2130 -0.28060111
2128 -0.29061881
2126 -0.31091499
2124 -0.33354008
2122 -0.35092065
2120 -0.36682996
2118 -0.37127274
2116 -0.37581286
2114 -0.39329928
2112 -0.41406
2110 -0.44102198
2108 -0.46254641
2106 -0.46490377
2104 -0.46208748
2102 -0.45408666
2100 -0.45691198
2098 -0.47918883
2096 -0.50594425
2094 -0.53482252
2092 -0.53927922
2090 -0.51812649
2088 -0.48059165
2086 -0.43253699
2084 -0.40353781
2082 -0.38807568
2080 -0.39420879
2078 -0.41077206
2076 -0.43700671
2074 -0.46674067
2072 -0.4909744
2070 -0.51331306
2068 -0.5112828
2066 -0.50341237
2064 -0.4996022
2062 -0.49868524
2060 -0.51911134
2058 -0.54333109
2056 -0.56527084
2054 -0.58463436
2052 -0.59634876
2050 -0.60141891
2048 -0.59324133
2046 -0.5750246
2044 -0.54233718
2042 -0.51478809
2040 -0.49925649
2038 -0.50802976
2036 -0.54334313
2034 -0.58408213
2032 -0.62536561
2030 -0.64584035
2028 -0.64986926
2026 -0.63982892
2024 -0.62252069
2022 -0.58901256
2020 -0.54764873
2018 -0.50886577
2016 -0.47161001
2014 -0.48392865
2012 -0.5129199
2010 -0.56059015
2008 -0.61055332
2006 -0.62146735
2004 -0.61878711
2002 -0.5905301
2000 -0.55627447
1998 -0.52416843
1996 -0.49168429
1994 -0.45639434
1992 -0.42517343
1990 -0.40469807
1988 -0.40444821
1986 -0.43500343
1984 -0.48126239
1982 -0.53922135
1980 -0.59480625
1978 -0.64467818
1976 -0.67693114
1974 -0.69401312
1972 -0.67832547
1970 -0.63990372
1968 -0.59441024
1966 -0.54708117
1964 -0.54002047
1962 -0.55436325
1960 -0.5893364
1958 -0.63213336
1956 -0.66729498
1954 -0.69940549
1952 -0.73025835
1950 -0.75900561
1948 -0.77086431
1946 -0.77700996
1944 -0.78131217
1942 -0.79300135
1940 -0.83325458
1938 -0.88127965
1936 -0.92673284
1934 -0.95664966
1932 -0.956743
1930 -0.93297589
1928 -0.88470393
1926 -0.81040376
1924 -0.7109462
1922 -0.60511309
1920 -0.49952263
1918 -0.44034129
1916 -0.42303401
1914 -0.43578008
1912 -0.46439514
1910 -0.48959649
1908 -0.51062626
1906 -0.56220615
1904 -0.63089442
1902 -0.70042795
1900 -0.76944023
1898 -0.76336455
1896 -0.72448999
1894 -0.64312148
1892 -0.55101258
1890 -0.49804029
1888 -0.47427407
1886 -0.51150393
1884 -0.57554013
1882 -0.65204871
1880 -0.72064328
1878 -0.76029032
1876 -0.76436597
1874 -0.721237
1872 -0.62969655
1870 -0.48872983
1868 -0.36667952
1866 -0.28753707
1864 -0.30714509
1862 -0.41799229
1860 -0.55431527
1858 -0.69228673
1856 -0.79034996
1854 -0.85723984
1852 -0.85885084
1850 -0.82067078
1848 -0.71635604
1846 -0.57681751
1844 -0.50631714
1842 -0.47654465
1840 -0.55557436
1838 -0.68030447
1836 -0.75868189
1834 -0.79777449
1832 -0.74328625
1830 -0.64340156
1828 -0.5307793
1826 -0.449018
1824 -0.46535018
1822 -0.54931676
1820 -0.69109958
1818 -0.8260259
1816 -0.9100523
1814 -0.92923832
1812 -0.88167077
1810 -0.80260348
1808 -0.71240115
1806 -0.62183797
1804 -0.53443533
1802 -0.4401682
1800 -0.33882624
1798 -0.23344229
1796 -0.12606086
1794 -0.045017321
1792 0.017037561
1790 0.0046684956
1788 -0.053396359
1786 -0.12698653
1784 -0.20343252
1782 -0.22250435
1780 -0.1999148
1778 -0.11209175
1776 0.018051345
1774 0.18050691
1772 0.33136344
1770 0.3939971
1768 0.378986
1766 0.27879393
1764 0.163606
1762 0.096032701
1760 0.029847926
1758 -0.067334518
1756 -0.13203943
1754 -0.13386965
1752 -0.023683585
1750 0.1965802
1748 0.4210214
1746 0.61362249
1744 0.63215268
1742 0.49281907
1740 0.34239644
1738 0.21050332
1736 0.23677599
1734 0.38249001
1732 0.44819477
1730 0.44256592
1728 0.25865349
1726 -0.02748543
1724 -0.19113114
1722 -0.2211757
1720 0.045317203
1718 0.55951047
1716 1.3036178
1714 2.1159673
1712 2.7583704
1710 3.3098648
1708 3.860986
1706 4.6164808
1704 5.7606945
1702 7.5129557
1700 9.9680529
1698 13.173653
1696 17.038143
1694 20.86838
1692 24.363575
1690 27.539936
1688 30.473125
1686 33.990299
1684 38.157345
1682 43.072453
1680 48.565758
1678 53.435616
1676 57.717644
1674 61.926552
1672 66.150139
1670 70.925751
1668 76.058426
1666 80.822952
1664 85.175743
1662 88.87825
1660 92.003151
1658 94.664223
1656 96.939117
1654 98.959801
1652 100.61426
1650 101.7801
1648 101.80788
1646 100.1875
1644 97.444824
1642 94.12709
1640 90.495529
1638 86.750305
1636 82.525414
1634 77.725571
1632 72.902565
1630 68.247177
1628 63.962368
1626 60.043114
1624 56.073002
1622 51.99345
1620 47.966873
1618 44.011444
1616 40.283569
1614 36.809387
1612 33.747425
1610 31.11187
1608 28.88768
1606 27.051821
1604 25.465965
1602 24.142157
1600 23.060869
1598 22.238461
1596 21.659
1594 21.313368
1592 21.155165
1590 21.149298
1588 21.240223
1586 21.425314
1584 21.693903
1582 22.080259
1580 22.594135
1578 23.285276
1576 24.164228
1574 25.184885
1572 26.325529
1570 27.497049
1568 28.67832
1566 29.894608
1564 31.154972
1562 32.679565
1560 34.565189
1558 37.328983
1556 40.980255
1554 44.683788
1552 48.237686
1550 50.903645
1548 52.767342
1546 54.469574
1544 56.021397
1542 57.49892
1540 58.642902
1538 59.092628
1536 58.790401
1534 57.790024
1532 56.383556
1530 54.918884
1528 53.42215
1526 51.9147
1524 50.288925
1522 48.478291
1520 46.373058
1518 43.906181
1516 41.427799
1514 39.04958
1512 36.826
1510 34.790771
1508 32.301605
1506 29.200443
1504 26.003515
1502 22.76144
1500 20.024759
1498 17.85549
1496 15.747857
1494 13.694096
1492 11.61004
1490 9.5011816
1488 7.3982387
1486 5.36097
1484 3.49755
1482 1.9324185
1480 0.80208468
1478 0.15586311
1476 0.038881585
1474 0.50003576
1472 1.4609067
1470 2.551888
1468 3.5295894
1466 4.3081956
1464 4.8033972
1462 5.2531042
1460 5.7548642
1458 6.3231936
1456 6.9826603
1454 7.4749184
1452 7.6866307
1450 7.6890488
1448 7.3988547
1446 7.0676355
1444 6.687201
1442 6.3381028
1440 6.0296297
1438 5.7375355
1436 5.4337683
1434 5.0179181
1432 4.4752555
1430 3.8615985
1428 3.2400241
1426 2.7633629
1424 2.4661708
1422 2.3676403
1420 2.4242301
1418 2.564621
1416 2.7302713
1414 2.8586211
1412 2.983959
1410 3.1348126
1408 3.3413377
1406 3.6429648
1404 4.0093465
1402 4.4575548
1400 4.9369678
1398 5.4514685
1396 5.9386716
1394 6.3656349
1392 6.6904755
1390 6.8351846
1388 6.8492842
1386 6.6560497
1384 6.3419218
1382 5.8671055
1380 5.3528533
1378 4.803617
1376 4.2862229
1374 3.8121231
1372 3.380652
1370 2.9951584
1368 2.6432464
1366 2.3028665
1364 1.9298598
1362 1.5215771
1360 1.0701597
1358 0.64022309
1356 0.31331542
1354 0.089209355
1352 0.018962262
1350 0.024775103
1348 0.1055178
1346 0.23072465
1344 0.43390882
1342 0.68401885
1340 1.0169072
1338 1.3291485
1336 1.5876914
1334 1.7723825
1332 1.8285645
1330 1.885411
1328 1.955555
1326 2.0902565
1324 2.3236117
1322 2.6208727
1320 2.9941578
1318 3.3849831
1316 3.77422
1314 4.0992084
1312 4.3475003
1310 4.5128765
1308 4.6111531
1306 4.6722951
1304 4.7050843
1302 4.7130461
1300 4.7001767
1298 4.6582694
1296 4.6036143
1294 4.5395517
1292 4.4792013
1290 4.4345675
1288 4.3996477
1286 4.3842721
1284 4.3718276
1282 4.3637772
1280 4.3579259
1278 4.3585644
1276 4.3731384
1274 4.4156222
1272 4.4721828
1270 4.5504107
1268 4.6278272
1266 4.7049842
1264 4.7856116
1262 4.8753762
1260 4.9876323
1258 5.1251411
1256 5.280129
1254 5.4468279
1252 5.6077752
1250 5.7576656
1248 5.8811083
1246 5.9814
1244 6.0469995
1242 6.0905294
1240 6.1037288
1238 6.0934539
1236 6.0330729
1234 5.9349599
1232 5.7444758
1230 5.5076594
1228 5.150785
1226 4.7604818
1224 4.2843113
1222 3.8042932
1220 3.3173597
1218 2.8455949
1216 2.4061573
1214 1.9883543
1212 1.611552
1210 1.2719879
1208 0.98943859
1206 0.74825734
1204 0.5558486
1202 0.38310027
1200 0.22875836
1198 0.079060815
1196 -0.064592071
1194 -0.19649655
1192 -0.31340498
1190 -0.3951866
1188 -0.4468891
1186 -0.43787807
1184 -0.39698297
1182 -0.30654985
1180 -0.19185047
1178 -0.024029121
1176 0.17705001
1174 0.4835481
1172 0.80604374
1170 1.1641107
1168 1.4816023
1166 1.6710986
1164 1.8043128
1162 1.800022
1160 1.7740772
1158 1.7058374
1156 1.6353014
1154 1.5574771
1152 1.4572297
1150 1.3207487
1148 1.1391041
1146 0.90747213
1144 0.65546137
1142 0.39682913
1140 0.19360012
1138 0.047699053
1136 0.013643943
1134 0.054296099
1132 0.20253631
1130 0.39697629
1128 0.61782753
1126 0.83673394
1124 1.007481
1122 1.1566887
1120 1.237072
1118 1.3023019
1116 1.3204501
1114 1.3379717
1112 1.3564098
1110 1.3831251
1108 1.43555
1106 1.487915
1104 1.5377862
1102 1.5693439
1100 1.5640043
1098 1.5409857
1096 1.4922286
1094 1.4522138
1092 1.4271361
1090 1.4345905
1088 1.4771925
1086 1.5466143
1084 1.6345923
1082 1.7091881
1080 1.7673051
1078 1.763996
1076 1.7259243
1074 1.6358703
1072 1.528308
1070 1.4170551
1068 1.3063177
1066 1.2050329
1064 1.1087559
1062 1.0404992
1060 0.98202503
1058 0.97810733
1056 0.97795832
1054 0.99340278
1052 0.99859369
1050 0.97067869
1048 0.93170464
1046 0.86679924
1044 0.8046748
1042 0.74859661
1040 0.70206702
1038 0.6692118
1036 0.63623196
1034 0.60148972
1032 0.55050981
1030 0.48324615
1028 0.39580226
1026 0.29372835
1024 0.1829178
1022 0.068641178
1020 -0.034284711
1018 -0.12981147
1016 -0.19271915
1014 -0.2445697
1012 -0.27095199
1010 -0.29506853
1008 -0.3423084
1006 -0.3969233
1004 -0.51549864
1002 -0.63571072
1000 -0.76258707
998 -0.87180799
996 -0.90245718
994 -0.9095217
992 -0.84350383
990 -0.77064312
988 -0.68269449
986 -0.60271531
984 -0.53718036
982 -0.48322824
980 -0.44525182
978 -0.41694289
976 -0.39851001
974 -0.37888286
972 -0.35876957
970 -0.34670997
968 -0.3418656
966 -0.38107851
964 -0.44044763
962 -0.50545532
960 -0.56801403
958 -0.54056096
956 -0.49091154
954 -0.37409812
952 -0.25092202
950 -0.16917807
948 -0.090313539
946 -0.029757857
944 0.0012294874
942 0.038464911
940 0.1187986
938 0.23521359
936 0.35768086
934 0.49765837
932 0.62997776
930 0.74492735
928 0.81510234
926 0.81326258
924 0.78189421
922 0.71544039
920 0.68868214
918 0.69944882
916 0.75704616
914 0.84688193
912 0.8777374
910 0.87637919
908 0.76309025
906 0.60717463
904 0.47364947
902 0.34650147
900 0.33757892
898 0.34772852
896 0.38863999
