Image.
>Pix99999.
  .
5555
5555
2300
900
5555
2
1
0
701
5555
-6.7572999e-003
-6.8978989e-003
-7.0384978e-003
-7.1789972e-003
-7.3195952e-003
-7.4601942e-003
-7.6007931e-003
-7.7413917e-003
-7.8818919e-003
-8.0222925e-003
-8.1630852e-003
-8.3043762e-003
-8.4442003e-003
-8.5821347e-003
-8.7253293e-003
-8.8758664e-003
-9.0067154e-003
-9.1100028e-003
-9.2867017e-003
-9.5661320e-003
-9.5729260e-003
-9.1964435e-003
-9.8333554e-003
-1.1899521e-002
-1.0198846e-002
-8.6561748e-004
8.3563030e-003
6.7265257e-003
-1.5452183e-002
-5.9308372e-002
-9.2723869e-002
-8.7782457e-002
-7.1701251e-002
-8.3565593e-002
-1.4603285e-001
-2.6219249e-001
-3.7597358e-001
-4.2652512e-001
-4.0347624e-001
-3.2134911e-001
-2.3420314e-001
-1.9425476e-001
-1.9940260e-001
-2.2904080e-001
-2.5457537e-001
-2.5299728e-001
-2.3267417e-001
-2.0996287e-001
-1.9462623e-001
-1.9412149e-001
-2.1548000e-001
-2.6403344e-001
-3.3844456e-001
-4.3068859e-001
-5.1410025e-001
-5.6129926e-001
-5.6610477e-001
-5.3422618e-001
-4.9172357e-001
-4.6677640e-001
-4.6995744e-001
-5.0021738e-001
-5.3317356e-001
-5.3964901e-001
-5.0183094e-001
-4.1456005e-001
-3.0826625e-001
-2.2175020e-001
-1.7965034e-001
-1.9311714e-001
-2.3874800e-001
-2.8660664e-001
-3.2778531e-001
-3.6370307e-001
-4.0738350e-001
-4.6949393e-001
-5.3541929e-001
-5.8371019e-001
-6.0143441e-001
-5.8358270e-001
-5.4445028e-001
-5.0319016e-001
-4.7116503e-001
-4.5374683e-001
-4.4395238e-001
-4.3094778e-001
-4.0621361e-001
-3.6726835e-001
-3.3237812e-001
-3.2412723e-001
-3.5139215e-001
-4.1261551e-001
-4.8519847e-001
-5.4197586e-001
-5.6861663e-001
-5.6029058e-001
-5.3037226e-001
-4.9868748e-001
-4.8377499e-001
-4.9913701e-001
-5.4047853e-001
-5.9646297e-001
-6.5490675e-001
-7.0653635e-001
-7.5424254e-001
-8.0564851e-001
-8.6815345e-001
-9.4470721e-001
-1.0208144e+000
-1.0763185e+000
-1.0967057e+000
-1.0760289e+000
-1.0335640e+000
-9.9588501e-001
-9.7738075e-001
-9.8366994e-001
-1.0064223e+000
-1.0338367e+000
-1.0631102e+000
-1.0945771e+000
-1.1258514e+000
-1.1524576e+000
-1.1688728e+000
-1.1714000e+000
-1.1668743e+000
-1.1665572e+000
-1.1807220e+000
-1.2154787e+000
-1.2617228e+000
-1.3036180e+000
-1.3238028e+000
-1.3119060e+000
-1.2864292e+000
-1.2766830e+000
-1.3023636e+000
-1.3685900e+000
-1.4398640e+000
-1.4706509e+000
-1.4474226e+000
-1.3780283e+000
-1.2965000e+000
-1.2414290e+000
-1.2253228e+000
-1.2462187e+000
-1.2925880e+000
-1.3478172e+000
-1.3879124e+000
-1.3897910e+000
-1.3474520e+000
-1.2671527e+000
-1.1719500e+000
-1.0905532e+000
-1.0436034e+000
-1.0437176e+000
-1.0881420e+000
-1.1654779e+000
-1.2594051e+000
-1.3528311e+000
-1.4347686e+000
-1.4959573e+000
-1.5215057e+000
-1.4958860e+000
-1.4143163e+000
-1.2851534e+000
-1.1493818e+000
-1.0581857e+000
-1.0384269e+000
-1.0940412e+000
-1.1879801e+000
-1.2690687e+000
-1.3112015e+000
-1.3070353e+000
-1.2687292e+000
-1.2184267e+000
-1.1824560e+000
-1.1867250e+000
-1.2491635e+000
-1.3743713e+000
-1.5282211e+000
-1.6606425e+000
-1.7377628e+000
-1.7446029e+000
-1.7038341e+000
-1.6504955e+000
-1.5908920e+000
-1.5109136e+000
-1.3815286e+000
-1.1815516e+000
-9.5222592e-001
-7.6320130e-001
-6.5886831e-001
-6.5627480e-001
-7.2583401e-001
-8.2113260e-001
-9.2805713e-001
-1.0495694e+000
-1.1762840e+000
-1.2868470e+000
-1.3456746e+000
-1.3204406e+000
-1.2244428e+000
-1.0996563e+000
-9.9784541e-001
-9.6538621e-001
-1.0109236e+000
-1.1169007e+000
-1.2476597e+000
-1.3633629e+000
-1.4429537e+000
-1.4791627e+000
-1.4736800e+000
-1.4324934e+000
-1.3623440e+000
-1.2759161e+000
-1.2118417e+000
-1.2167629e+000
-1.3051302e+000
-1.4639790e+000
-1.6517745e+000
-1.8179697e+000
-1.9379886e+000
-2.0018666e+000
-1.9873152e+000
-1.8702548e+000
-1.6608441e+000
-1.4006643e+000
-1.1733346e+000
-1.0689627e+000
-1.0993811e+000
-1.2174037e+000
-1.3417557e+000
-1.3882740e+000
-1.3302566e+000
-1.1896216e+000
-1.0342771e+000
-9.4802153e-001
-9.7413933e-001
-1.1161931e+000
-1.3288701e+000
-1.5417755e+000
-1.6996914e+000
-1.7690090e+000
-1.7557174e+000
-1.6881434e+000
-1.5856583e+000
-1.4549400e+000
-1.2850360e+000
-1.0584614e+000
-7.7663386e-001
-4.5887786e-001
-1.4231707e-001
1.2554610e-001
2.9698601e-001
3.3832455e-001
2.7475080e-001
1.6985208e-001
7.8879476e-002
4.2857945e-002
8.7033898e-002
2.2265950e-001
4.4092512e-001
7.0787638e-001
9.3304682e-001
1.0057122e+000
8.9686263e-001
6.5253973e-001
3.7351298e-001
1.6844699e-001
4.0736001e-002
-7.0185274e-002
-1.5164572e-001
-1.3080271e-001
4.8463486e-002
3.9811307e-001
8.2244301e-001
1.1617639e+000
1.3133886e+000
1.2551769e+000
1.0952057e+000
1.0048186e+000
1.0316401e+000
1.1048309e+000
1.0934612e+000
8.6933041e-001
4.5932484e-001
1.7005563e-002
-2.8418416e-001
-2.8686190e-001
1.0353263e-001
8.9859426e-001
1.9463900e+000
3.0025287e+000
3.9509046e+000
4.8227491e+000
5.7854042e+000
7.0896902e+000
8.9609680e+000
1.1552771e+001
1.4840902e+001
1.8617203e+001
2.2450714e+001
2.5831711e+001
2.8610170e+001
3.1006458e+001
3.3493050e+001
3.6647728e+001
4.0817539e+001
4.6012283e+001
5.1658440e+001
5.6878593e+001
6.1476856e+001
6.5891151e+001
7.0534882e+001
7.5597878e+001
8.0800720e+001
8.5540047e+001
8.9458717e+001
9.2501572e+001
9.4745316e+001
9.6331459e+001
9.7400398e+001
9.8056595e+001
9.8298981e+001
9.8033791e+001
9.7147964e+001
9.5579964e+001
9.3526573e+001
9.1365417e+001
8.9234932e+001
8.7000626e+001
8.4420715e+001
8.1253632e+001
7.7506554e+001
7.3400322e+001
6.9080582e+001
6.4571777e+001
5.9849682e+001
5.4894249e+001
4.9808399e+001
4.4809357e+001
4.0106400e+001
3.5868828e+001
3.2213646e+001
2.9193939e+001
2.6758297e+001
2.4772129e+001
2.3126945e+001
2.1765215e+001
2.0674274e+001
1.9870060e+001
1.9347500e+001
1.9072231e+001
1.9000446e+001
1.9092289e+001
1.9342575e+001
1.9782593e+001
2.0449703e+001
2.1386610e+001
2.2680231e+001
2.4448719e+001
2.6753057e+001
2.9562492e+001
3.2710667e+001
3.5929794e+001
3.9046520e+001
4.2019859e+001
4.4861797e+001
4.7639584e+001
5.0553905e+001
5.3825527e+001
5.7124828e+001
5.9605289e+001
6.0794941e+001
6.0800137e+001
6.0049603e+001
5.9118820e+001
5.8210674e+001
5.7075382e+001
5.5387661e+001
5.2918633e+001
4.9838715e+001
4.6708237e+001
4.3935020e+001
4.1638058e+001
3.9781433e+001
3.8209702e+001
3.6711788e+001
3.5055435e+001
3.3074547e+001
3.0727848e+001
2.8185043e+001
2.5790003e+001
2.3693041e+001
2.1759644e+001
1.9761383e+001
1.7476406e+001
1.4945279e+001
1.2495459e+001
1.0363507e+001
8.5890312e+000
7.1092858e+000
5.8013592e+000
4.5947733e+000
3.4935489e+000
2.4818382e+000
1.5138438e+000
6.1105281e-001
-1.1423868e-001
-5.3802532e-001
-5.4867786e-001
-5.1776558e-002
9.9517208e-001
2.4508264e+000
3.9804649e+000
5.3558664e+000
6.5519381e+000
7.6496921e+000
8.7972116e+000
1.0081511e+001
1.1466619e+001
1.2764999e+001
1.3658628e+001
1.3978837e+001
1.3798469e+001
1.3268068e+001
1.2563750e+001
1.1815429e+001
1.1080151e+001
1.0380121e+001
9.7069082e+000
9.0157328e+000
8.2341070e+000
7.3474340e+000
6.4312010e+000
5.5934119e+000
4.9505663e+000
4.5680909e+000
4.4320145e+000
4.4814963e+000
4.6184101e+000
4.7619171e+000
4.8753190e+000
4.9770136e+000
5.1436877e+000
5.4306850e+000
5.8400946e+000
6.3365002e+000
6.8473048e+000
7.2913523e+000
7.5895348e+000
7.6803284e+000
7.5352230e+000
7.1765699e+000
6.6883097e+000
6.1531343e+000
5.6288352e+000
5.1511664e+000
4.7308998e+000
4.3710985e+000
4.0669966e+000
3.7850287e+000
3.4551210e+000
3.0243921e+000
2.4845841e+000
1.8721542e+000
1.2720666e+000
7.5020921e-001
3.2542923e-001
6.2073767e-004
-2.2775531e-001
-3.5197613e-001
-3.4551942e-001
-1.8416090e-001
1.4299378e-001
6.2612474e-001
1.2296000e+000
1.9267399e+000
2.7064357e+000
3.5129387e+000
4.2148471e+000
4.6736741e+000
4.7825470e+000
4.5322270e+000
4.0589762e+000
3.5130651e+000
3.0088820e+000
2.6239879e+000
2.3845301e+000
2.2811630e+000
2.2638788e+000
2.2681799e+000
2.2247529e+000
2.0913410e+000
1.8756454e+000
1.6088886e+000
1.3422093e+000
1.1219909e+000
9.7725797e-001
9.2608577e-001
9.7455245e-001
1.1272143e+000
1.3902491e+000
1.7677708e+000
2.2569196e+000
2.8395720e+000
3.4726951e+000
4.1051111e+000
4.6826935e+000
5.1619425e+000
5.5215344e+000
5.7604957e+000
5.9067140e+000
6.0012021e+000
6.0962391e+000
6.2379360e+000
6.4553857e+000
6.7675781e+000
7.1813092e+000
7.6970177e+000
8.3092384e+000
9.0120678e+000
9.8019333e+000
1.0677792e+001
1.1640937e+001
1.2680292e+001
1.3759501e+001
1.4829532e+001
1.5824923e+001
1.6682388e+001
1.7353365e+001
1.7794014e+001
1.7963514e+001
1.7821039e+001
1.7329823e+001
1.6483040e+001
1.5334143e+001
1.3963258e+001
1.2479783e+001
1.0997788e+001
9.6248541e+000
8.4556112e+000
7.5563722e+000
6.9678707e+000
6.6884251e+000
6.6841369e+000
6.8727574e+000
7.1441998e+000
7.3576474e+000
7.3894434e+000
7.1727233e+000
6.6947999e+000
6.0286179e+000
5.2675819e+000
4.5021062e+000
3.7964616e+000
3.1602628e+000
2.5875919e+000
2.0688879e+000
1.6079134e+000
1.2386905e+000
9.9413604e-001
8.8742864e-001
9.0949988e-001
1.0137990e+000
1.1504115e+000
1.2836050e+000
1.3954746e+000
1.4997480e+000
1.6083016e+000
1.7100334e+000
1.7762187e+000
1.7521400e+000
1.5987725e+000
1.3290336e+000
9.8387778e-001
6.3853860e-001
3.5959262e-001
1.7238307e-001
7.1767978e-002
6.7117140e-003
-6.2853195e-002
-1.2568229e-001
-1.6123773e-001
-1.5608945e-001
-1.0016568e-001
1.2324065e-002
1.8279777e-001
4.0273908e-001
6.4478678e-001
8.4296209e-001
9.3610585e-001
9.0083265e-001
7.5151551e-001
5.7195002e-001
4.4599360e-001
4.1386598e-001
4.8442566e-001
6.1526692e-001
7.6569879e-001
9.3120360e-001
1.1223571e+000
1.3653045e+000
1.6828260e+000
2.0780826e+000
2.5398073e+000
3.0314450e+000
3.5045438e+000
3.8968525e+000
4.1615796e+000
4.3015537e+000
4.3383789e+000
4.3106914e+000
4.2504764e+000
4.1619802e+000
4.0497222e+000
3.9369643e+000
3.8452799e+000
3.7790003e+000
3.7247591e+000
3.6336553e+000
3.4670887e+000
3.2398891e+000
2.9897413e+000
2.7807188e+000
2.6633439e+000
2.6314216e+000
2.6641481e+000
2.7382722e+000
2.8414452e+000
2.9933333e+000
3.2105398e+000
3.4764252e+000
3.7541234e+000
3.9715638e+000
4.0607595e+000
3.9935584e+000
3.7725492e+000
3.4634690e+000
3.1415508e+000
2.8625307e+000
2.6591201e+000
2.5083730e+000
2.3738637e+000
2.2188306e+000
2.0151639e+000
1.7606492e+000
1.4691749e+000
1.1834099e+000
9.3973696e-001
7.3240888e-001
5.3836215e-001
3.1399116e-001
3.2401279e-002
-2.6405504e-001
-5.1735038e-001
-6.7490625e-001
-7.0405698e-001
-6.3211858e-001
-4.9541676e-001
-3.1133449e-001
-9.1612294e-002
1.5453099e-001
4.0594512e-001
6.0045958e-001
6.8405128e-001
6.6497898e-001
5.7843018e-001
4.9788359e-001
4.8239556e-001
5.0891078e-001
5.3241444e-001
5.0284302e-001
3.8861841e-001
2.2742762e-001
7.8541517e-002
1.6447030e-002
1.0652986e-001
3.6750582e-001
7.8020078e-001
1.2311751e+000
1.5989286e+000
1.8188462e+000
1.8655699e+000
1.8055600e+000
1.7225783e+000
1.6797143e+000
1.7189680e+000
1.8228053e+000
1.9573874e+000
2.0842032e+000
2.1728902e+000
2.2279851e+000
2.2740886e+000
2.3791571e+000
2.6055830e+000
2.9537091e+000
3.3882308e+000
3.7950077e+000
4.0761719e+000
4.2759833e+000
4.4740000e+000
