##TITLE=Methyl Ethyl Ketone
##JCAMP-DX=4.24
##DATA TYPE=INFRARED SPECTRUM
##XUNITS=cm-1
##YUNITS=Absorbance
##FIRSTX=900
##LASTX=2300
##XYDATA=(X++(Y..Y))
2296 0.045081001
2294 0.046019658
2292 0.046957318
2290 0.047894977
2288 0.048832636
2286 0.049770296
2284 0.050708942
2282 0.051646609
2280 0.052584268
2278 0.05352094
2276 0.054459572
2274 0.05540118
2272 0.056335956
2270 0.057261784
2268 0.05821098
2266 0.059191938
2264 0.060088519
2262 0.060865179
2260 0.061958637
2258 0.063495904
2256 0.063855655
2254 0.062562294
2252 0.065642737
2250 0.074892208
2248 0.067881919
2246 0.029488357
2244 0.0010428228
2242 0.025906656
2240 0.091859281
2238 0.16737324
2236 0.206834
2234 0.17642446
2232 0.10565886
2230 0.03823844
2228 0.0016517715
2226 0.0066006496
2224 0.015784092
2222 -0.013990637
2220 -0.093169883
2218 -0.21429583
2216 -0.33731171
2214 -0.41875109
2212 -0.4401778
2210 -0.39816958
2208 -0.31910405
2206 -0.23593272
2204 -0.17216781
2202 -0.14080192
2200 -0.12452395
2198 -0.10136111
2196 -0.068514638
2194 -0.034637645
2192 -0.030107062
2190 -0.081808291
2188 -0.17505088
2186 -0.27938741
2184 -0.35454321
2182 -0.36812192
2180 -0.33160153
2178 -0.27347112
2176 -0.23359571
2174 -0.24712658
2172 -0.31600252
2170 -0.4267441
2168 -0.54774123
2166 -0.64612901
2164 -0.70750087
2162 -0.72597265
2160 -0.70463407
2158 -0.65117818
2156 -0.58027798
2154 -0.50904173
2152 -0.45517755
2150 -0.4296585
2148 -0.41523716
2146 -0.3872118
2144 -0.33039165
2142 -0.24176639
2140 -0.15358566
2138 -0.10526251
2136 -0.11487686
2134 -0.18509644
2132 -0.28784356
2130 -0.38820368
2128 -0.46742919
2126 -0.51507503
2124 -0.52938074
2122 -0.51456189
2120 -0.48724043
2118 -0.46777147
2116 -0.47359043
2114 -0.51506233
2112 -0.57852733
2110 -0.6436016
2108 -0.69923961
2106 -0.73931235
2104 -0.7623902
2102 -0.7683928
2100 -0.75613755
2098 -0.7266115
2096 -0.69171286
2094 -0.66654074
2092 -0.66179168
2090 -0.6832993
2088 -0.72441918
2086 -0.77440047
2084 -0.82559323
2082 -0.87424308
2080 -0.92701793
2078 -0.9898662
2076 -1.0487062
2074 -1.0808551
2072 -1.062772
2070 -0.98186296
2068 -0.87310725
2066 -0.78835565
2064 -0.76962519
2062 -0.84009242
2060 -0.96479887
2058 -1.0869608
2056 -1.1586885
2054 -1.1482079
2052 -1.07155
2050 -0.96604896
2048 -0.87518853
2046 -0.83776391
2044 -0.86651802
2042 -0.95838928
2040 -1.0910134
2038 -1.2337182
2036 -1.35311
2034 -1.4202265
2032 -1.4282846
2030 -1.384608
2028 -1.3166871
2026 -1.255863
2024 -1.2161583
2022 -1.2035092
2020 -1.2239377
2018 -1.2833163
2016 -1.3828599
2014 -1.5136446
2012 -1.6307191
2010 -1.6845329
2008 -1.6739931
2006 -1.6249585
2004 -1.577944
2002 -1.566625
2000 -1.5713046
1998 -1.5510535
1996 -1.4802999
1994 -1.3525647
1992 -1.2033057
1990 -1.0840303
1988 -1.030884
1986 -1.0643536
1984 -1.1730319
1982 -1.3280947
1980 -1.4899471
1978 -1.6158196
1976 -1.6694086
1974 -1.6250631
1972 -1.4885037
1970 -1.2894658
1968 -1.0952269
1966 -0.98118949
1964 -0.98172128
1962 -1.0970203
1960 -1.2741081
1958 -1.4421886
1956 -1.5627686
1954 -1.6208667
1952 -1.6253165
1950 -1.5975018
1948 -1.5669831
1946 -1.563375
1944 -1.6005315
1942 -1.6779003
1940 -1.7669652
1938 -1.8306613
1936 -1.8559171
1934 -1.8469733
1932 -1.823408
1930 -1.8068031
1928 -1.7969606
1926 -1.7786614
1924 -1.725612
1922 -1.6164532
1920 -1.4736246
1918 -1.3401331
1916 -1.2422872
1914 -1.1884508
1912 -1.1564897
1910 -1.1182076
1908 -1.0883118
1906 -1.0998408
1904 -1.156752
1902 -1.2371786
1900 -1.287204
1898 -1.2501197
1896 -1.1286571
1894 -0.96502423
1892 -0.82046086
1890 -0.75538123
1888 -0.79288042
1886 -0.92677677
1884 -1.1193066
1882 -1.3200529
1880 -1.493536
1878 -1.6183155
1876 -1.68874
1874 -1.7067465
1872 -1.6693662
1870 -1.5767584
1868 -1.4583806
1866 -1.3590971
1864 -1.3127549
1862 -1.3361089
1860 -1.4062431
1858 -1.4821424
1856 -1.5438057
1854 -1.5868186
1852 -1.6084014
1850 -1.6068672
1848 -1.587612
1846 -1.5608321
1844 -1.5396792
1842 -1.5332918
1840 -1.5281451
1838 -1.4963962
1836 -1.4107271
1834 -1.249907
1832 -1.0124
1830 -0.7190327
1828 -0.4369396
1826 -0.25327921
1824 -0.21813646
1822 -0.34121782
1820 -0.57198656
1818 -0.82898676
1816 -1.0534725
1814 -1.2111264
1812 -1.2923857
1810 -1.2988652
1808 -1.2196959
1806 -1.041904
1804 -0.78915036
1802 -0.51228774
1800 -0.26950184
1798 -0.10712333
1796 -0.0089817867
1794 0.075906634
1792 0.1637992
1790 0.24330105
1788 0.30831015
1786 0.36332321
1784 0.42834595
1782 0.5264594
1780 0.65004885
1778 0.7710163
1776 0.87080687
1774 0.93749809
1772 0.94568187
1770 0.8648259
1768 0.6901291
1766 0.44819123
1764 0.21955621
1762 0.094032407
1760 0.038751222
1758 -0.048058294
1756 -0.15688065
1754 -0.191255
1752 -0.083319902
1750 0.18032429
1748 0.51634502
1746 0.78387284
1744 0.8834939
1742 0.78573102
1740 0.6003989
1738 0.50980747
1736 0.57687998
1734 0.74267036
1732 0.86248857
1730 0.77496403
1728 0.47389078
1726 0.087475665
1724 -0.21316545
1722 -0.253921
1720 0.085196346
1718 0.8401016
1716 1.8581729
1714 2.8704929
1712 3.7176685
1710 4.3843713
1708 5.0309043
1706 5.9348569
1704 7.3530073
1702 9.4774876
1700 12.361734
1698 15.895264
1696 19.691429
1694 23.221821
1692 26.251961
1690 28.884424
1688 31.540817
1686 34.81485
1684 39.086388
1682 44.394337
1680 50.151562
1678 55.439495
1676 60.065327
1674 64.507713
1672 69.187836
1670 74.258026
1668 79.369347
1666 83.854149
1664 87.415543
1662 90.157158
1660 92.267303
1658 93.925987
1656 95.228203
1654 96.179108
1652 96.721443
1650 96.755363
1648 96.170181
1646 94.899994
1644 93.102715
1642 91.099236
1640 89.043564
1638 86.885567
1636 84.468002
1634 81.603371
1632 78.263237
1630 74.561501
1628 70.55439
1626 66.221527
1624 61.569439
1622 56.666477
1620 51.680664
1618 46.851597
1616 42.3564
1614 38.28904
1612 34.713478
1610 31.666632
1608 29.116537
1606 26.972422
1604 25.156963
1602 23.62348
1600 22.358269
1598 21.3748
1596 20.673
1594 20.23245
1592 20.020805
1590 20.001204
1588 20.163031
1586 20.523657
1584 21.102543
1582 21.92346
1580 23.04612
1578 24.556705
1576 26.504856
1574 28.874489
1572 31.539101
1570 34.284744
1568 36.96056
1566 39.512295
1564 41.937828
1562 44.303013
1560 46.847809
1558 49.883217
1556 53.218315
1554 56.146881
1552 58.149212
1550 59.089714
1548 59.19912
1546 58.967392
1544 58.598217
1542 57.911488
1540 56.65966
1538 54.66888
1536 52.087971
1534 49.383839
1532 46.915501
1530 44.817535
1528 43.065006
1526 41.497299
1524 39.913822
1522 38.11813
1520 36.016781
1518 33.658836
1516 31.219372
1514 28.946819
1512 26.88468
1510 24.820072
1508 22.538504
1506 19.933258
1504 17.149332
1502 14.573278
1500 12.437483
1498 10.713282
1496 9.2683287
1494 7.9281092
1492 6.5966129
1490 5.2844987
1488 4.0081458
1486 2.7722135
1484 1.6269159
1482 0.67942405
1480 0.031729639
1478 -0.23218073
1476 -0.011426002
1474 0.78709924
1472 2.0777006
1470 3.5670359
1468 5.0197549
1466 6.3470421
1464 7.5666575
1462 8.7869196
1460 10.096869
1458 11.511699
1456 12.908999
1454 14.025184
1452 14.676396
1450 14.838535
1448 14.585177
1446 14.072357
1444 13.435045
1442 12.74895
1440 12.049891
1438 11.328965
1436 10.549771
1434 9.6637411
1432 8.6878424
1430 7.7303143
1428 6.9047122
1426 6.2958703
1424 5.9318938
1422 5.7682924
1420 5.7347388
1418 5.7526655
1416 5.7735314
1414 5.7985501
1412 5.8637595
1410 6.0323129
1408 6.3341155
1406 6.7401948
1404 7.1923218
1402 7.6106238
1400 7.9211917
1398 8.0700607
1396 8.0310211
1394 7.8153849
1392 7.4631381
1390 7.0411544
1388 6.6046314
1386 6.1819448
1384 5.7907486
1382 5.439734
1380 5.1269598
1378 4.8351703
1376 4.5321431
1374 4.1727438
1372 3.734834
1370 3.2362714
1368 2.7065554
1366 2.1762958
1364 1.6600797
1362 1.1506419
1360 0.65908104
1358 0.23277423
1356 -0.073447853
1354 -0.20859131
1352 -0.14055486
1350 0.13150111
1348 0.58565784
1346 1.1761825
1344 1.8600481
1342 2.6030302
1340 3.3485126
1338 4.0016961
1336 4.4647002
1334 4.6585813
1332 4.5696969
1330 4.283215
1328 3.8994176
1326 3.5037179
1324 3.1572971
1322 2.8848264
1320 2.6896229
1318 2.5523634
1316 2.4437599
1314 2.3274686
1312 2.1738884
1310 1.9695119
1308 1.7178423
1306 1.4452721
1304 1.1832321
1302 0.9616726
1300 0.80463535
1298 0.72665167
1296 0.74273431
1294 0.87143809
1292 1.125116
1290 1.5012475
1288 1.9782519
1286 2.5067158
1284 3.0333269
1282 3.5107551
1280 3.9031732
1278 4.1947823
1276 4.384367
1274 4.4900217
1272 4.5447245
1270 4.5995331
1268 4.703846
1266 4.8941307
1264 5.1930327
1262 5.6025524
1260 6.1184678
1258 6.7337799
1256 7.4412746
1254 8.2336435
1252 9.0998878
1250 10.022076
1248 10.979388
1246 11.949249
1244 12.913136
1242 13.858607
1240 14.765086
1238 15.588573
1236 16.2668
1234 16.712357
1232 16.84976
1230 16.635429
1228 16.061831
1226 15.177072
1224 14.04388
1222 12.739561
1220 11.355555
1218 10.012341
1216 8.8252115
1214 7.8863912
1212 7.2514277
1210 6.9096456
1208 6.8204532
1206 6.9124436
1204 7.0976577
1202 7.2707572
1200 7.3335261
1198 7.2146153
1196 6.8763142
1194 6.3396921
1192 5.6491809
1190 4.8700399
1188 4.0743895
1186 3.3369644
1184 2.7190697
1182 2.2500913
1180 1.9335828
1178 1.7348316
1176 1.6129
1174 1.5336524
1172 1.4683745
1170 1.3969077
1168 1.3085686
1166 1.2090757
1164 1.1145895
1162 1.0536231
1160 1.0419492
1158 1.0593551
1156 1.0724229
1154 1.038815
1152 0.93334961
1150 0.77493715
1148 0.59470958
1146 0.42664
1144 0.29471967
1142 0.19704089
1140 0.11670612
1138 0.018155999
1136 -0.1209002
1134 -0.2811588
1132 -0.43529212
1130 -0.56104761
1128 -0.64257342
1126 -0.67711926
1124 -0.67027944
1122 -0.6391139
1120 -0.59292603
1118 -0.5168376
1116 -0.40329215
1114 -0.27684516
1112 -0.16945817
1110 -0.10922098
1108 -0.093873084
1106 -0.050347593
1104 0.086300582
1102 0.31572163
1100 0.60230267
1098 0.8646549
1096 1.0482143
1094 1.194967
1092 1.36888
1090 1.6270659
1088 1.9994246
1086 2.4486949
1084 2.9219208
1082 3.3672719
1080 3.7300816
1078 3.948977
1076 3.9762414
1074 3.8080075
1072 3.4745455
1070 3.0684438
1068 2.6842718
1066 2.37904
1064 2.184016
1062 2.0846143
1060 2.0546012
1058 2.0660129
1056 2.0925884
1054 2.1150014
1052 2.1200743
1050 2.1074071
1048 2.0797768
1046 2.0402679
1044 1.9967862
1042 1.9706637
1040 1.9881829
1038 2.0785429
1036 2.25302
1034 2.4688747
1032 2.6680326
1030 2.7879126
1028 2.7829797
1026 2.6605
1024 2.4454515
1022 2.1754179
1020 1.8858726
1018 1.5957611
1016 1.3186772
1014 1.0631406
1012 0.83298731
1010 0.62049568
1008 0.40797919
1006 0.15715142
1004 -0.15684837
1002 -0.50147861
1000 -0.82983184
998 -1.0954163
996 -1.2729071
994 -1.402923
992 -1.5327771
990 -1.6791302
988 -1.8384452
986 -1.96825
984 -2.0259554
982 -2.0013433
980 -1.900148
978 -1.7556211
976 -1.6032943
974 -1.4650102
972 -1.3557681
970 -1.2774669
968 -1.2240925
966 -1.172245
964 -1.0948291
962 -0.96718764
960 -0.78191811
958 -0.58794111
956 -0.4402557
954 -0.36564088
952 -0.36185759
950 -0.35046139
948 -0.2596195
946 -0.10716539
944 0.075429484
942 0.28705364
940 0.51935863
938 0.71133125
936 0.80076057
934 0.76891679
932 0.62066954
930 0.4080407
928 0.20617402
926 0.13171357
924 0.28409079
922 0.65937239
920 1.2083217
918 1.80846
916 2.3380013
914 2.7487073
912 3.0197027
910 3.1676271
908 3.2302325
906 3.292845
904 3.4396057
902 3.7031951
900 4.0748167
898 4.4298649
896 4.6152
