##TITLE=Methyl Ethyl Ketone
##JCAMP-DX=4.24
##DATA TYPE=INFRARED SPECTRUM
##XUNITS=cm-1
##YUNITS=Absorbance
##FIRSTX=900
##LASTX=2300
##XYDATA=(X++(Y..Y))
2296 0.086522996
2294 0.088323422
2292 0.090122849
2290 0.091923274
2288 0.093722701
2286 0.095523119
2284 0.097323544
2282 0.099122979
2280 0.10091943
2278 0.10272674
2276 0.10452428
2274 0.10632171
2272 0.10811914
2270 0.10992638
2268 0.111724
2266 0.11352143
2264 0.11531886
2262 0.11712604
2260 0.11892372
2258 0.12072115
2256 0.12251857
2254 0.1243257
2252 0.12612343
2250 0.12792085
2248 0.12971827
2246 0.13152535
2244 0.097405687
2242 0.0037062129
2240 -0.1213152
2238 -0.23388337
2236 -0.34462929
2234 -0.37822345
2232 -0.40764463
2230 -0.46819103
2228 -0.53746307
2226 -0.66524303
2224 -0.77511787
2222 -0.79032403
2220 -0.76473933
2218 -0.63080394
2216 -0.50677341
2214 -0.41769391
2212 -0.3780356
2210 -0.41557848
2208 -0.49163327
2206 -0.60975337
2204 -0.74664825
2202 -0.89891422
2200 -1.0515237
2198 -1.203639
2196 -1.3135643
2194 -1.3993582
2192 -1.3752291
2190 -1.3037559
2188 -1.1608711
2186 -0.99580705
2184 -0.8734048
2182 -0.76110268
2180 -0.7617209
2178 -0.78041065
2176 -0.907938
2174 -1.0399268
2172 -1.1090934
2170 -1.151009
2168 -1.070648
2166 -0.98902076
2164 -0.94685018
2162 -0.9298023
2160 -0.966932
2158 -0.9837721
2156 -0.951437
2154 -0.90415424
2152 -0.84257644
2150 -0.80949521
2148 -0.81026334
2146 -0.80783606
2144 -0.79951173
2142 -0.74469495
2140 -0.65815741
2138 -0.56877619
2136 -0.47954145
2134 -0.43341032
2132 -0.40501413
2130 -0.37332055
2128 -0.33995599
2126 -0.33344364
2124 -0.33340698
2122 -0.41580218
2120 -0.51047719
2118 -0.58948904
2116 -0.66219455
2114 -0.70325238
2112 -0.74359405
2110 -0.79978585
2108 -0.8474015
2106 -0.86232656
2104 -0.85509735
2102 -0.81011587
2100 -0.78123879
2098 -0.78904748
2096 -0.81858855
2094 -0.87005037
2092 -0.87620723
2090 -0.83214986
2088 -0.74110895
2086 -0.61618453
2084 -0.5026713
2082 -0.39940518
2080 -0.33549279
2078 -0.29214874
2076 -0.31356901
2074 -0.3611075
2072 -0.40761241
2070 -0.45325595
2068 -0.40338618
2066 -0.33223736
2064 -0.29882365
2062 -0.28872499
2060 -0.42625058
2058 -0.60093141
2056 -0.81944168
2054 -1.0230911
2052 -1.1465946
2050 -1.198289
2048 -1.1107537
2046 -0.95859355
2044 -0.73655123
2042 -0.55916667
2040 -0.46538395
2038 -0.47363633
2036 -0.58030403
2034 -0.68943781
2032 -0.78427905
2030 -0.81932938
2028 -0.8124311
2026 -0.76832479
2024 -0.70704573
2022 -0.58912969
2020 -0.44443446
2018 -0.31180167
2016 -0.183548
2014 -0.23385012
2012 -0.34067976
2010 -0.6173321
2008 -0.93329072
2006 -1.1999049
2004 -1.4306715
2002 -1.509437
2000 -1.5401378
1998 -1.5457065
1996 -1.5493715
1994 -1.5762814
1992 -1.6003881
1990 -1.5904092
1988 -1.577564
1986 -1.554935
1984 -1.5296937
1982 -1.5044744
1980 -1.4586921
1978 -1.3978462
1976 -1.3212999
1974 -1.2377579
1972 -1.089718
1970 -0.89694238
1968 -0.65671462
1966 -0.390903
1964 -0.3006402
1962 -0.30014896
1960 -0.4826088
1958 -0.73828918
1956 -0.93596286
1954 -1.1046169
1952 -1.1569668
1950 -1.1646396
1948 -1.1651485
1946 -1.179075
1944 -1.2647954
1942 -1.3948816
1940 -1.5444654
1938 -1.6817713
1936 -1.7576942
1934 -1.789946
1932 -1.791808
1930 -1.7496047
1928 -1.6718794
1926 -1.4736115
1924 -1.1435138
1922 -0.73395538
1920 -0.26450813
1918 0.014406521
1916 0.12873794
1914 0.074392565
1912 -0.082383782
1910 -0.21398145
1908 -0.32286561
1906 -0.46406057
1904 -0.62145722
1902 -0.7620405
1900 -0.88795596
1898 -0.85886389
1896 -0.76169431
1894 -0.61722624
1892 -0.47480613
1890 -0.44096261
1888 -0.48979697
1886 -0.68190104
1884 -0.95448452
1882 -1.3025479
1880 -1.6425612
1878 -1.9160899
1876 -2.04177
1874 -1.9715378
1872 -1.6989149
1870 -1.2394767
1868 -0.84161901
1866 -0.55183363
1864 -0.57180649
1862 -0.84861779
1860 -1.1847361
1858 -1.5293754
1856 -1.7480772
1854 -1.8850675
1852 -1.83428
1850 -1.6840936
1848 -1.307744
1846 -0.82702321
1844 -0.52826029
1842 -0.35799417
1840 -0.61056572
1838 -1.0490816
1836 -1.4892114
1834 -1.861226
1832 -1.9819263
1830 -1.9265906
1828 -1.6097772
1826 -1.2501392
1824 -0.99682307
1822 -0.93156523
1820 -1.178201
1818 -1.5145673
1816 -1.8386915
1814 -2.002795
1812 -1.9622852
1810 -1.8148267
1808 -1.6095148
1806 -1.39581
1804 -1.1873134
1802 -0.8821128
1800 -0.50428885
1798 -0.057227485
1796 0.42691928
1794 0.7308346
1792 0.92467558
1790 0.8500424
1788 0.6417833
1786 0.44196001
1784 0.27795926
1782 0.25004914
1780 0.33837393
1778 0.61804533
1776 1.006698
1774 1.4177626
1772 1.6780808
1770 1.5300903
1768 1.1186182
1766 0.60168505
1764 0.2186958
1762 0.13956395
1760 0.059817601
1758 -0.10954173
1756 -0.25057998
1754 -0.35816985
1752 -0.072219551
1750 0.65558231
1748 1.6569545
1746 2.8236499
1744 3.4452052
1742 3.5503981
1740 3.331408
1738 2.9136817
1736 2.7435799
1734 2.7576392
1732 2.5499618
1730 2.1704142
1728 1.3949319
1726 0.43923974
1724 -0.17313398
1722 -0.40232459
1720 0.12014934
1718 1.2524583
1716 2.8948758
1714 4.5580826
1712 5.6775484
1710 6.4832697
1708 7.142518
1706 8.0896749
1704 9.6400681
1702 11.985366
1700 15.19918
1698 18.781723
1696 22.511715
1694 25.69186
1692 28.108543
1690 30.340906
1688 32.546299
1686 35.559803
1684 39.390854
1682 43.705326
1680 48.373161
1678 52.342739
1676 55.702213
1674 59.138
1672 62.671368
1670 66.653427
1668 70.92585
1666 75.027649
1664 79.00518
1662 82.854897
1660 86.575409
1658 90.078987
1656 93.355545
1654 96.342377
1652 98.912903
1650 100.97943
1648 101.83148
1646 101.08929
1644 99.203819
1642 96.594513
1640 93.610924
1638 90.431541
1636 86.569099
1634 81.938614
1632 77.083923
1630 72.246269
1628 67.938042
1626 64.166458
1624 60.364597
1622 56.436272
1620 52.375237
1618 48.204578
1616 44.119972
1614 40.171112
1612 36.574287
1610 33.382023
1608 30.668348
1606 28.408443
1604 26.461632
1602 24.82081
1600 23.428989
1598 22.299023
1596 21.3965
1594 20.703379
1592 20.177252
1590 19.779039
1588 19.465036
1586 19.289572
1584 19.258829
1582 19.48411
1580 19.985998
1578 20.881058
1576 22.201857
1574 23.779343
1572 25.590908
1570 27.220001
1568 28.59104
1566 29.736193
1564 30.650698
1562 31.789728
1560 33.263538
1558 35.756474
1556 39.183643
1554 42.52116
1552 45.624176
1550 47.806343
1548 49.268089
1546 50.725605
1544 52.182171
1542 53.685532
1540 54.725719
1538 54.8204
1536 54.015171
1534 52.507347
1532 50.887276
1530 49.55891
1528 48.545589
1526 47.85405
1524 47.25042
1522 46.647041
1520 45.45573
1518 43.493774
1516 41.171185
1514 38.563114
1512 36.276321
1510 34.366276
1508 32.094234
1506 29.285528
1504 26.19997
1502 22.922052
1500 20.168308
1498 18.02416
1496 16.024
1494 14.148233
1492 12.2913
1490 10.420578
1488 8.5279922
1486 6.5962133
1484 4.5976019
1482 2.7594371
1480 1.3022594
1478 0.35746062
1476 0.035176829
1474 0.25199151
1472 1.0288815
1470 1.863309
1468 2.4129143
1466 2.8219728
1464 3.0426657
1462 3.3758473
1460 3.949194
1458 4.6339617
1456 5.4611602
1454 5.9862533
1452 6.0911703
1450 5.9288316
1448 5.4266791
1446 4.8828535
1444 4.287806
1442 3.7873571
1440 3.4178469
1438 3.2567263
1436 3.2736299
1434 3.305733
1432 3.2534223
1430 2.9559879
1428 2.5118458
1426 2.1023672
1424 1.8553514
1422 1.9218726
1420 2.2024069
1418 2.6204474
1416 2.9961741
1414 3.1595769
1412 3.2640665
1410 3.3154428
1408 3.4234126
1406 3.6427186
1404 3.9055593
1402 4.2541265
1400 4.635788
1398 5.0822682
1396 5.4854002
1394 5.820715
1392 6.0006762
1390 5.9929738
1388 5.8924646
1386 5.6670151
1384 5.3759956
1382 5.0020075
1380 4.6402273
1378 4.2980361
1376 4.0472403
1374 3.8370347
1372 3.6109219
1370 3.3499439
1368 3.0080955
1366 2.6408958
1364 2.2660244
1362 1.8644322
1360 1.4433525
1358 1.0173848
1356 0.61581373
1354 0.30225217
1352 0.11258919
1350 0.0041902396
1348 -0.018566869
1346 -0.014273286
1344 0.1280432
1342 0.3624126
1340 0.7470839
1338 1.0669956
1336 1.25368
1334 1.2378594
1332 0.96632677
1330 0.69468492
1328 0.46485177
1326 0.39409035
1324 0.52576351
1322 0.82779956
1320 1.2969675
1318 1.8160779
1316 2.3236899
1314 2.6725712
1312 2.8633788
1310 2.8764536
1308 2.7828465
1306 2.6280265
1304 2.4469039
1302 2.2684159
1300 2.1043947
1298 2.0067174
1296 1.9500571
1294 1.9757303
1292 2.0248275
1290 2.1000917
1288 2.1667161
1286 2.2085943
1284 2.2352521
1282 2.2403753
1280 2.2448459
1278 2.2563488
1276 2.2960014
1274 2.380136
1272 2.5071144
1270 2.6920249
1268 2.8974562
1266 3.1426401
1264 3.4105344
1262 3.7254562
1260 4.0799761
1258 4.4726615
1256 4.8683286
1254 5.2639594
1252 5.6477947
1250 6.0394411
1248 6.479506
1246 6.9563498
1244 7.4937782
1242 8.0263863
1240 8.4789953
1238 8.8552561
1236 9.0494099
1234 9.1705103
1232 9.1567364
1230 9.0880165
1228 8.8804455
1226 8.6198664
1224 8.2153778
1222 7.77987
1220 7.2769847
1218 6.7808857
1216 6.3032947
1214 5.8468051
1212 5.4152355
1210 4.948319
1208 4.4263248
1206 3.8570685
1204 3.248594
1202 2.6824353
1200 2.1718755
1198 1.7449583
1196 1.3866786
1194 1.0733013
1192 0.79138219
1190 0.53511572
1188 0.29871601
1186 0.099863715
1184 -0.080129027
1182 -0.23192778
1180 -0.35832673
1178 -0.41323948
1176 -0.422214
1174 -0.28799286
1172 -0.13120043
1170 0.084717989
1168 0.27869755
1166 0.41215423
1164 0.53756505
1162 0.64562929
1160 0.7678616
1158 0.9114638
1156 1.0268258
1154 1.0827813
1152 1.0544919
1150 0.90767527
1148 0.70446777
1146 0.44985643
1144 0.2308671
1142 0.06197584
1140 -0.0027256829
1138 0.018125802
1136 0.13218229
1134 0.30218911
1132 0.52971566
1130 0.78133327
1128 1.0403169
1126 1.312
1124 1.6352663
1122 1.9704099
1120 2.3214481
1118 2.6528285
1116 2.8721557
1114 3.0679812
1112 3.1738794
1110 3.2906578
1108 3.4444249
1106 3.62272
1104 3.8597081
1102 4.0842638
1100 4.2793975
1098 4.4258895
1096 4.5016999
1094 4.601686
1092 4.7556081
1090 5.0845642
1088 5.5940599
1086 6.1876321
1084 6.8212838
1082 7.2925816
1080 7.6469135
1078 7.8609171
1076 8.0027046
1074 8.0814648
1072 8.1330233
1070 8.1284485
1068 8.1230793
1066 8.1925659
1064 8.2857075
1062 8.4792709
1060 8.6682634
1058 8.7966194
1056 8.8942289
1054 8.8559074
1052 8.7928991
1050 8.6506777
1048 8.5116987
1046 8.3841715
1044 8.289834
1042 8.2614183
1040 8.2582588
1038 8.2902126
1036 8.2957697
1034 8.2633295
1032 8.1582594
1030 7.9811745
1028 7.7427301
1026 7.4582686
1024 7.142364
1022 6.804018
1020 6.3921638
1018 5.9474144
1016 5.44066
1014 4.9208932
1012 4.4427667
1010 3.9766459
1008 3.572948
1006 3.1813235
1004 2.874603
1002 2.5819571
1000 2.3817897
998 2.1730261
996 1.9249572
994 1.648006
992 1.2856599
990 0.94501615
988 0.65683264
986 0.40599716
984 0.21541411
982 -0.002268523
980 -0.25473559
978 -0.45425069
976 -0.58699602
974 -0.52389908
972 -0.30052939
970 0.003990978
968 0.34867555
966 0.55617052
964 0.69129467
962 0.62617493
960 0.49327847
958 0.26274845
956 0.019169331
954 -0.073243096
952 -0.14031336
950 -0.044668853
948 0.049065348
946 0.019499786
944 0.00086969137
942 0.030160323
940 0.1904577
938 0.80177259
936 1.4832373
934 2.3660262
932 3.1447537
930 3.6980424
928 4.0798826
926 4.1874418
924 4.2535982
922 4.2709336
920 4.4200749
918 4.6932697
916 5.0223842
914 5.3898864
912 5.6131487
910 5.757412
908 5.918386
906 6.0810099
904 6.4041634
902 6.7642517
900 7.0093441
898 7.2346258
896 7.6020999
