##TITLE=Methyl Ethyl Ketone
##JCAMP-DX=4.24
##DATA TYPE=INFRARED SPECTRUM
##XUNITS=cm-1
##YUNITS=Absorbance
##FIRSTX=900
##LASTX=2300
##XYDATA=(X++(Y..Y))
2296 -0.012868
2294 -0.013136615
2292 -0.013404234
2290 -0.013671852
2288 -0.013939469
2286 -0.014207087
2284 -0.014474702
2282 -0.014742319
2280 -0.015009937
2278 -0.015277554
2276 -0.015545172
2274 -0.015812788
2272 -0.016081387
2270 -0.016349023
2268 -0.016616639
2266 -0.016884258
2264 -0.017151874
2262 -0.017419493
2260 -0.017687108
2258 -0.017954726
2256 -0.018222343
2254 -0.018489961
2252 -0.018757578
2250 -0.019026162
2248 -0.019293811
2246 -0.019561429
2244 -0.00072692288
2242 0.032630883
2240 0.070273116
2238 0.11723574
2236 0.16557357
2234 0.20063171
2232 0.2341572
2230 0.25468045
2228 0.27752188
2226 0.32398349
2224 0.37168324
2222 0.41968811
2220 0.45323998
2218 0.4428198
2216 0.41842487
2214 0.36891124
2212 0.32818842
2210 0.30421162
2208 0.29361603
2206 0.29839909
2204 0.31170052
2202 0.33224666
2200 0.37889948
2198 0.44470739
2196 0.5308736
2194 0.62805563
2192 0.70445269
2190 0.77143806
2188 0.8014425
2186 0.81962734
2184 0.81064081
2182 0.79556644
2180 0.76272357
2178 0.7273072
2176 0.69531798
2174 0.66576201
2172 0.66035634
2170 0.66211843
2168 0.69192123
2166 0.72901762
2164 0.78277713
2162 0.8355664
2160 0.88161683
2158 0.91243285
2156 0.91563499
2154 0.9008795
2152 0.86422145
2150 0.83015877
2148 0.80159318
2146 0.78196925
2144 0.76976311
2142 0.75361252
2140 0.73420292
2138 0.72767961
2136 0.72833455
2134 0.75412548
2132 0.79013687
2130 0.82850194
2128 0.86729437
2126 0.88990045
2124 0.90874749
2122 0.91643441
2120 0.92311013
2118 0.94325888
2116 0.96886659
2114 1.0206629
2112 1.0779297
2110 1.142558
2108 1.2001263
2106 1.2333694
2104 1.2486171
2102 1.2322239
2100 1.203758
2098 1.1629391
2096 1.1290429
2094 1.1067723
2092 1.1045688
2090 1.1215013
2088 1.1402366
2086 1.1579599
2084 1.1604303
2082 1.1527756
2080 1.1503851
2078 1.1515509
2076 1.1570257
2074 1.1641425
2072 1.157488
2070 1.1465242
2068 1.1521505
2066 1.1627929
2064 1.2053132
2062 1.2532939
2060 1.2913146
2058 1.3203081
2056 1.3104172
2054 1.2863079
2052 1.2393757
2050 1.1932247
2048 1.1616017
2046 1.1394964
2044 1.130962
2042 1.1205683
2040 1.1025656
2038 1.0850513
2036 1.0690343
2034 1.0637428
2032 1.0686367
2030 1.075003
2028 1.0816175
2026 1.0924243
2024 1.1063828
2022 1.1414518
2020 1.1874357
2018 1.2278954
2016 1.26512
2014 1.2581258
2012 1.2357671
2010 1.1808699
2008 1.1170863
2006 1.0483207
2004 0.98020446
2002 0.92713302
2000 0.88442492
1998 0.87253845
1996 0.874695
1994 0.89740157
1992 0.92373514
1990 0.94432652
1988 0.96363419
1986 0.97996002
1984 0.99730861
1982 1.0172021
1980 1.0188577
1978 1.0005412
1976 0.96882659
1974 0.92948014
1972 0.92716622
1970 0.95493788
1968 1.007652
1966 1.0725307
1964 1.0965389
1962 1.0971965
1960 1.070304
1958 1.0323398
1956 1.0016394
1954 0.97359198
1952 0.94726944
1950 0.92058027
1948 0.89636916
1946 0.87248003
1944 0.84420246
1942 0.81632555
1940 0.78519917
1938 0.75576508
1936 0.73114425
1934 0.70595926
1932 0.68009657
1930 0.65500647
1928 0.63490236
1926 0.63319886
1924 0.65581518
1922 0.70197707
1920 0.76485139
1918 0.81522661
1916 0.84729213
1914 0.8494764
1912 0.83225727
1910 0.79773861
1908 0.75547582
1906 0.70320708
1904 0.64554721
1902 0.60604638
1900 0.57434976
1898 0.57181132
1896 0.57983571
1894 0.58422559
1892 0.58333856
1890 0.5516569
1888 0.50307834
1886 0.42716748
1884 0.34443307
1882 0.27079558
1880 0.21305811
1878 0.18729228
1876 0.18682401
1874 0.21823914
1872 0.27486056
1870 0.35689083
1868 0.42948136
1866 0.47363621
1864 0.4592036
1862 0.38550502
1860 0.28445452
1858 0.17507094
1856 0.081633031
1854 0.0047788247
1852 -0.042051084
1850 -0.068258509
1848 -0.070093639
1846 -0.056342464
1844 -0.059275363
1842 -0.069486901
1840 -0.096354276
1838 -0.13038035
1836 -0.14082986
1834 -0.13866711
1832 -0.10975366
1830 -0.066242173
1828 -0.018676221
1826 0.020427829
1824 0.018654965
1822 -0.020472709
1820 -0.10224161
1818 -0.19306961
1816 -0.26379514
1814 -0.30206186
1812 -0.30086672
1810 -0.28439614
1808 -0.2671968
1806 -0.25476098
1804 -0.24830711
1802 -0.24923621
1800 -0.252664
1798 -0.25843176
1796 -0.2647157
1794 -0.24263662
1792 -0.2040392
1790 -0.16881521
1788 -0.14165503
1786 -0.14545001
1784 -0.16729274
1782 -0.16466969
1780 -0.14329672
1778 -0.075243451
1776 0.022268541
1774 0.14063303
1772 0.25676113
1770 0.31620339
1768 0.32288367
1766 0.25903437
1764 0.16336679
1762 0.077949435
1760 0.018143218
1758 -0.09106414
1756 -0.19636101
1754 -0.23882651
1752 -0.19003794
1750 -0.052484941
1748 0.11072926
1746 0.26936534
1744 0.33122268
1742 0.29501891
1740 0.22771151
1738 0.15354802
1736 0.171
1734 0.26445067
1732 0.32411659
1730 0.3475441
1728 0.23916458
1726 0.046135031
1724 -0.078573018
1722 -0.12627779
1720 0.015447721
1718 0.3161231
1716 0.79792058
1714 1.3710361
1712 1.8724731
1710 2.331706
1708 2.7970998
1706 3.4205022
1704 4.3515749
1702 5.8385983
1700 7.9999256
1698 11.02991
1696 14.881857
1694 18.817301
1692 22.494995
1690 25.778217
1688 28.720469
1686 32.148655
1684 36.153534
1682 40.944046
1680 46.351719
1678 51.122612
1676 55.286003
1674 59.223381
1672 63.065727
1670 67.534988
1668 72.466644
1666 77.320099
1664 81.979744
1662 86.058243
1660 89.584152
1658 92.589043
1656 95.121201
1654 97.272369
1652 98.979561
1650 100.1898
1648 100.442
1646 99.355354
1644 97.281334
1642 94.629379
1640 91.572708
1638 88.285492
1636 84.476128
1634 80.084648
1632 75.658546
1630 71.385361
1628 67.384415
1626 63.649803
1624 59.740681
1622 55.61552
1620 51.509022
1618 47.45142
1616 43.665771
1614 40.169079
1612 37.071388
1610 34.377171
1608 32.044937
1606 30.06175
1604 28.324593
1602 26.857079
1600 25.658583
1598 24.735817
1596 24.056
1594 23.605026
1592 23.331011
1590 23.211752
1588 23.202265
1586 23.287563
1584 23.448847
1582 23.681751
1580 23.981276
1578 24.398878
1576 24.949572
1574 25.675781
1572 26.576023
1570 27.603939
1568 28.743999
1566 29.923943
1564 31.139637
1562 32.535767
1560 34.20295
1558 36.726986
1556 40.17437
1554 43.957359
1552 47.857716
1550 50.930664
1548 53.195217
1546 55.134285
1544 56.738823
1542 58.098637
1540 59.01556
1538 59.215981
1536 58.708256
1534 57.629547
1532 56.215099
1530 54.780338
1528 53.328499
1526 51.861301
1524 50.259235
1522 48.439476
1520 46.331066
1518 43.865185
1516 41.382244
1514 38.994427
1512 36.702999
1510 34.542072
1508 31.959311
1506 28.819857
1504 25.689121
1502 22.624325
1500 20.04616
1498 18.00465
1496 15.974571
1494 13.943794
1492 11.849437
1490 9.7017612
1488 7.5553112
1486 5.4852772
1484 3.6291239
1482 2.0844831
1480 0.95888078
1478 0.27582148
1476 0.052145913
1474 0.37559539
1472 1.186024
1470 2.1799629
1468 3.1627507
1466 3.9863894
1464 4.5527458
1462 5.0413017
1460 5.5212512
1458 6.0300159
1456 6.58182
1454 7.0104628
1452 7.223608
1450 7.2811837
1448 7.1159182
1446 6.9085855
1444 6.6478148
1442 6.3887219
1440 6.1314964
1438 5.8545513
1436 5.5376887
1434 5.1183157
1432 4.5999084
1430 4.0594444
1428 3.5395341
1426 3.1507266
1424 2.9115274
1422 2.8260589
1420 2.8804359
1418 3.0342765
1416 3.2418315
1414 3.4520988
1412 3.650492
1410 3.8397417
1408 4.0437646
1406 4.2887964
1404 4.5756307
1402 4.9159756
1400 5.2850199
1398 5.6880012
1396 6.0812855
1394 6.4437399
1392 6.7398796
1390 6.9035587
1388 6.9540129
1386 6.8195353
1384 6.5680127
1382 6.1588526
1380 5.6997514
1378 5.1890373
1376 4.6797829
1374 4.1897063
1372 3.7361579
1370 3.3284113
1368 2.9709172
1366 2.6247535
1364 2.2283964
1362 1.7819353
1360 1.27423
1358 0.78470302
1356 0.40871131
1354 0.14029127
1352 0.038070172
1350 0.026429608
1348 0.11203974
1346 0.23777536
1344 0.43273598
1342 0.65730822
1340 0.93180138
1338 1.191052
1336 1.4086685
1334 1.5862768
1332 1.6792858
1330 1.777467
1328 1.8902982
1326 2.0504351
1324 2.2903111
1322 2.5795348
1320 2.9326773
1318 3.2967877
1316 3.6595199
1314 3.972456
1312 4.2239943
1310 4.4173279
1308 4.5580673
1306 4.6708655
1304 4.7553663
1302 4.8039083
1300 4.8217721
1298 4.7915659
1296 4.7444286
1294 4.6889095
1292 4.6420355
1290 4.6213126
1288 4.611196
1286 4.6176958
1284 4.6298308
1282 4.6514206
1280 4.6746588
1278 4.6999578
1276 4.7218671
1274 4.7401681
1272 4.7602606
1270 4.7879367
1268 4.8296971
1266 4.8935466
1264 4.9802408
1262 5.0928497
1260 5.2165403
1258 5.3483834
1256 5.4724941
1254 5.5902185
1252 5.7067719
1250 5.8239222
1248 5.9464302
1246 6.0659752
1244 6.1635714
1242 6.2377496
1240 6.2594447
1238 6.2487993
1236 6.1798229
1234 6.0809784
1232 5.9213362
1230 5.729135
1228 5.4508958
1226 5.1344299
1224 4.7141085
1222 4.2675691
1220 3.7605517
1218 3.259984
1216 2.7771742
1214 2.3304825
1212 1.948246
1210 1.6040133
1208 1.3127
1206 1.0380955
1204 0.78615803
1202 0.55838561
1200 0.36213064
1198 0.21133962
1196 0.096976712
1194 -0.0012577921
1192 -0.089933805
1190 -0.17693931
1188 -0.25349745
1186 -0.29009858
1184 -0.29691559
1182 -0.23526409
1180 -0.13375989
1178 0.067796528
1176 0.30424401
1174 0.62708139
1172 0.94747877
1170 1.2364783
1168 1.4917451
1166 1.6405572
1164 1.7500671
1162 1.7609849
1160 1.736676
1158 1.6421998
1156 1.5328743
1154 1.3991554
1152 1.257424
1150 1.1009929
1148 0.91690081
1146 0.70381141
1144 0.48812199
1142 0.2805962
1140 0.1304895
1138 0.029762154
1136 -0.00966556
1134 -0.0085398518
1132 0.074487939
1130 0.20299175
1128 0.40640664
1126 0.63117963
1124 0.86150885
1122 1.0746616
1120 1.1915281
1118 1.283277
1116 1.28795
1114 1.2921301
1112 1.3007903
1110 1.3192053
1108 1.3686591
1106 1.422165
1104 1.4842092
1102 1.538065
1100 1.5746157
1098 1.5963279
1096 1.5944144
1094 1.5818653
1092 1.55756
1090 1.5430517
1088 1.5433235
1086 1.5840036
1084 1.6596851
1082 1.7657008
1080 1.8844925
1078 1.966315
1076 2.020767
1074 1.9973699
1072 1.943072
1070 1.8502851
1068 1.7497531
1066 1.6551857
1064 1.5658081
1062 1.5096802
1060 1.4634145
1058 1.469772
1056 1.4806629
1054 1.5106037
1052 1.5364486
1050 1.549287
1048 1.5604383
1046 1.5680428
1044 1.5842299
1042 1.6162586
1040 1.6541109
1038 1.6995006
1036 1.7414
1034 1.7794738
1032 1.8188829
1030 1.8592691
1028 1.8940229
1026 1.9231213
1024 1.9330726
1022 1.931018
1020 1.9105289
1018 1.8816317
1016 1.8415971
1014 1.7956774
1012 1.7191141
1010 1.6294407
1008 1.450256
1006 1.25893
1004 1.0117848
1002 0.77333945
1000 0.59799027
998 0.43893075
996 0.35119998
994 0.26535782
992 0.18470211
990 0.098995507
988 0.0022618398
986 -0.084800057
984 -0.15349549
982 -0.20200457
980 -0.2222172
978 -0.2231065
976 -0.20316029
974 -0.16363126
972 -0.10879948
970 -0.057004426
968 -0.0086160582
966 0.0051178802
964 0.0027003745
962 -0.01168805
960 -0.029230982
958 -0.027231975
956 -0.021831799
954 -0.029844899
952 -0.039888516
950 -0.058408048
948 -0.072757944
946 -0.023213249
944 0.00097450241
942 0.030244306
940 0.085394502
938 0.1342743
936 0.18082315
934 0.22069836
932 0.25762993
930 0.28876457
928 0.3390089
926 0.42042643
924 0.53191698
922 0.67918849
920 0.77997828
918 0.83647782
916 0.82548028
914 0.76684129
912 0.71261209
910 0.66126168
908 0.61151671
906 0.56344324
904 0.52617735
902 0.49272531
900 0.50796676
898 0.53124034
896 0.51749998
