Image.
>Pix99999.
  .
5555
5555
2300
900
5555
2
1
0
701
5555
1.1070000e-003
1.1299672e-003
1.1530340e-003
1.1761010e-003
1.1990686e-003
1.2220357e-003
1.2451020e-003
1.2681690e-003
1.2911372e-003
1.3142030e-003
1.3372700e-003
1.3602385e-003
1.3832058e-003
1.4063691e-003
1.4294379e-003
1.4523093e-003
1.4754697e-003
1.4984414e-003
1.5215060e-003
1.5444757e-003
1.5675400e-003
1.5906070e-003
1.6135771e-003
1.6367377e-003
1.6596148e-003
1.6826750e-003
6.2530002e-005
4.8492536e-002
1.0756952e-001
2.2296558e-001
3.4651658e-001
4.7396073e-001
6.0007948e-001
6.9030172e-001
7.6981413e-001
7.7701354e-001
7.6482064e-001
6.8036574e-001
5.7517952e-001
4.1840929e-001
2.5790742e-001
9.5629588e-002
-3.2674342e-002
-1.0533091e-001
-1.4294292e-001
-1.4110029e-001
-1.3776489e-001
-1.3533913e-001
-1.1899177e-001
-9.2161760e-002
-3.7512358e-002
3.2719675e-002
5.1598355e-002
4.7453452e-002
-2.8882846e-002
-1.2817433e-001
-1.6725120e-001
-1.9212513e-001
-1.3221036e-001
-5.9738062e-002
1.1674228e-002
8.2988255e-002
1.5460518e-001
2.2789960e-001
3.1044024e-001
3.9512366e-001
4.8413482e-001
5.6529361e-001
6.2530154e-001
6.6178590e-001
6.5787899e-001
6.5589285e-001
6.6273975e-001
6.9463921e-001
7.5370568e-001
8.1378675e-001
8.7223381e-001
9.2937118e-001
9.8562324e-001
1.0140774e+000
1.0275286e+000
9.6851212e-001
8.7989038e-001
7.7518445e-001
6.6626799e-001
6.2231094e-001
5.9342861e-001
6.5213823e-001
7.2575331e-001
8.2126462e-001
9.1074097e-001
9.3283451e-001
9.2333096e-001
8.1782699e-001
6.7406267e-001
4.5706049e-001
2.5150084e-001
9.4700247e-002
2.7012520e-002
9.6650437e-002
2.4205713e-001
4.5976916e-001
6.7038167e-001
8.6269724e-001
9.7656763e-001
1.0284840e+000
1.0251565e+000
9.9137801e-001
9.8686010e-001
9.9950939e-001
1.0165499e+000
1.0344458e+000
1.0267160e+000
1.0104443e+000
1.0289634e+000
1.0547450e+000
1.0449840e+000
1.0158817e+000
8.6900771e-001
7.0308441e-001
5.6054598e-001
4.6082246e-001
4.9560407e-001
5.7588619e-001
7.0180571e-001
8.0431426e-001
8.4231818e-001
8.2593000e-001
7.4892199e-001
6.4754498e-001
5.3403020e-001
4.1751513e-001
2.9968044e-001
2.0045429e-001
1.1408249e-001
1.1837030e-001
1.7795189e-001
3.6489791e-001
6.1294425e-001
8.3570498e-001
1.0458360e+000
1.0686141e+000
1.0309577e+000
9.2215699e-001
7.9907793e-001
7.1583492e-001
6.4298278e-001
5.6424820e-001
4.8010275e-001
3.6928159e-001
2.5527859e-001
1.4587227e-001
5.6075454e-002
1.7105613e-002
1.3832279e-002
6.3542075e-002
1.3094765e-001
2.0514895e-001
2.4951002e-001
2.5338387e-001
2.5618371e-001
2.6320660e-001
4.0556782e-001
6.4864826e-001
9.3035078e-001
1.2252750e+000
1.2937217e+000
1.2446971e+000
1.0473129e+000
7.9270315e-001
5.4299599e-001
2.9977441e-001
1.0516381e-001
-5.7380755e-002
-1.0321897e-001
-1.0076425e-001
-3.1074494e-002
4.2970397e-002
9.4279148e-002
1.2161908e-001
1.1307172e-001
8.5700572e-002
2.8992599e-002
-3.7460044e-002
-1.1921018e-001
-1.3503300e-001
-6.7297459e-002
1.4472955e-001
4.9605861e-001
8.1878161e-001
1.0981064e+000
1.1942506e+000
1.1572429e+000
1.0296247e+000
8.5619795e-001
6.2669927e-001
3.7260520e-001
1.3810100e-001
-8.2174465e-002
-1.1455993e-001
-6.1817855e-002
1.1366297e-001
3.1697080e-001
4.0420720e-001
3.9838967e-001
2.0498580e-001
-7.0659742e-002
-3.7935331e-001
-6.5579128e-001
-8.3947474e-001
-9.1892302e-001
-8.8721061e-001
-7.5772887e-001
-5.4914778e-001
-3.8316157e-001
-2.7506459e-001
-3.1313130e-001
-4.6439230e-001
-6.2432534e-001
-7.7520448e-001
-8.7823713e-001
-9.5666105e-001
-9.7885948e-001
-9.7660255e-001
-8.5928124e-001
-6.8899286e-001
-5.8421433e-001
-5.3259218e-001
-6.8635774e-001
-9.2581391e-001
-1.1394343e+000
-1.2943720e+000
-1.2736840e+000
-1.1424958e+000
-8.7571073e-001
-6.1264867e-001
-4.6555144e-001
-4.5991892e-001
-6.5676802e-001
-9.0797931e-001
-1.1437966e+000
-1.2802635e+000
-1.2939972e+000
-1.2453533e+000
-1.1639686e+000
-1.0783399e+000
-9.9583721e-001
-8.8482523e-001
-7.5777626e-001
-5.6997383e-001
-3.3975714e-001
-6.6476718e-002
2.4632731e-001
4.4819340e-001
5.9390730e-001
6.6191262e-001
7.0255858e-001
8.0680472e-001
9.6545970e-001
1.2016680e+000
1.4708543e+000
1.6998558e+000
1.8017156e+000
1.6327102e+000
1.2721474e+000
7.9865766e-001
3.9324680e-001
1.8900901e-001
5.4411657e-002
-1.2782228e-001
-2.3137900e-001
-1.9998412e-001
1.4254543e-001
7.9191369e-001
1.5485218e+000
2.3301287e+000
2.6302605e+000
2.4932368e+000
2.1679423e+000
1.7508850e+000
1.7081200e+000
1.9451393e+000
2.0853143e+000
2.1250229e+000
1.6516399e+000
8.8308257e-001
2.6798540e-001
-1.2381092e-001
9.6853212e-002
8.4161675e-001
2.0236187e+000
3.2449961e+000
4.0422935e+000
4.6067996e+000
5.0980763e+000
5.8918548e+000
7.2776947e+000
9.4430161e+000
1.2452431e+001
1.5970502e+001
1.9802572e+001
2.3296799e+001
2.6221943e+001
2.8948286e+001
3.1595778e+001
3.4930019e+001
3.8974552e+001
4.3510384e+001
4.8407600e+001
5.2641632e+001
5.6289330e+001
6.0096184e+001
6.4091866e+001
6.8734680e+001
7.3808342e+001
7.8612503e+001
8.3150307e+001
8.7293465e+001
9.1096886e+001
9.4605942e+001
9.7838860e+001
1.0079967e+002
1.0330040e+002
1.0515863e+002
1.0563977e+002
1.0427679e+002
1.0165714e+002
9.8348106e+001
9.4792336e+001
9.1240250e+001
8.7257011e+001
8.2731232e+001
7.8026848e+001
7.3308899e+001
6.8878464e+001
6.4741455e+001
6.0499481e+001
5.6098099e+001
5.1760006e+001
4.7504993e+001
4.3433254e+001
3.9572731e+001
3.6037720e+001
3.2874218e+001
3.0158651e+001
2.7869694e+001
2.5880346e+001
2.4196657e+001
2.2783972e+001
2.1654030e+001
2.0772499e+001
2.0120312e+001
1.9645588e+001
1.9313217e+001
1.9077568e+001
1.8982014e+001
1.9032108e+001
1.9334900e+001
1.9916967e+001
2.0879492e+001
2.2247143e+001
2.3811600e+001
2.5523483e+001
2.7029823e+001
2.8264040e+001
2.9346985e+001
3.0293011e+001
3.1539541e+001
3.3204178e+001
3.5924614e+001
3.9652100e+001
4.3353691e+001
4.6850918e+001
4.9381420e+001
5.1092110e+001
5.2671963e+001
5.4118919e+001
5.5500858e+001
5.6363380e+001
5.6233917e+001
5.5170284e+001
5.3397633e+001
5.1502064e+001
4.9965546e+001
4.8758858e+001
4.7845100e+001
4.6925804e+001
4.5851681e+001
4.4342064e+001
4.2320114e+001
4.0214027e+001
3.8140991e+001
3.6195683e+001
3.4342258e+001
3.1834009e+001
2.8447964e+001
2.4854582e+001
2.1157236e+001
1.8191368e+001
1.6074211e+001
1.4166000e+001
1.2452440e+001
1.0745262e+001
9.0219488e+000
7.2773733e+000
5.5143180e+000
3.7431381e+000
2.1488969e+000
9.2304689e-001
1.7615403e-001
2.6040152e-004
3.8930762e-001
1.3256264e+000
2.2784209e+000
2.9702210e+000
3.4871702e+000
3.7828269e+000
4.1644607e+000
4.7693253e+000
5.5183325e+000
6.4541602e+000
7.1123657e+000
7.3510170e+000
7.3126674e+000
6.9108329e+000
6.4820929e+000
6.0196986e+000
5.6128778e+000
5.2785001e+000
5.0507770e+000
4.9014754e+000
4.7324557e+000
4.4827118e+000
4.0785127e+000
3.5977101e+000
3.1838515e+000
2.9385903e+000
2.9795885e+000
3.2355177e+000
3.6413255e+000
4.0331631e+000
4.2490039e+000
4.3961768e+000
4.4795351e+000
4.6006651e+000
4.8152757e+000
5.0743823e+000
5.4099026e+000
5.7707801e+000
6.1746202e+000
6.5196285e+000
6.7604799e+000
6.8321028e+000
6.6653342e+000
6.3924923e+000
5.9780102e+000
5.5505853e+000
5.1192789e+000
4.7534337e+000
4.4656453e+000
4.2437859e+000
4.0561094e+000
3.8607740e+000
3.6448052e+000
3.3761399e+000
3.0708172e+000
2.7068787e+000
2.2878115e+000
1.8373863e+000
1.3820239e+000
9.5944899e-001
5.9302044e-001
2.9125208e-001
6.6671379e-002
-4.2413741e-002
-6.9625169e-002
1.3453460e-001
4.3073589e-001
8.6026943e-001
1.2053063e+000
1.3735485e+000
1.3828576e+000
1.1787519e+000
9.8929429e-001
8.5137969e-001
8.3015251e-001
9.5977610e-001
1.2053781e+000
1.5686777e+000
1.9743299e+000
2.3854499e+000
2.7049320e+000
2.9243257e+000
3.0082695e+000
2.9968348e+000
2.9080265e+000
2.7810173e+000
2.6535339e+000
2.5427117e+000
2.4975698e+000
2.4978571e+000
2.5825992e+000
2.6983578e+000
2.8541033e+000
2.9905078e+000
3.0659037e+000
3.0973063e+000
3.0347474e+000
2.9726622e+000
2.9197953e+000
2.9080842e+000
2.9688029e+000
3.0656652e+000
3.2161176e+000
3.3941431e+000
3.6182015e+000
3.8638217e+000
4.1412773e+000
4.4191399e+000
4.6949229e+000
4.9600430e+000
5.2236071e+000
5.5092874e+000
5.8277678e+000
6.2103882e+000
6.6275249e+000
7.0647421e+000
7.4842243e+000
7.8272147e+000
8.1163397e+000
8.2956276e+000
8.4203901e+000
8.4297161e+000
8.3908539e+000
8.2316189e+000
8.0493994e+000
7.8081908e+000
7.5490222e+000
7.2454653e+000
6.9027362e+000
6.4810228e+000
6.0238533e+000
5.5054522e+000
4.9661074e+000
4.4025364e+000
3.8532784e+000
3.3291140e+000
2.8427248e+000
2.3833108e+000
1.8972543e+000
1.3883486e+000
8.6762029e-001
3.7152323e-001
7.6608211e-003
-2.6533642e-001
-4.0120700e-001
-4.9148840e-001
-5.7738632e-001
-6.5930951e-001
-7.3282886e-001
-7.7304602e-001
-6.8477225e-001
-5.5493164e-001
-2.9017627e-001
-2.2659913e-002
2.5417995e-001
5.0311702e-001
6.8092012e-001
8.2509631e-001
8.9577746e-001
9.1611624e-001
8.4660089e-001
7.1448511e-001
5.0184739e-001
2.8947499e-001
9.2308037e-002
-2.2041611e-002
-5.5209957e-002
-2.1385506e-002
7.2580516e-002
1.9738972e-001
3.4857589e-001
5.9175360e-001
8.9848745e-001
1.3520119e+000
1.8548300e+000
2.4029951e+000
2.9324155e+000
3.3209600e+000
3.6542270e+000
3.7630744e+000
3.8630924e+000
3.9423606e+000
4.0351968e+000
4.1682076e+000
4.2799053e+000
4.3446040e+000
4.4440966e+000
4.6160417e+000
4.8380542e+000
5.1298571e+000
5.3808250e+000
5.5892220e+000
5.8432775e+000
6.1613092e+000
6.6208634e+000
7.1772833e+000
7.6637082e+000
8.0787039e+000
8.2866755e+000
8.3921585e+000
8.4299107e+000
8.4411564e+000
8.4143248e+000
8.3828859e+000
8.3726015e+000
8.3783760e+000
8.4807911e+000
8.5701122e+000
8.5449228e+000
8.4948969e+000
8.3388224e+000
8.2097969e+000
8.1678543e+000
8.1588783e+000
8.2323923e+000
8.3466806e+000
8.5454321e+000
8.8277130e+000
9.2283030e+000
9.6042194e+000
9.9230804e+000
9.9508476e+000
9.6943150e+000
9.1659203e+000
8.4624128e+000
7.8739524e+000
7.3686781e+000
7.1022620e+000
6.9239149e+000
6.6994600e+000
6.4414949e+000
5.9521189e+000
5.4168754e+000
4.8090000e+000
4.2101450e+000
3.7910104e+000
3.3961513e+000
3.1575141e+000
2.9325495e+000
2.7682571e+000
2.6188040e+000
2.5136619e+000
2.3681602e+000
2.1259933e+000
1.8014436e+000
1.3362558e+000
9.2385352e-001
5.8706915e-001
3.6138266e-001
2.4766874e-001
8.3102778e-002
-1.2201709e-001
-3.3340675e-001
-5.3819960e-001
-5.2685797e-001
-4.1144788e-001
-1.5834560e-001
1.3484201e-001
3.1973398e-001
4.7380415e-001
4.4031247e-001
3.7981600e-001
2.0821227e-001
4.1945003e-002
1.3824965e-002
3.8204566e-003
1.1920531e-001
3.5947415e-001
7.2353208e-001
1.1481972e+000
1.7505999e+000
2.4046791e+000
3.1649055e+000
3.7592473e+000
4.0849752e+000
4.2236180e+000
4.1351819e+000
4.0755410e+000
4.0427866e+000
3.9973314e+000
3.9418519e+000
3.7508759e+000
3.4879351e+000
3.3520181e+000
3.2659585e+000
3.8763218e+000
4.6685200e+000
5.9316282e+000
7.2684765e+000
7.8811998e+000
