##TITLE=Methyl Ethyl Ketone
##JCAMP-DX=4.24
##DATA TYPE=INFRARED SPECTRUM
##XUNITS=cm-1
##YUNITS=Absorbance
##FIRSTX=900
##LASTX=2300
##XYDATA=(X++(Y..Y))
2296 -0.026032001
2294 -0.026573226
2292 -0.027114453
2290 -0.027656674
2288 -0.028197903
2286 -0.02873913
2284 -0.029281346
2282 -0.029822581
2280 -0.030363806
2278 -0.03090602
2276 -0.031447258
2274 -0.031988483
2272 -0.032530691
2270 -0.033071935
2268 -0.03361316
2266 -0.034155365
2264 -0.034696609
2262 -0.035237838
2260 -0.035780039
2258 -0.03632129
2256 -0.036862515
2254 -0.037404709
2252 -0.037945963
2250 -0.038487192
2248 -0.039029382
2246 -0.039570644
2244 -0.0014704857
2242 0.024711598
2240 0.048552919
2238 0.048491791
2236 0.044959214
2234 0.027650796
2232 0.0095364777
2230 -0.0045047551
2228 -0.016583726
2226 -0.0143113
2224 -0.010889377
2222 -0.0053557176
2220 0.003162781
2218 0.020526361
2216 0.043152142
2214 0.076171257
2212 0.10853044
2210 0.13877732
2208 0.16760097
2206 0.19478658
2204 0.22130726
2202 0.24723899
2200 0.26514959
2198 0.27706289
2196 0.27641216
2194 0.26877162
2192 0.26247761
2190 0.25700113
2188 0.25036994
2186 0.2433355
2184 0.21747079
2182 0.18727194
2180 0.17066599
2178 0.15640518
2176 0.166602
2174 0.17749235
2172 0.17095628
2170 0.1608388
2168 0.13976698
2166 0.11849043
2164 0.10048252
2162 0.080154873
2160 0.053019177
2158 0.03008214
2156 0.016354499
2154 0.018612675
2152 0.042653508
2150 0.07118655
2148 0.10223512
2146 0.11971965
2144 0.12500355
2142 0.1170473
2140 0.10080654
2138 0.084156573
2136 0.067725174
2134 0.064952098
2132 0.067819051
2130 0.08389385
2128 0.10399636
2126 0.12275629
2124 0.14118452
2122 0.16217276
2120 0.18334737
2118 0.20008045
2116 0.21202943
2114 0.19260131
2112 0.16575062
2110 0.12577468
2108 0.08914683
2106 0.068485916
2104 0.057448812
2102 0.062581725
2100 0.075593762
2098 0.097888425
2096 0.11727714
2094 0.13121121
2092 0.13034211
2090 0.11496206
2088 0.095121324
2086 0.073054403
2084 0.063634902
2082 0.062673442
2080 0.06636709
2078 0.072073169
2076 0.063264474
2074 0.048384137
2072 0.02592328
2070 0.0013083718
2068 -0.0087048905
2066 -0.014814693
2064 -0.022643829
2062 -0.032865103
2060 -0.068164535
2058 -0.10884907
2056 -0.15208143
2054 -0.18935888
2052 -0.20228481
2050 -0.20153213
2048 -0.17665583
2046 -0.14504857
2044 -0.1088898
2042 -0.078978941
2040 -0.061014749
2038 -0.051649019
2036 -0.051268071
2034 -0.054627616
2032 -0.05978008
2030 -0.07105507
2028 -0.086104862
2026 -0.10710716
2024 -0.13094856
2022 -0.14868139
2020 -0.16265646
2018 -0.17490309
2016 -0.18719199
2014 -0.2124213
2012 -0.24291925
2010 -0.27654484
2008 -0.31103435
2006 -0.34006459
2004 -0.36736435
2002 -0.3893714
2000 -0.4081645
1998 -0.41488945
1996 -0.41678357
1994 -0.41079217
1992 -0.402758
1990 -0.39826718
1988 -0.394692
1986 -0.39617345
1984 -0.40030161
1982 -0.40631112
1980 -0.4116469
1978 -0.41367653
1976 -0.40922657
1974 -0.39825889
1972 -0.38639233
1970 -0.37396029
1968 -0.38153091
1966 -0.4020305
1964 -0.44867632
1962 -0.50932246
1960 -0.55586278
1958 -0.59589976
1956 -0.59817868
1954 -0.58736843
1952 -0.56762087
1950 -0.54824245
1948 -0.54141569
1946 -0.54091501
1944 -0.55590403
1942 -0.57267749
1940 -0.59351313
1938 -0.60983628
1936 -0.61458433
1934 -0.61445099
1932 -0.60617441
1930 -0.60388392
1928 -0.6095717
1926 -0.61890918
1924 -0.6268248
1922 -0.61400694
1920 -0.58208913
1918 -0.53816867
1916 -0.49286813
1914 -0.45581716
1912 -0.42486823
1910 -0.40206218
1908 -0.3821702
1906 -0.38439929
1904 -0.39939681
1902 -0.41165811
1900 -0.42347237
1898 -0.38783905
1896 -0.33382857
1894 -0.27384365
1892 -0.21865806
1890 -0.21898121
1888 -0.24677806
1886 -0.30979422
1884 -0.37846839
1882 -0.42618904
1880 -0.45873776
1878 -0.46949816
1876 -0.47717398
1874 -0.48426747
1872 -0.48443869
1870 -0.46928695
1868 -0.43088013
1866 -0.37991077
1864 -0.34619749
1862 -0.3439945
1860 -0.37950701
1858 -0.43773687
1856 -0.50602597
1854 -0.57373339
1852 -0.63944763
1850 -0.69980735
1848 -0.75297636
1846 -0.79752535
1844 -0.80841488
1842 -0.79727674
1840 -0.74987841
1838 -0.68877727
1836 -0.62729031
1834 -0.5707069
1832 -0.51295614
1830 -0.44995251
1828 -0.3784115
1826 -0.30682328
1824 -0.26593661
1822 -0.25820783
1820 -0.29258519
1818 -0.34699854
1816 -0.39669773
1814 -0.43630442
1812 -0.45880291
1810 -0.46553019
1808 -0.46274927
1806 -0.4392215
1804 -0.3980211
1802 -0.37283352
1800 -0.36218646
1798 -0.39169085
1796 -0.44942501
1794 -0.4608202
1792 -0.44156998
1790 -0.35429135
1788 -0.23361857
1786 -0.14735964
1784 -0.08912348
1782 -0.072328657
1780 -0.081333727
1778 -0.089770183
1776 -0.093414031
1774 -0.075916126
1772 -0.040562533
1770 -0.0086564254
1768 0.019402497
1766 0.02831815
1764 0.027316419
1762 0.038735632
1760 0.017513417
1758 -0.057160452
1756 -0.14013845
1754 -0.20471157
1752 -0.24251485
1750 -0.2490508
1748 -0.25109217
1746 -0.2630868
1744 -0.30488589
1742 -0.38366133
1740 -0.44397372
1738 -0.47843632
1736 -0.40434
1734 -0.24231513
1732 -0.069704399
1730 0.095125198
1728 0.11459409
1726 0.029450711
1724 -0.047144592
1722 -0.094425738
1720 0.012716793
1718 0.26836246
1716 0.72967142
1714 1.3153991
1712 1.870172
1710 2.3897822
1708 2.890646
1706 3.513588
1704 4.4071212
1702 5.820787
1700 7.8760004
1698 10.833928
1696 14.669286
1694 18.661301
1692 22.46273
1690 25.867903
1688 28.914738
1686 32.475685
1684 36.646469
1682 41.694386
1680 47.434681
1678 52.461185
1676 56.8055
1674 60.933189
1672 64.997093
1670 69.89872
1668 75.450317
1666 81.099106
1664 86.673042
1662 91.651291
1660 95.989349
1658 99.557739
1656 102.32714
1654 104.2659
1652 105.3126
1650 105.44688
1648 104.538
1646 102.52928
1644 99.863617
1642 96.972626
1640 93.763954
1638 90.252579
1636 86.028488
1634 81.003754
1632 75.887375
1630 70.926605
1628 66.318741
1626 62.069088
1624 57.728802
1622 53.243465
1620 48.887383
1618 44.682705
1616 40.815399
1614 37.299923
1612 34.23679
1610 31.628601
1608 29.425343
1606 27.608458
1604 26.046631
1602 24.753798
1600 23.710995
1598 22.924
1596 22.3615
1594 22.016378
1592 21.845222
1590 21.82682
1588 21.917694
1586 22.094965
1584 22.335703
1582 22.627821
1580 22.965397
1578 23.405237
1576 23.965458
1574 24.698689
1572 25.602989
1570 26.612202
1568 27.705561
1566 28.820135
1564 29.95599
1562 31.303104
1560 32.963421
1558 35.56979
1556 39.201244
1554 43.211029
1552 47.348114
1550 50.546207
1548 52.815971
1546 54.691284
1544 56.165005
1542 57.348969
1540 58.119762
1538 58.300827
1536 57.897144
1534 57.021107
1532 55.790619
1530 54.423492
1528 52.92281
1526 51.296997
1524 49.483269
1522 47.426716
1520 45.186852
1518 42.749397
1516 40.401543
1514 38.2519
1512 36.135082
1510 34.051208
1508 31.476837
1506 28.268536
1504 25.082012
1502 21.97501
1500 19.374592
1498 17.33408
1496 15.316572
1494 13.319735
1492 11.287326
1490 9.2365417
1488 7.2103539
1486 5.2744627
1484 3.538506
1482 2.081516
1480 0.99961519
1478 0.31675863
1476 0.051747344
1474 0.31123248
1472 1.0558864
1470 2.0137701
1468 3.0062406
1466 3.8445613
1464 4.416625
1462 4.8736458
1460 5.2665644
1458 5.6788306
1456 6.1324201
1454 6.5367289
1452 6.8333921
1450 6.9910841
1448 6.9380517
1446 6.8112893
1444 6.5851483
1442 6.3280082
1440 6.0288644
1438 5.6741619
1436 5.2453485
1434 4.7118926
1432 4.0861669
1430 3.4597528
1428 2.8639259
1426 2.3889029
1424 2.0500059
1422 1.8527633
1420 1.8017111
1418 1.8753221
1416 2.0439827
1414 2.275806
1412 2.5266292
1410 2.7918148
1408 3.0675645
1406 3.3641472
1404 3.683774
1402 4.0253057
1400 4.3888402
1398 4.7800589
1396 5.1834712
1394 5.594306
1392 5.9488583
1390 6.1786065
1388 6.2814474
1386 6.17801
1384 5.957397
1382 5.5773878
1380 5.1391296
1378 4.6378713
1376 4.1230602
1374 3.6213531
1372 3.1709521
1370 2.7850385
1368 2.4705937
1366 2.1794515
1364 1.839152
1362 1.4506079
1360 1.0003176
1358 0.5695827
1356 0.25483984
1354 0.045263223
1352 -8.2964107e-05
1350 0.037276641
1348 0.15783188
1346 0.3088575
1344 0.50041842
1342 0.70475543
1340 0.93109918
1338 1.1575629
1336 1.3763171
1334 1.5938245
1332 1.7847943
1330 1.977295
1328 2.1709309
1326 2.3750501
1324 2.6080129
1322 2.859287
1320 3.1444824
1318 3.4468791
1316 3.7676401
1314 4.0830851
1312 4.3765311
1310 4.6308346
1308 4.8336682
1306 4.9822621
1304 5.0839186
1302 5.137527
1300 5.1587696
1298 5.1388998
1296 5.0967288
1294 5.0225
1292 4.9419622
1290 4.8606167
1288 4.7924242
1286 4.7571969
1284 4.734982
1282 4.7372165
1280 4.7401423
1278 4.743391
1276 4.7467899
1274 4.7554779
1272 4.7730389
1270 4.8113971
1268 4.8691759
1266 4.9548059
1264 5.0594792
1262 5.1833324
1260 5.3122101
1258 5.4444332
1256 5.5722885
1254 5.6952834
1252 5.8136444
1250 5.9282222
1248 6.0410118
1246 6.1492
1244 6.2404523
1242 6.3131557
1240 6.3420787
1238 6.3404069
1236 6.2787232
1234 6.1777906
1232 5.9866319
1230 5.7528424
1228 5.4109035
1226 5.0422869
1224 4.605444
1222 4.1581588
1220 3.6865056
1218 3.2197909
1216 2.7662144
1214 2.3385866
1212 1.9589491
1210 1.6145834
1208 1.3222274
1206 1.0598433
1204 0.83371282
1202 0.6291191
1200 0.44791085
1198 0.28581172
1196 0.14422643
1194 0.030728333
1192 -0.058925267
1190 -0.115297
1188 -0.15017763
1186 -0.15705356
1184 -0.14573422
1182 -0.097602218
1180 -0.023230843
1178 0.12550104
1176 0.30964801
1174 0.59713489
1172 0.9015165
1170 1.2448579
1168 1.5601662
1166 1.7840679
1164 1.953136
1162 1.98541
1160 1.9755965
1158 1.8827056
1156 1.7742928
1154 1.6404157
1152 1.496984
1150 1.3374155
1148 1.1523012
1146 0.93722391
1144 0.70127165
1142 0.45353526
1140 0.23739839
1138 0.060240515
1136 -0.01931197
1134 -0.028571915
1132 0.064985678
1130 0.20756803
1128 0.40192303
1126 0.60987145
1124 0.81613398
1122 1.0141708
1120 1.1699359
1118 1.3126692
1116 1.4067929
1114 1.5003306
1112 1.5950731
1110 1.693292
1108 1.8006248
1106 1.891245
1104 1.9384423
1102 1.9598241
1100 1.930896
1098 1.8920807
1096 1.8379858
1094 1.7788506
1092 1.713712
1090 1.64977
1088 1.5899868
1086 1.5525585
1084 1.535946
1082 1.5445752
1080 1.5670217
1078 1.579453
1076 1.5805601
1074 1.5320485
1072 1.4638468
1070 1.3712827
1068 1.2751012
1066 1.1932614
1064 1.114496
1062 1.0455347
1060 0.98063076
1058 0.9387905
1056 0.90302342
1054 0.89348602
1052 0.88233387
1050 0.86604011
1048 0.84440887
1046 0.80909932
1044 0.76509845
1042 0.70322317
1040 0.62783384
1038 0.53389335
1036 0.45175201
1034 0.38523421
1032 0.33960143
1030 0.3102307
1028 0.25388062
1026 0.17603207
1024 0.064240627
1022 -0.063834406
1020 -0.1752272
1018 -0.27962518
1016 -0.37467143
1014 -0.46913439
1012 -0.58501643
1010 -0.70377374
1008 -0.81535476
1006 -0.92617053
1004 -1.0359548
1002 -1.1451181
1000 -1.2499309
998 -1.3369849
996 -1.3449429
994 -1.3288001
992 -1.2385857
990 -1.1428285
988 -1.0351044
986 -0.93411398
984 -0.84515637
982 -0.77367043
980 -0.7272706
978 -0.72034025
976 -0.75608087
974 -0.82309902
972 -0.91232902
970 -0.95294982
968 -0.95968086
966 -0.89031249
964 -0.78775007
962 -0.70983273
960 -0.6417923
958 -0.60723633
956 -0.57659286
954 -0.46744323
952 -0.34781921
950 -0.20159294
948 -0.061273161
946 -0.020193107
944 0.00045020599
942 0.012570113
940 -0.0012959689
938 0.083099112
936 0.18173228
934 0.32202536
932 0.45147884
930 0.55763316
928 0.65530866
926 0.73918051
924 0.80493242
922 0.84812039
920 0.84469563
918 0.79764265
916 0.73794514
914 0.6697973
912 0.65516478
910 0.66995573
908 0.72359103
906 0.79343832
904 0.83930314
902 0.87987739
900 0.88157809
898 0.87735868
896 0.83449
