Image.
>Pix99999.
  .
5555
5555
2300
900
5555
2
1
0
701
5555
2.0219000e-002
2.0639399e-002
2.1060795e-002
2.1481195e-002
2.1901593e-002
2.2321993e-002
2.2742392e-002
2.3163779e-002
2.3584189e-002
2.4004588e-002
2.4424985e-002
2.4846369e-002
2.5266781e-002
2.5687180e-002
2.6107581e-002
2.6528956e-002
2.6949378e-002
2.7369777e-002
2.7790174e-002
2.8210573e-002
2.8631942e-002
2.9052369e-002
2.9472768e-002
2.9893167e-002
3.0314531e-002
3.0734966e-002
1.9719508e-002
7.4419711e-004
-6.0945600e-003
-3.5659220e-002
-6.8623699e-002
-1.1825592e-001
-1.6712594e-001
-1.7206611e-001
-1.6776635e-001
-1.0641700e-001
-4.3369807e-002
1.4259890e-002
5.5081014e-002
4.5648508e-002
1.0623352e-002
-7.4135192e-002
-1.7763214e-001
-3.0692855e-001
-4.1303325e-001
-4.8825398e-001
-4.8534623e-001
-4.0905267e-001
-2.9619697e-001
-1.5961520e-001
-9.1973208e-002
-6.4988211e-002
-1.1351391e-001
-1.9396070e-001
-2.8236350e-001
-3.7265617e-001
-4.2134479e-001
-4.6044442e-001
-4.4925505e-001
-4.3067133e-001
-4.1508228e-001
-4.0179330e-001
-4.1110411e-001
-4.1982770e-001
-4.1285804e-001
-3.9970657e-001
-3.6954772e-001
-3.3346123e-001
-2.8657770e-001
-2.4118346e-001
-2.0073900e-001
-1.9446661e-001
-2.3694989e-001
-3.0403945e-001
-3.9311609e-001
-4.3972751e-001
-4.4676295e-001
-4.1030520e-001
-3.4643009e-001
-3.1068128e-001
-2.9178372e-001
-3.3189315e-001
-3.9624241e-001
-4.5853111e-001
-5.1946962e-001
-5.1416373e-001
-4.9342987e-001
-4.4153732e-001
-3.8653421e-001
-3.6413679e-001
-3.5246858e-001
-3.8631499e-001
-4.3128240e-001
-4.9651587e-001
-5.5386221e-001
-5.7838506e-001
-5.7761717e-001
-5.3165549e-001
-4.8104039e-001
-4.3380886e-001
-4.0696141e-001
-4.0605447e-001
-4.0431720e-001
-3.9779237e-001
-3.7471205e-001
-3.3868900e-001
-3.2364175e-001
-3.2368970e-001
-3.4050834e-001
-3.6503237e-001
-3.5500014e-001
-3.3018470e-001
-2.9067799e-001
-2.4686837e-001
-2.3798037e-001
-2.3801607e-001
-2.6300177e-001
-2.9052043e-001
-2.9681265e-001
-2.9321918e-001
-2.5832257e-001
-2.1823391e-001
-1.8104281e-001
-1.5176784e-001
-1.4060336e-001
-1.3511822e-001
-1.3337541e-001
-1.3445878e-001
-1.3943040e-001
-1.5566044e-001
-1.8539143e-001
-2.0965490e-001
-2.2605577e-001
-2.1025190e-001
-1.6969642e-001
-1.1203957e-001
-4.5696266e-002
1.6767671e-002
7.6744959e-002
1.1754112e-001
1.5005800e-001
1.5306793e-001
1.4586084e-001
1.2141892e-001
9.2048354e-002
5.8655381e-002
2.7539341e-002
2.1501821e-002
3.1766132e-002
8.7490030e-002
1.5889429e-001
2.4455161e-001
3.2090810e-001
3.6598888e-001
3.8750800e-001
3.7809658e-001
3.6146498e-001
3.4509483e-001
3.4147647e-001
3.5347700e-001
3.8614458e-001
4.3555149e-001
4.9327555e-001
5.5533534e-001
5.9213912e-001
6.1228502e-001
5.9613323e-001
5.6142873e-001
5.2225924e-001
4.8189443e-001
4.5836300e-001
4.4083324e-001
4.3226039e-001
4.2599407e-001
4.2564738e-001
4.2824998e-001
4.3469161e-001
4.4036812e-001
4.2968619e-001
4.1179606e-001
3.8601974e-001
3.6973906e-001
3.8065261e-001
4.0637338e-001
4.4657710e-001
4.7953007e-001
4.9982646e-001
5.0812560e-001
5.0524503e-001
4.8859361e-001
4.5867571e-001
4.1813925e-001
3.7201098e-001
3.4155574e-001
3.2288611e-001
3.2804814e-001
3.4469360e-001
3.7827760e-001
4.1820592e-001
4.7028562e-001
5.2556998e-001
5.6791365e-001
6.0129344e-001
6.0351908e-001
5.8606929e-001
5.3011447e-001
4.5318457e-001
3.5487145e-001
2.5985250e-001
1.9303766e-001
1.5109201e-001
1.4250270e-001
1.4900805e-001
1.6488816e-001
1.9442432e-001
2.3078750e-001
2.6644850e-001
2.9337600e-001
2.9609922e-001
2.8148216e-001
2.5393370e-001
2.2215603e-001
2.0116380e-001
1.9047184e-001
1.7926160e-001
1.6992714e-001
1.3346806e-001
8.5863337e-002
4.4812512e-002
7.6166177e-003
-6.7409305e-003
-9.9375267e-003
7.3915599e-003
4.4926640e-002
1.1682411e-001
2.0088920e-001
2.6480266e-001
2.8853402e-001
2.4549919e-001
1.7140415e-001
9.5455229e-002
4.3268986e-002
2.9447349e-002
3.6341246e-002
5.1106710e-002
6.4709954e-002
7.3876508e-002
7.6887153e-002
7.8072205e-002
7.6179408e-002
7.3025860e-002
9.2753842e-002
1.2529360e-001
1.6865097e-001
2.1326725e-001
2.2048365e-001
2.0229092e-001
1.6416146e-001
1.1712375e-001
9.6040048e-002
9.4630204e-002
1.1941229e-001
1.5458243e-001
1.6445540e-001
1.5591040e-001
1.2374543e-001
8.5823677e-002
6.7090459e-002
2.4289990e-002
-6.6220075e-002
-1.3993515e-001
-1.6318108e-001
-1.1342093e-001
7.9832599e-003
1.2727907e-001
2.1791428e-001
2.0308074e-001
8.8049650e-002
-3.7850454e-002
-1.5303645e-001
-1.4399600e-001
-3.6060330e-002
9.6782602e-002
2.3241983e-001
2.2515954e-001
1.1762355e-001
1.1945229e-002
-6.6049337e-002
7.1969330e-003
2.1675140e-001
6.0961241e-001
1.1007742e+000
1.5369583e+000
1.9447975e+000
2.3696840e+000
2.9583993e+000
3.8554096e+000
5.3014426e+000
7.4101610e+000
1.0406086e+001
1.4257143e+001
1.8230360e+001
2.1979050e+001
2.5328413e+001
2.8320492e+001
3.1800823e+001
3.5863178e+001
4.0736313e+001
4.6250320e+001
5.1095867e+001
5.5303959e+001
5.9282608e+001
6.3169888e+001
6.7747231e+001
7.2854523e+001
7.8013000e+001
8.3084885e+001
8.7642494e+001
9.1628265e+001
9.4879547e+001
9.7367111e+001
9.9061081e+001
1.0002512e+002
1.0038155e+002
1.0003474e+002
9.8941071e+001
9.7252464e+001
9.5171669e+001
9.2585640e+001
8.9512741e+001
8.5680199e+001
8.1071739e+001
7.6402466e+001
7.1920456e+001
6.7801460e+001
6.4040543e+001
6.0216679e+001
5.6274048e+001
5.2309704e+001
4.8340160e+001
4.4472427e+001
4.0742580e+001
3.7413250e+001
3.4501621e+001
3.2022148e+001
2.9953178e+001
2.8149282e+001
2.6630367e+001
2.5388474e+001
2.4429768e+001
2.3719500e+001
2.3241566e+001
2.2938601e+001
2.2790863e+001
2.2758379e+001
2.2827650e+001
2.2979406e+001
2.3205318e+001
2.3496878e+001
2.3911827e+001
2.4467972e+001
2.5196812e+001
2.6095057e+001
2.7084389e+001
2.8141760e+001
2.9198414e+001
3.0250908e+001
3.1464670e+001
3.2936310e+001
3.5334503e+001
3.8746716e+001
4.2632401e+001
4.6752708e+001
4.9991718e+001
5.2344898e+001
5.4262608e+001
5.5745949e+001
5.6941200e+001
5.7729103e+001
5.7964806e+001
5.7635029e+001
5.6823093e+001
5.5720020e+001
5.4590553e+001
5.3424126e+001
5.2212551e+001
5.0756897e+001
4.8923306e+001
4.6759563e+001
4.4249523e+001
4.1861931e+001
3.9765568e+001
3.7735401e+001
3.5754383e+001
3.3183632e+001
2.9845842e+001
2.6502102e+001
2.3220022e+001
2.0508904e+001
1.8432610e+001
1.6395571e+001
1.4385337e+001
1.2308823e+001
1.0169720e+001
8.0095110e+000
5.8985257e+000
3.9775102e+000
2.3493605e+000
1.1353997e+000
3.6407813e-001
6.5838844e-002
3.3530316e-001
1.1026089e+000
2.0454509e+000
2.9614930e+000
3.7062943e+000
4.1816463e+000
4.5532970e+000
4.8780255e+000
5.2205906e+000
5.6003003e+000
5.9543371e+000
6.2463198e+000
6.4286995e+000
6.4421511e+000
6.3699713e+000
6.1810923e+000
5.9573631e+000
5.6883965e+000
5.3820133e+000
5.0177455e+000
4.5543985e+000
3.9971023e+000
3.4243984e+000
2.8705540e+000
2.4266887e+000
2.1086268e+000
1.9212009e+000
1.8764617e+000
1.9714841e+000
2.1783056e+000
2.4718850e+000
2.7787693e+000
3.0573981e+000
3.3123629e+000
3.5435686e+000
3.7969356e+000
4.0949454e+000
4.4356961e+000
4.8388901e+000
5.2443714e+000
5.6359506e+000
5.9463491e+000
6.0990539e+000
6.1258230e+000
5.9522300e+000
5.6762862e+000
5.2603407e+000
4.7911458e+000
4.2644858e+000
3.7313144e+000
3.2177093e+000
2.7678320e+000
2.3928177e+000
2.0882730e+000
1.8133429e+000
1.4997486e+000
1.1535739e+000
7.7433985e-001
4.2363551e-001
1.7949528e-001
2.3944205e-002
-4.5032846e-003
3.6637798e-002
1.3005914e-001
2.0690392e-001
3.3687317e-001
4.9114460e-001
6.8842584e-001
8.9654344e-001
1.1186628e+000
1.3322718e+000
1.5143080e+000
1.6861219e+000
1.8450921e+000
2.0282621e+000
2.2623079e+000
2.5524299e+000
2.9150326e+000
3.2935452e+000
3.6704600e+000
3.9804595e+000
4.2122631e+000
4.3749795e+000
4.4789848e+000
4.5579357e+000
4.6183257e+000
4.6663628e+000
4.7057185e+000
4.7309608e+000
4.7453432e+000
4.7379594e+000
4.7199283e+000
4.6843467e+000
4.6517439e+000
4.6322970e+000
4.6253920e+000
4.6466208e+000
4.6717515e+000
4.7038860e+000
4.7320786e+000
4.7556529e+000
4.7814794e+000
4.8180308e+000
4.8818727e+000
4.9872355e+000
5.1237278e+000
5.2891216e+000
5.4387264e+000
5.5635228e+000
5.6489201e+000
5.7054710e+000
5.7668762e+000
5.8422589e+000
5.9571433e+000
6.0895500e+000
6.2125783e+000
6.3081393e+000
6.3218641e+000
6.2845864e+000
6.1547270e+000
5.9807181e+000
5.7195039e+000
5.4222693e+000
5.0368481e+000
4.6302538e+000
4.1696382e+000
3.6999810e+000
3.2083280e+000
2.7121890e+000
2.2099771e+000
1.7254184e+000
1.2791139e+000
8.8762927e-001
5.7835209e-001
3.2159048e-001
1.2714966e-001
-3.8562492e-002
-1.7019932e-001
-2.6313162e-001
-3.2176501e-001
-3.5265690e-001
-3.7026474e-001
-3.9826128e-001
-4.2725334e-001
-4.4178206e-001
-4.3041828e-001
-3.3253914e-001
-1.8630868e-001
7.7950180e-002
3.7433600e-001
7.3581445e-001
1.0862614e+000
1.3762302e+000
1.6189286e+000
1.7138678e+000
1.7614232e+000
1.6948481e+000
1.6209812e+000
1.5353777e+000
1.4625314e+000
1.4048465e+000
1.3153834e+000
1.1774142e+000
9.9026179e-001
7.5525284e-001
5.3493851e-001
3.3384168e-001
1.7251265e-001
4.4319343e-002
-4.5537110e-002
-9.5445439e-002
-5.1236004e-002
5.2864015e-002
2.8304613e-001
5.5397725e-001
8.5899651e-001
1.1548461e+000
1.3702281e+000
1.5630552e+000
1.6754786e+000
1.7918509e+000
1.9301457e+000
2.0694821e+000
2.2079475e+000
2.3088701e+000
2.3155210e+000
2.2953942e+000
2.2256260e+000
2.1678717e+000
2.1297429e+000
2.1029191e+000
2.0940201e+000
2.1168859e+000
2.1785579e+000
2.3005135e+000
2.4723349e+000
2.6722167e+000
2.8817098e+000
3.0410361e+000
3.1568770e+000
3.1223326e+000
3.0221090e+000
2.8039749e+000
2.5690215e+000
2.4029751e+000
2.2619481e+000
2.2407215e+000
2.2281678e+000
2.2339869e+000
2.2419086e+000
2.2594311e+000
2.2880538e+000
2.3516119e+000
2.4089251e+000
2.4492142e+000
2.4655187e+000
2.4349918e+000
2.3801429e+000
2.2874517e+000
2.1662800e+000
2.0123920e+000
1.8493886e+000
1.6840025e+000
1.5731795e+000
1.5114914e+000
1.5692806e+000
1.6942490e+000
1.8720726e+000
2.0582681e+000
2.1165571e+000
2.1238596e+000
1.9476072e+000
1.7354364e+000
1.4669200e+000
1.2001357e+000
1.0077771e+000
8.2461357e-001
7.0078617e-001
5.8633697e-001
5.1444000e-001
4.6969408e-001
5.0937015e-001
5.6690007e-001
6.6286027e-001
7.2583205e-001
7.2911644e-001
6.8160129e-001
5.6561339e-001
4.2885643e-001
2.7063483e-001
1.1330865e-001
-3.9920844e-002
-1.3115945e-001
-1.7982394e-001
-1.3813969e-001
-5.8990508e-002
-4.6214696e-002
-6.0688794e-002
-1.9406807e-001
-3.4935686e-001
-4.2318806e-001
-4.8010001e-001
-3.6518687e-001
-2.4057177e-001
-7.8541070e-002
5.2937120e-004
1.6417895e-002
4.5981992e-002
7.1367599e-002
1.1806543e-001
2.2757791e-001
3.4766173e-001
4.8987982e-001
6.1676604e-001
7.1839458e-001
7.7958626e-001
7.9066181e-001
7.3646873e-001
6.2082648e-001
4.5358527e-001
2.5017893e-001
7.2402865e-002
-8.9943394e-002
-1.1277990e-001
-8.0417089e-002
7.6478869e-002
2.6620120e-001
3.2699531e-001
3.6703342e-001
2.2262000e-001
