Image.
>Pix99999.
  .
5555
5555
2300
900
5555
2
1
0
701
5555
-1.1029000e-002
-1.1258671e-002
-1.1487345e-002
-1.1717015e-002
-1.1946686e-002
-1.2176357e-002
-1.2405037e-002
-1.2634699e-002
-1.2864372e-002
-1.3094043e-002
-1.3322729e-002
-1.3552385e-002
-1.3782057e-002
-1.4011729e-002
-1.4241400e-002
-1.4470093e-002
-1.4699743e-002
-1.4929414e-002
-1.5159086e-002
-1.5387785e-002
-1.5617428e-002
-1.5847100e-002
-1.6076772e-002
-1.6306443e-002
-1.6535148e-002
-1.6764786e-002
-6.2299718e-004
4.1505832e-002
7.2678521e-002
7.0111096e-002
6.2684201e-002
3.9986685e-002
1.7323976e-002
1.9901235e-002
2.6226228e-002
5.3034548e-002
8.5376143e-002
1.3841376e-001
1.9626383e-001
2.6551056e-001
3.2023942e-001
3.4183791e-001
3.4126037e-001
3.0769932e-001
2.7788302e-001
2.5525713e-001
2.4686024e-001
2.5168729e-001
2.5235876e-001
2.4925520e-001
2.3750570e-001
2.2096056e-001
2.1399057e-001
2.1137641e-001
2.3486206e-001
2.6673114e-001
3.0920801e-001
3.5397896e-001
3.6947113e-001
3.8042057e-001
3.7980315e-001
3.7875628e-001
3.8478568e-001
3.8457921e-001
3.4494078e-001
2.9358900e-001
2.1360195e-001
1.4672109e-001
1.2067937e-001
1.2743808e-001
1.8846700e-001
2.5643158e-001
3.2634738e-001
3.7658221e-001
4.0444794e-001
4.3137321e-001
4.5955199e-001
4.8397219e-001
5.0573206e-001
5.0409347e-001
4.8984256e-001
4.7442546e-001
4.5892921e-001
4.3963128e-001
4.1909039e-001
3.7647685e-001
3.2880083e-001
2.7147806e-001
2.1269332e-001
1.5393108e-001
9.8470010e-002
6.7276336e-002
4.7767721e-002
6.4144187e-002
8.2202300e-002
8.9517996e-002
7.5834654e-002
1.9442592e-002
-4.4759102e-002
-1.1140071e-001
-1.5063286e-001
-1.5339081e-001
-1.3395235e-001
-9.7030908e-002
-6.3977987e-002
-3.6458451e-002
-1.0761952e-002
1.4133887e-002
3.1188801e-002
4.4322830e-002
2.4468999e-002
-8.8372771e-003
-6.1570119e-002
-1.2003651e-001
-1.7985554e-001
-2.3979121e-001
-3.1103674e-001
-3.8152167e-001
-4.2517182e-001
-4.5408490e-001
-4.3114656e-001
-3.9995748e-001
-3.7479633e-001
-3.7148374e-001
-4.2001286e-001
-4.8725465e-001
-5.7041699e-001
-6.3256127e-001
-6.5939629e-001
-6.5761656e-001
-6.3085210e-001
-6.0890287e-001
-5.9583420e-001
-6.0409284e-001
-6.2706155e-001
-6.4760280e-001
-6.6445088e-001
-6.4657795e-001
-6.1057407e-001
-5.6543505e-001
-5.1802599e-001
-5.1498437e-001
-5.2789956e-001
-5.8008838e-001
-6.4261526e-001
-7.0058012e-001
-7.5579941e-001
-7.9702508e-001
-8.3569431e-001
-8.7462288e-001
-9.0973645e-001
-9.3054760e-001
-9.3486279e-001
-9.1389239e-001
-8.8862818e-001
-8.7178731e-001
-8.7566864e-001
-9.0547282e-001
-9.4302350e-001
-9.8051167e-001
-9.9825716e-001
-9.9644929e-001
-9.8471427e-001
-9.6747458e-001
-9.7530359e-001
-9.9986732e-001
-1.0452057e+000
-1.1013868e+000
-1.1278161e+000
-1.1411304e+000
-1.1262314e+000
-1.1027408e+000
-1.0991120e+000
-1.1057476e+000
-1.1318208e+000
-1.1637250e+000
-1.1973760e+000
-1.2264717e+000
-1.2528632e+000
-1.2766186e+000
-1.2993629e+000
-1.3241065e+000
-1.3480160e+000
-1.3721211e+000
-1.3915473e+000
-1.4039249e+000
-1.4055251e+000
-1.3979913e+000
-1.3866960e+000
-1.3809450e+000
-1.3864843e+000
-1.3972622e+000
-1.4096892e+000
-1.4179078e+000
-1.4215071e+000
-1.4221278e+000
-1.4225320e+000
-1.3981967e+000
-1.3640020e+000
-1.2909592e+000
-1.2043715e+000
-1.1286882e+000
-1.0652008e+000
-1.0631360e+000
-1.0921452e+000
-1.1624558e+000
-1.2434515e+000
-1.3120559e+000
-1.3668051e+000
-1.3954376e+000
-1.4148500e+000
-1.4248215e+000
-1.4302251e+000
-1.4281127e+000
-1.4087957e+000
-1.3818078e+000
-1.3529719e+000
-1.3343780e+000
-1.3279655e+000
-1.3261068e+000
-1.3300886e+000
-1.3332633e+000
-1.3553783e+000
-1.3860472e+000
-1.4337800e+000
-1.4856964e+000
-1.4917783e+000
-1.4680800e+000
-1.3848286e+000
-1.2783500e+000
-1.1825643e+000
-1.1005080e+000
-1.0357217e+000
-9.7441006e-001
-9.0675026e-001
-8.3378738e-001
-7.7543163e-001
-7.4058497e-001
-7.4138939e-001
-7.7097934e-001
-8.1499916e-001
-8.6882406e-001
-9.2402112e-001
-9.6388382e-001
-9.8728824e-001
-9.8132348e-001
-9.5087528e-001
-9.3499136e-001
-9.3384367e-001
-9.5665711e-001
-9.9462146e-001
-9.7166133e-001
-9.0950477e-001
-7.6842910e-001
-5.8783245e-001
-4.2179513e-001
-2.7259433e-001
-1.6205192e-001
-7.9018086e-002
-1.5982799e-002
3.3299208e-002
7.1364604e-002
1.0583248e-001
1.2062944e-001
1.2384720e-001
1.0786536e-001
8.1246160e-002
6.6119738e-002
2.4065252e-002
-6.1203234e-002
-1.4522648e-001
-2.0292073e-001
-2.3367538e-001
-2.3616269e-001
-2.4027497e-001
-2.6006535e-001
-3.0972955e-001
-3.9535654e-001
-4.7529197e-001
-5.4032642e-001
-5.2180797e-001
-4.3308213e-001
-2.9839134e-001
-1.4337337e-001
-7.9922847e-002
-8.8073023e-002
-1.0258111e-001
-1.0449300e-001
-6.2863529e-004
2.1522364e-001
6.5013409e-001
1.2368767e+000
1.8334833e+000
2.3964436e+000
2.8953519e+000
3.4697864e+000
4.2694535e+000
5.5734158e+000
7.5263739e+000
1.0410463e+001
1.4207428e+001
1.8165499e+001
2.1924145e+001
2.5278143e+001
2.8267361e+001
3.1771650e+001
3.5888077e+001
4.0917999e+001
4.6673317e+001
5.1795319e+001
5.6299873e+001
6.0660236e+001
6.5005074e+001
7.0115974e+001
7.5792458e+001
8.1362350e+001
8.6721489e+001
9.1524773e+001
9.5773521e+001
9.9445663e+001
1.0245828e+002
1.0471082e+002
1.0604680e+002
1.0631920e+002
1.0540040e+002
1.0323607e+002
1.0039576e+002
9.7425911e+001
9.4278076e+001
9.0969673e+001
8.6969673e+001
8.2131004e+001
7.7046906e+001
7.1948853e+001
6.7179825e+001
6.2784519e+001
5.8350838e+001
5.3822243e+001
4.9418941e+001
4.5160889e+001
4.1261715e+001
3.7738388e+001
3.4700897e+001
3.2141552e+001
2.9966446e+001
2.8149372e+001
2.6540668e+001
2.5158882e+001
2.4000612e+001
2.3082817e+001
2.2397499e+001
2.1946512e+001
2.1695412e+001
2.1616058e+001
2.1653980e+001
2.1774914e+001
2.1948811e+001
2.2160229e+001
2.2403028e+001
2.2725986e+001
2.3145058e+001
2.3736340e+001
2.4505285e+001
2.5447128e+001
2.6553600e+001
2.7714113e+001
2.8920866e+001
3.0298920e+001
3.1946732e+001
3.4547733e+001
3.8182598e+001
4.2201611e+001
4.6345177e+001
4.9515114e+001
5.1736740e+001
5.3597858e+001
5.5118275e+001
5.6450481e+001
5.7445557e+001
5.7863636e+001
5.7675884e+001
5.6952335e+001
5.5862938e+001
5.4680779e+001
5.3390770e+001
5.1984798e+001
5.0322079e+001
4.8299271e+001
4.5940735e+001
4.3205338e+001
4.0605213e+001
3.8326462e+001
3.6224522e+001
3.4326923e+001
3.1950954e+001
2.8934143e+001
2.5842457e+001
2.2710457e+001
2.0062529e+001
1.7952700e+001
1.5880428e+001
1.3846639e+001
1.1789366e+001
9.7198496e+000
7.6591954e+000
5.6699762e+000
3.8627579e+000
2.3235815e+000
1.1650554e+000
4.0624219e-001
7.2440431e-002
2.7180576e-001
9.3280315e-001
1.7829100e+000
2.6564820e+000
3.4006715e+000
3.9305840e+000
4.3606582e+000
4.7288961e+000
5.0888958e+000
5.4449601e+000
5.7818899e+000
6.0670505e+000
6.2805972e+000
6.3791962e+000
6.4156499e+000
6.3652220e+000
6.2643509e+000
6.0915670e+000
5.8296227e+000
5.4497414e+000
4.9325590e+000
4.2904243e+000
3.6405625e+000
3.0147979e+000
2.5087643e+000
2.1293628e+000
1.8692714e+000
1.7376992e+000
1.7199923e+000
1.8052257e+000
1.9828700e+000
2.1931655e+000
2.4223747e+000
2.6600366e+000
2.9118900e+000
3.2039433e+000
3.5532131e+000
3.9448240e+000
4.3916922e+000
4.8484073e+000
5.3047891e+000
5.7131186e+000
6.0108948e+000
6.1944337e+000
6.1872101e+000
6.0497165e+000
5.7291870e+000
5.3177524e+000
4.8009624e+000
4.2458544e+000
3.6840525e+000
3.1847520e+000
2.7674615e+000
2.4472046e+000
2.1618378e+000
1.8112000e+000
1.4007539e+000
9.2241681e-001
4.7405091e-001
1.7468627e-001
-6.5812990e-003
-2.1248091e-002
3.9848231e-002
1.6520011e-001
3.0774465e-001
4.7585961e-001
6.4064747e-001
7.9637516e-001
9.5838767e-001
1.1294428e+000
1.3271219e+000
1.5456963e+000
1.7645590e+000
1.9794126e+000
2.1885278e+000
2.4060271e+000
2.6431136e+000
2.9176531e+000
3.2161930e+000
3.5394101e+000
3.8562150e+000
4.1500583e+000
4.4056668e+000
4.6108866e+000
4.7636261e+000
4.8711796e+000
4.9333401e+000
4.9647593e+000
4.9564738e+000
4.9273572e+000
4.8688059e+000
4.8113461e+000
4.7715559e+000
4.7509160e+000
4.7722034e+000
4.7991357e+000
4.8295059e+000
4.8522811e+000
4.8568277e+000
4.8592329e+000
4.8635759e+000
4.8810921e+000
4.9285841e+000
5.0072479e+000
5.1302299e+000
5.2768598e+000
5.4439025e+000
5.5998559e+000
5.7398438e+000
5.8586574e+000
5.9615989e+000
6.0666051e+000
6.1744995e+000
6.2894464e+000
6.4020748e+000
6.4907346e+000
6.5549822e+000
6.5648484e+000
6.5410838e+000
6.4571829e+000
6.3427672e+000
6.1668758e+000
5.9565287e+000
5.6547041e+000
5.3131886e+000
4.8644485e+000
4.3910899e+000
3.8603578e+000
3.3308909e+000
2.8070941e+000
2.3071918e+000
1.8532040e+000
1.4413403e+000
1.0935590e+000
7.9124081e-001
5.4352599e-001
3.2554924e-001
1.3690701e-001
-3.8497671e-002
-1.9866785e-001
-3.3557662e-001
-4.4942132e-001
-5.2171421e-001
-5.6830072e-001
-5.8441395e-001
-5.8001232e-001
-5.3257632e-001
-4.4972622e-001
-2.6096636e-001
-3.0877218e-002
3.0893227e-001
6.5600419e-001
1.0031619e+000
1.3149731e+000
1.5140986e+000
1.6669209e+000
1.7053410e+000
1.7174588e+000
1.6759136e+000
1.6129714e+000
1.5122988e+000
1.3820897e+000
1.2106472e+000
1.0142392e+000
7.9161143e-001
5.6671649e-001
3.4776950e-001
1.7366618e-001
4.2829879e-002
-1.4396258e-002
-1.6503680e-002
8.3349563e-002
2.3831749e-001
4.7883189e-001
7.3621213e-001
9.6066570e-001
1.1573179e+000
1.2376840e+000
1.2971611e+000
1.3023785e+000
1.3202072e+000
1.3962388e+000
1.5002568e+000
1.6911563e+000
1.8797200e+000
2.0567470e+000
2.1868181e+000
2.2214959e+000
2.2077615e+000
2.1189570e+000
2.0149183e+000
1.8975559e+000
1.8190632e+000
1.7862663e+000
1.8144243e+000
1.8906769e+000
1.9794472e+000
2.0678473e+000
2.0985630e+000
2.0906441e+000
1.9902444e+000
1.8543526e+000
1.6820042e+000
1.5094451e+000
1.3962650e+000
1.3003520e+000
1.2754152e+000
1.2518071e+000
1.2135855e+000
1.1619858e+000
1.0524594e+000
9.4069022e-001
8.2374221e-001
7.2101682e-001
6.5328932e-001
6.0005867e-001
5.7251006e-001
5.4246879e-001
5.0637066e-001
4.4901100e-001
3.6670712e-001
2.7105182e-001
1.6255072e-001
3.7683569e-002
-9.8672733e-002
-2.4065731e-001
-3.8018352e-001
-4.6105003e-001
-5.1525277e-001
-5.2199316e-001
-5.1744086e-001
-5.2906239e-001
-5.4452449e-001
-5.7373559e-001
-6.0703099e-001
-6.7592889e-001
-7.5145435e-001
-8.7024307e-001
-9.8466516e-001
-1.0793715e+000
-1.1613730e+000
-1.2041337e+000
-1.2294667e+000
-1.2139044e+000
-1.1711950e+000
-1.0809454e+000
-9.8938066e-001
-8.9755559e-001
-8.3852106e-001
-8.1446540e-001
-8.0750215e-001
-8.1394136e-001
-8.1619090e-001
-8.1555432e-001
-8.1684196e-001
-8.1871635e-001
-8.1737524e-001
-8.1275970e-001
-7.5324261e-001
-6.7881942e-001
-5.2695596e-001
-3.6693320e-001
-2.3307058e-001
-1.0426328e-001
-3.3129003e-002
1.0514054e-003
3.2980919e-002
1.0477138e-001
2.2056639e-001
3.2863629e-001
4.1409424e-001
4.8479134e-001
5.2412510e-001
5.6596142e-001
6.1217773e-001
6.7158580e-001
7.4662012e-001
7.8692561e-001
7.9343504e-001
7.1214890e-001
5.6791848e-001
3.5770607e-001
1.1413509e-001
-7.4889719e-002
-2.4028715e-001
-2.4383050e-001
-2.0333558e-001
-7.1786523e-002
7.4720673e-002
1.5347999e-001
