Image.
>Pix99999.
  .
5555
5555
2300
900
5555
2
1
0
701
5555
2.2235000e-001
2.2697338e-001
2.3159677e-001
2.3623011e-001
2.4085353e-001
2.4547693e-001
2.5010031e-001
2.5473359e-001
2.5935706e-001
2.6398048e-001
2.6860386e-001
2.7323708e-001
2.7786064e-001
2.8247419e-001
2.8710720e-001
2.9176992e-001
2.9636484e-001
3.0086070e-001
3.0560759e-001
3.1071103e-001
3.1488141e-001
3.1774509e-001
3.2405791e-001
3.3522740e-001
3.3359131e-001
2.9498714e-001
1.9020692e-001
6.5846955e-003
-1.9659448e-001
-3.5402876e-001
-4.5807031e-001
-5.1995492e-001
-5.6020933e-001
-5.9778982e-001
-6.3542891e-001
-6.7145997e-001
-7.0582443e-001
-7.4136513e-001
-7.9069650e-001
-8.6561066e-001
-9.6310914e-001
-1.0725430e+000
-1.1699920e+000
-1.2343668e+000
-1.2697817e+000
-1.2878071e+000
-1.2963743e+000
-1.3015643e+000
-1.3044149e+000
-1.3064600e+000
-1.3165357e+000
-1.3398296e+000
-1.3572446e+000
-1.3475934e+000
-1.3118160e+000
-1.2630128e+000
-1.2344440e+000
-1.2571933e+000
-1.3270851e+000
-1.4255956e+000
-1.5210485e+000
-1.5826021e+000
-1.5979991e+000
-1.5666040e+000
-1.5082496e+000
-1.4484528e+000
-1.4078488e+000
-1.4021202e+000
-1.4352154e+000
-1.5046943e+000
-1.6006399e+000
-1.7076356e+000
-1.7979075e+000
-1.8455157e+000
-1.8472277e+000
-1.8140428e+000
-1.7814851e+000
-1.7872560e+000
-1.8428694e+000
-1.9439145e+000
-2.0566943e+000
-2.1430957e+000
-2.1872199e+000
-2.1872165e+000
-2.1644242e+000
-2.1420715e+000
-2.1173837e+000
-2.0806727e+000
-2.0343714e+000
-1.9902561e+000
-1.9769443e+000
-2.0192132e+000
-2.0995286e+000
-2.1854477e+000
-2.2486696e+000
-2.2709608e+000
-2.2660382e+000
-2.2555966e+000
-2.2442100e+000
-2.2285194e+000
-2.2014287e+000
-2.1593919e+000
-2.1194265e+000
-2.1033804e+000
-2.1204164e+000
-2.1704500e+000
-2.2376757e+000
-2.3023324e+000
-2.3531172e+000
-2.3833957e+000
-2.3919830e+000
-2.3795056e+000
-2.3470120e+000
-2.2982812e+000
-2.2494824e+000
-2.2201221e+000
-2.2225742e+000
-2.2596295e+000
-2.3061266e+000
-2.3298700e+000
-2.3163629e+000
-2.2650912e+000
-2.1989515e+000
-2.1467924e+000
-2.1224010e+000
-2.1297607e+000
-2.1603899e+000
-2.2004070e+000
-2.2344573e+000
-2.2487204e+000
-2.2393630e+000
-2.2085938e+000
-2.1664784e+000
-2.1240990e+000
-2.0810888e+000
-2.0314744e+000
-1.9666502e+000
-1.8810142e+000
-1.7850411e+000
-1.6969573e+000
-1.6374199e+000
-1.6240050e+000
-1.6571785e+000
-1.7265925e+000
-1.8086022e+000
-1.8776528e+000
-1.9234903e+000
-1.9462200e+000
-1.9584378e+000
-1.9758918e+000
-2.0042000e+000
-2.0432694e+000
-2.0893075e+000
-2.1360145e+000
-2.1724858e+000
-2.1890094e+000
-2.1877921e+000
-2.1784000e+000
-2.1749935e+000
-2.1882250e+000
-2.2066257e+000
-2.2097449e+000
-2.1860354e+000
-2.1337385e+000
-2.0709178e+000
-2.0222714e+000
-2.0007622e+000
-2.0101681e+000
-2.0422440e+000
-2.0830359e+000
-2.1186399e+000
-2.1364732e+000
-2.1300206e+000
-2.0991194e+000
-2.0594921e+000
-2.0318501e+000
-2.0246525e+000
-2.0361543e+000
-2.0505655e+000
-2.0489645e+000
-2.0282571e+000
-1.9956017e+000
-1.9643739e+000
-1.9476633e+000
-1.9456056e+000
-1.9466622e+000
-1.9199517e+000
-1.8339828e+000
-1.6964858e+000
-1.5412251e+000
-1.4200143e+000
-1.3803018e+000
-1.4167497e+000
-1.4947956e+000
-1.5823836e+000
-1.6555686e+000
-1.7092479e+000
-1.7470158e+000
-1.7659663e+000
-1.7606820e+000
-1.7341714e+000
-1.6963432e+000
-1.6634572e+000
-1.6524570e+000
-1.6689309e+000
-1.7095479e+000
-1.7610852e+000
-1.8067322e+000
-1.8363092e+000
-1.8459550e+000
-1.8411200e+000
-1.8303568e+000
-1.8131360e+000
-1.7836154e+000
-1.7372667e+000
-1.6743550e+000
-1.6100092e+000
-1.5654840e+000
-1.5508949e+000
-1.5663724e+000
-1.6007057e+000
-1.6371237e+000
-1.6600451e+000
-1.6588219e+000
-1.6378160e+000
-1.6099929e+000
-1.5860384e+000
-1.5720401e+000
-1.5629685e+000
-1.5494342e+000
-1.5309728e+000
-1.5098270e+000
-1.4727817e+000
-1.3995582e+000
-1.2841901e+000
-1.1383343e+000
-1.0061684e+000
-9.4144565e-001
-9.5245540e-001
-1.0115606e+000
-1.0721428e+000
-1.0875903e+000
-1.0520388e+000
-9.8784059e-001
-9.2074293e-001
-8.7046999e-001
-8.3418822e-001
-7.9538357e-001
-7.4288905e-001
-6.7505187e-001
-6.0897928e-001
-5.6770241e-001
-5.4649359e-001
-5.2146310e-001
-4.7424728e-001
-3.9910555e-001
-3.1922954e-001
-2.6729128e-001
-2.3155206e-001
-1.7417860e-001
-9.0055831e-002
-4.9876813e-003
3.7840012e-002
1.6132016e-003
-8.1141040e-002
-1.3453943e-001
-1.1472680e-001
-2.7108476e-002
3.2073405e-002
-6.2533244e-002
-2.8739443e-001
-5.1340634e-001
-6.6031772e-001
-7.0996082e-001
-6.9352859e-001
-6.6891611e-001
-6.8246025e-001
-7.5556445e-001
-8.5232979e-001
-9.0221012e-001
-8.6375999e-001
-7.3468643e-001
-5.6641597e-001
-4.3643609e-001
-3.7301445e-001
-3.5519099e-001
-3.3168146e-001
-2.3703690e-001
-1.9117169e-002
3.5592452e-001
8.9601070e-001
1.5783265e+000
2.3212931e+000
3.0218873e+000
3.6798239e+000
4.3947554e+000
5.3248010e+000
6.6663508e+000
8.6406822e+000
1.1403503e+001
1.4729000e+001
1.8113119e+001
2.1197523e+001
2.3860813e+001
2.6320131e+001
2.9018608e+001
3.2283211e+001
3.6205982e+001
4.0421558e+001
4.4304146e+001
4.7674156e+001
5.0797489e+001
5.4024746e+001
5.7647156e+001
6.1680485e+001
6.5912346e+001
7.0148132e+001
7.4250610e+001
7.8080231e+001
8.1510590e+001
8.4526886e+001
8.7219559e+001
8.9718765e+001
9.2119415e+001
9.4262573e+001
9.5799675e+001
9.6555840e+001
9.6556366e+001
9.5852226e+001
9.4473183e+001
9.2406319e+001
8.9633591e+001
8.6298813e+001
8.2674522e+001
7.8914169e+001
7.5028755e+001
7.0992561e+001
6.6787254e+001
6.2474049e+001
5.8186760e+001
5.4054859e+001
5.0186661e+001
4.6680149e+001
4.3613091e+001
4.0985172e+001
3.8722450e+001
3.6743877e+001
3.4981331e+001
3.3394196e+001
3.1967571e+001
3.0695999e+001
2.9577990e+001
2.8610058e+001
2.7788710e+001
2.7122831e+001
2.6631350e+001
2.6321869e+001
2.6191891e+001
2.6251637e+001
2.6525473e+001
2.7034428e+001
2.7780876e+001
2.8698303e+001
2.9657913e+001
3.0556040e+001
3.1337742e+001
3.2005306e+001
3.2643497e+001
3.3509766e+001
3.4971718e+001
3.7113941e+001
3.9665840e+001
4.2207508e+001
4.4304306e+001
4.5853813e+001
4.7108643e+001
4.8273045e+001
4.9396881e+001
5.0426239e+001
5.1224442e+001
5.1639515e+001
5.1552094e+001
5.1004463e+001
5.0199127e+001
4.9275856e+001
4.8255901e+001
4.7096455e+001
4.5721684e+001
4.4111023e+001
4.2325073e+001
4.0484226e+001
3.8722866e+001
3.6999878e+001
3.5076790e+001
3.2758610e+001
2.9994629e+001
2.6979115e+001
2.4120525e+001
2.1638638e+001
1.9464649e+001
1.7439285e+001
1.5385321e+001
1.3228024e+001
1.1021141e+001
8.8341246e+000
6.7275538e+000
4.7825041e+000
3.0981104e+000
1.7280926e+000
6.8884021e-001
1.1800386e-001
2.6205695e-001
1.1010778e+000
2.2689331e+000
3.4573960e+000
4.5425348e+000
5.5140390e+000
6.4371619e+000
7.2827911e+000
7.8886914e+000
8.1248398e+000
7.9660921e+000
7.5400529e+000
7.1160288e+000
6.8282123e+000
6.5978570e+000
6.3457222e+000
6.0540190e+000
5.7194757e+000
5.3373423e+000
4.8847899e+000
4.3238878e+000
3.6625447e+000
2.9756956e+000
2.3497641e+000
1.8598751e+000
1.5428079e+000
1.3848133e+000
1.3571457e+000
1.4278784e+000
1.5749400e+000
1.7910709e+000
2.0708215e+000
2.4058578e+000
2.7820010e+000
3.1772313e+000
3.5682044e+000
3.9323797e+000
4.2494001e+000
4.5043302e+000
4.6962285e+000
4.8425488e+000
4.9629965e+000
5.0715322e+000
5.1625156e+000
5.2048049e+000
5.1712379e+000
5.0505142e+000
4.8446355e+000
4.5704994e+000
4.2499514e+000
3.9080415e+000
3.5740039e+000
3.2773201e+000
3.0173309e+000
2.7481201e+000
2.4201326e+000
2.0016980e+000
1.5119531e+000
1.0382390e+000
6.5300828e-001
3.7716222e-001
1.9519106e-001
5.7300732e-002
-6.3355364e-002
-1.4572001e-001
-1.6333281e-001
-1.0274027e-001
2.0306446e-002
1.5047452e-001
2.4093057e-001
2.7601656e-001
2.6432982e-001
2.4148031e-001
2.4181275e-001
2.8632301e-001
3.8580495e-001
5.3777200e-001
7.2875583e-001
9.3294781e-001
1.1279500e+000
1.3023667e+000
1.4504800e+000
1.5719290e+000
1.6659123e+000
1.7296828e+000
1.7644331e+000
1.7794300e+000
1.7882957e+000
1.8087540e+000
1.8563000e+000
1.9390714e+000
2.0550807e+000
2.1872551e+000
2.3166640e+000
2.4281628e+000
2.5169895e+000
2.5945852e+000
2.6747744e+000
2.7682502e+000
2.8788800e+000
3.0010250e+000
3.1318612e+000
3.2788320e+000
3.4564705e+000
3.6869850e+000
3.9846063e+000
4.3450112e+000
4.7537460e+000
5.1877885e+000
5.6329370e+000
6.0963750e+000
6.5947075e+000
7.1505442e+000
7.7752080e+000
8.4538250e+000
9.1574020e+000
9.8425245e+000
1.0470057e+001
1.1016524e+001
1.1470015e+001
1.1830739e+001
1.2103400e+001
1.2293537e+001
1.2402145e+001
1.2429749e+001
1.2373245e+001
1.2223142e+001
1.1974711e+001
1.1635770e+001
1.1221857e+001
1.0754337e+001
1.0251845e+001
9.7182169e+000
9.1557722e+000
8.5650415e+000
7.9503498e+000
7.3233747e+000
6.6975708e+000
6.0855856e+000
5.4960642e+000
4.9288816e+000
4.3804245e+000
3.8443580e+000
3.3178563e+000
2.8077550e+000
2.3277538e+000
1.9013412e+000
1.5525968e+000
1.3005420e+000
1.1532600e+000
1.0965780e+000
1.1045212e+000
1.1378778e+000
1.1607223e+000
1.1522229e+000
1.1036046e+000
1.0249475e+000
9.2950010e-001
8.2687140e-001
7.2306627e-001
6.1753839e-001
5.0789487e-001
3.9147514e-001
2.6889440e-001
1.4901716e-001
4.6464454e-002
-1.5948698e-002
-1.9312885e-002
4.2029381e-002
1.7446914e-001
3.9255410e-001
7.0385021e-001
1.0933746e+000
1.5287542e+000
1.9508350e+000
2.3067632e+000
2.5781600e+000
2.7759240e+000
2.9614503e+000
3.1947157e+000
3.5004635e+000
3.8764389e+000
4.2766333e+000
4.6581626e+000
5.0130501e+000
5.3468881e+000
5.6789498e+000
6.0260091e+000
6.3915482e+000
6.7793427e+000
7.2013884e+000
7.6618719e+000
8.1396980e+000
8.6014071e+000
8.9983168e+000
9.2946634e+000
9.4987526e+000
9.6340504e+000
9.7366133e+000
9.8377142e+000
9.9486313e+000
1.0077234e+001
1.0234614e+001
1.0427169e+001
1.0640229e+001
1.0850760e+001
1.1013672e+001
1.1091360e+001
1.1064999e+001
1.0934457e+001
1.0722205e+001
1.0455574e+001
1.0164319e+001
9.8662434e+000
9.5541353e+000
9.2181168e+000
8.8573380e+000
8.4806108e+000
8.1174984e+000
7.7900100e+000
7.4834991e+000
7.1739058e+000
6.8357010e+000
6.4562497e+000
6.0605640e+000
5.6755252e+000
5.3055091e+000
4.9459195e+000
4.5832171e+000
4.2106743e+000
3.8498616e+000
3.5253830e+000
3.2515125e+000
3.0350881e+000
2.8692501e+000
2.7361083e+000
2.5953777e+000
2.4044402e+000
2.1319423e+000
1.7691714e+000
1.3706449e+000
9.9917972e-001
6.9452727e-001
4.7404575e-001
3.0246526e-001
1.4345752e-001
-1.8118322e-004
-1.1050700e-001
-1.5220310e-001
-9.7785302e-002
3.9990753e-002
2.3499246e-001
4.4993207e-001
6.5119064e-001
8.2694399e-001
9.7209096e-001
1.0858657e+000
1.1656504e+000
1.1991080e+000
1.1741000e+000
1.0876602e+000
9.3970883e-001
7.3325527e-001
4.8471799e-001
2.5525320e-001
9.7962052e-002
-2.1548346e-003
-6.5929785e-002
-7.5042762e-002
-2.1629971e-002
2.9341452e-002
1.4221139e-002
-5.9402518e-002
-1.6595474e-001
-2.7901322e-001
-3.7820160e-001
-4.6652523e-001
-5.4760921e-001
-6.0579008e-001
-6.2563771e-001
-6.1135650e-001
-5.8704495e-001
-6.3441700e-001
-8.3222675e-001
-1.1915665e+000
-1.6760023e+000
-2.1299527e+000
-2.3979323e+000
-2.4438388e+000
-2.2613001e+000
