Image.
>Pix99999.
  .
5555
5555
2300
900
5555
2
1
0
701
5555
3.9646998e-003
4.0471824e-003
4.1296640e-003
4.2121462e-003
4.2946278e-003
4.3771099e-003
4.4595920e-003
4.5420737e-003
4.6245563e-003
4.7069392e-003
4.7894199e-003
4.8719021e-003
4.9543837e-003
5.0368663e-003
5.1193479e-003
5.2018301e-003
5.2843122e-003
5.3667938e-003
5.4492760e-003
5.5317581e-003
5.6142402e-003
5.6967223e-003
5.7792040e-003
5.8616861e-003
5.9441677e-003
6.0266498e-003
2.2395657e-004
5.3486194e-002
1.1736768e-001
1.0189009e-001
7.4617244e-002
-7.2364174e-002
-2.2605138e-001
-3.3698955e-001
-4.2987075e-001
-3.9518148e-001
-3.3774242e-001
-2.0611799e-001
-7.4138813e-002
4.6750996e-002
1.3471548e-001
1.5211393e-001
1.4347120e-001
9.9159792e-002
6.6224217e-002
5.0208714e-002
6.1096545e-002
9.6881360e-002
1.4807625e-001
2.0957109e-001
2.4556643e-001
2.6645941e-001
2.4028668e-001
1.9389839e-001
1.1963528e-001
3.6744643e-002
-6.5751158e-002
-1.7263459e-001
-2.8225571e-001
-3.9160410e-001
-4.4780600e-001
-4.9539727e-001
-5.0054991e-001
-5.0041342e-001
-4.9305782e-001
-4.8252285e-001
-4.6304345e-001
-4.3255362e-001
-3.7616211e-001
-3.0502138e-001
-2.1087600e-001
-1.3292755e-001
-8.1876338e-002
-4.1729614e-002
-1.0711975e-002
3.7888803e-002
1.0286949e-001
1.4011300e-001
1.5685534e-001
1.6065462e-001
1.5855628e-001
1.5840033e-001
1.5936466e-001
9.6062399e-002
1.2247585e-002
-9.8326281e-002
-2.1476309e-001
-2.3954223e-001
-2.4366908e-001
-1.3406999e-001
-1.1392982e-002
8.7886527e-002
1.5085137e-001
6.7996703e-002
-6.2229522e-002
-2.7105367e-001
-4.6584162e-001
-6.0414630e-001
-6.7806280e-001
-6.5793419e-001
-5.8876574e-001
-4.7362575e-001
-3.7058288e-001
-2.8703943e-001
-2.4906074e-001
-2.4630350e-001
-2.5587791e-001
-2.7033880e-001
-2.8131858e-001
-2.9019463e-001
-2.9749900e-001
-3.0428123e-001
-3.2024321e-001
-3.3923927e-001
-4.0442413e-001
-4.8088342e-001
-5.5191499e-001
-6.1563855e-001
-6.1350387e-001
-5.9110469e-001
-5.2858430e-001
-4.5358577e-001
-3.6277330e-001
-2.7043033e-001
-1.8277486e-001
-1.2847072e-001
-1.3751701e-001
-2.0457828e-001
-3.4038514e-001
-4.7045264e-001
-5.7725018e-001
-6.4255345e-001
-6.7190343e-001
-7.2386181e-001
-7.9897994e-001
-8.5710847e-001
-9.0217882e-001
-8.4848720e-001
-7.4457598e-001
-6.3623178e-001
-5.2851003e-001
-4.9289313e-001
-4.8113942e-001
-5.3392243e-001
-6.0629469e-001
-7.2903621e-001
-8.5085720e-001
-8.7688512e-001
-8.4952962e-001
-6.9827330e-001
-5.3724855e-001
-4.4222456e-001
-4.0602303e-001
-4.6355593e-001
-5.1209038e-001
-5.0258583e-001
-4.3241531e-001
-2.9701948e-001
-1.8827817e-001
-1.2740617e-001
-1.4054085e-001
-2.1313369e-001
-2.4389957e-001
-2.3386501e-001
-1.3801149e-001
7.6614693e-003
1.0079290e-001
1.6261001e-001
1.3023201e-001
5.8604531e-002
-4.0316973e-002
-1.4644004e-001
-2.1360679e-001
-2.6519480e-001
-2.9622018e-001
-3.2736000e-001
-3.9252406e-001
-4.6042830e-001
-4.9296796e-001
-5.0878304e-001
-5.0759315e-001
-5.2340323e-001
-5.8623320e-001
-6.3691676e-001
-6.4880252e-001
-5.4056126e-001
-2.9099357e-001
6.5210059e-002
4.9801737e-001
8.1163251e-001
1.0033542e+000
1.0274310e+000
9.4414026e-001
8.5953856e-001
7.8659248e-001
7.0082092e-001
6.0742241e-001
5.0094676e-001
3.8949949e-001
4.0258488e-001
4.7167286e-001
6.2577802e-001
7.9611909e-001
8.5623389e-001
8.3804047e-001
6.6904533e-001
4.3867505e-001
1.9340359e-001
-1.9703548e-002
-1.4736550e-001
-1.8276499e-001
-1.0675674e-001
7.0192799e-002
3.4122518e-001
6.1864465e-001
8.7254405e-001
9.7300768e-001
9.2326558e-001
7.6042521e-001
5.2903277e-001
3.4033230e-001
1.9457011e-001
1.7825305e-001
2.4123536e-001
3.9745241e-001
5.9903753e-001
6.8443495e-001
6.9870323e-001
4.9384153e-001
1.8290299e-001
-1.7277589e-001
-5.2042323e-001
-7.3168457e-001
-8.0346215e-001
-5.8911544e-001
-2.5647035e-001
7.2566740e-002
2.5746077e-001
1.3880374e-001
-1.1540343e-001
-4.0454370e-001
-5.8806026e-001
-6.0332215e-001
-5.0185633e-001
-3.2532182e-001
-1.4654975e-001
1.1241645e-002
1.0074572e-001
1.3077348e-001
1.0987428e-001
5.8021285e-002
8.0236353e-002
1.6158520e-001
3.2150766e-001
5.2952516e-001
6.7263371e-001
7.7249002e-001
7.8754699e-001
7.6534927e-001
7.9642987e-001
8.6399543e-001
9.6522081e-001
1.0223774e+000
8.9966184e-001
6.7942494e-001
4.4081831e-001
2.6584899e-001
2.2685377e-001
8.9492857e-002
-1.3380703e-001
-2.5251856e-001
-2.3464945e-001
4.6507314e-002
5.8806592e-001
1.1634437e+000
1.6912893e+000
1.8435017e+000
1.6552590e+000
1.3249965e+000
9.3233705e-001
8.3273000e-001
9.6205610e-001
1.1149931e+000
1.2535962e+000
9.9437976e-001
4.8683888e-001
6.0702130e-002
-2.0821197e-001
8.5628062e-002
8.9371121e-001
2.2372315e+000
3.7160883e+000
4.7753000e+000
5.4912438e+000
5.9246879e+000
6.4730186e+000
7.4949098e+000
9.3445120e+000
1.2192875e+001
1.5795957e+001
1.9910713e+001
2.3563900e+001
2.6412678e+001
2.8891502e+001
3.1217354e+001
3.4412277e+001
3.8522717e+001
4.3335762e+001
4.8646358e+001
5.3063957e+001
5.6675228e+001
6.0214115e+001
6.3786732e+001
6.8063454e+001
7.2868370e+001
7.7674805e+001
8.2409317e+001
8.6816170e+001
9.0897850e+001
9.4623268e+001
9.8020027e+001
1.0112951e+002
1.0375980e+002
1.0570094e+002
1.0630109e+002
1.0509179e+002
1.0266537e+002
9.9612511e+001
9.6281120e+001
9.2913826e+001
8.9088310e+001
8.4685326e+001
8.0107399e+001
7.5520958e+001
7.1221039e+001
6.7231880e+001
6.3085201e+001
5.8728065e+001
5.4305889e+001
4.9848946e+001
4.5570629e+001
4.1507828e+001
3.7878139e+001
3.4714790e+001
3.2071815e+001
2.9922215e+001
2.8095892e+001
2.6574768e+001
2.5266663e+001
2.4173038e+001
2.3258499e+001
2.2549871e+001
2.2053595e+001
2.1762354e+001
2.1644205e+001
2.1674299e+001
2.1813932e+001
2.2092220e+001
2.2510719e+001
2.3186403e+001
2.4156572e+001
2.5350206e+001
2.6739967e+001
2.8021606e+001
2.9129160e+001
3.0111443e+001
3.0980976e+001
3.2185871e+001
3.3833309e+001
3.6344311e+001
3.9663273e+001
4.2681438e+001
4.5253326e+001
4.7042469e+001
4.8181366e+001
4.9350105e+001
5.0528931e+001
5.1673492e+001
5.2463058e+001
5.2472225e+001
5.1750145e+001
5.0485558e+001
4.9005184e+001
4.7643494e+001
4.6358810e+001
4.5115799e+001
4.3804413e+001
4.2362652e+001
4.0739944e+001
3.8916851e+001
3.7056400e+001
3.5205448e+001
3.3299519e+001
3.1302908e+001
2.8799747e+001
2.5649963e+001
2.2512068e+001
1.9470175e+001
1.6957186e+001
1.5036560e+001
1.3165572e+001
1.1355988e+001
9.6070089e+000
7.9469876e+000
6.4105926e+000
4.9789305e+000
3.5610061e+000
2.2464280e+000
1.1481963e+000
3.8153049e-001
5.7844561e-002
2.4917993e-001
9.7813517e-001
1.7918980e+000
2.4317949e+000
2.9210894e+000
3.2370806e+000
3.6422162e+000
4.2720475e+000
4.9787564e+000
5.7450600e+000
6.2173376e+000
6.2302356e+000
6.0997119e+000
5.7929835e+000
5.5092177e+000
5.2549472e+000
5.0034399e+000
4.7628198e+000
4.5727935e+000
4.4199443e+000
4.2257771e+000
3.9571564e+000
3.5812480e+000
3.1605899e+000
2.8494172e+000
2.6937890e+000
2.7345612e+000
2.9140429e+000
3.1512902e+000
3.3968742e+000
3.6007431e+000
3.8023272e+000
4.0211172e+000
4.2561159e+000
4.5083823e+000
4.7580180e+000
5.0010624e+000
5.2548718e+000
5.5337396e+000
5.8009787e+000
6.0417490e+000
6.1941147e+000
6.2024188e+000
6.1224031e+000
5.9096103e+000
5.6448441e+000
5.3136220e+000
4.9785161e+000
4.6371183e+000
4.2961740e+000
3.9524019e+000
3.6148579e+000
3.3030252e+000
3.0512788e+000
2.8345351e+000
2.5880802e+000
2.2665737e+000
1.7987229e+000
1.2697533e+000
7.6060498e-001
3.4431833e-001
1.2299844e-001
1.3893689e-002
3.8269684e-002
1.0770721e-001
2.2736040e-001
3.6353356e-001
5.2163523e-001
6.6757262e-001
7.8773659e-001
8.7570751e-001
9.2103934e-001
9.7801900e-001
1.0629641e+000
1.1953964e+000
1.3942965e+000
1.6366082e+000
1.9251308e+000
2.2219644e+000
2.5080800e+000
2.7344594e+000
2.8913417e+000
2.9677842e+000
2.9895957e+000
2.9958315e+000
3.0033262e+000
3.0368571e+000
3.0806434e+000
3.1253481e+000
3.1635001e+000
3.1863163e+000
3.2128530e+000
3.2602997e+000
3.3231521e+000
3.4194443e+000
3.5126150e+000
3.5933814e+000
3.6646159e+000
3.7162704e+000
3.7708972e+000
3.8303099e+000
3.8967116e+000
3.9764230e+000
4.0770898e+000
4.2165356e+000
4.4020915e+000
4.6510477e+000
4.9452162e+000
5.2897387e+000
5.6670284e+000
6.0800653e+000
6.5322452e+000
7.0186501e+000
7.5397439e+000
8.0713253e+000
8.5823803e+000
9.0585947e+000
9.4458170e+000
9.7793369e+000
1.0016353e+001
1.0208833e+001
1.0313040e+001
1.0357610e+001
1.0234986e+001
1.0046129e+001
9.6807804e+000
9.2977591e+000
8.8724241e+000
8.4391537e+000
7.9831915e+000
7.4785666e+000
6.8928714e+000
6.2855196e+000
5.6556902e+000
5.0553846e+000
4.4931917e+000
3.9596472e+000
3.4592564e+000
2.9941347e+000
2.5601714e+000
2.1525834e+000
1.7618749e+000
1.3796890e+000
1.0161602e+000
7.1487415e-001
4.6396950e-001
3.3616757e-001
2.7024794e-001
3.4211388e-001
4.5464799e-001
6.5501946e-001
8.4713399e-001
9.8654151e-001
1.0893954e+000
1.0824908e+000
1.0686615e+000
1.0406940e+000
1.0318422e+000
1.0562714e+000
1.0581229e+000
1.0152085e+000
9.1562855e-001
7.4158466e-001
5.5423141e-001
3.5955429e-001
2.0015520e-001
8.0754578e-002
1.9367954e-002
9.0452693e-003
6.7873493e-002
1.7431210e-001
3.6472303e-001
6.0607785e-001
9.4593346e-001
1.3302879e+000
1.8068700e+000
2.2927074e+000
2.7418079e+000
3.1562002e+000
3.4025714e+000
3.6030390e+000
3.6223743e+000
3.6237082e+000
3.5747013e+000
3.5825100e+000
3.7360520e+000
3.9608188e+000
4.3222356e+000
4.6910005e+000
5.0673714e+000
5.4169321e+000
5.7301741e+000
6.0143991e+000
6.2728934e+000
6.5453610e+000
6.8406973e+000
7.2233396e+000
7.6572795e+000
8.0909586e+000
8.4948740e+000
8.6873655e+000
8.7946701e+000
8.7835770e+000
8.7641459e+000
8.8732882e+000
8.9934759e+000
9.0720825e+000
9.1079264e+000
8.8812761e+000
8.6378517e+000
8.3252316e+000
8.0545444e+000
7.9210701e+000
7.8448038e+000
7.9068251e+000
7.9923267e+000
8.1176634e+000
8.2083378e+000
8.2445698e+000
8.2311602e+000
8.1575518e+000
8.0404749e+000
7.8766222e+000
7.6277075e+000
7.3142486e+000
6.9349298e+000
6.5194411e+000
6.0842271e+000
5.6439271e+000
5.2300797e+000
4.8292971e+000
4.4949794e+000
4.1673770e+000
3.7902482e+000
3.4051771e+000
2.9765673e+000
2.5478926e+000
2.1208143e+000
1.6750096e+000
1.1485707e+000
6.4085430e-001
1.9502057e-001
-1.8538103e-001
-4.1513029e-001
-6.1784327e-001
-7.7311939e-001
-9.1144735e-001
-1.0242380e+000
-1.0829757e+000
-1.0784018e+000
-9.4298196e-001
-6.9609702e-001
-3.1154436e-001
1.5200529e-001
5.3761601e-001
8.7428749e-001
9.3772787e-001
9.0393668e-001
6.7255366e-001
3.9994559e-001
1.4573693e-001
-9.8945200e-002
-1.6881622e-001
-2.1778031e-001
-7.1775638e-002
7.4166805e-003
2.2331823e-001
4.3547627e-001
6.3135999e-001
8.2596689e-001
1.0159025e+000
1.1761968e+000
1.2714945e+000
1.2974617e+000
1.2139014e+000
1.1826420e+000
1.2176137e+000
1.4090738e+000
1.7457321e+000
2.1038387e+000
2.4764478e+000
2.8061097e+000
3.1139588e+000
3.5396338e+000
4.0100365e+000
4.5464649e+000
5.0984135e+000
5.4043617e+000
5.6700869e+000
5.6606002e+000
