Image.
>Pix99999.
  .
5555
5555
2300
900
5555
2
1
0
701
5555
3.5194999e-003
3.5926953e-003
3.6659902e-003
3.7391859e-003
3.8123811e-003
3.8855763e-003
3.9587719e-003
4.0320661e-003
4.1052625e-003
4.1784574e-003
4.2516529e-003
4.3249466e-003
4.3981439e-003
4.4713388e-003
4.5445343e-003
4.6178270e-003
4.6910248e-003
4.7642197e-003
4.8374152e-003
4.9107079e-003
4.9839057e-003
5.0571011e-003
5.1302966e-003
5.2035884e-003
5.2767866e-003
5.3499821e-003
1.9881086e-004
1.1959210e-002
-4.0180883e-003
-4.6801571e-002
-9.3310960e-002
-2.0368809e-001
-3.1837651e-001
-4.2659575e-001
-5.2051538e-001
-5.0254452e-001
-4.6641463e-001
-3.7309229e-001
-2.9541588e-001
-2.7456447e-001
-2.7740800e-001
-3.2502210e-001
-3.7521440e-001
-4.2532751e-001
-4.8379514e-001
-5.5270118e-001
-6.3075501e-001
-7.1701396e-001
-7.7793467e-001
-8.1952482e-001
-8.2078069e-001
-7.9948401e-001
-8.0078232e-001
-8.1262898e-001
-8.6095023e-001
-9.2092365e-001
-8.9844960e-001
-8.5686618e-001
-7.4436009e-001
-6.2221599e-001
-5.6588227e-001
-5.2137691e-001
-5.4189336e-001
-5.7595527e-001
-6.5219367e-001
-7.4459463e-001
-8.8087887e-001
-1.0130193e+000
-1.1231989e+000
-1.1818364e+000
-1.1470500e+000
-1.0627170e+000
-9.2059094e-001
-7.9394794e-001
-6.9153357e-001
-6.6382605e-001
-6.9991422e-001
-8.2923120e-001
-1.0187644e+000
-1.2201577e+000
-1.4247485e+000
-1.5218610e+000
-1.5737007e+000
-1.5521519e+000
-1.5085480e+000
-1.4885157e+000
-1.4743954e+000
-1.4797057e+000
-1.4880440e+000
-1.4968685e+000
-1.5025315e+000
-1.4844080e+000
-1.4553692e+000
-1.3935615e+000
-1.3362199e+000
-1.3070928e+000
-1.2960206e+000
-1.3153881e+000
-1.3292780e+000
-1.3262779e+000
-1.3118714e+000
-1.2857256e+000
-1.2693129e+000
-1.2648120e+000
-1.2707858e+000
-1.2843950e+000
-1.2804903e+000
-1.2644056e+000
-1.2585709e+000
-1.2588443e+000
-1.3219614e+000
-1.4107748e+000
-1.4619240e+000
-1.4998432e+000
-1.4370706e+000
-1.3509092e+000
-1.3368503e+000
-1.3444790e+000
-1.4330506e+000
-1.5251510e+000
-1.5486858e+000
-1.5488284e+000
-1.5116732e+000
-1.4832928e+000
-1.4946166e+000
-1.5135250e+000
-1.5310041e+000
-1.5192020e+000
-1.4649920e+000
-1.4059623e+000
-1.3526129e+000
-1.3490777e+000
-1.3924508e+000
-1.4716980e+000
-1.5716872e+000
-1.6455785e+000
-1.6999943e+000
-1.6797589e+000
-1.6217397e+000
-1.5550432e+000
-1.4875200e+000
-1.5263863e+000
-1.6022553e+000
-1.7122535e+000
-1.8271074e+000
-1.8743857e+000
-1.9003066e+000
-1.8939661e+000
-1.8823835e+000
-1.8786045e+000
-1.8844072e+000
-1.9104912e+000
-1.9432691e+000
-1.9848830e+000
-2.0072138e+000
-1.9985764e+000
-1.9626155e+000
-1.8987674e+000
-1.8351492e+000
-1.7763743e+000
-1.7134428e+000
-1.6442610e+000
-1.5275477e+000
-1.3742503e+000
-1.2430234e+000
-1.1303051e+000
-1.1682512e+000
-1.2857913e+000
-1.4544160e+000
-1.6415975e+000
-1.7361357e+000
-1.7955558e+000
-1.7931057e+000
-1.7749767e+000
-1.7719271e+000
-1.7782249e+000
-1.8126880e+000
-1.8416061e+000
-1.8382294e+000
-1.8164673e+000
-1.7768943e+000
-1.7558357e+000
-1.7761060e+000
-1.8267940e+000
-1.9000343e+000
-1.9214622e+000
-1.8627368e+000
-1.6652944e+000
-1.3443686e+000
-1.0213764e+000
-7.3034656e-001
-5.8143103e-001
-5.3475040e-001
-5.6951690e-001
-6.4213634e-001
-7.7686787e-001
-9.4352478e-001
-1.0792700e+000
-1.2007612e+000
-1.1528645e+000
-1.0357000e+000
-8.7081981e-001
-7.0616919e-001
-6.7802459e-001
-7.3076284e-001
-9.1725183e-001
-1.1518371e+000
-1.3835309e+000
-1.5831938e+000
-1.7054060e+000
-1.7622200e+000
-1.7364676e+000
-1.6346303e+000
-1.4524436e+000
-1.2646534e+000
-1.1149093e+000
-1.0830332e+000
-1.1761960e+000
-1.3127443e+000
-1.4541430e+000
-1.5514686e+000
-1.6081352e+000
-1.6062335e+000
-1.5650100e+000
-1.4529080e+000
-1.2964180e+000
-1.2211834e+000
-1.1895204e+000
-1.3039731e+000
-1.4845414e+000
-1.6069529e+000
-1.6839610e+000
-1.6280097e+000
-1.4831578e+000
-1.2435671e+000
-9.8443937e-001
-8.0973375e-001
-7.6017869e-001
-9.0061158e-001
-1.1360061e+000
-1.3933229e+000
-1.5887455e+000
-1.6770068e+000
-1.6636851e+000
-1.5737537e+000
-1.4327400e+000
-1.2637866e+000
-1.1199070e+000
-1.0000712e+000
-9.2447734e-001
-8.7828785e-001
-7.7809095e-001
-6.4334917e-001
-4.7002482e-001
-2.8435713e-001
-1.5081114e-001
-5.4882489e-002
1.1679593e-002
6.2652305e-002
1.4306204e-001
2.4772887e-001
3.9151859e-001
5.2250677e-001
5.1778167e-001
4.2150915e-001
2.4466449e-001
8.8800438e-002
6.6667803e-002
3.0915331e-002
-1.0875978e-001
-2.3868287e-001
-2.9696339e-001
-1.4835450e-001
2.3084944e-001
7.1069604e-001
1.2167507e+000
1.4398845e+000
1.3730258e+000
1.1773640e+000
9.2793673e-001
9.3590397e-001
1.1576873e+000
1.3171115e+000
1.3980107e+000
1.0883102e+000
5.2474415e-001
9.2020229e-002
-1.7336413e-001
1.0509086e-001
8.8984418e-001
2.1092014e+000
3.4307108e+000
4.3511262e+000
4.9623094e+000
5.3878961e+000
5.9597883e+000
7.0108576e+000
8.8079414e+000
1.1459239e+001
1.4863300e+001
1.8802856e+001
2.2482491e+001
2.5603285e+001
2.8394241e+001
3.1030645e+001
3.4389412e+001
3.8517715e+001
4.3319534e+001
4.8596722e+001
5.3079300e+001
5.6834114e+001
6.0565819e+001
6.4370110e+001
6.8777206e+001
7.3620262e+001
7.8307899e+001
8.2817917e+001
8.7075096e+001
9.1080658e+001
9.4840767e+001
9.8293915e+001
1.0135986e+002
1.0380400e+002
1.0535704e+002
1.0558068e+002
1.0414000e+002
1.0166811e+002
9.8794250e+001
9.5692345e+001
9.2528069e+001
8.8787628e+001
8.4312706e+001
7.9600487e+001
7.4847061e+001
7.0418686e+001
6.6368454e+001
6.2188721e+001
5.7822140e+001
5.3466015e+001
4.9147850e+001
4.5068600e+001
4.1244350e+001
3.7794090e+001
3.4739708e+001
3.2139275e+001
2.9979607e+001
2.8134260e+001
2.6601263e+001
2.5317303e+001
2.4277622e+001
2.3437500e+001
2.2804783e+001
2.2354509e+001
2.2089258e+001
2.1983194e+001
2.2040422e+001
2.2253618e+001
2.2653721e+001
2.3251320e+001
2.4117704e+001
2.5265915e+001
2.6585716e+001
2.8017626e+001
2.9332716e+001
3.0475719e+001
3.1536444e+001
3.2537666e+001
3.3838745e+001
3.5542652e+001
3.8070217e+001
4.1418514e+001
4.4587952e+001
4.7383129e+001
4.9321442e+001
5.0474354e+001
5.1508572e+001
5.2398525e+001
5.3123161e+001
5.3477261e+001
5.3112011e+001
5.2111515e+001
5.0703880e+001
4.9097855e+001
4.7604412e+001
4.6221149e+001
4.4940201e+001
4.3610291e+001
4.2119320e+001
4.0331314e+001
3.8126923e+001
3.5894043e+001
3.3762577e+001
3.1740879e+001
2.9885906e+001
2.7582788e+001
2.4680685e+001
2.1668354e+001
1.8575233e+001
1.6023127e+001
1.4085401e+001
1.2262000e+001
1.0571631e+001
8.9238644e+000
7.3474698e+000
5.8534966e+000
4.4437242e+000
3.0864780e+000
1.8503461e+000
8.6747360e-001
2.2631687e-001
3.9300345e-002
3.8337553e-001
1.1855996e+000
2.1267471e+000
2.9745917e+000
3.6627064e+000
4.1633177e+000
4.6828656e+000
5.3311701e+000
6.0373077e+000
6.7852197e+000
7.2988997e+000
7.4123302e+000
7.3584208e+000
7.0720758e+000
6.7599072e+000
6.4140725e+000
6.0478992e+000
5.6733522e+000
5.3341932e+000
5.0390658e+000
4.7094417e+000
4.3412719e+000
3.9272346e+000
3.5148380e+000
3.2557435e+000
3.1778450e+000
3.3019083e+000
3.5780537e+000
3.9005730e+000
4.2094488e+000
4.4250259e+000
4.5787005e+000
4.7186604e+000
4.8777132e+000
5.0949030e+000
5.3498020e+000
5.6342168e+000
5.9327197e+000
6.2400613e+000
6.4893856e+000
6.6161113e+000
6.6242375e+000
6.4114656e+000
6.1468735e+000
5.8038249e+000
5.4700756e+000
5.1549244e+000
4.8660603e+000
4.6077032e+000
4.3329172e+000
4.0395799e+000
3.6906381e+000
3.3007450e+000
2.9296629e+000
2.5685380e+000
2.2298605e+000
1.8930757e+000
1.5148257e+000
1.1298475e+000
7.7170217e-001
4.5392507e-001
2.2915524e-001
6.4191505e-002
-2.1534570e-002
-4.6067595e-002
2.2390913e-002
1.5062393e-001
3.9146605e-001
6.3051081e-001
8.4348744e-001
9.8498344e-001
9.6595854e-001
9.1695690e-001
8.2859349e-001
7.9230350e-001
8.6293459e-001
1.0439543e+000
1.3808366e+000
1.7984209e+000
2.2768400e+000
2.6835933e+000
2.9849296e+000
3.1533000e+000
3.2068083e+000
3.2091393e+000
3.1734679e+000
3.1127250e+000
3.0387132e+000
2.9477243e+000
2.8777001e+000
2.8709860e+000
2.9190142e+000
3.0701394e+000
3.2454920e+000
3.4426699e+000
3.6197751e+000
3.7365417e+000
3.8368721e+000
3.9005628e+000
3.9712029e+000
4.0631161e+000
4.1787853e+000
4.3388410e+000
4.5155005e+000
4.7125330e+000
4.9144654e+000
5.1223588e+000
5.3501120e+000
5.6070271e+000
5.9068770e+000
6.2515273e+000
6.6414928e+000
7.0662489e+000
7.5162892e+000
7.9722996e+000
8.4006252e+000
8.7988176e+000
9.1270008e+000
9.4184818e+000
9.6540422e+000
9.8447762e+000
9.9254560e+000
9.9237576e+000
9.6913548e+000
9.3872709e+000
8.8964424e+000
8.3845644e+000
7.8238082e+000
7.2683363e+000
6.7243514e+000
6.1935797e+000
5.6885614e+000
5.2063088e+000
4.7578130e+000
4.3303781e+000
3.9236481e+000
3.5113246e+000
3.0895004e+000
2.6462734e+000
2.1903000e+000
1.7428617e+000
1.3101645e+000
9.1911006e-001
5.6545198e-001
2.9048008e-001
6.7489095e-002
-4.8077598e-002
-1.2038003e-001
-1.1352890e-001
-8.1556924e-002
9.5418170e-003
1.0515958e-001
2.0240451e-001
2.8436735e-001
3.1968820e-001
3.6767757e-001
4.4858429e-001
5.4960442e-001
6.8442303e-001
7.8138769e-001
8.1028670e-001
7.8114909e-001
6.7632091e-001
5.5637681e-001
4.2326286e-001
3.0360425e-001
1.9683278e-001
1.0248716e-001
2.9510636e-002
2.8349571e-002
8.5919477e-002
2.2485062e-001
3.9878768e-001
5.9422994e-001
8.0038464e-001
1.0335503e+000
1.2881633e+000
1.6303120e+000
1.9806538e+000
2.3311701e+000
2.6682959e+000
2.9498396e+000
3.2318349e+000
3.5144756e+000
3.7926250e+000
4.0600104e+000
4.3296905e+000
4.6076598e+000
4.9160357e+000
5.2709289e+000
5.6280284e+000
5.9886360e+000
6.3565779e+000
6.7384658e+000
7.1726370e+000
7.6412535e+000
8.0710058e+000
8.4542665e+000
8.6667585e+000
8.7819738e+000
8.7466183e+000
8.6557665e+000
8.5206165e+000
8.3833227e+000
8.3040457e+000
8.2493401e+000
8.3222332e+000
8.4096403e+000
8.5499096e+000
8.6775770e+000
8.7503443e+000
8.8175936e+000
8.8682060e+000
8.9242907e+000
8.9907818e+000
9.0315390e+000
9.0210953e+000
8.9771652e+000
8.8868599e+000
8.8194599e+000
8.7779512e+000
8.7348261e+000
8.6816998e+000
8.5352812e+000
8.3230324e+000
8.0865879e+000
7.8372021e+000
7.5852470e+000
7.3157263e+000
6.8704257e+000
6.3652029e+000
5.7198024e+000
5.0553322e+000
4.4404879e+000
3.8363965e+000
3.3081698e+000
2.7930067e+000
2.3627446e+000
1.9499689e+000
1.6140429e+000
1.2830156e+000
9.6795130e-001
6.7563057e-001
4.3608713e-001
2.1646166e-001
2.9885516e-002
-1.9286194e-001
-4.6245581e-001
-7.2188061e-001
-9.6394968e-001
-1.0816642e+000
-1.0917748e+000
-9.4050682e-001
-6.8656027e-001
-3.4746075e-001
2.4910599e-002
2.9244494e-001
5.1629233e-001
5.4078472e-001
5.1827604e-001
4.0329301e-001
2.7724320e-001
1.5561228e-001
4.0237308e-002
1.3260857e-002
1.6364232e-003
5.1974505e-002
1.8525064e-001
4.4906622e-001
7.0453286e-001
9.3524957e-001
1.1374412e+000
1.2789578e+000
1.4254360e+000
1.5806285e+000
1.7692001e+000
1.9998484e+000
2.2828896e+000
2.6152947e+000
3.0095599e+000
3.4457595e+000
3.7759519e+000
4.0482330e+000
4.0105767e+000
3.8556280e+000
3.5937493e+000
3.3061812e+000
3.2319875e+000
3.1928568e+000
3.3025000e+000
