Image.
>Pix99999.
  .
5555
5555
2300
900
5555
2
1
0
701
5555
-2.7082000e-002
-2.7645193e-002
-2.8208388e-002
-2.8771583e-002
-2.9335773e-002
-2.9898971e-002
-3.0462166e-002
-3.1025359e-002
-3.1588554e-002
-3.2152735e-002
-3.2715943e-002
-3.3279136e-002
-3.3842333e-002
-3.4405526e-002
-3.4968719e-002
-3.5532892e-002
-3.6096107e-002
-3.6659300e-002
-3.7222497e-002
-3.7785694e-002
-3.8349859e-002
-3.8913079e-002
-3.9476275e-002
-4.0039469e-002
-4.0603630e-002
-4.1166857e-002
3.3651073e-002
1.4093230e-003
-4.2981118e-002
-1.7561509e-001
-3.2136700e-001
-4.1110253e-001
-4.9331686e-001
-4.9806097e-001
-4.9634984e-001
-4.7334602e-001
-4.5250458e-001
-4.4708315e-001
-4.4366241e-001
-4.4416931e-001
-4.5131916e-001
-4.7245201e-001
-5.0475997e-001
-5.5389386e-001
-5.9650868e-001
-6.2967366e-001
-6.5213740e-001
-6.6476429e-001
-6.6353017e-001
-6.5236878e-001
-6.2645000e-001
-5.9248722e-001
-5.3431606e-001
-4.6580625e-001
-3.4538743e-001
-2.0828958e-001
-1.0357540e-001
-6.5268641e-003
-2.7963487e-002
-6.7069329e-002
-1.1029243e-001
-1.4757751e-001
-1.1379423e-001
-7.6841220e-002
-6.0680263e-002
-6.0880974e-002
-1.1366143e-001
-1.5918177e-001
-1.7261109e-001
-1.5555340e-001
-8.6679399e-002
-2.1588266e-002
3.0259805e-002
5.6689117e-002
5.5999700e-002
4.1584034e-002
1.7491160e-002
-1.1981610e-002
-4.4632960e-002
-6.1997183e-002
-7.0794486e-002
-5.3391442e-002
-2.4965722e-002
3.1475957e-002
9.6618876e-002
1.4567350e-001
1.9067355e-001
1.5175501e-001
9.9620812e-002
5.0259255e-002
9.1479812e-003
2.7680738e-002
4.6682179e-002
3.0429590e-002
-4.8606284e-004
-6.0243268e-002
-9.8605439e-002
-8.0761768e-002
-4.1742280e-002
1.8653333e-002
5.7549287e-002
6.3740268e-002
4.6492651e-002
9.8881833e-003
-3.3163942e-002
-7.8446098e-002
-1.0803171e-001
-1.2675405e-001
-1.2216068e-001
-1.0649558e-001
-7.8212813e-002
-4.5415111e-002
2.4875961e-002
1.0685288e-001
2.0603202e-001
3.0655050e-001
3.2609183e-001
3.2101157e-001
2.3787451e-001
1.3950330e-001
4.2360399e-002
-4.0572807e-002
-7.6768525e-002
-7.9761237e-002
-2.4976810e-002
4.1260321e-002
1.0569714e-001
1.1313896e-001
3.8325150e-002
-7.0241064e-002
-1.9648038e-001
-2.4542782e-001
-2.1698263e-001
-1.2913349e-001
-7.7273026e-003
1.1336412e-001
2.2896184e-001
3.6487341e-001
5.1070863e-001
6.0649705e-001
6.8237603e-001
6.1669803e-001
5.0674331e-001
3.1731540e-001
1.1149935e-001
-5.2839685e-002
-1.9368076e-001
-2.5248900e-001
-2.8194702e-001
-2.8670821e-001
-2.8984213e-001
-3.1447896e-001
-3.5571188e-001
-4.1078788e-001
-4.5884180e-001
-4.7341916e-001
-4.5788932e-001
-4.1192386e-001
-3.7227961e-001
-3.5394192e-001
-3.1066141e-001
-2.4365190e-001
-5.6768902e-002
2.1541822e-001
4.8095611e-001
7.3285311e-001
7.4799150e-001
6.4328796e-001
4.0825802e-001
1.2436448e-001
-7.9556167e-002
-2.4834552e-001
-3.1886479e-001
-3.5035005e-001
-3.5812122e-001
-3.6993998e-001
-4.3422720e-001
-5.2895033e-001
-6.2765998e-001
-7.1164024e-001
-7.4323827e-001
-7.5681597e-001
-7.8192860e-001
-8.2358122e-001
-9.0299487e-001
-9.4312477e-001
-9.2836469e-001
-7.9712117e-001
-5.4672921e-001
-2.8751680e-001
-3.0292515e-002
1.2772727e-001
2.0934525e-001
2.1940726e-001
1.8792738e-001
6.8126976e-002
-9.3770713e-002
-2.8026867e-001
-4.7130278e-001
-5.2816767e-001
-5.1809573e-001
-3.5419652e-001
-1.4292352e-001
6.8067312e-003
7.1317732e-002
-1.0223351e-001
-3.8592893e-001
-7.2929090e-001
-1.0299234e+000
-1.1933970e+000
-1.2274600e+000
-1.1375431e+000
-9.5404065e-001
-7.0724660e-001
-5.2063900e-001
-4.0133095e-001
-4.4380280e-001
-6.0731298e-001
-7.9679006e-001
-9.9323177e-001
-1.1431972e+000
-1.2694516e+000
-1.3023032e+000
-1.2881290e+000
-1.1790960e+000
-1.0337411e+000
-1.0567461e+000
-1.1849109e+000
-1.4656211e+000
-1.7870802e+000
-1.9280828e+000
-1.9236140e+000
-1.6792040e+000
-1.3129209e+000
-8.6800402e-001
-5.0047195e-001
-3.6849064e-001
-4.4461027e-001
-7.6098979e-001
-1.1106896e+000
-1.3898028e+000
-1.5118759e+000
-1.4601111e+000
-1.3413053e+000
-1.2032080e+000
-1.0968000e+000
-1.0262940e+000
-9.3895447e-001
-8.4106189e-001
-7.1176898e-001
-5.6351501e-001
-4.5617133e-001
-3.6252362e-001
-3.6719301e-001
-4.1109306e-001
-4.1926664e-001
-3.8629445e-001
-2.6332486e-001
-6.9569625e-002
2.0147818e-001
5.2037972e-001
8.6176717e-001
1.1207613e+000
1.1642504e+000
1.0149139e+000
6.9251013e-001
3.8557500e-001
2.2101963e-001
6.8669260e-002
-5.8375873e-002
-4.7806084e-002
9.6993782e-002
5.2355587e-001
1.2174134e+000
1.9154274e+000
2.5434358e+000
2.6790085e+000
2.3972871e+000
2.0484085e+000
1.7052723e+000
1.7249600e+000
1.9996921e+000
2.0624082e+000
1.9497188e+000
1.3677886e+000
5.3755593e-001
-4.8273057e-002
-3.2651070e-001
9.2523903e-002
1.0676153e+000
2.5216944e+000
3.9658594e+000
4.7721000e+000
5.1799417e+000
5.3831239e+000
5.8325558e+000
6.8778043e+000
8.7110405e+000
1.1402233e+001
1.4621519e+001
1.8193428e+001
2.1498730e+001
2.4304359e+001
2.7019911e+001
2.9742256e+001
3.3279099e+001
3.7633041e+001
4.2360229e+001
4.7328640e+001
5.1318283e+001
5.4469299e+001
5.7677185e+001
6.1010811e+001
6.5117325e+001
6.9788757e+001
7.4463898e+001
7.9085526e+001
8.3377518e+001
8.7361198e+001
9.0999100e+001
9.4371483e+001
9.7572845e+001
1.0043088e+002
1.0279100e+002
1.0372777e+002
1.0262857e+002
1.0015218e+002
9.6915619e+001
9.3497719e+001
9.0208313e+001
8.6617027e+001
8.2600464e+001
7.8366814e+001
7.4037453e+001
6.9894783e+001
6.5950218e+001
6.1878799e+001
5.7637478e+001
5.3389519e+001
4.9155182e+001
4.5013657e+001
4.1008907e+001
3.7356136e+001
3.4108479e+001
3.1359194e+001
2.9071171e+001
2.7061129e+001
2.5335962e+001
2.3871805e+001
2.2706512e+001
2.1845501e+001
2.1248232e+001
2.0831417e+001
2.0508398e+001
2.0188795e+001
1.9926500e+001
1.9741371e+001
1.9779560e+001
2.0091124e+001
2.0817499e+001
2.1999172e+001
2.3470179e+001
2.5197830e+001
2.6764744e+001
2.8091520e+001
2.9230337e+001
3.0183828e+001
3.1410755e+001
3.3030205e+001
3.5737656e+001
3.9467972e+001
4.3135429e+001
4.6556938e+001
4.8944859e+001
5.0479855e+001
5.1931534e+001
5.3324921e+001
5.4767303e+001
5.5813999e+001
5.6017853e+001
5.5364914e+001
5.3969612e+001
5.2390182e+001
5.1052040e+001
5.0010693e+001
4.9300598e+001
4.8630924e+001
4.7865662e+001
4.6464977e+001
4.4239376e+001
4.1768585e+001
3.9198627e+001
3.6988720e+001
3.5193779e+001
3.2940399e+001
3.0021343e+001
2.6759148e+001
2.3217375e+001
2.0247849e+001
1.7957121e+001
1.5905000e+001
1.4087132e+001
1.2328623e+001
1.0571582e+001
8.7084789e+000
6.7390070e+000
4.7045937e+000
2.8344700e+000
1.3803787e+000
4.3838599e-001
6.9565289e-002
2.1307969e-001
8.9099962e-001
1.6471009e+000
2.1580026e+000
2.5392056e+000
2.7514486e+000
3.1087215e+000
3.7597144e+000
4.5574150e+000
5.5303001e+000
6.1787786e+000
6.3497815e+000
6.2479277e+000
5.7998137e+000
5.3580251e+000
4.9290566e+000
4.5835810e+000
4.3352232e+000
4.1712980e+000
4.0472984e+000
3.8743048e+000
3.6089385e+000
3.2523348e+000
2.8937640e+000
2.6486635e+000
2.5719943e+000
2.6888242e+000
2.9258966e+000
3.2328103e+000
3.5214314e+000
3.7189062e+000
3.9116526e+000
4.0852323e+000
4.3046260e+000
4.6000586e+000
4.9358153e+000
5.3555675e+000
5.7673120e+000
6.1623735e+000
6.4366713e+000
6.5096035e+000
6.4407010e+000
6.1993566e+000
5.9366784e+000
5.6621103e+000
5.4083934e+000
5.1805015e+000
4.9622822e+000
4.7331376e+000
4.4756317e+000
4.1477365e+000
3.7848520e+000
3.4037058e+000
3.0424297e+000
2.7188649e+000
2.3889709e+000
2.0269554e+000
1.6211457e+000
1.2013501e+000
8.0893183e-001
4.8110706e-001
2.3280464e-001
5.3297643e-002
-3.3335000e-002
-6.8690255e-002
4.7123857e-002
2.2365634e-001
4.8301560e-001
6.8587357e-001
7.7891201e-001
7.5258422e-001
5.9695888e-001
4.5800841e-001
3.7347233e-001
3.9392993e-001
5.4278469e-001
8.0516636e-001
1.1783268e+000
1.5993778e+000
2.0200601e+000
2.3173635e+000
2.4823978e+000
2.4778647e+000
2.3715057e+000
2.2223022e+000
2.0642102e+000
1.9348570e+000
1.8204581e+000
1.7361948e+000
1.6605999e+000
1.6046516e+000
1.5559294e+000
1.5254757e+000
1.5028920e+000
1.5007350e+000
1.5059023e+000
1.5378364e+000
1.5832474e+000
1.6641119e+000
1.7629628e+000
1.8854970e+000
2.0197401e+000
2.1631954e+000
2.3126163e+000
2.4788136e+000
2.6578388e+000
2.8645084e+000
3.0867760e+000
3.3265188e+000
3.5763228e+000
3.8457258e+000
4.1561942e+000
4.5057096e+000
4.8994379e+000
5.3027997e+000
5.6782317e+000
6.0156240e+000
6.2709460e+000
6.4729323e+000
6.5708499e+000
6.6121240e+000
6.5270443e+000
6.3992920e+000
6.1719389e+000
5.9365115e+000
5.6836042e+000
5.4282136e+000
5.1668596e+000
4.8846931e+000
4.5599542e+000
4.2073612e+000
3.8052676e+000
3.3810539e+000
2.9305737e+000
2.4913378e+000
2.0740559e+000
1.6933312e+000
1.3460371e+000
1.0055051e+000
6.6243505e-001
2.9298532e-001
-8.4928989e-002
-4.3511271e-001
-7.4266964e-001
-9.2259419e-001
-1.0353389e+000
-1.0426842e+000
-1.0181143e+000
-9.6536613e-001
-9.0594399e-001
-8.3807331e-001
-7.8098452e-001
-7.6343691e-001
-7.5378937e-001
-7.5874341e-001
-7.2270155e-001
-5.8331090e-001
-4.0412819e-001
-1.5578003e-001
5.0887436e-002
1.8031275e-001
2.4309222e-001
2.1826075e-001
1.8397340e-001
1.4214107e-001
1.1165423e-001
8.9432128e-002
5.4715138e-002
1.4225221e-002
-1.2176610e-002
-1.5825916e-002
5.7066828e-002
1.8094251e-001
4.1607445e-001
6.9474113e-001
1.0389850e+000
1.3893222e+000
1.7118319e+000
2.0117531e+000
2.2048674e+000
2.3620980e+000
2.3748839e+000
2.3553112e+000
2.2357888e+000
2.1224599e+000
2.0298131e+000
1.9782435e+000
2.0126553e+000
2.1071649e+000
2.3006427e+000
2.5558562e+000
2.8858020e+000
3.2145207e+000
3.5388896e+000
3.8370557e+000
4.1187658e+000
4.4279122e+000
4.7420654e+000
4.9862771e+000
5.1617932e+000
5.0740299e+000
4.8814001e+000
4.5450125e+000
4.2122765e+000
4.1287832e+000
4.1239638e+000
4.4603438e+000
4.8107600e+000
5.1436648e+000
5.4311318e+000
5.5198560e+000
5.5883460e+000
5.5929780e+000
5.6050220e+000
5.6365533e+000
5.6787443e+000
5.7408891e+000
5.7871299e+000
5.8060350e+000
5.7676101e+000
5.6629910e+000
5.5494318e+000
5.4264846e+000
5.3042502e+000
5.1767063e+000
4.9955096e+000
4.7866569e+000
4.5742168e+000
4.3515177e+000
4.0236344e+000
3.6419713e+000
2.9785643e+000
2.2616670e+000
1.4833088e+000
7.2086203e-001
2.0923585e-001
-2.7339223e-001
-5.7118791e-001
-8.6330783e-001
-1.1304857e+000
-1.3988910e+000
-1.6687818e+000
-1.9220223e+000
-2.1366272e+000
-2.3531845e+000
-2.5770342e+000
-2.8330901e+000
-3.1281581e+000
-3.3312197e+000
-3.4289830e+000
-3.3541663e+000
-3.1426723e+000
-2.9421039e+000
-2.7536759e+000
-2.6444349e+000
-2.5679758e+000
-2.4265873e+000
-2.2581468e+000
-1.9828453e+000
-1.6825671e+000
-1.3507675e+000
-1.0165588e+000
-7.2101152e-001
-4.2704687e-001
-1.4074714e-001
8.7078810e-003
2.6189101e-001
5.0019157e-001
6.7171741e-001
7.9492170e-001
7.7605337e-001
7.6834345e-001
7.8686064e-001
9.0789539e-001
1.1916828e+000
1.4560040e+000
1.6941115e+000
1.8383976e+000
1.8986658e+000
2.0948884e+000
2.3902245e+000
2.8825932e+000
3.4754629e+000
4.0007453e+000
4.4939871e+000
4.7994456e+000
5.0517840e+000
5.2343869e+000
5.4046535e+000
5.6515002e+000
