##TITLE=Methyl Ethyl Ketone
##JCAMP-DX=4.24
##DATA TYPE=INFRARED SPECTRUM
##XUNITS=cm-1
##YUNITS=Absorbance
##FIRSTX=900
##LASTX=2300
##XYDATA=(X++(Y..Y))
2296 0.074174002
2294 0.07574974
2292 0.077325493
2290 0.078902237
2288 0.080477983
2286 0.082053728
2284 0.083629474
2282 0.08520522
2280 0.086780965
2278 0.088357694
2276 0.089933455
2274 0.091509208
2272 0.093084946
2270 0.094660699
2268 0.096236438
2266 0.097813167
2264 0.099388935
2262 0.10096175
2260 0.10253938
2258 0.10411712
2256 0.10569486
2254 0.1072726
2252 0.10884065
2250 0.11041808
2248 0.11199582
2246 0.11357357
2244 0.068828262
2242 0.0025881429
2240 -0.092013121
2238 -0.14627074
2236 -0.19433543
2234 -0.19225176
2232 -0.18582852
2230 -0.1629854
2228 -0.14319345
2226 -0.1535545
2224 -0.1682837
2222 -0.19572154
2220 -0.21500835
2218 -0.2072576
2216 -0.19776399
2214 -0.18779629
2212 -0.18305519
2210 -0.18692909
2208 -0.18953349
2206 -0.18991458
2204 -0.18582849
2202 -0.17762004
2200 -0.14730017
2198 -0.10066437
2196 -0.043793358
2194 0.01838354
2192 0.033164959
2190 0.027022354
2188 -0.0089266514
2186 -0.054125972
2184 -0.082829274
2182 -0.1076162
2180 -0.17000468
2178 -0.23816811
2176 -0.31636059
2174 -0.3885836
2172 -0.38245279
2170 -0.3648518
2168 -0.32399788
2166 -0.29586557
2164 -0.32230946
2162 -0.36969331
2160 -0.45683894
2158 -0.55016488
2156 -0.647627
2154 -0.74513954
2152 -0.84210771
2150 -0.9188028
2148 -0.9727062
2146 -0.98590106
2144 -0.965195
2142 -0.93813837
2140 -0.90905815
2138 -0.89698952
2136 -0.89431995
2134 -0.88930947
2132 -0.88306499
2130 -0.87882072
2128 -0.87529641
2126 -0.898004
2124 -0.92674243
2122 -0.98091877
2120 -1.0383714
2118 -1.0829583
2116 -1.1213399
2114 -1.127679
2112 -1.1338931
2110 -1.1609877
2108 -1.1982434
2106 -1.2568129
2104 -1.2940193
2102 -1.2771504
2100 -1.22855
2098 -1.1401508
2096 -1.0673143
2094 -1.0223157
2092 -1.0164855
2090 -1.0471176
2088 -1.0752183
2086 -1.0974751
2084 -1.0948448
2082 -1.0765183
2080 -1.0816879
2078 -1.1002545
2076 -1.1216058
2074 -1.1433432
2072 -1.1048
2070 -1.0466534
2068 -0.9706313
2066 -0.89175707
2064 -0.89031982
2062 -0.91293174
2060 -1.0329859
2058 -1.1799209
2056 -1.3697543
2054 -1.5600473
2052 -1.7200251
2050 -1.8412807
2048 -1.8762938
2046 -1.8680822
2044 -1.8077899
2042 -1.7405832
2040 -1.6797982
2038 -1.6179994
2036 -1.5554442
2034 -1.491452
2032 -1.4258457
2030 -1.389505
2028 -1.3752483
2026 -1.3920064
2024 -1.4255058
2022 -1.434189
2020 -1.4282575
2018 -1.3843044
2016 -1.32604
2014 -1.2879866
2012 -1.2584423
2010 -1.2790177
2008 -1.3153474
2006 -1.3855565
2004 -1.4640272
2002 -1.536016
2000 -1.6037132
1998 -1.654266
1996 -1.7043285
1994 -1.7622787
1992 -1.8076886
1990 -1.8256083
1988 -1.798304
1986 -1.7104857
1984 -1.6120508
1982 -1.5186239
1980 -1.4782331
1978 -1.4934444
1976 -1.5172658
1974 -1.536206
1972 -1.4580629
1970 -1.3050338
1968 -1.135316
1966 -0.96391928
1964 -0.97397745
1962 -1.0817567
1960 -1.277496
1958 -1.5068712
1956 -1.6185229
1954 -1.6846657
1952 -1.6567023
1950 -1.6036526
1948 -1.5699351
1946 -1.551975
1944 -1.5897709
1942 -1.6368731
1940 -1.6755424
1938 -1.6966598
1936 -1.6833172
1934 -1.6621749
1932 -1.638548
1930 -1.6180671
1928 -1.5964406
1926 -1.5393679
1924 -1.4317843
1922 -1.2443541
1920 -0.98888803
1918 -0.77750766
1916 -0.62813586
1914 -0.62745631
1912 -0.72895914
1910 -0.8803972
1908 -1.0492198
1906 -1.2077278
1904 -1.360328
1902 -1.4310962
1900 -1.4661243
1898 -1.3582944
1896 -1.1948428
1894 -1.017305
1892 -0.85072744
1890 -0.8051548
1888 -0.83276796
1886 -0.98741442
1884 -1.2000107
1882 -1.4474369
1880 -1.6796206
1878 -1.8413659
1876 -1.9075
1874 -1.8299308
1872 -1.627344
1870 -1.300712
1868 -0.97798854
1866 -0.72297764
1864 -0.63033491
1862 -0.70174551
1860 -0.85365248
1858 -1.0344145
1856 -1.1937686
1854 -1.3254672
1852 -1.373504
1850 -1.3632582
1848 -1.243584
1846 -1.0582821
1844 -0.98456776
1842 -0.97192174
1840 -1.1449955
1838 -1.4006001
1836 -1.5769972
1834 -1.692681
1832 -1.6432611
1830 -1.4840827
1828 -1.2073786
1826 -0.90780139
1824 -0.7121954
1822 -0.65486974
1820 -0.79819101
1818 -1.0314586
1816 -1.2697314
1814 -1.448249
1812 -1.5310946
1810 -1.5209064
1808 -1.4401195
1806 -1.2957901
1804 -1.1086532
1802 -0.94124258
1800 -0.79617107
1798 -0.68695164
1796 -0.60054642
1794 -0.47283345
1792 -0.3210088
1790 -0.19399986
1788 -0.094725952
1786 -0.067641459
1784 -0.084312625
1782 -0.074577071
1780 -0.037554003
1778 0.10964617
1776 0.3257643
1774 0.58824134
1772 0.81393147
1770 0.81457281
1768 0.67032093
1766 0.41969544
1764 0.18867519
1762 0.11359166
1760 0.042543087
1758 -0.11859889
1756 -0.24085985
1754 -0.25765488
1752 -0.021972045
1750 0.48621231
1748 1.0722661
1746 1.6458535
1744 1.879652
1742 1.777712
1740 1.5702528
1738 1.3373404
1736 1.3719
1734 1.6254605
1732 1.7244434
1730 1.6798762
1728 1.2423921
1726 0.55734801
1724 0.068892434
1722 -0.20322669
1720 0.099103779
1718 0.92267573
1716 2.2037072
1714 3.6203957
1712 4.6764603
1710 5.4676089
1708 6.1271338
1706 6.9805818
1704 8.3551064
1702 10.478964
1700 13.430697
1698 16.988089
1696 20.884714
1694 24.3633
1692 27.173128
1690 29.710888
1688 32.198063
1686 35.536705
1684 39.749817
1682 44.625046
1680 49.94556
1678 54.403408
1676 58.078873
1674 61.716579
1672 65.419685
1670 69.735764
1668 74.502106
1666 79.155151
1664 83.642624
1662 87.804855
1660 91.638702
1658 95.135056
1656 98.291542
1654 101.12745
1652 103.457
1650 105.06244
1648 105.39902
1646 104.00536
1644 101.46332
1642 98.389442
1640 95.081657
1638 91.781242
1636 88.031975
1634 83.682152
1632 79.080078
1630 74.372833
1628 69.870804
1626 65.632042
1624 61.31316
1622 56.87595
1620 52.54435
1618 48.332516
1616 44.319515
1614 40.522171
1612 37.08358
1610 34.035339
1608 31.475857
1606 29.389164
1604 27.634348
1602 26.203197
1600 25.01808
1598 24.076265
1596 23.336
1594 22.806133
1592 22.463194
1590 22.302334
1588 22.291668
1586 22.441257
1584 22.748302
1582 23.253069
1580 23.971367
1578 24.948982
1576 26.187685
1574 27.558012
1572 28.994211
1570 30.293718
1568 31.40736
1566 32.43948
1564 33.416214
1562 34.725201
1560 36.467304
1558 38.984795
1556 42.246414
1554 45.138161
1552 47.485897
1550 49.019066
1548 49.841228
1546 50.679321
1544 51.504326
1542 52.242001
1540 52.582199
1538 51.997887
1536 50.652714
1534 48.900291
1532 47.066696
1530 45.579945
1528 44.333733
1526 43.2286
1524 42.047802
1522 40.637592
1520 38.880642
1518 36.659595
1516 34.365314
1514 32.125046
1512 30.01664
1510 28.118801
1508 25.857174
1506 23.102478
1504 20.245708
1502 17.310894
1500 14.888405
1498 13.05155
1496 11.345428
1494 9.7845545
1492 8.249527
1490 6.7583213
1488 5.306076
1486 3.9113293
1484 2.5928099
1482 1.4281313
1480 0.55992484
1478 0.062837332
1476 0.020655781
1474 0.48572376
1472 1.3690004
1470 2.354075
1468 3.2004881
1466 3.8818257
1464 4.3976998
1462 4.9817142
1460 5.7681894
1458 6.6242747
1456 7.5174799
1454 8.0723267
1452 8.0638599
1450 7.8553686
1448 7.3789783
1446 6.9107571
1444 6.4585905
1442 6.0155873
1440 5.603096
1438 5.2419224
1436 4.948554
1434 4.642312
1432 4.3303075
1430 4.0112185
1428 3.7191219
1426 3.5648155
1424 3.5649073
1422 3.7274318
1420 4.0126925
1418 4.3290529
1416 4.6149969
1414 4.7866459
1412 4.8838177
1410 4.9616899
1408 5.0680447
1406 5.255888
1404 5.5038304
1402 5.812551
1400 6.1496038
1398 6.5123796
1396 6.8121214
1394 6.9768353
1392 7.0157313
1390 6.8190761
1388 6.5608969
1386 6.2046051
1384 5.8278546
1382 5.4307742
1380 5.0522532
1378 4.7102723
1376 4.4051914
1374 4.1448898
1372 3.866276
1370 3.5599091
1368 3.2205446
1366 2.8354907
1364 2.4200587
1362 1.9749956
1360 1.484244
1358 1.0055072
1356 0.60425258
1354 0.28578678
1352 0.11847892
1350 0.022888783
1348 0.00054554106
1346 0.031241342
1344 0.12538987
1342 0.2866388
1340 0.58310163
1338 0.86379838
1336 1.0857258
1334 1.2079881
1332 1.1232514
1330 1.0432841
1328 0.98362237
1326 1.0163037
1324 1.1988554
1322 1.4445143
1320 1.7732555
1318 2.1011825
1316 2.41593
1314 2.6693423
1312 2.8376429
1310 2.9148855
1308 2.8982999
1306 2.8123515
1304 2.680619
1302 2.530066
1300 2.3814294
1298 2.2509131
1296 2.1382
1294 2.0481043
1292 1.9793657
1290 1.9491146
1288 1.949548
1286 2.0134277
1284 2.0867534
1282 2.1673851
1280 2.2255766
1278 2.2330189
1276 2.2400029
1274 2.256295
1272 2.3046017
1270 2.4115303
1268 2.5405858
1266 2.6994343
1264 2.8742959
1262 3.0675032
1260 3.282248
1258 3.5241854
1256 3.795043
1254 4.1042972
1252 4.4748521
1250 4.8971519
1248 5.3699646
1246 5.8598251
1244 6.3172612
1242 6.7342391
1240 7.0522785
1238 7.3034325
1236 7.4253511
1234 7.4801583
1232 7.39606
1230 7.2594576
1228 6.9988933
1226 6.7075272
1224 6.3373661
1222 5.9519181
1220 5.5272441
1218 5.0805998
1216 4.5895171
1214 4.0875673
1212 3.5743682
1210 3.0900545
1208 2.6485753
1206 2.2332087
1204 1.846262
1202 1.4654827
1200 1.09144
1198 0.72256821
1196 0.35895181
1194 0.00020101666
1192 -0.34608144
1190 -0.65157855
1188 -0.92021871
1186 -1.1110028
1184 -1.2649081
1182 -1.372077
1180 -1.4628682
1178 -1.5278484
1176 -1.5694001
1174 -1.5287877
1172 -1.4557086
1170 -1.2770234
1168 -1.0859884
1166 -0.85976857
1164 -0.63335633
1162 -0.40557119
1160 -0.17130767
1158 0.074240088
1156 0.3070457
1154 0.5107547
1152 0.65422124
1150 0.70883155
1148 0.68775558
1146 0.58204567
1144 0.43836296
1142 0.26863369
1140 0.13072243
1138 0.032878354
1136 0.037007798
1134 0.12151401
1132 0.3616913
1130 0.69045115
1128 1.173
1126 1.7033286
1124 2.2656331
1122 2.8034174
1120 3.181788
1118 3.5114429
1116 3.6593242
1114 3.7940969
1112 3.8876195
1110 3.9880638
1108 4.1123514
1106 4.2595448
1104 4.4653893
1102 4.7038751
1100 5.0054235
1098 5.315505
1096 5.6405573
1094 5.9791069
1092 6.3390737
1090 6.7386942
1088 7.1797853
1086 7.6474099
1084 8.1325321
1082 8.5980892
1080 9.0337477
1078 9.3351479
1076 9.5507689
1074 9.5820875
1072 9.5392513
1070 9.398304
1068 9.2284184
1066 9.0090332
1064 8.7949877
1062 8.6689463
1060 8.5872469
1058 8.7639008
1056 8.966671
1054 9.2810717
1052 9.5741825
1050 9.8001871
1048 10.019595
1046 10.223822
1044 10.438419
1042 10.662208
1040 10.815452
1038 10.855596
1036 10.7664
1034 10.523246
1032 10.20458
1030 9.8196154
1028 9.4314909
1026 9.0406828
1024 8.6398888
1022 8.231328
1020 7.8002667
1018 7.3645706
1016 6.9758201
1014 6.5992351
1012 6.216908
1010 5.8255963
1008 5.3417401
1006 4.8533263
1004 4.3992171
1002 3.9591136
1000 3.6112823
998 3.2666552
996 2.9356284
994 2.6028771
992 2.2652841
990 1.9410264
988 1.6483731
986 1.3787721
984 1.1527532
982 0.97168946
980 0.85713941
978 0.84414816
976 0.93741798
974 1.0668195
972 1.2168483
970 1.2220815
968 1.1363167
966 0.97167802
964 0.77697361
962 0.68658632
960 0.62645155
958 0.50594789
956 0.36509949
954 0.06531547
952 -0.2452352
950 -0.35142493
948 -0.42396843
946 -0.13806643
944 0.006035313
942 0.18705291
940 0.5195334
938 0.77425802
936 1.0219086
934 1.2489433
932 1.4593052
930 1.6329483
928 1.7521405
926 1.7850386
924 1.8433959
922 1.9351346
920 2.1377387
918 2.4437385
916 2.8025615
914 3.1967859
912 3.4745903
910 3.6887271
908 3.5604954
906 3.3022494
904 2.8475125
902 2.3443761
900 2.175873
898 2.0622888
896 2.4038999
