Image.
>Pix99999.
  .
5555
5555
2300
900
5555
2
1
0
701
5555
5.4111000e-002
5.5237386e-002
5.6362782e-002
5.7488170e-002
5.8614556e-002
5.9739951e-002
6.0865339e-002
6.1991721e-002
6.3117117e-002
6.4242512e-002
6.5368883e-002
6.6494294e-002
6.7619681e-002
6.8746053e-002
6.9871463e-002
7.0996851e-002
7.2123215e-002
7.3248625e-002
7.4374020e-002
7.5499408e-002
7.6625772e-002
7.7751189e-002
7.8876577e-002
8.0002934e-002
8.1128359e-002
8.2253754e-002
2.1860272e-002
7.5326144e-004
9.6211201e-003
5.2727316e-002
1.0077141e-001
1.2960956e-001
1.5691154e-001
1.8122868e-001
2.0981871e-001
2.7384400e-001
3.3793396e-001
3.9431736e-001
4.3298072e-001
4.1902435e-001
3.9411256e-001
3.5177374e-001
3.1794679e-001
2.9969394e-001
2.9268852e-001
2.9849380e-001
3.1699842e-001
3.4692737e-001
3.8661042e-001
4.3301561e-001
4.7126073e-001
5.0456423e-001
5.2611375e-001
5.4266965e-001
5.6588244e-001
5.9136385e-001
6.2296724e-001
6.5593553e-001
6.7369866e-001
6.8885982e-001
6.7734832e-001
6.6265798e-001
6.3963246e-001
6.1912888e-001
6.1762798e-001
6.2283975e-001
6.4588606e-001
6.7337817e-001
7.0763999e-001
7.4030036e-001
7.6857400e-001
7.7863842e-001
7.6297945e-001
7.2860247e-001
6.7617083e-001
6.3695574e-001
6.1111784e-001
6.0485548e-001
6.1129647e-001
6.0548872e-001
5.9227544e-001
5.7019109e-001
5.4455572e-001
5.5228990e-001
5.7074159e-001
6.2713605e-001
6.9221199e-001
7.4659652e-001
7.9700667e-001
8.0561435e-001
8.0598485e-001
7.8908592e-001
7.7055222e-001
7.5554776e-001
7.3840076e-001
7.1325743e-001
6.8187875e-001
6.3947958e-001
6.0081899e-001
5.7123959e-001
5.5728859e-001
5.6217623e-001
5.7225853e-001
5.8487719e-001
5.9453797e-001
6.0116851e-001
6.1090815e-001
6.2288290e-001
6.2295860e-001
6.1677063e-001
5.9548670e-001
5.6831145e-001
5.5677676e-001
5.5057305e-001
5.6436533e-001
5.8289963e-001
5.8261782e-001
5.7553697e-001
5.3217971e-001
4.8014140e-001
4.1951886e-001
3.6083743e-001
3.1646028e-001
2.8021163e-001
2.5898817e-001
2.4715786e-001
2.4855360e-001
2.5702187e-001
2.7111155e-001
2.8367674e-001
2.9167143e-001
2.9787526e-001
3.0340606e-001
3.0787250e-001
3.1244794e-001
3.1157237e-001
3.0779824e-001
3.1516960e-001
3.2893792e-001
3.4924504e-001
3.7136802e-001
3.5865870e-001
3.3318180e-001
2.8435400e-001
2.3041183e-001
1.9855714e-001
1.7522788e-001
1.7528160e-001
1.8264565e-001
2.0016454e-001
2.2074786e-001
2.4550299e-001
2.6951063e-001
2.8552091e-001
2.9500502e-001
2.9118314e-001
2.8252354e-001
2.7165687e-001
2.6316124e-001
2.6010069e-001
2.6701543e-001
2.8334031e-001
3.1815147e-001
3.6661470e-001
4.1345423e-001
4.5748580e-001
4.6800649e-001
4.5971191e-001
4.4456518e-001
4.2697847e-001
4.1738543e-001
4.0981299e-001
3.9167023e-001
3.7011829e-001
3.6680135e-001
3.7395000e-001
4.0275913e-001
4.3773299e-001
4.5450422e-001
4.6205041e-001
4.5636314e-001
4.4932693e-001
4.5319900e-001
4.5241421e-001
4.4482571e-001
4.2052835e-001
3.8037080e-001
3.5052246e-001
3.3321384e-001
3.3829090e-001
3.5520786e-001
3.6431292e-001
3.6593160e-001
3.6280489e-001
3.5922182e-001
3.6612308e-001
3.7785921e-001
3.9751846e-001
4.1900021e-001
4.4783422e-001
4.7873428e-001
5.1189673e-001
5.4323226e-001
5.4825801e-001
5.3479642e-001
4.7625029e-001
4.0056098e-001
3.2184669e-001
2.5210878e-001
2.1016623e-001
1.8512300e-001
1.8291894e-001
1.9819422e-001
2.3395050e-001
2.7503666e-001
3.0353129e-001
3.1157812e-001
2.9171851e-001
2.6776063e-001
2.5071913e-001
2.2878115e-001
2.0651685e-001
1.6896340e-001
1.2557796e-001
9.8114885e-002
8.5615426e-002
8.4093474e-002
9.1031253e-002
7.9619125e-002
5.8345802e-002
5.7764843e-002
6.9151141e-002
1.2266888e-001
1.9728909e-001
2.7104026e-001
3.3275986e-001
3.4074229e-001
3.1023461e-001
2.4651441e-001
1.6813432e-001
9.8503344e-002
3.9345235e-002
-3.9415145e-003
-2.2393750e-002
-1.9936617e-002
1.0848200e-002
6.3575402e-002
9.2083395e-002
9.7795136e-002
6.3463770e-002
2.5617871e-003
-1.1646478e-002
4.4467994e-003
5.1599286e-002
1.0829940e-001
1.2053157e-001
1.0258815e-001
8.2110368e-002
6.2643453e-002
7.9791442e-002
1.2551077e-001
2.1202838e-001
3.1475365e-001
3.7570667e-001
3.8861087e-001
3.1891465e-001
2.0739220e-001
1.0349730e-001
2.5161754e-002
-7.3029876e-002
-1.5746358e-001
-1.8888335e-001
-1.6515149e-001
-8.9852050e-002
-2.7380783e-002
-4.4392888e-004
-3.3896223e-002
-1.2785096e-001
-1.9369157e-001
-2.2105345e-001
-1.4065200e-001
2.6092134e-002
1.5597762e-001
2.4493915e-001
1.8954611e-001
3.4888104e-002
-7.0514135e-002
-1.1656000e-001
-4.1093454e-003
2.3623654e-001
6.6394842e-001
1.2036566e+000
1.6808423e+000
2.1026974e+000
2.5000339e+000
3.0244229e+000
3.8354354e+000
5.1850314e+000
7.1940608e+000
1.0113946e+001
1.3910429e+001
1.7856800e+001
2.1605459e+001
2.4972725e+001
2.8001949e+001
3.1575178e+001
3.5782547e+001
4.0857368e+001
4.6610840e+001
5.1627659e+001
5.5944901e+001
6.0083530e+001
6.4187706e+001
6.9116669e+001
7.4670250e+001
8.0217300e+001
8.5621521e+001
9.0458542e+001
9.4773544e+001
9.8640343e+001
1.0208772e+002
1.0516931e+002
1.0752140e+002
1.0874469e+002
1.0833097e+002
1.0592000e+002
1.0252740e+002
9.9053276e+001
9.5492729e+001
9.1883278e+001
8.7637573e+001
8.2575615e+001
7.7352112e+001
7.2206169e+001
6.7435860e+001
6.3068729e+001
5.8688801e+001
5.4235691e+001
4.9913898e+001
4.5736599e+001
4.1833572e+001
3.8222153e+001
3.5035614e+001
3.2284203e+001
2.9956909e+001
2.8032700e+001
2.6368565e+001
2.4974352e+001
2.3822668e+001
2.2924345e+001
2.2257500e+001
2.1819000e+001
2.1567434e+001
2.1481581e+001
2.1515991e+001
2.1639364e+001
2.1823690e+001
2.2050070e+001
2.2308846e+001
2.2657036e+001
2.3113972e+001
2.3732635e+001
2.4511665e+001
2.5413799e+001
2.6423679e+001
2.7497093e+001
2.8636852e+001
3.0013744e+001
3.1729034e+001
3.4377029e+001
3.8025127e+001
4.1977341e+001
4.5986198e+001
4.9048409e+001
5.1203316e+001
5.3064930e+001
5.4670280e+001
5.6178688e+001
5.7410278e+001
5.8052685e+001
5.7982342e+001
5.7161812e+001
5.5834187e+001
5.4366753e+001
5.2787338e+001
5.1121750e+001
4.9298306e+001
4.7257446e+001
4.5084339e+001
4.2777374e+001
4.0585716e+001
3.8608269e+001
3.6684879e+001
3.4822449e+001
3.2440720e+001
2.9379101e+001
2.6225845e+001
2.3012829e+001
2.0293642e+001
1.8125189e+001
1.6000713e+001
1.3918427e+001
1.1801140e+001
9.6650114e+000
7.5506897e+000
5.5257092e+000
3.7052660e+000
2.1738019e+000
1.0365031e+000
3.2169750e-001
6.5267503e-002
3.7963229e-001
1.1933463e+000
2.1939139e+000
3.1828015e+000
4.0063186e+000
4.5744195e+000
5.0574074e+000
5.5223780e+000
6.0087209e+000
6.5250201e+000
6.9403634e+000
7.1688552e+000
7.2618408e+000
7.1566052e+000
7.0107894e+000
6.8117304e+000
6.5961127e+000
6.3561125e+000
6.0608621e+000
5.6867986e+000
5.1855197e+000
4.5671029e+000
3.9350302e+000
3.3305261e+000
2.8707550e+000
2.5682869e+000
2.4193408e+000
2.4063053e+000
2.4749670e+000
2.5937514e+000
2.7234042e+000
2.8620417e+000
3.0405104e+000
3.2600110e+000
3.5458565e+000
3.8726773e+000
4.2348189e+000
4.6161361e+000
5.0159068e+000
5.4215569e+000
5.8236179e+000
6.1658497e+000
6.3754907e+000
6.4524937e+000
6.3154001e+000
6.0647087e+000
5.6650329e+000
5.2336135e+000
4.7720432e+000
4.3102603e+000
3.8648860e+000
3.4369481e+000
3.0361319e+000
2.6782503e+000
2.3275292e+000
1.9395466e+000
1.5149540e+000
1.0405365e+000
5.9261703e-001
2.6398110e-001
4.4941925e-002
-1.1834388e-003
3.5424970e-002
1.4692388e-001
2.7800894e-001
4.4103879e-001
6.1436838e-001
8.0641037e-001
9.9334246e-001
1.1608858e+000
1.3173271e+000
1.4292586e+000
1.5479040e+000
1.6784040e+000
1.8354486e+000
2.0462577e+000
2.2902906e+000
2.5868223e+000
2.9050982e+000
3.2412701e+000
3.5545990e+000
3.8267636e+000
4.0444770e+000
4.2047396e+000
4.3247828e+000
4.4118686e+000
4.4701262e+000
4.5052867e+000
4.5018244e+000
4.4755573e+000
4.4129424e+000
4.3385067e+000
4.2510219e+000
4.1650438e+000
4.0857663e+000
4.0177226e+000
3.9747818e+000
3.9492817e+000
3.9616292e+000
3.9856715e+000
4.0359511e+000
4.0911794e+000
4.1601696e+000
4.2425337e+000
4.3448572e+000
4.4675260e+000
4.6106820e+000
4.7593617e+000
4.9096103e+000
5.0471373e+000
5.1728139e+000
5.2916665e+000
5.4054947e+000
5.5174108e+000
5.6227498e+000
5.7041702e+000
5.7683215e+000
5.8014708e+000
5.8164043e+000
5.8005571e+000
5.7552662e+000
5.6343398e+000
5.4671144e+000
5.1750150e+000
4.8427639e+000
4.4054456e+000
3.9533889e+000
3.4679911e+000
2.9961441e+000
2.5534914e+000
2.1358399e+000
1.7632555e+000
1.4174575e+000
1.1143000e+000
8.5002506e-001
6.3536918e-001
4.6034253e-001
3.2349175e-001
2.0035271e-001
8.6763754e-002
-2.9627249e-002
-1.4277452e-001
-2.3565790e-001
-3.0647135e-001
-3.2320735e-001
-3.0779022e-001
-2.3320231e-001
-1.3007313e-001
3.6357284e-002
2.2871400e-001
4.9209833e-001
7.6589525e-001
1.0612354e+000
1.3356972e+000
1.5414414e+000
1.7040325e+000
1.7581130e+000
1.7735308e+000
1.7107602e+000
1.6201700e+000
1.4831964e+000
1.3249714e+000
1.1392796e+000
9.4800878e-001
7.5108641e-001
5.5481559e-001
3.6252785e-001
1.9119346e-001
4.6027899e-002
-3.3903114e-002
-6.6540256e-002
-5.2316636e-003
1.0204703e-001
2.6294947e-001
4.3997028e-001
6.2611181e-001
8.0410534e-001
9.3023920e-001
1.0384891e+000
1.0767086e+000
1.1157652e+000
1.1636920e+000
1.2203094e+000
1.3027027e+000
1.3724201e+000
1.4082377e+000
1.4190851e+000
1.3810700e+000
1.3331534e+000
1.2724143e+000
1.2256855e+000
1.2000020e+000
1.2038620e+000
1.2395817e+000
1.3007793e+000
1.3806640e+000
1.4542532e+000
1.5179943e+000
1.5353580e+000
1.5242357e+000
1.4581563e+000
1.3692765e+000
1.2481043e+000
1.1197972e+000
9.9300158e-001
8.7151963e-001
7.8810483e-001
7.1293044e-001
6.7848772e-001
6.4835602e-001
6.3728845e-001
6.3054562e-001
6.3761318e-001
6.4189643e-001
6.3799357e-001
6.1925417e-001
5.7100713e-001
5.0603843e-001
4.1552860e-001
3.1315100e-001
1.9827804e-001
8.9036956e-002
-1.4568530e-002
-1.1677700e-001
-2.1969907e-001
-3.4237382e-001
-4.7566938e-001
-6.1021405e-001
-7.4336404e-001
-8.5305226e-001
-9.5220011e-001
-1.0049037e+000
-1.0451345e+000
-1.0353640e+000
-1.0204645e+000
-9.9720579e-001
-9.7599357e-001
-9.7013956e-001
-9.6993518e-001
-9.9486005e-001
-1.0252321e+000
-1.0722908e+000
-1.1116838e+000
-1.1326154e+000
-1.1351843e+000
-1.1047480e+000
-1.0632108e+000
-1.0071555e+000
-9.6221137e-001
-9.2996490e-001
-9.1459465e-001
-9.1250604e-001
-9.0676492e-001
-8.9755523e-001
-8.7321401e-001
-8.4104407e-001
-7.9111111e-001
-7.3406184e-001
-6.3937807e-001
-5.3532100e-001
-3.9442462e-001
-2.5079679e-001
-1.4576627e-001
-4.7019117e-002
-1.5496072e-002
1.6831560e-004
5.8404971e-003
3.6209077e-002
1.3005468e-001
2.2119227e-001
3.0458063e-001
3.7954932e-001
4.3679273e-001
5.0175095e-001
5.7936072e-001
6.6821879e-001
7.7069753e-001
8.5631758e-001
9.2504692e-001
9.2863101e-001
8.8602251e-001
8.4038979e-001
7.9523957e-001
8.6649793e-001
9.8401874e-001
1.1152790e+000
1.2508386e+000
1.2597685e+000
1.2487941e+000
1.2446001e+000
