##TITLE=Methyl Ethyl Ketone
##JCAMP-DX=4.24
##DATA TYPE=INFRARED SPECTRUM
##XUNITS=cm-1
##YUNITS=Absorbance
##FIRSTX=900
##LASTX=2300
##XYDATA=(X++(Y..Y))
2296 0.015857
2294 0.016186528
2292 0.016517054
2290 0.016846586
2288 0.017176116
2286 0.017506637
2284 0.01783617
2282 0.0181657
2280 0.018496217
2278 0.018825756
2276 0.019156272
2274 0.019485814
2272 0.019815343
2270 0.020145854
2268 0.020475401
2266 0.020801993
2264 0.021135366
2262 0.021475719
2260 0.021794796
2258 0.022085128
2256 0.022453399
2254 0.022932511
2252 0.023119407
2250 0.02289482
2248 0.023755178
2246 0.025990356
2244 0.023251792
2242 0.0098506734
2240 -0.009745704
2238 -0.03020701
2236 -0.054328974
2234 -0.087079689
2232 -0.13274293
2230 -0.19057356
2228 -0.24045426
2226 -0.2640925
2224 -0.2733013
2222 -0.28611916
2220 -0.3100273
2218 -0.34104833
2216 -0.34205514
2214 -0.27977216
2212 -0.17646681
2210 -0.072708488
2208 -0.015012246
2206 -0.036175542
2204 -0.10701622
2202 -0.1826652
2200 -0.23176068
2198 -0.2354092
2196 -0.20697927
2194 -0.16952148
2192 -0.14473651
2190 -0.15101127
2188 -0.19570874
2186 -0.27758241
2184 -0.37440079
2182 -0.46020833
2180 -0.52098382
2178 -0.55072081
2176 -0.55979401
2174 -0.56007397
2172 -0.54819143
2170 -0.51660961
2168 -0.461766
2166 -0.38590172
2164 -0.30921075
2162 -0.25470394
2160 -0.23256376
2158 -0.24462904
2156 -0.276867
2154 -0.31293407
2152 -0.34874666
2150 -0.38409352
2148 -0.41697842
2146 -0.44468001
2144 -0.46457171
2142 -0.47564679
2140 -0.48331767
2138 -0.49085566
2136 -0.48342857
2134 -0.44411466
2132 -0.37399927
2130 -0.28484151
2128 -0.205018
2126 -0.16051985
2124 -0.14369701
2122 -0.13708973
2120 -0.13429172
2118 -0.1378393
2116 -0.16873443
2114 -0.2461856
2112 -0.35433525
2110 -0.46526816
2108 -0.5564093
2106 -0.61232996
2104 -0.63706803
2102 -0.63934004
2100 -0.61719102
2098 -0.5680356
2096 -0.50483286
2094 -0.44695401
2092 -0.41477165
2090 -0.42286733
2088 -0.46102801
2086 -0.51113749
2084 -0.5626393
2082 -0.60966426
2080 -0.65170181
2078 -0.68784952
2076 -0.70728928
2074 -0.69811845
2072 -0.66108203
2070 -0.60464722
2068 -0.54745167
2066 -0.5098927
2064 -0.50342059
2062 -0.53287309
2060 -0.5915575
2058 -0.66509759
2056 -0.72642487
2054 -0.74684715
2052 -0.71232527
2050 -0.62290156
2048 -0.51090258
2046 -0.41835287
2044 -0.37183619
2042 -0.38325864
2040 -0.43343407
2038 -0.49353489
2036 -0.54906082
2034 -0.59590113
2032 -0.64470422
2030 -0.7083419
2028 -0.78343511
2026 -0.85675013
2024 -0.90520847
2022 -0.90608037
2020 -0.85478991
2018 -0.76108664
2016 -0.65997601
2014 -0.59372032
2012 -0.58904517
2010 -0.65683836
2008 -0.77356815
2006 -0.90207708
2004 -1.0124749
2002 -1.08348
2000 -1.1112463
1998 -1.1024482
1996 -1.0732286
1994 -1.0425146
1992 -1.0246485
1990 -1.0276732
1988 -1.0435181
1986 -1.0572321
1984 -1.0554926
1982 -1.0296099
1980 -0.98514074
1978 -0.93427783
1976 -0.88758427
1974 -0.85275167
1972 -0.83065271
1970 -0.82119823
1968 -0.83435875
1966 -0.88280404
1964 -0.96830505
1962 -1.0821404
1960 -1.1953881
1958 -1.2745173
1956 -1.3080086
1954 -1.3010063
1952 -1.2781428
1950 -1.2700425
1948 -1.2935208
1946 -1.3525
1944 -1.4299097
1942 -1.500931
1940 -1.5521791
1938 -1.5807697
1936 -1.5989314
1934 -1.6240342
1932 -1.6628981
1930 -1.7129227
1928 -1.7572178
1926 -1.7694979
1924 -1.7137537
1922 -1.5608262
1920 -1.3313982
1918 -1.076268
1916 -0.85774755
1914 -0.72792876
1912 -0.67672908
1910 -0.66275865
1908 -0.6583901
1906 -0.65041441
1904 -0.64229721
1902 -0.64095449
1900 -0.63166177
1898 -0.5918867
1896 -0.52139002
1894 -0.43682015
1892 -0.36848402
1890 -0.34802741
1888 -0.38431925
1886 -0.469129
1884 -0.5791471
1882 -0.68633497
1880 -0.77455449
1878 -0.8368504
1876 -0.87305003
1874 -0.8837257
1872 -0.8584035
1870 -0.78567582
1868 -0.6801874
1866 -0.5738185
1864 -0.50321013
1862 -0.49772352
1860 -0.5489608
1858 -0.62813026
1856 -0.71775091
1854 -0.8095327
1852 -0.89524764
1850 -0.96538222
1848 -1.0086672
1846 -1.0159392
1844 -0.99170375
1842 -0.94843489
1840 -0.89593631
1838 -0.83925927
1836 -0.77386016
1834 -0.68968111
1832 -0.57779074
1830 -0.43681493
1828 -0.29320371
1826 -0.18989208
1824 -0.16457509
1822 -0.2401311
1820 -0.3967602
1818 -0.58728683
1816 -0.76308399
1814 -0.88134563
1812 -0.91592038
1810 -0.85492229
1808 -0.70274282
1806 -0.47994199
1804 -0.23716061
1802 -0.037248574
1800 0.087441608
1798 0.13523041
1796 0.14048572
1794 0.14990544
1792 0.16794761
1790 0.17216933
1788 0.16050659
1786 0.14757636
1784 0.14270714
1782 0.14748372
1780 0.15507892
1778 0.15811169
1776 0.16999629
1774 0.21244273
1772 0.27546531
1770 0.32507315
1768 0.32863858
1766 0.26846927
1764 0.1765168
1762 0.10415842
1760 0.031395052
1758 -0.099560998
1756 -0.26255956
1754 -0.37165204
1752 -0.3804501
1750 -0.29259121
1748 -0.16669895
1746 -0.088542715
1744 -0.10676841
1742 -0.221679
1740 -0.35942367
1738 -0.40872905
1736 -0.32009199
1734 -0.1130918
1732 0.12016311
1730 0.25692976
1728 0.25140017
1726 0.13403919
1724 -0.013578389
1722 -0.082795642
1720 0.02322568
1718 0.36825103
1716 0.92425084
1714 1.5951011
1712 2.2898204
1710 2.9559796
1708 3.6544478
1706 4.5395412
1704 5.7965188
1702 7.6184816
1700 10.183085
1698 13.568204
1696 17.451
1694 21.23424
1692 24.548904
1690 27.344496
1688 29.968931
1686 33.028336
1684 36.994835
1682 42.040943
1680 47.639278
1678 52.853477
1676 57.436928
1674 61.814587
1672 66.453407
1670 71.632256
1668 77.076424
1666 82.111801
1664 86.336128
1662 89.684448
1660 92.23494
1658 94.128555
1656 95.463882
1654 96.280739
1652 96.583023
1650 96.357254
1648 95.617973
1646 94.429718
1644 92.959251
1642 91.422859
1640 89.85759
1638 88.11702
1636 86.010017
1634 83.371109
1632 80.203728
1630 76.647324
1628 72.760284
1626 68.506729
1624 63.879356
1622 58.942841
1620 53.886292
1618 48.990231
1616 44.461716
1614 40.409065
1612 36.888256
1610 33.90778
1608 31.404795
1606 29.260714
1604 27.386459
1602 25.741903
1600 24.334337
1598 23.206102
1596 22.3825
1594 21.860037
1592 21.614828
1590 21.610537
1588 21.822678
1586 22.243242
1584 22.86088
1582 23.665491
1580 24.691254
1578 26.016663
1576 27.7264
1574 29.882771
1572 32.449341
1570 35.284992
1568 38.216759
1566 41.070122
1564 43.713581
1562 46.109249
1560 48.461628
1558 51.133419
1556 54.090927
1554 56.84853
1552 58.944267
1550 60.111431
1548 60.439877
1546 60.314213
1544 59.875607
1542 58.934986
1540 57.31802
1538 54.996067
1536 52.230114
1534 49.52541
1532 47.166927
1530 45.125118
1528 43.278748
1526 41.477299
1524 39.576305
1522 37.460773
1520 35.10664
1518 32.600071
1516 30.103628
1514 27.809992
1512 25.732281
1510 23.676105
1508 21.459713
1506 19.005014
1504 16.440256
1502 14.080089
1500 12.099372
1498 10.448817
1496 8.9999142
1494 7.6022782
1492 6.1866045
1490 4.7878256
1488 3.4568925
1486 2.2402415
1484 1.1982414
1482 0.4051457
1480 -0.086725548
1478 -0.24778554
1476 -0.0085163116
1474 0.72951937
1472 1.9251949
1470 3.3594561
1468 4.8224092
1466 6.1818056
1464 7.4089489
1462 8.5824232
1460 9.7731123
1458 10.995165
1456 12.1682
1454 13.116132
1452 13.712545
1450 13.934605
1448 13.824782
1446 13.481393
1444 12.9908
1442 12.40274
1440 11.742057
1438 11.007867
1436 10.187839
1434 9.2688084
1432 8.2833958
1430 7.3228722
1428 6.4710741
1426 5.7791963
1424 5.2683148
1422 4.927227
1420 4.7379847
1418 4.6833248
1416 4.7480683
1414 4.9203792
1412 5.1940036
1410 5.5670805
1408 6.0282097
1406 6.5478158
1404 7.076251
1402 7.5419536
1400 7.8755202
1398 8.0235033
1396 7.9679146
1394 7.7401714
1392 7.3961473
1390 7.0069327
1388 6.6206384
1386 6.2458301
1384 5.8798985
1382 5.5170441
1380 5.1536565
1378 4.7885342
1376 4.4110885
1374 3.9975767
1372 3.5354519
1370 3.0337303
1368 2.5075588
1366 1.9729607
1364 1.4410294
1362 0.91856682
1360 0.43239319
1358 0.039900497
1356 -0.20788586
1354 -0.28186435
1352 -0.16604286
1350 0.13977364
1348 0.61594617
1346 1.2178714
1344 1.901352
1342 2.628633
1340 3.3443174
1338 3.9631038
1336 4.3969798
1334 4.573854
1332 4.4790511
1330 4.184855
1328 3.7781069
1326 3.335047
1324 2.9150026
1322 2.551863
1320 2.2635982
1318 2.0488791
1316 1.8891001
1314 1.746165
1312 1.5884811
1310 1.405584
1308 1.2045662
1306 1.0130795
1304 0.8544969
1302 0.73715574
1300 0.66620404
1298 0.6488263
1296 0.70163429
1294 0.85537565
1292 1.1344168
1290 1.5432453
1288 2.063324
1286 2.6429257
1284 3.2221744
1282 3.7425919
1280 4.1610951
1278 4.4641738
1276 4.6592183
1274 4.7789307
1272 4.8613157
1270 4.9417725
1268 5.0469289
1266 5.1892557
1264 5.3804655
1262 5.6380386
1260 5.98526
1258 6.4520254
1256 7.0614543
1254 7.8193579
1252 8.7141218
1250 9.7097988
1248 10.766047
1246 11.8455
1244 12.912266
1242 13.930257
1240 14.854977
1238 15.626946
1236 16.186615
1234 16.483624
1232 16.479479
1230 16.15239
1228 15.500603
1226 14.5597
1224 13.389132
1222 12.080711
1220 10.742276
1218 9.488472
1216 8.4215622
1214 7.6048684
1212 7.0675373
1210 6.7851405
1208 6.7105408
1206 6.774168
1204 6.8951678
1202 6.9807625
1200 6.9414415
1198 6.7039957
1196 6.2290287
1194 5.5433507
1192 4.7107029
1190 3.8385658
1188 3.0294507
1186 2.3497372
1184 1.8307594
1182 1.4463832
1180 1.1577907
1178 0.93046415
1176 0.74476999
1174 0.61144489
1172 0.54235709
1170 0.53544712
1168 0.57991695
1166 0.65353733
1164 0.73650932
1162 0.82013655
1160 0.89552063
1158 0.94743216
1156 0.95957458
1154 0.91765279
1152 0.81655407
1150 0.67162561
1148 0.50700897
1146 0.35477358
1144 0.23940206
1142 0.16165707
1140 0.1024164
1138 0.012735084
1136 -0.13374743
1134 -0.29392451
1132 -0.41429418
1130 -0.45791897
1128 -0.40820122
1126 -0.28813237
1124 -0.13212168
1122 0.021129325
1120 0.1358396
1118 0.1876855
1116 0.17194557
1114 0.12474301
1112 0.086558282
1110 0.082642503
1108 0.11769815
1106 0.155955
1104 0.16829166
1102 0.16752976
1100 0.18329327
1098 0.26053506
1096 0.43099713
1094 0.68360019
1092 1.0014732
1090 1.3796273
1088 1.8183503
1086 2.3216994
1084 2.8730874
1082 3.3986712
1080 3.8123829
1078 4.0347552
1076 4.0238204
1074 3.8336608
1072 3.5449936
1070 3.2461784
1068 3.0051787
1066 2.830395
1064 2.716572
1062 2.6611872
1060 2.657645
1058 2.6867518
1056 2.7254314
1054 2.7493389
1052 2.7446504
1050 2.7287669
1048 2.7187204
1046 2.7098179
1044 2.6925547
1042 2.6605844
1040 2.6200821
1038 2.6100092
1036 2.66469
1034 2.7803829
1032 2.9290183
1030 3.0383878
1028 3.0405724
1026 2.9126737
1024 2.6588669
1022 2.3307381
1020 1.9782627
1018 1.6126994
1016 1.2362096
1014 0.85387826
1012 0.48711339
1010 0.20279457
1008 0.052831456
1006 0.007848681
1004 0.0070445649
1002 -0.044098064
1000 -0.2156059
998 -0.47475103
996 -0.76319784
994 -1.022293
992 -1.2065868
990 -1.3138468
988 -1.3521974
986 -1.3304651
984 -1.2549795
982 -1.124131
980 -0.93826163
978 -0.70921111
976 -0.46257257
974 -0.25870937
972 -0.15686934
970 -0.18298554
968 -0.33388245
966 -0.5364325
964 -0.71398681
962 -0.83694786
960 -0.89776015
958 -0.92417735
956 -0.93940341
954 -0.92072421
952 -0.83657402
950 -0.66499603
948 -0.40792832
946 -0.14251725
944 0.064481497
942 0.24899817
940 0.45073426
938 0.63155961
936 0.74570316
934 0.7898609
932 0.77029133
930 0.68986738
928 0.55873966
926 0.41710123
924 0.31363901
922 0.30056524
920 0.41920492
918 0.66639048
916 1.0184885
914 1.4158832
912 1.7943885
910 2.10694
908 2.3197985
906 2.4355109
904 2.4644935
902 2.4106874
900 2.2912874
898 2.1821876
896 2.1735001
