Image.
>Pix99999.
  .
5555
5555
2300
900
5555
2
1
0
701
5555
8.1354000e-002
8.3046578e-002
8.4739156e-002
8.6431734e-002
8.8124312e-002
8.9815900e-002
9.1508470e-002
9.3201049e-002
9.4893627e-002
9.6586205e-002
9.8278783e-002
9.9971361e-002
1.0166100e-001
1.0335843e-001
1.0504620e-001
1.0674357e-001
1.0843137e-001
1.1012872e-001
1.1181654e-001
1.1351386e-001
1.1520171e-001
1.1689900e-001
1.1858688e-001
1.2028414e-001
1.2197205e-001
1.2366928e-001
5.4539084e-002
2.0007000e-003
-2.7830400e-002
-7.0033148e-002
-1.1427830e-001
-1.3416655e-001
-1.5210079e-001
-1.6538337e-001
-1.8028094e-001
-2.1039350e-001
-2.3855691e-001
-2.5476596e-001
-2.6927447e-001
-2.8073043e-001
-2.7667397e-001
-2.3899646e-001
-1.7333281e-001
-6.5198675e-002
2.3145428e-002
8.3574116e-002
8.7970369e-002
4.0150031e-002
-1.4233897e-002
-7.0959590e-002
-6.5972358e-002
-2.5375918e-002
4.9928688e-002
1.3937710e-001
1.8420558e-001
2.1425806e-001
2.1042280e-001
1.9903249e-001
2.0116077e-001
2.0530431e-001
2.0310000e-001
1.9744676e-001
1.5925154e-001
1.1613240e-001
6.2205873e-002
1.5072407e-002
-3.6335099e-003
-5.1473919e-003
3.0177092e-002
6.5528907e-002
9.3962103e-002
9.0726554e-002
4.2639382e-002
-1.5933355e-002
-8.1073098e-002
-1.1374557e-001
-1.1713308e-001
-1.0756690e-001
-9.1202311e-002
-8.2801566e-002
-7.9069853e-002
-8.0967620e-002
-8.4794663e-002
-1.0875043e-001
-1.3901401e-001
-1.8287829e-001
-2.2991008e-001
-2.3790053e-001
-2.3599805e-001
-1.6451596e-001
-8.3785623e-002
-7.3621254e-003
5.2904885e-002
4.5069844e-002
1.8864423e-002
-3.2828514e-002
-8.2581148e-002
-1.2005176e-001
-1.4905420e-001
-1.6706774e-001
-1.7632428e-001
-1.7658150e-001
-1.7379880e-001
-1.6923070e-001
-1.5418194e-001
-1.3008149e-001
-6.7675292e-002
1.9401684e-002
1.1135662e-001
2.0384996e-001
2.0213929e-001
1.6113950e-001
3.3978440e-002
-1.1988985e-001
-2.2244525e-001
-3.1069857e-001
-3.0152145e-001
-2.7358663e-001
-2.3910497e-001
-2.0991960e-001
-2.1669714e-001
-2.2599491e-001
-2.2128843e-001
-1.9583018e-001
-1.2691680e-001
-4.6218932e-002
3.9357740e-002
9.8039053e-002
1.1712606e-001
8.6059608e-002
6.6972263e-003
-8.5334919e-002
-1.8154784e-001
-2.3536231e-001
-2.5701526e-001
-2.5205824e-001
-2.3472281e-001
-2.2482505e-001
-2.2053409e-001
-2.2617328e-001
-2.3444401e-001
-2.5574887e-001
-2.7935314e-001
-3.0766904e-001
-3.3499098e-001
-3.4275171e-001
-3.3794245e-001
-2.8603899e-001
-2.1369794e-001
-1.1350255e-001
-1.8848782e-002
3.2312542e-002
4.2225868e-002
-8.0234678e-003
-7.5040057e-002
-1.3461687e-001
-1.6988823e-001
-1.7408715e-001
-1.5367797e-001
-1.1808772e-001
-6.0455400e-002
1.1890810e-002
8.6368471e-002
1.5821823e-001
1.9271772e-001
2.0419200e-001
1.8645746e-001
1.5812868e-001
1.4847721e-001
1.4866166e-001
1.6208857e-001
1.8183504e-001
2.1968651e-001
2.6830143e-001
3.2721835e-001
3.7108999e-001
3.2405040e-001
2.2447318e-001
7.2392032e-002
-6.4619094e-002
-1.1223172e-001
-1.0114411e-001
-3.7455417e-002
5.4923333e-002
1.5688857e-001
3.1983307e-001
5.5162740e-001
8.0043936e-001
1.0546087e+000
1.1643800e+000
1.1542914e+000
1.0758941e+000
9.6475029e-001
9.0421045e-001
8.7679702e-001
8.1711364e-001
7.3886520e-001
6.3945228e-001
5.3455937e-001
4.8864004e-001
4.7104570e-001
4.9259651e-001
5.2476567e-001
5.4248047e-001
5.3769505e-001
4.7909406e-001
3.9080501e-001
2.7729839e-001
1.7612086e-001
1.1571793e-001
1.1367000e-001
1.7341432e-001
2.8088811e-001
4.1789159e-001
5.0427699e-001
5.3954393e-001
4.8030159e-001
3.5808548e-001
2.3056874e-001
1.0432528e-001
1.8569484e-002
-4.5884293e-002
4.6148747e-003
1.2022980e-001
3.8383919e-001
7.1731395e-001
9.2273980e-001
1.0409160e+000
8.8872516e-001
6.1787057e-001
3.5513315e-001
1.3459721e-001
5.2844137e-002
6.0032535e-002
1.8276095e-001
3.2160664e-001
4.1646981e-001
4.3405810e-001
3.2282260e-001
1.7576194e-001
2.9075287e-002
-5.4235175e-002
-5.7616569e-002
-2.9153477e-002
1.1680800e-002
4.2014401e-002
5.9914019e-002
1.4132093e-001
2.7405691e-001
4.7684282e-001
7.2353858e-001
8.5005200e-001
8.9866000e-001
7.8261644e-001
5.8450544e-001
4.3274048e-001
3.2505709e-001
2.9202273e-001
3.1854871e-001
4.2088002e-001
5.6199455e-001
6.9185889e-001
7.4209017e-001
6.1796391e-001
3.9609945e-001
1.7314181e-001
2.5215141e-002
-5.7610972e-003
4.1559637e-003
-8.1611067e-002
-1.9645858e-001
-2.8160578e-001
-1.8940595e-001
9.2609003e-002
4.6869946e-001
8.9319253e-001
1.1396577e+000
1.2295561e+000
1.2570206e+000
1.2509654e+000
1.2753400e+000
1.3101621e+000
1.1266569e+000
7.9255331e-001
3.5437179e-001
-1.0092279e-001
-3.2351092e-001
-3.1394601e-001
-1.6262412e-002
4.6863997e-001
1.2637540e+000
2.1934490e+000
3.0269189e+000
3.8221054e+000
4.5939560e+000
5.5875349e+000
6.9776230e+000
8.9571791e+000
1.1614231e+001
1.4698007e+001
1.8068142e+001
2.1114840e+001
2.3623966e+001
2.5906593e+001
2.8072578e+001
3.0850937e+001
3.4274261e+001
3.8188667e+001
4.2472759e+001
4.6143383e+001
4.9265156e+001
5.2344707e+001
5.5447567e+001
5.9113056e+001
6.3202549e+001
6.7379250e+001
7.1575508e+001
7.5519562e+001
7.9207123e+001
8.2564232e+001
8.5697769e+001
8.8757530e+001
9.1705238e+001
9.4520920e+001
9.6519592e+001
9.7223396e+001
9.6918877e+001
9.5915413e+001
9.4528893e+001
9.2954735e+001
9.0838249e+001
8.8118866e+001
8.4931602e+001
8.1405098e+001
7.7809669e+001
7.4199257e+001
7.0339317e+001
6.6221741e+001
6.1998905e+001
5.7703270e+001
5.3500744e+001
4.9434647e+001
4.5731655e+001
4.2431858e+001
3.9588112e+001
3.7159565e+001
3.4958839e+001
3.2978745e+001
3.1170650e+001
2.9570847e+001
2.8200001e+001
2.7067471e+001
2.6155771e+001
2.5435272e+001
2.4857903e+001
2.4457087e+001
2.4229389e+001
2.4236179e+001
2.4479481e+001
2.4992615e+001
2.5775002e+001
2.6695160e+001
2.7729244e+001
2.8700287e+001
2.9577801e+001
3.0462015e+001
3.1364880e+001
3.2553959e+001
3.4100342e+001
3.6274582e+001
3.8982258e+001
4.1348240e+001
4.3289654e+001
4.4610050e+001
4.5469788e+001
4.6436642e+001
4.7549923e+001
4.8867458e+001
5.0063801e+001
5.0768688e+001
5.0866745e+001
5.0298882e+001
4.9459389e+001
4.8658638e+001
4.7911285e+001
4.7228699e+001
4.6455399e+001
4.5527752e+001
4.4183968e+001
4.2349083e+001
4.0367069e+001
3.8321079e+001
3.6487919e+001
3.4889355e+001
3.2875477e+001
3.0274565e+001
2.7358532e+001
2.4158993e+001
2.1352474e+001
1.9003700e+001
1.6769857e+001
1.4640176e+001
1.2521060e+001
1.0398042e+001
8.2808743e+000
6.2084551e+000
4.2454863e+000
2.5516858e+000
1.2561152e+000
4.0896425e-001
1.0045595e-001
3.3933359e-001
9.8603523e-001
1.6603079e+000
2.1884916e+000
2.7011127e+000
3.2106869e+000
3.8513870e+000
4.6946445e+000
5.4837704e+000
6.1448202e+000
6.4413404e+000
6.2395630e+000
5.9364281e+000
5.5337625e+000
5.1553183e+000
4.8076382e+000
4.4916062e+000
4.2096677e+000
3.9795778e+000
3.7519300e+000
3.4249706e+000
2.9573166e+000
2.3787403e+000
1.7857480e+000
1.3429328e+000
1.1042726e+000
1.0936528e+000
1.2284726e+000
1.4268266e+000
1.6073172e+000
1.6972020e+000
1.7948391e+000
1.9225304e+000
2.1288016e+000
2.4526970e+000
2.8478677e+000
3.3571215e+000
3.8941321e+000
4.4666133e+000
4.9637289e+000
5.3276534e+000
5.5442510e+000
5.5550838e+000
5.4754496e+000
5.2725101e+000
5.0400553e+000
4.7764082e+000
4.5477757e+000
4.3531761e+000
4.1801710e+000
3.9840350e+000
3.7214320e+000
3.3977938e+000
3.0456119e+000
2.6997857e+000
2.3737919e+000
2.0302835e+000
1.6334372e+000
1.2048063e+000
7.6729685e-001
3.9592397e-001
1.5259518e-001
1.3853071e-002
1.1249621e-002
4.4748127e-002
2.0791921e-001
4.1928548e-001
6.9477141e-001
9.2085403e-001
1.0467657e+000
1.0493377e+000
8.9101022e-001
7.2238320e-001
5.6299543e-001
4.9860322e-001
5.5821055e-001
7.2855264e-001
1.0116334e+000
1.3322124e+000
1.6560800e+000
1.8940940e+000
2.0431228e+000
2.0819094e+000
2.0565803e+000
2.0041642e+000
1.9524589e+000
1.9361510e+000
1.9407308e+000
1.9782026e+000
2.0250857e+000
2.0846581e+000
2.1497002e+000
2.2294300e+000
2.3118439e+000
2.4004850e+000
2.4882634e+000
2.5810621e+000
2.6824903e+000
2.8068442e+000
2.9410501e+000
3.0857759e+000
3.2336919e+000
3.3818934e+000
3.5449073e+000
3.7413750e+000
3.9814320e+000
4.2928472e+000
4.6702962e+000
5.1235929e+000
5.6328516e+000
6.1977654e+000
6.8089476e+000
7.4545164e+000
8.1175823e+000
8.7688503e+000
9.3595409e+000
9.9013834e+000
1.0363605e+001
1.0789828e+001
1.1166857e+001
1.1509047e+001
1.1763041e+001
1.1956441e+001
1.1979135e+001
1.1928721e+001
1.1680680e+001
1.1374543e+001
1.0932394e+001
1.0469540e+001
9.9697199e+000
9.4782352e+000
8.9964714e+000
8.5046911e+000
7.9937716e+000
7.4511127e+000
6.8730960e+000
6.2825451e+000
5.6841893e+000
5.1015959e+000
4.5350928e+000
3.9931200e+000
3.4720583e+000
2.9807889e+000
2.5156593e+000
2.1055343e+000
1.7274075e+000
1.4072660e+000
1.1144520e+000
8.7598813e-001
6.7463201e-001
5.9187740e-001
5.4698968e-001
6.2428927e-001
6.9875038e-001
7.6595366e-001
8.1103963e-001
8.0154973e-001
7.7915186e-001
7.2861266e-001
6.6323698e-001
5.7167715e-001
4.6733713e-001
3.4546173e-001
2.2187980e-001
1.0172965e-001
1.0079075e-002
-4.3483116e-002
-2.2782944e-002
5.7868183e-002
2.0099314e-001
3.7847120e-001
6.0760891e-001
8.5935915e-001
1.1239936e+000
1.3970629e+000
1.6930059e+000
2.0005126e+000
2.3482881e+000
2.6989036e+000
3.0453100e+000
3.3783352e+000
3.6554818e+000
3.9232328e+000
4.1626334e+000
4.4094849e+000
4.6750646e+000
4.9412932e+000
5.2087269e+000
5.4715371e+000
5.7281284e+000
5.9919243e+000
6.2658658e+000
6.5488043e+000
6.8416743e+000
7.1415334e+000
7.4462094e+000
7.7493963e+000
8.0474529e+000
8.3220329e+000
8.5691185e+000
8.6981077e+000
8.7646875e+000
8.6551180e+000
8.5091133e+000
8.3753357e+000
8.2652321e+000
8.3172789e+000
8.3762836e+000
8.4288673e+000
8.4494915e+000
8.3289318e+000
8.1753283e+000
7.9140248e+000
7.6235361e+000
7.2623110e+000
6.8807011e+000
6.4630418e+000
6.0439281e+000
5.6275616e+000
5.2488799e+000
4.9138966e+000
4.5962882e+000
4.2841835e+000
3.8832738e+000
3.4203436e+000
2.9482794e+000
2.4851990e+000
2.1620743e+000
1.8976502e+000
1.6781886e+000
1.4680135e+000
1.2283752e+000
9.8595715e-001
7.7224839e-001
5.5846542e-001
3.1710190e-001
6.3536167e-002
-2.6993561e-001
-5.9083581e-001
-8.5409927e-001
-1.0760729e+000
-1.1696332e+000
-1.2598326e+000
-1.3432319e+000
-1.4447465e+000
-1.5766406e+000
-1.6692493e+000
-1.7053139e+000
-1.6514900e+000
-1.5011172e+000
-1.2887974e+000
-1.0277872e+000
-7.7971327e-001
-5.4146737e-001
-3.2307649e-001
-1.1455083e-001
8.1192061e-002
2.7146846e-001
4.1715536e-001
5.4921740e-001
5.7587790e-001
5.8278197e-001
4.1533902e-001
2.4346028e-001
1.0728642e-001
8.8710897e-004
2.7900498e-002
9.0959996e-002
1.9817671e-001
2.6550770e-001
2.1444994e-001
1.2549344e-001
-4.3646038e-002
-1.9491601e-001
-3.1602064e-001
-3.4739059e-001
-2.6871610e-001
-9.2709184e-002
1.7381495e-001
4.2819428e-001
6.7269468e-001
7.7468604e-001
7.9933214e-001
7.8941166e-001
7.6430053e-001
9.4640791e-001
1.1806190e+000
1.5112877e+000
1.8562936e+000
2.0615001e+000
