##TITLE=Methyl Ethyl Ketone
##JCAMP-DX=4.24
##DATA TYPE=INFRARED SPECTRUM
##XUNITS=cm-1
##YUNITS=Absorbance
##FIRSTX=900
##LASTX=2300
##XYDATA=(X++(Y..Y))
2296 0.026667999
2294 0.027222207
2292 0.027777411
2290 0.028331621
2288 0.028886823
2286 0.029441036
2284 0.029996233
2282 0.030551439
2280 0.031105658
2278 0.031660851
2276 0.032215074
2274 0.032771245
2272 0.033325486
2270 0.03387773
2268 0.03443484
2266 0.034998894
2264 0.035544522
2262 0.036065347
2260 0.036652826
2258 0.037334409
2256 0.037766829
2254 0.037850779
2252 0.038857408
2250 0.041165687
2248 0.04004455
2246 0.030064072
2244 0.0086885756
2242 -0.022626197
2240 -0.04961928
2238 -0.056360073
2236 -0.034687385
2234 0.012927123
2232 0.050182808
2230 0.040538341
2228 -0.014368551
2226 -0.095554098
2224 -0.15911753
2222 -0.16754928
2220 -0.13816349
2218 -0.10331557
2216 -0.090447374
2214 -0.1145211
2212 -0.146845
2210 -0.15458222
2208 -0.141184
2206 -0.12263115
2204 -0.12010266
2202 -0.14997336
2200 -0.20333995
2198 -0.2654117
2196 -0.32940501
2194 -0.38908082
2192 -0.42958692
2190 -0.43568805
2188 -0.40187812
2186 -0.33170122
2184 -0.25290281
2182 -0.19449456
2180 -0.15925659
2178 -0.13988809
2176 -0.12310057
2174 -0.098581105
2172 -0.075254641
2170 -0.063384011
2168 -0.052641314
2166 -0.0275915
2164 0.019549981
2162 0.088380873
2160 0.15614033
2158 0.1983515
2156 0.214049
2154 0.21415591
2152 0.22460629
2150 0.27017576
2148 0.35075513
2146 0.45499143
2144 0.56158108
2142 0.65213966
2140 0.73369658
2138 0.81782323
2136 0.89752853
2134 0.95585239
2132 0.96296215
2130 0.89556783
2128 0.77529317
2126 0.64103967
2124 0.53533953
2122 0.49389765
2120 0.52070475
2118 0.60589802
2116 0.73060584
2114 0.8725239
2112 1.0072464
2110 1.1124681
2108 1.1779294
2106 1.2018164
2104 1.1992092
2102 1.1896135
2100 1.187168
2098 1.2015098
2096 1.2356143
2094 1.2892479
2092 1.3595921
2090 1.4409019
2088 1.5196817
2086 1.582045
2084 1.624858
2082 1.6497914
2080 1.6581898
2078 1.6504039
2076 1.6232615
2074 1.5765969
2072 1.527792
2070 1.499455
2068 1.5069689
2066 1.5565014
2064 1.6296228
2062 1.6999338
2060 1.747584
2058 1.761374
2056 1.7527572
2054 1.7404433
2052 1.7353274
2050 1.7421186
2048 1.7555492
2046 1.767875
2044 1.77738
2042 1.783584
2040 1.7803508
2038 1.7626779
2036 1.7426957
2034 1.7416011
2032 1.785936
2030 1.8934621
2028 2.0349984
2026 2.1610065
2024 2.224041
2022 2.1910534
2020 2.0829923
2018 1.9442354
2016 1.81788
2014 1.7374201
2012 1.7052846
2010 1.7103282
2008 1.7424269
2006 1.7923594
2004 1.8485906
2002 1.89842
2000 1.9277411
1998 1.9277049
1996 1.91365
1994 1.9114549
1992 1.9423314
1990 2.0180809
1988 2.1233242
1986 2.229995
1984 2.3121519
1982 2.3507202
1980 2.3505735
1978 2.3299968
1976 2.3164001
1974 2.3364069
1972 2.397438
1970 2.4924321
1968 2.5928714
1966 2.6649086
1964 2.6932499
1962 2.6779835
1960 2.6417279
1958 2.613615
1956 2.6047473
1954 2.6150601
1952 2.639292
1950 2.6696398
1948 2.696336
1946 2.7086
1944 2.6947303
1942 2.6479335
1940 2.5845337
1938 2.5307834
1936 2.5025742
1934 2.5069869
1932 2.5404441
1930 2.5969391
1928 2.6835234
1926 2.8102021
1924 2.9665356
1922 3.1256914
1920 3.2387023
1918 3.2591522
1916 3.1992514
1914 3.1048403
1912 3.0258291
1910 3.0008678
1908 3.0211363
1906 3.0558157
1904 3.0935481
1902 3.138504
1900 3.205327
1898 3.306417
1896 3.4240572
1894 3.5242682
1892 3.5787592
1890 3.57022
1888 3.5080359
1886 3.4160757
1884 3.3156407
1882 3.2245975
1880 3.1579938
1878 3.1291265
1876 3.1502402
1874 3.2288818
1872 3.3532994
1870 3.4959264
1868 3.608865
1866 3.6411786
1864 3.5776589
1862 3.4305649
1860 3.2344525
1858 3.0323715
1856 2.8543258
1854 2.7238705
1852 2.674921
1850 2.7376926
1848 2.893728
1846 3.0864251
1844 3.2270234
1842 3.2289007
1840 3.0910983
1838 2.8711143
1836 2.6403871
1834 2.4636581
1832 2.363625
1830 2.3289928
1828 2.3183415
1826 2.2771044
1824 2.166292
1822 1.9703171
1820 1.726688
1818 1.5044733
1816 1.3664771
1814 1.3527418
1812 1.4371492
1810 1.5523801
1808 1.637332
1806 1.65255
1804 1.6164795
1802 1.5824449
1800 1.5932171
1798 1.6666957
1796 1.7618858
1794 1.8044517
1792 1.743224
1790 1.5644287
1788 1.331768
1786 1.1442664
1784 1.0322417
1782 0.97433269
1780 0.95961457
1778 0.98917639
1776 1.0547
1774 1.1312765
1772 1.1560458
1770 1.0574602
1768 0.84152967
1766 0.57435089
1764 0.3300772
1762 0.16279569
1760 0.043059941
1758 -0.098181799
1756 -0.23665728
1754 -0.28033131
1752 -0.17369342
1750 0.083470397
1748 0.40639341
1746 0.66324782
1744 0.77001292
1742 0.70658714
1740 0.54843795
1738 0.41734907
1736 0.34760001
1734 0.29367805
1732 0.1871454
1730 -0.026361123
1728 -0.30481827
1726 -0.53326845
1724 -0.60296643
1722 -0.4301492
1720 0.025060862
1718 0.75125647
1716 1.6447071
1714 2.5473297
1712 3.3607178
1710 4.0704989
1708 4.7894959
1706 5.717782
1704 7.035471
1702 8.8679953
1700 11.224148
1698 13.996325
1696 16.937286
1694 19.74115
1692 22.277081
1690 24.616787
1688 27.041914
1686 29.933222
1684 33.451168
1682 37.475174
1680 41.523922
1678 44.973286
1676 47.777229
1674 50.408646
1672 53.322266
1670 56.797932
1668 60.765156
1666 64.895905
1664 68.961617
1662 72.8722
1660 76.57312
1658 80.030724
1656 83.271431
1654 86.364655
1652 89.335098
1650 92.112373
1648 94.399025
1646 95.778816
1644 96.175316
1642 95.832436
1640 94.926201
1638 93.495132
1636 91.487114
1634 88.831749
1632 85.663857
1630 82.285088
1628 78.86969
1626 75.427727
1624 71.903755
1622 68.223869
1620 64.372589
1618 60.395672
1616 56.357544
1614 52.342239
1612 48.492886
1610 44.987492
1608 41.909889
1606 39.236214
1604 36.904015
1602 34.839634
1600 33.001556
1598 31.383341
1596 29.978001
1594 28.767599
1592 27.719297
1590 26.794241
1588 25.986252
1586 25.325129
1584 24.845749
1582 24.582439
1580 24.577888
1578 24.877983
1576 25.494913
1574 26.387003
1572 27.416586
1570 28.376806
1568 29.160681
1566 29.790392
1564 30.350769
1562 30.989271
1560 31.981457
1558 33.655205
1556 35.975803
1554 38.509701
1552 40.823063
1550 42.636379
1548 44.008621
1546 45.303215
1544 46.749649
1542 48.322361
1540 49.782021
1538 50.743431
1536 50.97937
1534 50.514595
1532 49.596725
1530 48.629845
1528 47.838062
1526 47.182701
1524 46.504986
1522 45.587097
1520 44.280819
1518 42.56797
1516 40.614269
1514 38.72588
1512 36.996841
1510 35.233063
1508 33.184505
1506 30.658443
1504 27.754578
1502 24.87327
1500 22.279963
1498 19.987371
1496 17.897858
1494 15.854815
1492 13.754565
1490 11.574419
1488 9.3173018
1486 7.0142193
1484 4.7834663
1482 2.8348267
1480 1.3372865
1478 0.38654426
1476 0.078797929
1474 0.48550916
1472 1.4383616
1470 2.5089641
1468 3.4257545
1466 4.1968451
1464 4.9190474
1462 5.6980572
1460 6.4900908
1458 7.0662904
1456 7.2269001
1454 6.8990293
1452 6.2281933
1450 5.5739117
1448 5.1290679
1446 4.8113213
1444 4.5277524
1442 4.251153
1440 3.9711015
1438 3.6759663
1436 3.3304827
1434 2.8784997
1432 2.3170481
1430 1.7233725
1428 1.195204
1426 0.82546049
1424 0.6575042
1422 0.66395563
1420 0.78503835
1418 0.94255686
1416 1.0841143
1414 1.2035151
1412 1.326938
1410 1.5080572
1408 1.7824898
1406 2.1497471
1404 2.5931883
1402 3.0829105
1400 3.5792041
1398 4.0332384
1396 4.3978715
1394 4.6356297
1392 4.7350836
1390 4.7200828
1388 4.622438
1386 4.47434
1384 4.307363
1382 4.1500225
1380 4.0181704
1378 3.9068975
1376 3.7927172
1374 3.6349924
1372 3.4145279
1370 3.1503243
1368 2.8685884
1366 2.5890143
1364 2.3035052
1362 1.9688505
1360 1.5669954
1358 1.1326655
1356 0.72095954
1354 0.39368382
1352 0.17420298
1350 0.025782555
1348 -0.083570309
1346 -0.15511893
1344 -0.17278279
1342 -0.11057588
1340 0.019058377
1338 0.14099784
1336 0.18376029
1334 0.11245961
1332 -0.053494036
1330 -0.22409579
1328 -0.32276297
1326 -0.3231411
1324 -0.22107005
1322 -0.031264991
1320 0.22254995
1318 0.50779212
1316 0.78459597
1314 1.0070255
1312 1.1452583
1310 1.2007463
1308 1.1919348
1306 1.1527486
1304 1.113428
1302 1.090476
1300 1.0916655
1298 1.1150243
1296 1.1556572
1294 1.2070779
1292 1.261452
1290 1.3096038
1288 1.344084
1286 1.3625336
1284 1.3693798
1282 1.3788764
1280 1.4044926
1278 1.4536453
1276 1.5286529
1274 1.6259511
1272 1.7418727
1270 1.875757
1268 2.0291979
1266 2.2068777
1264 2.4182789
1262 2.6793587
1260 3.003808
1258 3.3975332
1256 3.8603201
1254 4.38416
1252 4.965395
1250 5.6107941
1248 6.3222795
1246 7.0850749
1244 7.8658872
1242 8.6045256
1240 9.2480927
1238 9.7718573
1236 10.174415
1234 10.484529
1232 10.72828
1230 10.908298
1228 11.015434
1226 11.036036
1224 10.957452
1222 10.778854
1220 10.501611
1218 10.123143
1216 9.6497917
1214 9.1034403
1212 8.5120363
1210 7.9083462
1208 7.3143601
1206 6.7268014
1204 6.1331801
1202 5.5150094
1200 4.8614254
1198 4.1801572
1196 3.4879358
1194 2.8101726
1192 2.1726074
1190 1.5970449
1188 1.1002436
1186 0.69030631
1184 0.37055874
1182 0.13854182
1180 -0.0090219006
1178 -0.075003318
1176 -0.067372993
1174 -0.0061900839
1172 0.079801187
1170 0.15026163
1168 0.17192274
1166 0.13453323
1164 0.043296196
1162 -0.074654274
1160 -0.19120966
1158 -0.28824359
1156 -0.35414574
1154 -0.38705766
1152 -0.38991493
1150 -0.3710447
1148 -0.33868819
1146 -0.29724073
1144 -0.24523108
1142 -0.17022333
1140 -0.062259696
1138 0.077576444
1136 0.252226
1134 0.47958958
1132 0.7743938
1130 1.1351963
1128 1.5554743
1126 2.0262437
1124 2.5373986
1122 3.0775185
1120 3.6254041
1118 4.1377487
1116 4.5770645
1114 4.9344826
1112 5.2281575
1110 5.5242653
1108 5.8809156
1106 6.3057599
1104 6.7800322
1102 7.2503271
1100 7.6719966
1098 8.0451193
1096 8.3883286
1094 8.7400913
1092 9.1307058
1090 9.5561886
1088 10.001425
1086 10.443271
1084 10.859834
1082 11.238375
1080 11.561909
1078 11.806931
1076 11.955999
1074 12.016746
1072 12.0106
1070 11.97652
1068 11.951139
1066 11.947429
1064 11.96884
1062 11.999372
1060 12.014541
1058 11.985702
1056 11.887571
1054 11.707883
1052 11.442006
1050 11.10388
1048 10.708097
1046 10.27441
1044 9.8209667
1042 9.3633776
1040 8.9147062
1038 8.4818668
1036 8.0691299
1034 7.6767979
1032 7.3015089
1030 6.9308581
1028 6.5524774
1026 6.1600723
1024 5.7547092
1022 5.354846
1020 4.9764547
1018 4.6161389
1016 4.2664714
1014 3.9228005
1012 3.5837069
1010 3.25595
1008 2.940912
1006 2.618212
1004 2.2699656
1002 1.9042538
1000 1.5370777
998 1.1902027
996 0.88430715
994 0.63214028
992 0.43751732
990 0.28194654
988 0.1392789
986 -0.022678688
984 -0.22200069
982 -0.42613453
980 -0.59156162
978 -0.6800617
976 -0.66233772
974 -0.53446281
972 -0.30279192
970 0.012375236
968 0.37824422
966 0.73196501
964 1.0117089
962 1.1850531
960 1.2391732
958 1.2033275
956 1.1119916
954 0.97994447
952 0.81474996
950 0.61497164
948 0.38973141
946 0.19268918
944 0.069509216
942 -0.0016506426
940 -0.051163767
938 -0.080048069
936 -0.091313884
934 -0.12142766
932 -0.20507777
930 -0.33988276
928 -0.51179326
926 -0.69781178
924 -0.87234801
922 -1.0085655
920 -1.0924298
918 -1.1586049
916 -1.2484986
914 -1.38175
912 -1.5562383
910 -1.70725
908 -1.7714423
906 -1.7526293
904 -1.6726457
902 -1.5582591
900 -1.4322118
898 -1.2964875
896 -1.1479
