Image.
>Pix99999.
  .
5555
5555
2300
900
5555
2
1
0
701
5555
-2.7998000e-002
-2.8581165e-002
-2.9163335e-002
-2.9745502e-002
-3.0328663e-002
-3.0910835e-002
-3.1493004e-002
-3.2076158e-002
-3.2658335e-002
-3.3240505e-002
-3.3822671e-002
-3.4405824e-002
-3.4988005e-002
-3.5570174e-002
-3.6152340e-002
-3.6735486e-002
-3.7317675e-002
-3.7900817e-002
-3.8483009e-002
-3.9065175e-002
-3.9647344e-002
-4.0230479e-002
-4.0812675e-002
-4.1394845e-002
-4.1977976e-002
-4.2560179e-002
-1.5815800e-003
1.9423742e-002
7.4413240e-002
1.6380422e-001
2.5800085e-001
3.7014127e-001
4.8017868e-001
5.1414829e-001
5.3575981e-001
4.8744699e-001
4.3554327e-001
3.8320184e-001
3.3273765e-001
2.8786597e-001
2.4071686e-001
1.8790717e-001
1.4394701e-001
1.1502246e-001
1.1478069e-001
1.4915521e-001
2.1940455e-001
3.2215801e-001
4.2457896e-001
5.2518594e-001
5.7875144e-001
6.0523039e-001
5.9734702e-001
5.7516354e-001
5.4979408e-001
5.2370620e-001
4.7775683e-001
4.2725819e-001
3.7598804e-001
3.2568789e-001
3.6198029e-001
4.0957889e-001
4.9496830e-001
5.7245678e-001
5.8397371e-001
5.7828957e-001
5.3317136e-001
4.9603996e-001
4.8945805e-001
5.1070923e-001
5.7891399e-001
6.6658026e-001
7.7538538e-001
8.7584507e-001
9.6439743e-001
1.0168185e+000
1.0382240e+000
1.0349489e+000
1.0164397e+000
1.0041753e+000
9.9622172e-001
9.5904237e-001
9.0955561e-001
8.2808161e-001
7.3681045e-001
7.1564645e-001
7.1090806e-001
7.8828222e-001
8.7749112e-001
9.4681865e-001
1.0083674e+000
1.0338609e+000
1.0533502e+000
1.0701210e+000
1.0818229e+000
1.0794107e+000
1.0617155e+000
1.0148087e+000
9.5872301e-001
8.9425600e-001
8.4580427e-001
8.1970984e-001
8.2463682e-001
8.5828656e-001
9.1275603e-001
9.8141050e-001
1.0504696e+000
1.1185904e+000
1.1716239e+000
1.2165486e+000
1.2346101e+000
1.2419169e+000
1.2246720e+000
1.1996487e+000
1.2010251e+000
1.2092872e+000
1.2559183e+000
1.3072923e+000
1.3362532e+000
1.3558379e+000
1.3481457e+000
1.3347336e+000
1.3188583e+000
1.3001738e+000
1.2739246e+000
1.2345822e+000
1.1717501e+000
1.0977160e+000
1.0155234e+000
9.6755511e-001
9.6465039e-001
1.0295849e+000
1.1519766e+000
1.2827051e+000
1.4108354e+000
1.4733971e+000
1.4933772e+000
1.4860269e+000
1.4671414e+000
1.4741597e+000
1.4936200e+000
1.5032303e+000
1.5104989e+000
1.4812058e+000
1.4422435e+000
1.3920994e+000
1.3406581e+000
1.2961090e+000
1.2557149e+000
1.2198287e+000
1.1889071e+000
1.1655594e+000
1.1563594e+000
1.1805745e+000
1.2341881e+000
1.3325535e+000
1.4423634e+000
1.5530043e+000
1.6356617e+000
1.6832597e+000
1.7161371e+000
1.7404480e+000
1.7890242e+000
1.8561068e+000
1.9126999e+000
1.9606920e+000
1.9524759e+000
1.9173373e+000
1.8723279e+000
1.8251195e+000
1.8155172e+000
1.8218434e+000
1.8745389e+000
1.9422190e+000
1.9867277e+000
2.0085001e+000
1.9531137e+000
1.8736274e+000
1.8177058e+000
1.7882326e+000
1.8143171e+000
1.8535743e+000
1.8775340e+000
1.8897380e+000
1.8820537e+000
1.8885528e+000
1.9158440e+000
1.9820758e+000
2.0890429e+000
2.1971772e+000
2.3054972e+000
2.3744929e+000
2.4129310e+000
2.3935804e+000
2.3383443e+000
2.2324922e+000
2.1033041e+000
2.0138724e+000
1.9465423e+000
1.9589473e+000
2.0042713e+000
2.0541408e+000
2.0979264e+000
2.1003280e+000
2.0816200e+000
2.0537200e+000
2.0187297e+000
1.9755028e+000
1.9242972e+000
1.8553721e+000
1.7978700e+000
1.7591486e+000
1.7610303e+000
1.8066515e+000
1.8727611e+000
1.9638014e+000
2.0202136e+000
2.0474010e+000
2.0232389e+000
1.9537163e+000
1.8741915e+000
1.7880564e+000
1.7774860e+000
1.8119351e+000
1.9090641e+000
2.0313108e+000
2.0493085e+000
2.0026762e+000
1.8403983e+000
1.6306130e+000
1.4327457e+000
1.2586501e+000
1.1373429e+000
1.0621700e+000
1.0808101e+000
1.1309249e+000
1.1892194e+000
1.2059408e+000
1.1250240e+000
1.0079764e+000
8.7725800e-001
7.9304409e-001
7.7526450e-001
8.0543548e-001
8.7130767e-001
9.3999499e-001
1.0020628e+000
1.0688000e+000
1.1346320e+000
1.2140260e+000
1.3022286e+000
1.3326454e+000
1.3297601e+000
1.2513605e+000
1.1388248e+000
1.0461364e+000
9.7385913e-001
9.2235869e-001
8.9328891e-001
9.0532380e-001
9.3079400e-001
9.1707879e-001
8.2446790e-001
5.8699977e-001
2.9699707e-001
7.1904533e-002
-4.4595979e-002
-2.7342707e-002
3.3655271e-002
1.7836750e-002
-5.9689939e-002
-1.6988546e-001
-2.1959703e-001
-1.9128141e-001
-9.7400017e-002
4.8046358e-002
1.2527542e-001
1.4199834e-001
1.2632081e-001
8.8212773e-002
9.8622799e-002
1.3729021e-001
1.0031028e-001
1.0591080e-002
-1.4678624e-001
-3.1817070e-001
-3.6439565e-001
-2.7613881e-001
-1.9634336e-002
3.5093918e-001
9.9145329e-001
1.7909003e+000
2.6060767e+000
3.4354763e+000
4.2412400e+000
5.2023973e+000
6.4486814e+000
8.1722145e+000
1.0469730e+001
1.3265572e+001
1.6487572e+001
1.9601700e+001
2.2387007e+001
2.4962051e+001
2.7382570e+001
3.0299843e+001
3.3755268e+001
3.7696316e+001
4.2011440e+001
4.5758621e+001
4.8993557e+001
5.2182724e+001
5.5393982e+001
5.9164997e+001
6.3360657e+001
6.7628601e+001
7.1911621e+001
7.5992668e+001
7.9858536e+001
8.3434761e+001
8.6789253e+001
9.0017494e+001
9.3068497e+001
9.5902985e+001
9.7876083e+001
9.8522392e+001
9.8133461e+001
9.7037659e+001
9.5504982e+001
9.3725601e+001
9.1342445e+001
8.8297058e+001
8.4787262e+001
8.0959862e+001
7.7071037e+001
7.3176254e+001
6.9112640e+001
6.4873703e+001
6.0709610e+001
5.6638435e+001
5.2707657e+001
4.8941914e+001
4.5457344e+001
4.2294121e+001
3.9542629e+001
3.7187180e+001
3.5115822e+001
3.3324127e+001
3.1755434e+001
3.0414696e+001
2.9268501e+001
2.8317745e+001
2.7539463e+001
2.6919374e+001
2.6426468e+001
2.6081335e+001
2.5876795e+001
2.5849979e+001
2.5997272e+001
2.6361031e+001
2.6948399e+001
2.7681347e+001
2.8544674e+001
2.9377701e+001
3.0151400e+001
3.0925020e+001
3.1706284e+001
3.2726204e+001
3.4054527e+001
3.6009026e+001
3.8547043e+001
4.0989952e+001
4.3244091e+001
4.4954201e+001
4.6219650e+001
4.7461071e+001
4.8688663e+001
4.9943710e+001
5.0948742e+001
5.1401203e+001
5.1243401e+001
5.0496159e+001
4.9507519e+001
4.8575558e+001
4.7700729e+001
4.6881649e+001
4.5963833e+001
4.4873314e+001
4.3437290e+001
4.1604858e+001
3.9688530e+001
3.7772141e+001
3.5956238e+001
3.4229271e+001
3.2011703e+001
2.9138636e+001
2.6147108e+001
2.3105280e+001
2.0523766e+001
1.8451620e+001
1.6379999e+001
1.4285020e+001
1.2130617e+001
9.9278383e+000
7.7736826e+000
5.7254801e+000
3.8639441e+000
2.3082771e+000
1.1295924e+000
3.6654976e-001
8.1739143e-002
3.3780575e-001
1.0710216e+000
1.9301140e+000
2.7403286e+000
3.4941771e+000
4.1318874e+000
4.7869005e+000
5.5099516e+000
6.1197443e+000
6.5409398e+000
6.6430073e+000
6.3148661e+000
5.9278922e+000
5.4944353e+000
5.0878181e+000
4.7137160e+000
4.3479619e+000
3.9819903e+000
3.6148176e+000
3.2105885e+000
2.7405686e+000
2.2031703e+000
1.6778579e+000
1.2356260e+000
9.5524681e-001
8.5986716e-001
9.2879874e-001
1.1038514e+000
1.3266549e+000
1.5524771e+000
1.7455289e+000
1.9725566e+000
2.2548974e+000
2.5960503e+000
3.0058680e+000
3.4280474e+000
3.8639889e+000
4.2712002e+000
4.6322808e+000
4.9249215e+000
5.1068492e+000
5.2079859e+000
5.2009549e+000
5.1315775e+000
4.9726000e+000
4.7668948e+000
4.5036077e+000
4.2517605e+000
4.0107899e+000
3.7902029e+000
3.5703640e+000
3.3435819e+000
3.1163428e+000
2.8987064e+000
2.6826057e+000
2.4156785e+000
2.0718369e+000
1.6193262e+000
1.1296110e+000
6.7917597e-001
3.1998575e-001
1.1741953e-001
1.1024220e-002
3.2608062e-003
1.0555781e-002
1.1486224e-001
2.6811844e-001
4.9841166e-001
7.1150029e-001
8.8739914e-001
9.8123437e-001
9.6893877e-001
9.4512361e-001
9.1975027e-001
9.5293385e-001
1.0626303e+000
1.2494274e+000
1.5179675e+000
1.8249364e+000
2.1462898e+000
2.4091146e+000
2.6073205e+000
2.7170370e+000
2.7689040e+000
2.7853780e+000
2.7875142e+000
2.7968330e+000
2.8150260e+000
2.8608146e+000
2.9247713e+000
3.0256753e+000
3.1421697e+000
3.2833288e+000
3.4269562e+000
3.5711966e+000
3.7251053e+000
3.9102621e+000
4.1132889e+000
4.3564954e+000
4.5925188e+000
4.8065062e+000
5.0011716e+000
5.1621718e+000
5.3320637e+000
5.5247574e+000
5.7551165e+000
6.0435972e+000
6.3802719e+000
6.7754230e+000
7.2232685e+000
7.7266293e+000
8.2851944e+000
8.8886404e+000
9.5284138e+000
1.0183750e+001
1.0837317e+001
1.1476780e+001
1.2074480e+001
1.2626951e+001
1.3066000e+001
1.3430595e+001
1.3618040e+001
1.3740604e+001
1.3706566e+001
1.3625622e+001
1.3419520e+001
1.3156487e+001
1.2757568e+001
1.2308650e+001
1.1759628e+001
1.1179900e+001
1.0548543e+001
9.9051733e+000
9.2526751e+000
8.6291800e+000
8.0457621e+000
7.4972486e+000
6.9778695e+000
6.4514675e+000
5.9125071e+000
5.3435531e+000
4.7581735e+000
4.1760430e+000
3.6111715e+000
3.1125479e+000
2.6545382e+000
2.2744873e+000
1.9365202e+000
1.6953743e+000
1.4998000e+000
1.4342828e+000
1.3888448e+000
1.3930413e+000
1.3828331e+000
1.3302565e+000
1.2646315e+000
1.1681880e+000
1.0747681e+000
9.8686057e-001
8.9982200e-001
8.1100780e-001
7.0704842e-001
5.8272296e-001
4.5573419e-001
3.2911325e-001
2.1942538e-001
1.2820724e-001
5.8196589e-002
1.3016516e-002
2.5856059e-002
8.6457580e-002
2.6414996e-001
4.9911591e-001
7.9819769e-001
1.1154071e+000
1.4339677e+000
1.7580843e+000
2.1110761e+000
2.4728358e+000
2.8670673e+000
3.2548170e+000
3.6115990e+000
3.9459376e+000
4.2078967e+000
4.4420400e+000
4.6109157e+000
4.7927437e+000
5.0070567e+000
5.2819386e+000
5.6520286e+000
6.0499396e+000
6.4791441e+000
6.8904357e+000
7.2810998e+000
7.6448178e+000
7.9847250e+000
8.3025818e+000
8.6049929e+000
8.8942814e+000
9.1679840e+000
9.3736191e+000
9.5423450e+000
9.6020870e+000
9.6339951e+000
9.6358566e+000
9.6351795e+000
9.6440487e+000
9.6449966e+000
9.5912590e+000
9.5076084e+000
9.2892246e+000
9.0137215e+000
8.5549803e+000
8.0645161e+000
7.5040498e+000
6.9971685e+000
6.5981255e+000
6.2850981e+000
6.0982947e+000
5.9369402e+000
5.7973900e+000
5.5957956e+000
5.3299766e+000
4.9748926e+000
4.5564241e+000
4.1157198e+000
3.6696610e+000
3.2854612e+000
2.9353542e+000
2.6923144e+000
2.4879148e+000
2.3913958e+000
2.3115177e+000
2.2147200e+000
2.1014085e+000
1.8125043e+000
1.5116343e+000
1.1411811e+000
7.9005212e-001
5.2484429e-001
2.7546376e-001
7.5163327e-002
-1.3317659e-001
-3.6034828e-001
-6.0153949e-001
-8.6709678e-001
-1.1191541e+000
-1.3487301e+000
-1.4882236e+000
-1.5275486e+000
-1.4439878e+000
-1.2589906e+000
-1.0064029e+000
-7.1260309e-001
-3.9940912e-001
-7.9974413e-002
1.9331650e-001
4.4622195e-001
5.7127547e-001
6.6401941e-001
6.3424891e-001
5.8576959e-001
4.3880916e-001
2.8769910e-001
1.3316785e-001
0.0000000e+000
-9.1139227e-004
-2.4577662e-002
7.5723566e-002
1.7208228e-001
2.5550002e-001
3.0510530e-001
2.8256863e-001
2.5091875e-001
2.0497507e-001
1.7866139e-001
1.7514056e-001
1.3970987e-001
7.4788317e-002
-6.3730478e-003
-9.8100126e-002
-1.4944898e-001
-1.8084300e-001
-2.1512425e-001
-2.5224277e-001
-1.9798280e-001
-1.2078886e-001
1.4052066e-001
4.3082273e-001
7.1232003e-001
