Image.
>Pix99999.
  .
5555
5555
2300
900
5555
2
1
0
701
5555
1.2779000e-001
1.3050611e-001
1.3322222e-001
1.3592839e-001
1.3864446e-001
1.4136057e-001
1.4407668e-001
1.4679280e-001
1.4950892e-001
1.5222503e-001
1.5494114e-001
1.5765727e-001
1.6036354e-001
1.6307949e-001
1.6579559e-001
1.6851172e-001
1.7122783e-001
1.7394394e-001
1.7666006e-001
1.7937617e-001
1.8209229e-001
1.8479870e-001
1.8751451e-001
1.9023062e-001
1.9294675e-001
1.9566286e-001
1.2058974e-001
4.5394711e-003
-9.8169602e-002
-1.2736499e-001
-1.4587000e-001
-1.2083615e-001
-9.0943679e-002
-2.1621710e-002
5.5634603e-002
1.8083885e-001
2.9782397e-001
3.6583892e-001
4.0696782e-001
3.7402147e-001
3.1910285e-001
2.2530633e-001
1.2508720e-001
1.8188300e-002
-7.9189338e-002
-1.6416994e-001
-2.5615156e-001
-3.5560966e-001
-4.2009720e-001
-4.5808110e-001
-3.4495714e-001
-1.4574538e-001
9.8555714e-002
3.6009336e-001
4.6433145e-001
5.1708287e-001
5.1622361e-001
5.0378591e-001
5.1974219e-001
5.3936535e-001
5.0329745e-001
4.6102747e-001
4.0638116e-001
3.5480163e-001
3.2736668e-001
3.0746236e-001
3.0628493e-001
3.0909905e-001
3.1741640e-001
3.2086709e-001
3.1412101e-001
3.1472382e-001
3.2750279e-001
3.6801210e-001
4.3830788e-001
5.3250855e-001
6.4504665e-001
7.3850673e-001
8.1732213e-001
8.3125508e-001
8.1070828e-001
7.4789160e-001
6.6884524e-001
6.3754940e-001
6.2199080e-001
7.1476036e-001
8.3238417e-001
9.9736387e-001
1.1680280e+000
1.3091687e+000
1.4384915e+000
1.5112020e+000
1.5518240e+000
1.4872419e+000
1.3927122e+000
1.2543786e+000
1.1380600e+000
1.0847111e+000
1.0580460e+000
1.0605383e+000
1.0673286e+000
1.0740334e+000
1.0972968e+000
1.1376876e+000
1.1698834e+000
1.1936951e+000
1.1846260e+000
1.1548678e+000
1.1295183e+000
1.1077323e+000
1.1225214e+000
1.1522367e+000
1.1814760e+000
1.2099154e+000
1.2028637e+000
1.1863928e+000
1.1538160e+000
1.1222481e+000
1.1388003e+000
1.1794710e+000
1.3008286e+000
1.4392074e+000
1.5800385e+000
1.6905081e+000
1.7200731e+000
1.6875072e+000
1.5638701e+000
1.3927761e+000
1.1782771e+000
9.7469974e-001
7.9621798e-001
6.8832868e-001
6.4407980e-001
6.6482919e-001
7.2678971e-001
7.8277087e-001
8.2977277e-001
8.8855392e-001
9.5368856e-001
1.0688020e+000
1.2053800e+000
1.2929331e+000
1.3645175e+000
1.3769903e+000
1.3748320e+000
1.3755100e+000
1.3723177e+000
1.3332430e+000
1.2813057e+000
1.2082305e+000
1.1341429e+000
1.0695605e+000
9.9329138e-001
8.9067864e-001
7.8126842e-001
6.7804271e-001
6.1925745e-001
6.2012893e-001
6.6853082e-001
7.5236005e-001
8.8476342e-001
1.0534061e+000
1.3030283e+000
1.6077267e+000
1.8651011e+000
2.0862565e+000
2.0619586e+000
1.9129643e+000
1.6659679e+000
1.3837520e+000
1.2389343e+000
1.1483238e+000
1.1482463e+000
1.1762047e+000
1.1767880e+000
1.1543000e+000
1.0590189e+000
9.2964607e-001
7.8068477e-001
6.4615119e-001
5.6989861e-001
5.3544164e-001
5.4279178e-001
5.6479621e-001
5.8347934e-001
6.4727384e-001
7.6666325e-001
9.8701584e-001
1.3046217e+000
1.5697290e+000
1.7732486e+000
1.8197465e+000
1.7564497e+000
1.6098093e+000
1.4207586e+000
1.1421522e+000
8.1933922e-001
5.5248070e-001
3.1625330e-001
3.0328041e-001
3.8469285e-001
5.3996861e-001
7.0606655e-001
7.6177251e-001
7.4176073e-001
5.8993113e-001
3.7869865e-001
1.3864094e-001
-7.6643795e-002
-2.1569663e-001
-2.3564799e-001
-9.6781157e-002
2.0251676e-001
6.5716076e-001
1.0206585e+000
1.2245343e+000
1.1000440e+000
6.9066525e-001
2.5660783e-001
-1.3866468e-001
-3.3503571e-001
-3.9045072e-001
-2.6830760e-001
-5.0734393e-002
2.4633095e-001
5.7497996e-001
6.3458270e-001
5.4050153e-001
1.7632723e-001
-2.9168713e-001
-6.0502076e-001
-7.8614378e-001
-6.8782443e-001
-4.2146230e-001
1.1438370e-002
4.3278569e-001
6.5851879e-001
6.5405107e-001
3.2992923e-001
-1.2834617e-001
-6.1825973e-001
-9.9617290e-001
-1.2029897e+000
-1.2377075e+000
-1.1282406e+000
-9.0677899e-001
-6.1178112e-001
-2.8577441e-001
4.4748403e-002
3.3984923e-001
6.0373855e-001
8.0413711e-001
9.7127807e-001
9.8010790e-001
9.0077287e-001
7.3880792e-001
5.4543698e-001
4.4223255e-001
4.2451191e-001
6.1247909e-001
9.3395770e-001
1.3547471e+000
1.7012826e+000
1.6915032e+000
1.4127023e+000
9.1838652e-001
4.5116702e-001
2.1283355e-001
6.0533538e-002
-1.2271186e-001
-2.1672729e-001
-1.6894603e-001
2.2851375e-001
9.8394167e-001
1.8387594e+000
2.6884143e+000
3.0466075e+000
2.9535890e+000
2.7306609e+000
2.4719832e+000
2.5438600e+000
2.8635588e+000
2.8802075e+000
2.6505566e+000
1.8926114e+000
8.3892012e-001
8.8658094e-002
-3.0836600e-001
1.1693349e-001
1.2313449e+000
2.9415386e+000
4.7085385e+000
5.7852988e+000
6.3863149e+000
6.7102160e+000
7.2650900e+000
8.4902029e+000
1.0609792e+001
1.3698236e+001
1.7223808e+001
2.0856714e+001
2.3894211e+001
2.6135397e+001
2.8224625e+001
3.0384600e+001
3.3483135e+001
3.7510876e+001
4.2098125e+001
4.7059200e+001
5.1187813e+001
5.4579231e+001
5.7976768e+001
6.1444218e+001
6.5414795e+001
6.9743515e+001
7.3987801e+001
7.8155312e+001
8.2213547e+001
8.6151558e+001
8.9907204e+001
9.3487175e+001
9.6887924e+001
9.9916481e+001
1.0236793e+002
1.0345132e+002
1.0261929e+002
1.0043979e+002
9.7495148e+001
9.4256294e+001
9.1009552e+001
8.7301514e+001
8.3007195e+001
7.8449432e+001
7.3784576e+001
6.9429680e+001
6.5426102e+001
6.1417240e+001
5.7345005e+001
5.3321426e+001
4.9355068e+001
4.5493172e+001
4.1763889e+001
3.8322918e+001
3.5220840e+001
3.2585999e+001
3.0393364e+001
2.8495861e+001
2.6890444e+001
2.5522537e+001
2.4408543e+001
2.3530499e+001
2.2868837e+001
2.2370178e+001
2.2010817e+001
2.1753189e+001
2.1661306e+001
2.1760017e+001
2.2121910e+001
2.2758772e+001
2.3707188e+001
2.4964487e+001
2.6375429e+001
2.7897429e+001
2.9242050e+001
3.0353559e+001
3.1338921e+001
3.2216133e+001
3.3512596e+001
3.5344322e+001
3.8099644e+001
4.1671558e+001
4.4720711e+001
4.7119297e+001
4.8684612e+001
4.9626083e+001
5.0788071e+001
5.2170086e+001
5.3706360e+001
5.4852402e+001
5.4874306e+001
5.3822742e+001
5.1943226e+001
4.9857571e+001
4.8154789e+001
4.6777767e+001
4.5666149e+001
4.4568684e+001
4.3348785e+001
4.1748669e+001
3.9671677e+001
3.7502129e+001
3.5347198e+001
3.3421440e+001
3.1761673e+001
2.9681631e+001
2.7009729e+001
2.4067612e+001
2.0899366e+001
1.8276199e+001
1.6294250e+001
1.4518143e+001
1.2938114e+001
1.1353134e+001
9.7227755e+000
7.9884024e+000
6.1513314e+000
4.2583342e+000
2.5000558e+000
1.1273031e+000
2.6135314e-001
1.1492148e-003
3.3074516e-001
1.2008928e+000
2.1025419e+000
2.7390192e+000
3.2217672e+000
3.5557394e+000
4.0496240e+000
4.8683105e+000
5.8022466e+000
6.8354001e+000
7.4410758e+000
7.3899598e+000
7.0937538e+000
6.4925323e+000
5.9281430e+000
5.4167743e+000
4.9582419e+000
4.5797758e+000
4.3257775e+000
4.1869102e+000
4.0472088e+000
3.8581023e+000
3.5377700e+000
3.1606240e+000
2.8868401e+000
2.7872107e+000
2.9331024e+000
3.2307568e+000
3.5648661e+000
3.8184600e+000
3.8648920e+000
3.8520470e+000
3.8523598e+000
3.9353018e+000
4.1622524e+000
4.4501114e+000
4.8091288e+000
5.1900401e+000
5.6013913e+000
5.9381504e+000
6.1375756e+000
6.1906691e+000
6.0279741e+000
5.8079309e+000
5.5019250e+000
5.1338987e+000
4.6856480e+000
4.2325563e+000
3.7949812e+000
3.4608572e+000
3.2234929e+000
3.0294039e+000
2.8611062e+000
2.6584423e+000
2.4326830e+000
2.1763337e+000
1.8750647e+000
1.5165012e+000
1.1372402e+000
7.7784473e-001
4.7425973e-001
2.6310611e-001
9.2701241e-002
-5.3394116e-002
-1.7685822e-001
-2.0746440e-001
-1.4606607e-001
8.6853027e-002
2.9313654e-001
4.3088770e-001
4.3147027e-001
2.3047957e-001
4.9119666e-002
-7.3370278e-002
-6.3253559e-002
1.2767066e-001
4.2233792e-001
8.2424057e-001
1.2420952e+000
1.6428900e+000
1.9471107e+000
2.1456428e+000
2.2241867e+000
2.2106118e+000
2.1248615e+000
1.9900098e+000
1.8189390e+000
1.6430289e+000
1.5069180e+000
1.4123572e+000
1.4065251e+000
1.4365578e+000
1.5133334e+000
1.5930359e+000
1.6655722e+000
1.7156397e+000
1.7129078e+000
1.6914136e+000
1.6348305e+000
1.6100543e+000
1.6477450e+000
1.7423354e+000
1.9247242e+000
2.1254156e+000
2.3528492e+000
2.5795410e+000
2.8179111e+000
3.0898621e+000
3.4064963e+000
3.7753258e+000
4.1857724e+000
4.6016002e+000
5.0125546e+000
5.3928947e+000
5.7618999e+000
6.1496372e+000
6.5417647e+000
6.9296880e+000
7.2686143e+000
7.4492359e+000
7.5502625e+000
7.4854598e+000
7.3958440e+000
7.2779617e+000
7.1523623e+000
7.0037298e+000
6.8261294e+000
6.5784197e+000
6.2981482e+000
5.9474373e+000
5.5409374e+000
5.0367975e+000
4.4840155e+000
3.8750956e+000
3.3027008e+000
2.7800441e+000
2.3019161e+000
1.8578194e+000
1.3905786e+000
9.0905499e-001
4.3956244e-001
-1.8205643e-003
-3.5343641e-001
-6.4069247e-001
-8.2388031e-001
-9.5822591e-001
-1.0310303e+000
-1.0783114e+000
-1.0806742e+000
-1.0544380e+000
-9.3851715e-001
-8.0796593e-001
-6.3991398e-001
-4.8631316e-001
-3.7420550e-001
-2.6482093e-001
-1.6057414e-001
-4.5922734e-002
8.7466002e-002
2.1621257e-001
3.3181250e-001
4.1456756e-001
4.4666672e-001
4.3018621e-001
3.5914609e-001
2.6184556e-001
1.4868808e-001
6.4335354e-002
1.3467602e-002
3.9634939e-002
1.1970425e-001
3.1144947e-001
5.6314528e-001
9.0401804e-001
1.2842815e+000
1.7420849e+000
2.2170942e+000
2.7109919e+000
3.1983802e+000
3.6418073e+000
4.0636735e+000
4.3955917e+000
4.6859336e+000
4.8440843e+000
4.9816451e+000
5.0731468e+000
5.1930618e+000
5.3695440e+000
5.5643754e+000
5.7871428e+000
6.0106072e+000
6.2441039e+000
6.5423384e+000
6.9162664e+000
7.3852892e+000
7.9189525e+000
8.4025307e+000
8.8300114e+000
9.0738468e+000
9.2185698e+000
9.2429686e+000
9.2182188e+000
9.1191826e+000
8.9930286e+000
8.7862015e+000
8.5897512e+000
8.5463848e+000
8.5591536e+000
8.8839598e+000
9.2013741e+000
9.4800720e+000
9.6703939e+000
9.5787058e+000
9.4539051e+000
9.2568254e+000
9.1250372e+000
9.1193924e+000
9.1686172e+000
9.2937593e+000
9.3867598e+000
9.4313822e+000
9.3559008e+000
9.1572199e+000
8.7884674e+000
8.2965994e+000
7.7382278e+000
7.1577344e+000
6.7058411e+000
6.3104568e+000
5.9863229e+000
5.6734529e+000
5.2734728e+000
4.8600564e+000
4.4635363e+000
4.0796394e+000
3.8286836e+000
3.5814462e+000
3.3503823e+000
3.0777571e+000
2.6200070e+000
2.1031351e+000
1.4071269e+000
7.5158006e-001
1.9676611e-001
-2.2279042e-001
-4.0543592e-001
-5.1919609e-001
-5.4360378e-001
-5.9390301e-001
-6.6786116e-001
-6.9613814e-001
-6.8245482e-001
-5.6825531e-001
-3.9529353e-001
-2.5061199e-001
-1.2269038e-001
-7.1264766e-002
-4.4656690e-002
-3.1881887e-002
-2.0905873e-002
7.5965002e-003
3.7158959e-002
3.8508140e-002
3.7120499e-002
1.2234857e-002
7.4341744e-003
2.2567743e-001
5.0262511e-001
1.0281600e+000
1.5708600e+000
2.1633270e+000
2.7449822e+000
3.2997456e+000
3.6987469e+000
3.8446493e+000
3.7716079e+000
3.4372103e+000
3.3558314e+000
3.5169253e+000
4.1717486e+000
5.1721745e+000
5.9767113e+000
6.6697102e+000
6.6683917e+000
6.3986616e+000
6.0156288e+000
5.6040058e+000
5.8386674e+000
6.1772289e+000
6.8267002e+000
