##TITLE=Methyl Ethyl Ketone
##JCAMP-DX=4.24
##DATA TYPE=INFRARED SPECTRUM
##XUNITS=cm-1
##YUNITS=Absorbance
##FIRSTX=900
##LASTX=2300
##XYDATA=(X++(Y..Y))
2296 0.089532003
2294 0.091394335
2292 0.093256675
2290 0.095120005
2288 0.096982345
2286 0.098844677
2284 0.10070404
2282 0.1025713
2280 0.10442875
2278 0.10629596
2276 0.10815343
2274 0.11002062
2272 0.11187811
2270 0.11374527
2268 0.1156126
2266 0.11747014
2264 0.11933725
2262 0.12119482
2260 0.12306191
2258 0.12491951
2256 0.12678656
2254 0.1286442
2252 0.13051122
2250 0.13236889
2248 0.13423587
2246 0.13609357
2244 0.039736599
2242 0.0013892272
2240 -0.02899584
2238 0.015471929
2236 0.070903391
2234 0.15295866
2232 0.23559806
2230 0.28882375
2228 0.32627305
2226 0.248925
2224 0.14972262
2222 -0.022839393
2220 -0.18988742
2218 -0.32826939
2216 -0.41820201
2214 -0.40579239
2212 -0.34006619
2210 -0.19719099
2208 -0.073346548
2206 0.02085872
2204 0.059871044
2202 0.047532488
2200 0.0058355117
2198 -0.055276383
2196 -0.11139935
2194 -0.1639252
2192 -0.17639543
2190 -0.17143336
2188 -0.18821819
2186 -0.2124377
2184 -0.30034479
2182 -0.40277272
2180 -0.44833428
2178 -0.48433521
2176 -0.44243944
2174 -0.40061116
2172 -0.44092351
2170 -0.50242901
2168 -0.64082319
2166 -0.75990754
2164 -0.78137213
2162 -0.7538684
2160 -0.62585747
2158 -0.52203274
2156 -0.48341298
2154 -0.52341431
2152 -0.66759837
2150 -0.82496744
2148 -0.98502541
2146 -1.0733392
2144 -1.0979457
2142 -1.046322
2140 -0.94625783
2138 -0.83093947
2136 -0.71000397
2134 -0.63597739
2132 -0.58183944
2130 -0.59653699
2128 -0.63258642
2126 -0.68272662
2124 -0.73580801
2122 -0.70089495
2120 -0.64922363
2118 -0.54589248
2116 -0.44469199
2114 -0.41401371
2112 -0.4048965
2110 -0.44570762
2108 -0.47362301
2106 -0.44058222
2104 -0.38088104
2102 -0.28233239
2100 -0.2288246
2098 -0.26067644
2096 -0.36023569
2094 -0.53211904
2092 -0.69217575
2090 -0.82906669
2088 -0.92509758
2086 -0.9898535
2084 -1.0275862
2082 -1.0501511
2080 -1.042644
2078 -1.0204371
2076 -0.97774315
2074 -0.92726427
2072 -0.85042483
2070 -0.76542413
2068 -0.67545021
2066 -0.58647037
2064 -0.58232689
2062 -0.60303932
2060 -0.70484704
2058 -0.81905949
2056 -0.91346514
2054 -0.98705715
2052 -1.0010974
2050 -1.0004284
2048 -0.99346906
2046 -1.0101571
2044 -1.0758461
2042 -1.1615981
2040 -1.262256
2038 -1.3393604
2036 -1.38328
2034 -1.3992414
2032 -1.3942406
2030 -1.38774
2028 -1.3836892
2026 -1.3969636
2024 -1.4216515
2022 -1.4395077
2020 -1.4532779
2018 -1.4566213
2016 -1.4552
2014 -1.4841076
2012 -1.5225886
2010 -1.5642383
2008 -1.6052275
2006 -1.6314393
2004 -1.651058
2002 -1.6543679
2000 -1.6411097
1998 -1.5784068
1996 -1.4956928
1994 -1.3924049
1992 -1.3121645
1990 -1.2917114
1988 -1.31653
1986 -1.3897671
1984 -1.4642988
1982 -1.524826
1980 -1.5839249
1978 -1.6470174
1976 -1.6694686
1974 -1.654706
1972 -1.4730591
1970 -1.1704251
1968 -0.87411302
1966 -0.5957765
1964 -0.63327032
1962 -0.83460355
1960 -1.14078
1958 -1.4830898
1956 -1.6688142
1954 -1.7944772
1952 -1.8581411
1950 -1.9001178
1948 -1.9353977
1946 -1.96785
1944 -1.993192
1942 -2.0296328
1940 -2.0980911
1938 -2.1828761
1936 -2.2811201
1934 -2.350477
1932 -2.3587661
1930 -2.2948031
1928 -2.1487916
1926 -1.9294
1924 -1.6470954
1922 -1.3427129
1920 -1.0292175
1918 -0.83587337
1916 -0.74759769
1914 -0.76916748
1912 -0.85715926
1910 -0.96290249
1908 -1.0734961
1906 -1.2930815
1904 -1.5711
1902 -1.8260877
1900 -2.0655234
1898 -2.0123022
1896 -1.8355429
1894 -1.5630143
1892 -1.2858272
1890 -1.22086
1888 -1.2833195
1886 -1.5350121
1884 -1.8657438
1882 -2.2201669
1880 -2.5364189
1878 -2.7480814
1876 -2.8006001
1874 -2.6355276
1872 -2.2777743
1870 -1.7435938
1868 -1.3055702
1866 -1.0455457
1864 -1.1354034
1862 -1.530632
1860 -1.991946
1858 -2.4456444
1856 -2.6975944
1854 -2.7993529
1852 -2.6425891
1850 -2.3358366
1848 -1.881332
1846 -1.3584179
1844 -1.1079491
1842 -1.0156469
1840 -1.2578449
1838 -1.6372664
1836 -1.8791871
1834 -2.0004768
1832 -1.8516885
1830 -1.5660263
1828 -1.2139966
1826 -0.9401114
1824 -0.9323892
1822 -1.1495769
1820 -1.612902
1818 -2.1189849
1816 -2.5442429
1814 -2.7921059
1812 -2.8318875
1810 -2.744767
1808 -2.5848794
1806 -2.3905849
1804 -2.1820543
1802 -1.9268413
1800 -1.6369166
1798 -1.299535
1796 -0.93175858
1794 -0.58986932
1792 -0.2642056
1790 -0.14284219
1788 -0.14256868
1786 -0.23484321
1784 -0.3635124
1782 -0.38971078
1780 -0.33134881
1778 -0.11068602
1776 0.22699609
1774 0.69314438
1772 1.1306732
1770 1.2992709
1768 1.2171851
1766 0.85581285
1764 0.46184158
1762 0.24132936
1760 0.070686914
1758 -0.14832556
1756 -0.26669386
1754 -0.21735105
1752 0.21859872
1750 1.0488765
1748 2.0033243
1746 2.9657037
1744 3.4002779
1742 3.3418524
1740 3.1002471
1738 2.7861154
1736 2.7702
1734 2.98421
1732 2.8804996
1730 2.5215688
1728 1.6620073
1726 0.53301126
1724 -0.19575456
1722 -0.49185511
1720 0.16908169
1718 1.6228037
1716 3.6560857
1714 5.6691017
1712 6.8162861
1710 7.3967628
1708 7.714992
1706 8.3060255
1704 9.640027
1702 11.9157
1700 15.181054
1698 18.931314
1696 22.833284
1694 26.126301
1692 28.588799
1690 30.862204
1688 33.182983
1686 36.474277
1684 40.732399
1682 45.452755
1680 50.447399
1678 54.437908
1676 57.557228
1674 60.832436
1672 64.315079
1670 68.437225
1668 72.983185
1666 77.199051
1664 81.121811
1662 84.762383
1660 88.181335
1658 91.475426
1656 94.651543
1654 97.70871
1652 100.43988
1650 102.62328
1648 103.41943
1646 102.21429
1644 99.635696
1642 96.317055
1640 92.769722
1638 89.305557
1636 85.387299
1634 80.847778
1632 76.044304
1630 71.144417
1628 66.647308
1626 62.603107
1624 58.575958
1622 54.49234
1620 50.388409
1618 46.275772
1616 42.26757
1614 38.399708
1612 34.884178
1610 31.761131
1608 29.11244
1606 26.905207
1604 24.966518
1602 23.300177
1600 21.869354
1598 20.698473
1596 19.782001
1594 19.09886
1592 18.590189
1590 18.230303
1588 17.97666
1586 17.898643
1584 18.025726
1582 18.460772
1580 19.233456
1578 20.416637
1576 22.017141
1574 23.793802
1572 25.670395
1570 27.276005
1568 28.535439
1566 29.631035
1564 30.592306
1562 31.953907
1560 33.842625
1558 36.758896
1556 40.624771
1554 44.109379
1552 47.034897
1550 48.972725
1548 50.132431
1546 51.452858
1544 52.967052
1542 54.689949
1540 56.062981
1538 56.291515
1536 55.356373
1534 53.426323
1532 51.203239
1530 49.389767
1528 48.023064
1526 47.112701
1524 46.346771
1522 45.547897
1520 44.227978
1518 42.165573
1516 39.840027
1514 37.373787
1512 35.17152
1510 33.326046
1508 31.001062
1506 27.993586
1504 24.622057
1502 20.920147
1500 17.867731
1498 15.58814
1496 13.608714
1494 11.945048
1492 10.371067
1490 8.8523483
1488 7.2697892
1486 5.5941925
1484 3.7993503
1482 2.0938981
1480 0.78543437
1478 0.032543883
1476 0.022535577
1474 0.68931729
1472 1.8590896
1470 2.9771581
1468 3.6542468
1466 4.0628271
1464 4.2389083
1462 4.5933833
1460 5.3449702
1458 6.2877817
1456 7.4265599
1454 8.112072
1452 8.0738792
1450 7.6941843
1448 6.8711638
1446 6.0929785
1444 5.390213
1442 4.811635
1440 4.4126382
1438 4.1981502
1436 4.1740484
1434 4.1770988
1432 4.1476574
1430 3.9492543
1428 3.639148
1426 3.3748257
1424 3.2375853
1422 3.3339512
1420 3.5857551
1418 3.8926427
1416 4.1199398
1414 4.1183519
1412 4.0185323
1410 3.8789349
1408 3.820364
1406 3.9392343
1404 4.1907296
1402 4.6314139
1400 5.1647639
1398 5.8245821
1396 6.4090428
1394 6.8340259
1392 7.0257993
1390 6.8472881
1388 6.5455227
1386 6.0673351
1384 5.5567079
1382 5.0166683
1380 4.5311289
1378 4.1303806
1376 3.8420086
1374 3.6555989
1372 3.4885459
1370 3.3286383
1368 3.1386926
1366 2.9304786
1364 2.7048049
1362 2.42384
1360 2.0351372
1358 1.573858
1356 1.0613146
1354 0.59518027
1352 0.26690817
1350 0.047586501
1348 -0.032573059
1346 -0.049843289
1344 0.11838536
1342 0.40127519
1340 0.88322353
1338 1.301294
1336 1.5655057
1334 1.6207302
1332 1.3367578
1330 1.044729
1328 0.7715441
1326 0.64607358
1324 0.73237157
1322 0.95521033
1320 1.3282777
1318 1.7294387
1316 2.1221101
1314 2.4037533
1312 2.5668857
1310 2.6125917
1308 2.5729752
1306 2.4847021
1304 2.3667057
1302 2.234062
1300 2.1019056
1298 1.9962571
1296 1.9125286
1294 1.8727019
1292 1.8465379
1290 1.8335947
1288 1.822408
1286 1.8130193
1284 1.8069074
1282 1.81303
1280 1.8255057
1278 1.8565327
1276 1.9170742
1274 2.0349789
1272 2.196224
1270 2.4242449
1268 2.6658235
1266 2.9239106
1264 3.1657736
1262 3.3890581
1260 3.5965579
1258 3.7933569
1256 4.00492
1254 4.243372
1252 4.5389209
1250 4.887166
1248 5.2953744
1246 5.7358251
1244 6.1898694
1242 6.636004
1240 7.0418539
1238 7.4100704
1236 7.6898355
1234 7.9140739
1232 8.0092239
1230 8.050457
1228 7.9575586
1226 7.8187556
1224 7.5556965
1222 7.2492905
1220 6.8421588
1218 6.424552
1216 5.9892001
1214 5.5637445
1212 5.1502843
1210 4.720088
1208 4.2637
1206 3.7853208
1204 3.2846639
1202 2.7873416
1200 2.3001754
1198 1.8461409
1196 1.4240999
1194 1.0398732
1192 0.68316329
1190 0.35193151
1188 0.047329411
1186 -0.1928865
1184 -0.38936144
1182 -0.4924342
1180 -0.55240482
1178 -0.52442849
1176 -0.46203399
1174 -0.30987853
1172 -0.15167871
1170 0.0086490884
1168 0.12662148
1166 0.11609228
1164 0.077231057
1162 -0.022940487
1160 -0.072827831
1158 -0.01909877
1156 0.082275704
1154 0.25208724
1152 0.38697553
1150 0.46512049
1148 0.47383302
1146 0.4049207
1144 0.30062863
1142 0.17369327
1140 0.080250293
1138 0.018635213
1136 0.0093603116
1134 0.039994985
1132 0.15898682
1130 0.33974707
1128 0.66662002
1126 1.0459952
1124 1.4905769
1122 1.9270754
1120 2.2603719
1118 2.5662222
1116 2.7773044
1114 2.9927247
1112 3.2319281
1110 3.4692018
1108 3.6970789
1106 3.8918951
1104 4.0067482
1102 4.1192355
1100 4.2358904
1098 4.4194503
1096 4.7119141
1094 5.0617576
1092 5.4797101
1090 5.8893471
1088 6.286972
1086 6.6553388
1084 6.9981132
1082 7.3172746
1080 7.612
1078 7.8343258
1076 8.0012274
1074 8.0045805
1072 7.937654
1070 7.7467809
1068 7.5446796
1066 7.4571724
1064 7.4151878
1062 7.5987029
1060 7.7886305
1058 7.9480672
1056 8.0738564
1054 8.0535336
1052 8.0350399
1050 8.0215197
1048 8.0030642
1046 7.970232
1044 7.9048495
1042 7.7808771
1040 7.659514
1038 7.5411577
1036 7.4123998
1034 7.2676883
1032 7.0834384
1030 6.863709
1028 6.6425023
1026 6.4235568
1024 6.2399864
1022 6.070621
1020 5.8561602
1018 5.6075554
1016 5.1761456
1014 4.6860342
1012 4.0912671
1010 3.4886429
1008 2.99946
1006 2.5359342
1004 2.2637031
1002 2.0051062
1000 1.8275822
998 1.6333742
996 1.3639286
994 1.063622
992 0.66923189
990 0.28207806
988 -0.085214823
986 -0.4009127
984 -0.62496853
982 -0.79624158
980 -0.89744741
978 -0.99163687
976 -1.0784115
974 -1.1660252
972 -1.2503632
970 -1.2638671
968 -1.2302697
966 -1.1091635
964 -0.94647741
962 -0.7403304
960 -0.51876336
958 -0.27460584
956 -0.028088853
954 0.1570905
952 0.3266156
950 0.29511189
948 0.2491606
946 0.11229107
944 0.00085237809
942 0.027498737
940 0.11235411
938 0.34133071
936 0.56197548
934 0.75844187
932 0.97601873
930 1.2395922
928 1.5493679
926 1.9311043
924 2.2513142
922 2.4953537
920 2.6691704
918 2.7787793
916 2.9303956
914 3.1116548
912 3.2789183
910 3.438082
908 3.6260953
906 3.824903
904 4.2030263
902 4.6272449
900 5.1037865
898 5.588316
896 6.0191002
