##TITLE=Methyl Ethyl Ketone
##JCAMP-DX=4.24
##DATA TYPE=INFRARED SPECTRUM
##XUNITS=cm-1
##YUNITS=Absorbance
##FIRSTX=900
##LASTX=2300
##XYDATA=(X++(Y..Y))
2296 -0.021692
2294 -0.022143353
2292 -0.022594709
2290 -0.023046063
2288 -0.023497416
2286 -0.023948772
2284 -0.024400126
2282 -0.024851479
2280 -0.025302835
2278 -0.025754189
2276 -0.026204556
2274 -0.026655897
2272 -0.027107252
2270 -0.027558604
2268 -0.02800996
2266 -0.028461315
2264 -0.028912667
2262 -0.029364023
2260 -0.029815378
2258 -0.03026673
2256 -0.030718086
2254 -0.031169441
2252 -0.031620797
2250 -0.032071181
2248 -0.032522503
2246 -0.032973859
2244 -0.0012253429
2242 0.055866688
2240 0.11724592
2238 0.13341758
2236 0.14293057
2234 0.098860614
2232 0.050848283
2230 0.00062404829
2228 -0.045204692
2226 -0.054973602
2224 -0.05403636
2222 -0.012405265
2220 0.034398507
2218 0.090395734
2216 0.14298394
2214 0.18697922
2212 0.2204936
2210 0.23770301
2208 0.22991897
2206 0.19220085
2204 0.14790611
2202 0.099080898
2200 0.082941979
2198 0.091446728
2196 0.11685057
2194 0.15106094
2192 0.16530104
2190 0.17052869
2188 0.17347324
2186 0.17586458
2184 0.1991144
2182 0.22715232
2180 0.26327506
2178 0.3005594
2176 0.33834314
2174 0.37460804
2172 0.39316314
2170 0.40339601
2168 0.37562183
2166 0.34336671
2164 0.30830675
2162 0.28939819
2160 0.31253344
2158 0.35044584
2156 0.40825498
2154 0.45569211
2152 0.48514012
2150 0.50680792
2148 0.52184194
2146 0.54701179
2144 0.58178097
2142 0.61309981
2140 0.64137
2138 0.6461578
2136 0.63830113
2134 0.62848788
2132 0.61828184
2130 0.64042902
2128 0.6728828
2126 0.72579008
2124 0.78330147
2122 0.82067472
2120 0.85281599
2118 0.8472535
2116 0.83348566
2114 0.79834771
2112 0.76082468
2110 0.72620904
2108 0.69823378
2106 0.68900812
2104 0.69269449
2102 0.71884942
2100 0.75353879
2098 0.79701835
2096 0.83432859
2094 0.86199528
2092 0.87874097
2090 0.88564068
2088 0.89305705
2086 0.90185148
2084 0.90280968
2082 0.89839417
2080 0.87555379
2078 0.84350812
2076 0.81897116
2074 0.79805183
2072 0.79127884
2070 0.78901672
2068 0.78978992
2066 0.79166305
2064 0.80245197
2062 0.81473249
2060 0.82113665
2058 0.8228085
2056 0.80474144
2054 0.78230965
2052 0.7591213
2050 0.74330395
2048 0.74788481
2046 0.76327574
2044 0.79242343
2042 0.82102269
2040 0.84385467
2038 0.85370314
2036 0.8481493
2034 0.83720773
2032 0.82397401
2030 0.82414591
2028 0.83581078
2026 0.85652417
2024 0.88226587
2022 0.90181869
2020 0.91803724
2018 0.92182517
2016 0.92011803
2014 0.90414172
2012 0.88282841
2010 0.86151493
2008 0.84173113
2006 0.85134333
2004 0.87053865
2002 0.9067024
2000 0.94195259
1998 0.95772344
1996 0.96079648
1994 0.94231832
1992 0.91408569
1990 0.87296891
1988 0.83386958
1986 0.79982489
1984 0.77958387
1982 0.77699703
1980 0.77732772
1978 0.77803332
1976 0.77774626
1974 0.77741522
1972 0.8014701
1970 0.84490842
1968 0.89867043
1966 0.95660067
1964 0.9724592
1962 0.96474475
1960 0.935606
1958 0.89804018
1956 0.87712032
1954 0.86184269
1952 0.84043711
1950 0.81521112
1948 0.78640485
1946 0.75970745
1944 0.74791276
1942 0.7454077
1940 0.74742949
1938 0.74726963
1936 0.73499739
1934 0.71352541
1932 0.68503582
1930 0.65582007
1928 0.63300377
1926 0.62330759
1924 0.63103932
1922 0.65732843
1920 0.69643927
1918 0.72196501
1916 0.72822088
1914 0.70389622
1912 0.65984654
1910 0.61458516
1908 0.57223129
1906 0.53280401
1904 0.4940176
1902 0.46486109
1900 0.43894953
1898 0.45577693
1896 0.49040002
1894 0.54795468
1892 0.61027944
1890 0.63856781
1888 0.6450178
1886 0.6070025
1884 0.55215216
1882 0.49497241
1880 0.4437317
1878 0.41151968
1876 0.38924402
1874 0.38019064
1872 0.38132149
1870 0.3953329
1868 0.41401702
1866 0.4250958
1864 0.41465783
1862 0.37624779
1860 0.32735866
1858 0.27862543
1856 0.24292915
1854 0.22077544
1852 0.20977856
1850 0.20780885
1848 0.2113388
1846 0.22120215
1844 0.21591409
1842 0.20533721
1840 0.1819796
1838 0.15322945
1836 0.15210386
1834 0.1652223
1832 0.20821629
1830 0.26613772
1828 0.32292649
1826 0.37147
1824 0.38245994
1822 0.36091432
1820 0.3042846
1818 0.23474272
1816 0.17525685
1814 0.13154729
1812 0.10930926
1810 0.10210707
1808 0.10227314
1806 0.114961
1804 0.13757482
1802 0.1331224
1800 0.10498886
1798 0.038610544
1796 -0.053120427
1794 -0.080855653
1792 -0.064601481
1790 0.019249693
1788 0.13665539
1786 0.22200586
1784 0.28199822
1782 0.30696782
1780 0.30872917
1778 0.3008531
1776 0.29528657
1774 0.32308754
1772 0.37331045
1770 0.42002556
1768 0.43805104
1766 0.37911031
1764 0.27672181
1762 0.16966233
1760 0.049200971
1758 -0.08377409
1756 -0.18970557
1754 -0.24964479
1752 -0.25906405
1750 -0.22129549
1748 -0.18166897
1746 -0.15917251
1744 -0.20230201
1742 -0.31248447
1740 -0.42700788
1738 -0.53050214
1736 -0.51388997
1734 -0.40027583
1732 -0.23918498
1730 -0.059541017
1728 -0.012887623
1726 -0.061621755
1724 -0.10595901
1722 -0.1222524
1720 0.01453314
1718 0.29190254
1716 0.75508529
1714 1.3212776
1712 1.8361371
1710 2.3114018
1708 2.7779779
1706 3.3832228
1704 4.2768459
1702 5.7154942
1700 7.8240418
1698 10.825181
1696 14.679713
1694 18.638538
1692 22.352169
1690 25.664129
1688 28.625086
1686 32.083794
1684 36.133553
1682 41.000065
1680 46.508961
1678 51.397671
1676 55.690987
1674 59.838089
1672 63.959145
1670 68.778336
1668 74.114525
1666 79.368454
1664 84.432755
1662 88.950569
1660 92.945374
1658 96.441452
1656 99.364342
1654 101.60164
1652 102.8712
1650 102.87454
1648 101.6676
1646 99.407677
1644 96.707146
1642 94.102493
1640 91.361984
1638 88.382668
1636 84.747787
1634 80.359398
1632 75.789055
1630 71.252792
1628 66.923096
1626 62.818745
1624 58.59552
1622 54.219471
1620 49.9702
1618 45.86776
1616 42.053028
1614 38.545002
1612 35.472519
1610 32.844948
1608 30.645531
1606 28.852642
1604 27.32386
1602 26.06996
1600 25.062588
1598 24.301527
1596 23.749001
1594 23.386429
1592 23.159441
1590 23.049284
1588 23.019461
1586 23.066372
1584 23.181765
1582 23.36623
1580 23.618799
1578 24.001186
1576 24.532772
1574 25.275511
1572 26.230476
1570 27.31016
1568 28.489759
1566 29.650658
1564 30.782648
1562 32.064262
1560 33.593342
1558 36.040894
1556 39.482727
1554 43.309719
1552 47.276394
1550 50.316536
1548 52.463726
1546 54.291534
1544 55.837509
1542 57.276772
1540 58.39352
1538 58.843464
1536 58.545227
1534 57.523327
1532 56.071747
1530 54.586884
1528 53.083378
1526 51.572201
1524 49.907516
1522 47.986397
1520 45.789772
1518 43.268528
1516 40.826775
1514 38.608974
1512 36.53904
1510 34.646801
1508 32.2925
1506 29.318264
1504 26.234428
1502 23.069441
1500 20.359543
1498 18.15657
1496 15.995571
1494 13.879748
1492 11.754951
1490 9.6390848
1488 7.5619473
1486 5.5815802
1484 3.7877119
1482 2.2649486
1480 1.1146268
1478 0.36850548
1476 0.066065468
1474 0.31961271
1472 1.0757177
1470 2.035727
1468 3.0144444
1466 3.8469033
1464 4.4309006
1462 4.9277229
1460 5.3974571
1458 5.8930945
1456 6.4313202
1454 6.8777342
1452 7.1538429
1450 7.264215
1448 7.1305637
1446 6.9271717
1444 6.6317143
1442 6.3224702
1440 5.9953923
1438 5.6373439
1436 5.2348504
1434 4.7511306
1432 4.19766
1430 3.6496174
1428 3.135236
1426 2.7294579
1424 2.44368
1422 2.2781255
1420 2.2344799
1418 2.2924178
1416 2.4281857
1414 2.6163821
1412 2.8226225
1410 3.0445008
1408 3.2766345
1406 3.5266972
1404 3.7996075
1402 4.097867
1400 4.4281278
1398 4.8050952
1396 5.2006998
1394 5.6148171
1392 5.9802594
1390 6.2386217
1388 6.3846555
1386 6.34305
1384 6.1665916
1382 5.8042679
1380 5.3647361
1378 4.8427038
1376 4.3160429
1374 3.807507
1372 3.3456879
1370 2.9420805
1368 2.6017458
1366 2.2852464
1364 1.9320792
1362 1.5367447
1360 1.0789258
1358 0.63473576
1356 0.29340839
1354 0.059725657
1352 0.0042413245
1350 0.036589153
1348 0.14958727
1346 0.28088892
1344 0.45105159
1342 0.63953292
1340 0.86194426
1338 1.092798
1336 1.3311657
1334 1.5483074
1332 1.7065731
1330 1.848439
1328 1.9674555
1326 2.1094229
1324 2.3002446
1322 2.5362425
1320 2.8373268
1318 3.1666319
1316 3.5185502
1314 3.8455791
1312 4.1265235
1310 4.3372231
1308 4.4726019
1306 4.5385704
1304 4.5525589
1302 4.5269709
1300 4.4821382
1298 4.4247727
1296 4.3673286
1294 4.3152428
1292 4.2744241
1290 4.2578101
1288 4.2557597
1286 4.2813392
1284 4.3079696
1282 4.3289833
1280 4.336072
1278 4.3110509
1276 4.2790813
1274 4.2403302
1272 4.2219973
1270 4.2455611
1268 4.307621
1266 4.4230552
1264 4.5576749
1262 4.7080488
1260 4.8457079
1258 4.9678631
1256 5.0764513
1254 5.1753807
1252 5.2774458
1250 5.3791227
1248 5.4735818
1246 5.555625
1244 5.6036487
1242 5.6306014
1240 5.6274009
1238 5.607605
1236 5.5613928
1234 5.4878998
1232 5.342876
1230 5.1574521
1228 4.8646336
1226 4.5385857
1224 4.1251593
1222 3.6891165
1220 3.2001305
1218 2.7095189
1216 2.2209656
1214 1.766911
1212 1.3768106
1210 1.036368
1208 0.7661593
1206 0.52348751
1204 0.31280082
1202 0.11560227
1200 -0.062481068
1198 -0.20877208
1196 -0.32328928
1194 -0.3998912
1192 -0.44833988
1190 -0.46880311
1188 -0.47277597
1186 -0.45965815
1184 -0.43505737
1182 -0.38645145
1180 -0.30789036
1178 -0.12841956
1176 0.096696794
1174 0.45152372
1172 0.8099317
1170 1.1495355
1168 1.442884
1166 1.5913943
1164 1.6957703
1162 1.691437
1160 1.6630702
1158 1.5848466
1156 1.4802229
1154 1.3309085
1152 1.1587183
1150 0.95752907
1148 0.75442624
1146 0.55247748
1144 0.36814547
1142 0.20676425
1140 0.0927701
1138 0.023696737
1136 0.028484173
1134 0.083629593
1132 0.20630972
1130 0.36141157
1128 0.55178946
1126 0.74882221
1124 0.93123055
1122 1.0937843
1120 1.1650959
1118 1.2112021
1116 1.1679842
1114 1.1344776
1112 1.1495045
1110 1.1940261
1108 1.3308668
1106 1.4688901
1104 1.6057978
1102 1.7128425
1100 1.7587659
1098 1.7739983
1096 1.7421
1094 1.7046347
1092 1.665858
1090 1.6666765
1088 1.7095628
1086 1.7820064
1084 1.8679332
1082 1.8899806
1080 1.8629999
1078 1.752599
1076 1.6064215
1074 1.4694993
1072 1.3428978
1070 1.2714926
1068 1.2163268
1066 1.1927199
1064 1.173712
1062 1.1587976
1060 1.1409487
1058 1.1029912
1056 1.0648886
1054 1.0270784
1052 0.99885404
1050 1.0009871
1048 1.0024567
1046 1.0001875
1044 0.9780044
1042 0.91724432
1040 0.83833301
1038 0.73144281
1036 0.60758901
1034 0.46275991
1032 0.29656118
1030 0.11345811
1028 -0.054361552
1026 -0.20393494
1024 -0.27505857
1022 -0.3000637
1020 -0.26792246
1018 -0.2178389
1016 -0.20830399
1014 -0.21518652
1012 -0.28324932
1010 -0.3618297
1008 -0.44326839
1006 -0.52447385
1004 -0.60096318
1002 -0.67915362
1000 -0.76921082
998 -0.85294896
996 -0.90794498
994 -0.94297093
992 -0.91561306
990 -0.86774635
988 -0.77315354
986 -0.67452967
984 -0.57032657
982 -0.49700066
980 -0.46744061
978 -0.4897626
976 -0.56644142
974 -0.65638936
972 -0.75482792
970 -0.81548107
968 -0.85025173
966 -0.834916
964 -0.79352152
962 -0.68518084
960 -0.55322617
958 -0.37201691
956 -0.18336818
954 -0.058774892
952 0.052709758
950 0.036431443
948 0.0156799
946 0.0051684752
944 0.0016201362
942 0.051316321
940 0.17868084
938 0.42646989
936 0.68321395
934 0.96522492
932 1.2008228
930 1.3352787
928 1.3718686
926 1.2524321
924 1.1279919
922 0.99947518
920 0.9619711
918 1.0086417
916 1.0557771
914 1.101969
912 1.0601983
910 0.97195864
908 0.81282175
906 0.62777901
904 0.44030896
902 0.2537103
900 0.19792148
898 0.16372274
896 0.29144999
