Image.
>Pix99999.
  .
5555
5555
2300
900
5555
2
1
0
701
5555
-3.2455001e-002
-3.3130035e-002
-3.3806067e-002
-3.4481101e-002
-3.5156138e-002
-3.5831172e-002
-3.6506206e-002
-3.7181240e-002
-3.7856273e-002
-3.8532294e-002
-3.9207343e-002
-3.9882377e-002
-4.0557411e-002
-4.1231465e-002
-4.1907459e-002
-4.2588387e-002
-4.3258663e-002
-4.3912116e-002
-4.4608053e-002
-4.5361482e-002
-4.5960970e-002
-4.6345629e-002
-4.7300391e-002
-4.9059287e-002
-4.8697915e-002
-3.9304357e-002
-1.4469742e-003
7.7597864e-002
1.6946204e-001
2.3676121e-001
2.5261328e-001
2.0177300e-001
1.0329247e-001
-1.1154467e-002
-9.8688722e-002
-1.2298200e-001
-8.6991645e-002
-8.6318254e-003
8.0128573e-002
1.4904973e-001
1.9106285e-001
2.0775561e-001
2.0754080e-001
2.0037439e-001
1.9452143e-001
1.9758470e-001
2.1678600e-001
2.5435218e-001
2.9266164e-001
3.1073728e-001
2.9892784e-001
2.5715426e-001
2.0944166e-001
1.8296620e-001
1.8692246e-001
2.2193593e-001
2.7750400e-001
3.4024394e-001
3.9910787e-001
4.4275883e-001
4.5552772e-001
4.2636612e-001
3.6898744e-001
3.0610520e-001
2.6391268e-001
2.6067543e-001
2.7836332e-001
2.8951412e-001
2.7776971e-001
2.3608813e-001
1.7896700e-001
1.2725590e-001
9.8391838e-002
1.0676853e-001
1.6009849e-001
2.5872323e-001
3.8223806e-001
5.0431418e-001
6.0387474e-001
6.6638267e-001
6.9577599e-001
7.0095724e-001
6.8463469e-001
6.4792210e-001
5.9519678e-001
5.3401041e-001
4.7971708e-001
4.4517341e-001
4.2140618e-001
3.9326462e-001
3.5371199e-001
3.0415440e-001
2.6736584e-001
2.6652873e-001
2.9408431e-001
3.2876199e-001
3.4160048e-001
3.1060228e-001
2.5281239e-001
1.9906339e-001
1.7487143e-001
1.9528697e-001
2.4266605e-001
2.8902999e-001
3.1588629e-001
3.1384102e-001
2.9381806e-001
2.7232501e-001
2.5637427e-001
2.4717063e-001
2.3903915e-001
2.2495346e-001
2.0328720e-001
1.7425321e-001
1.3631959e-001
8.8265575e-002
3.3571571e-002
-2.1360874e-002
-6.6199288e-002
-9.1954939e-002
-1.0172383e-001
-1.0324950e-001
-1.0222831e-001
-1.0262646e-001
-1.0568937e-001
-1.1158536e-001
-1.2047080e-001
-1.3061765e-001
-1.3206509e-001
-1.1498683e-001
-8.5018754e-002
-5.5951908e-002
-4.6790697e-002
-7.4051976e-002
-1.3565017e-001
-2.1848786e-001
-2.9808822e-001
-3.4844750e-001
-3.5656843e-001
-3.2020336e-001
-2.5681999e-001
-1.9016291e-001
-1.3441186e-001
-9.8019935e-002
-8.5796043e-002
-9.9529691e-002
-1.3411245e-001
-1.8085840e-001
-2.2904663e-001
-2.7022341e-001
-3.0884430e-001
-3.5057899e-001
-3.8015211e-001
-3.7462556e-001
-3.2237560e-001
-2.2568779e-001
-1.2042431e-001
-5.1938187e-002
-3.8828924e-002
-7.8567728e-002
-1.3815662e-001
-1.7414099e-001
-1.5795410e-001
-7.8616560e-002
3.4968130e-002
1.3759911e-001
1.9654056e-001
1.9567181e-001
1.5784439e-001
1.1968281e-001
9.5223546e-002
8.2261406e-002
6.4016119e-002
2.2515144e-002
-3.7366129e-002
-9.7778253e-002
-1.3769965e-001
-1.4121874e-001
-1.1759125e-001
-8.9682013e-002
-8.2031861e-002
-1.1447045e-001
-1.8702100e-001
-2.8674689e-001
-3.8981286e-001
-4.6635070e-001
-4.8182559e-001
-4.1024196e-001
-2.7182001e-001
-1.1325996e-001
1.3070827e-002
6.6797927e-002
6.4041212e-002
4.7536608e-002
4.0376578e-002
4.7537122e-002
5.4044761e-002
4.0788401e-002
1.4035287e-002
-5.5729682e-003
-7.0092850e-004
3.6894105e-002
8.9700967e-002
1.2645690e-001
1.1859783e-001
4.8670419e-002
-6.4507216e-002
-1.8394502e-001
-2.8372669e-001
-3.5125068e-001
-3.9554298e-001
-4.3275675e-001
-4.5814812e-001
-4.5516482e-001
-4.1470084e-001
-3.3935836e-001
-2.5830194e-001
-2.1111071e-001
-2.1564609e-001
-2.7307925e-001
-3.7558198e-001
-5.1213574e-001
-6.7522782e-001
-8.5598314e-001
-1.0280513e+000
-1.1549608e+000
-1.2038492e+000
-1.1559023e+000
-1.0394402e+000
-9.0866464e-001
-8.0346113e-001
-7.4090838e-001
-6.9059461e-001
-6.0080820e-001
-4.5344567e-001
-2.6360041e-001
-8.4830761e-002
1.8587878e-002
3.3034481e-002
-1.7271986e-002
-9.6635029e-002
-1.7060119e-001
-2.2584668e-001
-2.6162425e-001
-2.6935577e-001
-2.4187849e-001
-2.0933111e-001
-2.2333606e-001
-3.1654668e-001
-4.8740852e-001
-6.5092212e-001
-6.8468755e-001
-5.4387116e-001
-2.5768739e-001
7.8057028e-002
3.4617412e-001
5.0648785e-001
5.7777542e-001
5.8348918e-001
5.4462868e-001
4.8947200e-001
4.4833535e-001
4.3526620e-001
4.4543257e-001
4.4337457e-001
3.8541692e-001
2.8261861e-001
1.7601776e-001
5.2447598e-002
-1.2998959e-001
-3.4019372e-001
-4.9917090e-001
-5.7869017e-001
-6.0095340e-001
-6.1300051e-001
-6.6678214e-001
-7.8114635e-001
-9.3902498e-001
-1.0782591e+000
-1.1140932e+000
-9.9647599e-001
-7.2366989e-001
-3.7831062e-001
-9.1774255e-002
5.4649603e-002
4.4453751e-002
-5.4342460e-002
-1.0987730e-001
3.7440225e-002
5.2889383e-001
1.3599037e+000
2.4014513e+000
3.4813178e+000
4.4482880e+000
5.3264899e+000
6.2899790e+000
7.5567007e+000
9.3565588e+000
1.1912489e+001
1.5348897e+001
1.9360001e+001
2.3337639e+001
2.6883932e+001
2.9917343e+001
3.2781399e+001
3.6100948e+001
4.0355690e+001
4.5705868e+001
5.1591599e+001
5.7039986e+001
6.1813103e+001
6.6380730e+001
7.1228134e+001
7.6613831e+001
8.2203125e+001
8.7243652e+001
9.1307312e+001
9.4361679e+001
9.6548569e+001
9.8082321e+001
9.9098572e+001
9.9635796e+001
9.9662575e+001
9.9113525e+001
9.7989746e+001
9.6381355e+001
9.4480980e+001
9.2516861e+001
9.0505478e+001
8.8259758e+001
8.5584572e+001
8.2351929e+001
7.8624092e+001
7.4601372e+001
7.0358253e+001
6.5833626e+001
6.1001881e+001
5.5922207e+001
5.0778744e+001
4.5842400e+001
4.1306286e+001
3.7264271e+001
3.3770176e+001
3.0845520e+001
2.8444401e+001
2.6466663e+001
2.4831026e+001
2.3489326e+001
2.2424349e+001
2.1639578e+001
2.1125999e+001
2.0857719e+001
2.0810829e+001
2.0971373e+001
2.1339279e+001
2.1922043e+001
2.2702034e+001
2.3644310e+001
2.4761034e+001
2.6121586e+001
2.7826143e+001
2.9974739e+001
3.2557308e+001
3.5442211e+001
3.8461121e+001
4.1443340e+001
4.4276325e+001
4.6945904e+001
4.9617027e+001
5.2540951e+001
5.5562870e+001
5.8104992e+001
5.9751801e+001
6.0411465e+001
6.0272167e+001
5.9703930e+001
5.8817619e+001
5.7410423e+001
5.5339600e+001
5.2650871e+001
4.9656456e+001
4.6869133e+001
4.4531551e+001
4.2525818e+001
4.0666176e+001
3.8781052e+001
3.6739532e+001
3.4474964e+001
3.2029148e+001
2.9556719e+001
2.7224728e+001
2.5151754e+001
2.3274200e+001
2.1342806e+001
1.9177080e+001
1.6755751e+001
1.4238275e+001
1.1924970e+001
9.9681835e+000
8.3033762e+000
6.8183999e+000
5.4158325e+000
4.0804605e+000
2.8869803e+000
1.8861377e+000
1.0754840e+000
4.4438797e-001
-1.0838270e-002
-2.7741998e-001
-3.1308541e-001
-1.4750570e-002
7.6036847e-001
2.0089588e+000
3.5327649e+000
5.1099224e+000
6.5612597e+000
7.8170247e+000
8.9364042e+000
9.9980297e+000
1.1057733e+001
1.2098000e+001
1.3011864e+001
1.3683011e+001
1.4018341e+001
1.4004931e+001
1.3727072e+001
1.3271237e+001
1.2696301e+001
1.2030675e+001
1.1267446e+001
1.0395885e+001
9.4150362e+000
8.3805923e+000
7.4131193e+000
6.6069279e+000
5.9954009e+000
5.5702891e+000
5.2879868e+000
5.1189585e+000
5.0643063e+000
5.1334085e+000
5.3347421e+000
5.6591902e+000
6.0725298e+000
6.5353136e+000
7.0075002e+000
7.4443831e+000
7.7955179e+000
8.0121641e+000
8.0548048e+000
7.9119716e+000
7.6134591e+000
7.2127061e+000
6.7815294e+000
6.3770304e+000
6.0251298e+000
5.7272491e+000
5.4566960e+000
5.1715593e+000
4.8195610e+000
4.3659029e+000
3.8106434e+000
3.1873379e+000
2.5630019e+000
1.9781594e+000
1.4218628e+000
8.7452030e-001
3.2840562e-001
-1.7784530e-001
-5.4376006e-001
-6.9196957e-001
-6.0578090e-001
-2.9798034e-001
1.9147775e-001
8.0514061e-001
1.4701464e+000
2.1265719e+000
2.7412148e+000
3.2899492e+000
3.7521441e+000
4.0996027e+000
4.2935629e+000
4.3105116e+000
4.1586723e+000
3.8701251e+000
3.5037298e+000
3.1189768e+000
2.7634935e+000
2.4665861e+000
2.2310708e+000
2.0480001e+000
1.8993123e+000
1.7654692e+000
1.6293213e+000
1.4815269e+000
1.3267535e+000
1.1809548e+000
1.0735400e+000
1.0355451e+000
1.0944445e+000
1.2731571e+000
1.5861648e+000
2.0372269e+000
2.6126106e+000
3.2821159e+000
3.9930756e+000
4.6850019e+000
5.2943335e+000
5.7721405e+000
6.0998735e+000
6.2850943e+000
6.3705001e+000
6.4088316e+000
6.4551249e+000
6.5560422e+000
6.7414522e+000
7.0318666e+000
7.4374595e+000
7.9637499e+000
8.6114483e+000
9.3758392e+000
1.0244371e+001
1.1202863e+001
1.2235085e+001
1.3324354e+001
1.4450750e+001
1.5587892e+001
1.6695971e+001
1.7721039e+001
1.8591198e+001
1.9226572e+001
1.9545450e+001
1.9484880e+001
1.9027924e+001
1.8193413e+001
1.7058035e+001
1.5713520e+001
1.4259139e+001
1.2798537e+001
1.1440400e+001
1.0279972e+001
9.3827457e+000
8.7828703e+000
8.4617920e+000
8.3717489e+000
8.4302616e+000
8.5438299e+000
8.6151218e+000
8.5592518e+000
8.3224468e+000
7.8805852e+000
7.2579789e+000
6.5021300e+000
5.6843801e+000
4.8744206e+000
4.1254234e+000
3.4738102e+000
2.9278016e+000
2.4879987e+000
2.1514537e+000
1.9150000e+000
1.7748163e+000
1.7211351e+000
1.7315028e+000
1.7821194e+000
1.8532958e+000
1.9282575e+000
1.9953220e+000
2.0441611e+000
2.0655274e+000
2.0507329e+000
1.9913397e+000
1.8780555e+000
1.6999558e+000
1.4529560e+000
1.1511393e+000
8.2194817e-001
5.1268673e-001
2.5819448e-001
5.4105274e-002
-1.0557885e-001
-2.0954260e-001
-2.4963617e-001
-2.3541000e-001
-1.8334800e-001
-1.1552808e-001
-4.6823740e-002
2.8477833e-002
1.2083200e-001
2.3939538e-001
3.8531971e-001
5.4133308e-001
6.9034946e-001
8.2675558e-001
9.4877350e-001
1.0578400e+000
1.1605279e+000
1.2738613e+000
1.4111897e+000
1.5697181e+000
1.7439713e+000
1.9316655e+000
2.1438739e+000
2.4210658e+000
2.7933972e+000
3.2446527e+000
3.7319162e+000
4.1734190e+000
4.4881544e+000
4.6256080e+000
4.5667171e+000
4.3570776e+000
4.0675201e+000
3.7919543e+000
3.6070585e+000
3.5277107e+000
3.5420401e+000
3.6078470e+000
3.6828666e+000
3.7461674e+000
3.7830799e+000
3.7819245e+000
3.7325573e+000
3.6273620e+000
3.4683754e+000
3.2819145e+000
3.1048832e+000
2.9844229e+000
2.9617641e+000
3.0516250e+000
3.2522001e+000
3.5316403e+000
3.8433607e+000
4.1206870e+000
4.2995858e+000
4.3394923e+000
4.2202454e+000
3.9656992e+000
3.6115315e+000
3.1959617e+000
2.7595971e+000
2.3476186e+000
1.9973018e+000
1.7196114e+000
1.5055439e+000
1.3081436e+000
1.0860339e+000
8.4568059e-001
6.0682309e-001
3.9366227e-001
2.1901986e-001
5.6710847e-002
-1.2196264e-001
-3.2254118e-001
-5.3603834e-001
-7.2537339e-001
-8.5260826e-001
-9.0004486e-001
-8.6313361e-001
-7.6427448e-001
-6.3190520e-001
-4.9236014e-001
-3.6914885e-001
-2.7786291e-001
-2.2735377e-001
-2.1031550e-001
-2.1055295e-001
-1.9572476e-001
-1.4048207e-001
-5.7395544e-002
2.6620999e-002
6.8223529e-002
3.9333601e-002
-2.0599008e-002
-5.8526441e-002
-3.2781214e-002
8.6824492e-002
2.9926786e-001
5.8367097e-001
8.7600994e-001
1.1151344e+000
1.2893698e+000
1.4008708e+000
1.4569666e+000
1.4718485e+000
1.4789563e+000
1.5154259e+000
1.6129887e+000
1.7848240e+000
1.9777744e+000
2.1273828e+000
2.1877201e+000
2.1423669e+000
2.0702550e+000
2.0669210e+000
2.1987214e+000
2.4957707e+000
2.8750639e+000
3.2392809e+000
3.5470204e+000
3.7709999e+000
