Image.
>Pix99999.
  .
5555
5555
2300
900
5555
2
1
0
701
5555
-1.5636001e-002
-1.5961533e-002
-1.6287068e-002
-1.6611606e-002
-1.6937137e-002
-1.7262671e-002
-1.7588206e-002
-1.7912749e-002
-1.8238274e-002
-1.8563809e-002
-1.8889343e-002
-1.9213893e-002
-1.9539412e-002
-1.9864947e-002
-2.0190481e-002
-2.0515036e-002
-2.0840550e-002
-2.1166084e-002
-2.1491617e-002
-2.1816179e-002
-2.2141686e-002
-2.2467218e-002
-2.2792753e-002
-2.3117321e-002
-2.3442822e-002
-2.3768356e-002
-8.8325713e-004
1.9442009e-002
1.2370160e-002
-1.0691439e-002
-3.5917472e-002
-4.8285209e-002
-5.9282240e-002
-6.0397640e-002
-6.0748629e-002
-5.8595199e-002
-5.5197045e-002
-4.6562910e-002
-3.9346166e-002
-3.7232846e-002
-4.7370430e-002
-8.3653256e-002
-1.3374433e-001
-2.0386092e-001
-2.6346648e-001
-3.0841628e-001
-3.3231813e-001
-3.3685976e-001
-3.3863550e-001
-3.3928940e-001
-3.5189357e-001
-3.7140286e-001
-4.0827784e-001
-4.5253724e-001
-4.7775555e-001
-4.9662641e-001
-4.7138160e-001
-4.3609247e-001
-4.1777116e-001
-4.0253440e-001
-4.2664057e-001
-4.5409620e-001
-4.7847366e-001
-5.0194949e-001
-5.2181345e-001
-5.4225993e-001
-5.6602490e-001
-5.9034646e-001
-6.1527848e-001
-6.4423007e-001
-6.8071795e-001
-7.1605277e-001
-7.4857080e-001
-7.6243258e-001
-7.5559354e-001
-7.3394352e-001
-7.0112467e-001
-6.8152571e-001
-6.7190939e-001
-6.8937594e-001
-7.2104597e-001
-7.5496644e-001
-7.8931558e-001
-7.9907930e-001
-8.0101156e-001
-7.8879970e-001
-7.7339780e-001
-7.5920248e-001
-7.4523753e-001
-7.3181862e-001
-7.1729255e-001
-6.9418067e-001
-6.7078966e-001
-6.5188730e-001
-6.4564222e-001
-6.7560250e-001
-7.2234350e-001
-7.9420292e-001
-8.6054701e-001
-9.1134083e-001
-9.4161004e-001
-9.4792312e-001
-9.4645053e-001
-9.4050968e-001
-9.3559790e-001
-9.3224102e-001
-9.2873210e-001
-9.2504710e-001
-9.2692411e-001
-9.3163365e-001
-9.3565655e-001
-9.3921340e-001
-9.2947996e-001
-9.1540265e-001
-8.9343899e-001
-8.6976343e-001
-8.6418307e-001
-8.6337525e-001
-8.7807941e-001
-8.9421058e-001
-9.0144885e-001
-9.0860188e-001
-9.2091501e-001
-9.4159687e-001
-9.8028398e-001
-1.0246768e+000
-1.0727979e+000
-1.1169622e+000
-1.1548709e+000
-1.1815850e+000
-1.1973372e+000
-1.1979492e+000
-1.1857343e+000
-1.1631550e+000
-1.1335959e+000
-1.1005800e+000
-1.0657388e+000
-1.0317956e+000
-9.9825609e-001
-9.8362571e-001
-9.7733599e-001
-1.0032037e+000
-1.0402914e+000
-1.0878652e+000
-1.1370200e+000
-1.1654149e+000
-1.1857911e+000
-1.1853180e+000
-1.1798418e+000
-1.1728752e+000
-1.1694928e+000
-1.1762938e+000
-1.1840149e+000
-1.1911482e+000
-1.1848221e+000
-1.1588535e+000
-1.1275423e+000
-1.0951341e+000
-1.0798248e+000
-1.0826008e+000
-1.0863372e+000
-1.0863841e+000
-1.0586083e+000
-1.0093039e+000
-9.4725704e-001
-8.7975699e-001
-8.4615821e-001
-8.3185172e-001
-8.5509998e-001
-8.9405733e-001
-9.3009770e-001
-9.6448636e-001
-9.8028708e-001
-9.9081582e-001
-9.9547881e-001
-9.9670249e-001
-9.9167246e-001
-9.7918355e-001
-9.5790637e-001
-9.3687779e-001
-9.2609656e-001
-9.2533630e-001
-9.3475580e-001
-9.5388055e-001
-9.7994888e-001
-1.0131787e+000
-1.0507700e+000
-1.0711135e+000
-1.0737028e+000
-1.0532249e+000
-1.0197171e+000
-9.9042535e-001
-9.6616364e-001
-9.5069468e-001
-9.3913674e-001
-9.2907542e-001
-9.2013317e-001
-9.0383875e-001
-8.8516438e-001
-8.6070877e-001
-8.3502001e-001
-8.1429136e-001
-7.9696202e-001
-7.9501551e-001
-8.0344576e-001
-8.3723313e-001
-8.8219172e-001
-9.3376410e-001
-9.8093063e-001
-1.0093210e+000
-1.0247600e+000
-1.0220335e+000
-1.0072788e+000
-9.7965622e-001
-9.4660920e-001
-9.1945350e-001
-9.1294563e-001
-9.3333793e-001
-9.6615213e-001
-1.0010999e+000
-1.0280086e+000
-1.0452222e+000
-1.0704223e+000
-1.0991482e+000
-1.1370000e+000
-1.1763179e+000
-1.1880937e+000
-1.1818186e+000
-1.1475457e+000
-1.1028616e+000
-1.0605015e+000
-1.0216080e+000
-9.7500926e-001
-9.1919893e-001
-8.4892946e-001
-7.7561784e-001
-7.2604620e-001
-7.0261312e-001
-7.1285558e-001
-7.3889220e-001
-7.6157969e-001
-7.7752668e-001
-7.8188014e-001
-7.7700251e-001
-7.6758534e-001
-7.4703848e-001
-7.1705359e-001
-7.0178539e-001
-6.9909114e-001
-7.1632749e-001
-7.4628574e-001
-7.3029572e-001
-6.8428880e-001
-5.9391463e-001
-4.8304769e-001
-3.9571148e-001
-3.2714045e-001
-2.8072372e-001
-2.5092924e-001
-2.3550220e-001
-2.2652428e-001
-2.1099579e-001
-1.7793554e-001
-1.1898291e-001
-4.8877213e-002
7.7376999e-003
4.4085503e-002
6.3148655e-002
2.6064532e-002
-8.5590437e-002
-2.0981257e-001
-3.1004611e-001
-3.6913794e-001
-3.8354969e-001
-3.8200501e-001
-3.8131392e-001
-4.1920954e-001
-5.0164968e-001
-5.8845007e-001
-6.6848147e-001
-6.5562004e-001
-5.6671739e-001
-4.1664800e-001
-2.3510845e-001
-1.4592668e-001
-1.2714851e-001
-1.2383526e-001
-1.1244860e-001
1.9155428e-002
2.8089625e-001
7.3774016e-001
1.3126321e+000
1.8756789e+000
2.4201622e+000
2.9539740e+000
3.6212165e+000
4.5671024e+000
6.0527954e+000
8.2075443e+000
1.1255105e+001
1.5160000e+001
1.9174028e+001
2.2946852e+001
2.6298172e+001
2.9274178e+001
3.2744694e+001
3.6808430e+001
4.1792229e+001
4.7513962e+001
5.2644661e+001
5.7193615e+001
6.1491322e+001
6.5672630e+001
7.0470451e+001
7.5734230e+001
8.0986397e+001
8.6144615e+001
9.0954651e+001
9.5359016e+001
9.9209076e+001
1.0234085e+002
1.0450711e+002
1.0553080e+002
1.0527451e+002
1.0384017e+002
1.0141107e+002
9.8497215e+001
9.5558281e+001
9.2363831e+001
8.8833092e+001
8.4614098e+001
7.9642548e+001
7.4647278e+001
6.9875084e+001
6.5433754e+001
6.1307571e+001
5.7078960e+001
5.2698879e+001
4.8459095e+001
4.4381687e+001
4.0627342e+001
3.7212723e+001
3.4245846e+001
3.1729521e+001
2.9613045e+001
2.7875507e+001
2.6381975e+001
2.5150063e+001
2.4170177e+001
2.3450602e+001
2.2963501e+001
2.2691782e+001
2.2580074e+001
2.2598228e+001
2.2696728e+001
2.2857656e+001
2.3063570e+001
2.3311279e+001
2.3599991e+001
2.3994238e+001
2.4515514e+001
2.5220455e+001
2.6111160e+001
2.7126757e+001
2.8248400e+001
2.9384443e+001
3.0527374e+001
3.1803843e+001
3.3304691e+001
3.5684299e+001
3.9038143e+001
4.2904919e+001
4.7052921e+001
5.0371643e+001
5.2844921e+001
5.4872429e+001
5.6435478e+001
5.7647659e+001
5.8394501e+001
5.8545986e+001
5.8123032e+001
5.7255779e+001
5.6052975e+001
5.4704922e+001
5.3190044e+001
5.1498501e+001
4.9562599e+001
4.7328629e+001
4.4886696e+001
4.2243652e+001
3.9736599e+001
3.7492588e+001
3.5359680e+001
3.3344666e+001
3.0892710e+001
2.7866093e+001
2.4840378e+001
2.1867849e+001
1.9362595e+001
1.7369570e+001
1.5372714e+001
1.3360056e+001
1.1282249e+001
9.1635761e+000
7.0869737e+000
5.1292253e+000
3.4148481e+000
2.0124609e+000
9.8099518e-001
3.2842168e-001
5.9654243e-002
2.8477186e-001
9.6576041e-001
1.8539610e+000
2.8006394e+000
3.6287627e+000
4.2307782e+000
4.7215466e+000
5.1337419e+000
5.5339198e+000
5.9320998e+000
6.2837591e+000
6.5460067e+000
6.7021642e+000
6.6974607e+000
6.6279502e+000
6.4706140e+000
6.2852659e+000
6.0597348e+000
5.7790108e+000
5.4189129e+000
4.9452529e+000
4.3637691e+000
3.7639885e+000
3.1769040e+000
2.6921093e+000
2.3242087e+000
2.0794449e+000
1.9732811e+000
2.0057824e+000
2.1588657e+000
2.4185841e+000
2.7168200e+000
3.0256650e+000
3.3334651e+000
3.6390207e+000
3.9612157e+000
4.3067098e+000
4.6669440e+000
5.0430045e+000
5.4151926e+000
5.7704372e+000
6.0859427e+000
6.3109651e+000
6.4308729e+000
6.3749151e+000
6.1907659e+000
5.8299828e+000
5.3960547e+000
4.8815436e+000
4.3538828e+000
3.8360732e+000
3.3669860e+000
2.9544971e+000
2.5948462e+000
2.2448649e+000
1.8373823e+000
1.3872596e+000
9.0533471e-001
4.6879482e-001
1.7880188e-001
3.5187490e-003
-1.5931349e-002
3.8998596e-002
1.6673529e-001
3.2005820e-001
4.9443680e-001
6.7507732e-001
8.6747181e-001
1.0702523e+000
1.2893858e+000
1.5194639e+000
1.7499040e+000
1.9761380e+000
2.1946058e+000
2.4174922e+000
2.6602516e+000
2.9303808e+000
3.2426834e+000
3.5738919e+000
3.9167399e+000
4.2279987e+000
4.4926405e+000
4.7016659e+000
4.8564920e+000
4.9753637e+000
5.0616784e+000
5.1125202e+000
5.1357198e+000
5.1181588e+000
5.0826716e+000
5.0288672e+000
4.9737720e+000
4.9241352e+000
4.8822203e+000
4.8571210e+000
4.8427620e+000
4.8510747e+000
4.8661637e+000
4.8950033e+000
4.9229527e+000
4.9524002e+000
4.9850159e+000
5.0279846e+000
5.0861006e+000
5.1643472e+000
5.2502089e+000
5.3410797e+000
5.4272161e+000
5.5090871e+000
5.5923772e+000
5.6802392e+000
5.7816205e+000
5.8928823e+000
6.0102487e+000
6.1218252e+000
6.2003045e+000
6.2499814e+000
6.2426996e+000
6.2061949e+000
6.1257858e+000
6.0239239e+000
5.8799119e+000
5.7083783e+000
5.4611282e+000
5.1710415e+000
4.7625890e+000
4.3138351e+000
3.7711177e+000
3.2252102e+000
2.6786230e+000
2.1676726e+000
1.7227446e+000
1.3291585e+000
1.0121396e+000
7.4271929e-001
5.3067702e-001
3.4944940e-001
2.0009416e-001
7.1284823e-002
-3.8609356e-002
-1.3134843e-001
-2.1100394e-001
-2.7661240e-001
-3.3161253e-001
-3.6857420e-001
-3.8883772e-001
-3.6497599e-001
-3.0626565e-001
-1.4537708e-001
5.6679845e-002
3.6954102e-001
6.8859351e-001
1.0039797e+000
1.2866515e+000
1.4663600e+000
1.6119897e+000
1.6727540e+000
1.7078600e+000
1.6890329e+000
1.6376200e+000
1.5305533e+000
1.3926343e+000
1.2122223e+000
1.0104674e+000
7.8658181e-001
5.6186926e-001
3.4443903e-001
1.7173675e-001
4.0642694e-002
-2.6009802e-002
-4.7007751e-002
2.5425047e-002
1.4756665e-001
3.4373045e-001
5.5873364e-001
7.6739961e-001
9.5994163e-001
1.0729440e+000
1.1655313e+000
1.1880686e+000
1.2070793e+000
1.2173371e+000
1.2371205e+000
1.2865531e+000
1.3388350e+000
1.3953035e+000
1.4317352e+000
1.4280871e+000
1.4098853e+000
1.3727857e+000
1.3591931e+000
1.3785920e+000
1.4314648e+000
1.5137612e+000
1.5784029e+000
1.6205560e+000
1.5964433e+000
1.5271801e+000
1.4123111e+000
1.2784257e+000
1.1531996e+000
1.0341610e+000
9.4007599e-001
8.5182947e-001
7.6768672e-001
6.8664837e-001
6.2510568e-001
5.7285130e-001
5.7407415e-001
5.8007854e-001
6.0618603e-001
6.2320751e-001
6.1079258e-001
5.8582205e-001
5.3016788e-001
4.6729171e-001
3.9014441e-001
3.0724651e-001
2.1503569e-001
1.1454561e-001
3.8137659e-003
-1.1841840e-001
-2.4956357e-001
-3.7230051e-001
-4.8617980e-001
-5.6977445e-001
-6.3727212e-001
-6.9970250e-001
-7.6153684e-001
-8.3572227e-001
-9.1216612e-001
-9.7697592e-001
-1.0374663e+000
-1.0724241e+000
-1.1040457e+000
-1.1223886e+000
-1.1400601e+000
-1.1539137e+000
-1.1653728e+000
-1.1662143e+000
-1.1644210e+000
-1.1545771e+000
-1.1422116e+000
-1.1237088e+000
-1.0918450e+000
-1.0353090e+000
-9.5731270e-001
-8.5095024e-001
-7.5119871e-001
-6.6079652e-001
-6.1128062e-001
-5.9511834e-001
-5.9430128e-001
-6.0143805e-001
-5.8948702e-001
-5.6866175e-001
-5.4397744e-001
-5.1766151e-001
-4.7803491e-001
-4.3413115e-001
-3.5381934e-001
-2.6947200e-001
-1.9164377e-001
-1.1402991e-001
-3.6713250e-002
2.1281838e-003
6.6789567e-002
2.1318281e-001
4.5231128e-001
6.8405944e-001
8.9337718e-001
1.0624497e+000
1.1450585e+000
1.1913440e+000
1.1798943e+000
1.1560240e+000
1.1171235e+000
1.0698537e+000
1.0145613e+000
9.4844389e-001
8.7465870e-001
8.0390555e-001
7.3580283e-001
7.1127206e-001
7.0500576e-001
7.6603514e-001
8.4533238e-001
8.6916351e-001
8.8418615e-001
7.7664000e-001
