##TITLE=Methyl Ethyl Ketone
##JCAMP-DX=4.24
##DATA TYPE=INFRARED SPECTRUM
##XUNITS=cm-1
##YUNITS=Absorbance
##FIRSTX=900
##LASTX=2300
##XYDATA=(X++(Y..Y))
2296 0.14989001
2294 0.15300554
2292 0.15612109
2290 0.15923664
2288 0.16236211
2286 0.16547771
2284 0.16859326
2282 0.17171869
2280 0.17483434
2278 0.17794989
2276 0.18106543
2274 0.18419081
2272 0.18730652
2270 0.19041224
2268 0.1935374
2266 0.1966825
2264 0.19977914
2262 0.20279665
2260 0.2060072
2258 0.20948528
2256 0.21226114
2254 0.21404721
2252 0.21843919
2250 0.22652024
2248 0.22489721
2246 0.19698143
2244 0.12946472
2242 0.020070864
2240 -0.092841879
2238 -0.16549559
2236 -0.17833686
2234 -0.12717143
2232 -0.041339166
2230 0.043591779
2228 0.10562743
2226 0.13375549
2224 0.14492616
2222 0.15889995
2220 0.1736844
2218 0.18279971
2216 0.18790057
2214 0.19821563
2212 0.2436122
2210 0.34992874
2208 0.50174165
2206 0.66749102
2204 0.80127412
2202 0.86522979
2200 0.87109149
2198 0.84604561
2196 0.81758356
2194 0.808846
2192 0.82598263
2190 0.86897439
2188 0.93432218
2186 1.0141357
2184 1.08674
2182 1.1283243
2180 1.1249883
2178 1.0721127
2176 0.98830569
2174 0.89986569
2172 0.83352518
2170 0.81167752
2168 0.83905435
2166 0.91329867
2164 1.0268402
2162 1.1684788
2160 1.3174577
2158 1.4498167
2156 1.54073
2154 1.5736614
2152 1.568864
2150 1.5586846
2148 1.5733393
2146 1.6327894
2144 1.7193937
2142 1.804305
2140 1.8671809
2138 1.8950139
2136 1.8918543
2134 1.8670474
2132 1.8278794
2130 1.7818491
2128 1.7408359
2126 1.71509
2124 1.7002709
2122 1.6865152
2120 1.662768
2118 1.6208452
2116 1.5663129
2114 1.507509
2112 1.4423873
2110 1.3698783
2108 1.3069451
2106 1.2764014
2104 1.2956793
2102 1.37166
2100 1.477126
2098 1.57654
2096 1.654857
2094 1.7065887
2092 1.7322943
2090 1.7335384
2088 1.7072314
2086 1.6532301
2084 1.5909551
2082 1.5447187
2080 1.5270212
2078 1.5429833
2076 1.5879371
2074 1.6546
2072 1.739452
2070 1.8377764
2068 1.9312683
2066 1.9979472
2064 2.0219491
2062 1.9972157
2060 1.9452231
2058 1.893885
2056 1.8505828
2054 1.8103143
2052 1.7551783
2050 1.6699076
2048 1.5714496
2046 1.4878215
2044 1.43455
2042 1.4159316
2040 1.4149257
2038 1.4091637
2036 1.3917586
2034 1.3640394
2032 1.3325343
2030 1.305764
2028 1.2934611
2026 1.3068743
2024 1.3622268
2022 1.4712946
2020 1.6165934
2018 1.7655922
2016 1.87734
2014 1.9181038
2012 1.8976117
2010 1.8428798
2008 1.7683868
2006 1.6792779
2004 1.5688692
2002 1.4313561
2000 1.2852011
1998 1.1583835
1996 1.0692501
1994 1.0269028
1992 1.023836
1990 1.0466237
1988 1.087098
1986 1.138765
1984 1.189324
1982 1.2239041
1980 1.2304677
1978 1.2059004
1976 1.17872
1974 1.188508
1972 1.2563766
1970 1.3808821
1968 1.5069296
1966 1.5629851
1964 1.5163217
1962 1.368615
1960 1.1769921
1958 1.0146737
1956 0.9111377
1954 0.86573672
1952 0.85236794
1950 0.83947051
1948 0.82006001
1946 0.80099499
1944 0.79065347
1942 0.79526001
1940 0.81277955
1938 0.83610845
1936 0.85476542
1934 0.85643792
1932 0.82703739
1930 0.75897831
1928 0.6764068
1926 0.62272787
1924 0.65120298
1922 0.7993418
1920 1.0190321
1918 1.22123
1916 1.3412857
1914 1.347458
1912 1.2754663
1910 1.1863937
1908 1.0955863
1906 0.99180239
1904 0.87106198
1902 0.74142379
1900 0.63479543
1898 0.58869278
1896 0.6092186
1894 0.67783916
1892 0.75082982
1890 0.77718443
1888 0.72931057
1886 0.60244077
1884 0.42792284
1882 0.25295559
1880 0.10859729
1878 0.014211502
1876 -0.01291381
1874 0.042272195
1872 0.18557647
1870 0.40383834
1868 0.62403661
1866 0.74816006
1864 0.72276646
1862 0.54198289
1860 0.27703926
1858 0.031907726
1856 -0.13718529
1854 -0.21494207
1852 -0.21940038
1850 -0.18488096
1848 -0.1427
1846 -0.11733606
1844 -0.11880063
1842 -0.14494103
1840 -0.17780474
1838 -0.19104761
1836 -0.16092728
1834 -0.067724086
1832 0.10196523
1830 0.34512043
1828 0.60186976
1826 0.78023291
1824 0.80526924
1822 0.63726324
1820 0.32752579
1818 -0.019030616
1816 -0.31405285
1814 -0.49987257
1812 -0.57898664
1810 -0.58720422
1808 -0.54140341
1806 -0.44354302
1804 -0.30467331
1802 -0.14575893
1800 0.003692992
1798 0.11891127
1796 0.21823072
1794 0.3377524
1792 0.45942563
1790 0.53118211
1788 0.53039479
1786 0.46673024
1784 0.38228601
1782 0.3324382
1780 0.34547165
1778 0.42912909
1776 0.59447825
1774 0.84108257
1772 1.0927248
1770 1.2295827
1768 1.179484
1766 0.93422866
1764 0.59298676
1762 0.29984665
1760 0.077563033
1758 -0.1303775
1756 -0.30004129
1754 -0.34386635
1752 -0.20960966
1750 0.096518204
1748 0.46202567
1746 0.71736497
1744 0.76773357
1742 0.61453438
1740 0.40171891
1738 0.33738437
1736 0.476928
1734 0.72757679
1732 0.90410203
1730 0.81138551
1728 0.44817472
1726 -0.019795075
1724 -0.37040734
1722 -0.3768968
1720 0.11313206
1718 1.1375053
1716 2.4802272
1714 3.7676013
1712 4.7692146
1710 5.4474487
1708 6.0112438
1706 6.8329968
1704 8.2418985
1702 10.462391
1700 13.510531
1698 17.190153
1696 21.037285
1694 24.476761
1692 27.309895
1690 29.73213
1688 32.226444
1686 35.40517
1684 39.628685
1682 44.893829
1680 50.595402
1678 55.819073
1676 60.373543
1674 64.733253
1672 69.307327
1670 74.241653
1668 79.221832
1666 83.638199
1664 87.189293
1662 89.92112
1660 91.989647
1658 93.582253
1656 94.850655
1654 95.881233
1652 96.634537
1650 96.955162
1648 96.615387
1646 95.413574
1644 93.491394
1642 91.267349
1640 88.996468
1638 86.696159
1636 84.206566
1634 81.280945
1632 77.845734
1630 74.001472
1628 69.833305
1626 65.380165
1624 60.676559
1622 55.779514
1620 50.833004
1618 46.048225
1616 41.573944
1614 37.483936
1612 33.839447
1610 30.69253
1608 28.035137
1606 25.802401
1604 23.933262
1602 22.388531
1600 21.159441
1598 20.25845
1596 19.677
1594 19.376245
1592 19.303423
1590 19.405237
1588 19.659597
1586 20.079849
1584 20.684475
1582 21.4977
1580 22.592485
1578 24.081835
1576 26.048172
1574 28.506899
1572 31.325565
1570 34.246029
1568 37.081158
1566 39.761894
1564 42.325035
1562 44.917351
1560 47.79372
1558 51.18552
1556 54.722885
1554 57.481422
1552 58.957172
1550 59.279835
1548 58.900745
1546 58.406822
1544 58.019817
1542 57.507614
1540 56.50222
1538 54.665939
1536 52.060287
1534 49.170807
1532 46.436573
1530 44.106567
1528 42.215279
1526 40.589848
1524 39.004688
1522 37.239464
1520 35.163456
1518 32.777294
1516 30.239029
1514 27.820309
1512 25.62104
1510 23.508036
1508 21.296457
1506 18.839943
1504 16.216131
1502 13.73313
1500 11.596931
1498 9.8223104
1496 8.3309288
1494 6.9927344
1492 5.7283673
1490 4.5305862
1488 3.38466
1486 2.2607057
1484 1.193967
1482 0.30431652
1480 -0.27738428
1478 -0.43042693
1476 -0.04301843
1474 0.9509936
1472 2.4160948
1470 3.997704
1468 5.4368229
1466 6.6761765
1464 7.7940702
1462 8.9748154
1460 10.348807
1458 11.912963
1456 13.4626
1454 14.604117
1452 15.104877
1450 15.010362
1448 14.48324
1446 13.747786
1444 12.969643
1442 12.21174
1440 11.497051
1438 10.823034
1436 10.147027
1434 9.3893223
1432 8.5217886
1430 7.6003881
1428 6.721734
1426 6.0047107
1424 5.5239968
1422 5.2801747
1420 5.2271132
1418 5.2794452
1416 5.3639054
1414 5.4438
1412 5.5301013
1410 5.6848235
1408 5.9517913
1406 6.3285761
1404 6.7799854
1402 7.2374673
1400 7.6212559
1398 7.8503857
1396 7.8703642
1394 7.6729317
1392 7.30266
1390 6.8612666
1388 6.4314256
1386 6.0448198
1384 5.701447
1382 5.3725276
1380 5.0345259
1378 4.6798587
1376 4.2959914
1374 3.8598073
1372 3.3584461
1370 2.80092
1368 2.2124114
1366 1.6334436
1364 1.0950243
1362 0.60950565
1360 0.19483826
1358 -0.11655341
1356 -0.29409614
1354 -0.31653836
1352 -0.17275874
1350 0.13410187
1348 0.58868003
1346 1.1629239
1344 1.835956
1342 2.5955968
1340 3.3880725
1338 4.0905147
1336 4.5726542
1334 4.7297764
1332 4.5392036
1330 4.1027331
1328 3.5472286
1326 2.9910929
1324 2.5276272
1322 2.2062261
1320 2.0361748
1318 1.9744595
1316 1.95717
1314 1.9098457
1312 1.7824371
1310 1.5734439
1308 1.3059695
1306 1.0258723
1304 0.77735239
1302 0.59225488
1300 0.4961527
1298 0.5080691
1296 0.64190573
1294 0.90389991
1292 1.2900943
1290 1.7800109
1288 2.3394041
1286 2.9171863
1284 3.4627099
1282 3.9362195
1280 4.3157434
1278 4.6082306
1276 4.8317032
1274 5.0120263
1272 5.1763978
1270 5.3508134
1268 5.5619321
1266 5.8363509
1264 6.1929631
1262 6.6356616
1260 7.1599059
1258 7.7529531
1256 8.4095259
1254 9.1412811
1252 9.9628706
1250 10.885363
1248 11.903531
1246 12.98025
1244 14.065492
1242 15.093786
1240 16.001886
1238 16.73251
1236 17.237015
1234 17.481968
1232 17.44412
1230 17.110685
1228 16.477108
1226 15.548107
1224 14.355778
1222 12.978097
1220 11.52776
1218 10.163482
1216 9.0243196
1214 8.1815128
1212 7.6589694
1210 7.4127035
1208 7.3813057
1206 7.4979725
1204 7.6840997
1202 7.8395815
1200 7.8658576
1198 7.6842504
1196 7.2602358
1194 6.6439552
1192 5.9112463
1190 5.1473641
1188 4.4168139
1186 3.7348349
1184 3.105269
1182 2.532352
1180 2.0249314
1178 1.6013662
1176 1.27614
1174 1.0490928
1172 0.9090786
1170 0.82821864
1168 0.77639616
1166 0.72800517
1164 0.66619849
1162 0.59151238
1160 0.50908232
1158 0.42546898
1156 0.34968987
1154 0.29514256
1152 0.27285135
1150 0.28481129
1148 0.32038921
1146 0.34599712
1144 0.33232132
1142 0.27303424
1140 0.17018113
1138 0.03326384
1136 -0.12116317
1134 -0.26516491
1132 -0.3778165
1130 -0.46073249
1128 -0.51600868
1126 -0.53418612
1124 -0.50479299
1122 -0.4224928
1120 -0.29075038
1118 -0.13134839
1116 0.031875879
1114 0.18173857
1112 0.31103173
1110 0.43281114
1108 0.55997092
1106 0.69297504
1104 0.82966632
1102 0.96978885
1100 1.122938
1098 1.3213865
1096 1.5917714
1094 1.9318279
1092 2.3249481
1090 2.7360611
1088 3.1358976
1086 3.5213435
1084 3.8913121
1082 4.2332363
1080 4.5223665
1078 4.7102461
1076 4.754477
1074 4.6457453
1072 4.3998466
1070 4.0784135
1068 3.7508891
1066 3.4759185
1064 3.292172
1062 3.1903627
1060 3.1477356
1058 3.1365147
1056 3.1362998
1054 3.1483765
1052 3.1724064
1050 3.1890981
1048 3.1757417
1046 3.1139784
1044 2.9992113
1042 2.8631501
1040 2.748853
1038 2.7051785
1036 2.7720799
1034 2.9570494
1032 3.2399364
1030 3.5427032
1028 3.77527
1026 3.8576264
1024 3.7384634
1022 3.4474931
1020 3.0422869
1018 2.6045334
1016 2.2055886
1014 1.8669977
1012 1.5872631
1010 1.331811
1008 1.0671225
1006 0.78848684
1004 0.50505775
1002 0.24689272
1000 0.036688313
998 -0.14203449
996 -0.31675571
994 -0.51833028
992 -0.76176095
990 -1.0089993
988 -1.2118918
986 -1.3324857
984 -1.346404
982 -1.2656366
980 -1.1121107
978 -0.91145229
976 -0.69407457
974 -0.50170207
972 -0.36759111
970 -0.28694642
968 -0.24086782
966 -0.19513699
964 -0.12619324
962 -0.059144806
960 -0.025466543
958 -0.03671338
956 -0.09167216
954 -0.1620117
952 -0.21423
950 -0.2205317
948 -0.16455212
946 -0.064863682
944 0.057465389
942 0.20337756
940 0.37697515
938 0.57429981
936 0.7995857
934 1.0935721
932 1.4836394
930 1.9155989
928 2.3209639
926 2.65379
924 2.894932
922 3.10182
920 3.3404572
918 3.6359093
916 3.985827
914 4.322135
912 4.5720496
910 4.706285
908 4.7243419
906 4.69451
904 4.6964107
902 4.7862163
900 5.0000072
898 5.3170509
896 5.7020001
