Image.
>Pix99999.
  .
5555
5555
2300
900
5555
2
1
0
701
5555
1.2557000e-001
1.2817627e-001
1.3079251e-001
1.3340877e-001
1.3601509e-001
1.3863128e-001
1.4123763e-001
1.4385380e-001
1.4647007e-001
1.4907645e-001
1.5169257e-001
1.5429899e-001
1.5691508e-001
1.5953135e-001
1.6213781e-001
1.6475385e-001
1.6736034e-001
1.6997637e-001
1.7259263e-001
1.7519917e-001
1.7781514e-001
1.8042170e-001
1.8303765e-001
1.8565391e-001
1.8826053e-001
1.9087644e-001
1.0853017e-001
4.0635001e-003
-1.0968000e-001
-2.3544218e-001
-3.6299330e-001
-3.7472039e-001
-3.7072524e-001
-2.0109247e-001
-1.9307386e-002
1.9589925e-001
3.9106742e-001
4.8663434e-001
5.3772163e-001
4.6948302e-001
3.7779343e-001
2.4957708e-001
1.3543740e-001
4.7817737e-002
-1.8626194e-002
-6.0685251e-002
-6.1241310e-002
-2.3245389e-002
6.4864926e-002
1.8856257e-001
2.8819570e-001
3.7255934e-001
3.9755234e-001
3.9693490e-001
3.6271578e-001
3.1812930e-001
2.5453079e-001
1.8671854e-001
1.4363134e-001
1.0468282e-001
1.0002303e-001
1.0057490e-001
1.2457412e-001
1.5582891e-001
2.1587549e-001
2.8087550e-001
3.5363680e-001
4.2807588e-001
5.0487542e-001
5.8424091e-001
6.6809601e-001
7.3725647e-001
7.8445452e-001
7.8517467e-001
7.3611557e-001
6.4995927e-001
5.3560281e-001
4.4767171e-001
3.8010749e-001
3.8040283e-001
4.1655058e-001
4.9851805e-001
5.9843659e-001
6.7610455e-001
7.4619800e-001
7.3831397e-001
7.1236080e-001
6.4034021e-001
5.6215090e-001
5.0331652e-001
4.4983742e-001
4.1613442e-001
3.8891178e-001
3.7808999e-001
3.7027800e-001
3.6422715e-001
3.3959925e-001
2.7325305e-001
1.9279900e-001
9.8948911e-002
4.5786429e-002
4.8278250e-002
1.0417689e-001
2.0697431e-001
3.1459600e-001
4.2100000e-001
5.0405657e-001
5.7191604e-001
5.7947135e-001
5.5615520e-001
4.5714384e-001
3.2814899e-001
2.4912600e-001
1.8713517e-001
2.2781809e-001
2.9234585e-001
3.3249187e-001
3.6332402e-001
3.5422233e-001
3.3762348e-001
3.2325971e-001
3.0512947e-001
2.7044633e-001
2.2942255e-001
1.7883241e-001
1.3787036e-001
1.1838660e-001
1.1647131e-001
1.3629594e-001
1.4339001e-001
1.3190787e-001
7.9803884e-002
-8.6670574e-003
-9.9521831e-002
-1.8822901e-001
-2.2035429e-001
-2.1719588e-001
-1.5720104e-001
-7.0844017e-002
-3.1731175e-003
5.5888761e-002
5.1682003e-002
2.7586609e-002
1.8052215e-002
1.5386411e-002
4.6559192e-002
8.0389135e-002
6.8295032e-002
3.4979075e-002
-4.4716433e-002
-1.2463250e-001
-1.7306180e-001
-1.9357720e-001
-1.6409595e-001
-1.3154779e-001
-1.0864671e-001
-1.1376314e-001
-1.5488803e-001
-1.9828868e-001
-2.3758866e-001
-2.3141199e-001
-1.8546160e-001
-9.6290477e-002
1.8665273e-002
1.1025555e-001
1.8422064e-001
1.8577811e-001
1.5223515e-001
1.1669360e-001
8.2857035e-002
8.8405803e-002
1.0764612e-001
8.3295353e-002
4.4601448e-002
-1.7332023e-002
-7.8340247e-002
-9.1242924e-002
-9.4559684e-002
-9.8422088e-002
-1.1518846e-001
-1.6086085e-001
-2.0993112e-001
-2.5511998e-001
-2.8883976e-001
-3.1279394e-001
-3.1900349e-001
-3.0974177e-001
-3.0168369e-001
-2.9563800e-001
-3.0806330e-001
-3.3005816e-001
-3.1214252e-001
-2.6278561e-001
-1.9039938e-001
-1.0905055e-001
-8.3665296e-002
-8.8599078e-002
-1.1406646e-001
-1.4554355e-001
-1.3941441e-001
-1.1607714e-001
-7.8879885e-002
-4.4353031e-002
-5.4704659e-002
-9.3829855e-002
-1.7196465e-001
-2.6024485e-001
-3.3274883e-001
-3.9731228e-001
-4.6183479e-001
-5.0969201e-001
-5.3805494e-001
-4.9331594e-001
-3.5485357e-001
-2.0081723e-001
-5.0232090e-002
-5.1506516e-003
-5.8203217e-002
-1.4166513e-001
-2.3452270e-001
-3.1625199e-001
-3.9330268e-001
-4.9736407e-001
-6.2529522e-001
-7.6330841e-001
-9.1137284e-001
-9.5358723e-001
-9.4163573e-001
-7.9525363e-001
-5.8023357e-001
-3.4842056e-001
-1.0304371e-001
1.3763504e-001
3.4851775e-001
4.7059977e-001
4.9066237e-001
3.6550578e-001
1.7765668e-001
-1.8135197e-002
-1.7513399e-001
-2.7363771e-001
-3.2268840e-001
-3.3756229e-001
-3.1479299e-001
-2.5647527e-001
-1.4722049e-001
5.7827495e-003
1.1227840e-001
1.6004315e-001
9.1339305e-002
-6.2226072e-002
-1.6868083e-001
-2.2385800e-001
-1.9437876e-001
-1.0634207e-001
-7.0344061e-003
1.0206335e-001
2.1447483e-001
3.2523021e-001
3.8840318e-001
4.3369114e-001
5.0842553e-001
6.0022819e-001
7.3081326e-001
8.0332577e-001
7.0546973e-001
5.2581459e-001
3.1967801e-001
9.0293027e-002
-1.7081147e-001
-3.7170058e-001
-4.7102988e-001
-4.6607760e-001
-3.8527709e-001
-3.2503775e-001
-3.0618429e-001
-4.6467221e-001
-7.6765496e-001
-1.0357214e+000
-1.2530391e+000
-1.2249000e+000
-1.0236268e+000
-7.9102778e-001
-5.5136228e-001
-4.8644567e-001
-5.1828277e-001
-4.9555510e-001
-3.7106171e-001
1.1989111e-001
9.7499758e-001
2.1578515e+000
3.3678977e+000
4.2584519e+000
4.9410543e+000
5.5083361e+000
6.2357979e+000
7.3493934e+000
9.0782080e+000
1.1529414e+001
1.4799813e+001
1.8855572e+001
2.2995159e+001
2.6888197e+001
3.0443764e+001
3.3678566e+001
3.7393864e+001
4.1671879e+001
4.6463200e+001
5.1647758e+001
5.6089745e+001
5.9868629e+001
6.3683727e+001
6.7603958e+001
7.2197548e+001
7.7270027e+001
8.2211555e+001
8.6987709e+001
9.1412170e+001
9.5481850e+001
9.9140121e+001
1.0233486e+002
1.0496529e+002
1.0680840e+002
1.0765773e+002
1.0712245e+002
1.0503000e+002
1.0202029e+002
9.8679916e+001
9.5201721e+001
9.1690392e+001
8.7705986e+001
8.3128960e+001
7.8356522e+001
7.3559807e+001
6.8939445e+001
6.4505852e+001
5.9873119e+001
5.5005962e+001
5.0263004e+001
4.5678093e+001
4.1496399e+001
3.7740891e+001
3.4495792e+001
3.1767500e+001
2.9463554e+001
2.7551758e+001
2.5871843e+001
2.4457342e+001
2.3339365e+001
2.2530001e+001
2.1994999e+001
2.1680866e+001
2.1488863e+001
2.1400213e+001
2.1385380e+001
2.1502457e+001
2.1777121e+001
2.2237589e+001
2.2876114e+001
2.3714682e+001
2.4752029e+001
2.5901281e+001
2.7142330e+001
2.8352531e+001
2.9509760e+001
3.0656700e+001
3.1799099e+001
3.3130367e+001
3.4728798e+001
3.7075020e+001
4.0140556e+001
4.3164169e+001
4.5984844e+001
4.7991096e+001
4.9261772e+001
5.0312214e+001
5.1127621e+001
5.1769638e+001
5.2011940e+001
5.1658001e+001
5.0733170e+001
4.9363602e+001
4.7807850e+001
4.6282032e+001
4.4795040e+001
4.3353748e+001
4.1893768e+001
4.0392319e+001
3.8785275e+001
3.7076939e+001
3.5334942e+001
3.3570267e+001
3.1730400e+001
2.9754612e+001
2.7314266e+001
2.4285635e+001
2.1295450e+001
1.8445717e+001
1.6118980e+001
1.4388570e+001
1.2755571e+001
1.1213201e+001
9.6735697e+000
8.1109400e+000
6.4928603e+000
4.8501096e+000
3.2621360e+000
1.8779972e+000
8.5970008e-001
2.4319528e-001
2.1063458e-002
1.9381991e-001
7.5932789e-001
1.4300450e+000
2.0577793e+000
2.5893207e+000
2.9386766e+000
3.2488353e+000
3.5641003e+000
3.9774511e+000
4.5589800e+000
5.1104975e+000
5.6050901e+000
5.8629575e+000
5.7795596e+000
5.6024785e+000
5.3040261e+000
5.0421352e+000
4.8174009e+000
4.6017995e+000
4.3640957e+000
4.0629888e+000
3.6864252e+000
3.2829659e+000
2.8933241e+000
2.5672135e+000
2.3478410e+000
2.2739902e+000
2.3578568e+000
2.6334248e+000
3.0077770e+000
3.3992159e+000
3.7701600e+000
4.0477691e+000
4.2983866e+000
4.5425048e+000
4.7849045e+000
5.0436306e+000
5.2871318e+000
5.5066981e+000
5.6839285e+000
5.7934742e+000
5.8391042e+000
5.7993279e+000
5.7053223e+000
5.5292902e+000
5.2911525e+000
4.9653049e+000
4.6007028e+000
4.1925645e+000
3.8031027e+000
3.4326777e+000
3.1115861e+000
2.8343062e+000
2.5628498e+000
2.2850435e+000
1.9482751e+000
1.5627601e+000
1.1514605e+000
7.6184058e-001
4.6014398e-001
2.3901197e-001
1.1156582e-001
2.8673260e-002
-1.1885986e-002
-2.5213765e-002
1.3806777e-002
8.3727986e-002
2.0369923e-001
3.2538551e-001
4.5209914e-001
5.4352200e-001
6.0422742e-001
6.6028565e-001
7.2158301e-001
8.2721144e-001
9.9067914e-001
1.2167780e+000
1.5136251e+000
1.8592666e+000
2.2373400e+000
2.5823507e+000
2.8721881e+000
3.0433290e+000
3.1214795e+000
3.1244693e+000
3.0872886e+000
3.0454378e+000
2.9987450e+000
2.9532588e+000
2.9085143e+000
2.8741910e+000
2.8545256e+000
2.8720789e+000
2.9043159e+000
2.9639306e+000
3.0191944e+000
3.0623596e+000
3.0960400e+000
3.1116025e+000
3.1343057e+000
3.1689661e+000
3.2264640e+000
3.3228550e+000
3.4577465e+000
3.6586807e+000
3.9177697e+000
4.2609510e+000
4.6688099e+000
5.1438031e+000
5.6468287e+000
6.1643920e+000
6.6556396e+000
7.1248155e+000
7.5715709e+000
8.0054750e+000
8.4386568e+000
8.8607998e+000
9.2512350e+000
9.6069565e+000
9.8762312e+000
1.0090970e+001
1.0177999e+001
1.0206848e+001
1.0085484e+001
9.9042635e+000
9.5607529e+000
9.1603823e+000
8.6276665e+000
8.0786076e+000
7.5033798e+000
6.9551158e+000
6.4509974e+000
5.9594297e+000
5.4811440e+000
4.9863400e+000
4.4746499e+000
3.9627728e+000
3.4581275e+000
2.9874463e+000
2.5472572e+000
2.1363428e+000
1.7461509e+000
1.3734030e+000
1.0266297e+000
7.5605381e-001
5.4068857e-001
4.4994140e-001
4.1037190e-001
4.6249488e-001
5.4004604e-001
6.6859686e-001
7.9619592e-001
9.0905523e-001
9.9683326e-001
1.0086349e+000
9.9467438e-001
9.1656578e-001
8.2011843e-001
6.8680960e-001
5.4785025e-001
4.0319192e-001
2.8114229e-001
1.9245723e-001
1.3422801e-001
1.0681590e-001
7.6454833e-002
4.5097418e-002
1.8913811e-002
2.0616673e-002
1.5208314e-001
3.7595829e-001
7.7289224e-001
1.2411349e+000
1.7350886e+000
2.2123199e+000
2.5630474e+000
2.8752995e+000
3.1026680e+000
3.3212502e+000
3.5348244e+000
3.7434053e+000
3.9308426e+000
4.1121087e+000
4.2744188e+000
4.4391198e+000
4.6102705e+000
4.7865567e+000
4.9737940e+000
5.1680789e+000
5.3763285e+000
5.6110897e+000
5.8872180e+000
6.2309313e+000
6.6444640e+000
7.0916066e+000
7.5543489e+000
7.9485049e+000
8.2879333e+000
8.5292883e+000
8.7112799e+000
8.7844572e+000
8.8065233e+000
8.7133970e+000
8.5886688e+000
8.4160767e+000
8.2392673e+000
8.0761147e+000
7.9203095e+000
7.8083448e+000
7.7047200e+000
7.6377401e+000
7.5722585e+000
7.5108800e+000
7.4488058e+000
7.3851285e+000
7.3187261e+000
7.2444978e+000
7.1331005e+000
6.9624934e+000
6.7257099e+000
6.4120574e+000
6.0761490e+000
5.7210212e+000
5.3766503e+000
5.0380330e+000
4.6860590e+000
4.3289924e+000
3.9889436e+000
3.6634848e+000
3.4213257e+000
3.2043145e+000
3.0189526e+000
2.8314409e+000
2.5603120e+000
2.2816620e+000
1.9982929e+000
1.7293210e+000
1.5592932e+000
1.3860321e+000
1.1980572e+000
9.9930549e-001
7.7070999e-001
5.8146060e-001
4.8387727e-001
4.1690698e-001
4.0093890e-001
3.6846530e-001
3.1542280e-001
2.9547518e-001
3.1366745e-001
3.9725378e-001
5.3397179e-001
6.9139779e-001
8.5962272e-001
1.0053420e+000
1.1358563e+000
1.1683661e+000
1.1647537e+000
1.0556768e+000
9.2161429e-001
7.2567642e-001
5.2129680e-001
2.9072413e-001
7.1168035e-002
2.3457214e-002
4.2798892e-003
1.3384897e-001
4.1272774e-001
8.3843911e-001
1.2539172e+000
1.6369441e+000
1.9432977e+000
2.0849810e+000
2.1470120e+000
2.0833571e+000
2.0829139e+000
2.1616833e+000
2.4108942e+000
2.8179138e+000
3.1998158e+000
3.5611155e+000
3.6695018e+000
3.6425250e+000
3.5248759e+000
3.3710737e+000
3.2835903e+000
3.2116234e+000
3.0539074e+000
2.8818851e+000
2.8016000e+000
