Image.
>Pix99999.
  .
5555
5555
2300
900
5555
2
1
0
701
5555
-8.6040003e-003
-8.7830443e-003
-8.9619877e-003
-9.1410317e-003
-9.3199760e-003
-9.4990190e-003
-9.6779643e-003
-9.8570073e-003
-1.0035952e-002
-1.0214699e-002
-1.0394429e-002
-1.0573188e-002
-1.0751931e-002
-1.0930676e-002
-1.1110401e-002
-1.1289163e-002
-1.1467909e-002
-1.1646653e-002
-1.1826372e-002
-1.2005141e-002
-1.2183886e-002
-1.2362630e-002
-1.2542343e-002
-1.2721119e-002
-1.2899863e-002
-1.3078608e-002
-4.8601429e-004
2.1414861e-002
6.2646799e-002
1.0901856e-001
1.5607928e-001
2.0057194e-001
2.4376515e-001
2.6192904e-001
2.7610707e-001
2.6825899e-001
2.5697732e-001
2.3530659e-001
2.1482797e-001
1.9979179e-001
1.9867772e-001
2.2727001e-001
2.6499560e-001
3.1475356e-001
3.4940422e-001
3.6428314e-001
3.7711886e-001
3.8914496e-001
4.2212155e-001
4.7078538e-001
5.2451497e-001
5.8059669e-001
6.2702370e-001
6.6916603e-001
7.0366174e-001
7.3575646e-001
7.6874042e-001
8.0195087e-001
8.3589792e-001
8.6988175e-001
8.9807570e-001
9.2543495e-001
9.4942993e-001
9.7288769e-001
9.9519753e-001
1.0172507e+000
1.0388634e+000
1.0590762e+000
1.0757165e+000
1.0968610e+000
1.1272600e+000
1.1622993e+000
1.2027726e+000
1.2180173e+000
1.2042760e+000
1.1670536e+000
1.1117212e+000
1.0797789e+000
1.0654929e+000
1.0851253e+000
1.1220771e+000
1.1638168e+000
1.2068394e+000
1.2332306e+000
1.2542280e+000
1.2582815e+000
1.2585877e+000
1.2504559e+000
1.2410817e+000
1.2316952e+000
1.2231801e+000
1.2214910e+000
1.2213131e+000
1.2237279e+000
1.2260046e+000
1.2267321e+000
1.2309418e+000
1.2434877e+000
1.2656960e+000
1.3019692e+000
1.3451144e+000
1.3946136e+000
1.4351317e+000
1.4653622e+000
1.4699405e+000
1.4542750e+000
1.4168782e+000
1.3668180e+000
1.3034211e+000
1.2339468e+000
1.1717542e+000
1.1128081e+000
1.1068599e+000
1.1178982e+000
1.1781651e+000
1.2502564e+000
1.3126743e+000
1.3702561e+000
1.3937680e+000
1.4064770e+000
1.3967342e+000
1.3807348e+000
1.3597343e+000
1.3387549e+000
1.3218520e+000
1.3048714e+000
1.2869580e+000
1.2661825e+000
1.2401555e+000
1.2181516e+000
1.2007015e+000
1.1984941e+000
1.2107091e+000
1.2308340e+000
1.2560846e+000
1.2665886e+000
1.2677388e+000
1.2511317e+000
1.2263863e+000
1.1974975e+000
1.1666400e+000
1.1343665e+000
1.1007768e+000
1.0682780e+000
1.0365211e+000
1.0189793e+000
1.0062863e+000
1.0050429e+000
1.0051634e+000
1.0031321e+000
9.9586642e-001
9.7708941e-001
9.5496446e-001
9.2777896e-001
9.0794241e-001
8.9783472e-001
8.8776565e-001
8.7468517e-001
8.4946090e-001
8.1346369e-001
7.8644311e-001
7.7114630e-001
7.8476268e-001
8.1961483e-001
8.5698080e-001
8.9328420e-001
8.8665205e-001
8.5608190e-001
7.9582882e-001
7.2343814e-001
6.7630827e-001
6.3889325e-001
6.3025486e-001
6.2832719e-001
6.2124783e-001
6.1177248e-001
5.9507471e-001
5.8387208e-001
5.8457845e-001
5.9117937e-001
5.9993684e-001
5.9934169e-001
5.8418339e-001
5.5486190e-001
5.1527262e-001
4.8145965e-001
4.6237585e-001
4.7829041e-001
5.2479309e-001
5.8765280e-001
6.5302914e-001
6.9585460e-001
7.2155327e-001
7.2979319e-001
7.3055387e-001
7.2188288e-001
7.0775437e-001
6.9835752e-001
6.8985140e-001
7.1047485e-001
7.4213713e-001
7.8001207e-001
8.1652862e-001
8.1972593e-001
8.0548787e-001
7.6221538e-001
7.0695996e-001
6.4618182e-001
5.8117253e-001
5.1530379e-001
4.4996300e-001
3.9551336e-001
3.5667348e-001
3.4139347e-001
3.4565213e-001
3.5401592e-001
3.5828847e-001
3.4695601e-001
3.2232329e-001
2.9344115e-001
2.5690058e-001
2.1980414e-001
1.6649477e-001
1.0672417e-001
2.7305230e-002
-5.7867229e-002
-1.1685945e-001
-1.5621841e-001
-1.4545812e-001
-1.1433607e-001
-8.0788933e-002
-5.1070731e-002
-1.7966615e-002
2.5635170e-002
9.2570812e-002
1.7119029e-001
2.3210366e-001
2.6198763e-001
2.4301299e-001
1.9169675e-001
1.2898485e-001
6.4309217e-002
8.1113447e-003
-3.6755882e-002
-7.4170820e-002
-9.5410749e-002
-1.0320586e-001
-1.2220931e-001
-1.5008286e-001
-1.9122812e-001
-2.3994072e-001
-2.3259257e-001
-1.9059040e-001
-1.0798329e-001
-1.0025352e-002
4.9167708e-002
7.9523556e-002
8.4711030e-002
7.1749106e-002
5.1772300e-002
2.9492430e-002
1.5422934e-002
1.7613864e-002
3.0601956e-002
4.9527504e-002
5.5543192e-002
4.4330340e-002
2.6211355e-002
7.2103487e-003
-8.5559659e-002
-2.0890257e-001
-3.0553797e-001
-3.6006269e-001
-3.6776111e-001
-3.5704318e-001
-3.4672573e-001
-3.7532726e-001
-4.5257044e-001
-5.4959148e-001
-6.5106678e-001
-6.6632199e-001
-6.0686505e-001
-4.6957308e-001
-2.8965777e-001
-1.9141406e-001
-1.6003615e-001
-1.4507918e-001
-1.2428290e-001
6.3673109e-003
2.4857521e-001
6.8186659e-001
1.2362288e+000
1.7632428e+000
2.2547300e+000
2.7238159e+000
3.3281171e+000
4.2324033e+000
5.7133250e+000
7.9057741e+000
1.1011435e+001
1.4967143e+001
1.8995470e+001
2.2740971e+001
2.6080978e+001
2.9083673e+001
3.2637280e+001
3.6832920e+001
4.1902809e+001
4.7656960e+001
5.2729401e+001
5.7147285e+001
6.1402664e+001
6.5632996e+001
7.0658035e+001
7.6277893e+001
8.1845154e+001
8.7226524e+001
9.1993736e+001
9.6167595e+001
9.9762115e+001
1.0270029e+002
1.0487209e+002
1.0598860e+002
1.0575913e+002
1.0423960e+002
1.0158572e+002
9.8499817e+001
9.5583694e+001
9.2569092e+001
8.9333229e+001
8.5356087e+001
8.0502296e+001
7.5481087e+001
7.0550987e+001
6.5970604e+001
6.1762028e+001
5.7497921e+001
5.3122581e+001
4.8848274e+001
4.4692944e+001
4.0825771e+001
3.7268925e+001
3.4179634e+001
3.1561541e+001
2.9367548e+001
2.7573107e+001
2.6028711e+001
2.4750866e+001
2.3726051e+001
2.2958527e+001
2.2415501e+001
2.2082869e+001
2.1907263e+001
2.1871410e+001
2.1937359e+001
2.2087151e+001
2.2303400e+001
2.2566179e+001
2.2866343e+001
2.3256035e+001
2.3751913e+001
2.4419693e+001
2.5260569e+001
2.6229500e+001
2.7309280e+001
2.8435366e+001
2.9607643e+001
3.0995512e+001
3.2696022e+001
3.5293839e+001
3.8863186e+001
4.2771698e+001
4.6785446e+001
4.9928143e+001
5.2222260e+001
5.4199501e+001
5.5871090e+001
5.7359310e+001
5.8470459e+001
5.8895206e+001
5.8588402e+001
5.7620243e+001
5.6231831e+001
5.4778034e+001
5.3268127e+001
5.1712002e+001
4.9980183e+001
4.7976837e+001
4.5718616e+001
4.3165642e+001
4.0699360e+001
3.8458614e+001
3.6293400e+001
3.4215595e+001
3.1641592e+001
2.8421743e+001
2.5218588e+001
2.2086756e+001
1.9458218e+001
1.7384171e+001
1.5318571e+001
1.3256689e+001
1.1151907e+001
9.0326214e+000
6.9699607e+000
5.0379877e+000
3.3474541e+000
1.9603209e+000
9.3798250e-001
2.9766724e-001
5.3583458e-002
3.2262871e-001
1.0690639e+000
2.0294340e+000
3.0339241e+000
3.8990014e+000
4.5198584e+000
5.0269513e+000
5.4626245e+000
5.8811231e+000
6.2839599e+000
6.6292791e+000
6.8642030e+000
7.0048971e+000
7.0003719e+000
6.9273715e+000
6.7599769e+000
6.5473447e+000
6.2740908e+000
5.9352851e+000
5.5087600e+000
4.9635239e+000
4.3137760e+000
3.6653428e+000
3.0531821e+000
2.5750878e+000
2.2410862e+000
2.0455761e+000
1.9955345e+000
2.0718272e+000
2.2522285e+000
2.5135260e+000
2.7956169e+000
3.0821600e+000
3.3605144e+000
3.6292157e+000
3.9059646e+000
4.1885228e+000
4.4950399e+000
4.8369040e+000
5.2046642e+000
5.6041112e+000
5.9645724e+000
6.2274799e+000
6.3681808e+000
6.3077250e+000
6.1238403e+000
5.7723689e+000
5.3607721e+000
4.8842721e+000
4.3941689e+000
3.9149232e+000
3.4771140e+000
3.0896370e+000
2.7555690e+000
2.4275436e+000
2.0387330e+000
1.5976639e+000
1.1013662e+000
6.3390660e-001
2.9757535e-001
7.1756646e-002
1.0543806e-002
3.0231863e-002
1.3150847e-001
2.6331857e-001
4.2458239e-001
5.9986109e-001
8.0283833e-001
1.0123869e+000
1.2267058e+000
1.4439139e+000
1.6410545e+000
1.8450400e+000
2.0590429e+000
2.2889700e+000
2.5546594e+000
2.8355720e+000
3.1442370e+000
3.4569461e+000
3.7719200e+000
4.0682082e+000
4.3305554e+000
4.5510592e+000
4.7212291e+000
4.8475127e+000
4.9385595e+000
5.0000668e+000
5.0412688e+000
5.0526781e+000
5.0443568e+000
5.0007005e+000
4.9448152e+000
4.8742218e+000
4.8082242e+000
4.7576284e+000
4.7224736e+000
4.7214031e+000
4.7313061e+000
4.7637224e+000
4.7949929e+000
4.8289037e+000
4.8684583e+000
4.9245791e+000
5.0031657e+000
5.1123705e+000
5.2350807e+000
5.3690701e+000
5.5011778e+000
5.6303349e+000
5.7555714e+000
5.8736892e+000
5.9780097e+000
6.0688457e+000
6.1438732e+000
6.2098503e+000
6.2672210e+000
6.3153481e+000
6.3399982e+000
6.3433867e+000
6.2991071e+000
6.2237139e+000
6.0771160e+000
5.8881898e+000
5.5848455e+000
5.2336049e+000
4.7541962e+000
4.2522244e+000
3.7004037e+000
3.1712439e+000
2.6907971e+000
2.2487450e+000
1.8726881e+000
1.5235173e+000
1.2149074e+000
9.3437165e-001
6.8960524e-001
4.7379494e-001
2.8850484e-001
1.2480657e-001
-1.7639510e-002
-1.3661602e-001
-2.3553839e-001
-3.0615360e-001
-3.5501167e-001
-3.6568299e-001
-3.5067520e-001
-2.8180394e-001
-1.8020582e-001
6.5102726e-003
2.3121801e-001
5.6365281e-001
9.0576673e-001
1.2574344e+000
1.5708909e+000
1.7634065e+000
1.9095383e+000
1.9405650e+000
1.9400160e+000
1.8744495e+000
1.7770371e+000
1.6251578e+000
1.4408023e+000
1.2133749e+000
9.7170657e-001
7.1938604e-001
4.8898679e-001
2.8608596e-001
1.3649757e-001
3.2755181e-002
-1.3696970e-002
-2.0546218e-002
4.4015758e-002
1.4584926e-001
3.0091846e-001
4.7094506e-001
6.4440227e-001
8.0805063e-001
9.1627759e-001
1.0073497e+000
1.0339071e+000
1.0594953e+000
1.0870537e+000
1.1307685e+000
1.2251643e+000
1.3246549e+000
1.4329120e+000
1.5131434e+000
1.5358689e+000
1.5269046e+000
1.4700714e+000
1.4123416e+000
1.3553981e+000
1.3134199e+000
1.2871879e+000
1.2733165e+000
1.2718829e+000
1.2907451e+000
1.3226497e+000
1.3598740e+000
1.3913372e+000
1.3639243e+000
1.3057275e+000
1.1667374e+000
1.0092589e+000
8.4957105e-001
6.9984722e-001
6.2621075e-001
5.6585497e-001
5.6667805e-001
5.7070255e-001
5.8830398e-001
6.0166794e-001
6.0113591e-001
5.8963597e-001
5.5053782e-001
4.9696770e-001
4.1442502e-001
3.1378376e-001
1.8729708e-001
6.5513097e-002
-4.8062392e-002
-1.3486862e-001
-1.9936413e-001
-2.8216600e-001
-3.7949106e-001
-5.0011462e-001
-6.2834233e-001
-7.0686829e-001
-7.6323825e-001
-7.8350598e-001
-7.9748708e-001
-8.4920150e-001
-9.1068751e-001
-1.0118600e+000
-1.1154015e+000
-1.2091583e+000
-1.2947320e+000
-1.3249383e+000
-1.3447058e+000
-1.3188357e+000
-1.2945980e+000
-1.2761275e+000
-1.2593473e+000
-1.2456731e+000
-1.2159522e+000
-1.1570377e+000
-1.0866988e+000
-1.0010380e+000
-9.2401773e-001
-8.5715061e-001
-8.0801946e-001
-7.7442366e-001
-7.6536226e-001
-7.7154475e-001
-7.9375798e-001
-8.2132214e-001
-8.1404436e-001
-7.9225445e-001
-6.9330430e-001
-5.7728326e-001
-4.4118714e-001
-3.0478680e-001
-2.1690784e-001
-1.3072996e-001
-4.1819144e-002
1.6503073e-003
5.1534250e-002
1.5601654e-001
2.9552159e-001
4.2849800e-001
5.4214436e-001
6.3416517e-001
6.7989570e-001
7.1339297e-001
7.2787499e-001
7.5976723e-001
8.1345302e-001
8.8870060e-001
9.8296648e-001
1.0318357e+000
1.0467610e+000
9.4204903e-001
7.7464020e-001
5.6383222e-001
3.3902937e-001
2.4547869e-001
1.8819068e-001
2.7229694e-001
3.7957475e-001
4.8774001e-001
