Image.
>Pix99999.
  .
5555
5555
2300
900
5555
2
1
0
701
5555
-9.2922002e-003
-9.4855232e-003
-9.6787466e-003
-9.8721702e-003
-1.0065892e-002
-1.0258622e-002
-1.0452338e-002
-1.0645070e-002
-1.0838782e-002
-1.1031519e-002
-1.1225228e-002
-1.1418952e-002
-1.1611691e-002
-1.1804415e-002
-1.1998120e-002
-1.2195757e-002
-1.2385657e-002
-1.2565629e-002
-1.2771677e-002
-1.3013405e-002
-1.3159885e-002
-1.3171759e-002
-1.3539088e-002
-1.4408856e-002
-1.3955143e-002
-9.9035250e-003
-3.6229513e-004
1.7090354e-002
4.7469761e-002
9.4661877e-002
1.5505478e-001
2.2111031e-001
2.7811983e-001
3.1356451e-001
3.3218253e-001
3.4165701e-001
3.4141755e-001
3.2755169e-001
2.9271537e-001
2.3393288e-001
1.7007686e-001
1.2436580e-001
1.1125960e-001
1.3829663e-001
1.9613241e-001
2.7293184e-001
3.6742654e-001
4.7868508e-001
5.9377342e-001
6.9511777e-001
7.6165283e-001
7.8119403e-001
7.8198117e-001
8.0112892e-001
8.5996330e-001
9.6649414e-001
1.0959936e+000
1.2192087e+000
1.3303608e+000
1.4316208e+000
1.5248543e+000
1.6099365e+000
1.6785480e+000
1.7212640e+000
1.7349851e+000
1.7190365e+000
1.6759088e+000
1.6121885e+000
1.5479366e+000
1.5057329e+000
1.4979299e+000
1.5312862e+000
1.6013988e+000
1.7003628e+000
1.8185825e+000
1.9448714e+000
2.0613708e+000
2.1502619e+000
2.2009296e+000
2.2061887e+000
2.1600542e+000
2.0604541e+000
1.9185965e+000
1.7551709e+000
1.6098360e+000
1.5232929e+000
1.5146648e+000
1.5873091e+000
1.7134429e+000
1.8576244e+000
2.0002043e+000
2.1288159e+000
2.2364132e+000
2.3167965e+000
2.3583388e+000
2.3524828e+000
2.3113675e+000
2.2544479e+000
2.1974521e+000
2.1494906e+000
2.0982430e+000
2.0293598e+000
1.9531345e+000
1.8905580e+000
1.8651823e+000
1.8919650e+000
1.9465020e+000
1.9929979e+000
2.0139234e+000
2.0051022e+000
1.9858900e+000
1.9798392e+000
1.9898840e+000
2.0096776e+000
2.0296755e+000
2.0415914e+000
2.0448017e+000
2.0416851e+000
2.0336003e+000
2.0213931e+000
2.0051143e+000
1.9860706e+000
1.9694885e+000
1.9614246e+000
1.9640028e+000
1.9755608e+000
1.9863460e+000
1.9848439e+000
1.9654691e+000
1.9278557e+000
1.8811328e+000
1.8368406e+000
1.8020040e+000
1.7787091e+000
1.7585286e+000
1.7305664e+000
1.6915240e+000
1.6436878e+000
1.5973897e+000
1.5657997e+000
1.5599600e+000
1.5858536e+000
1.6338514e+000
1.6859362e+000
1.7201903e+000
1.7189264e+000
1.6891418e+000
1.6487780e+000
1.6145291e+000
1.5968374e+000
1.5864358e+000
1.5673810e+000
1.5341258e+000
1.4901762e+000
1.4541260e+000
1.4464886e+000
1.4660617e+000
1.5002463e+000
1.5335094e+000
1.5533203e+000
1.5627085e+000
1.5714841e+000
1.5861278e+000
1.6086183e+000
1.6319114e+000
1.6441785e+000
1.6328738e+000
1.5883443e+000
1.5137600e+000
1.4211496e+000
1.3311957e+000
1.2655151e+000
1.2335497e+000
1.2344252e+000
1.2527558e+000
1.2685250e+000
1.2720000e+000
1.2616147e+000
1.2443788e+000
1.2308429e+000
1.2283200e+000
1.2394731e+000
1.2546960e+000
1.2591431e+000
1.2424932e+000
1.2059679e+000
1.1873634e+000
1.2344342e+000
1.3522937e+000
1.5140220e+000
1.6598958e+000
1.7264493e+000
1.7031010e+000
1.6121669e+000
1.4876611e+000
1.3654500e+000
1.2729000e+000
1.2271650e+000
1.2241806e+000
1.2471126e+000
1.2732286e+000
1.2826098e+000
1.2777375e+000
1.2720630e+000
1.2684326e+000
1.2607114e+000
1.2363051e+000
1.1848316e+000
1.1198384e+000
1.0656002e+000
1.0304900e+000
1.0086367e+000
9.7908103e-001
9.1933602e-001
8.3625019e-001
7.5421256e-001
6.9430363e-001
6.6928369e-001
6.7185605e-001
6.8632782e-001
7.1183032e-001
7.5570011e-001
8.1646591e-001
8.8159329e-001
9.1790920e-001
8.8764358e-001
7.8622317e-001
6.3486713e-001
4.7229427e-001
3.3789149e-001
2.3549557e-001
1.4999050e-001
8.5836180e-002
6.3536227e-002
1.0854517e-001
2.3646601e-001
4.1182193e-001
5.6964737e-001
6.6081601e-001
6.5866435e-001
5.7473314e-001
4.4466919e-001
3.0773303e-001
1.9764575e-001
1.2443646e-001
8.0129303e-002
4.5877889e-002
1.5065353e-003
-5.4750610e-002
-1.1357395e-001
-1.7429213e-001
-2.3848639e-001
-2.8429040e-001
-2.7593955e-001
-1.9113803e-001
-2.8702110e-002
1.6772343e-001
3.3351940e-001
4.4316506e-001
4.9905920e-001
4.9018088e-001
3.9773458e-001
2.2839665e-001
1.7319061e-002
-1.5997264e-001
-2.1932821e-001
-1.5673220e-001
-3.9282713e-002
1.7976686e-002
-9.6728258e-002
-3.5843614e-001
-6.4659488e-001
-8.7313765e-001
-9.9704432e-001
-1.0203712e+000
-9.7628790e-001
-9.1830170e-001
-9.0151381e-001
-9.3572623e-001
-9.9197668e-001
-1.0253201e+000
-9.9295872e-001
-8.9398098e-001
-7.6019454e-001
-6.2414819e-001
-5.0738591e-001
-3.9954513e-001
-2.5602701e-001
1.6511083e-002
5.2831399e-001
1.3092982e+000
2.3051138e+000
3.3829424e+000
4.3871827e+000
5.2963762e+000
6.2165427e+000
7.3206677e+000
8.8195620e+000
1.0933856e+001
1.3810319e+001
1.7241285e+001
2.0759329e+001
2.4023237e+001
2.6910061e+001
2.9623480e+001
3.2586143e+001
3.6099606e+001
4.0230968e+001
4.4595760e+001
4.8561306e+001
5.1972427e+001
5.5147835e+001
5.8494987e+001
6.2351700e+001
6.6727684e+001
7.1355751e+001
7.5968773e+001
8.0358643e+001
8.4370087e+001
8.7909309e+001
9.1011658e+001
9.3807358e+001
9.6377037e+001
9.8686317e+001
1.0043616e+002
1.0118179e+002
1.0084257e+002
9.9686165e+001
9.7909569e+001
9.5557747e+001
9.2593987e+001
8.8980911e+001
8.4894447e+001
8.0673660e+001
7.6479279e+001
7.2266495e+001
6.7955360e+001
6.3496647e+001
5.8965794e+001
5.4547050e+001
5.0405628e+001
4.6656487e+001
4.3361404e+001
4.0527863e+001
3.8106785e+001
3.6010998e+001
3.4182755e+001
3.2601727e+001
3.1243406e+001
3.0070942e+001
2.9051001e+001
2.8162682e+001
2.7414417e+001
2.6839552e+001
2.6458117e+001
2.6264236e+001
2.6225269e+001
2.6292410e+001
2.6441317e+001
2.6682220e+001
2.7048658e+001
2.7584522e+001
2.8300699e+001
2.9164248e+001
3.0114960e+001
3.1078121e+001
3.2000088e+001
3.2888958e+001
3.3933578e+001
3.5452206e+001
3.7516113e+001
3.9880390e+001
4.2171932e+001
4.4008114e+001
4.5304985e+001
4.6293716e+001
4.7171890e+001
4.8012909e+001
4.8794041e+001
4.9404198e+001
4.9675800e+001
4.9435802e+001
4.8695339e+001
4.7662083e+001
4.6495258e+001
4.5238750e+001
4.3861153e+001
4.2286278e+001
4.0497372e+001
3.8566868e+001
3.6626343e+001
3.4816483e+001
3.3096519e+001
3.1222805e+001
2.8984951e+001
2.6306486e+001
2.3352617e+001
2.0506868e+001
1.7998968e+001
1.5807369e+001
1.3822000e+001
1.1906313e+001
9.9971638e+000
8.1271963e+000
6.3431940e+000
4.6857986e+000
3.2122560e+000
1.9926953e+000
1.0515449e+000
3.7266627e-001
3.8135856e-002
2.2698060e-001
9.3677795e-001
1.9186449e+000
2.9382417e+000
3.8601100e+000
4.6338658e+000
5.2801390e+000
5.7704940e+000
6.0064306e+000
5.9493999e+000
5.6689596e+000
5.3064933e+000
5.0430884e+000
4.9341946e+000
4.8666606e+000
4.7467756e+000
4.5553088e+000
4.2860298e+000
3.9272163e+000
3.4600942e+000
2.8680596e+000
2.1896653e+000
1.5332099e+000
9.9371922e-001
6.2082374e-001
4.2184773e-001
3.6158258e-001
4.1054669e-001
5.6022167e-001
8.0611885e-001
1.1406066e+000
1.5423489e+000
1.9724057e+000
2.3931098e+000
2.7757721e+000
3.1020577e+000
3.3675251e+000
3.5809119e+000
3.7659690e+000
3.9510071e+000
4.1617994e+000
4.3989954e+000
4.6257477e+000
4.7896237e+000
4.8331051e+000
4.7298346e+000
4.5027175e+000
4.1922011e+000
3.8466442e+000
3.5047944e+000
3.1879222e+000
2.9104519e+000
2.6792133e+000
2.4809291e+000
2.2751508e+000
2.0224833e+000
1.6999449e+000
1.3184246e+000
9.3360329e-001
5.9686470e-001
3.3413041e-001
1.4964509e-001
2.4521533e-002
-5.2590005e-002
-7.3543429e-002
-3.0084798e-002
7.7143073e-002
2.3335925e-001
4.0543640e-001
5.6370854e-001
6.9298655e-001
7.9397774e-001
8.8783789e-001
9.9869478e-001
1.1464236e+000
1.3402883e+000
1.5724930e+000
1.8255891e+000
2.0735519e+000
2.2967100e+000
2.4899542e+000
2.6541908e+000
2.7948260e+000
2.9160712e+000
3.0191207e+000
3.1065686e+000
3.1845629e+000
3.2586370e+000
3.3311741e+000
3.4019001e+000
3.4679122e+000
3.5292826e+000
3.5924904e+000
3.6664441e+000
3.7607229e+000
3.8785720e+000
4.0122724e+000
4.1515336e+000
4.2872896e+000
4.4154472e+000
4.5404282e+000
4.6691451e+000
4.8097005e+000
4.9730339e+000
5.1741734e+000
5.4283986e+000
5.7480912e+000
6.1368999e+000
6.5830951e+000
7.0702572e+000
7.5815597e+000
8.1073093e+000
8.6510038e+000
9.2172098e+000
9.8052006e+000
1.0404652e+001
1.0988659e+001
1.1529137e+001
1.2000424e+001
1.2384743e+001
1.2678562e+001
1.2882640e+001
1.2997452e+001
1.3024040e+001
1.2960649e+001
1.2804177e+001
1.2545596e+001
1.2180552e+001
1.1711650e+001
1.1152343e+001
1.0534719e+001
9.8908272e+000
9.2489071e+000
8.6298866e+000
8.0401058e+000
7.4780278e+000
6.9319754e+000
6.3839188e+000
5.8096809e+000
5.1948786e+000
4.5505638e+000
3.9053135e+000
3.3097670e+000
2.8022838e+000
2.3833914e+000
2.0366876e+000
1.7312002e+000
1.4508132e+000
1.2179673e+000
1.0577919e+000
9.7936606e-001
9.7299689e-001
9.9644804e-001
1.0078517e+000
9.8410404e-001
9.1423953e-001
8.0447859e-001
6.6656423e-001
5.1573992e-001
3.7003100e-001
2.5102571e-001
1.7346875e-001
1.3369289e-001
1.1647820e-001
9.2011601e-002
4.2822555e-002
-1.0546349e-002
-2.8595481e-002
4.8730254e-002
2.6329830e-001
6.0013849e-001
1.0110452e+000
1.4046867e+000
1.7129520e+000
1.9491142e+000
2.1585555e+000
2.4130721e+000
2.7606959e+000
3.1755776e+000
3.6142201e+000
4.0348454e+000
4.4109130e+000
4.7520342e+000
5.0723524e+000
5.3756299e+000
5.6637220e+000
5.9417410e+000
6.2209997e+000
6.5277433e+000
6.8865285e+000
7.3078785e+000
7.7851539e+000
8.2772331e+000
8.7423544e+000
9.1593342e+000
9.5198059e+000
9.8356037e+000
1.0113754e+001
1.0338321e+001
1.0493471e+001
1.0582958e+001
1.0616371e+001
1.0606905e+001
1.0559943e+001
1.0462421e+001
1.0304120e+001
1.0102985e+001
9.8855629e+000
9.6857357e+000
9.5303574e+000
9.4236774e+000
9.3536892e+000
9.2791872e+000
9.1496992e+000
8.9114647e+000
8.5297136e+000
8.0272589e+000
7.4504976e+000
6.8724236e+000
6.3603401e+000
5.9435925e+000
5.6262226e+000
5.3636622e+000
5.0995641e+000
4.7793970e+000
4.3722720e+000
3.9166141e+000
3.4665234e+000
3.0719326e+000
2.7623258e+000
2.5093951e+000
2.2779064e+000
2.0552287e+000
1.8346679e+000
1.6112615e+000
1.3754408e+000
1.1025133e+000
7.7563828e-001
4.1605747e-001
5.5836216e-002
-2.6756459e-001
-5.2274072e-001
-7.0181799e-001
-8.0487388e-001
-8.3899027e-001
-8.1578964e-001
-7.5571799e-001
-6.7434478e-001
-5.6380445e-001
-4.0355113e-001
-1.5108047e-001
2.2069845e-001
6.6943181e-001
1.1343234e+000
1.5511899e+000
1.8697529e+000
2.0905700e+000
2.2180176e+000
2.2274332e+000
2.0962472e+000
1.8343077e+000
1.4686121e+000
1.0576489e+000
6.6560423e-001
3.4974179e-001
1.4250080e-001
-4.2392313e-003
-1.3060495e-001
-1.7704658e-001
-9.5717058e-002
2.9078148e-002
9.0064630e-002
1.7061532e-002
-2.1542016e-001
-5.0183880e-001
-7.1744144e-001
-7.8817993e-001
-6.8752420e-001
-5.2020377e-001
-4.0285942e-001
-3.7260237e-001
-4.3806738e-001
-5.7453358e-001
-7.4972546e-001
-9.3415707e-001
-1.0796057e+000
-1.0619931e+000
-7.8024131e-001
-3.0175030e-001
2.6422000e-001
