##TITLE=Methyl Ethyl Ketone
##JCAMP-DX=4.24
##DATA TYPE=INFRARED SPECTRUM
##XUNITS=cm-1
##YUNITS=Absorbance
##FIRSTX=900
##LASTX=2300
##XYDATA=(X++(Y..Y))
2296 -0.053183001
2294 -0.054289415
2292 -0.055395834
2290 -0.056502249
2288 -0.057608668
2286 -0.058715086
2284 -0.059821505
2282 -0.06092792
2280 -0.062034339
2278 -0.063140757
2276 -0.064247176
2274 -0.065353587
2272 -0.066460006
2270 -0.067566425
2268 -0.068672843
2266 -0.069779254
2264 -0.070885673
2262 -0.071992092
2260 -0.073098511
2258 -0.074204929
2256 -0.07531134
2254 -0.076417767
2252 -0.077524178
2250 -0.078630596
2248 -0.079737008
2246 -0.080843426
2244 -0.0030042257
2242 0.060881499
2240 0.11856816
2238 0.034241982
2236 -0.071008913
2234 -0.3033829
2232 -0.53982896
2230 -0.66270602
2228 -0.75642842
2226 -0.66108501
2224 -0.54432541
2222 -0.37366655
2220 -0.22338888
2218 -0.14399643
2216 -0.11421029
2214 -0.18403912
2212 -0.27728182
2210 -0.39911699
2208 -0.47711819
2206 -0.49827114
2204 -0.4528819
2202 -0.34684646
2200 -0.23658302
2198 -0.1261241
2196 -0.063138358
2194 -0.027521903
2192 0.00046485034
2190 0.025906663
2188 0.066707589
2186 0.11254828
2184 0.1120216
2182 0.10074737
2180 0.041876186
2178 -0.023817783
2176 -0.072881058
2174 -0.11789242
2172 -0.13439594
2170 -0.1371761
2168 -0.076736465
2166 0.00036034966
2164 0.11578115
2162 0.21858084
2160 0.2793085
2158 0.33459491
2156 0.38768601
2154 0.44497135
2152 0.50866085
2150 0.52065533
2148 0.4736414
2146 0.3875457
2144 0.27234486
2142 0.196834
2140 0.15104137
2138 0.15439624
2136 0.18286057
2134 0.22526436
2132 0.27249759
2130 0.33870584
2128 0.41082719
2126 0.47705251
2124 0.54180378
2122 0.50708646
2120 0.45231479
2118 0.31756735
2116 0.17271614
2114 0.037438661
2112 -0.088179514
2110 -0.17714721
2108 -0.2441432
2106 -0.26100343
2104 -0.24729355
2102 -0.18244781
2100 -0.091486901
2098 0.030617969
2096 0.16631457
2094 0.31379229
2092 0.42944103
2090 0.51035833
2088 0.53037083
2086 0.50416601
2084 0.48013473
2082 0.46175098
2080 0.48969871
2078 0.54163283
2076 0.58938128
2074 0.63419247
2072 0.622486
2070 0.59262079
2068 0.54392815
2066 0.49199122
2064 0.48970714
2062 0.50088596
2060 0.55032128
2058 0.6038636
2056 0.6384877
2054 0.65416235
2052 0.61520118
2050 0.55683202
2048 0.47626421
2046 0.4079057
2044 0.37172002
2042 0.37270486
2040 0.42052552
2038 0.49067739
2036 0.5769853
2034 0.64870173
2032 0.70337331
2030 0.74266261
2028 0.77222192
2026 0.81745285
2024 0.87374365
2022 0.95906252
2020 1.0586663
2018 1.1372844
2016 1.2062
2014 1.2029501
2012 1.1756626
2010 1.1143388
2008 1.0444206
2006 0.9735803
2004 0.90614671
2002 0.86418337
2000 0.84302253
1998 0.88398099
1996 0.94955713
1994 1.0422256
1992 1.1313388
1990 1.197142
1988 1.251016
1986 1.2937986
1984 1.3208852
1982 1.3297459
1980 1.2904598
1978 1.2014916
1976 1.1045114
1974 1.0099968
1972 0.99968415
1970 1.0533479
1968 1.1637018
1966 1.302475
1964 1.4032789
1962 1.4816639
1960 1.504792
1958 1.5049587
1956 1.4697472
1954 1.4221746
1952 1.3652937
1950 1.3067085
1948 1.2597631
1946 1.222675
1944 1.2178674
1942 1.2333957
1940 1.2849562
1938 1.3360302
1936 1.3570143
1934 1.3437145
1932 1.279318
1930 1.1914161
1928 1.0894629
1926 0.99484128
1924 0.91478997
1922 0.86067861
1920 0.83044463
1918 0.7982105
1916 0.75888503
1914 0.71528125
1912 0.66961282
1910 0.67906517
1908 0.72433126
1906 0.78976083
1904 0.86315238
1902 0.89462483
1900 0.90607613
1898 0.94784188
1896 1.0040829
1894 1.087765
1892 1.1679014
1890 1.1516279
1888 1.0817108
1886 0.93961602
1884 0.7889564
1882 0.69433069
1880 0.64156407
1878 0.63918263
1876 0.63522303
1874 0.59615147
1872 0.54156208
1870 0.48110527
1868 0.47611293
1866 0.54266638
1864 0.64780653
1862 0.77192801
1860 0.86466265
1858 0.92481238
1856 0.90507573
1854 0.82931405
1852 0.61481106
1850 0.3145456
1848 -0.085889608
1846 -0.53743249
1844 -0.82022643
1842 -1.003736
1840 -0.88695681
1838 -0.62366647
1836 -0.30664343
1834 0.026122704
1832 0.31216913
1830 0.54881275
1828 0.68292421
1826 0.73031467
1824 0.66286784
1822 0.5573554
1820 0.47144261
1818 0.41809151
1816 0.40792999
1814 0.39556855
1812 0.35737744
1810 0.30220401
1808 0.23681502
1806 0.1764255
1804 0.12453952
1802 -0.031315029
1800 -0.28434145
1798 -0.58919775
1796 -0.91829288
1794 -0.97433853
1792 -0.83352602
1790 -0.50801706
1788 -0.081757292
1786 0.19451304
1784 0.36968103
1782 0.38716251
1780 0.30471987
1778 0.13871907
1776 -0.048482083
1774 -0.13596343
1772 -0.11580391
1770 0.081791304
1768 0.31033349
1766 0.40384763
1764 0.36955741
1762 0.20430107
1760 0.045908399
1758 -0.19401774
1756 -0.44310257
1754 -0.59956235
1752 -0.72513467
1750 -0.85257369
1748 -1.0126749
1746 -1.2072357
1744 -1.4318234
1742 -1.6766089
1740 -1.8512599
1738 -1.9625856
1736 -1.9112201
1734 -1.7420973
1732 -1.4632483
1730 -1.1180985
1728 -0.83493376
1726 -0.60001999
1724 -0.41704279
1722 -0.24646589
1720 0.071471199
1718 0.57551819
1716 1.2996993
1714 2.0611193
1712 2.619652
1710 3.0156188
1708 3.28826
1706 3.6529315
1704 4.3084307
1702 5.5485229
1700 7.5248356
1698 10.574215
1696 14.718714
1694 19.12241
1692 23.365
1690 27.079763
1688 30.259691
1686 33.755116
1684 37.701691
1682 42.342197
1680 47.545242
1678 52.167641
1676 56.240314
1674 60.32032
1672 64.489746
1670 69.35743
1668 74.72876
1666 79.966499
1664 85.013145
1662 89.641808
1660 93.858521
1658 97.642883
1656 100.9532
1654 103.72733
1652 105.8104
1650 107.04547
1648 107.1092
1646 105.81071
1644 103.57429
1642 100.85299
1640 97.795403
1638 94.53598
1636 90.750061
1634 86.36776
1632 81.803177
1630 77.224579
1628 72.750313
1626 68.393394
1624 63.747803
1622 58.791328
1620 53.954807
1618 49.281864
1616 45.085541
1614 41.375481
1612 38.172741
1610 35.46962
1608 33.140022
1606 31.157694
1604 29.379675
1602 27.831196
1600 26.526228
1598 25.481646
1596 24.6835
1594 24.135138
1592 23.804611
1590 23.677668
1588 23.712866
1586 23.866585
1584 24.092806
1582 24.349421
1580 24.60754
1578 24.93437
1576 25.355629
1574 25.933201
1572 26.681112
1570 27.560169
1568 28.5592
1566 29.617735
1564 30.729923
1562 31.987185
1560 33.466938
1558 35.716393
1556 38.773373
1554 42.058472
1552 45.36095
1550 47.793339
1548 49.340549
1546 50.383644
1544 50.912201
1542 51.082546
1540 50.902462
1538 50.473656
1536 49.811028
1534 48.974728
1532 47.951931
1530 46.748718
1528 45.364601
1526 43.808201
1524 42.108471
1522 40.282185
1520 38.494068
1518 36.821373
1516 35.276585
1514 33.87727
1512 32.326439
1510 30.540062
1508 28.22625
1506 25.257315
1504 22.318136
1502 19.482315
1500 17.13784
1498 15.34775
1496 13.629286
1494 11.986913
1492 10.361919
1490 8.7555065
1488 7.1583271
1486 5.5897255
1484 4.0813241
1482 2.7187569
1480 1.6125646
1478 0.80204332
1476 0.29910076
1474 0.16795591
1472 0.48482531
1470 1.0291458
1468 1.5982177
1466 2.0672064
1464 2.3427989
1462 2.5322788
1460 2.6644874
1458 2.8954234
1456 3.3027401
1454 3.8343353
1452 4.5226507
1450 5.0659761
1448 5.3750091
1446 5.541357
1444 5.5083113
1442 5.4036388
1440 5.1951256
1438 4.8965721
1436 4.4823084
1434 3.989979
1432 3.4416018
1430 2.9490106
1428 2.544976
1426 2.2638435
1424 2.1111183
1422 2.0654011
1420 2.1299741
1418 2.3032486
1416 2.5711744
1414 2.9280579
1412 3.3190899
1410 3.7063742
1408 4.0626793
1406 4.3595476
1404 4.6093144
1402 4.79492
1400 4.9456959
1398 5.0497437
1396 5.168757
1394 5.3222694
1392 5.4986339
1390 5.7015786
1388 5.8240414
1386 5.8117752
1384 5.6855555
1382 5.4014916
1380 5.0517702
1378 4.6193357
1376 4.1466603
1374 3.6482215
1372 3.1915462
1370 2.793597
1368 2.4695926
1366 2.1739879
1364 1.8150563
1362 1.403312
1360 0.94878197
1358 0.53133702
1356 0.25506055
1354 0.079668179
1352 0.020475848
1350 0.0026908023
1348 0.0017370153
1346 -0.0045691929
1344 -0.0085559599
1342 -0.025577832
1340 -0.070822947
1338 -0.10249663
1336 -0.099866517
1334 -0.040246964
1332 0.11955047
1330 0.2886385
1328 0.46914074
1326 0.63605016
1324 0.79111785
1322 0.97176439
1320 1.1878629
1318 1.430413
1316 1.6947401
1314 1.947023
1312 2.1816125
1310 2.3900702
1308 2.5706203
1306 2.7188935
1304 2.8322039
1302 2.893784
1300 2.9166191
1298 2.8921716
1296 2.8490858
1294 2.7968349
1292 2.7550433
1290 2.7468433
1288 2.7642801
1286 2.8366549
1284 2.9256501
1282 3.0476992
1280 3.1659262
1278 3.2747409
1276 3.3729885
1274 3.4531879
1272 3.5429463
1270 3.6568666
1268 3.819417
1266 4.0563998
1264 4.3407879
1262 4.6766605
1260 5.0081282
1258 5.3295383
1256 5.627883
1254 5.9127493
1252 6.212954
1250 6.5370493
1248 6.9121475
1246 7.3153248
1244 7.7289772
1242 8.1201363
1240 8.4226809
1238 8.6650476
1236 8.7895384
1234 8.864172
1232 8.8471117
1230 8.7896967
1228 8.6302309
1226 8.426589
1224 8.101326
1222 7.7265468
1220 7.2332344
1218 6.7074223
1216 6.1206226
1214 5.539897
1212 4.9748631
1210 4.4430795
1208 3.9604619
1206 3.5074015
1204 3.0848398
1202 2.6558995
1200 2.2204006
1198 1.7803012
1196 1.3533572
1194 0.99784577
1192 0.70628554
1190 0.51370442
1188 0.36961144
1186 0.24644786
1184 0.12895159
1182 0.0066983104
1180 -0.10011347
1178 -0.13983372
1176 -0.150314
1174 -0.079385072
1172 0.0030192584
1170 0.11089817
1168 0.20790783
1166 0.26924109
1164 0.30153164
1162 0.2617299
1160 0.20211753
1158 0.10622955
1156 0.023373488
1154 -0.035732828
1152 -0.07398653
1150 -0.085406907
1148 -0.094723061
1146 -0.10070536
1144 -0.10012715
1142 -0.086077459
1140 -0.033834215
1138 0.024643257
1136 0.10799482
1134 0.221728
1132 0.35766387
1130 0.5143404
1128 0.73536247
1126 0.99367023
1124 1.3557485
1122 1.7283912
1120 2.0597799
1118 2.3523939
1116 2.4582801
1114 2.5337205
1112 2.4954834
1110 2.458571
1108 2.4283681
1106 2.424135
1104 2.4861007
1102 2.5749295
1100 2.715847
1098 2.8639848
1096 3.0253999
1094 3.2043707
1092 3.4076521
1090 3.6324749
1088 3.874156
1086 4.0882335
1084 4.274785
1082 4.4155192
1080 4.5263309
1078 4.617147
1076 4.7009354
1074 4.7989702
1072 4.9049926
1070 5.0351658
1068 5.1658802
1066 5.2618351
1064 5.341548
1062 5.3336635
1060 5.3101134
1058 5.2131333
1056 5.1175714
1054 5.028944
1052 4.9499512
1050 4.9005599
1048 4.8448348
1046 4.7738214
1044 4.6973557
1042 4.6094255
1040 4.5055785
1038 4.375021
1036 4.20262
1034 3.9797628
1032 3.7229199
1030 3.4353154
1028 3.1374145
1026 2.8332748
1024 2.5365932
1022 2.2431641
1020 1.9429363
1018 1.6389716
1016 1.3232315
1014 1.0067719
1012 0.71657872
1010 0.43566668
1008 0.20976862
1006 -0.0075982511
1004 -0.17831139
1002 -0.34140748
1000 -0.45438033
998 -0.54943597
996 -0.56498927
994 -0.56172901
992 -0.50027722
990 -0.43494129
988 -0.36258414
986 -0.31981549
984 -0.32978234
982 -0.36663711
980 -0.43585661
978 -0.44830281
976 -0.39907113
974 -0.29370391
972 -0.14448215
970 -0.0082893297
968 0.12103736
966 0.26959351
964 0.42788282
962 0.60692906
960 0.78689682
958 0.84525752
956 0.86736703
954 0.65849018
952 0.4206664
950 0.15604797
948 -0.0882781
946 -0.029083822
944 0.005571425
942 0.17312205
940 0.49567467
938 0.8092317
936 1.0937058
934 1.2929358
932 1.4851745
930 1.6635271
928 1.8713377
926 2.1265099
924 2.3880939
922 2.6560214
920 2.8495393
918 2.9715242
916 2.9268813
914 2.7625659
912 2.4248891
910 1.9977009
908 1.7587677
906 1.5959378
904 1.9935164
902 2.5388768
900 3.2558305
898 3.999814
896 4.2891998
