Image.
>Pix99999.
  .
5555
5555
2300
900
5555
2
1
0
701
5555
4.0238000e-002
4.1074805e-002
4.1911606e-002
4.2749405e-002
4.3586213e-002
4.4423014e-002
4.5259818e-002
4.6097610e-002
4.6934422e-002
4.7771227e-002
4.8609015e-002
4.9445830e-002
5.0282635e-002
5.1119436e-002
5.1957220e-002
5.2794043e-002
5.3630844e-002
5.4468624e-002
5.5305451e-002
5.6142252e-002
5.6979056e-002
5.7816830e-002
5.8653664e-002
5.9490465e-002
6.0328234e-002
6.1165072e-002
2.1895986e-002
7.8608573e-004
-1.8013440e-002
1.6150046e-002
5.8171984e-002
1.2318166e-001
1.8738468e-001
1.9641829e-001
1.9798541e-001
1.6127549e-001
1.3000068e-001
1.3259636e-001
1.4432043e-001
1.7836995e-001
2.0782429e-001
2.2450578e-001
2.4148580e-001
2.6016453e-001
2.8605121e-001
3.2077813e-001
3.4693968e-001
3.6425468e-001
3.7288731e-001
3.7544882e-001
3.8553572e-001
4.0021640e-001
4.1309434e-001
4.2505750e-001
4.2966989e-001
4.3189657e-001
4.3284199e-001
4.3351626e-001
4.2468289e-001
4.1428331e-001
3.9181373e-001
3.6873952e-001
3.5143623e-001
3.3743751e-001
3.3938909e-001
3.4058085e-001
3.3346051e-001
3.2013139e-001
2.9300538e-001
2.7347246e-001
2.7091998e-001
2.8422871e-001
3.1795639e-001
3.5263276e-001
3.8599288e-001
4.0005466e-001
3.9719269e-001
3.7357670e-001
3.3678544e-001
3.1065306e-001
2.9103255e-001
3.0470639e-001
3.3204737e-001
3.7581348e-001
4.2439640e-001
4.4937137e-001
4.6881607e-001
4.4980258e-001
4.2488661e-001
4.0310448e-001
3.8391998e-001
3.8031551e-001
3.7908033e-001
3.7797481e-001
3.7737116e-001
3.7825936e-001
3.7585592e-001
3.6584508e-001
3.5208800e-001
3.3402756e-001
3.2471141e-001
3.2781011e-001
3.3989909e-001
3.5942590e-001
3.7361369e-001
3.8226649e-001
3.7416661e-001
3.5542312e-001
3.3238962e-001
3.0797213e-001
3.0020386e-001
2.9947001e-001
2.9934400e-001
2.9926968e-001
2.8692052e-001
2.7201772e-001
2.6350310e-001
2.5741112e-001
2.5924024e-001
2.6354501e-001
2.7282771e-001
2.8030556e-001
2.7886596e-001
2.6225293e-001
2.1233857e-001
1.5393963e-001
9.2365161e-002
5.2797772e-002
4.6373900e-002
5.4178752e-002
7.0225060e-002
8.4544793e-002
9.5939003e-002
1.1868645e-001
1.5154083e-001
1.8272328e-001
2.1231024e-001
2.2369218e-001
2.2606555e-001
2.1791102e-001
2.0528600e-001
1.7449237e-001
1.3685943e-001
8.5759379e-002
3.1463984e-002
-1.1367064e-002
-5.0708279e-002
-8.3351448e-002
-1.1284517e-001
-1.3226548e-001
-1.4204143e-001
-1.2796585e-001
-1.0605486e-001
-8.3472051e-002
-6.8629377e-002
-7.2425157e-002
-8.4253199e-002
-1.0097156e-001
-1.2261822e-001
-1.4657134e-001
-1.7423229e-001
-2.0372060e-001
-2.1814042e-001
-2.1989834e-001
-2.2028366e-001
-2.2144358e-001
-2.6069385e-001
-3.2123446e-001
-3.8318801e-001
-4.4502178e-001
-4.6679917e-001
-4.7442114e-001
-4.7280082e-001
-4.7206140e-001
-4.9012414e-001
-5.1637751e-001
-5.5733728e-001
-5.9758502e-001
-6.3333797e-001
-6.6295326e-001
-6.8348116e-001
-7.0338601e-001
-7.2240740e-001
-7.4825454e-001
-7.8024685e-001
-8.0626720e-001
-8.1909323e-001
-7.9647022e-001
-7.4208921e-001
-6.7622423e-001
-6.1204439e-001
-5.7284391e-001
-5.5196881e-001
-5.5310571e-001
-5.6463873e-001
-5.9396225e-001
-6.3301241e-001
-6.5310377e-001
-6.6529632e-001
-6.3541198e-001
-5.8951998e-001
-5.3866434e-001
-4.9098465e-001
-4.8499098e-001
-5.0366443e-001
-5.6786406e-001
-6.4263082e-001
-6.9965297e-001
-7.3195922e-001
-7.1767706e-001
-6.8154001e-001
-6.2629437e-001
-5.6828147e-001
-5.1055682e-001
-4.6608943e-001
-4.4834986e-001
-4.5476845e-001
-4.8781380e-001
-5.2048492e-001
-5.4289293e-001
-5.6011742e-001
-5.7086957e-001
-5.9078676e-001
-6.1368877e-001
-6.3315880e-001
-6.4565927e-001
-6.6591495e-001
-6.8736458e-001
-7.3016489e-001
-7.8318590e-001
-8.1013227e-001
-8.2018304e-001
-7.7802247e-001
-7.0289218e-001
-6.0136080e-001
-4.9626815e-001
-4.3253064e-001
-4.1043210e-001
-4.3918338e-001
-4.8993427e-001
-5.3379714e-001
-5.6302011e-001
-5.6988144e-001
-5.5987376e-001
-5.4109669e-001
-5.1312101e-001
-4.7935298e-001
-4.6229056e-001
-4.5765600e-001
-4.5739046e-001
-4.5704356e-001
-4.1247255e-001
-3.4208840e-001
-2.6212335e-001
-1.8508060e-001
-1.3968214e-001
-1.1680834e-001
-1.0262974e-001
-9.3726166e-002
-6.8935961e-002
-3.1285800e-002
2.7051214e-002
9.2548080e-002
1.2259390e-001
1.2715760e-001
9.8109990e-002
6.2440500e-002
5.8401130e-002
2.3969155e-002
-7.4144319e-002
-1.7880172e-001
-2.5692591e-001
-2.7649823e-001
-2.2961439e-001
-1.5310875e-001
-7.1052894e-002
-5.3030416e-002
-1.0806134e-001
-1.7443123e-001
-2.3404843e-001
-1.7983401e-001
-3.1646345e-002
1.1480682e-001
2.4435918e-001
2.2296681e-001
9.5471367e-002
-8.6046383e-003
-7.4434049e-002
1.4922813e-002
2.5750005e-001
7.0743740e-001
1.2927232e+000
1.8813721e+000
2.4623613e+000
3.0448320e+000
3.7776835e+000
4.8152175e+000
6.4270315e+000
8.7435350e+000
1.1972212e+001
1.6057714e+001
2.0228401e+001
2.4128374e+001
2.7604467e+001
3.0717508e+001
3.4308941e+001
3.8474155e+001
4.3399609e+001
4.8916519e+001
5.3737522e+001
5.7902885e+001
6.1912735e+001
6.5895760e+001
7.0604027e+001
7.5841629e+001
8.0941750e+001
8.5778870e+001
8.9928787e+001
9.3426231e+001
9.6311249e+001
9.8586769e+001
1.0027589e+002
1.0127800e+002
1.0150845e+002
1.0079080e+002
9.9008926e+001
9.6565681e+001
9.3872398e+001
9.0885284e+001
8.7638977e+001
8.3819756e+001
7.9362419e+001
7.4828674e+001
7.0414192e+001
6.6233711e+001
6.2290779e+001
5.8226082e+001
5.4002815e+001
4.9908909e+001
4.5966305e+001
4.2317455e+001
3.8972519e+001
3.6005669e+001
3.3423798e+001
3.1210508e+001
2.9356199e+001
2.7762472e+001
2.6443695e+001
2.5379440e+001
2.4568960e+001
2.3973499e+001
2.3582455e+001
2.3349422e+001
2.3261120e+001
2.3280611e+001
2.3399279e+001
2.3604433e+001
2.3881840e+001
2.4223282e+001
2.4671648e+001
2.5237886e+001
2.5983858e+001
2.6911543e+001
2.7974161e+001
2.9154240e+001
3.0365427e+001
3.1604134e+001
3.3035549e+001
3.4749817e+001
3.7299351e+001
4.0735703e+001
4.4376930e+001
4.7996017e+001
5.0724804e+001
5.2583878e+001
5.4108681e+001
5.5300514e+001
5.6268524e+001
5.6909580e+001
5.7060963e+001
5.6668285e+001
5.5757675e+001
5.4469723e+001
5.3045223e+001
5.1533577e+001
4.9978451e+001
4.8258846e+001
4.6285042e+001
4.4046509e+001
4.1492863e+001
3.9055359e+001
3.6891136e+001
3.4863159e+001
3.2993011e+001
3.0669296e+001
2.7742792e+001
2.4758480e+001
2.1750967e+001
1.9189510e+001
1.7123190e+001
1.5091714e+001
1.3093307e+001
1.1062029e+001
9.0111237e+000
6.9707870e+000
5.0178714e+000
3.2895319e+000
1.8686051e+000
8.4930694e-001
2.4231261e-001
5.0382059e-002
3.7708712e-001
1.1706970e+000
2.1637981e+000
3.1860440e+000
4.0570402e+000
4.6694679e+000
5.1735778e+000
5.6211443e+000
6.0829887e+000
6.5759802e+000
6.9840965e+000
7.2317395e+000
7.3346019e+000
7.2235661e+000
7.0592465e+000
6.8249826e+000
6.5759382e+000
6.3044167e+000
5.9798832e+000
5.5823884e+000
5.0753698e+000
4.4796062e+000
3.9102526e+000
3.4052601e+000
3.0533879e+000
2.8550000e+000
2.7835844e+000
2.8301017e+000
2.9557095e+000
3.1405656e+000
3.3601849e+000
3.5879257e+000
3.8304172e+000
4.0844407e+000
4.3608613e+000
4.6536589e+000
4.9551535e+000
5.2667918e+000
5.5879493e+000
5.9140143e+000
6.2371030e+000
6.5050564e+000
6.6522541e+000
6.6868143e+000
6.5377498e+000
6.2837877e+000
5.8865724e+000
5.4345341e+000
4.9255767e+000
4.4130030e+000
3.9238379e+000
3.4895458e+000
3.1156967e+000
2.7924056e+000
2.4717171e+000
2.0838299e+000
1.6388333e+000
1.1361606e+000
6.6062045e-001
3.1524014e-001
8.1441648e-002
1.4240915e-002
2.5025778e-002
1.0484667e-001
2.1335751e-001
3.7244081e-001
5.5826300e-001
7.9366225e-001
1.0226743e+000
1.2270886e+000
1.4070406e+000
1.5217552e+000
1.6445880e+000
1.7826514e+000
1.9522464e+000
2.1795237e+000
2.4330342e+000
2.7294257e+000
3.0437772e+000
3.3762500e+000
3.7003961e+000
3.9961624e+000
4.2396274e+000
4.4196277e+000
4.5344357e+000
4.5983434e+000
4.6197267e+000
4.6198425e+000
4.6037588e+000
4.5818429e+000
4.5513587e+000
4.5174747e+000
4.4764051e+000
4.4387641e+000
4.4109130e+000
4.3903046e+000
4.3833351e+000
4.3780417e+000
4.3758359e+000
4.3800831e+000
4.4030890e+000
4.4466367e+000
4.5284300e+000
4.6255102e+000
4.7389073e+000
4.8428359e+000
4.9315166e+000
5.0138640e+000
5.0942407e+000
5.1903973e+000
5.3016415e+000
5.4250112e+000
5.5535736e+000
5.6747203e+000
5.7858000e+000
5.8707161e+000
5.9369946e+000
5.9707446e+000
5.9823866e+000
5.9514799e+000
5.8860927e+000
5.7356200e+000
5.5352898e+000
5.2013888e+000
4.8219728e+000
4.3220000e+000
3.7983661e+000
3.2206137e+000
2.6526620e+000
2.1097970e+000
1.6109649e+000
1.1911639e+000
8.2077086e-001
5.2182674e-001
2.5828385e-001
3.8361825e-002
-1.5288505e-001
-3.1408486e-001
-4.5466450e-001
-5.7684147e-001
-6.8476510e-001
-7.7862906e-001
-8.4740120e-001
-8.9254534e-001
-8.8594598e-001
-8.4634215e-001
-7.4093139e-001
-6.0317945e-001
-3.9294136e-001
-1.5383619e-001
1.6295493e-001
4.8683420e-001
8.1740981e-001
1.1154628e+000
1.3094536e+000
1.4578232e+000
1.4937420e+000
1.5041965e+000
1.4622896e+000
1.3951585e+000
1.2837951e+000
1.1403433e+000
9.5641559e-001
7.7170336e-001
5.8887213e-001
4.2143616e-001
2.7010363e-001
1.3925637e-001
3.5624832e-002
5.5181370e-003
3.3775538e-002
1.6795798e-001
3.5594651e-001
6.1452353e-001
8.9166188e-001
1.1662043e+000
1.4307879e+000
1.6451321e+000
1.8491488e+000
2.0217028e+000
2.1891234e+000
2.3368251e+000
2.4771607e+000
2.5941899e+000
2.7082350e+000
2.8133330e+000
2.9043760e+000
2.9661341e+000
3.0079172e+000
3.0210428e+000
3.0434520e+000
3.0805180e+000
3.1430557e+000
3.2334423e+000
3.3489215e+000
3.4886031e+000
3.6628203e+000
3.8560908e+000
4.0384007e+000
4.2007012e+000
4.2553668e+000
4.2582197e+000
4.1426387e+000
3.9976950e+000
3.8306329e+000
3.6745119e+000
3.6207576e+000
3.5920143e+000
3.6919756e+000
3.7937143e+000
3.9012296e+000
3.9851253e+000
3.9933190e+000
3.9799862e+000
3.9145572e+000
3.8392205e+000
3.7447262e+000
3.6478114e+000
3.5480309e+000
3.4591401e+000
3.3832407e+000
3.3133440e+000
3.2480788e+000
3.1731157e+000
3.0914998e+000
3.0074737e+000
2.9199169e+000
2.8105397e+000
2.6886258e+000
2.5239885e+000
2.3450577e+000
2.1343861e+000
1.9150019e+000
1.6559840e+000
1.3930385e+000
1.1231283e+000
8.6143208e-001
6.5656400e-001
4.6777621e-001
3.5053214e-001
2.5397199e-001
2.2158109e-001
2.0476946e-001
2.2279698e-001
2.3433237e-001
2.3392251e-001
2.1106605e-001
1.5751573e-001
8.2135528e-002
-1.6162656e-002
-1.1806944e-001
-2.1977663e-001
-2.6505768e-001
-2.7031958e-001
-1.7252144e-001
-2.7695164e-002
1.2629247e-001
2.7580920e-001
2.7648944e-001
2.4069002e-001
1.0525976e-001
-3.8565561e-002
-9.3562692e-002
-1.3553217e-001
-4.3505676e-002
2.5481805e-003
7.9546556e-002
2.3995546e-001
4.5001668e-001
6.4427602e-001
7.9208469e-001
9.1755724e-001
9.9543118e-001
1.0702024e+000
1.1392658e+000
1.1645460e+000
1.1355206e+000
1.0332735e+000
8.6279523e-001
6.9218433e-001
5.2176178e-001
3.9245760e-001
2.8600532e-001
2.1476692e-001
1.5858650e-001
1.1618458e-001
7.8340001e-002
-5.5591464e-003
-9.6437015e-002
-1.5726000e-001
