Image.
>Pix99999.
  .
5555
5555
2300
900
5555
2
1
0
701
5555
4.6376999e-002
4.7342617e-002
4.8307240e-002
4.9271863e-002
5.0236478e-002
5.1201101e-002
5.2166712e-002
5.3131342e-002
5.4095957e-002
5.5060580e-002
5.6025203e-002
5.6990806e-002
5.7955440e-002
5.8920059e-002
5.9884682e-002
6.0849298e-002
6.1813921e-002
6.2779516e-002
6.3744158e-002
6.4708784e-002
6.5673403e-002
6.6638015e-002
6.7603610e-002
6.8568259e-002
6.9532879e-002
7.0497498e-002
3.7013017e-002
1.3777714e-003
-3.4782719e-002
-4.6004634e-002
-5.3532831e-002
-3.1641155e-002
-6.3354485e-003
4.8218466e-002
1.0476794e-001
1.6610651e-001
2.2337240e-001
2.6096594e-001
2.9381540e-001
3.1543890e-001
3.2589716e-001
3.1333649e-001
2.8344581e-001
2.2748137e-001
1.9146800e-001
1.8233764e-001
2.1655002e-001
2.9089463e-001
3.5583046e-001
4.1178921e-001
4.3499357e-001
4.3966010e-001
4.2924577e-001
4.1276956e-001
3.6988759e-001
3.1856021e-001
2.8591400e-001
2.5768244e-001
3.0532008e-001
3.6445236e-001
4.3976116e-001
5.1083422e-001
5.1717228e-001
5.0754398e-001
4.4154537e-001
3.6849737e-001
2.8977630e-001
2.1461326e-001
1.4998315e-001
9.8218367e-002
6.8802595e-002
6.5350272e-002
9.6165493e-002
1.3743727e-001
1.8646380e-001
2.1811500e-001
2.3368868e-001
2.3713130e-001
2.3330034e-001
2.2932127e-001
2.2566487e-001
1.9572371e-001
1.5467405e-001
7.8588441e-002
-8.3596408e-003
-6.1764199e-002
-1.0715229e-001
-7.7778406e-002
-3.5402950e-002
2.9215321e-002
9.7585656e-002
1.7037980e-001
2.4510893e-001
3.2550341e-001
3.9617413e-001
4.3500993e-001
4.5655337e-001
4.5035008e-001
4.4220340e-001
4.3770146e-001
4.3344572e-001
4.2883381e-001
4.1429493e-001
3.8952544e-001
3.5990429e-001
3.2743651e-001
2.9770476e-001
2.7002594e-001
2.3702496e-001
2.0110554e-001
1.6301686e-001
1.2417953e-001
9.6196115e-002
7.1762986e-002
7.1848817e-002
7.8665540e-002
1.2253255e-001
1.7357732e-001
2.2350019e-001
2.6859260e-001
2.8824857e-001
3.0277839e-001
3.1717202e-001
3.2952198e-001
3.3693564e-001
3.3293787e-001
3.0876160e-001
2.8605980e-001
2.7130651e-001
2.7573201e-001
3.0118743e-001
3.2644120e-001
3.4778845e-001
3.4715399e-001
3.2991856e-001
2.9263395e-001
2.4437846e-001
1.9540477e-001
1.4698368e-001
1.2529835e-001
1.1473800e-001
1.4635806e-001
1.9166191e-001
2.4289457e-001
2.9109058e-001
2.6921842e-001
2.2192091e-001
1.2184097e-001
1.9082816e-002
-3.6444295e-002
-6.0485501e-002
-2.4939787e-002
2.4613012e-002
7.1676992e-002
1.0450702e-001
1.1264400e-001
1.0676742e-001
8.9568444e-002
7.9578571e-002
8.1007831e-002
9.8463260e-002
1.2867221e-001
1.5265438e-001
1.7005073e-001
1.7258188e-001
1.6640671e-001
1.4477046e-001
1.1548303e-001
8.3252721e-002
5.0082605e-002
4.4585541e-002
4.9138494e-002
5.7947692e-002
6.5033741e-002
4.6619862e-002
2.0918749e-002
-9.8086288e-004
-1.5803762e-002
-1.2219336e-002
-4.3254597e-003
-5.6078698e-004
-6.2332111e-003
-2.7512252e-002
-7.1377695e-002
-1.4329556e-001
-2.3033187e-001
-3.2639715e-001
-3.8584170e-001
-4.0369710e-001
-3.5644469e-001
-2.6045144e-001
-1.5745959e-001
-5.7222508e-002
-1.1686400e-002
-7.9562562e-004
-5.5373237e-003
-1.6016876e-002
-5.4158084e-004
2.7095156e-002
3.1774320e-002
2.3729287e-002
-2.9192755e-002
-9.9499762e-002
-1.7048980e-001
-2.3051572e-001
-2.4397458e-001
-2.3048589e-001
-1.8801695e-001
-1.3985692e-001
-1.0209958e-001
-8.4023803e-002
-9.4067380e-002
-1.2593800e-001
-1.7576388e-001
-2.1821220e-001
-2.4633336e-001
-2.5214058e-001
-2.4042210e-001
-2.2020371e-001
-1.9575411e-001
-1.7718942e-001
-1.6315004e-001
-1.7234181e-001
-1.9579971e-001
-2.5015801e-001
-3.2046786e-001
-3.8987494e-001
-4.5636389e-001
-4.9521515e-001
-5.2230453e-001
-5.5583030e-001
-5.9456980e-001
-6.4016902e-001
-6.8150467e-001
-6.9797778e-001
-6.8782336e-001
-6.3846517e-001
-5.7415843e-001
-5.1216078e-001
-4.7450083e-001
-4.7543630e-001
-5.0711852e-001
-5.6196666e-001
-6.1246198e-001
-6.4862359e-001
-6.7142397e-001
-6.8492860e-001
-7.1384561e-001
-7.5835162e-001
-7.9342663e-001
-8.1790429e-001
-7.9505521e-001
-7.4092597e-001
-6.4670318e-001
-5.3078091e-001
-4.1555265e-001
-3.0557528e-001
-2.3950545e-001
-2.0544493e-001
-2.1856000e-001
-2.6366514e-001
-3.3770654e-001
-4.0675476e-001
-4.1836756e-001
-3.7151074e-001
-2.5235742e-001
-1.0811332e-001
2.2939567e-002
2.7169839e-002
-6.4686947e-002
-1.9146544e-001
-3.4828776e-001
-5.2426219e-001
-7.0966101e-001
-8.7454915e-001
-1.0151292e+000
-1.0970743e+000
-1.1312280e+000
-1.1191354e+000
-1.0753706e+000
-9.7800601e-001
-8.4182090e-001
-6.5616214e-001
-4.4159457e-001
-2.8476062e-001
-1.7418543e-001
-1.1405900e-001
-7.7246569e-002
2.2607662e-002
2.5327486e-001
7.8133130e-001
1.5399680e+000
2.4765337e+000
3.4935033e+000
4.4814157e+000
5.5642834e+000
6.8583713e+000
8.6575813e+000
1.1121650e+001
1.4466721e+001
1.8672571e+001
2.2859501e+001
2.6641247e+001
2.9876356e+001
3.2640972e+001
3.5845177e+001
3.9610073e+001
4.4282940e+001
4.9694481e+001
5.4636597e+001
5.9103500e+001
6.3459347e+001
6.7795769e+001
7.2684227e+001
7.7934151e+001
8.2832153e+001
8.7300766e+001
9.0998741e+001
9.3967819e+001
9.6245468e+001
9.7836517e+001
9.8761078e+001
9.9037460e+001
9.8731468e+001
9.7977852e+001
9.6947426e+001
9.5767990e+001
9.4559311e+001
9.3052155e+001
9.1133080e+001
8.8403389e+001
8.4801338e+001
8.0748970e+001
7.6455788e+001
7.2082336e+001
6.7680977e+001
6.2928921e+001
5.7825546e+001
5.2791145e+001
4.7871937e+001
4.3362717e+001
3.9287880e+001
3.5776234e+001
3.2825279e+001
3.0327623e+001
2.8258699e+001
2.6464880e+001
2.4969496e+001
2.3770132e+001
2.2874872e+001
2.2249500e+001
2.1892859e+001
2.1762526e+001
2.1851690e+001
2.2123955e+001
2.2570158e+001
2.3165869e+001
2.3909149e+001
2.4786440e+001
2.5926386e+001
2.7369713e+001
2.9186012e+001
3.1380121e+001
3.3729130e+001
3.6178238e+001
3.8509464e+001
4.0690830e+001
4.2716583e+001
4.4613319e+001
4.6847080e+001
4.9412800e+001
5.1920849e+001
5.4194286e+001
5.5666512e+001
5.6332966e+001
5.6576855e+001
5.6310440e+001
5.5512512e+001
5.4167320e+001
5.2375381e+001
5.0415516e+001
4.8687302e+001
4.7110493e+001
4.5596054e+001
4.4064327e+001
4.2451653e+001
4.0707825e+001
3.8798153e+001
3.6685738e+001
3.4336273e+001
3.2032902e+001
2.9873577e+001
2.7811840e+001
2.5858101e+001
2.3527885e+001
2.0699749e+001
1.7867931e+001
1.5091256e+001
1.2769506e+001
1.0962268e+001
9.2301569e+000
7.5857172e+000
5.9868412e+000
4.4736671e+000
3.1045337e+000
1.9454600e+000
1.0526036e+000
4.4477433e-001
8.1466064e-002
-5.2641273e-002
2.5688753e-002
4.5957619e-001
1.2957141e+000
2.3766630e+000
3.6289415e+000
4.8301458e+000
5.8383932e+000
6.7290478e+000
7.5104427e+000
8.2940054e+000
9.1127596e+000
9.8801861e+000
1.0551717e+001
1.0981449e+001
1.1045588e+001
1.0924214e+001
1.0544254e+001
1.0075335e+001
9.4779415e+000
8.7668781e+000
7.9119916e+000
6.9591374e+000
5.9595790e+000
5.1043191e+000
4.4288077e+000
3.9345913e+000
3.5953410e+000
3.3264139e+000
3.1516399e+000
3.0964525e+000
3.1994629e+000
3.5186870e+000
3.9666629e+000
4.5054002e+000
5.0573120e+000
5.5800457e+000
6.0372167e+000
6.3792701e+000
6.5980320e+000
6.6194119e+000
6.5461931e+000
6.3276167e+000
6.1131749e+000
5.9023118e+000
5.6898618e+000
5.4656549e+000
5.1927423e+000
4.8496079e+000
4.4653230e+000
4.0266728e+000
3.5506027e+000
3.0362964e+000
2.5070140e+000
1.9737601e+000
1.4662268e+000
9.7994274e-001
5.0720048e-001
7.6919392e-002
-2.6468414e-001
-4.8669410e-001
-5.1630342e-001
-4.1857541e-001
-1.8387772e-001
1.1976521e-001
4.9424958e-001
8.8109040e-001
1.2688880e+000
1.6349747e+000
1.9531586e+000
2.2358787e+000
2.4442744e+000
2.5966930e+000
2.6377664e+000
2.6122470e+000
2.4805424e+000
2.3217595e+000
2.1362171e+000
1.9791902e+000
1.8667303e+000
1.7973901e+000
1.7785000e+000
1.7904694e+000
1.8275720e+000
1.8695524e+000
1.9066094e+000
1.9229935e+000
1.9187022e+000
1.8870879e+000
1.8464557e+000
1.8120401e+000
1.8097857e+000
1.8889169e+000
2.0325732e+000
2.2985539e+000
2.6157360e+000
3.0211992e+000
3.4333758e+000
3.8445816e+000
4.2156248e+000
4.4921155e+000
4.7079186e+000
4.8081222e+000
4.8811255e+000
4.9208703e+000
5.0065475e+000
5.1716728e+000
5.4245787e+000
5.7902470e+000
6.2222919e+000
6.7256117e+000
7.2671828e+000
7.8525167e+000
8.4914598e+000
9.1791735e+000
9.9219265e+000
1.0687250e+001
1.1437434e+001
1.2142826e+001
1.2716440e+001
1.3176498e+001
1.3380129e+001
1.3432848e+001
1.3148680e+001
1.2731649e+001
1.1992483e+001
1.1178343e+001
1.0174934e+001
9.1628122e+000
8.1393042e+000
7.1793461e+000
6.3602886e+000
5.6645107e+000
5.1883168e+000
4.8471375e+000
4.6975045e+000
4.6228065e+000
4.6172361e+000
4.5577912e+000
4.4197273e+000
4.1422677e+000
3.7470071e+000
3.2726569e+000
2.7583990e+000
2.2643609e+000
1.8000957e+000
1.4225621e+000
1.1081110e+000
9.3584234e-001
8.2499200e-001
8.3329111e-001
8.6795402e-001
9.4364011e-001
1.0232952e+000
1.1089510e+000
1.1953554e+000
1.2833943e+000
1.3700843e+000
1.4505770e+000
1.5087851e+000
1.5162033e+000
1.4706172e+000
1.3368381e+000
1.1699628e+000
9.6289140e-001
7.6594245e-001
5.8214998e-001
4.1376460e-001
2.6239681e-001
1.3472980e-001
2.9765585e-002
-3.8720600e-002
-8.1006259e-002
-4.2452667e-002
3.9264709e-002
1.8543051e-001
3.5608751e-001
5.6320029e-001
7.7438205e-001
9.7298998e-001
1.1586518e+000
1.2809743e+000
1.3885258e+000
1.4385662e+000
1.4786452e+000
1.4889014e+000
1.5134051e+000
1.5761366e+000
1.6739933e+000
1.8372983e+000
1.9883178e+000
2.1185143e+000
2.2329204e+000
2.3402421e+000
2.5336289e+000
2.8215868e+000
3.1933715e+000
3.6174550e+000
3.9616516e+000
4.2327194e+000
4.3184900e+000
4.3105574e+000
4.2249742e+000
4.1182442e+000
4.0416999e+000
3.9685936e+000
3.8722057e+000
3.7716079e+000
3.6628418e+000
3.5650599e+000
3.5409677e+000
3.5335944e+000
3.5977051e+000
3.6553228e+000
3.6872981e+000
3.6627047e+000
3.5011251e+000
3.3129246e+000
3.0822580e+000
2.9151521e+000
2.8450365e+000
2.8363202e+000
2.8961089e+000
2.9526069e+000
2.9993823e+000
2.9776416e+000
2.8983843e+000
2.7073886e+000
2.4531331e+000
2.1452601e+000
1.8245902e+000
1.5882658e+000
1.3807651e+000
1.2404031e+000
1.1018416e+000
8.5384721e-001
5.9001166e-001
2.4721864e-001
-7.8960434e-002
-2.8623173e-001
-4.6157101e-001
-4.9693286e-001
-5.2744764e-001
-5.4442585e-001
-5.8283424e-001
-6.6973138e-001
-7.5149322e-001
-8.2221073e-001
-8.5984254e-001
-8.5169220e-001
-8.1530356e-001
-7.4871254e-001
-6.6164470e-001
-5.5948287e-001
-4.7838771e-001
-4.1299555e-001
-4.0495101e-001
-4.2239437e-001
-4.3286175e-001
-4.3724722e-001
-3.5926363e-001
-2.6361343e-001
-1.6511965e-001
-6.9771484e-002
-5.8031805e-002
-4.8057742e-002
-1.5838394e-002
4.0896013e-003
1.2357444e-001
2.5585526e-001
4.4237939e-001
6.2364888e-001
7.8887659e-001
9.2586052e-001
1.0027312e+000
1.0779641e+000
1.1513093e+000
1.2550180e+000
1.3953341e+000
1.5151314e+000
1.6150742e+000
1.6573243e+000
1.6587712e+000
1.6408811e+000
1.6135420e+000
1.6378806e+000
1.6832515e+000
1.8723993e+000
2.0997095e+000
2.3815317e+000
2.6718333e+000
2.6952000e+000
