##TITLE=Methyl Ethyl Ketone
##JCAMP-DX=4.24
##DATA TYPE=INFRARED SPECTRUM
##XUNITS=cm-1
##YUNITS=Absorbance
##FIRSTX=900
##LASTX=2300
##XYDATA=(X++(Y..Y))
2296 0.074441999
2294 0.075990789
2292 0.077538572
2290 0.079087354
2288 0.080636136
2286 0.082184918
2284 0.083733708
2282 0.08528249
2280 0.086831272
2278 0.088380061
2276 0.08992786
2274 0.091476627
2272 0.093025409
2270 0.094574198
2268 0.09612298
2266 0.097671762
2264 0.099220552
2262 0.10077226
2260 0.10232014
2258 0.10386793
2256 0.10541572
2254 0.1069635
2252 0.10851129
2250 0.11005907
2248 0.11160686
2246 0.11315464
2244 0.034860387
2242 0.0012280372
2240 -0.045172799
2238 -0.097274557
2236 -0.15015921
2234 -0.23387598
2232 -0.31713244
2230 -0.34008291
2228 -0.35393137
2226 -0.31839499
2224 -0.29350612
2222 -0.32884812
2220 -0.38706541
2218 -0.50518125
2216 -0.60490686
2214 -0.65709364
2212 -0.66013098
2210 -0.58754152
2208 -0.49857834
2206 -0.39499813
2204 -0.32054365
2202 -0.27503279
2200 -0.27501535
2198 -0.30756611
2196 -0.34132072
2194 -0.37452969
2192 -0.35841718
2190 -0.32070723
2188 -0.28729495
2186 -0.25573421
2184 -0.27948919
2182 -0.31593168
2180 -0.33967826
2178 -0.36082578
2176 -0.33265713
2174 -0.3028203
2172 -0.30568123
2170 -0.31516439
2168 -0.34489712
2166 -0.35805979
2164 -0.30364406
2162 -0.24127077
2160 -0.17572755
2158 -0.13830185
2156 -0.154791
2154 -0.17569926
2152 -0.19494542
2150 -0.22121969
2148 -0.25561827
2146 -0.31229645
2144 -0.38794965
2142 -0.43736559
2140 -0.46719447
2138 -0.47652772
2136 -0.47576115
2134 -0.48341244
2132 -0.49495482
2130 -0.51191604
2128 -0.53046602
2126 -0.59858525
2124 -0.67824739
2122 -0.75812584
2120 -0.83311558
2118 -0.81709599
2116 -0.78638572
2114 -0.74283242
2112 -0.70859587
2110 -0.72369933
2108 -0.7617228
2106 -0.84721017
2104 -0.96734381
2102 -1.1485938
2100 -1.336422
2098 -1.5199903
2096 -1.6368428
2094 -1.6671462
2092 -1.6449257
2090 -1.5814264
2088 -1.552128
2086 -1.555685
2084 -1.5804902
2082 -1.6162984
2080 -1.6126971
2078 -1.5877821
2076 -1.5588044
2074 -1.5292096
2072 -1.515512
2070 -1.5070914
2068 -1.4936614
2066 -1.480185
2064 -1.5168778
2062 -1.5639108
2060 -1.6133714
2058 -1.646451
2056 -1.5864571
2054 -1.5025275
2052 -1.3999439
2050 -1.3108411
2048 -1.267
2046 -1.2381285
2044 -1.2214739
2042 -1.2138249
2040 -1.2153965
2038 -1.2353324
2036 -1.2743071
2034 -1.3082926
2032 -1.33418
2030 -1.32827
2028 -1.2990363
2026 -1.2504864
2024 -1.1924599
2022 -1.1381924
2020 -1.0870149
2018 -1.0715503
2016 -1.0706
2014 -1.1345857
2012 -1.219334
2010 -1.3563958
2008 -1.5060841
2006 -1.6456008
2004 -1.7730869
2002 -1.8360931
2000 -1.8653777
1998 -1.8227417
1996 -1.7500072
1994 -1.6430366
1992 -1.5507742
1990 -1.5081882
1988 -1.5008759
1986 -1.5306749
1984 -1.5446401
1982 -1.5242473
1980 -1.5034208
1978 -1.4923989
1976 -1.4883943
1974 -1.489725
1972 -1.3892329
1970 -1.2106647
1968 -1.0322666
1966 -0.86300176
1964 -0.93714726
1962 -1.1381131
1960 -1.4166319
1958 -1.7216125
1956 -1.8692671
1954 -1.9560533
1952 -1.9494212
1950 -1.9122926
1948 -1.8748214
1946 -1.8478
1944 -1.8746874
1942 -1.928586
1940 -2.0085738
1938 -2.0815859
1936 -2.1129658
1934 -2.1098666
1932 -2.0661781
1930 -1.9847376
1928 -1.8651714
1926 -1.6628157
1924 -1.3683832
1922 -0.99902165
1920 -0.57280701
1918 -0.29060531
1916 -0.14726886
1914 -0.19601125
1912 -0.36795032
1910 -0.58023959
1908 -0.80440938
1906 -1.0723771
1904 -1.362704
1902 -1.5620708
1900 -1.7167189
1898 -1.6028585
1896 -1.3780285
1894 -1.0849142
1892 -0.79880577
1890 -0.734007
1888 -0.80118859
1886 -1.0654348
1884 -1.3944628
1882 -1.6955584
1880 -1.9433571
1878 -2.0935566
1876 -2.14765
1874 -2.092819
1872 -1.9095794
1870 -1.5907167
1868 -1.2840005
1866 -1.0379429
1864 -1.0287681
1862 -1.24457
1860 -1.5770168
1858 -1.964713
1856 -2.2592285
1854 -2.4749258
1852 -2.467
1850 -2.3221502
1848 -2.0171759
1846 -1.6336929
1844 -1.4962791
1842 -1.5005006
1840 -1.7796669
1838 -2.1668091
1836 -2.39447
1834 -2.4960189
1832 -2.3422909
1830 -2.0508885
1828 -1.6692345
1826 -1.3337642
1824 -1.213128
1822 -1.2846109
1820 -1.57714
1818 -1.9078522
1816 -2.1632485
1814 -2.2716038
1812 -2.2110412
1810 -2.0724144
1808 -1.9056441
1806 -1.74482
1804 -1.5983894
1802 -1.4332321
1800 -1.2504971
1798 -1.0452539
1796 -0.82606858
1794 -0.63010758
1792 -0.44843921
1790 -0.39058068
1788 -0.40529642
1786 -0.46701756
1784 -0.54437584
1782 -0.54622298
1780 -0.4825618
1778 -0.27699432
1776 0.034838572
1774 0.47631961
1772 0.90578282
1770 1.1076459
1768 1.08166
1766 0.77849865
1764 0.41390002
1762 0.16869701
1760 0.038954843
1758 -0.1811378
1756 -0.37656188
1754 -0.42532751
1752 -0.10810978
1750 0.58943987
1748 1.4366832
1746 2.3221679
1744 2.7247531
1742 2.6658506
1740 2.4117801
1738 2.0707538
1736 2.0220199
1734 2.2029355
1732 2.192194
1730 2.0160272
1728 1.4062926
1726 0.55067724
1724 -0.040099025
1722 -0.32595509
1720 0.13384211
1718 1.2530711
1716 2.947897
1714 4.7249203
1712 5.9081593
1710 6.6672807
1708 7.1664743
1706 7.8594933
1704 9.1505346
1702 11.245087
1700 14.209054
1698 17.704908
1696 21.476286
1694 24.840879
1692 27.572721
1690 30.098932
1688 32.595497
1686 35.904366
1684 40.040783
1682 44.707302
1680 49.729561
1678 53.884487
1676 57.272213
1674 60.740234
1672 64.358116
1670 68.662743
1668 73.450661
1666 78.045845
1664 82.427475
1662 86.460876
1660 90.185677
1658 93.64814
1656 96.856026
1654 99.817291
1652 102.35201
1650 104.28249
1648 104.92257
1646 103.76929
1644 101.34332
1642 98.188446
1640 94.696465
1638 91.13459
1636 87.064369
1634 82.369019
1632 77.503395
1630 72.651115
1628 68.188354
1626 64.141975
1624 60.052158
1622 55.851112
1620 51.647518
1618 47.456577
1616 43.375057
1614 39.433727
1612 35.818783
1610 32.575439
1608 29.821651
1606 27.535736
1604 25.571093
1602 23.928324
1600 22.553074
1598 21.459082
1596 20.620501
1594 20.010265
1592 19.561537
1590 19.240696
1588 18.99966
1586 18.9039
1584 18.985205
1582 19.335911
1580 19.984009
1578 21.025053
1576 22.477257
1574 24.162306
1572 26.017567
1570 27.630522
1568 28.91544
1566 29.956556
1564 30.769871
1562 31.882931
1560 33.427788
1558 36.083672
1556 39.828484
1554 43.504158
1552 46.889412
1550 49.220684
1548 50.647449
1546 52.007572
1544 53.308029
1542 54.59317
1540 55.461761
1538 55.379719
1536 54.411884
1534 52.794079
1532 50.974522
1530 49.401302
1528 48.071087
1526 46.971649
1524 45.866676
1522 44.618717
1520 42.881096
1518 40.487736
1516 37.974514
1514 35.499527
1512 33.30584
1510 31.464678
1508 29.154865
1506 26.186115
1504 22.986198
1502 19.605795
1500 16.857121
1498 14.84162
1496 13.021143
1494 11.399873
1492 9.8139076
1490 8.2468653
1488 6.6485105
1486 5.0117483
1484 3.3356998
1482 1.7992368
1480 0.65557569
1478 0.019686013
1476 0.016052276
1474 0.59678549
1472 1.6216274
1470 2.6576819
1468 3.4040089
1466 3.9281819
1464 4.2178345
1462 4.5653162
1460 5.1107845
1458 5.7716289
1456 6.5639801
1454 7.0844522
1452 7.1676693
1450 6.9788103
1448 6.4189496
1446 5.804625
1444 5.1283841
1442 4.5291824
1440 4.054131
1438 3.755604
1436 3.6360998
1434 3.5164247
1432 3.3457794
1430 3.0229044
1428 2.6204541
1426 2.3269801
1424 2.2207201
1422 2.3916504
1420 2.7636869
1418 3.2300215
1416 3.6533599
1414 3.8823261
1412 3.9987381
1410 4.0255899
1408 4.0774779
1406 4.2294369
1404 4.4733982
1402 4.8583388
1400 5.2992244
1398 5.8093944
1396 6.2271714
1394 6.4624348
1392 6.5065413
1390 6.2460651
1388 5.8995128
1386 5.4347649
1384 4.9769502
1382 4.5428014
1380 4.1781635
1378 3.9012024
1376 3.6790485
1374 3.4938655
1372 3.282258
1370 3.0491555
1368 2.8136816
1366 2.5837948
1364 2.3578508
1362 2.0998867
1360 1.7594229
1358 1.3684859
1356 0.95068759
1354 0.56758624
1352 0.27891755
1350 0.068416074
1348 -0.039453141
1346 -0.087393776
1344 0.029229678
1342 0.24287826
1340 0.62392592
1338 0.95104265
1336 1.14726
1334 1.1688802
1332 0.90464675
1330 0.64609861
1328 0.42846206
1326 0.37101629
1324 0.54716325
1322 0.86766523
1320 1.3459189
1318 1.8351225
1316 2.2933002
1314 2.6141107
1312 2.7885125
1310 2.8296688
1308 2.7697825
1306 2.6539893
1304 2.5174401
1302 2.4055271
1300 2.3320441
1298 2.3427658
1296 2.3813858
1294 2.4266772
1292 2.4590626
1290 2.4548295
1288 2.4608281
1286 2.50914
1284 2.5707755
1282 2.6613765
1280 2.7460859
1278 2.8210471
1276 2.9146371
1274 3.0423691
1272 3.1842356
1270 3.3426042
1268 3.4837656
1266 3.6073029
1264 3.7478566
1262 3.924505
1260 4.1639061
1258 4.4676566
1256 4.7951226
1254 5.1388593
1252 5.4754009
1250 5.8206224
1248 6.21139
1246 6.637825
1244 7.11272
1242 7.5799341
1240 7.9624572
1238 8.2680531
1236 8.3970299
1234 8.4696865
1232 8.4630919
1230 8.4517279
1228 8.4481926
1226 8.4149094
1224 8.2904301
1222 8.0927114
1220 7.7208881
1218 7.3056908
1216 6.8103657
1214 6.3290915
1212 5.8701229
1210 5.4137864
1208 4.9567447
1206 4.4788752
1204 3.9760981
1202 3.4592571
1200 2.9307959
1198 2.4057088
1196 1.8982786
1194 1.4583889
1192 1.07779
1190 0.78579402
1188 0.54402769
1186 0.34975693
1184 0.18781543
1182 0.094985083
1180 0.041793194
1178 0.085215211
1176 0.14553
1174 0.21983279
1172 0.27129942
1170 0.23240241
1168 0.18469246
1166 0.11603403
1164 0.090562619
1162 0.1721095
1160 0.28140998
1158 0.43730825
1156 0.5484364
1154 0.58207411
1152 0.57143104
1150 0.50207001
1148 0.41994059
1146 0.32345214
1144 0.21980171
1142 0.11661819
1140 0.04663714
1138 0.011285149
1136 0.044501424
1134 0.13198616
1132 0.33208749
1130 0.6029495
1128 1.018649
1126 1.4836578
1124 1.9993651
1122 2.4961681
1120 2.846004
1118 3.1495032
1116 3.2784615
1114 3.4132271
1112 3.58676
1110 3.7951932
1108 4.1125484
1106 4.4291253
1104 4.7386622
1102 5.0011559
1100 5.170033
1098 5.3083887
1096 5.4103713
1094 5.5872459
1092 5.86621
1090 6.2304139
1088 6.6720085
1086 7.0810227
1084 7.456182
1082 7.7669835
1080 8.0247631
1078 8.1769629
1076 8.2548618
1074 8.1406345
1072 7.9573097
1070 7.7247367
1068 7.5113525
1066 7.5140281
1064 7.5764241
1062 7.8724833
1060 8.1671638
1058 8.3766489
1056 8.5285196
1054 8.4304466
1052 8.3385544
1050 8.2736988
1048 8.3014364
1046 8.5502644
1044 8.8106327
1042 9.0779438
1040 9.1966105
1038 9.0891466
1036 8.8461905
1034 8.4493055
1032 8.0387697
1030 7.613821
1028 7.1669831
1026 6.7063074
1024 6.2586432
1022 5.830564
1020 5.5355973
1018 5.2993574
1016 5.1415567
1014 4.996417
1012 4.7594452
1010 4.4889927
1008 4.015296
1006 3.5185692
1004 2.9510622
1002 2.410779
1000 2.0614715
998 1.7461547
996 1.5784714
994 1.390139
992 1.1364564
990 0.85449421
988 0.51073658
986 0.20813788
984 -0.019136295
982 -0.17025802
980 -0.21722999
978 -0.21026757
976 -0.14734384
974 -0.079000667
972 -0.0057424605
970 0.077513166
968 0.17055093
966 0.33934799
964 0.54287785
962 0.75953984
960 0.97379798
958 1.0433271
956 1.0738821
954 0.91637957
952 0.73369879
950 0.48830849
948 0.24809763
946 0.11755253
944 0.0030333085
942 -0.0004503401
940 -0.011698909
938 0.054102018
936 0.19161916
934 0.54095197
932 0.97785801
930 1.5986159
928 2.1176622
926 2.4694328
924 2.595854
922 2.4483335
920 2.2777033
918 2.0872245
916 1.9944586
914 1.9701852
912 1.9144646
910 1.8423511
908 1.8577098
906 1.9083378
904 2.3615932
902 2.9202979
900 3.6421394
898 4.3893051
896 4.7424002
