Image.
>Pix99999.
  .
5555
5555
2300
900
5555
2
1
0
701
5555
1.3867000e-001
1.4155588e-001
1.4444174e-001
1.4732762e-001
1.5021349e-001
1.5308942e-001
1.5597524e-001
1.5886110e-001
1.6174696e-001
1.6463284e-001
1.6751871e-001
1.7040458e-001
1.7329045e-001
1.7617632e-001
1.7905241e-001
1.8193807e-001
1.8482395e-001
1.8770981e-001
1.9059569e-001
1.9348156e-001
1.9636743e-001
1.9925331e-001
2.0213918e-001
2.0501538e-001
2.0790091e-001
2.1078677e-001
3.6157425e-002
1.1346558e-003
-4.1083200e-003
6.7035824e-002
1.4927563e-001
1.3038939e-001
1.0720103e-001
1.5182950e-001
2.0566694e-001
3.0676749e-001
3.9221811e-001
3.9503562e-001
3.8967291e-001
3.7279779e-001
3.5561228e-001
3.3916232e-001
2.9496941e-001
2.0543908e-001
1.2014034e-001
4.3588400e-002
2.3069138e-002
5.6049138e-002
1.3313551e-001
2.4058591e-001
3.3724502e-001
4.2649445e-001
4.5974168e-001
4.6863729e-001
4.3080837e-001
3.7832201e-001
2.9335320e-001
2.0112331e-001
9.8409094e-002
-4.8930021e-003
-3.2585997e-002
-4.5775715e-002
2.6778428e-002
1.0407325e-001
1.6182640e-001
1.9721137e-001
1.5788634e-001
9.7769618e-002
3.4890710e-003
-9.4278939e-002
-1.9201300e-001
-2.8655323e-001
-3.7647709e-001
-4.7192937e-001
-5.7417089e-001
-6.6761464e-001
-7.5264961e-001
-7.5605059e-001
-7.0331413e-001
-6.0167050e-001
-4.7649086e-001
-4.6182927e-001
-4.9461815e-001
-6.3361704e-001
-8.0509639e-001
-9.1032654e-001
-9.9962467e-001
-9.7494602e-001
-9.3377453e-001
-9.1990381e-001
-9.1941553e-001
-9.8921698e-001
-1.0668314e+000
-1.1337112e+000
-1.1914860e+000
-1.2263250e+000
-1.2607137e+000
-1.3018523e+000
-1.3439920e+000
-1.3863034e+000
-1.4177572e+000
-1.4351780e+000
-1.4480786e+000
-1.4585992e+000
-1.4715943e+000
-1.4866899e+000
-1.4579422e+000
-1.4000466e+000
-1.2991784e+000
-1.1778929e+000
-1.1299429e+000
-1.1135774e+000
-1.2033961e+000
-1.3265600e+000
-1.4676160e+000
-1.6121114e+000
-1.7273377e+000
-1.8329500e+000
-1.8953140e+000
-1.9468130e+000
-1.9854114e+000
-2.0215425e+000
-2.0590947e+000
-2.0783117e+000
-2.0502253e+000
-2.0127144e+000
-1.9754140e+000
-1.9899828e+000
-2.0822978e+000
-2.2248282e+000
-2.4088614e+000
-2.5724437e+000
-2.7089274e+000
-2.7794030e+000
-2.8021479e+000
-2.7572172e+000
-2.6743331e+000
-2.5215778e+000
-2.3357358e+000
-2.1389561e+000
-1.9389400e+000
-1.8469727e+000
-1.7908542e+000
-1.8624952e+000
-1.9710715e+000
-2.1453736e+000
-2.3309395e+000
-2.4800789e+000
-2.5926943e+000
-2.5904412e+000
-2.5358715e+000
-2.4126863e+000
-2.2767143e+000
-2.1473773e+000
-2.0414779e+000
-1.9696715e+000
-1.9352165e+000
-1.9415786e+000
-1.9667026e+000
-2.0040689e+000
-2.0162857e+000
-2.0038021e+000
-1.9890400e+000
-1.9770546e+000
-2.0156720e+000
-2.0859270e+000
-2.1728911e+000
-2.2649846e+000
-2.3155999e+000
-2.3472812e+000
-2.3550301e+000
-2.3546710e+000
-2.3707926e+000
-2.3874681e+000
-2.3710616e+000
-2.3374751e+000
-2.2657697e+000
-2.2023370e+000
-2.1991110e+000
-2.2203162e+000
-2.2540088e+000
-2.2621171e+000
-2.2152760e+000
-2.1538734e+000
-2.0989788e+000
-2.0508893e+000
-2.0120187e+000
-1.9822464e+000
-1.9572725e+000
-1.9989070e+000
-2.0953128e+000
-2.1878614e+000
-2.2686412e+000
-2.2346473e+000
-2.1293595e+000
-2.0137751e+000
-1.8979360e+000
-1.8801308e+000
-1.9069123e+000
-1.9149138e+000
-1.9064429e+000
-1.7961714e+000
-1.6571994e+000
-1.5856400e+000
-1.5774726e+000
-1.7234329e+000
-1.9143335e+000
-2.0655167e+000
-2.1522479e+000
-2.1255057e+000
-2.0234101e+000
-1.8620777e+000
-1.6476359e+000
-1.3869177e+000
-1.2104740e+000
-1.1488836e+000
-1.2685823e+000
-1.5370331e+000
-1.7771574e+000
-1.9603326e+000
-2.0321085e+000
-2.0311937e+000
-2.0292218e+000
-2.0390224e+000
-2.0896120e+000
-2.1670072e+000
-2.1579530e+000
-2.1017058e+000
-1.9022263e+000
-1.6321175e+000
-1.3521115e+000
-1.0657136e+000
-7.9220146e-001
-5.5374962e-001
-4.1372994e-001
-3.7616062e-001
-4.8340297e-001
-6.3221329e-001
-7.4382365e-001
-7.9322797e-001
-7.6903087e-001
-7.3300332e-001
-7.2267705e-001
-7.1619952e-001
-7.0162934e-001
-6.0359955e-001
-4.1940659e-001
-2.7510896e-001
-1.9173965e-001
-2.4272142e-001
-3.9187071e-001
-4.4138563e-001
-4.0331799e-001
-3.2008150e-001
-2.0992211e-001
-2.1529457e-001
-2.8547317e-001
-3.7369636e-001
-4.6450922e-001
-5.2309066e-001
-5.1807886e-001
-3.1628013e-001
9.9851191e-003
4.3203333e-001
7.6169890e-001
7.6316500e-001
5.7280600e-001
2.8757209e-001
6.2290855e-002
-1.9925129e-001
-4.6114245e-001
-6.4033556e-001
-7.5646651e-001
-8.3611482e-001
-9.0708333e-001
-9.7713572e-001
-1.0650926e+000
-1.1614028e+000
-1.1437401e+000
-1.0304728e+000
-8.1090397e-001
-5.2682793e-001
-3.9115995e-001
-3.6606121e-001
-4.6461073e-001
-6.1722094e-001
-6.1778897e-001
-4.4947729e-001
1.2130058e-001
1.0569186e+000
2.2645772e+000
3.4342091e+000
4.1596894e+000
4.5864291e+000
4.8537083e+000
5.2702699e+000
6.1032543e+000
7.6630239e+000
1.0102107e+001
1.3516831e+001
1.7834429e+001
2.2152321e+001
2.6067278e+001
2.9546679e+001
3.2659023e+001
3.6327457e+001
4.0647213e+001
4.5606117e+001
5.1053638e+001
5.5764324e+001
5.9803257e+001
6.3787300e+001
6.7795197e+001
7.2315186e+001
7.7182014e+001
8.1828445e+001
8.6245865e+001
9.0328064e+001
9.4081955e+001
9.7481285e+001
1.0052600e+002
1.0321275e+002
1.0535440e+002
1.0675396e+002
1.0680640e+002
1.0511607e+002
1.0231440e+002
9.9012863e+001
9.5551071e+001
9.2133110e+001
8.8311111e+001
8.3948730e+001
7.9411690e+001
7.4854111e+001
7.0488091e+001
6.6328850e+001
6.1891479e+001
5.7136967e+001
5.2345161e+001
4.7562950e+001
4.3129601e+001
3.9076599e+001
3.5560959e+001
3.2590118e+001
3.0079029e+001
2.7992529e+001
2.6151480e+001
2.4576109e+001
2.3266760e+001
2.2244192e+001
2.1493500e+001
2.1007050e+001
2.0738434e+001
2.0667454e+001
2.0750109e+001
2.0988194e+001
2.1362331e+001
2.1865181e+001
2.2475174e+001
2.3225840e+001
2.4124170e+001
2.5186596e+001
2.6421194e+001
2.7773701e+001
2.9231920e+001
3.0739435e+001
3.2288818e+001
3.3972702e+001
3.5844845e+001
3.8256348e+001
4.1169300e+001
4.3930328e+001
4.6411400e+001
4.8216389e+001
4.9412434e+001
5.0440823e+001
5.1288139e+001
5.1996857e+001
5.2348518e+001
5.2118778e+001
5.1259430e+001
4.9810501e+001
4.8040741e+001
4.6216232e+001
4.4396263e+001
4.2629101e+001
4.0928829e+001
3.9316357e+001
3.7812675e+001
3.6457985e+001
3.5075897e+001
3.3601891e+001
3.1878639e+001
2.9812561e+001
2.7257748e+001
2.4111013e+001
2.1076954e+001
1.8266031e+001
1.5985277e+001
1.4297180e+001
1.2655572e+001
1.1050873e+001
9.4277000e+000
7.7839470e+000
6.1450014e+000
4.5354099e+000
2.9960198e+000
1.6572579e+000
6.6512460e-001
9.4609268e-002
1.5889578e-002
4.2334920e-001
1.2576153e+000
2.1832371e+000
2.9743605e+000
3.6110001e+000
4.0325799e+000
4.4437656e+000
4.9277358e+000
5.4831181e+000
6.1387601e+000
6.6625342e+000
6.9753203e+000
7.0795302e+000
6.8904257e+000
6.6207538e+000
6.2440019e+000
5.8771501e+000
5.5259995e+000
5.2187295e+000
4.9380746e+000
4.6183491e+000
4.2420535e+000
3.8166490e+000
3.4035602e+000
3.1161699e+000
3.0160155e+000
3.1606917e+000
3.4991200e+000
3.9636905e+000
4.4122915e+000
4.6920729e+000
4.8793087e+000
4.9934607e+000
5.1551681e+000
5.4503798e+000
5.8140817e+000
6.2607412e+000
6.6903477e+000
7.0712171e+000
7.4020572e+000
7.6500430e+000
7.8159914e+000
7.8475060e+000
7.7333941e+000
7.3953900e+000
6.9428267e+000
6.3480496e+000
5.7644773e+000
5.2095094e+000
4.7304459e+000
4.3376904e+000
4.0200400e+000
3.7641344e+000
3.5062006e+000
3.2216406e+000
2.8478248e+000
2.3928757e+000
1.8684953e+000
1.3361781e+000
8.6759388e-001
4.8457885e-001
2.3566848e-001
6.2260311e-002
-3.6663655e-003
1.4264431e-002
9.7362556e-002
2.1444780e-001
3.8659859e-001
5.4844475e-001
6.8721831e-001
7.8269124e-001
8.2493681e-001
8.8143498e-001
9.7244340e-001
1.1193464e+000
1.3401643e+000
1.6058112e+000
1.9166691e+000
2.2378809e+000
2.5507901e+000
2.8099322e+000
3.0087292e+000
3.1347585e+000
3.2120926e+000
3.2684715e+000
3.3137646e+000
3.3559070e+000
3.3878326e+000
3.4007633e+000
3.4126713e+000
3.4446921e+000
3.5037317e+000
3.6256983e+000
3.7418001e+000
3.8199866e+000
3.8453641e+000
3.7441015e+000
3.6349127e+000
3.5154321e+000
3.4468172e+000
3.4797099e+000
3.5810258e+000
3.7953868e+000
4.0564837e+000
4.3781061e+000
4.6873631e+000
4.9774890e+000
5.2345200e+000
5.4726248e+000
5.7552657e+000
6.0944133e+000
6.5161295e+000
6.9813409e+000
7.4188294e+000
7.8148251e+000
8.1191654e+000
8.3902321e+000
8.6682234e+000
8.9580688e+000
9.2800512e+000
9.5706711e+000
9.7392559e+000
9.8242645e+000
9.6766777e+000
9.4611416e+000
9.0658255e+000
8.6224508e+000
8.0662422e+000
7.4886532e+000
6.8757801e+000
6.2951097e+000
5.7685347e+000
5.2617064e+000
4.7781529e+000
4.2810950e+000
3.7832379e+000
3.3470182e+000
2.9829485e+000
2.6984525e+000
2.4671357e+000
2.2213492e+000
1.9607372e+000
1.6723480e+000
1.3771471e+000
1.1049905e+000
8.5473859e-001
6.6369271e-001
5.0681317e-001
4.3325332e-001
3.9004600e-001
4.2298251e-001
4.6726301e-001
5.3923571e-001
6.0676837e-001
6.6136640e-001
7.0722419e-001
7.2795618e-001
7.1627992e-001
6.3720524e-001
5.2789754e-001
3.7483713e-001
2.4578071e-001
1.4873162e-001
6.2749922e-002
-1.0518122e-002
-7.6516181e-002
-1.1606453e-001
-4.5162261e-002
1.2091260e-001
3.8686657e-001
6.9562924e-001
9.7579718e-001
1.2470671e+000
1.5282623e+000
1.8240213e+000
2.1805987e+000
2.5263875e+000
2.7587521e+000
2.9403098e+000
2.9068573e+000
2.8529758e+000
2.7299633e+000
2.6184900e+000
2.5492787e+000
2.5385799e+000
2.6809881e+000
2.9205503e+000
3.3446934e+000
3.7660682e+000
4.1670570e+000
4.4475636e+000
4.5822401e+000
4.7123737e+000
4.8601818e+000
5.1640801e+000
5.5830398e+000
5.9790444e+000
6.3210726e+000
6.3793559e+000
6.2913685e+000
6.0664096e+000
5.8163795e+000
5.7046208e+000
5.6430235e+000
5.7221394e+000
5.8217678e+000
5.9376817e+000
6.0330033e+000
5.9886246e+000
5.8983116e+000
5.6099739e+000
5.3428917e+000
5.1519570e+000
5.0733547e+000
5.2608967e+000
5.4422030e+000
5.5982022e+000
5.6099634e+000
5.4118514e+000
5.1774302e+000
4.9060664e+000
4.6744146e+000
4.4738560e+000
4.2393460e+000
3.9752588e+000
3.6478307e+000
3.2888260e+000
2.9411757e+000
2.6089025e+000
2.3918142e+000
2.2063308e+000
2.0291088e+000
1.8435786e+000
1.5482000e+000
1.2440058e+000
9.4424665e-001
6.4726949e-001
3.6990890e-001
1.0264734e-001
-1.1930142e-001
-3.2291579e-001
-4.7285503e-001
-6.7484605e-001
-9.9515688e-001
-1.3158321e+000
-1.6262617e+000
-1.7474142e+000
-1.6099080e+000
-1.3438236e+000
-9.4547284e-001
-5.5038929e-001
-1.5958658e-001
2.0012534e-001
5.3175843e-001
6.9549400e-001
7.7727520e-001
7.3637819e-001
6.5861064e-001
6.3006991e-001
6.1020428e-001
5.4436117e-001
4.6870360e-001
2.8902167e-001
1.1280066e-001
4.5545142e-002
1.2797490e-003
4.1450351e-002
1.7462787e-001
5.5355400e-001
1.0989228e+000
2.1320033e+000
3.2127485e+000
4.3866663e+000
5.2067652e+000
5.4557815e+000
5.3673339e+000
4.8698201e+000
4.3762965e+000
3.8910728e+000
3.6760471e+000
3.6572390e+000
4.0901699e+000
4.7614803e+000
5.5487275e+000
6.3759432e+000
6.7728209e+000
7.0550408e+000
7.1110554e+000
7.1306906e+000
7.3337002e+000
