Image.
>Pix99999.
  .
5555
5555
2300
900
5555
2
1
0
701
5555
4.3577000e-002
4.4483703e-002
4.5390408e-002
4.6297107e-002
4.7203809e-002
4.8109520e-002
4.9016219e-002
4.9922921e-002
5.0829623e-002
5.1736325e-002
5.2643027e-002
5.3547762e-002
5.4455418e-002
5.5369008e-002
5.6268983e-002
5.7151079e-002
5.8081672e-002
5.9078716e-002
5.9898015e-002
6.0464773e-002
6.1698169e-002
6.3868001e-002
6.3562073e-002
5.9765570e-002
6.5169580e-002
8.5967004e-002
8.6902358e-002
2.8989660e-002
-9.4990961e-002
-2.7040774e-001
-4.3097988e-001
-5.1004422e-001
-4.9842680e-001
-4.1520211e-001
-3.2636672e-001
-2.9412898e-001
-3.1105280e-001
-3.4815508e-001
-3.7233752e-001
-3.6282626e-001
-3.5265771e-001
-3.7993687e-001
-4.3832380e-001
-5.0239336e-001
-5.2449310e-001
-4.6471077e-001
-3.4089407e-001
-1.9083497e-001
-6.0897402e-002
1.0992460e-002
3.0927712e-002
1.8568058e-002
-7.2247162e-003
-3.3253383e-002
-6.7344882e-002
-1.2057957e-001
-1.9012721e-001
-2.6949698e-001
-3.5600483e-001
-4.4819912e-001
-5.4434001e-001
-6.3776219e-001
-7.0218897e-001
-7.1253765e-001
-6.7488730e-001
-6.0944593e-001
-5.5125159e-001
-5.2944624e-001
-5.2956086e-001
-5.2701962e-001
-5.1661301e-001
-5.0512946e-001
-5.1998299e-001
-5.8133125e-001
-6.5121770e-001
-6.8011540e-001
-6.5461892e-001
-5.8702213e-001
-5.4120135e-001
-5.8193380e-001
-7.0453686e-001
-8.7487286e-001
-1.0414883e+000
-1.1575046e+000
-1.2184601e+000
-1.2358065e+000
-1.2253709e+000
-1.2011067e+000
-1.1667755e+000
-1.1229341e+000
-1.0733671e+000
-1.0239221e+000
-9.8388630e-001
-9.6098018e-001
-9.5246702e-001
-9.5184654e-001
-9.5365882e-001
-9.5409507e-001
-9.5393938e-001
-9.5433933e-001
-9.5079285e-001
-9.3619907e-001
-9.0202641e-001
-8.4327084e-001
-7.7142191e-001
-7.0524001e-001
-6.6662163e-001
-6.7209315e-001
-7.1169502e-001
-7.6530123e-001
-8.1456256e-001
-8.4538025e-001
-8.5648841e-001
-8.5148907e-001
-8.3288419e-001
-8.0703598e-001
-7.9939967e-001
-8.4008640e-001
-9.4566548e-001
-1.1180353e+000
-1.3226371e+000
-1.5126793e+000
-1.6536466e+000
-1.7223479e+000
-1.7197572e+000
-1.6608322e+000
-1.5763580e+000
-1.5019721e+000
-1.4671823e+000
-1.4902790e+000
-1.5567757e+000
-1.6394303e+000
-1.7168063e+000
-1.7756500e+000
-1.8209494e+000
-1.8620507e+000
-1.8911709e+000
-1.8954153e+000
-1.8735228e+000
-1.8351811e+000
-1.8130000e+000
-1.8377694e+000
-1.8909748e+000
-1.9353242e+000
-1.9504515e+000
-1.9315858e+000
-1.9011909e+000
-1.8820391e+000
-1.8474725e+000
-1.7552693e+000
-1.5971428e+000
-1.3916570e+000
-1.1983577e+000
-1.0834424e+000
-1.0657420e+000
-1.1351922e+000
-1.2613240e+000
-1.4070160e+000
-1.5419637e+000
-1.6398432e+000
-1.6754056e+000
-1.6303350e+000
-1.5141255e+000
-1.3571749e+000
-1.2208651e+000
-1.1714107e+000
-1.2349726e+000
-1.4046979e+000
-1.6232400e+000
-1.8177841e+000
-1.9520458e+000
-2.0170743e+000
-2.0342309e+000
-2.0360000e+000
-2.0426877e+000
-2.0641751e+000
-2.0989709e+000
-2.1392076e+000
-2.1737611e+000
-2.1930897e+000
-2.2008371e+000
-2.2075381e+000
-2.2224979e+000
-2.2477062e+000
-2.2564006e+000
-2.2104030e+000
-2.0873754e+000
-1.8882576e+000
-1.6735400e+000
-1.5230520e+000
-1.4643385e+000
-1.4855491e+000
-1.5401525e+000
-1.5776491e+000
-1.6031208e+000
-1.6489015e+000
-1.7252719e+000
-1.8200948e+000
-1.8887771e+000
-1.8808520e+000
-1.7946572e+000
-1.6616337e+000
-1.5321116e+000
-1.4573920e+000
-1.4580097e+000
-1.5319079e+000
-1.6587822e+000
-1.8103207e+000
-1.9611149e+000
-2.0867360e+000
-2.1567500e+000
-2.1397657e+000
-2.0177035e+000
-1.7944061e+000
-1.5333142e+000
-1.3250914e+000
-1.2277673e+000
-1.2613190e+000
-1.3803803e+000
-1.5102800e+000
-1.6105914e+000
-1.6669662e+000
-1.6710863e+000
-1.6196089e+000
-1.5271879e+000
-1.4240036e+000
-1.3599900e+000
-1.3829373e+000
-1.4810377e+000
-1.6004429e+000
-1.6708543e+000
-1.6259340e+000
-1.4449354e+000
-1.1487422e+000
-8.1295586e-001
-5.3850794e-001
-3.9785999e-001
-4.2538702e-001
-5.8224678e-001
-7.8581750e-001
-9.5877659e-001
-1.0457315e+000
-1.0512340e+000
-1.0151647e+000
-9.6395063e-001
-9.0534550e-001
-8.2367688e-001
-6.9513816e-001
-5.2240908e-001
-3.2812935e-001
-1.3723636e-001
2.4740238e-002
1.2587193e-001
1.3999388e-001
8.7411746e-002
1.7646831e-002
-3.4283329e-002
-4.8235137e-002
-7.8170542e-003
1.0490306e-001
3.1873086e-001
6.4806110e-001
1.0060235e+000
1.2427163e+000
1.2505296e+000
9.9609286e-001
6.0653901e-001
2.8439760e-001
7.5951330e-002
-8.0720916e-002
-1.6125958e-001
-7.3476069e-002
2.2057168e-001
6.8714368e-001
1.1941710e+000
1.5596358e+000
1.6734680e+000
1.5202194e+000
1.2353314e+000
1.0300452e+000
9.8537999e-001
1.0508658e+000
1.0867143e+000
9.3335879e-001
5.7825685e-001
1.4054149e-001
-2.0285165e-001
-2.5983280e-001
1.0719039e-001
9.4090772e-001
2.0548613e+000
3.1248991e+000
3.9839783e+000
4.6523781e+000
5.3319178e+000
6.3368273e+000
7.9434500e+000
1.0337032e+001
1.3502069e+001
1.7222017e+001
2.1051285e+001
2.4462080e+001
2.7288305e+001
2.9736382e+001
3.2272205e+001
3.5471992e+001
3.9670105e+001
4.4856003e+001
5.0440159e+001
5.5540604e+001
5.9989059e+001
6.4275139e+001
6.8851486e+001
7.3919327e+001
7.9157463e+001
8.3891151e+001
8.7744438e+001
9.0700516e+001
9.2907494e+001
9.4593971e+001
9.5960915e+001
9.7131577e+001
9.8044777e+001
9.8470558e+001
9.8103531e+001
9.6693932e+001
9.4447998e+001
9.1927002e+001
8.9435432e+001
8.6940750e+001
8.4240173e+001
8.1077682e+001
7.7416962e+001
7.3423569e+001
6.9192093e+001
6.4716866e+001
5.9992519e+001
5.5055550e+001
5.0056076e+001
4.5227692e+001
4.0733341e+001
3.6649166e+001
3.3033394e+001
2.9932049e+001
2.7330650e+001
2.5157829e+001
2.3344561e+001
2.1840658e+001
2.0630463e+001
1.9726431e+001
1.9131001e+001
1.8828232e+001
1.8779812e+001
1.8934946e+001
1.9259186e+001
1.9739508e+001
2.0381742e+001
2.1216539e+001
2.2333166e+001
2.3865576e+001
2.5896172e+001
2.8415113e+001
3.1272120e+001
3.4206032e+001
3.7040680e+001
3.9724720e+001
4.2264362e+001
4.4733112e+001
4.7356373e+001
5.0411289e+001
5.3685814e+001
5.6477570e+001
5.8312305e+001
5.9134014e+001
5.9230801e+001
5.9108177e+001
5.8951172e+001
5.8525688e+001
5.7480221e+001
5.5513813e+001
5.2757942e+001
4.9790428e+001
4.7080830e+001
4.4834400e+001
4.3049194e+001
4.1543549e+001
4.0086899e+001
3.8450356e+001
3.6473320e+001
3.4110077e+001
3.1513729e+001
2.9004580e+001
2.6728201e+001
2.4570950e+001
2.2336840e+001
1.9843544e+001
1.7160772e+001
1.4628279e+001
1.2469617e+001
1.0686256e+001
9.1784859e+000
7.7956858e+000
6.4592547e+000
5.1852741e+000
3.9714012e+000
2.7806058e+000
1.6378139e+000
6.5498257e-001
-3.8124055e-002
-3.1195498e-001
-3.4180254e-002
8.8959253e-001
2.3309662e+000
3.9132359e+000
5.3489265e+000
6.5536742e+000
7.5867524e+000
8.6237993e+000
9.7915697e+000
1.1094351e+001
1.2379200e+001
1.3348637e+001
1.3823103e+001
1.3829864e+001
1.3474183e+001
1.2903429e+001
1.2239132e+001
1.1555140e+001
1.0903086e+001
1.0308826e+001
9.7463369e+000
9.1321468e+000
8.4147291e+000
7.6102271e+000
6.7924557e+000
6.0868864e+000
5.5862827e+000
5.3143067e+000
5.2366805e+000
5.2631717e+000
5.3149657e+000
5.3545609e+000
5.3972955e+000
5.5143890e+000
5.7528486e+000
6.1029205e+000
6.5180411e+000
6.9182491e+000
7.2247400e+000
7.3757648e+000
7.3385568e+000
7.1213131e+000
6.7629914e+000
6.3313966e+000
5.8815627e+000
5.4402747e+000
5.0290365e+000
4.6692348e+000
4.3754244e+000
4.1473827e+000
3.9531715e+000
3.7217345e+000
3.3959661e+000
2.9586868e+000
2.4311292e+000
1.8766050e+000
1.3468535e+000
8.6161095e-001
4.3735617e-001
9.7181439e-002
-1.3048249e-001
-2.1329635e-001
-1.3114183e-001
1.1344163e-001
5.0157577e-001
9.9939072e-001
1.5872960e+000
2.2663057e+000
2.9969404e+000
3.6668150e+000
4.1464772e+000
4.3199162e+000
4.1599178e+000
3.7784889e+000
3.3100085e+000
2.8686986e+000
2.5327523e+000
2.3239553e+000
2.2268322e+000
2.1855624e+000
2.1397700e+000
2.0411901e+000
1.8698382e+000
1.6496426e+000
1.4129431e+000
1.1890550e+000
9.9898386e-001
8.5239303e-001
7.6249951e-001
7.5365794e-001
8.5167718e-001
1.0780694e+000
1.4376280e+000
1.9059727e+000
2.4432042e+000
2.9950194e+000
3.5145335e+000
3.9749844e+000
4.3648329e+000
4.6916556e+000
4.9685316e+000
5.2104421e+000
5.4314718e+000
5.6434278e+000
5.8578076e+000
6.0875864e+000
6.3492789e+000
6.6661820e+000
7.0661778e+000
7.5811386e+000
8.2337971e+000
9.0262318e+000
9.9438038e+000
1.0949753e+001
1.2007046e+001
1.3089001e+001
1.4167491e+001
1.5203200e+001
1.6145189e+001
1.6920525e+001
1.7461113e+001
1.7720518e+001
1.7675959e+001
1.7339500e+001
1.6734472e+001
1.5888986e+001
1.4831686e+001
1.3595574e+001
1.2248026e+001
1.0919100e+001
9.7477484e+000
8.8440971e+000
8.2675858e+000
7.9816666e+000
7.9232364e+000
8.0189772e+000
8.1881523e+000
8.3394413e+000
8.3782835e+000
8.2142038e+000
7.7980785e+000
7.1672878e+000
6.3923988e+000
5.5687513e+000
4.7747254e+000
4.0399089e+000
3.3763874e+000
2.7846522e+000
2.2723265e+000
1.8681139e+000
1.6004800e+000
1.4838723e+000
1.5093336e+000
1.6240917e+000
1.7673542e+000
1.8860385e+000
1.9440209e+000
1.9401950e+000
1.8811486e+000
1.7719591e+000
1.6155372e+000
1.4115950e+000
1.1659948e+000
9.0097630e-001
6.4338380e-001
4.2091000e-001
2.5348771e-001
1.4150269e-001
7.2127640e-002
1.3294231e-002
-6.4540908e-002
-1.7349990e-001
-3.1604707e-001
-4.8031992e-001
-6.4012021e-001
-7.4476951e-001
-7.5264388e-001
-6.6002595e-001
-4.8900560e-001
-3.0073017e-001
-1.5022993e-001
-5.3263646e-002
-4.5412108e-003
2.9970400e-002
9.0378046e-002
2.1343800e-001
4.2271161e-001
7.0943832e-001
1.0468237e+000
1.3835156e+000
1.6769857e+000
1.9232930e+000
2.1389079e+000
2.3679547e+000
2.6503913e+000
2.9968328e+000
3.3943501e+000
3.7888482e+000
4.1218100e+000
4.3513532e+000
4.4551415e+000
4.4525881e+000
4.3681202e+000
4.2138481e+000
4.0021896e+000
3.7553415e+000
3.5032001e+000
3.2895432e+000
3.1468313e+000
3.0669327e+000
3.0263743e+000
2.9869967e+000
2.9181030e+000
2.8198638e+000
2.7015743e+000
2.5767894e+000
2.4574127e+000
2.3482413e+000
2.2649839e+000
2.2572691e+000
2.3649702e+000
2.5735707e+000
2.8341453e+000
3.0382521e+000
3.0929821e+000
2.9950359e+000
2.7743359e+000
2.4935780e+000
2.2088151e+000
1.9312975e+000
1.6635942e+000
1.4157246e+000
1.2011464e+000
1.0389805e+000
9.3134201e-001
8.2532156e-001
6.6160512e-001
4.0475765e-001
5.4442376e-002
-2.9919171e-001
-5.6198996e-001
-6.9877696e-001
-7.1223956e-001
-6.7841321e-001
-6.7049974e-001
-6.9418651e-001
-7.3162979e-001
-7.4350810e-001
-7.0236725e-001
-6.3657755e-001
-5.7949919e-001
-5.3527951e-001
-4.9618158e-001
-4.3951720e-001
-3.5260943e-001
-2.6846150e-001
-2.2194164e-001
-2.1548229e-001
-2.3495355e-001
-2.3757356e-001
-1.9030114e-001
-1.1826974e-001
-5.6813121e-002
-2.5866628e-002
-2.6760012e-002
-8.8047162e-003
8.5331440e-002
2.8990269e-001
6.0893250e-001
9.5849818e-001
1.2424200e+000
1.3994728e+000
1.3950568e+000
1.2595098e+000
1.0507671e+000
8.6840558e-001
8.0601525e-001
8.9606827e-001
1.1419532e+000
1.4951568e+000
1.8854871e+000
2.2110920e+000
2.3792310e+000
2.3628039e+000
2.1833062e+000
1.9869958e+000
1.9317422e+000
2.0975072e+000
2.5191500e+000
3.1309173e+000
3.8420000e+000
