##TITLE=Methyl Ethyl Ketone
##JCAMP-DX=4.24
##DATA TYPE=INFRARED SPECTRUM
##XUNITS=cm-1
##YUNITS=Absorbance
##FIRSTX=900
##LASTX=2300
##XYDATA=(X++(Y..Y))
2296 0.032814998
2294 0.033498023
2292 0.034180049
2290 0.03486307
2288 0.03554609
2286 0.03622812
2284 0.036911137
2282 0.037594162
2280 0.038276196
2278 0.038958218
2276 0.039642215
2274 0.040327217
2272 0.041007325
2270 0.041680481
2268 0.042372137
2266 0.043089591
2264 0.04373819
2262 0.044292569
2260 0.045100041
2258 0.046263132
2256 0.046482485
2254 0.04537541
2252 0.047775991
2250 0.055122111
2248 0.049433719
2246 0.019202858
2244 0.00067195145
2242 0.03267511
2240 0.11059784
2238 0.21506307
2236 0.31716427
2234 0.39071462
2232 0.43107036
2230 0.43950096
2228 0.41601574
2226 0.36352852
2224 0.29841399
2222 0.24075872
2220 0.20954771
2218 0.21844934
2216 0.26097056
2214 0.32357314
2212 0.38843819
2210 0.44002882
2208 0.47700897
2206 0.50097924
2204 0.50812244
2202 0.49047855
2200 0.43038821
2198 0.3140136
2196 0.15504001
2194 -0.02233354
2192 -0.1863534
2190 -0.30803481
2188 -0.378703
2186 -0.39820665
2184 -0.3744888
2182 -0.31817019
2180 -0.24056719
2178 -0.15376428
2176 -0.072193027
2174 -0.0092909932
2172 0.028666364
2170 0.040133379
2168 0.033201162
2166 0.018686857
2164 0.0056776227
2162 0.00085665355
2160 0.0037193422
2158 0.00823968
2156 -0.00436266
2154 -0.051179238
2152 -0.1248148
2150 -0.20431818
2148 -0.24802899
2146 -0.21926358
2144 -0.13016075
2142 -0.014642909
2140 0.074859865
2138 0.09149082
2136 0.036168829
2134 -0.067371339
2132 -0.17206094
2130 -0.2317273
2128 -0.2362708
2126 -0.19328628
2124 -0.12861143
2122 -0.070348695
2120 -0.030113447
2118 -0.013910207
2116 -0.030364487
2114 -0.084803864
2112 -0.1640233
2110 -0.24692559
2108 -0.30864891
2106 -0.33100405
2104 -0.32833582
2102 -0.32550842
2100 -0.33938718
2098 -0.37837818
2096 -0.43033716
2094 -0.47784916
2092 -0.51409411
2090 -0.53805494
2088 -0.55455124
2086 -0.5692445
2084 -0.58267361
2082 -0.59328699
2080 -0.59974515
2078 -0.60208374
2076 -0.60533369
2074 -0.61561692
2072 -0.63519925
2070 -0.66403067
2068 -0.69926804
2066 -0.736292
2064 -0.76755536
2062 -0.78466809
2060 -0.78055668
2058 -0.75336719
2056 -0.72071058
2054 -0.70530629
2052 -0.71714199
2050 -0.75577807
2048 -0.80091226
2046 -0.82662606
2044 -0.81745481
2042 -0.76564127
2040 -0.67533922
2038 -0.56023717
2036 -0.45358056
2034 -0.39290369
2032 -0.39890262
2030 -0.4745433
2028 -0.58093268
2026 -0.66519821
2024 -0.69166285
2022 -0.64398932
2020 -0.5510329
2018 -0.45954826
2016 -0.408254
2014 -0.42325217
2012 -0.49732167
2010 -0.60923266
2008 -0.7415567
2006 -0.880651
2004 -1.0176467
2002 -1.144534
2000 -1.2481377
1998 -1.3147118
1996 -1.3382572
1994 -1.3200459
1992 -1.2763097
1990 -1.228057
1988 -1.188172
1986 -1.163083
1984 -1.1509949
1982 -1.1492878
1980 -1.1687571
1978 -1.2207714
1976 -1.28948
1974 -1.3434529
1972 -1.3427103
1970 -1.2584733
1968 -1.1253451
1966 -1.0053383
1964 -0.94078809
1962 -0.94873059
1960 -0.98861361
1958 -1.0023246
1956 -0.97693628
1954 -0.92813241
1952 -0.88678169
1950 -0.88307846
1948 -0.91880947
1946 -0.98059499
1944 -1.0545285
1942 -1.1277932
1940 -1.1880836
1938 -1.2270359
1936 -1.2518429
1934 -1.2784083
1932 -1.325142
1930 -1.4039204
1928 -1.4964125
1926 -1.5681386
1924 -1.5841188
1922 -1.5231194
1920 -1.4196651
1918 -1.333225
1916 -1.3015171
1914 -1.3353841
1912 -1.3919817
1910 -1.4111145
1908 -1.3800606
1906 -1.3206629
1904 -1.28054
1902 -1.304695
1900 -1.3741543
1898 -1.4329299
1896 -1.4229715
1894 -1.3054873
1892 -1.1154034
1890 -0.93022287
1888 -0.83101183
1886 -0.878838
1884 -1.0547884
1882 -1.2932054
1880 -1.5246994
1878 -1.6904521
1876 -1.76833
1874 -1.7579623
1872 -1.6630337
1870 -1.4971972
1868 -1.3177115
1866 -1.2004114
1864 -1.1894783
1862 -1.294183
1860 -1.4656677
1858 -1.6337864
1856 -1.77952
1854 -1.9180051
1852 -2.0644016
1850 -2.2239225
1848 -2.373508
1846 -2.4756892
1844 -2.5037544
1842 -2.4450047
1840 -2.3111765
1838 -2.1272759
1836 -1.9136771
1834 -1.6853601
1832 -1.4534909
1830 -1.2327975
1828 -1.0621749
1826 -0.98725051
1824 -1.0131412
1822 -1.1117084
1820 -1.2304419
1818 -1.3124876
1816 -1.3384372
1814 -1.3172255
1812 -1.2691106
1810 -1.2133136
1808 -1.1424977
1806 -1.0398365
1804 -0.92676729
1802 -0.84945327
1800 -0.84149575
1798 -0.90876651
1796 -0.98444289
1794 -0.97106653
1792 -0.84851283
1790 -0.65749872
1788 -0.44956553
1786 -0.26843172
1784 -0.12127011
1782 0.0066269711
1780 0.11452439
1778 0.19374099
1776 0.26295343
1774 0.35345131
1772 0.45859757
1770 0.5403235
1768 0.55148798
1766 0.45841384
1764 0.30121201
1762 0.15855712
1760 0.042313371
1758 -0.080233723
1756 -0.19313915
1754 -0.24368273
1752 -0.20648372
1750 -0.093427971
1748 0.030328173
1746 0.074503891
1744 -0.002593372
1742 -0.1853396
1740 -0.38190958
1738 -0.47014001
1736 -0.42390001
1734 -0.30448654
1732 -0.21114902
1730 -0.23842408
1728 -0.37822995
1726 -0.53612965
1724 -0.59057069
1722 -0.41546041
1720 0.094443202
1718 0.98576057
1716 2.1118357
1714 3.2035322
1712 4.1086693
1710 4.8248539
1708 5.5195017
1706 6.469635
1704 7.9203277
1702 10.045403
1700 12.885406
1698 16.328251
1696 20.007715
1694 23.42654
1692 26.364201
1690 28.918455
1688 31.493601
1686 34.659878
1684 38.780014
1682 43.891068
1680 49.446598
1678 54.595196
1676 59.172871
1674 63.642273
1672 68.379539
1670 73.485428
1668 78.609314
1666 83.127853
1664 86.778824
1662 89.676476
1660 91.980988
1658 93.811539
1656 95.207794
1654 96.136703
1652 96.518318
1650 96.259941
1648 95.34552
1646 93.857147
1644 92.019157
1642 90.121559
1640 88.230843
1638 86.189201
1636 83.7976
1634 80.896851
1632 77.50869
1630 73.797981
1628 69.840652
1626 65.606575
1624 61.080601
1622 56.303703
1620 51.421688
1618 46.658802
1616 42.190544
1614 38.123936
1612 34.537827
1610 31.482079
1608 28.929537
1606 26.785929
1604 24.976526
1602 23.464615
1600 22.249464
1598 21.353954
1596 20.7745
1594 20.476738
1592 20.413383
1590 20.536613
1588 20.828829
1586 21.300943
1584 21.962978
1582 22.82579
1580 23.940996
1578 25.396709
1576 27.262114
1574 29.559368
1572 32.210068
1570 35.045883
1568 37.919159
1566 40.727505
1564 43.390209
1562 45.878143
1560 48.347904
1558 51.070686
1556 53.946087
1554 56.472301
1552 58.248703
1550 59.132454
1548 59.28532
1546 59.091713
1544 58.694668
1542 57.915733
1540 56.527279
1538 54.384636
1536 51.670315
1534 48.877953
1532 46.35297
1530 44.177078
1528 42.287457
1526 40.521252
1524 38.715378
1522 36.749706
1520 34.601719
1518 32.357693
1516 30.164129
1514 28.177095
1512 26.3722
1510 24.520962
1508 22.423313
1506 20.003656
1504 17.402422
1502 14.954041
1500 12.850834
1498 11.05908
1496 9.4760571
1494 7.9847217
1492 6.5333977
1490 5.1487813
1488 3.8474228
1486 2.6218286
1484 1.5091183
1482 0.60520512
1480 -0.0014206916
1478 -0.24202086
1476 -0.025936455
1474 0.73869747
1472 1.9771485
1470 3.4166749
1468 4.8258424
1466 6.0972166
1464 7.2343674
1462 8.3433285
1460 9.5130978
1458 10.762646
1456 11.994
1454 12.991886
1452 13.608738
1450 13.826273
1448 13.696531
1446 13.324821
1444 12.802275
1442 12.18538
1440 11.512389
1438 10.801999
1436 10.042768
1434 9.1938648
1432 8.2522793
1430 7.2783399
1428 6.357306
1426 5.5841479
1424 5.0221324
1422 4.6843328
1420 4.5562072
1418 4.5993643
1416 4.7668056
1414 5.011179
1412 5.3066125
1410 5.6569185
1408 6.0652943
1406 6.521348
1404 6.99365
1402 7.4258184
1400 7.7627559
1398 7.9612207
1396 7.9944715
1394 7.8594084
1392 7.5773654
1390 7.1967297
1388 6.7621727
1386 6.3039804
1384 5.8456945
1382 5.4043989
1380 4.9892673
1378 4.5970483
1376 4.2072315
1374 3.7805455
1372 3.2931859
1370 2.7522128
1368 2.1781423
1366 1.600515
1364 1.044965
1362 0.53084052
1360 0.091784343
1358 -0.21818741
1356 -0.36459771
1354 -0.35013339
1352 -0.18234035
1350 0.13405323
1348 0.57963848
1346 1.1137593
1344 1.709488
1342 2.3645294
1340 3.0527253
1338 3.6988831
1336 4.206243
1334 4.4716525
1332 4.451983
1330 4.2059011
1328 3.8225055
1326 3.4002607
1324 3.0215294
1322 2.7357345
1320 2.5658281
1318 2.5001216
1316 2.49927
1314 2.49436
1312 2.428292
1310 2.2807534
1308 2.0686207
1306 1.8549635
1304 1.6960086
1302 1.615245
1300 1.61554
1298 1.6793153
1296 1.7998142
1294 1.9973336
1292 2.2971263
1290 2.7190454
1288 3.2601681
1286 3.8780406
1284 4.5152969
1282 5.1061602
1280 5.5980601
1278 5.9683089
1276 6.2174358
1274 6.3754859
1272 6.481916
1270 6.5805688
1268 6.7123799
1266 6.9106073
1264 7.1994386
1262 7.5882339
1260 8.0729742
1258 8.6327648
1256 9.2556572
1254 9.9545374
1252 10.752823
1250 11.679455
1248 12.737371
1246 13.8805
1244 15.042382
1242 16.14286
1240 17.108435
1238 17.884037
1236 18.425056
1234 18.695829
1232 18.67156
1230 18.342684
1228 17.715275
1226 16.823786
1224 15.715017
1222 14.451738
1220 13.11196
1218 11.79173
1216 10.59
1214 9.6071444
1212 8.9214687
1210 8.5646505
1208 8.5196362
1206 8.6892128
1204 8.9428062
1202 9.1233034
1200 9.0992994
1198 8.8104954
1196 8.2521286
1194 7.5007572
1192 6.6531525
1190 5.805182
1188 5.0308337
1186 4.3550568
1184 3.7773342
1182 3.2676761
1180 2.7976649
1178 2.3587301
1176 1.96096
1174 1.6438037
1172 1.4419732
1170 1.3624574
1168 1.3910058
1166 1.4815478
1164 1.5875983
1162 1.6799581
1160 1.7434783
1158 1.7842463
1156 1.8070271
1154 1.8015839
1152 1.7486651
1150 1.6189634
1148 1.395726
1146 1.0985535
1144 0.76609659
1142 0.45873275
1140 0.22032219
1138 0.044704705
1136 -0.081787348
1134 -0.16337159
1132 -0.20950831
1130 -0.24595763
1128 -0.28905636
1126 -0.32316366
1124 -0.32516262
1122 -0.27430484
1120 -0.16799033
1118 -0.045634724
1116 0.051433127
1114 0.10358787
1112 0.11247263
1110 0.11869068
1108 0.16416872
1106 0.26961699
1104 0.43998778
1102 0.65323633
1100 0.88025665
1098 1.0917456
1096 1.2699715
1094 1.4278306
1092 1.592672
1090 1.8086393
1088 2.1043
1086 2.4571114
1084 2.8270957
1082 3.16154
1080 3.4136491
1078 3.561198
1076 3.5890713
1074 3.4882619
1072 3.2702541
1070 2.9983485
1068 2.7502761
1066 2.6056893
1064 2.6126001
1062 2.7314253
1060 2.8949187
1058 3.0204732
1056 3.0430286
1054 2.9577076
1052 2.7862346
1050 2.5825081
1048 2.4015143
1046 2.2771857
1044 2.224586
1042 2.2192748
1040 2.2368526
1038 2.280071
1036 2.3649101
1034 2.5249021
1032 2.7705605
1030 3.0340202
1028 3.2347498
1026 3.3131728
1024 3.2440834
1022 3.0876901
1020 2.9079094
1018 2.7159047
1016 2.5035715
1014 2.2451489
1012 1.9272795
1010 1.5873032
1008 1.2642961
1006 0.96521473
1004 0.68871421
1002 0.43361238
1000 0.20346986
998 0.016429648
996 -0.11568715
994 -0.21229979
992 -0.30194521
990 -0.41706705
988 -0.58155233
986 -0.788118
984 -1.0129577
982 -1.2043072
980 -1.3141479
978 -1.3293071
976 -1.2497343
974 -1.0891941
972 -0.85912943
970 -0.55335456
968 -0.17682834
966 0.21277198
964 0.54646552
962 0.76201767
960 0.82266086
958 0.77283049
956 0.66913044
954 0.5401507
952 0.40204722
950 0.25207895
948 0.10215878
946 0.032006249
944 0.13048491
942 0.45824158
940 1.0382954
938 1.783246
936 2.5785513
934 3.3097959
932 3.8739917
930 4.2092371
928 4.2932487
926 4.211194
924 4.0771456
922 4.0125327
920 4.1079092
918 4.3308229
916 4.6182227
914 4.9057589
912 5.1427603
910 5.3311601
908 5.4868178
906 5.6288271
904 5.7868848
902 6.0294747
900 6.4201622
898 6.9662943
896 7.6613998
