##TITLE=Methyl Ethyl Ketone
##JCAMP-DX=4.24
##DATA TYPE=INFRARED SPECTRUM
##XUNITS=cm-1
##YUNITS=Absorbance
##FIRSTX=900
##LASTX=2300
##XYDATA=(X++(Y..Y))
2296 0.047396
2294 0.048382588
2292 0.04936818
2290 0.050353773
2288 0.051340353
2286 0.052325953
2284 0.053312533
2282 0.054298133
2280 0.055283722
2278 0.056270298
2276 0.057255901
2274 0.058242474
2272 0.059228081
2270 0.060214654
2268 0.061200261
2266 0.06218585
2264 0.063172415
2262 0.06415803
2260 0.065144591
2258 0.066130206
2256 0.067116767
2254 0.06810239
2252 0.069087982
2250 0.070074536
2248 0.071060158
2246 0.072046712
2244 0.042154476
2242 0.0015814286
2240 -0.01218816
2238 -0.018769508
2236 -0.024411144
2234 -0.02079187
2232 -0.016447544
2230 -0.010673786
2228 -0.0017857637
2226 0.031618048
2224 0.071194366
2222 0.1334502
2220 0.19211537
2218 0.23623422
2216 0.27123514
2214 0.28811282
2212 0.3028298
2210 0.3157894
2208 0.32424581
2206 0.32722092
2204 0.32546535
2202 0.31946233
2200 0.33430612
2198 0.36492962
2196 0.42008787
2194 0.48880965
2192 0.53622288
2190 0.57390177
2188 0.58414823
2186 0.58569145
2184 0.59925723
2182 0.61570585
2180 0.64031875
2178 0.66599053
2176 0.6804297
2174 0.69357491
2172 0.70396185
2170 0.71526128
2168 0.73335296
2166 0.75251436
2164 0.77324754
2162 0.79241949
2160 0.80718696
2158 0.82211947
2156 0.83816195
2154 0.85235101
2152 0.8636924
2150 0.86980122
2148 0.87035316
2146 0.87250179
2144 0.87657535
2142 0.88784462
2140 0.904028
2138 0.93147522
2136 0.9647646
2134 0.99716711
2132 1.0288866
2130 1.045557
2128 1.05742
2126 1.0718029
2124 1.0870203
2122 1.1007221
2120 1.1128914
2118 1.1012199
2116 1.0859672
2114 1.069819
2112 1.0563217
2110 1.0549468
2108 1.0524029
2106 1.0409371
2104 1.0239275
2102 0.99762124
2100 0.97215104
2098 0.95042831
2096 0.93393004
2094 0.92367911
2092 0.92009175
2090 0.9224903
2088 0.92405981
2086 0.92401201
2084 0.91186088
2082 0.89178294
2080 0.8656565
2078 0.83701259
2076 0.82062411
2074 0.80949926
2072 0.81805962
2070 0.83287364
2068 0.84360427
2066 0.8528735
2064 0.83150393
2062 0.80394816
2060 0.77095336
2058 0.7402336
2056 0.72781199
2054 0.71960014
2052 0.71450084
2050 0.70695263
2048 0.69264877
2046 0.67522573
2044 0.65487736
2042 0.63544255
2040 0.61723691
2038 0.60296053
2036 0.59194624
2034 0.58625269
2032 0.58532506
2030 0.59119874
2028 0.60244459
2026 0.61659658
2024 0.63252896
2022 0.64849424
2020 0.66464037
2018 0.67901188
2016 0.69213998
2014 0.70046377
2012 0.70642978
2010 0.70158827
2008 0.69232959
2006 0.66374546
2004 0.62892586
2002 0.58731771
2000 0.54781055
1998 0.52825433
1996 0.52047932
1994 0.53521508
1992 0.55789191
1990 0.58258164
1988 0.60795224
1986 0.62934947
1984 0.64304137
1982 0.6474641
1980 0.63463902
1978 0.60652089
1976 0.58465803
1974 0.57268244
1972 0.58510506
1970 0.61544412
1968 0.63017845
1966 0.63276917
1964 0.59955263
1962 0.5473395
1960 0.49784121
1958 0.45018891
1956 0.42022842
1954 0.39616531
1952 0.37510869
1950 0.35342401
1948 0.33190203
1946 0.30974001
1944 0.28131104
1942 0.25297654
1940 0.21899261
1938 0.18569748
1936 0.15576571
1934 0.12823661
1932 0.1081002
1930 0.092393301
1928 0.08502654
1926 0.083283998
1924 0.088718489
1922 0.10219777
1920 0.11984292
1918 0.13633859
1916 0.14632928
1914 0.14992157
1912 0.15009989
1910 0.14914155
1908 0.14922757
1906 0.1314525
1904 0.1030128
1902 0.070695013
1900 0.035823442
1898 0.03939262
1896 0.058865428
1894 0.097402617
1892 0.14059691
1890 0.1586401
1888 0.16111377
1886 0.13076115
1884 0.087237254
1882 0.039234512
1880 -0.007152657
1878 -0.04246597
1876 -0.074721403
1874 -0.10074108
1872 -0.11811743
1870 -0.12107856
1868 -0.10394404
1866 -0.076441631
1864 -0.054655358
1862 -0.050277218
1860 -0.062704898
1858 -0.082852304
1856 -0.10229629
1854 -0.11605772
1852 -0.13784987
1850 -0.16218817
1848 -0.20885241
1846 -0.26408181
1844 -0.3215327
1842 -0.37527063
1840 -0.40199405
1838 -0.4156037
1836 -0.40129173
1834 -0.37333611
1832 -0.31741381
1830 -0.24445108
1828 -0.16252163
1826 -0.085738517
1824 -0.051375691
1822 -0.057768274
1820 -0.11233956
1818 -0.18850538
1816 -0.26002401
1814 -0.31125671
1812 -0.33133563
1810 -0.32055959
1808 -0.28721634
1806 -0.242265
1804 -0.19327115
1802 -0.18079831
1800 -0.19892092
1798 -0.25080419
1796 -0.32310072
1794 -0.34244171
1792 -0.3266404
1790 -0.25935632
1788 -0.1684809
1786 -0.10373536
1784 -0.059989978
1782 -0.039326735
1780 -0.034166478
1778 -0.029985931
1776 -0.024243657
1774 -0.0078991521
1772 0.018453781
1770 0.037040289
1768 0.049139217
1766 0.042620413
1764 0.0242752
1762 0.012122221
1760 0.0088799996
1758 -0.069167048
1756 -0.17798313
1754 -0.25788167
1752 -0.29191884
1750 -0.27671129
1748 -0.25728789
1746 -0.25343928
1744 -0.29924944
1742 -0.39807072
1740 -0.48294553
1738 -0.54345381
1736 -0.50607598
1734 -0.38980171
1732 -0.25637609
1730 -0.12307465
1728 -0.088314563
1726 -0.12509686
1724 -0.14503092
1722 -0.1329551
1720 0.0033928081
1718 0.25731897
1716 0.71206546
1714 1.2960076
1712 1.8626457
1710 2.3956823
1708 2.89394
1706 3.505445
1704 4.3829556
1702 5.7979131
1700 7.8865895
1698 10.908166
1696 14.835714
1694 18.91448
1692 22.784121
1690 26.239021
1688 29.317446
1686 32.896458
1684 37.075287
1682 42.15683
1680 47.95752
1678 53.116634
1676 57.651588
1674 61.922985
1672 66.074661
1670 70.875374
1668 76.162262
1666 81.408554
1664 86.487144
1662 90.989967
1660 94.889694
1658 98.091942
1656 100.60178
1654 102.44048
1652 103.5582
1650 103.94
1648 103.36526
1646 101.68072
1644 99.329247
1642 96.752075
1640 93.814178
1638 90.50386
1636 86.305931
1634 81.111092
1632 75.725983
1630 70.446587
1628 65.611153
1626 61.244942
1624 56.916599
1622 52.555954
1620 48.339886
1618 44.277905
1616 40.493317
1614 37.005772
1612 33.962952
1610 31.37282
1608 29.20628
1606 27.439306
1604 25.923882
1602 24.674986
1600 23.674109
1598 22.932072
1596 22.4265
1594 22.139303
1592 22.013115
1590 22.019272
1588 22.109268
1586 22.273064
1584 22.49884
1582 22.775471
1580 23.097092
1578 23.518007
1576 24.055799
1574 24.776688
1572 25.684368
1570 26.728495
1568 27.891081
1566 29.097736
1564 30.346861
1562 31.809763
1560 33.587387
1558 36.317261
1556 40.069572
1554 44.154953
1552 48.310646
1550 51.449348
1548 53.592823
1546 55.333893
1544 56.6912
1542 57.830811
1540 58.632278
1538 58.914696
1536 58.59343
1534 57.664509
1532 56.285847
1530 54.717693
1528 53.018326
1526 51.239449
1524 49.310242
1522 47.174416
1520 44.863762
1518 42.356632
1516 39.970657
1514 37.825642
1512 35.750839
1510 33.747612
1508 31.249561
1506 28.106985
1504 24.957748
1502 21.851278
1500 19.223568
1498 17.125999
1496 15.050428
1494 12.999085
1492 10.935856
1490 8.8792114
1488 6.8630223
1486 4.9536958
1484 3.2560661
1482 1.8529932
1480 0.83846331
1478 0.23203872
1476 0.050149333
1474 0.39854866
1472 1.2288768
1470 2.260751
1468 3.3160043
1466 4.2124062
1464 4.8372788
1462 5.3424325
1460 5.7768149
1458 6.2226481
1456 6.7003999
1454 7.1107726
1452 7.3894887
1450 7.5165462
1448 7.4180188
1446 7.2574677
1444 7.0149293
1442 6.7563801
1440 6.468596
1438 6.1054831
1436 5.6385331
1434 5.0395536
1432 4.3338594
1430 3.6672258
1428 3.0814581
1426 2.6630366
1424 2.4103281
1422 2.2890501
1420 2.2898443
1418 2.3750527
1416 2.5187342
1414 2.6904809
1412 2.8691657
1410 3.0628374
1408 3.2848337
1406 3.5616751
1404 3.8844402
1402 4.259696
1400 4.648932
1398 5.0434098
1396 5.4216642
1394 5.7603679
1392 6.0472808
1390 6.2217813
1388 6.2906933
1386 6.1844702
1384 5.961565
1382 5.5805001
1380 5.1446619
1378 4.6541362
1376 4.1693769
1374 3.7155514
1372 3.31547
1370 2.9750035
1368 2.6851022
1366 2.3956785
1364 2.0309806
1362 1.596602
1360 1.0851181
1358 0.59543234
1356 0.24560606
1354 0.021538366
1352 -0.012474285
1350 0.04565943
1348 0.19565666
1346 0.38546789
1344 0.61973161
1342 0.86790717
1340 1.1388632
1338 1.4015613
1336 1.6394886
1334 1.865278
1332 2.0488832
1330 2.235317
1328 2.4271948
1326 2.6385942
1324 2.8914392
1322 3.1726887
1320 3.4995623
1318 3.8498056
1316 4.2234802
1314 4.5905914
1312 4.9338112
1310 5.2328024
1308 5.4739261
1306 5.6480389
1304 5.762948
1302 5.8136401
1300 5.8269057
1298 5.8053994
1296 5.7718859
1294 5.7299609
1292 5.6888213
1290 5.6520658
1288 5.623508
1286 5.6130996
1284 5.6116123
1282 5.626791
1280 5.640214
1278 5.6482644
1276 5.6543012
1274 5.6623797
1272 5.686646
1270 5.7440004
1268 5.8268242
1266 5.9442
1264 6.0739627
1262 6.2149963
1260 6.3569798
1258 6.4991035
1256 6.6385312
1254 6.7732038
1252 6.8984871
1250 7.0147061
1248 7.1203704
1246 7.2180748
1244 7.3029346
1242 7.3752179
1240 7.4186735
1238 7.4351621
1236 7.3899813
1234 7.3024769
1232 7.1155238
1230 6.8840036
1228 6.5406866
1226 6.162992
1224 5.6955066
1222 5.2111964
1220 4.6884656
1218 4.1755581
1216 3.6851172
1214 3.221673
1212 2.8068044
1210 2.4223318
1208 2.0841331
1206 1.7793586
1204 1.5169841
1202 1.2876765
1200 1.0947524
1198 0.9345668
1196 0.80502713
1194 0.70592272
1192 0.62703747
1190 0.56048477
1188 0.500983
1186 0.44783294
1184 0.40818429
1182 0.41504717
1180 0.45953122
1178 0.61544859
1176 0.81626397
1174 1.1380491
1172 1.4698397
1170 1.8100032
1168 2.1125424
1166 2.295222
1164 2.423398
1162 2.4162281
1160 2.3700829
1158 2.2460742
1156 2.1007128
1154 1.9187851
1152 1.7154514
1150 1.4819424
1148 1.2289881
1146 0.95669639
1144 0.68833721
1142 0.43125752
1140 0.21947196
1138 0.055933818
1136 -0.0083155632
1134 0.001136899
1132 0.12587179
1130 0.30386022
1128 0.53063118
1126 0.75730139
1124 0.91442215
1122 1.0384506
1120 1.0523241
1118 1.0514613
1116 1.0259957
1114 1.0155618
1112 1.0707743
1110 1.1457956
1108 1.2816491
1106 1.4110551
1104 1.5195411
1102 1.5848838
1100 1.5641508
1098 1.5146959
1096 1.4255571
1094 1.3635702
1092 1.34004
1090 1.3573292
1088 1.4142834
1086 1.4750586
1084 1.53396
1082 1.5588642
1080 1.5567732
1078 1.5046149
1076 1.4256572
1074 1.3142377
1072 1.1936594
1070 1.0848424
1068 0.98068982
1066 0.89369345
1064 0.80709201
1062 0.70755351
1060 0.60971916
1058 0.5270161
1056 0.45452484
1054 0.42663747
1052 0.40262303
1050 0.39086038
1048 0.37544608
1046 0.35088751
1044 0.32270348
1042 0.28694597
1040 0.2473641
1038 0.20218104
1036 0.159174
1034 0.1184826
1032 0.073921427
1030 0.023614839
1028 -0.055102035
1026 -0.15577136
1024 -0.2847212
1022 -0.42796969
1020 -0.56489098
1018 -0.69544709
1016 -0.78113973
1014 -0.85060745
1012 -0.87427241
1010 -0.89061588
1008 -0.91292155
1006 -0.93775535
1004 -0.98705214
1002 -1.0338881
1000 -1.0623384
998 -1.0829873
996 -1.0688
994 -1.0494781
992 -1.015524
990 -0.99126571
988 -0.99058288
986 -1.0110193
984 -1.0671257
982 -1.1213573
980 -1.170512
978 -1.1833768
976 -1.1566943
974 -1.0882266
972 -0.98591781
970 -0.87234747
968 -0.75334781
966 -0.66768801
964 -0.59904557
962 -0.57208532
960 -0.5592863
958 -0.55559224
956 -0.55232614
954 -0.51009703
952 -0.46044841
950 -0.34318092
948 -0.22114344
946 -0.071846999
944 0.0016869605
942 0.052824743
940 0.16474268
938 0.33339509
936 0.49689627
934 0.64459062
932 0.75197673
930 0.77292985
928 0.76613408
926 0.71509731
924 0.65940577
922 0.59786689
920 0.51399153
918 0.4089542
916 0.28639758
914 0.15167341
912 0.044154942
910 -0.048034132
908 -0.11455519
906 -0.16972879
904 -0.19887184
902 -0.21965845
900 -0.12371072
898 -0.0083818436
896 0.28119001
