Image.
>Pix99999.
  .
5555
5555
2300
900
5555
2
1
0
701
5555
-8.1859000e-002
-8.3561562e-002
-8.5264124e-002
-8.6967692e-002
-8.8670254e-002
-9.0373814e-002
-9.2076391e-002
-9.3779936e-002
-9.5482513e-002
-9.7185083e-002
-9.8888628e-002
-1.0059318e-001
-1.0229086e-001
-1.0398843e-001
-1.0569580e-001
-1.0743272e-001
-1.0910183e-001
-1.1070114e-001
-1.1251320e-001
-1.1462246e-001
-1.1593314e-001
-1.1608640e-001
-1.1927660e-001
-1.2673029e-001
-1.2293366e-001
-8.8009179e-002
-3.2210657e-003
1.3410966e-001
2.6338762e-001
3.2669696e-001
3.4897500e-001
3.7064677e-001
3.9892164e-001
4.2655742e-001
4.2746040e-001
3.8226750e-001
3.2037663e-001
2.8255087e-001
2.9745373e-001
3.7677681e-001
4.7859916e-001
5.5046535e-001
5.6183624e-001
5.0396782e-001
4.2877722e-001
3.9753735e-001
4.3503472e-001
5.4250389e-001
6.7208511e-001
7.6841563e-001
8.0666357e-001
7.7983940e-001
7.1374905e-001
6.4385605e-001
6.0363829e-001
6.1944342e-001
6.9175118e-001
8.0886346e-001
9.4302785e-001
1.0626256e+000
1.1406229e+000
1.1585020e+000
1.1254214e+000
1.0641330e+000
1.0169691e+000
1.0253186e+000
1.1007780e+000
1.2381746e+000
1.4035800e+000
1.5540326e+000
1.6481700e+000
1.6541246e+000
1.5750308e+000
1.4328969e+000
1.2757450e+000
1.1532856e+000
1.0853314e+000
1.0755739e+000
1.1043452e+000
1.1469456e+000
1.1892772e+000
1.2239889e+000
1.2548271e+000
1.2895144e+000
1.3355880e+000
1.3971771e+000
1.4672648e+000
1.5341474e+000
1.5837537e+000
1.6027929e+000
1.5849186e+000
1.5290171e+000
1.4440577e+000
1.3476801e+000
1.2770435e+000
1.2689643e+000
1.3291548e+000
1.4412100e+000
1.5472260e+000
1.5854967e+000
1.5436286e+000
1.4365660e+000
1.3122455e+000
1.2209808e+000
1.1750239e+000
1.1678400e+000
1.1791406e+000
1.1891632e+000
1.2004104e+000
1.2248268e+000
1.2763686e+000
1.3652200e+000
1.4839560e+000
1.6166556e+000
1.7409500e+000
1.8335236e+000
1.8757485e+000
1.8558146e+000
1.7821072e+000
1.6739950e+000
1.5616515e+000
1.4758149e+000
1.4325871e+000
1.4378575e+000
1.4825948e+000
1.5510072e+000
1.6254821e+000
1.6896695e+000
1.7345663e+000
1.7560487e+000
1.7570014e+000
1.7456889e+000
1.7396297e+000
1.7577540e+000
1.8074800e+000
1.8857579e+000
1.9686131e+000
2.0268447e+000
2.0458512e+000
2.0237167e+000
1.9808201e+000
1.9439695e+000
1.9275140e+000
1.9336141e+000
1.9384211e+000
1.9110329e+000
1.8399900e+000
1.7283210e+000
1.6001126e+000
1.4831593e+000
1.3823143e+000
1.2928535e+000
1.2188087e+000
1.1716958e+000
1.1738760e+000
1.2453586e+000
1.3755429e+000
1.5394042e+000
1.7138743e+000
1.8793439e+000
2.0219858e+000
2.1324561e+000
2.2102842e+000
2.2584364e+000
2.2775948e+000
2.2649851e+000
2.2090123e+000
2.1005864e+000
1.9591199e+000
1.8177793e+000
1.7054329e+000
1.6407517e+000
1.6117829e+000
1.5936261e+000
1.5710652e+000
1.5409250e+000
1.5242165e+000
1.5473006e+000
1.6079271e+000
1.6848451e+000
1.7444972e+000
1.7535772e+000
1.7035300e+000
1.6023028e+000
1.4698160e+000
1.3366743e+000
1.2577226e+000
1.2902884e+000
1.4478492e+000
1.7089289e+000
2.0072570e+000
2.2638688e+000
2.4408424e+000
2.5263124e+000
2.5148976e+000
2.4091158e+000
2.2404239e+000
2.0580325e+000
1.9184197e+000
1.8695004e+000
1.9079715e+000
2.0003076e+000
2.1077323e+000
2.1942670e+000
2.2379153e+000
2.2289214e+000
2.1759403e+000
2.0974584e+000
2.0128274e+000
1.9355540e+000
1.8549501e+000
1.7500533e+000
1.6162571e+000
1.4670036e+000
1.3451312e+000
1.3006065e+000
1.3410269e+000
1.4438930e+000
1.5728555e+000
1.6881304e+000
1.7586600e+000
1.7586297e+000
1.6588874e+000
1.4382790e+000
1.1238320e+000
7.7870786e-001
4.9357364e-001
3.5489896e-001
3.6784378e-001
4.7850764e-001
6.0285676e-001
6.6022420e-001
6.4460987e-001
6.0398972e-001
6.0942197e-001
7.2243357e-001
9.1969597e-001
1.1241355e+000
1.2672960e+000
1.3049536e+000
1.2493601e+000
1.1478846e+000
1.0470504e+000
9.8296970e-001
9.6598798e-001
9.8216200e-001
9.8194945e-001
9.0004295e-001
6.9842654e-001
3.7820131e-001
2.3088582e-002
-2.3688576e-001
-3.0344239e-001
-1.3189045e-001
2.0641917e-001
5.7271135e-001
8.6738878e-001
1.0365460e+000
1.0683342e+000
9.7825021e-001
7.9507768e-001
5.5728334e-001
3.1928840e-001
1.3827497e-001
3.6148850e-002
4.4309222e-003
1.6300069e-002
3.4164809e-002
1.5182965e-002
-7.6391675e-002
-2.3212901e-001
-4.1473752e-001
-6.0299790e-001
-7.9114020e-001
-9.7016585e-001
-1.1281179e+000
-1.2609845e+000
-1.3675511e+000
-1.4303980e+000
-1.4176308e+000
-1.2903000e+000
-1.0228364e+000
-6.6682416e-001
-3.2737041e-001
-8.5259147e-002
1.9479452e-002
1.0823598e-002
-3.6074899e-002
-1.7507778e-002
1.7750564e-001
6.2198257e-001
1.3307583e+000
2.1946554e+000
3.0408061e+000
3.8309340e+000
4.6655593e+000
5.7340426e+000
7.2886639e+000
9.6318188e+000
1.2987887e+001
1.7062284e+001
2.1179699e+001
2.4862728e+001
2.7961956e+001
3.0795670e+001
3.4013416e+001
3.8188362e+001
4.3603081e+001
4.9728760e+001
5.5529037e+001
6.0647602e+001
6.5424194e+001
7.0299416e+001
7.5577133e+001
8.1039772e+001
8.6084251e+001
9.0345650e+001
9.3756844e+001
9.6355766e+001
9.8215202e+001
9.9376259e+001
9.9854500e+001
9.9707359e+001
9.9041519e+001
9.8000099e+001
9.6740501e+001
9.5371262e+001
9.3929504e+001
9.2334450e+001
9.0416641e+001
8.8030159e+001
8.5096458e+001
8.1677437e+001
7.7927292e+001
7.3874496e+001
6.9428581e+001
6.4572563e+001
5.9407795e+001
5.4178028e+001
4.9215137e+001
4.4726402e+001
4.0770481e+001
3.7338543e+001
3.4383110e+001
3.1839754e+001
2.9639864e+001
2.7746012e+001
2.6151794e+001
2.4852194e+001
2.3836245e+001
2.3094002e+001
2.2619987e+001
2.2417183e+001
2.2492569e+001
2.2827888e+001
2.3372458e+001
2.4049810e+001
2.4779110e+001
2.5563957e+001
2.6513704e+001
2.7822199e+001
2.9718517e+001
3.2266384e+001
3.5324680e+001
3.8627159e+001
4.1842350e+001
4.4757462e+001
4.7343987e+001
4.9799919e+001
5.2450077e+001
5.5248444e+001
5.7733250e+001
5.9489521e+001
6.0300129e+001
6.0242348e+001
5.9631680e+001
5.8587193e+001
5.6979984e+001
5.4774620e+001
5.2121117e+001
4.9313145e+001
4.6713932e+001
4.4438919e+001
4.2310398e+001
4.0147476e+001
3.7843952e+001
3.5354061e+001
3.2700405e+001
3.0010195e+001
2.7503815e+001
2.5332901e+001
2.3516588e+001
2.1902319e+001
2.0192696e+001
1.8211329e+001
1.5983557e+001
1.3679646e+001
1.1564153e+001
9.7614136e+000
8.2020893e+000
6.7870574e+000
5.4428339e+000
4.1614394e+000
3.0048964e+000
2.0266252e+000
1.2477484e+000
6.6624159e-001
2.6005900e-001
3.0845180e-003
-1.1240856e-001
2.5415719e-003
5.3172910e-001
1.5578148e+000
2.9942250e+000
4.6478858e+000
6.2583990e+000
7.6743517e+000
8.9085522e+000
1.0027876e+001
1.1112959e+001
1.2190000e+001
1.3201454e+001
1.4029716e+001
1.4519597e+001
1.4605012e+001
1.4353214e+001
1.3859403e+001
1.3212319e+001
1.2469474e+001
1.1645250e+001
1.0734086e+001
9.7270060e+000
8.6634674e+000
7.6459866e+000
6.7575979e+000
6.0314369e+000
5.4698973e+000
5.0530992e+000
4.7860999e+000
4.7114391e+000
4.8548660e+000
5.2020173e+000
5.7022743e+000
6.2704253e+000
6.8379936e+000
7.3687849e+000
7.8205237e+000
8.1342726e+000
8.2602482e+000
8.1747522e+000
7.9036646e+000
7.5331659e+000
7.1429172e+000
6.7785163e+000
6.4498916e+000
6.1270251e+000
5.7826848e+000
5.4066429e+000
4.9927635e+000
4.5357575e+000
4.0345287e+000
3.4949830e+000
2.9273279e+000
2.3447506e+000
1.7514949e+000
1.1408103e+000
5.2464944e-001
-5.0401241e-002
-5.1768416e-001
-7.9828537e-001
-8.4958756e-001
-6.8810701e-001
-3.3081132e-001
2.1796539e-001
9.1259110e-001
1.6431537e+000
2.3206401e+000
2.9150987e+000
3.4244077e+000
3.8662014e+000
4.2394857e+000
4.5064306e+000
4.6242590e+000
4.5615158e+000
4.3217955e+000
3.9626787e+000
3.5533457e+000
3.1586092e+000
2.8233011e+000
2.5590546e+000
2.3638899e+000
2.2255604e+000
2.1314943e+000
2.0722854e+000
2.0408623e+000
2.0323107e+000
2.0420287e+000
2.0648711e+000
2.0973544e+000
2.1408641e+000
2.2093716e+000
2.3364446e+000
2.5592988e+000
2.9096122e+000
3.3938999e+000
3.9748907e+000
4.5963874e+000
5.1892996e+000
5.6995921e+000
6.1083522e+000
6.4198489e+000
6.6657138e+000
6.8827963e+000
7.1050892e+000
7.3590679e+000
7.6589098e+000
8.0156574e+000
8.4403915e+000
8.9486618e+000
9.5632553e+000
1.0301971e+001
1.1168230e+001
1.2149254e+001
1.3213418e+001
1.4329885e+001
1.5477751e+001
1.6639090e+001
1.7791531e+001
1.8886942e+001
1.9837009e+001
2.0545143e+001
2.0919590e+001
2.0896641e+001
2.0460310e+001
1.9627483e+001
1.8455122e+001
1.7024874e+001
1.5447073e+001
1.3846294e+001
1.2362090e+001
1.1115542e+001
1.0179428e+001
9.5882893e+000
9.3193951e+000
9.3185091e+000
9.4937906e+000
9.7365999e+000
9.9239368e+000
9.9482145e+000
9.7451258e+000
9.2904425e+000
8.6234121e+000
7.8089542e+000
6.9325962e+000
6.0767517e+000
5.3041434e+000
4.6525731e+000
4.1162620e+000
3.6737683e+000
3.2933819e+000
2.9550400e+000
2.6682973e+000
2.4460576e+000
2.2925241e+000
2.2033021e+000
2.1598551e+000
2.1457868e+000
2.1557400e+000
2.1819103e+000
2.2045176e+000
2.1967628e+000
2.1241679e+000
1.9630136e+000
1.7189718e+000
1.4122180e+000
1.0785874e+000
7.5482500e-001
4.6975183e-001
2.3798069e-001
4.7449440e-002
-1.0536103e-001
-1.9086879e-001
-1.9020775e-001
-1.2947085e-001
-5.1007133e-002
-8.0845039e-003
-3.5332657e-002
-1.1587249e-001
-2.1923959e-001
-3.1333119e-001
-3.7898842e-001
-4.2829898e-001
-4.6693984e-001
-4.6677715e-001
-3.9698261e-001
-2.4240190e-001
-1.1404991e-002
2.3923877e-001
4.5406681e-001
6.1256635e-001
7.2334284e-001
8.4651572e-001
1.0394200e+000
1.3189681e+000
1.6788434e+000
2.0780501e+000
2.4717801e+000
2.8260796e+000
3.1051548e+000
3.2620871e+000
3.2618501e+000
3.1093090e+000
2.8413126e+000
2.5528634e+000
2.3406811e+000
2.2646542e+000
2.3465800e+000
2.5289645e+000
2.7311606e+000
2.8633537e+000
2.8599286e+000
2.7286422e+000
2.5093029e+000
2.2800970e+000
2.1126697e+000
2.0348752e+000
2.0563040e+000
2.1664820e+000
2.3544502e+000
2.6204424e+000
2.9523499e+000
3.2941785e+000
3.5759733e+000
3.7204754e+000
3.6714306e+000
3.4405265e+000
3.0632954e+000
2.5971971e+000
2.1030400e+000
1.6335759e+000
1.2332072e+000
9.2462313e-001
7.0934212e-001
5.4006374e-001
3.5959601e-001
1.1870308e-001
-2.0641050e-001
-5.6701005e-001
-9.0393054e-001
-1.1824385e+000
-1.3922787e+000
-1.5810680e+000
-1.7945223e+000
-2.0258265e+000
-2.2443914e+000
-2.3846672e+000
-2.3938890e+000
-2.2887244e+000
-2.1068940e+000
-1.8982129e+000
-1.7103143e+000
-1.5729889e+000
-1.5071398e+000
-1.5187801e+000
-1.5938338e+000
-1.6624401e+000
-1.6516278e+000
-1.5248002e+000
-1.2710830e+000
-9.3773341e-001
-5.8531857e-001
-2.7028555e-001
-4.0651113e-002
8.2311600e-002
9.8539248e-002
5.9321783e-002
2.2035291e-002
1.9931480e-002
6.6638291e-002
1.2729330e-001
1.7526999e-001
2.5734866e-001
4.2769882e-001
7.0014268e-001
1.0616217e+000
1.4370185e+000
1.7534440e+000
2.0042214e+000
2.1980567e+000
2.3403537e+000
2.4318101e+000
2.4596756e+000
2.4268737e+000
2.4080141e+000
2.4802384e+000
2.6601315e+000
2.9301236e+000
3.1958997e+000
3.3585548e+000
3.3774836e+000
3.2262001e+000
