##TITLE=Methyl Ethyl Ketone
##JCAMP-DX=4.24
##DATA TYPE=INFRARED SPECTRUM
##XUNITS=cm-1
##YUNITS=Absorbance
##FIRSTX=900
##LASTX=2300
##XYDATA=(X++(Y..Y))
2296 0.019723
2294 0.020142401
2292 0.020561801
2290 0.020980204
2288 0.0213996
2286 0.021818006
2284 0.0222374
2282 0.0226568
2280 0.023075212
2278 0.023494599
2276 0.023914
2274 0.024332415
2272 0.024751801
2270 0.0251712
2268 0.025589621
2266 0.026008999
2264 0.0264284
2262 0.026846824
2260 0.027266201
2258 0.027684627
2256 0.028104002
2254 0.028523399
2252 0.028941831
2250 0.0293612
2248 0.0297806
2246 0.030199036
2244 0.0021776222
2242 0.0047666421
2240 0.0037573881
2238 0.025546223
2236 0.050742086
2234 0.072502971
2232 0.092598245
2230 0.080982067
2228 0.064753816
2226 0.02393255
2224 -0.015100936
2222 -0.040204763
2220 -0.05666893
2218 -0.049061257
2216 -0.036098313
2214 -0.01440657
2212 0.0044487137
2210 0.017831443
2208 0.022941109
2206 0.018152814
2204 0.0074424911
2202 -0.0083791818
2200 -0.023991594
2198 -0.039205372
2196 -0.043861713
2194 -0.042443182
2192 -0.031792033
2190 -0.017263949
2188 -0.0092897704
2186 -0.0035305473
2184 -0.004131488
2182 -0.0061642434
2180 -0.012906445
2178 -0.020510709
2176 -0.042035542
2174 -0.065297261
2172 -0.093770631
2170 -0.1209009
2168 -0.1374492
2166 -0.14965592
2164 -0.14976372
2162 -0.14979565
2160 -0.15272623
2158 -0.16480364
2156 -0.19365701
2154 -0.23288751
2152 -0.28465316
2150 -0.33295307
2148 -0.37587559
2146 -0.39961892
2144 -0.40688634
2142 -0.40276408
2140 -0.39189035
2138 -0.38584492
2136 -0.3828043
2134 -0.37825426
2132 -0.37297672
2130 -0.35480076
2128 -0.33254319
2126 -0.3011007
2124 -0.2675966
2122 -0.25180423
2120 -0.24069898
2118 -0.26460922
2116 -0.29579228
2114 -0.34411561
2112 -0.39459285
2110 -0.44368532
2108 -0.48730317
2106 -0.51499557
2104 -0.53135699
2102 -0.52787966
2100 -0.52176124
2098 -0.51610202
2096 -0.52192712
2094 -0.54265153
2092 -0.56966645
2090 -0.60094172
2088 -0.62676394
2086 -0.64764553
2084 -0.67262405
2082 -0.70079368
2080 -0.73600477
2078 -0.77466691
2076 -0.80342448
2074 -0.82787794
2072 -0.8319
2070 -0.82944107
2068 -0.8062399
2066 -0.77841169
2064 -0.77028096
2062 -0.77043784
2060 -0.81728637
2058 -0.8723917
2056 -0.92235661
2054 -0.96081841
2052 -0.96131176
2050 -0.95224279
2048 -0.93747836
2046 -0.93068427
2044 -0.94137383
2042 -0.95988029
2040 -0.98539299
2038 -1.0115104
2036 -1.0370643
2034 -1.0617963
2032 -1.085712
2030 -1.104375
2028 -1.1187774
2026 -1.1198665
2024 -1.1125709
2022 -1.094734
2020 -1.0720131
2018 -1.0694036
2016 -1.07566
2014 -1.1133552
2012 -1.1617194
2010 -1.1991521
2008 -1.2321731
2006 -1.2404064
2004 -1.2421454
2002 -1.2411571
2000 -1.2372514
1998 -1.2227612
1996 -1.2055072
1994 -1.187526
1992 -1.1884537
1990 -1.2333256
1988 -1.300334
1986 -1.3885964
1984 -1.4625343
1982 -1.5093715
1980 -1.535302
1978 -1.5442189
1976 -1.5445514
1974 -1.5401421
1972 -1.5209923
1970 -1.4911282
1968 -1.4663182
1966 -1.4460964
1964 -1.458588
1962 -1.4883419
1960 -1.518496
1958 -1.547902
1956 -1.56242
1954 -1.5719793
1952 -1.5902154
1950 -1.6111346
1948 -1.6255425
1946 -1.6355751
1944 -1.6340823
1942 -1.6301103
1940 -1.633898
1938 -1.6419753
1936 -1.65616
1934 -1.6709025
1932 -1.68163
1930 -1.683583
1928 -1.6716795
1926 -1.63866
1924 -1.5821868
1922 -1.5169115
1920 -1.4495361
1918 -1.4092541
1916 -1.3952714
1914 -1.4023347
1912 -1.4208223
1910 -1.4511257
1908 -1.4871012
1906 -1.5449142
1904 -1.6144921
1902 -1.6653705
1900 -1.7073331
1898 -1.6906861
1896 -1.6496142
1894 -1.5863743
1892 -1.5203109
1890 -1.4956521
1888 -1.4979182
1886 -1.5499657
1884 -1.618124
1882 -1.6792415
1880 -1.7204268
1878 -1.7203293
1876 -1.68471
1874 -1.6076602
1872 -1.4972399
1870 -1.3558688
1868 -1.2378026
1866 -1.1636971
1864 -1.169584
1862 -1.249048
1860 -1.3448012
1858 -1.4370736
1856 -1.4962143
1854 -1.5291547
1852 -1.5233551
1850 -1.4937721
1848 -1.426524
1846 -1.3380821
1844 -1.2755523
1842 -1.227671
1840 -1.2205937
1838 -1.2294445
1836 -1.2027942
1834 -1.151415
1832 -1.0491942
1830 -0.92538798
1828 -0.80807918
1826 -0.72076565
1824 -0.71227312
1822 -0.76223987
1820 -0.86701721
1818 -0.98099399
1816 -1.0709629
1814 -1.1206665
1812 -1.1235634
1810 -1.0958889
1808 -1.0507029
1806 -0.99012196
1804 -0.9192127
1802 -0.84622449
1800 -0.77265382
1798 -0.70573199
1796 -0.64387643
1794 -0.56685561
1792 -0.47996962
1790 -0.41725495
1788 -0.37263975
1786 -0.36531541
1784 -0.37791198
1782 -0.36773646
1780 -0.33773562
1778 -0.25519919
1776 -0.13410063
1774 0.032716282
1772 0.20302577
1770 0.30431953
1768 0.3327615
1766 0.26135901
1764 0.1616178
1762 0.10012954
1760 0.031786334
1758 -0.072026253
1756 -0.14975828
1754 -0.17106317
1752 -0.10691217
1750 0.039270133
1748 0.18177246
1746 0.29208606
1744 0.26971722
1742 0.12607862
1740 -0.020714603
1738 -0.14777327
1736 -0.13004699
1734 -0.0013550706
1732 0.1070105
1730 0.18628477
1728 0.10708547
1726 -0.070716582
1724 -0.17896731
1722 -0.1969402
1720 0.036404282
1718 0.48767507
1716 1.1689935
1714 1.9302421
1712 2.538125
1710 3.0493422
1708 3.5332701
1706 4.1910906
1704 5.2103763
1702 6.8432512
1700 9.2063656
1698 12.420617
1696 16.412001
1694 20.41028
1692 24.073524
1690 27.348591
1688 30.308914
1686 33.857254
1684 38.077553
1682 43.125122
1680 48.816563
1678 53.776058
1676 58.047615
1674 62.162971
1672 66.249405
1670 71.077003
1668 76.454132
1666 81.773201
1664 86.932808
1662 91.591675
1660 95.736404
1658 99.298981
1656 102.204
1654 104.34584
1652 105.5404
1650 105.60995
1648 104.38703
1646 101.84179
1644 98.595642
1642 95.220238
1640 91.649651
1638 87.875565
1636 83.475945
1634 78.349525
1632 73.194374
1630 68.249329
1628 63.718479
1626 59.592831
1624 55.437561
1622 51.189365
1620 47.069427
1618 43.093193
1616 39.397686
1614 36.000366
1612 33.006111
1610 30.426901
1608 28.245462
1606 26.445093
1604 24.905273
1602 23.640934
1600 22.636623
1598 21.90008
1596 21.401001
1594 21.115807
1592 20.981153
1590 20.965899
1588 21.02298
1586 21.163628
1584 21.388771
1582 21.72337
1580 22.173399
1578 22.778641
1576 23.546886
1574 24.452192
1572 25.477518
1570 26.557756
1568 27.675079
1566 28.826063
1564 30.017094
1562 31.446054
1560 33.216442
1558 35.961338
1556 39.730156
1554 43.77494
1552 47.854782
1550 50.958752
1548 53.149467
1546 55.068249
1544 56.728035
1542 58.245537
1540 59.33868
1538 59.613693
1536 59.052258
1534 57.774502
1532 56.114067
1530 54.473392
1528 52.856007
1526 51.26265
1524 49.565281
1522 47.681095
1520 45.538288
1518 43.080849
1516 40.625858
1514 38.278057
1512 36.043041
1510 33.94714
1508 31.410366
1506 28.286907
1504 25.119732
1502 21.962502
1500 19.295921
1498 17.176981
1496 15.098572
1494 13.056221
1492 10.985511
1490 8.8997221
1488 6.8442321
1486 4.8850794
1484 3.1300421
1482 1.6861248
1480 0.66446394
1478 0.10332367
1476 0.03885676
1474 0.52883977
1472 1.4894235
1470 2.5687311
1468 3.536047
1466 4.3143792
1464 4.8343177
1462 5.3171568
1460 5.8571053
1458 6.448967
1456 7.1045003
1454 7.5657024
1452 7.704401
1450 7.6444435
1448 7.3110228
1446 6.9687181
1444 6.6196966
1442 6.298377
1440 6.0072956
1438 5.6950846
1436 5.3376298
1434 4.8800898
1432 4.3237028
1430 3.7456574
1428 3.1899822
1426 2.7578037
1424 2.4752522
1422 2.3564746
1420 2.3812313
1418 2.5072584
1416 2.6720943
1414 2.807848
1412 2.9312825
1410 3.0611894
1408 3.2396491
1406 3.5130935
1404 3.8539476
1402 4.2784033
1400 4.7388
1398 5.2408471
1396 5.7275
1394 6.1726761
1392 6.5164189
1390 6.6754127
1388 6.6973052
1386 6.50245
1384 6.1930971
1382 5.7328987
1380 5.2398973
1378 4.7182598
1376 4.2201543
1374 3.7576153
1372 3.3296261
1370 2.9426756
1368 2.595104
1366 2.2602422
1364 1.8909631
1362 1.4827138
1360 1.0220522
1358 0.58216512
1356 0.25324172
1354 0.037078504
1352 -0.0043976242
1350 0.037377171
1348 0.1576124
1346 0.30738607
1344 0.49875402
1342 0.72128606
1340 1.0026019
1338 1.2829428
1336 1.5509971
1334 1.7681937
1332 1.8886749
1330 1.996938
1328 2.0947869
1326 2.2395465
1324 2.4611287
1322 2.7398307
1320 3.0915
1318 3.4696279
1316 3.8639801
1314 4.223269
1312 4.5279942
1310 4.7509251
1308 4.8949151
1306 4.9692187
1304 4.9952459
1302 4.9907861
1300 4.9691019
1298 4.9333005
1296 4.8902574
1294 4.8380203
1292 4.7884383
1290 4.7508531
1288 4.7228761
1286 4.7152286
1284 4.7112327
1282 4.7124858
1280 4.7141857
1278 4.7173371
1276 4.7272515
1274 4.752913
1272 4.7938719
1270 4.8625698
1268 4.946528
1266 5.0511432
1264 5.1606445
1262 5.2750168
1260 5.3902597
1258 5.5054479
1256 5.6180658
1254 5.7268434
1252 5.8290963
1250 5.9277616
1248 6.0283957
1246 6.12535
1244 6.2049699
1242 6.2609167
1240 6.2585545
1238 6.2239089
1236 6.1361489
1234 6.0240507
1232 5.8651638
1230 5.669673
1228 5.3703074
1226 5.027802
1224 4.5701022
1222 4.0963469
1220 3.586998
1218 3.089988
1216 2.6211801
1214 2.1833735
1212 1.8022586
1210 1.4631009
1208 1.1843532
1206 0.93437862
1204 0.71756279
1202 0.51186156
1200 0.31976616
1198 0.14452393
1196 -0.010949008
1194 -0.13338095
1192 -0.22781263
1190 -0.28323931
1188 -0.31044358
1186 -0.29179966
1184 -0.24169943
1182 -0.12411799
1180 0.028091818
1178 0.25946441
1176 0.51182002
1174 0.80542523
1172 1.09228
1170 1.3422173
1168 1.5665572
1166 1.7107222
1164 1.8247783
1162 1.863441
1160 1.8752005
1158 1.8311965
1156 1.7618014
1154 1.6474607
1152 1.5010692
1150 1.3095464
1148 1.0913361
1146 0.84637392
1144 0.6047191
1142 0.37389809
1140 0.18763363
1138 0.045756049
1136 -0.015581172
1134 -0.019648403
1132 0.077242605
1130 0.22237042
1128 0.41820675
1126 0.62460852
1124 0.81408846
1122 0.98973262
1120 1.107996
1118 1.2092953
1116 1.2485456
1114 1.2821423
1112 1.2974319
1110 1.32423
1108 1.3883514
1106 1.46438
1104 1.567632
1102 1.6555961
1100 1.7116683
1098 1.7445681
1096 1.7423428
1094 1.7406162
1092 1.741152
1090 1.7549721
1088 1.7821885
1086 1.8147807
1084 1.8476683
1082 1.8539512
1080 1.8377697
1078 1.773533
1076 1.6860843
1074 1.5867407
1072 1.4855382
1070 1.3997091
1068 1.3167204
1066 1.2314936
1064 1.1467681
1062 1.0684108
1060 0.99526668
1058 0.95423341
1056 0.91611004
1054 0.89001417
1052 0.85637403
1050 0.79863358
1048 0.7360816
1046 0.66315895
1044 0.60191929
1042 0.56229329
1040 0.52610928
1038 0.49216175
1036 0.432116
1034 0.33955091
1032 0.21419087
1030 0.059484638
1028 -0.10157818
1026 -0.26494485
1024 -0.4080399
1022 -0.53733981
1020 -0.63213891
1018 -0.70962507
1016 -0.74282914
1014 -0.76281118
1012 -0.76816612
1010 -0.77362186
1008 -0.80868399
1006 -0.84755224
1004 -0.9023301
1002 -0.95283103
1000 -0.97308493
998 -0.98448664
996 -0.95696425
994 -0.92604828
992 -0.88484806
990 -0.84447503
988 -0.80612069
986 -0.76921189
984 -0.7354719
982 -0.71591961
980 -0.71562642
978 -0.72412318
976 -0.74020541
974 -0.72979778
972 -0.69764739
970 -0.65207201
968 -0.60040796
966 -0.58909249
964 -0.59631741
962 -0.61119264
960 -0.62546712
958 -0.57341695
956 -0.50590324
954 -0.40749434
952 -0.30640918
950 -0.22950579
948 -0.15175402
946 -0.049695428
944 0.0019366965
942 0.060265668
940 0.17542611
938 0.30046591
936 0.42475685
934 0.54705751
932 0.67259943
930 0.80446184
928 0.91389775
926 0.98666823
924 1.0143584
922 0.98701864
920 0.94366938
918 0.88556588
916 0.83902973
914 0.80076844
912 0.77821916
910 0.76437092
908 0.77052206
906 0.78498703
904 0.83355093
902 0.89166385
900 1.0160866
898 1.1511859
896 1.2811
