Image.
>Pix99999.
  .
5555
5555
2300
900
5555
2
1
0
701
5555
4.7245000e-002
4.8227597e-002
4.9210187e-002
5.0192785e-002
5.1176373e-002
5.2158970e-002
5.3141564e-002
5.4125149e-002
5.5107754e-002
5.6089360e-002
5.7072930e-002
5.8058493e-002
5.9039164e-002
6.0012892e-002
6.1004139e-002
6.2021166e-002
6.2971286e-002
6.3827232e-002
6.4932384e-002
6.6387206e-002
6.6915631e-002
6.6143334e-002
6.8810657e-002
7.6329522e-002
7.1062945e-002
3.9696462e-002
7.5661154e-003
6.6925096e-003
5.2354939e-002
1.4443269e-001
2.4014871e-001
2.9859236e-001
3.3521616e-001
3.7634593e-001
4.2624247e-001
4.7712100e-001
4.9918213e-001
4.6732679e-001
4.0133274e-001
3.3219212e-001
2.8245059e-001
2.6572746e-001
2.7073500e-001
2.8347099e-001
3.0935797e-001
3.5892984e-001
4.3890616e-001
5.5014199e-001
6.7462635e-001
7.9048693e-001
8.8368213e-001
9.4545060e-001
9.7805202e-001
9.8666060e-001
9.7441685e-001
9.4426972e-001
9.0148479e-001
8.5331905e-001
8.1226158e-001
7.9141068e-001
7.9956460e-001
8.4215194e-001
9.1671103e-001
1.0166903e+000
1.1290228e+000
1.2391857e+000
1.3347183e+000
1.4046394e+000
1.4397206e+000
1.4356787e+000
1.4041200e+000
1.3635890e+000
1.3391246e+000
1.3501461e+000
1.3840731e+000
1.4190607e+000
1.4402720e+000
1.4398190e+000
1.4281263e+000
1.4184495e+000
1.4106686e+000
1.4000729e+000
1.3838797e+000
1.3618915e+000
1.3403680e+000
1.3298929e+000
1.3485357e+000
1.4126000e+000
1.5202692e+000
1.6589694e+000
1.7988386e+000
1.9072800e+000
1.9656183e+000
1.9661565e+000
1.9252906e+000
1.8696629e+000
1.8314410e+000
1.8370234e+000
1.8814420e+000
1.9466112e+000
2.0117428e+000
2.0600207e+000
2.0955603e+000
2.1285589e+000
2.1602201e+000
2.1872549e+000
2.2030799e+000
2.2014725e+000
2.1826172e+000
2.1500878e+000
2.1108172e+000
2.0739563e+000
2.0524080e+000
2.0567794e+000
2.0833144e+000
2.1201243e+000
2.1480079e+000
2.1494682e+000
2.1247885e+000
2.0837119e+000
2.0431571e+000
2.0209980e+000
2.0254793e+000
2.0580931e+000
2.1090519e+000
2.1643536e+000
2.2111180e+000
2.2396643e+000
2.2505739e+000
2.2497160e+000
2.2459428e+000
2.2466631e+000
2.2497590e+000
2.2485371e+000
2.2345161e+000
2.2032115e+000
2.1688640e+000
2.1518247e+000
2.1641529e+000
2.2084324e+000
2.2666600e+000
2.3150349e+000
2.3440490e+000
2.3544312e+000
2.3597715e+000
2.3772120e+000
2.4159272e+000
2.4786408e+000
2.5566165e+000
2.6353333e+000
2.6969428e+000
2.7256701e+000
2.7186136e+000
2.6814859e+000
2.6306601e+000
2.5855994e+000
2.5600131e+000
2.5630021e+000
2.5982618e+000
2.6645505e+000
2.7501657e+000
2.8372819e+000
2.9033911e+000
2.9285769e+000
2.9125509e+000
2.8665514e+000
2.8109460e+000
2.7671189e+000
2.7440720e+000
2.7431376e+000
2.7600999e+000
2.7886271e+000
2.8235052e+000
2.8593524e+000
2.8874366e+000
2.8994250e+000
2.8941884e+000
2.8763342e+000
2.8583484e+000
2.8537767e+000
2.8642485e+000
2.8843596e+000
2.9074161e+000
2.9273112e+000
2.9426672e+000
2.9539778e+000
2.9598575e+000
2.9607067e+000
2.9691577e+000
3.0015728e+000
3.0606313e+000
3.1370623e+000
3.2059538e+000
3.2408657e+000
3.2429907e+000
3.2290356e+000
3.2128520e+000
3.2015736e+000
3.1857047e+000
3.1525156e+000
3.1127572e+000
3.0888963e+000
3.0923660e+000
3.1226380e+000
3.1591086e+000
3.1743379e+000
3.1577399e+000
3.1104896e+000
3.0388663e+000
2.9495955e+000
2.8444300e+000
2.7236595e+000
2.5963566e+000
2.4772840e+000
2.3835330e+000
2.3292928e+000
2.3113761e+000
2.3147960e+000
2.3180196e+000
2.2989225e+000
2.2449799e+000
2.1517656e+000
2.0238609e+000
1.8724705e+000
1.7163240e+000
1.5777428e+000
1.4768562e+000
1.4272448e+000
1.4198669e+000
1.4320657e+000
1.4415971e+000
1.4316399e+000
1.4018989e+000
1.3639480e+000
1.3358549e+000
1.3360722e+000
1.3709555e+000
1.4361087e+000
1.5152560e+000
1.5858730e+000
1.6277486e+000
1.6265249e+000
1.5851685e+000
1.5197554e+000
1.4552280e+000
1.4135250e+000
1.3810323e+000
1.3211231e+000
1.2028503e+000
1.0136852e+000
7.9397428e-001
6.1424321e-001
5.2407598e-001
5.4175389e-001
6.2724268e-001
7.0987505e-001
7.5114089e-001
7.4390531e-001
7.0153368e-001
6.4392012e-001
5.7114542e-001
4.7148728e-001
3.4893006e-001
2.2183000e-001
1.1473434e-001
5.0057635e-002
2.8068841e-002
2.8581802e-002
1.1733806e-002
-6.3024521e-002
-1.8406001e-001
-3.0778745e-001
-4.2497319e-001
-5.5576998e-001
-7.1546423e-001
-9.0777326e-001
-1.1187167e+000
-1.3221213e+000
-1.4902285e+000
-1.5966513e+000
-1.6185200e+000
-1.5412298e+000
-1.3774751e+000
-1.1603390e+000
-9.2384583e-001
-6.9500309e-001
-4.7868401e-001
-2.6296070e-001
-3.4729000e-002
2.2268297e-001
5.4989660e-001
9.9156022e-001
1.5227263e+000
2.0756252e+000
2.6501820e+000
3.3188379e+000
4.2033167e+000
5.4800901e+000
7.4439440e+000
1.0378807e+001
1.4094714e+001
1.8021561e+001
2.1664139e+001
2.4746103e+001
2.7442474e+001
3.0265650e+001
3.3668583e+001
3.7876957e+001
4.2527599e+001
4.6890144e+001
5.0735245e+001
5.4348572e+001
5.8109596e+001
6.2315636e+001
6.6878654e+001
7.1413200e+001
7.5662148e+001
7.9540169e+001
8.3004120e+001
8.6024796e+001
8.8611855e+001
9.0812973e+001
9.2697319e+001
9.4318161e+001
9.5589813e+001
9.6331894e+001
9.6495850e+001
9.6157799e+001
9.5338875e+001
9.3978981e+001
9.1983658e+001
8.9280159e+001
8.5971237e+001
8.2296761e+001
7.8386024e+001
7.4236374e+001
6.9833878e+001
6.5201485e+001
6.0477531e+001
5.5891758e+001
5.1627686e+001
4.7793072e+001
4.4431694e+001
4.1529099e+001
3.9012295e+001
3.6773277e+001
3.4747982e+001
3.2928131e+001
3.1329258e+001
2.9974243e+001
2.8862999e+001
2.7968636e+001
2.7258789e+001
2.6704571e+001
2.6289484e+001
2.6006065e+001
2.5840942e+001
2.5778629e+001
2.5828184e+001
2.6029732e+001
2.6435486e+001
2.7092943e+001
2.8002342e+001
2.9110788e+001
3.0343481e+001
3.1616699e+001
3.2865498e+001
3.4083519e+001
3.5459412e+001
3.7322594e+001
3.9729630e+001
4.2392532e+001
4.4903057e+001
4.6864216e+001
4.8204178e+001
4.9183784e+001
4.9980167e+001
5.0596790e+001
5.0995739e+001
5.1135036e+001
5.0987198e+001
5.0549305e+001
4.9852577e+001
4.8953407e+001
4.7874508e+001
4.6595001e+001
4.5102802e+001
4.3417297e+001
4.1614452e+001
3.9821056e+001
3.8126587e+001
3.6538319e+001
3.4921959e+001
3.3018948e+001
3.0673805e+001
2.7917286e+001
2.4974977e+001
2.2218544e+001
1.9836622e+001
1.7753201e+001
1.5829429e+001
1.3932604e+001
1.1999580e+001
1.0052935e+001
8.1315365e+000
6.2805514e+000
4.5758638e+000
3.1181939e+000
1.9460566e+000
1.0287870e+000
4.0574503e-001
2.0128465e-001
4.4013971e-001
9.9559212e-001
1.7066846e+000
2.4232180e+000
3.0664880e+000
3.6472979e+000
4.1930466e+000
4.7260213e+000
5.2579203e+000
5.7821655e+000
6.2586956e+000
6.6150131e+000
6.8090696e+000
6.8503108e+000
6.7659688e+000
6.5875649e+000
6.3215599e+000
5.9412303e+000
5.4228926e+000
4.7657661e+000
4.0236616e+000
3.3108900e+000
2.7119679e+000
2.2490785e+000
1.9157246e+000
1.6880783e+000
1.5605903e+000
1.5566946e+000
1.6943715e+000
1.9716811e+000
2.3638673e+000
2.8223958e+000
3.3053782e+000
3.7882450e+000
4.2514725e+000
4.6780763e+000
5.0577040e+000
5.3899341e+000
5.6836572e+000
5.9545836e+000
6.2006593e+000
6.3923759e+000
6.4971566e+000
6.4895849e+000
6.3611794e+000
6.1247792e+000
5.7911515e+000
5.3638363e+000
4.8605857e+000
4.3243871e+000
3.8092320e+000
3.3689742e+000
3.0089605e+000
2.6626813e+000
2.2643688e+000
1.7828245e+000
1.2457511e+000
7.5378752e-001
3.8484156e-001
1.5254505e-001
3.8504623e-002
-1.6174233e-004
7.8978576e-003
6.4275071e-002
1.7033280e-001
3.1571329e-001
4.8452249e-001
6.5603614e-001
8.0787659e-001
9.1804528e-001
9.7267532e-001
9.7303587e-001
9.3532610e-001
8.9366877e-001
8.7941569e-001
9.1108435e-001
9.9539292e-001
1.1234775e+000
1.2787900e+000
1.4377066e+000
1.5754235e+000
1.6692982e+000
1.7088126e+000
1.7037657e+000
1.6722091e+000
1.6379820e+000
1.6218966e+000
1.6370621e+000
1.6948285e+000
1.8048840e+000
1.9691906e+000
2.1757627e+000
2.4057322e+000
2.6352007e+000
2.8472188e+000
3.0399389e+000
3.2176673e+000
3.3895681e+000
3.5669100e+000
3.7620418e+000
3.9850101e+000
4.2407737e+000
4.5291853e+000
4.8440957e+000
5.1847582e+000
5.5633235e+000
5.9948702e+000
6.4924831e+000
7.0588083e+000
7.6782122e+000
8.3342581e+000
9.0178051e+000
9.7260189e+000
1.0463500e+001
1.1225903e+001
1.1986134e+001
1.2708874e+001
1.3351800e+001
1.3877485e+001
1.4260495e+001
1.4480880e+001
1.4523381e+001
1.4381125e+001
1.4058986e+001
1.3569320e+001
1.2930685e+001
1.2171609e+001
1.1337740e+001
1.0482160e+001
9.6614122e+000
8.9220610e+000
8.2838764e+000
7.7490587e+000
7.2950702e+000
6.8881397e+000
6.4838238e+000
6.0422125e+000
5.5388036e+000
4.9641500e+000
4.3330612e+000
3.6704772e+000
3.0111709e+000
2.3907769e+000
1.8411964e+000
1.3866479e+000
1.0358129e+000
7.8930730e-001
6.3773620e-001
5.6753802e-001
5.6087720e-001
5.9608006e-001
6.4597547e-001
6.8852061e-001
7.1669477e-001
7.3351586e-001
7.5577348e-001
7.9671121e-001
8.5349178e-001
9.1343302e-001
9.5065242e-001
9.3993717e-001
8.6594856e-001
7.2468936e-001
5.3392464e-001
3.2472244e-001
1.4547245e-001
3.6073804e-002
6.9668330e-003
6.2976465e-002
2.1126901e-001
4.5168608e-001
7.6479447e-001
1.1219337e+000
1.4844186e+000
1.8202181e+000
2.1199825e+000
2.3886600e+000
2.6516340e+000
2.9286585e+000
3.2141631e+000
3.4969280e+000
3.7673481e+000
4.0190434e+000
4.2532001e+000
4.4735012e+000
4.6857944e+000
4.9000416e+000
5.1341624e+000
5.4023428e+000
5.7031908e+000
6.0337343e+000
6.3964634e+000
6.7979832e+000
7.2501574e+000
7.7518735e+000
8.2651548e+000
8.7407131e+000
9.1260195e+000
9.3838530e+000
9.5220070e+000
9.5630999e+000
9.5412502e+000
9.4855051e+000
9.4048204e+000
9.3020115e+000
9.1772852e+000
9.0325727e+000
8.8768015e+000
8.7175493e+000
8.5532503e+000
8.3744440e+000
8.1568232e+000
7.8803320e+000
7.5489254e+000
7.1829543e+000
6.8314624e+000
6.5383964e+000
6.3124137e+000
6.1416698e+000
5.9800673e+000
5.7799788e+000
5.5140147e+000
5.1687541e+000
4.7586236e+000
4.3089185e+000
3.8576210e+000
3.4395716e+000
3.0721281e+000
2.7591457e+000
2.4783297e+000
2.2026293e+000
1.9114709e+000
1.5933720e+000
1.2598114e+000
9.2861915e-001
6.1992037e-001
3.4923232e-001
1.1638045e-001
-8.2648709e-002
-2.5168359e-001
-3.9433891e-001
-5.1361609e-001
-6.1164820e-001
-6.8825632e-001
-7.4177307e-001
-7.6781845e-001
-7.6526082e-001
-7.4560994e-001
-7.1979201e-001
-6.8626177e-001
-6.3544768e-001
-5.4184580e-001
-3.8832510e-001
-1.9937651e-001
-1.4546365e-002
1.1131155e-001
1.3725354e-001
8.3186328e-002
-1.2329608e-002
-9.8915443e-002
-1.3548401e-001
-1.2378515e-001
-7.9065368e-002
-2.6497178e-002
1.0545806e-002
2.4184516e-002
2.0068325e-002
3.8430907e-002
1.1887029e-001
2.6729369e-001
4.7448602e-001
7.0663047e-001
9.2515600e-001
1.0970143e+000
1.2042240e+000
1.2804526e+000
1.3642297e+000
1.4651821e+000
1.5781486e+000
1.6718686e+000
1.7237302e+000
1.7704500e+000
1.8557674e+000
1.9920379e+000
2.1647966e+000
2.2859452e+000
2.2728202e+000
2.1399937e+000
1.9259000e+000
