##TITLE=Methyl Ethyl Ketone
##JCAMP-DX=4.24
##DATA TYPE=INFRARED SPECTRUM
##XUNITS=cm-1
##YUNITS=Absorbance
##FIRSTX=900
##LASTX=2300
##XYDATA=(X++(Y..Y))
2296 0.041963
2294 0.042835753
2292 0.043709502
2290 0.044582255
2288 0.045455005
2286 0.046327755
2284 0.047201499
2282 0.04807426
2280 0.048947014
2278 0.049819764
2276 0.050693501
2274 0.051566266
2272 0.052439015
2270 0.053311769
2268 0.054184522
2266 0.055058252
2264 0.055931021
2262 0.056803774
2260 0.057676524
2258 0.05855025
2256 0.059423029
2254 0.060295783
2252 0.061168529
2250 0.062042248
2248 0.062915035
2246 0.063787788
2244 0.021324262
2242 0.0007592786
2240 -0.03003072
2238 -0.033232693
2236 -0.032246914
2234 -0.038451284
2232 -0.046254091
2230 -0.078058288
2228 -0.11275797
2226 -0.1611235
2224 -0.20660719
2222 -0.23554525
2220 -0.25718316
2218 -0.25913322
2216 -0.26000974
2214 -0.26095435
2212 -0.26180902
2210 -0.26250762
2208 -0.26494908
2206 -0.26957336
2204 -0.27635458
2202 -0.2851311
2200 -0.28633541
2198 -0.28180438
2196 -0.27665928
2194 -0.27136686
2192 -0.26611075
2190 -0.26085824
2188 -0.25256032
2186 -0.24326621
2184 -0.2454004
2182 -0.25018772
2180 -0.25737685
2178 -0.26485786
2176 -0.26853457
2174 -0.27302825
2172 -0.29075626
2170 -0.31137711
2168 -0.34132487
2166 -0.36787179
2164 -0.37864161
2162 -0.38127336
2160 -0.36712262
2158 -0.35780069
2156 -0.360901
2154 -0.37539366
2152 -0.40450436
2150 -0.42880782
2148 -0.44594523
2146 -0.45167106
2144 -0.44794247
2142 -0.44560552
2140 -0.44488239
2138 -0.44648784
2136 -0.44929513
2134 -0.44443038
2132 -0.43639579
2130 -0.43282861
2128 -0.4308168
2126 -0.43654671
2124 -0.4440012
2122 -0.4296838
2120 -0.4108561
2118 -0.37291726
2116 -0.3350963
2114 -0.3188743
2112 -0.31281844
2110 -0.33826101
2108 -0.36649132
2106 -0.38913465
2104 -0.39996064
2102 -0.38636759
2100 -0.3657738
2098 -0.33943108
2096 -0.31800857
2094 -0.3039985
2092 -0.29774752
2090 -0.29841575
2088 -0.30050761
2086 -0.30325252
2084 -0.30191499
2082 -0.29793188
2080 -0.29540941
2078 -0.29366848
2076 -0.287274
2074 -0.27883482
2072 -0.2526128
2070 -0.22060966
2068 -0.19458212
2066 -0.1703575
2064 -0.17505823
2062 -0.18502529
2060 -0.19528528
2058 -0.2031139
2056 -0.19735858
2054 -0.18907779
2052 -0.1800947
2050 -0.17229313
2048 -0.16645251
2046 -0.16415751
2044 -0.16728941
2042 -0.17176451
2040 -0.17794229
2038 -0.17213301
2036 -0.15301843
2034 -0.11739173
2032 -0.067897864
2030 -0.017382422
2028 0.032887235
2026 0.07709793
2024 0.11807968
2022 0.16143095
2020 0.20666227
2018 0.24224941
2016 0.273072
2014 0.28657269
2012 0.29340822
2010 0.29592723
2008 0.29682982
2006 0.29655185
2004 0.29594141
2002 0.29825112
2000 0.30139977
1998 0.30934319
1996 0.31845215
1994 0.33014867
1992 0.34629515
1990 0.36687759
1988 0.3899824
1986 0.41014972
1984 0.42341709
1982 0.42820305
1980 0.42961428
1978 0.43167168
1976 0.44500801
1974 0.4699519
1972 0.51242357
1970 0.56748974
1968 0.61557156
1966 0.6575616
1964 0.66220516
1962 0.64622617
1960 0.62049079
1958 0.59113145
1956 0.57524312
1954 0.56350476
1952 0.54519242
1950 0.52335119
1948 0.50698692
1946 0.4974975
1944 0.51208091
1942 0.54077154
1940 0.57646734
1938 0.60938519
1936 0.62557918
1934 0.62436664
1932 0.60394943
1930 0.5721069
1928 0.53676605
1926 0.51705474
1924 0.52261931
1922 0.56105918
1920 0.62469161
1918 0.68645924
1916 0.73525131
1914 0.75583762
1912 0.75758386
1910 0.74494994
1908 0.7271117
1906 0.6997695
1904 0.66667557
1902 0.64158571
1900 0.61886662
1898 0.63232136
1896 0.66072714
1894 0.71226597
1892 0.77075809
1890 0.80717349
1888 0.82641709
1886 0.79903299
1884 0.75192982
1882 0.69558102
1880 0.64371926
1878 0.61456001
1876 0.59511602
1874 0.58876449
1872 0.59032834
1870 0.60299498
1868 0.62742561
1866 0.65065098
1864 0.65703791
1862 0.63559377
1860 0.59235328
1858 0.54021293
1856 0.48934057
1854 0.44581115
1852 0.40618247
1850 0.37273112
1848 0.34649161
1846 0.32928357
1844 0.3247968
1842 0.33094901
1840 0.34295565
1838 0.35613769
1836 0.38751215
1834 0.42702061
1832 0.49548155
1830 0.57968378
1828 0.66466552
1826 0.74076927
1824 0.76912206
1822 0.7552008
1820 0.69486618
1818 0.6112743
1816 0.53079659
1814 0.46601054
1812 0.42772543
1810 0.41645437
1808 0.42431915
1806 0.45115501
1804 0.49061537
1802 0.51034474
1800 0.5137642
1798 0.48731393
1796 0.44134286
1794 0.42670551
1792 0.4304108
1790 0.46019137
1788 0.49720642
1786 0.51540899
1784 0.51766628
1782 0.51310182
1780 0.50038409
1778 0.48054379
1776 0.45529598
1774 0.42529973
1772 0.39548317
1770 0.34580702
1768 0.28735808
1766 0.21586643
1764 0.1375806
1762 0.073810413
1760 0.020099999
1758 -0.077721611
1756 -0.18077856
1754 -0.24624282
1752 -0.24932915
1750 -0.185202
1748 -0.11277336
1746 -0.058500253
1744 -0.077419862
1742 -0.17365845
1740 -0.26990253
1738 -0.34853336
1736 -0.31587198
1734 -0.19149832
1732 -0.062969804
1730 0.053717975
1728 0.046685115
1726 -0.048563763
1724 -0.10994004
1722 -0.12597001
1720 -0.014607467
1718 0.18869676
1716 0.54945785
1714 1.0116301
1712 1.4166754
1710 1.778391
1708 2.136862
1706 2.6335278
1704 3.4187799
1702 4.7336364
1700 6.6917391
1698 9.5079765
1696 13.135143
1694 16.851171
1692 20.321301
1690 23.421074
1688 26.212269
1686 29.545237
1684 33.503273
1682 38.256714
1680 43.623642
1678 48.292385
1676 52.300301
1674 56.138592
1672 59.930454
1670 64.328331
1668 69.160538
1666 73.8265
1664 78.267967
1662 82.281578
1660 85.899368
1658 89.177765
1656 92.116829
1654 94.73317
1652 96.982681
1650 98.826645
1648 99.87635
1646 99.796783
1644 98.800072
1642 97.182297
1640 95.019478
1638 92.456062
1636 89.196342
1634 85.200729
1632 80.983597
1630 76.745735
1628 72.641502
1626 68.699043
1624 64.548477
1622 60.164211
1620 55.810978
1618 51.518227
1616 47.450089
1614 43.624325
1612 40.16951
1610 37.099979
1608 34.438946
1606 32.179371
1604 30.219034
1602 28.572836
1600 27.213154
1598 26.135088
1596 25.289001
1594 24.667768
1592 24.225988
1590 23.950378
1588 23.802515
1586 23.761929
1584 23.807297
1582 23.937691
1580 24.151655
1578 24.503572
1576 25.007629
1574 25.681335
1572 26.510324
1570 27.425762
1568 28.40588
1566 29.393614
1564 30.388758
1562 31.562632
1560 33.00676
1558 35.291878
1556 38.484215
1554 41.964508
1552 45.515995
1550 48.259045
1548 50.220161
1546 51.91468
1544 53.386662
1542 54.800308
1540 56.006321
1538 56.726345
1536 56.83017
1534 56.256603
1532 55.229198
1530 54.088722
1528 52.849728
1526 51.527451
1524 50.010933
1522 48.214947
1520 46.201656
1518 43.95248
1516 41.77927
1514 39.797737
1512 37.871639
1510 36.014523
1508 33.678688
1506 30.715107
1504 27.674
1502 24.581741
1500 21.933115
1498 19.772329
1496 17.616714
1494 15.452568
1492 13.207194
1490 10.893058
1488 8.5691376
1486 6.3185821
1484 4.300312
1482 2.6011186
1480 1.32324
1478 0.4785001
1476 0.08630012
1474 0.26929826
1472 0.9461596
1470 1.827889
1468 2.7456708
1466 3.5402608
1464 4.1255283
1462 4.6416321
1460 5.1459951
1458 5.6743631
1456 6.2347798
1454 6.6879845
1452 6.9434395
1450 7.0557437
1448 6.9580312
1446 6.8095036
1444 6.5934496
1442 6.3548908
1440 6.0863767
1438 5.7692094
1436 5.3825345
1434 4.8764186
1432 4.2599854
1430 3.6275005
1428 3.0142579
1426 2.5284178
1424 2.1809292
1422 1.9699895
1420 1.8943392
1418 1.9226167
1416 2.0313599
1414 2.1929231
1412 2.3758788
1410 2.5896425
1408 2.8330023
1406 3.1258316
1404 3.4583244
1402 3.8304584
1400 4.221724
1398 4.6298547
1396 5.0427785
1394 5.451355
1392 5.8198919
1390 6.0907497
1388 6.257731
1386 6.2497702
1384 6.119103
1382 5.8183088
1380 5.4414568
1378 4.9816709
1376 4.5054455
1374 4.0347109
1372 3.5950439
1370 3.1920712
1368 2.827244
1366 2.459625
1364 2.0367367
1362 1.5677078
1360 1.0506629
1358 0.57087952
1356 0.23480779
1354 0.020712625
1352 -0.011901816
1350 0.040315203
1348 0.15922409
1346 0.28159571
1344 0.43565243
1342 0.6101023
1340 0.82518935
1338 1.0330397
1336 1.2143058
1334 1.3701991
1332 1.4556812
1330 1.546752
1328 1.649976
1326 1.7903422
1324 2.0010557
1322 2.2550023
1320 2.5741451
1318 2.9200246
1316 3.2906101
1314 3.6447437
1312 3.9642067
1310 4.2345071
1308 4.4514728
1306 4.6309471
1304 4.7788582
1302 4.8977289
1300 4.9898672
1298 5.0330868
1296 5.0476999
1294 5.0192099
1292 4.9878783
1290 4.9717979
1288 4.9778323
1286 5.0339932
1284 5.097899
1282 5.1692653
1280 5.2342238
1278 5.2844429
1276 5.3392029
1274 5.4083099
1272 5.4892092
1270 5.5943203
1268 5.7105708
1266 5.841445
1264 5.9815927
1262 6.1312485
1260 6.2919078
1258 6.4664721
1256 6.6565428
1254 6.8566689
1252 7.0508666
1250 7.2305746
1248 7.3733554
1246 7.4902496
1244 7.5759182
1242 7.6446066
1240 7.6927447
1238 7.7158771
1236 7.6767654
1234 7.5908976
1232 7.3924041
1230 7.1438231
1228 6.7702589
1226 6.35987
1224 5.8538332
1222 5.3319068
1220 4.7732563
1218 4.2215228
1216 3.687377
1214 3.1850314
1212 2.742909
1210 2.3516622
1208 2.0341921
1206 1.7529265
1204 1.5101061
1202 1.2679713
1200 1.0259
1198 0.78076035
1196 0.54117858
1194 0.33332798
1192 0.157974
1190 0.043636657
1188 -0.031593546
1186 -0.05629823
1184 -0.058596469
1182 -0.036875501
1180 0.0057650208
1178 0.11300815
1176 0.26010799
1174 0.5340302
1172 0.82782131
1170 1.166364
1168 1.4721423
1166 1.6728758
1164 1.8244703
1162 1.85446
1160 1.8555983
1158 1.7981322
1156 1.7176757
1154 1.5971498
1152 1.4471692
1150 1.2568983
1148 1.0472072
1146 0.81824535
1144 0.59292006
1142 0.37661225
1140 0.19518423
1138 0.047163703
1136 -0.04556983
1134 -0.096362889
1132 -0.057495017
1130 0.029611275
1128 0.19090709
1126 0.37194484
1124 0.55161518
1122 0.71751803
1120 0.81165159
1118 0.88817674
1116 0.9058184
1114 0.92585742
1112 0.96088105
1110 1.0090823
1108 1.0993371
1106 1.199355
1104 1.3219274
1102 1.436426
1100 1.5312251
1098 1.5910245
1096 1.5953715
1094 1.579159
1092 1.5421879
1090 1.5361564
1088 1.5663702
1086 1.6447479
1084 1.7610246
1082 1.8854448
1080 2.0064116
1078 2.0662251
1076 2.0861301
1074 2.0168383
1072 1.9128743
1070 1.7708329
1068 1.6214
1066 1.4817822
1064 1.341608
1062 1.1876096
1060 1.0311275
1058 0.86338973
1056 0.70975173
1054 0.61866808
1052 0.54512984
1050 0.52678937
1048 0.50266343
1046 0.46408856
1044 0.41978335
1042 0.36490577
1040 0.31646347
1038 0.27643728
1036 0.23288099
1034 0.18625492
1032 0.145714
1030 0.11212109
1028 0.088789754
1026 0.07025297
1024 0.026288575
1022 -0.033423774
1020 -0.1170846
1018 -0.20924957
1016 -0.29055771
1014 -0.36892128
1012 -0.4471153
1010 -0.52669591
1008 -0.62376642
1006 -0.72022325
1004 -0.79322934
1002 -0.86009216
1000 -0.88689899
998 -0.91382009
996 -0.94119215
994 -0.9656058
992 -0.98054039
990 -0.97955233
988 -0.94259471
986 -0.90621674
984 -0.8710435
982 -0.8507567
980 -0.8491174
978 -0.83728677
976 -0.81410688
974 -0.77137411
972 -0.71328795
970 -0.65680629
968 -0.6016593
966 -0.56240648
964 -0.5308432
962 -0.51242846
960 -0.49764034
958 -0.46206832
956 -0.42076114
954 -0.34395015
952 -0.2632044
950 -0.18817908
948 -0.11319326
946 -0.035990037
944 0.00070714206
942 0.022054914
940 0.065891616
938 0.1217234
936 0.18835144
934 0.28768915
932 0.41466391
930 0.6001178
928 0.7722255
926 0.92189038
924 1.0108119
922 1.0261334
920 1.0277028
918 1.0166562
916 1.0332114
914 1.0684872
912 1.067276
910 1.0472987
908 0.98713648
906 0.91375154
904 0.89867866
902 0.90027446
900 0.9222936
898 0.94795275
896 0.92193002
