##TITLE=Methyl Ethyl Ketone
##JCAMP-DX=4.24
##DATA TYPE=INFRARED SPECTRUM
##XUNITS=cm-1
##YUNITS=Absorbance
##FIRSTX=900
##LASTX=2300
##XYDATA=(X++(Y..Y))
2296 0.0060179001
2294 0.0061431206
2292 0.006268342
2290 0.0063934629
2288 0.0065186834
2286 0.0066439039
2284 0.0067691253
2282 0.0068943459
2280 0.0070195668
2278 0.0071446886
2276 0.0072699087
2274 0.0073950314
2272 0.0075202505
2270 0.0076455693
2268 0.0077707921
2266 0.0078959148
2264 0.008021133
2262 0.0081463549
2260 0.0082714772
2258 0.0083966963
2256 0.0085219173
2254 0.0086471383
2252 0.0087722624
2250 0.0088974796
2248 0.0090227006
2246 0.0091479216
2244 0.0003399463
2242 0.0088235112
2240 0.015301821
2238 0.02442091
2236 0.033960029
2234 0.046121463
2232 0.058406577
2230 0.069265574
2228 0.080462396
2226 0.094974905
2224 0.11130451
2222 0.13521293
2220 0.16097508
2218 0.19120905
2216 0.21075828
2214 0.20642678
2212 0.18327621
2210 0.13172846
2208 0.083677061
2206 0.04217029
2204 0.016530361
2202 0.0057798624
2200 0.0010711303
2198 0.00014696046
2196 0.006221782
2194 0.016189704
2192 0.040119588
2190 0.070060723
2188 0.09464708
2186 0.11736193
2184 0.1095904
2182 0.094832622
2180 0.062604994
2178 0.027805364
2176 -0.0083505139
2174 -0.044261131
2172 -0.076052785
2170 -0.10427432
2168 -0.11426754
2166 -0.11847622
2164 -0.10804294
2162 -0.091411494
2160 -0.062637337
2158 -0.022770245
2156 0.035777599
2154 0.090617441
2152 0.1372903
2150 0.16021988
2148 0.15738566
2146 0.14163928
2144 0.11688355
2142 0.08796227
2140 0.056807864
2138 0.030284643
2136 0.0064049601
2134 0.0066256677
2132 0.016866017
2130 0.045776818
2128 0.080346324
2126 0.11739149
2124 0.15492812
2122 0.18884264
2120 0.22051378
2118 0.22072545
2116 0.21179685
2114 0.1680866
2112 0.12417429
2110 0.10167697
2108 0.091816016
2106 0.11065446
2104 0.13174605
2102 0.14849484
2100 0.16257221
2098 0.17327461
2096 0.18110572
2094 0.18584958
2092 0.19109169
2090 0.19728711
2088 0.21473771
2086 0.24129251
2084 0.25619593
2082 0.26254904
2080 0.23554292
2078 0.19160753
2076 0.14983229
2074 0.109807
2072 0.1063024
2070 0.11454647
2068 0.13720135
2066 0.16292322
2064 0.17436989
2062 0.18179657
2060 0.17600769
2058 0.1638996
2056 0.13132629
2054 0.094040342
2052 0.054624256
2050 0.032768089
2048 0.057494909
2046 0.099807501
2044 0.158704
2042 0.19530846
2040 0.19306275
2038 0.17471652
2036 0.14558057
2034 0.13596144
2032 0.1472352
2030 0.1707474
2028 0.20115894
2026 0.22989072
2024 0.25693536
2022 0.28587642
2020 0.3160167
2018 0.33289942
2016 0.344008
2014 0.32630545
2012 0.29888636
2010 0.2632691
2008 0.22644766
2006 0.20433521
2004 0.18664043
2002 0.1741952
2000 0.16093829
1998 0.13928388
1996 0.11457714
1994 0.087585479
1992 0.056798857
1990 0.01792652
1988 -0.021493711
1986 -0.059500314
1984 -0.076110482
1982 -0.063360982
1980 -0.034686171
1978 0.0048419964
1976 0.034728058
1974 0.053764071
1972 0.075913332
1970 0.10231534
1968 0.13305566
1966 0.16601656
1964 0.16974531
1962 0.1575868
1960 0.13299121
1958 0.1037363
1956 0.09011247
1954 0.082063004
1952 0.070615947
1950 0.05784354
1948 0.04717325
1946 0.037834503
1944 0.031381451
1942 0.018513357
1940 -0.023755133
1938 -0.076905429
1936 -0.13565718
1934 -0.17305766
1932 -0.162873
1930 -0.11666328
1928 -0.033580262
1926 0.054111812
1924 0.13520031
1922 0.19026396
1920 0.21846543
1918 0.21862249
1916 0.19820642
1914 0.17142719
1912 0.14332971
1910 0.10788749
1908 0.068208173
1906 0.017898045
1904 -0.038070038
1902 -0.069811404
1900 -0.090262458
1898 -0.076697424
1896 -0.049790144
1894 -0.018588567
1892 0.0099660028
1890 0.0078111151
1888 -0.014687597
1886 -0.075824976
1884 -0.15280607
1882 -0.23459461
1880 -0.31102809
1878 -0.37006274
1876 -0.40690401
1874 -0.411998
1872 -0.37845057
1870 -0.3014113
1868 -0.223469
1866 -0.16357315
1864 -0.17424132
1862 -0.2559323
1860 -0.37633756
1858 -0.51418555
1856 -0.62715828
1854 -0.71689111
1852 -0.74798954
1850 -0.74187869
1848 -0.68642324
1846 -0.60428572
1844 -0.54447842
1842 -0.49828851
1840 -0.50310779
1838 -0.53206611
1836 -0.5569123
1834 -0.57374299
1832 -0.55271029
1830 -0.50894779
1828 -0.44614434
1826 -0.38783386
1824 -0.36826211
1822 -0.3851544
1820 -0.4452756
1818 -0.51967132
1816 -0.58721632
1814 -0.63281935
1812 -0.64930052
1810 -0.64104819
1808 -0.61509025
1806 -0.57275903
1804 -0.51908547
1802 -0.47811198
1800 -0.45054528
1798 -0.44500586
1796 -0.45445713
1794 -0.43172792
1792 -0.38553321
1790 -0.32364291
1788 -0.25533447
1786 -0.22005364
1784 -0.20541154
1782 -0.20041139
1780 -0.19689977
1778 -0.1641234
1776 -0.10249623
1774 0.016224321
1772 0.15699247
1770 0.2699343
1768 0.32747874
1766 0.27966437
1764 0.18243119
1762 0.08588735
1760 0.029147783
1758 -0.036212932
1756 -0.079473652
1754 -0.061709046
1752 0.016710002
1750 0.14453579
1748 0.2644735
1746 0.35868716
1744 0.36975604
1742 0.30565098
1740 0.23744461
1738 0.17983174
1736 0.20886001
1734 0.30485868
1732 0.3626774
1730 0.38299954
1728 0.27000874
1726 0.074080177
1724 -0.065737009
1722 -0.1293049
1720 -0.0024420321
1718 0.2770769
1716 0.78348017
1714 1.4014198
1712 1.9282395
1710 2.3830123
1708 2.7896459
1706 3.3256564
1704 4.1571436
1702 5.5214677
1700 7.5335078
1698 10.348258
1696 13.921143
1694 17.57996
1692 21.011381
1690 24.128565
1688 26.97508
1686 30.406027
1684 34.494568
1682 39.465157
1680 45.133598
1678 50.171516
1676 54.601986
1674 58.862213
1672 63.077911
1670 68.026581
1668 73.521301
1666 78.977249
1664 84.285446
1662 89.081253
1660 93.402275
1658 97.296478
1656 100.74823
1654 103.74352
1652 105.9936
1650 107.16853
1648 106.89137
1646 104.94215
1644 102.07249
1642 98.983383
1640 95.679581
1638 92.19915
1636 87.992157
1634 82.914742
1632 77.655075
1630 72.47287
1628 67.754829
1626 63.52742
1624 59.311878
1622 55.032845
1620 50.76704
1618 46.530014
1616 42.509743
1614 38.737606
1612 35.414284
1610 32.549591
1608 30.105862
1606 28.06135
1604 26.277374
1602 24.771915
1600 23.535978
1598 22.57827
1596 21.8675
1594 21.396044
1592 21.117502
1590 21.003222
1588 21.003691
1586 21.091129
1584 21.235559
1582 21.443499
1580 21.714151
1578 22.108059
1576 22.644285
1574 23.330336
1572 24.159325
1570 25.090651
1568 26.11236
1566 27.207972
1564 28.380505
1562 29.765802
1560 31.458599
1558 34.06004
1556 37.629532
1554 41.54768
1552 45.586945
1550 48.731602
1548 51.032227
1546 53.055214
1544 54.856903
1542 56.638577
1540 58.140942
1538 58.974682
1536 58.987057
1534 58.119156
1532 56.753181
1530 55.350395
1528 53.955544
1526 52.604599
1524 51.112122
1522 49.357941
1520 47.26582
1518 44.774742
1516 42.294842
1514 39.962212
1512 37.74752
1510 35.668156
1508 33.136868
1506 30.004551
1504 26.823481
1502 23.645113
1500 20.935152
1498 18.747311
1496 16.596144
1494 14.478467
1492 12.34216
1490 10.189579
1488 8.036274
1486 5.9420853
1484 4.01649
1482 2.37567
1480 1.1525279
1478 0.37363824
1476 0.069898546
1474 0.31965759
1472 1.0425048
1470 1.9353609
1468 2.8222642
1466 3.5894222
1464 4.1535358
1462 4.6661797
1460 5.1861191
1458 5.7269492
1456 6.29702
1454 6.73276
1452 6.9464726
1450 6.9883232
1448 6.7874675
1446 6.5477109
1444 6.2617869
1442 6.005724
1440 5.7843332
1438 5.552608
1436 5.2814698
1434 4.8906889
1432 4.3737507
1430 3.8068709
1428 3.237622
1426 2.7858934
1424 2.4777281
1422 2.3280749
1420 2.3221738
1418 2.4268689
1416 2.5934772
1414 2.772233
1412 2.9446554
1410 3.0995777
1408 3.2584388
1406 3.4382484
1404 3.6509073
1402 3.9144337
1400 4.221324
1398 4.5927835
1396 4.9896784
1394 5.4188409
1392 5.797235
1390 6.0761728
1388 6.2440224
1386 6.2316098
1384 6.1008091
1382 5.8038263
1380 5.428122
1378 4.9609737
1376 4.4713459
1374 3.9721048
1372 3.504648
1370 3.0787997
1368 2.7008452
1366 2.3430264
1364 1.9540794
1362 1.5361773
1360 1.0873072
1358 0.66657281
1356 0.35031539
1354 0.12704766
1352 0.036513247
1350 0.020652782
1348 0.09187986
1346 0.21432179
1344 0.4148984
1342 0.64821464
1340 0.93457085
1338 1.2055981
1336 1.4370086
1334 1.6254764
1332 1.7336097
1330 1.83963
1328 1.9497035
1326 2.1011393
1324 2.3200109
1322 2.5879843
1320 2.9158783
1318 3.256074
1316 3.5996199
1314 3.9109435
1312 4.183805
1310 4.4189453
1308 4.6146455
1306 4.7707477
1304 4.8894892
1302 4.962173
1300 5.0026083
1298 5.0060029
1296 4.9947286
1294 4.9745741
1292 4.959579
1290 4.9630728
1288 4.971632
1286 4.9862342
1284 4.9965072
1282 4.9939003
1280 4.9889474
1278 4.9792442
1276 4.976377
1274 4.990202
1272 5.0251241
1270 5.0983276
1268 5.195857
1266 5.3266635
1264 5.4647717
1262 5.6058769
1260 5.7289381
1258 5.8287768
1256 5.9040289
1254 5.9615731
1252 6.0232253
1250 6.0937815
1248 6.1872501
1246 6.2881498
1244 6.374908
1242 6.437758
1240 6.4379983
1238 6.4049706
1236 6.3195314
1234 6.2131138
1232 6.07054
1230 5.8971715
1228 5.6352191
1226 5.3311071
1224 4.9125476
1222 4.470377
1220 3.9744742
1218 3.4845841
1216 3.01
1214 2.5602896
1212 2.1555161
1210 1.78074
1208 1.452708
1206 1.1622587
1204 0.92124981
1202 0.72263259
1200 0.56577343
1198 0.42824811
1196 0.30379999
1194 0.17591688
1192 0.051266555
1190 -0.051572964
1188 -0.13020389
1186 -0.14833064
1184 -0.13133863
1182 -0.051339578
1180 0.061366066
1178 0.24950185
1176 0.468678
1174 0.77198714
1172 1.0792512
1170 1.3806074
1168 1.6470771
1166 1.80393
1164 1.9179822
1162 1.9262309
1160 1.9102765
1158 1.844728
1156 1.75942
1154 1.6371387
1152 1.4762635
1150 1.2622815
1148 1.0245392
1146 0.76701319
1144 0.53548849
1142 0.33260196
1140 0.16925253
1138 0.041511536
1136 -0.034830198
1134 -0.06652157
1132 0.0080631152
1130 0.1339286
1128 0.31576538
1126 0.49930957
1124 0.6116792
1122 0.69866121
1120 0.71790117
1118 0.73614413
1116 0.7822957
1114 0.83635843
1112 0.92100543
1110 1.0001042
1108 1.0604348
1106 1.106835
1104 1.1184092
1102 1.1188688
1100 1.0972782
1098 1.0676832
1096 1.0259614
1094 0.98361886
1092 0.94370735
1090 0.92727387
1088 0.93504888
1086 0.95491064
1084 0.98114157
1082 0.987306
1080 0.98028934
1078 0.963202
1076 0.93634343
1074 0.87189907
1072 0.78697234
1070 0.64335704
1068 0.49263331
1066 0.38466901
1064 0.2919372
1062 0.27090845
1060 0.24879424
1058 0.19710408
1056 0.14274919
1054 0.077738471
1052 0.024137774
1050 0.0063901888
1048 -0.013523836
1046 -0.040128782
1044 -0.082766227
1042 -0.15678823
1040 -0.24993102
1038 -0.3715612
1036 -0.50372601
1034 -0.64713395
1032 -0.78502166
1030 -0.91787207
1028 -1.049908
1026 -1.1777079
1024 -1.2683372
1022 -1.3335789
1020 -1.3342655
1018 -1.3117423
1016 -1.3057543
1014 -1.3084564
1012 -1.35963
1010 -1.4183609
1008 -1.46934
1006 -1.5187308
1004 -1.5558695
1002 -1.5901736
1000 -1.6050795
998 -1.6091672
996 -1.5659715
994 -1.5184649
992 -1.4587921
990 -1.4111303
988 -1.3909565
986 -1.3739479
984 -1.3618435
982 -1.3428738
980 -1.3147359
978 -1.2853018
976 -1.25304
974 -1.1930203
972 -1.1084552
970 -0.9791894
968 -0.82224512
966 -0.65571398
964 -0.48615086
962 -0.34267628
960 -0.21028337
958 -0.13292225
956 -0.070335567
954 -0.074519075
952 -0.087402798
950 -0.11543853
948 -0.1361136
946 -0.044602074
944 0.0029357821
942 0.091470733
940 0.27009383
938 0.47987199
936 0.67689145
934 0.83618432
932 0.97733116
930 1.0792092
928 1.1525332
926 1.1797907
924 1.188212
922 1.1740444
920 1.1712303
918 1.1792752
916 1.2161157
914 1.2731534
912 1.3316789
910 1.3905691
908 1.4073077
906 1.4079765
904 1.3766737
902 1.3372687
900 1.3299946
898 1.3281412
896 1.357
