Image.
>Pix99999.
  .
5555
5555
2300
900
5555
2
1
0
701
5555
6.4492002e-002
6.5862037e-002
6.7232080e-002
6.8602122e-002
6.9972165e-002
7.1343198e-002
7.2713241e-002
7.4083284e-002
7.5453319e-002
7.6823354e-002
7.8193396e-002
7.9565406e-002
8.0934495e-002
8.2298629e-002
8.3674438e-002
8.5065156e-002
8.6415119e-002
8.7708570e-002
8.9153685e-002
9.0809837e-002
9.1904141e-002
9.2209511e-002
9.4601654e-002
9.9941224e-002
9.7516432e-002
7.5620539e-002
3.1373698e-002
-2.4663094e-002
-3.7825443e-002
3.7926301e-002
1.6380130e-001
2.7826053e-001
3.2594749e-001
2.6874137e-001
1.2997454e-001
-4.7541998e-002
-2.1414411e-001
-3.2686624e-001
-3.7710020e-001
-3.7056595e-001
-3.2993028e-001
-2.7923295e-001
-2.2813959e-001
-1.8201773e-001
-1.4672799e-001
-1.3079500e-001
-1.5279606e-001
-2.2751801e-001
-3.4210175e-001
-4.7182190e-001
-5.7864714e-001
-6.3161784e-001
-6.4469707e-001
-6.4598686e-001
-6.6317672e-001
-7.1367604e-001
-7.7458715e-001
-8.1294680e-001
-8.0722463e-001
-7.4826467e-001
-6.6114545e-001
-5.8203977e-001
-5.4723918e-001
-5.8296752e-001
-6.7512858e-001
-7.9480940e-001
-9.0720958e-001
-9.8397797e-001
-1.0299122e+000
-1.0589794e+000
-1.0770900e+000
-1.0854495e+000
-1.0783051e+000
-1.0542905e+000
-1.0375597e+000
-1.0569714e+000
-1.1241286e+000
-1.2377321e+000
-1.3690689e+000
-1.4843246e+000
-1.5660086e+000
-1.6044351e+000
-1.5970877e+000
-1.5492369e+000
-1.4879119e+000
-1.4497379e+000
-1.4776034e+000
-1.6005841e+000
-1.7819406e+000
-1.9642855e+000
-2.1039100e+000
-2.1738219e+000
-2.1919491e+000
-2.1889040e+000
-2.1790233e+000
-2.1674016e+000
-2.1491470e+000
-2.1209157e+000
-2.1008899e+000
-2.1118655e+000
-2.1607285e+000
-2.2407222e+000
-2.3147502e+000
-2.3421013e+000
-2.3146892e+000
-2.2446301e+000
-2.1728666e+000
-2.1422768e+000
-2.1596737e+000
-2.2133129e+000
-2.2761056e+000
-2.3218606e+000
-2.3496840e+000
-2.3701360e+000
-2.3963215e+000
-2.4387414e+000
-2.4943383e+000
-2.5552039e+000
-2.6156352e+000
-2.6733589e+000
-2.7342229e+000
-2.8043544e+000
-2.8758385e+000
-2.9352019e+000
-2.9693096e+000
-2.9720356e+000
-2.9633000e+000
-2.9693584e+000
-2.9961863e+000
-3.0355706e+000
-3.0590787e+000
-3.0382330e+000
-2.9788022e+000
-2.9036059e+000
-2.8411944e+000
-2.8150487e+000
-2.8207657e+000
-2.8423834e+000
-2.8703024e+000
-2.8998024e+000
-2.9333799e+000
-2.9733608e+000
-3.0075276e+000
-3.0194314e+000
-3.0030875e+000
-2.9606016e+000
-2.9063799e+000
-2.8577280e+000
-2.8217194e+000
-2.7979338e+000
-2.7753286e+000
-2.7410676e+000
-2.6958926e+000
-2.6478570e+000
-2.6085961e+000
-2.5895221e+000
-2.5955703e+000
-2.6272118e+000
-2.6799664e+000
-2.7434449e+000
-2.7925515e+000
-2.7980032e+000
-2.7435687e+000
-2.6284084e+000
-2.4881136e+000
-2.3724685e+000
-2.3175249e+000
-2.3414984e+000
-2.4200721e+000
-2.5104783e+000
-2.5808570e+000
-2.6120434e+000
-2.6103113e+000
-2.5933440e+000
-2.5752749e+000
-2.5642250e+000
-2.5533915e+000
-2.5307755e+000
-2.4943459e+000
-2.4495163e+000
-2.4097428e+000
-2.3880148e+000
-2.3779540e+000
-2.3620148e+000
-2.3201690e+000
-2.2347529e+000
-2.0998321e+000
-1.9207907e+000
-1.7255892e+000
-1.5506899e+000
-1.4178801e+000
-1.3359724e+000
-1.2961640e+000
-1.2837542e+000
-1.2974246e+000
-1.3391551e+000
-1.3902241e+000
-1.4204367e+000
-1.4027908e+000
-1.3226874e+000
-1.2070286e+000
-1.1050627e+000
-1.0616660e+000
-1.1062620e+000
-1.2205189e+000
-1.3588901e+000
-1.4734120e+000
-1.5248877e+000
-1.5074131e+000
-1.4359771e+000
-1.3329500e+000
-1.2214901e+000
-1.1191709e+000
-1.0378476e+000
-9.8085654e-001
-9.4503593e-001
-9.1892618e-001
-8.8933522e-001
-8.5526425e-001
-8.2324845e-001
-7.9850256e-001
-7.8108358e-001
-7.5518388e-001
-7.0071876e-001
-6.2109160e-001
-5.3777319e-001
-4.8398924e-001
-4.9046165e-001
-5.5145657e-001
-6.3773435e-001
-7.1960914e-001
-7.7054000e-001
-7.6797026e-001
-6.9750839e-001
-5.7110590e-001
-4.2090407e-001
-2.9524446e-001
-2.4083342e-001
-2.5840539e-001
-3.1665650e-001
-3.7830943e-001
-4.1250721e-001
-4.1896820e-001
-4.1524142e-001
-4.0840325e-001
-3.9526650e-001
-3.6829308e-001
-3.1885862e-001
-2.4173938e-001
-1.3610306e-001
-9.6278526e-003
1.2251119e-001
2.3585841e-001
3.0734068e-001
3.4593341e-001
3.7969029e-001
4.2036241e-001
4.6677005e-001
5.2281666e-001
5.9365964e-001
6.6592515e-001
7.1202278e-001
7.0182711e-001
6.1494291e-001
4.7567052e-001
3.3559078e-001
2.2586919e-001
1.4719538e-001
4.6379317e-002
-1.4078307e-001
-3.6202985e-001
-4.9057373e-001
-4.6755281e-001
-3.0865169e-001
-8.8918716e-002
9.0434074e-002
1.6980366e-001
1.3879639e-001
4.9837783e-002
-1.5653249e-002
-3.5759401e-002
-4.2594444e-002
-8.4455386e-002
-2.0018032e-001
-3.6119744e-001
-4.8816171e-001
-5.0739473e-001
-3.6128819e-001
-1.1667252e-002
5.5388761e-001
1.2891549e+000
2.1003201e+000
2.8746064e+000
3.5217402e+000
4.0964317e+000
4.7776237e+000
5.7866769e+000
7.3408632e+000
9.5633907e+000
1.2438063e+001
1.5658714e+001
1.8746220e+001
2.1445801e+001
2.3777311e+001
2.6034365e+001
2.8662579e+001
3.1944412e+001
3.5903385e+001
4.0110161e+001
4.3895271e+001
4.7104099e+001
5.0082249e+001
5.3240231e+001
5.6890518e+001
6.1003357e+001
6.5280502e+001
6.9489761e+001
7.3510895e+001
7.7251572e+001
8.0642319e+001
8.3700401e+001
8.6519348e+001
8.9212021e+001
9.1836746e+001
9.4179581e+001
9.5833572e+001
9.6604279e+001
9.6537613e+001
9.5721855e+001
9.4231651e+001
9.2100929e+001
8.9355232e+001
8.6160332e+001
8.2783714e+001
7.9338280e+001
7.5770790e+001
7.2012642e+001
6.8031929e+001
6.3897308e+001
5.9761505e+001
5.5757999e+001
5.1982586e+001
4.8514217e+001
4.5409290e+001
4.2655712e+001
4.0182663e+001
3.7937252e+001
3.5903214e+001
3.4090141e+001
3.2518932e+001
3.1178501e+001
3.0022041e+001
2.8998772e+001
2.8070311e+001
2.7244860e+001
2.6572649e+001
2.6094698e+001
2.5832479e+001
2.5798040e+001
2.5996399e+001
2.6425686e+001
2.7066826e+001
2.7855118e+001
2.8688105e+001
2.9485680e+001
3.0208950e+001
3.0866463e+001
3.1543892e+001
3.2510693e+001
3.4140762e+001
3.6441746e+001
3.9000198e+001
4.1361149e+001
4.3187168e+001
4.4490273e+001
4.5612965e+001
4.6783371e+001
4.8006325e+001
4.9142120e+001
4.9958595e+001
5.0308487e+001
5.0185299e+001
4.9720154e+001
4.9139797e+001
4.8540405e+001
4.7838348e+001
4.6906124e+001
4.5629181e+001
4.3995594e+001
4.2120533e+001
4.0186569e+001
3.8383751e+001
3.6696640e+001
3.4879631e+001
3.2712738e+001
3.0106987e+001
2.7218241e+001
2.4424913e+001
2.1945850e+001
1.9740450e+001
1.7684143e+001
1.5629573e+001
1.3504328e+001
1.1334785e+001
9.1619644e+000
7.0275431e+000
5.0200682e+000
3.2741003e+000
1.8613263e+000
7.8584003e-001
1.6139942e-001
2.0424044e-001
8.6535597e-001
1.7609510e+000
2.6111875e+000
3.3704600e+000
4.0829973e+000
4.8256555e+000
5.5819154e+000
6.2079992e+000
6.5551600e+000
6.5316558e+000
6.2044568e+000
5.8103476e+000
5.4918556e+000
5.2220678e+000
4.9651690e+000
4.7214184e+000
4.4907889e+000
4.2589211e+000
3.9908345e+000
3.6361706e+000
3.1875827e+000
2.7012267e+000
2.2448080e+000
1.8773893e+000
1.6262846e+000
1.4780089e+000
1.4134254e+000
1.4203700e+000
1.5001285e+000
1.6680520e+000
1.9275837e+000
2.2596555e+000
2.6360869e+000
3.0244129e+000
3.3997905e+000
3.7501328e+000
4.0657558e+000
4.3375874e+000
4.5634785e+000
4.7507906e+000
4.9072809e+000
5.0359845e+000
5.1264176e+000
5.1518650e+000
5.0953970e+000
4.9611673e+000
4.7622757e+000
4.5177135e+000
4.2436771e+000
3.9504228e+000
3.6509600e+000
3.3613079e+000
3.0814526e+000
2.7859714e+000
2.4444995e+000
2.0336537e+000
1.5646863e+000
1.0986173e+000
6.9418526e-001
3.8496482e-001
1.7534189e-001
3.4584220e-002
-6.1995786e-002
-1.1731500e-001
-1.3147920e-001
-1.0925899e-001
-6.4427987e-002
-2.1911103e-002
9.9082850e-004
4.6842531e-003
7.8000582e-004
1.1410642e-002
5.3181645e-002
1.2954848e-001
2.4033660e-001
3.8395321e-001
5.5665010e-001
7.5099599e-001
9.5500600e-001
1.1504726e+000
1.3182515e+000
1.4413766e+000
1.5106937e+000
1.5307128e+000
1.5141451e+000
1.4821490e+000
1.4549983e+000
1.4475467e+000
1.4681429e+000
1.5148531e+000
1.5801657e+000
1.6508528e+000
1.7151240e+000
1.7670279e+000
1.8094558e+000
1.8580769e+000
1.9281875e+000
2.0281069e+000
2.1573400e+000
2.3029540e+000
2.4534228e+000
2.6062477e+000
2.7674518e+000
2.9548674e+000
3.1888423e+000
3.4881823e+000
3.8661661e+000
4.3256607e+000
4.8639088e+000
5.4710793e+000
6.1330709e+000
6.8302617e+000
7.5422940e+000
8.2509251e+000
8.9427080e+000
9.6117935e+000
1.0250394e+001
1.0843357e+001
1.1374114e+001
1.1824985e+001
1.2178801e+001
1.2418354e+001
1.2530372e+001
1.2508771e+001
1.2354959e+001
1.2076308e+001
1.1686154e+001
1.1202650e+001
1.0647000e+001
1.0047807e+001
9.4298191e+000
8.8067617e+000
8.1869974e+000
7.5716314e+000
6.9581380e+000
6.3396463e+000
5.7102199e+000
5.0680466e+000
4.4168644e+000
3.7710743e+000
3.1478424e+000
2.5653372e+000
2.0391784e+000
1.5783864e+000
1.1894233e+000
8.7699771e-001
6.4791673e-001
5.1328433e-001
4.7573200e-001
5.1601148e-001
6.0086608e-001
6.7900097e-001
7.0610577e-001
6.6436410e-001
5.5445004e-001
4.0426090e-001
2.4696486e-001
1.1197659e-001
1.8976575e-002
-3.2832205e-002
-5.2118082e-002
-5.4131180e-002
-5.2789338e-002
-5.4661248e-002
-5.9035067e-002
-5.2594349e-002
-2.1384228e-002
4.4032574e-002
1.6050686e-001
3.6273938e-001
6.7087787e-001
1.0605404e+000
1.4990778e+000
1.9606500e+000
2.4321394e+000
2.9249430e+000
3.4466960e+000
3.9802306e+000
4.5010629e+000
4.9817467e+000
5.4066548e+000
5.7897940e+000
6.1526260e+000
6.5159702e+000
6.8967962e+000
7.3018479e+000
7.7315426e+000
8.1768017e+000
8.6272564e+000
9.0763645e+000
9.5202703e+000
9.9593649e+000
1.0390639e+001
1.0797893e+001
1.1164837e+001
1.1474081e+001
1.1715102e+001
1.1899980e+001
1.2042171e+001
1.2157715e+001
1.2254680e+001
1.2328090e+001
1.2375177e+001
1.2409371e+001
1.2447840e+001
1.2507605e+001
1.2586029e+001
1.2636917e+001
1.2604886e+001
1.2446819e+001
1.2140091e+001
1.1720980e+001
1.1236846e+001
1.0730536e+001
1.0232227e+001
9.7325201e+000
9.2215996e+000
8.7046871e+000
8.1959505e+000
7.7226453e+000
7.3038177e+000
6.9254518e+000
6.5625639e+000
6.1822743e+000
5.7604275e+000
5.3048739e+000
4.8353782e+000
4.3823400e+000
3.9739230e+000
3.6213973e+000
3.3244433e+000
3.0590472e+000
2.7968199e+000
2.5135107e+000
2.1976283e+000
1.8731496e+000
1.5673594e+000
1.2907294e+000
1.0419999e+000
7.9585969e-001
5.2844226e-001
2.3982000e-001
-5.7919174e-002
-3.3309913e-001
-5.5299801e-001
-6.9739020e-001
-7.5131905e-001
-7.0702255e-001
-5.6074405e-001
-3.1615940e-001
1.4127105e-002
3.9412636e-001
7.8476351e-001
1.1562151e+000
1.4830027e+000
1.7463742e+000
1.9245343e+000
1.9796302e+000
1.8817115e+000
1.6419497e+000
1.2918092e+000
8.9866769e-001
5.3531384e-001
2.6146856e-001
1.0540771e-001
-4.3880641e-003
-1.3774006e-001
-2.6979381e-001
-3.6661655e-001
-4.4669726e-001
-5.3258246e-001
-6.1400115e-001
-6.6946119e-001
-6.6646105e-001
-5.8294737e-001
-4.4634601e-001
-3.0193818e-001
-2.1568601e-001
-2.4444099e-001
-3.9043432e-001
-6.3109958e-001
-9.0062052e-001
-1.1264876e+000
-1.2522215e+000
-1.2405789e+000
-1.1142477e+000
-9.1561145e-001
-7.0650095e-001
-5.5338001e-001
