##TITLE=Methyl Ethyl Ketone
##JCAMP-DX=4.24
##DATA TYPE=INFRARED SPECTRUM
##XUNITS=cm-1
##YUNITS=Absorbance
##FIRSTX=900
##LASTX=2300
##XYDATA=(X++(Y..Y))
2296 0.064492002
2294 0.065862037
2292 0.06723208
2290 0.068602122
2288 0.069972165
2286 0.071343198
2284 0.072713241
2282 0.074083284
2280 0.075453319
2278 0.076823354
2276 0.078193396
2274 0.079565406
2272 0.080934495
2270 0.082298629
2268 0.083674438
2266 0.085065156
2264 0.086415119
2262 0.08770857
2260 0.089153685
2258 0.090809837
2256 0.091904141
2254 0.092209511
2252 0.094601654
2250 0.099941224
2248 0.097516432
2246 0.075620539
2244 0.031373698
2242 -0.024663094
2240 -0.037825443
2238 0.037926301
2236 0.1638013
2234 0.27826053
2232 0.32594749
2230 0.26874137
2228 0.12997454
2226 -0.047541998
2224 -0.21414411
2222 -0.32686624
2220 -0.3771002
2218 -0.37056595
2216 -0.32993028
2214 -0.27923295
2212 -0.22813959
2210 -0.18201773
2208 -0.14672799
2206 -0.130795
2204 -0.15279606
2202 -0.22751801
2200 -0.34210175
2198 -0.4718219
2196 -0.57864714
2194 -0.63161784
2192 -0.64469707
2190 -0.64598686
2188 -0.66317672
2186 -0.71367604
2184 -0.77458715
2182 -0.8129468
2180 -0.80722463
2178 -0.74826467
2176 -0.66114545
2174 -0.58203977
2172 -0.54723918
2170 -0.58296752
2168 -0.67512858
2166 -0.7948094
2164 -0.90720958
2162 -0.98397797
2160 -1.0299122
2158 -1.0589794
2156 -1.07709
2154 -1.0854495
2152 -1.0783051
2150 -1.0542905
2148 -1.0375597
2146 -1.0569714
2144 -1.1241286
2142 -1.2377321
2140 -1.3690689
2138 -1.4843246
2136 -1.5660086
2134 -1.6044351
2132 -1.5970877
2130 -1.5492369
2128 -1.4879119
2126 -1.4497379
2124 -1.4776034
2122 -1.6005841
2120 -1.7819406
2118 -1.9642855
2116 -2.10391
2114 -2.1738219
2112 -2.1919491
2110 -2.188904
2108 -2.1790233
2106 -2.1674016
2104 -2.149147
2102 -2.1209157
2100 -2.1008899
2098 -2.1118655
2096 -2.1607285
2094 -2.2407222
2092 -2.3147502
2090 -2.3421013
2088 -2.3146892
2086 -2.2446301
2084 -2.1728666
2082 -2.1422768
2080 -2.1596737
2078 -2.2133129
2076 -2.2761056
2074 -2.3218606
2072 -2.349684
2070 -2.370136
2068 -2.3963215
2066 -2.4387414
2064 -2.4943383
2062 -2.5552039
2060 -2.6156352
2058 -2.6733589
2056 -2.7342229
2054 -2.8043544
2052 -2.8758385
2050 -2.9352019
2048 -2.9693096
2046 -2.9720356
2044 -2.9633
2042 -2.9693584
2040 -2.9961863
2038 -3.0355706
2036 -3.0590787
2034 -3.038233
2032 -2.9788022
2030 -2.9036059
2028 -2.8411944
2026 -2.8150487
2024 -2.8207657
2022 -2.8423834
2020 -2.8703024
2018 -2.8998024
2016 -2.9333799
2014 -2.9733608
2012 -3.0075276
2010 -3.0194314
2008 -3.0030875
2006 -2.9606016
2004 -2.9063799
2002 -2.857728
2000 -2.8217194
1998 -2.7979338
1996 -2.7753286
1994 -2.7410676
1992 -2.6958926
1990 -2.647857
1988 -2.6085961
1986 -2.5895221
1984 -2.5955703
1982 -2.6272118
1980 -2.6799664
1978 -2.7434449
1976 -2.7925515
1974 -2.7980032
1972 -2.7435687
1970 -2.6284084
1968 -2.4881136
1966 -2.3724685
1964 -2.3175249
1962 -2.3414984
1960 -2.4200721
1958 -2.5104783
1956 -2.580857
1954 -2.6120434
1952 -2.6103113
1950 -2.593344
1948 -2.5752749
1946 -2.564225
1944 -2.5533915
1942 -2.5307755
1940 -2.4943459
1938 -2.4495163
1936 -2.4097428
1934 -2.3880148
1932 -2.377954
1930 -2.3620148
1928 -2.320169
1926 -2.2347529
1924 -2.0998321
1922 -1.9207907
1920 -1.7255892
1918 -1.5506899
1916 -1.4178801
1914 -1.3359724
1912 -1.296164
1910 -1.2837542
1908 -1.2974246
1906 -1.3391551
1904 -1.3902241
1902 -1.4204367
1900 -1.4027908
1898 -1.3226874
1896 -1.2070286
1894 -1.1050627
1892 -1.061666
1890 -1.106262
1888 -1.2205189
1886 -1.3588901
1884 -1.473412
1882 -1.5248877
1880 -1.5074131
1878 -1.4359771
1876 -1.33295
1874 -1.2214901
1872 -1.1191709
1870 -1.0378476
1868 -0.98085654
1866 -0.94503593
1864 -0.91892618
1862 -0.88933522
1860 -0.85526425
1858 -0.82324845
1856 -0.79850256
1854 -0.78108358
1852 -0.75518388
1850 -0.70071876
1848 -0.6210916
1846 -0.53777319
1844 -0.48398924
1842 -0.49046165
1840 -0.55145657
1838 -0.63773435
1836 -0.71960914
1834 -0.77054
1832 -0.76797026
1830 -0.69750839
1828 -0.5711059
1826 -0.42090407
1824 -0.29524446
1822 -0.24083342
1820 -0.25840539
1818 -0.3166565
1816 -0.37830943
1814 -0.41250721
1812 -0.4189682
1810 -0.41524142
1808 -0.40840325
1806 -0.3952665
1804 -0.36829308
1802 -0.31885862
1800 -0.24173938
1798 -0.13610306
1796 -0.0096278526
1794 0.12251119
1792 0.23585841
1790 0.30734068
1788 0.34593341
1786 0.37969029
1784 0.42036241
1782 0.46677005
1780 0.52281666
1778 0.59365964
1776 0.66592515
1774 0.71202278
1772 0.70182711
1770 0.61494291
1768 0.47567052
1766 0.33559078
1764 0.22586919
1762 0.14719538
1760 0.046379317
1758 -0.14078307
1756 -0.36202985
1754 -0.49057373
1752 -0.46755281
1750 -0.30865169
1748 -0.088918716
1746 0.090434074
1744 0.16980366
1742 0.13879639
1740 0.049837783
1738 -0.015653249
1736 -0.035759401
1734 -0.042594444
1732 -0.084455386
1730 -0.20018032
1728 -0.36119744
1726 -0.48816171
1724 -0.50739473
1722 -0.36128819
1720 -0.011667252
1718 0.55388761
1716 1.2891549
1714 2.1003201
1712 2.8746064
1710 3.5217402
1708 4.0964317
1706 4.7776237
1704 5.7866769
1702 7.3408632
1700 9.5633907
1698 12.438063
1696 15.658714
1694 18.74622
1692 21.445801
1690 23.777311
1688 26.034365
1686 28.662579
1684 31.944412
1682 35.903385
1680 40.110161
1678 43.895271
1676 47.104099
1674 50.082249
1672 53.240231
1670 56.890518
1668 61.003357
1666 65.280502
1664 69.489761
1662 73.510895
1660 77.251572
1658 80.642319
1656 83.700401
1654 86.519348
1652 89.212021
1650 91.836746
1648 94.179581
1646 95.833572
1644 96.604279
1642 96.537613
1640 95.721855
1638 94.231651
1636 92.100929
1634 89.355232
1632 86.160332
1630 82.783714
1628 79.33828
1626 75.77079
1624 72.012642
1622 68.031929
1620 63.897308
1618 59.761505
1616 55.757999
1614 51.982586
1612 48.514217
1610 45.40929
1608 42.655712
1606 40.182663
1604 37.937252
1602 35.903214
1600 34.090141
1598 32.518932
1596 31.178501
1594 30.022041
1592 28.998772
1590 28.070311
1588 27.24486
1586 26.572649
1584 26.094698
1582 25.832479
1580 25.79804
1578 25.996399
1576 26.425686
1574 27.066826
1572 27.855118
1570 28.688105
1568 29.48568
1566 30.20895
1564 30.866463
1562 31.543892
1560 32.510693
1558 34.140762
1556 36.441746
1554 39.000198
1552 41.361149
1550 43.187168
1548 44.490273
1546 45.612965
1544 46.783371
1542 48.006325
1540 49.14212
1538 49.958595
1536 50.308487
1534 50.185299
1532 49.720154
1530 49.139797
1528 48.540405
1526 47.838348
1524 46.906124
1522 45.629181
1520 43.995594
1518 42.120533
1516 40.186569
1514 38.383751
1512 36.69664
1510 34.879631
1508 32.712738
1506 30.106987
1504 27.218241
1502 24.424913
1500 21.94585
1498 19.74045
1496 17.684143
1494 15.629573
1492 13.504328
1490 11.334785
1488 9.1619644
1486 7.0275431
1484 5.0200682
1482 3.2741003
1480 1.8613263
1478 0.78584003
1476 0.16139942
1474 0.20424044
1472 0.86535597
1470 1.760951
1468 2.6111875
1466 3.37046
1464 4.0829973
1462 4.8256555
1460 5.5819154
1458 6.2079992
1456 6.55516
1454 6.5316558
1452 6.2044568
1450 5.8103476
1448 5.4918556
1446 5.2220678
1444 4.965169
1442 4.7214184
1440 4.4907889
1438 4.2589211
1436 3.9908345
1434 3.6361706
1432 3.1875827
1430 2.7012267
1428 2.244808
1426 1.8773893
1424 1.6262846
1422 1.4780089
1420 1.4134254
1418 1.42037
1416 1.5001285
1414 1.668052
1412 1.9275837
1410 2.2596555
1408 2.6360869
1406 3.0244129
1404 3.3997905
1402 3.7501328
1400 4.0657558
1398 4.3375874
1396 4.5634785
1394 4.7507906
1392 4.9072809
1390 5.0359845
1388 5.1264176
1386 5.151865
1384 5.095397
1382 4.9611673
1380 4.7622757
1378 4.5177135
1376 4.2436771
1374 3.9504228
1372 3.65096
1370 3.3613079
1368 3.0814526
1366 2.7859714
1364 2.4444995
1362 2.0336537
1360 1.5646863
1358 1.0986173
1356 0.69418526
1354 0.38496482
1352 0.17534189
1350 0.03458422
1348 -0.061995786
1346 -0.117315
1344 -0.1314792
1342 -0.10925899
1340 -0.064427987
1338 -0.021911103
1336 0.0009908285
1334 0.0046842531
1332 0.00078000582
1330 0.011410642
1328 0.053181645
1326 0.12954848
1324 0.2403366
1322 0.38395321
1320 0.5566501
1318 0.75099599
1316 0.955006
1314 1.1504726
1312 1.3182515
1310 1.4413766
1308 1.5106937
1306 1.5307128
1304 1.5141451
1302 1.482149
1300 1.4549983
1298 1.4475467
1296 1.4681429
1294 1.5148531
1292 1.5801657
1290 1.6508528
1288 1.715124
1286 1.7670279
1284 1.8094558
1282 1.8580769
1280 1.9281875
1278 2.0281069
1276 2.15734
1274 2.302954
1272 2.4534228
1270 2.6062477
1268 2.7674518
1266 2.9548674
1264 3.1888423
1262 3.4881823
1260 3.8661661
1258 4.3256607
1256 4.8639088
1254 5.4710793
1252 6.1330709
1250 6.8302617
1248 7.542294
1246 8.2509251
1244 8.942708
1242 9.6117935
1240 10.250394
1238 10.843357
1236 11.374114
1234 11.824985
1232 12.178801
1230 12.418354
1228 12.530372
1226 12.508771
1224 12.354959
1222 12.076308
1220 11.686154
1218 11.20265
1216 10.647
1214 10.047807
1212 9.4298191
1210 8.8067617
1208 8.1869974
1206 7.5716314
1204 6.958138
1202 6.3396463
1200 5.7102199
1198 5.0680466
1196 4.4168644
1194 3.7710743
1192 3.1478424
1190 2.5653372
1188 2.0391784
1186 1.5783864
1184 1.1894233
1182 0.87699771
1180 0.64791673
1178 0.51328433
1176 0.475732
1174 0.51601148
1172 0.60086608
1170 0.67900097
1168 0.70610577
1166 0.6643641
1164 0.55445004
1162 0.4042609
1160 0.24696486
1158 0.11197659
1156 0.018976575
1154 -0.032832205
1152 -0.052118082
1150 -0.05413118
1148 -0.052789338
1146 -0.054661248
1144 -0.059035067
1142 -0.052594349
1140 -0.021384228
1138 0.044032574
1136 0.16050686
1134 0.36273938
1132 0.67087787
1130 1.0605404
1128 1.4990778
1126 1.96065
1124 2.4321394
1122 2.924943
1120 3.446696
1118 3.9802306
1116 4.5010629
1114 4.9817467
1112 5.4066548
1110 5.789794
1108 6.152626
1106 6.5159702
1104 6.8967962
1102 7.3018479
1100 7.7315426
1098 8.1768017
1096 8.6272564
1094 9.0763645
1092 9.5202703
1090 9.9593649
1088 10.390639
1086 10.797893
1084 11.164837
1082 11.474081
1080 11.715102
1078 11.89998
1076 12.042171
1074 12.157715
1072 12.25468
1070 12.32809
1068 12.375177
1066 12.409371
1064 12.44784
1062 12.507605
1060 12.586029
1058 12.636917
1056 12.604886
1054 12.446819
1052 12.140091
1050 11.72098
1048 11.236846
1046 10.730536
1044 10.232227
1042 9.7325201
1040 9.2215996
1038 8.7046871
1036 8.1959505
1034 7.7226453
1032 7.3038177
1030 6.9254518
1028 6.5625639
1026 6.1822743
1024 5.7604275
1022 5.3048739
1020 4.8353782
1018 4.38234
1016 3.973923
1014 3.6213973
1012 3.3244433
1010 3.0590472
1008 2.7968199
1006 2.5135107
1004 2.1976283
1002 1.8731496
1000 1.5673594
998 1.2907294
996 1.0419999
994 0.79585969
992 0.52844226
990 0.23982
988 -0.057919174
986 -0.33309913
984 -0.55299801
982 -0.6973902
980 -0.75131905
978 -0.70702255
976 -0.56074405
974 -0.3161594
972 0.014127105
970 0.39412636
968 0.78476351
966 1.1562151
964 1.4830027
962 1.7463742
960 1.9245343
958 1.9796302
956 1.8817115
954 1.6419497
952 1.2918092
950 0.89866769
948 0.53531384
946 0.26146856
944 0.10540771
942 -0.0043880641
940 -0.13774006
938 -0.26979381
936 -0.36661655
934 -0.44669726
932 -0.53258246
930 -0.61400115
928 -0.66946119
926 -0.66646105
924 -0.58294737
922 -0.44634601
920 -0.30193818
918 -0.21568601
916 -0.24444099
914 -0.39043432
912 -0.63109958
910 -0.90062052
908 -1.1264876
906 -1.2522215
904 -1.2405789
902 -1.1142477
900 -0.91561145
898 -0.70650095
896 -0.55338001
