Image.
>Pix99999.
  .
5555
5555
2300
900
5555
2
1
0
701
5555
3.3844002e-002
3.4562971e-002
3.5281945e-002
3.6000915e-002
3.6719888e-002
3.7438855e-002
3.8157828e-002
3.8876798e-002
3.9595772e-002
4.0314741e-002
4.1034698e-002
4.1753687e-002
4.2472657e-002
4.3191630e-002
4.3910600e-002
4.4629570e-002
4.5348540e-002
4.6067514e-002
4.6786487e-002
4.7505457e-002
4.8224431e-002
4.8943400e-002
4.9662374e-002
5.0382312e-002
5.1101312e-002
5.1820286e-002
7.4258424e-002
2.8976013e-003
-7.9733759e-002
-1.4046867e-001
-1.9785172e-001
-1.6768192e-001
-1.3123359e-001
-9.5389590e-002
-6.6590898e-002
-9.3329854e-002
-1.2315332e-001
-1.5387146e-001
-1.6815366e-001
-1.3205285e-001
-7.4351370e-002
2.4356237e-002
1.2542729e-001
2.2638957e-001
3.0930513e-001
3.6973199e-001
4.0306279e-001
4.1161403e-001
3.9290190e-001
3.5501540e-001
3.1716999e-001
2.8011009e-001
2.7125400e-001
2.7476215e-001
2.9517138e-001
3.2080713e-001
3.5592398e-001
3.9314538e-001
4.5178720e-001
5.1345611e-001
5.6258315e-001
6.0645491e-001
6.0391557e-001
5.9005952e-001
5.3669792e-001
4.7266808e-001
3.8392207e-001
3.0731675e-001
2.6809564e-001
2.7500743e-001
3.6209902e-001
4.6772528e-001
5.8820087e-001
6.6773361e-001
6.9941634e-001
6.9276679e-001
6.5669495e-001
6.0769075e-001
5.5190241e-001
4.8217815e-001
4.0519255e-001
3.4717792e-001
2.9727811e-001
3.0676752e-001
3.3492079e-001
3.8518485e-001
4.4033021e-001
4.5377040e-001
4.5775250e-001
4.0873390e-001
3.5206774e-001
2.9406640e-001
2.4870715e-001
2.5961313e-001
2.9216567e-001
3.6525413e-001
4.4191363e-001
5.1345670e-001
5.7607543e-001
6.2509155e-001
6.5843284e-001
6.7412412e-001
6.5656787e-001
6.0726392e-001
5.4058141e-001
4.6284851e-001
4.2025566e-001
4.0170011e-001
4.1284606e-001
4.3820703e-001
4.3760040e-001
4.2560998e-001
4.0070561e-001
3.7216720e-001
3.7615770e-001
3.8870427e-001
4.0012559e-001
4.0735859e-001
3.6720112e-001
3.1597883e-001
2.5502485e-001
2.0331950e-001
1.9365528e-001
2.0343506e-001
2.4411263e-001
2.9546928e-001
3.5693279e-001
4.1611728e-001
4.6691161e-001
4.9136779e-001
4.8370430e-001
4.5568508e-001
4.1406846e-001
3.8043940e-001
3.5634759e-001
3.3962807e-001
3.2757154e-001
3.0164555e-001
2.6872540e-001
2.2836794e-001
1.8431601e-001
1.6625434e-001
1.5554811e-001
1.3237131e-001
1.0403103e-001
6.0146235e-002
1.9162305e-002
3.1596161e-002
6.1910901e-002
1.1756943e-001
1.6578428e-001
1.7641015e-001
1.6914760e-001
1.3629298e-001
1.0737100e-001
8.7782986e-002
8.1152305e-002
8.9714393e-002
1.0453599e-001
1.2600802e-001
1.4696315e-001
1.6811110e-001
1.8834226e-001
2.0934385e-001
2.1756662e-001
2.1728365e-001
1.8438466e-001
1.3279738e-001
8.3938643e-002
3.6532547e-002
2.4376657e-002
2.3907078e-002
2.3680931e-002
1.8157717e-002
-8.6422833e-003
-4.1083250e-002
-7.2693802e-002
-8.7901592e-002
-7.0957072e-002
-4.0915072e-002
-8.3589228e-003
-4.3633147e-003
-5.0465796e-002
-1.3767862e-001
-2.5842577e-001
-3.6694106e-001
-4.4175166e-001
-4.5426649e-001
-4.1392908e-001
-3.4558210e-001
-2.7246356e-001
-2.2138649e-001
-1.8715738e-001
-1.6443503e-001
-1.4436047e-001
-1.2120929e-001
-9.7656801e-002
-6.3936383e-002
-2.8081298e-002
2.6767494e-002
8.6130001e-002
1.2456056e-001
1.4763549e-001
1.0941640e-001
4.5150865e-002
-4.4698872e-002
-1.3455059e-001
-1.9846937e-001
-2.4520697e-001
-2.6678368e-001
-2.8794500e-001
-3.0935952e-001
-3.3412313e-001
-3.5496679e-001
-3.3598393e-001
-2.8674722e-001
-2.0938286e-001
-1.2770160e-001
-7.4850671e-002
-4.2365368e-002
-4.8802741e-002
-7.4317075e-002
-1.5069234e-001
-2.5173616e-001
-3.8753200e-001
-5.3320968e-001
-6.0328954e-001
-6.2401700e-001
-5.4479134e-001
-4.2515782e-001
-3.1244716e-001
-2.1683830e-001
-1.4673349e-001
-8.5604839e-002
-3.0161155e-002
2.7947493e-002
6.4242050e-002
7.5086199e-002
5.3430200e-002
3.4926459e-003
-5.4757316e-002
-1.1586768e-001
-1.6816452e-001
-1.9096816e-001
-1.8603355e-001
-1.5549749e-001
-1.0877838e-001
-1.1249302e-001
-1.5881611e-001
-2.6120991e-001
-3.9859998e-001
-4.5592463e-001
-4.6186560e-001
-3.3553427e-001
-1.4158577e-001
4.8340261e-002
2.2042629e-001
3.1115174e-001
3.3975857e-001
2.8958100e-001
1.9000572e-001
6.2063802e-002
-5.1151242e-002
-1.1634371e-001
-1.2758012e-001
-8.7465189e-002
-3.6763281e-002
1.3449911e-002
1.2872039e-002
-5.4670505e-002
-1.5009035e-001
-2.4709560e-001
-3.3411765e-001
-3.9732671e-001
-4.3487209e-001
-4.6033537e-001
-5.0287849e-001
-5.8350992e-001
-6.8207824e-001
-7.8309208e-001
-7.3386198e-001
-5.5610704e-001
-2.6436204e-001
8.4957585e-002
2.4401343e-001
2.5075635e-001
1.7995536e-001
6.6874720e-002
2.2343377e-002
4.9996417e-002
2.6843876e-001
6.6101003e-001
1.1255622e+000
1.5961454e+000
2.0335200e+000
2.5387821e+000
3.2397954e+000
4.4184217e+000
6.2210326e+000
8.9961319e+000
1.2735000e+001
1.6663380e+001
2.0406050e+001
2.3696997e+001
2.6578869e+001
2.9908379e+001
3.3794117e+001
3.8574593e+001
4.4064560e+001
4.8976830e+001
5.3316826e+001
5.7429852e+001
6.1453712e+001
6.6101730e+001
7.1212006e+001
7.6216400e+001
8.1018318e+001
8.5318245e+001
8.9147598e+001
9.2568283e+001
9.5544601e+001
9.8046509e+001
9.9931358e+001
1.0105316e+002
1.0128794e+002
1.0052447e+002
9.9076126e+001
9.7302513e+001
9.5084801e+001
9.2451958e+001
8.9061554e+001
8.4856430e+001
8.0381348e+001
7.5850349e+001
7.1456673e+001
6.7243866e+001
6.2895237e+001
5.8386093e+001
5.4004353e+001
4.9769749e+001
4.5810230e+001
4.2137840e+001
3.8871002e+001
3.6017120e+001
3.3570286e+001
3.1517801e+001
2.9739477e+001
2.8248461e+001
2.7017977e+001
2.6041216e+001
2.5271500e+001
2.4713179e+001
2.4333811e+001
2.4135975e+001
2.4094830e+001
2.4167664e+001
2.4317915e+001
2.4491871e+001
2.4665386e+001
2.4900297e+001
2.5218000e+001
2.5752012e+001
2.6518183e+001
2.7475645e+001
2.8603760e+001
2.9732435e+001
3.0846676e+001
3.2064411e+001
3.3469944e+001
3.5670826e+001
3.8766514e+001
4.2285419e+001
4.5993904e+001
4.8901989e+001
5.0982964e+001
5.2649464e+001
5.3946445e+001
5.5086189e+001
5.6034580e+001
5.6664261e+001
5.6786545e+001
5.6245453e+001
5.5163147e+001
5.3819714e+001
5.2308876e+001
5.0713200e+001
4.8978714e+001
4.7047447e+001
4.4999836e+001
4.2812359e+001
4.0739616e+001
3.8885708e+001
3.7013000e+001
3.5120541e+001
3.2703110e+001
2.9615742e+001
2.6542398e+001
2.3525234e+001
2.1001635e+001
1.9013130e+001
1.6994572e+001
1.4929583e+001
1.2757332e+001
1.0504285e+001
8.2658272e+000
6.1254964e+000
4.2328320e+000
2.6412628e+000
1.4200504e+000
5.6802750e-001
1.0040317e-001
1.7484295e-001
7.1749741e-001
1.4843450e+000
2.3395445e+000
3.0899909e+000
3.6494303e+000
4.1114292e+000
4.5110893e+000
4.9324093e+000
5.3917198e+000
5.8555088e+000
6.2811489e+000
6.5750842e+000
6.6564503e+000
6.6298785e+000
6.4599199e+000
6.2544241e+000
6.0055227e+000
5.6988001e+000
5.3179898e+000
4.8091145e+000
4.1880789e+000
3.5595262e+000
2.9456799e+000
2.4452021e+000
2.0662777e+000
1.8127326e+000
1.7104368e+000
1.7540650e+000
1.9285315e+000
2.2157152e+000
2.5280900e+000
2.8454740e+000
3.1502383e+000
3.4420156e+000
3.7412817e+000
4.0383754e+000
4.3312078e+000
4.6050081e+000
4.8760214e+000
5.1316013e+000
5.3822813e+000
5.5831079e+000
5.7028513e+000
5.6803451e+000
5.5533323e+000
5.2816010e+000
4.9433527e+000
4.5244579e+000
4.0477886e+000
3.5390050e+000
3.0459919e+000
2.5968153e+000
2.2469788e+000
1.9428935e+000
1.6149803e+000
1.2593391e+000
8.5034156e-001
4.6781421e-001
2.0610888e-001
3.4505576e-002
-1.4032560e-003
3.2065697e-002
1.1599210e-001
1.8366608e-001
2.8359562e-001
3.8943142e-001
5.0741363e-001
6.3788825e-001
7.8443033e-001
9.6158731e-001
1.1502403e+000
1.3405820e+000
1.5272925e+000
1.7094371e+000
1.9077065e+000
2.1207457e+000
2.3700554e+000
2.6352262e+000
2.9196701e+000
3.1976676e+000
3.4522412e+000
3.6796601e+000
3.8602242e+000
3.9932427e+000
4.0766225e+000
4.0965199e+000
4.0809312e+000
4.0291734e+000
3.9744856e+000
3.9314539e+000
3.9026179e+000
3.8983815e+000
3.9074440e+000
3.9387057e+000
3.9773750e+000
4.0250411e+000
4.0673637e+000
4.0948939e+000
4.1150103e+000
4.1279402e+000
4.1431727e+000
4.1714058e+000
4.2185683e+000
4.2949815e+000
4.4072347e+000
4.5582786e+000
4.7286577e+000
4.9171543e+000
5.1072402e+000
5.2989874e+000
5.4939690e+000
5.6841397e+000
5.8524537e+000
6.0040250e+000
6.1277609e+000
6.2375045e+000
6.3303986e+000
6.3975306e+000
6.3966517e+000
6.3448815e+000
6.1712160e+000
5.9502659e+000
5.6169291e+000
5.2517829e+000
4.8036060e+000
4.3317418e+000
3.8036668e+000
3.2755229e+000
2.7528486e+000
2.2714767e+000
1.8680400e+000
1.5288501e+000
1.2822515e+000
1.0790231e+000
9.2168045e-001
7.6626778e-001
6.0689974e-001
4.2134017e-001
2.1340229e-001
-1.3322353e-002
-2.4032885e-001
-4.2381820e-001
-5.6893778e-001
-6.3509274e-001
-6.6521043e-001
-6.5358645e-001
-6.1696923e-001
-5.1455510e-001
-3.7193599e-001
-1.0117389e-001
1.9191372e-001
5.3870451e-001
8.6203635e-001
1.1074278e+000
1.3066180e+000
1.3891400e+000
1.4237325e+000
1.3616987e+000
1.2660514e+000
1.1174914e+000
9.6314794e-001
8.0303729e-001
6.4806819e-001
4.9899572e-001
3.5378981e-001
2.1623778e-001
1.0656349e-001
2.4591751e-002
-8.5461028e-003
-7.6029114e-003
6.5417990e-002
1.7293841e-001
3.1835514e-001
4.6771345e-001
5.8544004e-001
6.8532783e-001
7.1988839e-001
7.4759471e-001
7.7044803e-001
8.0293250e-001
8.7649250e-001
9.5870048e-001
1.0684326e+000
1.1848149e+000
1.3165331e+000
1.4465430e+000
1.5707160e+000
1.6764687e+000
1.7517142e+000
1.8063862e+000
1.8373020e+000
1.8780285e+000
1.9314954e+000
2.0102677e+000
2.1069219e+000
2.1916294e+000
2.2633801e+000
2.2882459e+000
2.2868729e+000
2.2458706e+000
2.1883810e+000
2.1088357e+000
2.0197432e+000
1.9000549e+000
1.7764760e+000
1.6541647e+000
1.5418249e+000
1.4931276e+000
1.4538058e+000
1.4556031e+000
1.4576235e+000
1.4609780e+000
1.4593017e+000
1.4441286e+000
1.4140052e+000
1.3537577e+000
1.2756102e+000
1.1699371e+000
1.0549880e+000
9.2939717e-001
7.9736048e-001
6.5894771e-001
5.0434566e-001
3.3852404e-001
1.6691966e-001
-3.7527755e-003
-1.2938252e-001
-2.3392463e-001
-2.9251769e-001
-3.4205484e-001
-4.2807445e-001
-5.2477229e-001
-6.7466199e-001
-8.2792604e-001
-9.7022450e-001
-1.1061095e+000
-1.1991993e+000
-1.2795286e+000
-1.3039143e+000
-1.3169020e+000
-1.2957246e+000
-1.2776815e+000
-1.2669771e+000
-1.2558515e+000
-1.2422366e+000
-1.2214957e+000
-1.1915840e+000
-1.1791397e+000
-1.1854972e+000
-1.2016428e+000
-1.2234012e+000
-1.2035791e+000
-1.1557257e+000
-1.0678935e+000
-9.6243823e-001
-8.6741102e-001
-7.7771908e-001
-7.1684307e-001
-6.6211814e-001
-5.9725487e-001
-5.2924478e-001
-4.1111538e-001
-2.8600633e-001
-9.2220433e-002
3.4525692e-003
1.0721983e-001
3.0495244e-001
4.8976389e-001
6.6809571e-001
8.2842463e-001
1.0042132e+000
1.2116566e+000
1.3683349e+000
1.4417329e+000
1.4032180e+000
1.2287836e+000
1.0230670e+000
7.8874350e-001
5.9235770e-001
4.2317420e-001
3.1828400e-001
2.4957800e-001
2.6465696e-001
3.1471157e-001
4.0867499e-001
5.1629078e-001
6.5861517e-001
8.0730134e-001
1.0249000e+000
