##TITLE=Methyl Ethyl Ketone
##JCAMP-DX=4.24
##DATA TYPE=INFRARED SPECTRUM
##XUNITS=cm-1
##YUNITS=Absorbance
##FIRSTX=900
##LASTX=2300
##XYDATA=(X++(Y..Y))
2296 0.2137
2294 0.21815363
2292 0.22259729
2290 0.22704093
2288 0.23148458
2286 0.23593815
2284 0.24038185
2282 0.24482551
2280 0.24926914
2278 0.25371277
2276 0.25816628
2274 0.26261008
2272 0.26705369
2270 0.27147773
2268 0.2759504
2266 0.28045335
2264 0.28483966
2262 0.28903797
2260 0.29371914
2258 0.29908371
2256 0.30264941
2254 0.30367151
2252 0.31140015
2250 0.32860401
2248 0.32085556
2246 0.25432321
2244 0.13900389
2242 0.0030295635
2240 -0.10223404
2238 -0.13220474
2236 -0.095768414
2234 -0.017020112
2232 0.080132075
2230 0.17227308
2228 0.23711134
2226 0.256749
2224 0.22978891
2222 0.16358067
2220 0.081351824
2218 0.0092841387
2216 -0.033155471
2214 -0.0336022
2212 -7.3263887e-05
2210 0.053244956
2208 0.11190049
2206 0.16385543
2204 0.20684911
2202 0.24184223
2200 0.27072436
2198 0.2941165
2196 0.30660358
2194 0.30241489
2192 0.28226525
2190 0.25152802
2188 0.2263639
2186 0.22287513
2184 0.243164
2182 0.2826198
2180 0.32777256
2178 0.36388388
2176 0.382476
2174 0.3784081
2172 0.35180402
2170 0.30679122
2168 0.25698882
2166 0.21831864
2164 0.20340894
2162 0.22020625
2160 0.26207951
2158 0.31757215
2156 0.37537
2154 0.42574811
2152 0.4649432
2150 0.4903034
2148 0.49526823
2146 0.47470286
2144 0.43494719
2142 0.3875387
2140 0.34862533
2138 0.32970116
2136 0.3169623
2134 0.29064965
2132 0.24368857
2130 0.18048255
2128 0.1330456
2126 0.13505393
2124 0.18668237
2122 0.27162099
2120 0.35734272
2118 0.41381773
2116 0.44419158
2114 0.46060079
2112 0.46073207
2110 0.4359979
2108 0.37609112
2106 0.27752885
2104 0.16672823
2102 0.077454597
2100 0.02651082
2098 0.01951508
2096 0.044304859
2094 0.083550267
2092 0.12585375
2090 0.16369247
2088 0.19487165
2086 0.219862
2084 0.24190249
2082 0.26336122
2080 0.27889439
2078 0.2815437
2076 0.27051955
2074 0.25052756
2072 0.2383972
2070 0.25114504
2068 0.28656021
2066 0.33143643
2064 0.36018416
2062 0.34957346
2060 0.30593485
2058 0.2473588
2056 0.18881886
2054 0.13854159
2052 0.084411755
2050 0.011242152
2048 -0.073345289
2046 -0.15209535
2044 -0.2097846
2042 -0.23756772
2040 -0.24768589
2038 -0.25747633
2036 -0.26775086
2034 -0.2696844
2032 -0.24627218
2030 -0.18288261
2028 -0.088400513
2026 0.017388714
2024 0.11323091
2022 0.18202001
2020 0.22454546
2018 0.24901439
2016 0.26101598
2014 0.26448527
2012 0.2631402
2010 0.26016963
2008 0.25625548
2006 0.25075594
2004 0.24198976
2002 0.23003811
2000 0.22399914
1998 0.23545602
1996 0.26853144
1994 0.31919536
1992 0.364876
1990 0.3792308
1988 0.35635981
1986 0.30473655
1984 0.25021303
1982 0.21991538
1980 0.2135902
1978 0.21865363
1976 0.22878514
1974 0.2460732
1972 0.29149097
1970 0.38656101
1968 0.51658052
1966 0.64706653
1964 0.7384004
1962 0.75902748
1960 0.71736997
1958 0.64138442
1956 0.55613643
1954 0.48157209
1952 0.42818516
1950 0.40039662
1948 0.39629471
1946 0.4092125
1944 0.42447636
1942 0.42745286
1940 0.42055568
1938 0.41430062
1936 0.414386
1934 0.41984275
1932 0.4149766
1930 0.38246721
1928 0.33070642
1926 0.28323242
1924 0.26707101
1922 0.29906219
1920 0.34845659
1918 0.36700562
1916 0.34269345
1914 0.29132381
1912 0.2544148
1910 0.27202418
1908 0.32430845
1906 0.36114186
1904 0.3495796
1902 0.28142443
1900 0.20195648
1898 0.17619818
1896 0.22897859
1894 0.34984133
1892 0.48457783
1890 0.56389761
1888 0.55154568
1886 0.4414627
1884 0.26796222
1882 0.082308695
1880 -0.083698809
1878 -0.21284819
1876 -0.29350701
1874 -0.31602702
1872 -0.27063721
1870 -0.15772173
1868 -0.02359293
1866 0.064270228
1864 0.065830693
1862 -0.028385889
1860 -0.17725863
1858 -0.31961447
1856 -0.4322257
1854 -0.51889598
1852 -0.58813035
1850 -0.64657509
1848 -0.6917752
1846 -0.71766073
1844 -0.72712475
1842 -0.72759509
1840 -0.71930575
1838 -0.69557613
1836 -0.64186126
1834 -0.54147768
1832 -0.38786635
1830 -0.18926218
1828 0.010748342
1826 0.15130892
1824 0.1919892
1822 0.11898671
1820 -0.0317632
1818 -0.1968783
1816 -0.32657456
1814 -0.39068583
1812 -0.39187646
1810 -0.35051256
1808 -0.27578336
1806 -0.1708795
1804 -0.056040064
1802 0.036899764
1800 0.080202088
1798 0.060415164
1796 0.0096764788
1794 -0.017907873
1792 -0.0060479436
1790 0.031839907
1788 0.081078701
1786 0.13090901
1784 0.17581572
1782 0.21346077
1780 0.24104331
1778 0.25986451
1776 0.29341543
1774 0.37130171
1772 0.47960183
1770 0.57007557
1768 0.58692932
1766 0.4912737
1764 0.32692799
1762 0.17894086
1760 0.049549371
1758 -0.11034216
1756 -0.27539486
1754 -0.36760956
1752 -0.35668612
1750 -0.265356
1748 -0.16101326
1746 -0.1272175
1744 -0.19807486
1742 -0.35169795
1740 -0.49351946
1738 -0.50073504
1736 -0.34464198
1734 -0.087837406
1732 0.1426703
1730 0.20797153
1728 0.088846579
1726 -0.12658098
1724 -0.29939538
1722 -0.27214751
1720 0.083192915
1718 0.82945776
1716 1.84732
1714 2.8990176
1712 3.8362823
1710 4.6356549
1708 5.434958
1706 6.481102
1704 8.0022755
1702 10.172383
1700 13.059566
1698 16.593273
1696 20.414715
1694 24.00115
1692 27.097918
1690 29.770334
1688 32.412624
1686 35.610729
1684 39.766464
1682 44.963757
1680 50.665241
1678 55.992092
1676 60.7477
1674 65.376076
1672 70.280426
1670 75.618355
1668 81.041321
1666 85.868301
1664 89.755318
1662 92.733742
1660 94.942131
1658 96.537788
1656 97.617683
1654 98.209869
1652 98.290894
1650 97.80999
1648 96.759338
1646 95.204254
1644 93.346558
1642 91.454483
1640 89.569313
1638 87.49646
1636 84.983513
1634 81.814346
1632 78.013077
1630 73.807404
1628 69.34536
1626 64.66127
1624 59.775841
1622 54.739803
1620 49.707043
1618 44.910179
1616 40.511143
1614 36.581509
1612 33.160259
1610 30.260519
1608 27.838039
1606 25.800615
1604 24.076454
1602 22.628847
1600 21.456554
1598 20.583975
1596 20.0215
1594 19.758167
1592 19.762136
1590 19.98661
1588 20.400108
1586 20.990156
1584 21.746799
1582 22.668409
1580 23.802509
1578 25.245531
1576 27.094229
1574 29.41013
1572 32.128525
1570 35.062397
1568 38.025723
1566 40.875336
1564 43.539349
1562 46.047451
1560 48.612148
1558 51.525646
1556 54.615772
1554 57.2356
1552 58.925171
1550 59.592194
1548 59.473385
1546 59.02393
1544 58.41943
1542 57.476284
1540 55.96796
1538 53.760506
1536 51.031971
1534 48.253521
1532 45.740425
1530 43.544701
1528 41.5966
1526 39.75325
1524 37.874668
1522 35.854927
1520 33.653858
1518 31.31316
1516 28.963642
1514 26.7889
1512 24.815479
1510 22.872927
1508 20.773926
1506 18.399185
1504 15.847531
1502 13.436161
1500 11.371268
1498 9.6579704
1496 8.2094002
1494 6.8884478
1492 5.6084456
1490 4.358171
1488 3.1449153
1486 1.9877279
1484 0.95213008
1482 0.15281744
1480 -0.31835014
1478 -0.40671954
1476 -0.040484309
1474 0.85438037
1472 2.1983874
1470 3.7285299
1468 5.2160888
1466 6.5435505
1464 7.7024937
1462 8.792037
1460 9.9150734
1458 11.12742
1456 12.3632
1454 13.419358
1452 14.113565
1450 14.350653
1448 14.150582
1446 13.65875
1444 13.018914
1442 12.3299
1440 11.646714
1438 10.972291
1436 10.268714
1434 9.468791
1432 8.5579863
1430 7.6053352
1428 6.7106338
1426 5.9825268
1424 5.4839158
1422 5.2074313
1420 5.1116433
1418 5.1321287
1416 5.2183199
1414 5.3501492
1412 5.5342717
1410 5.8019056
1408 6.168365
1406 6.6154075
1404 7.1018929
1402 7.5642276
1400 7.9361963
1398 8.158514
1396 8.193264
1394 8.0366297
1392 7.7189155
1390 7.3066492
1388 6.8590755
1386 6.4108601
1384 5.9796743
1382 5.5660849
1380 5.1658158
1378 4.7715693
1376 4.3673744
1374 3.9274216
1372 3.4349101
1370 2.8914216
1368 2.3074994
1366 1.7017093
1364 1.0952539
1362 0.51414531
1360 0.0054905713
1358 -0.35721859
1356 -0.5224387
1354 -0.48305663
1352 -0.24608058
1350 0.17131689
1348 0.72911036
1346 1.3590357
1344 2.01298
1342 2.6813631
1340 3.3407657
1338 3.9305511
1336 4.3769226
1334 4.6065946
1332 4.5967989
1330 4.4071989
1328 4.1141095
1326 3.7884665
1324 3.4887419
1322 3.2519286
1320 3.0958993
1318 3.0118878
1316 2.9695899
1314 2.9149585
1312 2.8051596
1310 2.628922
1308 2.4014006
1306 2.1697807
1304 1.9815458
1302 1.869766
1300 1.8518937
1298 1.9237454
1296 2.0776715
1294 2.3089058
1292 2.6187098
1290 3.015614
1288 3.498316
1286 4.0430326
1284 4.6109853
1282 5.1471214
1280 5.6035337
1278 5.9543619
1276 6.1938438
1274 6.3446827
1272 6.4417152
1270 6.52953
1268 6.6502242
1266 6.8365717
1264 7.1115012
1262 7.4834018
1260 7.9546962
1258 8.5233412
1256 9.188611
1254 9.9541206
1252 10.822554
1250 11.791477
1248 12.847577
1246 13.95425
1244 15.063954
1242 16.119448
1240 17.05924
1238 17.822594
1236 18.350471
1234 18.591034
1232 18.503279
1230 18.06633
1228 17.285402
1226 16.203756
1224 14.888926
1222 13.434482
1220 11.949049
1218 10.547348
1216 9.335989
1214 8.3978443
1212 7.7844458
1210 7.4937954
1208 7.4841857
1206 7.6572161
1204 7.8953419
1202 8.0723934
1200 8.0813494
1198 7.8644862
1196 7.4064574
1194 6.7578459
1192 5.9907484
1190 5.1873398
1188 4.4131002
1186 3.6926763
1184 3.0392382
1182 2.4623368
1180 1.9760396
1178 1.6037962
1176 1.35946
1174 1.2299531
1172 1.1922923
1170 1.2168167
1168 1.2795194
1166 1.3716229
1164 1.4844034
1162 1.600193
1160 1.697276
1158 1.7506988
1156 1.7419528
1154 1.6697539
1152 1.5388023
1150 1.3589557
1148 1.1407197
1146 0.89427888
1144 0.6366182
1142 0.39846915
1140 0.2018711
1138 0.041358873
1136 -0.088890113
1134 -0.18074511
1132 -0.2278809
1130 -0.23615304
1128 -0.21420115
1126 -0.17007007
1124 -0.10933858
1122 -0.03269773
1120 0.053607762
1118 0.12777352
1116 0.17151128
1114 0.18540518
1112 0.1841456
1110 0.20449039
1108 0.27291968
1106 0.37682101
1104 0.49276447
1102 0.5949614
1100 0.66954607
1098 0.73483837
1096 0.82220143
1094 0.97551912
1092 1.2316741
1090 1.5999151
1088 2.0655041
1086 2.5685806
1084 3.0415096
1082 3.4254119
1080 3.673404
1078 3.765517
1076 3.6986158
1074 3.4981337
1072 3.2074246
1070 2.8977191
1068 2.6364553
1066 2.4600208
1064 2.3833601
1062 2.3817887
1060 2.4221437
1058 2.4740484
1056 2.51366
1054 2.5337369
1052 2.5348756
1050 2.5286379
1048 2.5243137
1046 2.5178499
1044 2.499882
1042 2.4567645
1040 2.3854737
1038 2.3171499
1036 2.2890701
1034 2.3308837
1032 2.4505296
1030 2.5981293
1028 2.711149
1026 2.7323928
1024 2.6253462
1022 2.4106202
1020 2.1269591
1018 1.8241171
1016 1.5459
1014 1.3086137
1012 1.115846
1010 0.95236051
1008 0.80123079
1006 0.65347481
1004 0.50236648
1002 0.3418206
1000 0.16551059
998 -0.033798471
996 -0.25703287
994 -0.48460609
992 -0.69440037
990 -0.87261003
988 -1.0116841
986 -1.1175044
984 -1.1942703
982 -1.2299758
980 -1.206722
978 -1.099685
976 -0.89369661
974 -0.61033374
972 -0.28955871
970 -0.0014687628
968 0.19264469
966 0.28675699
964 0.29921752
962 0.28415918
960 0.29101259
958 0.32232544
956 0.36223942
954 0.37176856
952 0.32004079
950 0.22464646
948 0.11632919
946 0.030130666
944 0.0098626316
942 0.12553167
940 0.41523498
938 0.77920729
936 1.09978
934 1.3192542
932 1.4107357
930 1.4071732
928 1.3615
926 1.3460908
924 1.427336
922 1.6311283
920 1.9562503
918 2.3374918
916 2.6980271
914 2.9780457
912 3.1439886
910 3.247894
908 3.3575654
906 3.5171602
904 3.7494195
902 4.0148668
900 4.2632685
898 4.4618731
896 4.5826998
