##TITLE=Methyl Ethyl Ketone
##JCAMP-DX=4.24
##DATA TYPE=INFRARED SPECTRUM
##XUNITS=cm-1
##YUNITS=Absorbance
##FIRSTX=900
##LASTX=2300
##XYDATA=(X++(Y..Y))
2296 0.050627999
2294 0.051681492
2292 0.052733991
2290 0.053787477
2288 0.054840971
2286 0.055894464
2284 0.056946967
2282 0.058000449
2280 0.059053943
2278 0.060107436
2276 0.061159942
2274 0.062213421
2272 0.063266918
2270 0.064320408
2268 0.065372922
2266 0.066426396
2264 0.067479886
2262 0.068533376
2260 0.069585897
2258 0.070639364
2256 0.071692854
2254 0.072746351
2252 0.073798873
2250 0.074852332
2248 0.07590583
2246 0.076959319
2244 0.033322763
2242 0.0012203229
2240 -0.0068402877
2238 -0.052750137
2236 -0.10436708
2234 -0.15364937
2232 -0.199918
2230 -0.18258218
2228 -0.15211619
2226 -0.041078802
2224 0.078080125
2222 0.21572173
2220 0.32958525
2218 0.36801344
2216 0.36828884
2214 0.29449496
2212 0.2223804
2210 0.16013199
2208 0.14337932
2206 0.18257728
2204 0.25086081
2202 0.34372762
2200 0.40028399
2198 0.42848551
2196 0.40612215
2194 0.35569626
2192 0.30988958
2190 0.26693285
2188 0.24913655
2186 0.23945206
2184 0.26314679
2182 0.29439789
2180 0.35390705
2178 0.41692314
2176 0.42539513
2174 0.42284188
2172 0.35220772
2170 0.27766597
2168 0.21775497
2166 0.17559722
2164 0.19298749
2162 0.23013161
2160 0.30263674
2158 0.37119293
2156 0.42540002
2154 0.46016213
2152 0.46890873
2150 0.4697181
2148 0.46466941
2146 0.45874858
2144 0.4526099
2142 0.45606071
2140 0.46621987
2138 0.48308808
2136 0.50321943
2134 0.50053722
2132 0.48804089
2130 0.45634276
2128 0.41877958
2126 0.38369721
2124 0.34932381
2122 0.34472343
2120 0.34687319
2118 0.38700101
2116 0.4317877
2114 0.47073051
2112 0.50084382
2110 0.49546698
2108 0.48184478
2106 0.45906022
2104 0.44305286
2102 0.44504425
2100 0.44642961
2098 0.44236878
2096 0.42980859
2094 0.40723294
2092 0.38815221
2090 0.37420669
2088 0.35171503
2086 0.3214485
2084 0.28392574
2082 0.24226974
2080 0.19942737
2078 0.15630841
2076 0.10205887
2074 0.043224871
2072 0.0159864
2070 -0.00085147424
2068 0.046069562
2066 0.10896023
2064 0.19360635
2062 0.27919948
2060 0.32974511
2058 0.3628234
2056 0.33768973
2054 0.29814887
2052 0.24865921
2050 0.21137403
2048 0.21116583
2046 0.21914749
2044 0.22921179
2042 0.22503439
2040 0.19812977
2038 0.16810986
2036 0.13889985
2034 0.1217686
2032 0.11631115
2030 0.13135161
2028 0.16126005
2026 0.20512322
2024 0.2566053
2022 0.27108857
2020 0.26587379
2018 0.21658288
2016 0.14954999
2014 0.12591159
2012 0.11710866
2010 0.15793546
2008 0.20981514
2006 0.23472522
2004 0.24897808
2002 0.2380909
2000 0.22002126
1998 0.20034418
1996 0.17942856
1994 0.15718867
1992 0.13956726
1990 0.13134925
1988 0.1370288
1986 0.16069879
1984 0.18968691
1982 0.22020732
1980 0.24370196
1978 0.25983688
1976 0.27175373
1974 0.28180748
1972 0.28979892
1970 0.2969
1968 0.29117915
1966 0.27734342
1964 0.23805304
1962 0.18541408
1960 0.137098
1958 0.09120667
1956 0.093275584
1954 0.11321543
1952 0.16425863
1950 0.22203746
1948 0.25854269
1946 0.28077501
1944 0.2615087
1942 0.22904555
1940 0.18893071
1938 0.15879789
1936 0.15933371
1934 0.17788416
1932 0.2166716
1930 0.24898784
1928 0.26401052
1926 0.25893199
1924 0.23536174
1922 0.20491157
1920 0.17091343
1918 0.1298326
1916 0.080702029
1914 0.04184645
1912 0.012342535
1910 0.017363813
1908 0.044219974
1906 0.078482553
1904 0.11451373
1902 0.12383083
1900 0.11986692
1898 0.11991868
1896 0.12345286
1894 0.15526861
1892 0.19933972
1890 0.2482425
1888 0.29780045
1886 0.33837914
1884 0.36885473
1882 0.3777836
1880 0.36989063
1878 0.34283796
1876 0.30545801
1874 0.26540595
1872 0.23055772
1870 0.20728184
1868 0.19855343
1866 0.19861643
1864 0.18672663
1862 0.155147
1860 0.11320348
1858 0.068306908
1856 0.033461485
1854 0.0089349337
1852 -0.045465522
1850 -0.11926196
1848 -0.23815
1846 -0.37941998
1844 -0.45729271
1842 -0.49639216
1840 -0.43645361
1838 -0.33361772
1836 -0.24786757
1834 -0.18292139
1832 -0.17260234
1830 -0.18665685
1828 -0.2044414
1826 -0.19575122
1824 -0.12109751
1822 -0.011362974
1820 0.11584436
1818 0.22144879
1816 0.28300884
1814 0.29506063
1812 0.26121899
1810 0.18759489
1808 0.082847029
1806 -0.033331148
1804 -0.15217406
1802 -0.26645994
1800 -0.37389702
1798 -0.46186864
1796 -0.53477144
1794 -0.54673541
1792 -0.51995921
1790 -0.43388122
1788 -0.31668413
1786 -0.21996172
1784 -0.14034274
1782 -0.092777118
1780 -0.066091232
1778 -0.051039338
1776 -0.048122026
1774 -0.069673546
1772 -0.095503755
1770 -0.10745665
1768 -0.099847019
1766 -0.067312196
1764 -0.032227818
1762 -0.0078589544
1760 0.0045698811
1758 -0.098162331
1756 -0.28249043
1754 -0.48317599
1752 -0.68452203
1750 -0.87668794
1748 -0.99984378
1746 -1.0540822
1744 -1.0330051
1742 -0.96245146
1740 -0.95208812
1738 -1.0000535
1736 -1.1024799
1734 -1.2365268
1732 -1.2019451
1730 -1.0447317
1728 -0.78811473
1726 -0.4820478
1724 -0.2579625
1722 -0.099308819
1720 0.0071257763
1718 0.13676906
1716 0.45739084
1714 0.96729898
1712 1.6838074
1710 2.5127277
1708 3.3574519
1706 4.3074841
1704 5.4524875
1702 7.1044154
1700 9.4343538
1698 12.73847
1696 17.017429
1694 21.350681
1692 25.320961
1690 28.726294
1688 31.630775
1686 34.990799
1684 38.935764
1682 43.831982
1680 49.50008
1678 54.600723
1676 59.135929
1674 63.418877
1672 67.573784
1670 72.243668
1668 77.259628
1666 81.997749
1664 86.372238
1662 90.042595
1660 93.043831
1658 95.405701
1656 97.134659
1654 98.25515
1652 98.780563
1650 98.766663
1648 98.335571
1646 97.628319
1644 96.743393
1642 95.785942
1640 94.46846
1638 92.68309
1636 90.019485
1634 86.418373
1632 82.326431
1630 77.965988
1628 73.53067
1626 69.082031
1624 64.257957
1622 59.05724
1620 53.90995
1618 48.867569
1616 44.289913
1614 40.197701
1612 36.695599
1610 33.772011
1608 31.286131
1606 29.213642
1604 27.40172
1602 25.872829
1600 24.623457
1598 23.652742
1596 22.916
1594 22.423058
1592 22.149445
1590 22.122553
1588 22.336632
1586 22.774551
1584 23.399982
1582 24.160271
1580 25.013851
1578 26.071571
1576 27.370001
1574 29.044445
1572 31.118626
1570 33.42157
1568 35.90736
1566 38.284916
1564 40.512352
1562 42.545837
1560 44.405926
1558 46.550407
1556 48.979099
1554 51.348701
1552 53.489994
1550 54.88176
1548 55.515858
1546 55.757
1544 55.537231
1542 54.862034
1540 53.704483
1538 52.107346
1536 50.317429
1534 48.699566
1532 47.187477
1530 45.726604
1528 44.210686
1526 42.555199
1524 40.718613
1522 38.66774
1520 36.478313
1518 34.162708
1516 32.000172
1514 30.099205
1512 28.24736
1510 26.421606
1508 24.087318
1506 21.095163
1504 18.102011
1502 15.174521
1500 12.7909
1498 11.01877
1496 9.3130426
1494 7.6763291
1492 6.0378599
1490 4.4448423
1488 2.998812
1486 1.7832435
1484 0.88516092
1482 0.31134146
1480 -0.00087010115
1478 -0.083409652
1476 0.020739108
1474 0.44972324
1472 1.2439975
1470 2.2701869
1468 3.4649382
1466 4.6065788
1464 5.5619612
1462 6.3868322
1460 7.0802689
1458 7.7601047
1456 8.4539404
1454 9.119566
1452 9.723938
1450 10.130881
1448 10.235937
1446 10.189535
1444 9.9326735
1442 9.5988998
1440 9.1498909
1438 8.5707769
1436 7.8218713
1434 6.9289851
1432 5.9372072
1430 5.0545859
1428 4.3319101
1426 3.8256614
1424 3.5178878
1422 3.3314841
1420 3.2743783
1418 3.3417597
1416 3.5536199
1414 3.9432201
1412 4.4272804
1410 4.9709177
1408 5.5122075
1406 6.0155244
1404 6.4579682
1402 6.794467
1400 7.0115237
1398 7.0338235
1396 6.9473071
1394 6.6879129
1392 6.4353452
1390 6.188467
1388 5.9661393
1386 5.7716198
1384 5.548708
1382 5.2807145
1380 4.9687071
1378 4.5934362
1376 4.1535945
1374 3.6470087
1372 3.1067321
1370 2.551465
1368 2.0359919
1366 1.5419765
1364 1.041858
1362 0.55436867
1360 0.10455789
1358 -0.24305221
1356 -0.38332272
1354 -0.3710281
1352 -0.17043245
1350 0.14184582
1348 0.58704782
1346 1.0479468
1344 1.50448
1342 1.922163
1340 2.2565424
1338 2.538192
1336 2.7116058
1334 2.8309174
1332 2.8362892
1330 2.7834589
1328 2.6355867
1326 2.4569786
1324 2.2479515
1322 2.0589535
1320 1.908164
1318 1.8027622
1316 1.7481899
1314 1.7155466
1312 1.6933182
1310 1.656903
1308 1.6041546
1306 1.5415685
1304 1.4774629
1302 1.4263821
1300 1.3891709
1298 1.3721583
1296 1.3839999
1294 1.4538516
1292 1.5841051
1290 1.8391269
1288 2.1513839
1286 2.5664358
1284 2.984009
1282 3.3859968
1280 3.7426205
1278 3.9933848
1276 4.1862946
1274 4.273056
1272 4.3514404
1270 4.4284835
1268 4.5590491
1266 4.7706065
1264 5.0339355
1262 5.3646812
1260 5.7434621
1258 6.1874237
1256 6.7125487
1254 7.3217816
1252 8.0130339
1250 8.7630386
1248 9.5418854
1246 10.324
1244 11.06596
1242 11.757579
1240 12.330932
1238 12.807645
1236 13.0761
1234 13.218166
1232 13.07324
1230 12.797619
1228 12.191548
1226 11.492429
1224 10.55103
1222 9.5805016
1220 8.5497637
1218 7.5665112
1216 6.6929402
1214 5.9421587
1212 5.4151073
1210 5.0493579
1208 4.9170547
1206 4.8971086
1204 4.9932361
1202 5.0662403
1200 5.0858293
1198 4.9570503
1196 4.6866503
1194 4.2608213
1192 3.7371366
1190 3.1729331
1188 2.6156976
1186 2.1604614
1184 1.7734572
1182 1.5295711
1180 1.3431717
1178 1.2599208
1176 1.2101799
1174 1.2397707
1172 1.2780669
1170 1.3306117
1168 1.3679903
1166 1.3582001
1164 1.3386303
1162 1.293649
1160 1.2344508
1158 1.1445624
1156 1.0323963
1154 0.88766503
1152 0.75584924
1150 0.64440238
1148 0.55464202
1146 0.48318142
1144 0.38957101
1142 0.27597737
1140 0.15405282
1138 0.032802485
1136 -0.058405891
1134 -0.12832101
1132 -0.10869451
1130 -0.040603846
1128 0.10252905
1126 0.26797378
1124 0.44358969
1122 0.60240698
1120 0.66290277
1118 0.70244491
1116 0.67908514
1114 0.67007029
1112 0.72687978
1110 0.80853152
1108 0.96785885
1106 1.12828
1104 1.2873245
1102 1.4129817
1100 1.4726697
1098 1.5117975
1096 1.5257858
1094 1.5823885
1092 1.703676
1090 1.9217373
1088 2.2429743
1086 2.6382835
1084 3.0789261
1082 3.4416952
1080 3.7288234
1078 3.8037
1076 3.7699842
1074 3.6386249
1072 3.4855406
1070 3.4047091
1068 3.3409677
1066 3.2863915
1064 3.225656
1062 3.1118457
1060 2.9990921
1058 2.9100642
1056 2.83058
1054 2.7938273
1052 2.7700834
1050 2.7892551
1048 2.8243148
1046 2.8945501
1044 2.9375494
1042 2.9252036
1040 2.8588576
1038 2.7166502
1036 2.59354
1034 2.4958899
1032 2.4366519
1030 2.4073434
1028 2.3359528
1026 2.2298043
1024 2.0609407
1022 1.8548651
1020 1.6019529
1018 1.3307101
1016 1.0580606
1014 0.78772634
1012 0.54752541
1010 0.31036246
1008 0.049386799
1006 -0.21034963
1004 -0.43230426
1002 -0.63909781
1000 -0.74533349
998 -0.85587865
996 -0.98526216
994 -1.114984
992 -1.2431234
990 -1.3246551
988 -1.2993226
986 -1.2599728
984 -1.1969709
982 -1.1519978
980 -1.1285419
978 -1.066889
976 -0.96442974
974 -0.83287376
972 -0.681584
970 -0.59003693
968 -0.53910053
966 -0.57614845
964 -0.65367532
962 -0.74843353
960 -0.84501213
958 -0.85954374
956 -0.85129654
954 -0.72197139
952 -0.57643878
950 -0.39091533
948 -0.20682849
946 -0.068168253
944 0.003969945
942 0.12006341
940 0.25215298
938 0.45323157
936 0.68311203
934 0.99699533
932 1.296194
930 1.5612153
928 1.7138942
926 1.6854478
924 1.564222
922 1.3320007
920 1.1718971
918 1.080605
916 1.1203885
914 1.2523239
912 1.3784125
910 1.50137
908 1.5781126
906 1.6379465
904 1.7143645
902 1.7959174
900 1.9631183
898 2.1447406
896 2.6624
