Image.
>Pix99999.
  .
5555
5555
2300
900
5555
2
1
0
701
5555
6.6963002e-002
6.8356007e-002
6.9749013e-002
7.1142025e-002
7.2535031e-002
7.3928036e-002
7.5322032e-002
7.6715052e-002
7.8108057e-002
7.9501070e-002
8.0894068e-002
8.2287081e-002
8.3680086e-002
8.5073091e-002
8.6466096e-002
8.7859109e-002
8.9252114e-002
9.0645120e-002
9.2038125e-002
9.3431138e-002
9.4824143e-002
9.6218117e-002
9.7611159e-002
9.9004164e-002
1.0039235e-001
1.0179000e-001
1.9444462e-002
4.1240226e-003
-2.7064763e-002
-5.3101026e-002
-7.8380972e-002
-1.5640478e-001
-2.3615064e-001
-2.6896697e-001
-2.9236898e-001
-2.5911900e-001
-2.3296966e-001
-2.5286600e-001
-2.8365085e-001
-3.4031689e-001
-3.7315628e-001
-3.5073644e-001
-3.1221280e-001
-2.5271916e-001
-2.3587874e-001
-2.7379471e-001
-3.4853080e-001
-4.5532808e-001
-5.3418368e-001
-5.9055346e-001
-6.3106000e-001
-6.6331679e-001
-7.3827076e-001
-8.3223993e-001
-9.4727743e-001
-1.0687135e+000
-1.1359841e+000
-1.1906947e+000
-1.1614408e+000
-1.1196653e+000
-1.0685571e+000
-1.0224737e+000
-1.0426528e+000
-1.0725729e+000
-1.1220914e+000
-1.1692542e+000
-1.2009525e+000
-1.2388862e+000
-1.2968618e+000
-1.3585886e+000
-1.4234699e+000
-1.4699863e+000
-1.4894823e+000
-1.4940664e+000
-1.4852782e+000
-1.4695572e+000
-1.4490800e+000
-1.4424390e+000
-1.4458987e+000
-1.4912894e+000
-1.5589114e+000
-1.6432139e+000
-1.7335399e+000
-1.7957636e+000
-1.8489001e+000
-1.8732986e+000
-1.8913254e+000
-1.9197714e+000
-1.9515646e+000
-2.0125976e+000
-2.0774558e+000
-2.1394789e+000
-2.1912761e+000
-2.1991141e+000
-2.1896906e+000
-2.1480970e+000
-2.1115136e+000
-2.0969660e+000
-2.0993559e+000
-2.1246409e+000
-2.1419001e+000
-2.1446135e+000
-2.1427352e+000
-2.1383917e+000
-2.1536217e+000
-2.1848750e+000
-2.2130661e+000
-2.2377009e+000
-2.2372561e+000
-2.2241733e+000
-2.2319300e+000
-2.2491140e+000
-2.3137400e+000
-2.3936758e+000
-2.4547682e+000
-2.5109835e+000
-2.5272081e+000
-2.5365953e+000
-2.5466805e+000
-2.5546250e+000
-2.5500171e+000
-2.5377162e+000
-2.5088944e+000
-2.4756863e+000
-2.4427278e+000
-2.4115179e+000
-2.3850901e+000
-2.3724780e+000
-2.3768287e+000
-2.4001429e+000
-2.4391370e+000
-2.4821780e+000
-2.5268142e+000
-2.5652699e+000
-2.6005189e+000
-2.6193879e+000
-2.6294708e+000
-2.6293502e+000
-2.6254478e+000
-2.6344576e+000
-2.6476998e+000
-2.6571078e+000
-2.6627858e+000
-2.6449416e+000
-2.6206400e+000
-2.6094158e+000
-2.6059005e+000
-2.6401601e+000
-2.6805487e+000
-2.7154267e+000
-2.7285714e+000
-2.6857312e+000
-2.6206572e+000
-2.5277789e+000
-2.4466200e+000
-2.3859107e+000
-2.3505521e+000
-2.3441551e+000
-2.3557370e+000
-2.3851454e+000
-2.4032915e+000
-2.4100959e+000
-2.3716185e+000
-2.3023944e+000
-2.2375257e+000
-2.1786714e+000
-2.1942937e+000
-2.2457354e+000
-2.2942638e+000
-2.3383219e+000
-2.3169999e+000
-2.2701478e+000
-2.2010498e+000
-2.1239784e+000
-2.0771475e+000
-2.0552502e+000
-2.1074424e+000
-2.1921487e+000
-2.2743554e+000
-2.3329074e+000
-2.3232684e+000
-2.2868550e+000
-2.2501860e+000
-2.2114048e+000
-2.1823502e+000
-2.1032321e+000
-1.9630185e+000
-1.7706581e+000
-1.5322309e+000
-1.3508010e+000
-1.2183300e+000
-1.1465250e+000
-1.1136942e+000
-1.0968497e+000
-1.0892688e+000
-1.1242321e+000
-1.1796280e+000
-1.2131613e+000
-1.2317611e+000
-1.1972504e+000
-1.1430571e+000
-1.1347286e+000
-1.1537495e+000
-1.2185200e+000
-1.2990565e+000
-1.3518878e+000
-1.3950102e+000
-1.4354376e+000
-1.4756063e+000
-1.5272605e+000
-1.5450801e+000
-1.5142739e+000
-1.4025029e+000
-1.2056297e+000
-1.0007037e+000
-7.9352367e-001
-6.9491661e-001
-6.8876582e-001
-7.4585640e-001
-8.4746534e-001
-9.3069404e-001
-1.0023633e+000
-9.7141576e-001
-8.8301033e-001
-6.8223763e-001
-4.3245751e-001
-2.9308739e-001
-2.2865523e-001
-3.5467359e-001
-5.6151241e-001
-7.6263869e-001
-9.3063229e-001
-1.0055431e+000
-1.0100945e+000
-8.9142436e-001
-7.3405063e-001
-5.6555545e-001
-4.4028959e-001
-4.1994840e-001
-4.3901479e-001
-4.8168114e-001
-5.0208849e-001
-4.9001983e-001
-4.8233560e-001
-4.8670012e-001
-4.8333600e-001
-4.6528420e-001
-3.5034493e-001
-1.6076562e-001
9.6116282e-002
3.9032644e-001
5.7312775e-001
6.8594396e-001
6.4590484e-001
5.3152609e-001
4.2926958e-001
3.5038424e-001
3.2571596e-001
3.5106134e-001
4.6058831e-001
6.1397028e-001
7.5838488e-001
8.2044703e-001
6.9985145e-001
4.7573829e-001
2.4834773e-001
1.0394564e-001
9.2023835e-002
4.1153315e-002
-7.3122226e-002
-1.4997186e-001
-1.7904477e-001
-2.3974210e-002
3.2049471e-001
7.2610056e-001
1.1455650e+000
1.2917029e+000
1.2006910e+000
1.0389779e+000
8.5048598e-001
8.4246999e-001
9.5836824e-001
9.2748326e-001
7.8425372e-001
4.2631650e-001
-2.5247857e-002
-2.8043565e-001
-3.1573600e-001
3.1202629e-002
6.7141712e-001
1.6587452e+000
2.7424095e+000
3.6196754e+000
4.3953257e+000
5.1335921e+000
6.1194658e+000
7.5610938e+000
9.6331387e+000
1.2406591e+001
1.5611032e+001
1.9098572e+001
2.2285330e+001
2.4963171e+001
2.7428083e+001
2.9779800e+001
3.2732044e+001
3.6315067e+001
4.0388058e+001
4.4834038e+001
4.8689774e+001
5.2017044e+001
5.5355423e+001
5.8753418e+001
6.2671234e+001
6.6946121e+001
7.1083244e+001
7.5061142e+001
7.8705322e+001
8.2057495e+001
8.5138603e+001
8.8018913e+001
9.0786987e+001
9.3400703e+001
9.5838943e+001
9.7489296e+001
9.7946854e+001
9.7430130e+001
9.6190857e+001
9.4476257e+001
9.2451912e+001
8.9741699e+001
8.6296600e+001
8.2394325e+001
7.8213028e+001
7.4078949e+001
7.0040428e+001
6.5811203e+001
6.1365688e+001
5.6923847e+001
5.2517155e+001
4.8360912e+001
4.4489243e+001
4.1049847e+001
3.8068508e+001
3.5523548e+001
3.3384678e+001
3.1497734e+001
2.9865810e+001
2.8458902e+001
2.7294968e+001
2.6355999e+001
2.5632914e+001
2.5088285e+001
2.4696926e+001
2.4420752e+001
2.4292257e+001
2.4308399e+001
2.4511580e+001
2.4895109e+001
2.5509073e+001
2.6364571e+001
2.7405331e+001
2.8632195e+001
2.9874454e+001
3.1102079e+001
3.2286957e+001
3.3420238e+001
3.4687477e+001
3.6147659e+001
3.8188995e+001
4.0741856e+001
4.3127720e+001
4.5256618e+001
4.6779488e+001
4.7829697e+001
4.8893856e+001
4.9997635e+001
5.1210632e+001
5.2177181e+001
5.2517166e+001
5.2149742e+001
5.1077087e+001
4.9756138e+001
4.8552986e+001
4.7478336e+001
4.6537849e+001
4.5540405e+001
4.4400852e+001
4.2882580e+001
4.0928875e+001
3.8871799e+001
3.6794811e+001
3.4874241e+001
3.3097343e+001
3.0898043e+001
2.8123850e+001
2.5243040e+001
2.2342478e+001
1.9916246e+001
1.8018309e+001
1.6135000e+001
1.4226770e+001
1.2216891e+001
1.0101120e+001
7.9874506e+000
5.9272070e+000
4.0083723e+000
2.3757422e+000
1.1220913e+000
3.2044792e-001
8.4386587e-002
4.6149728e-001
1.3760009e+000
2.3775809e+000
3.2320707e+000
3.9977193e+000
4.6261206e+000
5.3219495e+000
6.1722326e+000
6.9463654e+000
7.5730600e+000
7.8056660e+000
7.5008435e+000
7.0934696e+000
6.5917358e+000
6.1492929e+000
5.7857537e+000
5.4688339e+000
5.1967115e+000
4.9469590e+000
4.6626844e+000
4.2644911e+000
3.7185118e+000
3.0860584e+000
2.4669161e+000
2.0154850e+000
1.7799006e+000
1.7684622e+000
1.8955693e+000
2.0787168e+000
2.2426257e+000
2.3224041e+000
2.4212463e+000
2.5640998e+000
2.7925565e+000
3.1425593e+000
3.5567164e+000
4.0715971e+000
4.6010079e+000
5.1461921e+000
5.5889859e+000
5.8525882e+000
5.9516716e+000
5.8224835e+000
5.6201849e+000
5.3199902e+000
4.9901600e+000
4.6289353e+000
4.3029571e+000
4.0221834e+000
3.8070886e+000
3.6190877e+000
3.3977580e+000
3.1298187e+000
2.7947464e+000
2.4266007e+000
2.0393782e+000
1.6248380e+000
1.1915190e+000
7.7245617e-001
4.1876897e-001
1.6478580e-001
5.1347531e-002
1.5318610e-002
4.5809679e-002
7.8144148e-002
1.9268520e-001
3.6441028e-001
6.3055378e-001
8.5883844e-001
1.0084440e+000
1.0286510e+000
8.8135809e-001
7.2478777e-001
5.7692373e-001
5.1076478e-001
5.4361308e-001
6.6049486e-001
8.6044925e-001
1.1040905e+000
1.3674300e+000
1.5836394e+000
1.7478755e+000
1.8189870e+000
1.8288412e+000
1.7819772e+000
1.7074383e+000
1.6309080e+000
1.5636877e+000
1.5426958e+000
1.5533000e+000
1.6268506e+000
1.7225026e+000
1.8471570e+000
1.9620560e+000
2.0449615e+000
2.1113038e+000
2.1493976e+000
2.1949446e+000
2.2621646e+000
2.3496771e+000
2.4705391e+000
2.6195006e+000
2.8090956e+000
3.0239975e+000
3.2797258e+000
3.5477498e+000
3.8436761e+000
4.1676340e+000
4.5309873e+000
4.9450169e+000
5.4118724e+000
5.9290552e+000
6.4887180e+000
7.0853748e+000
7.7009501e+000
8.3295469e+000
8.9490299e+000
9.5293274e+000
1.0066585e+001
1.0495814e+001
1.0856252e+001
1.1054920e+001
1.1171097e+001
1.1070728e+001
1.0897672e+001
1.0532206e+001
1.0123709e+001
9.6127548e+000
9.0740318e+000
8.4830713e+000
7.8902140e+000
7.2982111e+000
6.7336755e+000
6.2092528e+000
5.7042499e+000
5.2236338e+000
4.7508273e+000
4.2847114e+000
3.8192260e+000
3.3526359e+000
2.8836231e+000
2.4210188e+000
1.9913191e+000
1.5898712e+000
1.2465889e+000
9.3632627e-001
6.8450367e-001
4.7220004e-001
3.6336520e-001
3.0140603e-001
3.6998782e-001
4.5394090e-001
5.6977975e-001
6.5930635e-001
6.7160684e-001
6.6484427e-001
6.1348373e-001
5.7008618e-001
5.4161966e-001
5.1771688e-001
4.9730942e-001
4.6054995e-001
3.9638755e-001
2.9987782e-001
1.7204553e-001
5.4352075e-002
-3.5559073e-002
-2.4936516e-002
6.1363786e-002
2.0761628e-001
4.1877800e-001
6.7327625e-001
9.4502175e-001
1.2180721e+000
1.4926879e+000
1.7704557e+000
2.0487676e+000
2.3281841e+000
2.6063361e+000
2.8773172e+000
3.1476626e+000
3.4156182e+000
3.6853273e+000
3.9611697e+000
4.2434649e+000
4.5444112e+000
4.8648505e+000
5.2242665e+000
5.5948539e+000
5.9799714e+000
6.3492417e+000
6.7029319e+000
7.0798702e+000
7.4854679e+000
7.9328480e+000
8.4001703e+000
8.7874184e+000
9.1048470e+000
9.2689018e+000
9.3551788e+000
9.3777180e+000
9.3816595e+000
9.3960505e+000
9.4151192e+000
9.4472284e+000
9.4876366e+000
9.5756073e+000
9.6661177e+000
9.7573099e+000
9.8158579e+000
9.7292719e+000
9.6008949e+000
9.3377361e+000
9.0481071e+000
8.6933069e+000
8.3110418e+000
7.8824077e+000
7.4810863e+000
7.1276331e+000
6.8532500e+000
6.6646900e+000
6.4525199e+000
6.2077017e+000
5.8546176e+000
5.4296317e+000
5.0325193e+000
4.6608067e+000
4.3976169e+000
4.1747413e+000
3.9294257e+000
3.6745117e+000
3.3802021e+000
3.0815549e+000
2.8126321e+000
2.5430694e+000
2.2398942e+000
1.9287703e+000
1.5657046e+000
1.2029359e+000
8.4180212e-001
4.8432434e-001
1.3946287e-001
-2.0284221e-001
-5.3696084e-001
-8.4090638e-001
-1.0885954e+000
-1.2424736e+000
-1.2649680e+000
-1.1543491e+000
-9.0122944e-001
-5.6089878e-001
-1.5383774e-001
2.0486367e-001
5.2543712e-001
6.9815701e-001
7.9861832e-001
7.9323602e-001
7.5394809e-001
7.0093745e-001
6.4647186e-001
6.1073959e-001
5.7519925e-001
4.8512882e-001
3.8766569e-001
2.1438964e-001
5.1627085e-002
-3.7913844e-003
-1.1554778e-001
-1.2038660e-001
-1.1910343e-001
-1.0146193e-001
-1.1272431e-001
-1.8574017e-001
-2.6834685e-001
-3.6529121e-001
-4.0542659e-001
-3.7689513e-001
-3.2680818e-001
-2.5671589e-001
-2.1800458e-001
-2.0019738e-001
-1.3214096e-001
-3.8570881e-002
1.5766969e-001
3.8931441e-001
5.9958518e-001
8.0062795e-001
8.0938381e-001
7.8622448e-001
7.4041998e-001
