##TITLE=Methyl Ethyl Ketone
##JCAMP-DX=4.24
##DATA TYPE=INFRARED SPECTRUM
##XUNITS=cm-1
##YUNITS=Absorbance
##FIRSTX=900
##LASTX=2300
##XYDATA=(X++(Y..Y))
2296 0.02135
2294 0.021794366
2292 0.022238728
2290 0.022682097
2288 0.023126457
2286 0.023570823
2284 0.024015184
2282 0.02445955
2280 0.024902927
2278 0.025347278
2276 0.025791643
2274 0.026235022
2272 0.026679371
2270 0.027123736
2268 0.0275681
2266 0.028012466
2264 0.028455852
2262 0.028900193
2260 0.029344557
2258 0.029788921
2256 0.030233286
2254 0.03067668
2252 0.031121014
2250 0.031565379
2248 0.032009739
2246 0.032454107
2244 0.0012060285
2242 0.041449107
2240 0.12882848
2238 0.21514389
2236 0.30092901
2234 0.32899028
2232 0.3521831
2230 0.3598052
2228 0.36641893
2226 0.37041649
2224 0.37155855
2222 0.35983703
2220 0.35174668
2218 0.35657024
2216 0.36893916
2214 0.39623711
2212 0.4339484
2210 0.48725197
2208 0.55246955
2206 0.63137424
2204 0.71320552
2202 0.7971279
2200 0.87214351
2198 0.94043422
2196 0.9799
2194 1.002995
2192 1.0212629
2190 1.0378507
2188 1.0833049
2186 1.1381394
2184 1.208832
2182 1.2830336
2180 1.3732938
2178 1.4659698
2176 1.5743713
2174 1.6826625
2172 1.772488
2170 1.850734
2168 1.8726914
2166 1.8764679
2164 1.8341315
2162 1.7998586
2160 1.7980543
2158 1.8317331
2156 1.9265699
2154 2.0173917
2152 2.0935166
2150 2.1402531
2148 2.1556208
2146 2.1782393
2144 2.210217
2142 2.2291079
2140 2.2381973
2138 2.2230427
2136 2.1951373
2134 2.1878207
2132 2.1899486
2130 2.2027283
2128 2.2186558
2126 2.2364142
2124 2.2543008
2122 2.2905653
2120 2.3302839
2118 2.3832197
2116 2.4376929
2114 2.490288
2112 2.5296714
2110 2.512141
2108 2.4655008
2106 2.3559499
2104 2.2585189
2102 2.208128
2100 2.2146561
2098 2.3047893
2096 2.4034715
2094 2.4967391
2092 2.5420501
2090 2.5384598
2088 2.5093989
2086 2.465585
2084 2.4565785
2082 2.4722111
2080 2.5159481
2078 2.572453
2076 2.5688572
2074 2.5394061
2072 2.475836
2070 2.4018071
2068 2.3947229
2066 2.4036393
2064 2.4273086
2062 2.4491067
2060 2.4337265
2058 2.4124701
2056 2.3997858
2054 2.398479
2052 2.429234
2050 2.4798818
2048 2.5620406
2046 2.647275
2044 2.724966
2042 2.7583458
2040 2.7296057
2038 2.6613476
2036 2.5628328
2034 2.4948099
2032 2.4611235
2030 2.4555759
2028 2.4654453
2026 2.4417293
2024 2.3936834
2022 2.3194182
2020 2.2325866
2018 2.1602821
2016 2.0959802
2014 2.0778697
2012 2.0770578
2010 2.124943
2008 2.1853337
2006 2.22666
2004 2.2550938
2002 2.220942
2000 2.1646628
1998 2.0720327
1996 1.9772285
1994 1.8976158
1992 1.8305491
1990 1.7919631
1988 1.7617
1986 1.7454457
1984 1.7300326
1982 1.7108082
1980 1.6810583
1978 1.6357528
1976 1.6039257
1974 1.584941
1972 1.6149172
1970 1.6783397
1968 1.7479469
1966 1.8180293
1964 1.8410842
1962 1.8421862
1960 1.824496
1958 1.800946
1956 1.7814957
1954 1.7656131
1952 1.7648417
1950 1.7732533
1948 1.7847923
1946 1.7904999
1944 1.7671462
1942 1.7342696
1940 1.735296
1938 1.7580004
1936 1.8183343
1934 1.8629241
1932 1.840772
1930 1.7963427
1928 1.7345216
1926 1.7585621
1924 1.893362
1922 2.0966096
1920 2.3493869
1918 2.4997861
1916 2.5593085
1914 2.5224631
1912 2.4266036
1910 2.3245542
1908 2.2221565
1906 2.1300142
1904 2.0456679
1902 1.9910703
1900 1.9534131
1898 1.9158449
1896 1.8788999
1894 1.8272969
1892 1.7691526
1890 1.723403
1888 1.6789349
1886 1.6396186
1884 1.5958726
1882 1.5370257
1880 1.4737498
1878 1.4033047
1876 1.36114
1874 1.3550148
1872 1.4116622
1870 1.5326434
1868 1.637694
1866 1.7227379
1864 1.6926091
1862 1.569337
1860 1.4093511
1858 1.2289166
1856 1.1141658
1854 1.0435477
1852 1.1165197
1850 1.2705277
1848 1.539052
1846 1.8560715
1844 1.9930437
1842 2.0169625
1840 1.7729371
1838 1.414132
1836 1.0806264
1834 0.79882336
1832 0.66098362
1830 0.62371492
1828 0.73642033
1826 0.89629042
1824 1.0581578
1822 1.1531951
1820 1.101356
1818 0.98704541
1816 0.83804744
1814 0.73658621
1812 0.71007448
1810 0.71789378
1808 0.74346256
1806 0.769943
1804 0.79441649
1802 0.88301742
1800 1.0204726
1798 1.1919016
1796 1.3785715
1794 1.4317093
1792 1.401664
1790 1.2284992
1788 0.98802435
1786 0.77540469
1784 0.59537601
1782 0.47869736
1780 0.4212524
1778 0.4759424
1776 0.59635943
1774 0.73771995
1772 0.8147189
1770 0.71652168
1768 0.51350677
1766 0.29464692
1764 0.13317147
1762 0.065371364
1760 0.020374125
1758 -0.12370316
1756 -0.28434229
1754 -0.39949882
1752 -0.30667788
1750 0.0059306026
1748 0.42541331
1746 0.89764249
1744 1.1347075
1742 1.1608764
1740 1.0624659
1738 0.88689756
1736 0.75996399
1734 0.66178066
1732 0.44579488
1730 0.15151033
1728 -0.1790712
1726 -0.48262507
1724 -0.55774313
1722 -0.4095473
1720 -0.003865242
1718 0.5573864
1716 1.3652763
1714 2.2605686
1712 3.0396411
1710 3.780504
1708 4.5199118
1706 5.4891763
1704 6.8477345
1702 8.779809
1700 11.369458
1698 14.347109
1696 17.571857
1694 20.471039
1692 22.846619
1690 25.033327
1688 27.138029
1686 29.825787
1684 33.119587
1682 36.867558
1680 40.958439
1678 44.508308
1676 47.575855
1674 50.628151
1672 53.71936
1670 57.353073
1668 61.398941
1666 65.555603
1664 69.768616
1662 73.815102
1660 77.674988
1658 81.243683
1656 84.583572
1654 87.768768
1652 90.781395
1650 93.632683
1648 95.773262
1646 96.851212
1644 97.056114
1642 96.604141
1640 95.675209
1638 94.39534
1636 92.401344
1634 89.655495
1632 86.40406
1630 82.819733
1628 79.231133
1626 75.695061
1624 71.922119
1622 67.894409
1620 63.694736
1618 59.353455
1616 55.018772
1614 50.744972
1612 46.833767
1610 43.33955
1608 40.376091
1606 37.910973
1604 35.766544
1602 33.924904
1600 32.299259
1598 30.881063
1596 29.616001
1594 28.496021
1592 27.49568
1590 26.623463
1588 25.877909
1586 25.314157
1584 24.944046
1582 24.82436
1580 24.952761
1578 25.361849
1576 26.050314
1574 26.901367
1572 27.895344
1570 28.837214
1568 29.693199
1566 30.484222
1564 31.209564
1562 32.122665
1560 33.294857
1558 35.137924
1556 37.594257
1554 39.951229
1552 42.121044
1550 43.719536
1548 44.879719
1546 46.07457
1544 47.336319
1542 48.737534
1540 49.976341
1538 50.741165
1536 50.916229
1534 50.438454
1532 49.648846
1530 48.800976
1528 47.913448
1526 47.00425
1524 45.999027
1522 44.884502
1520 43.468033
1518 41.717285
1516 39.857986
1514 37.938908
1512 36.160442
1510 34.513359
1508 32.414585
1506 29.698507
1504 26.781464
1502 23.727951
1500 21.130842
1498 19.04648
1496 16.997429
1494 14.947251
1492 12.812063
1490 10.592983
1488 8.3967304
1486 6.2762771
1484 4.3143682
1482 2.6486154
1480 1.3573303
1478 0.50298458
1476 0.11059457
1474 0.27932677
1472 1.0749274
1470 1.979278
1468 2.8006947
1466 3.6144392
1464 4.3964014
1462 5.2589092
1460 6.2507257
1458 7.0428572
1456 7.4960399
1454 7.5083761
1452 6.9466295
1450 6.3839722
1448 5.8766704
1446 5.4266253
1444 5.0468941
1442 4.675334
1440 4.3062296
1438 3.9742689
1436 3.6381829
1434 3.2428579
1432 2.757916
1430 2.2082157
1428 1.673878
1426 1.2630678
1424 1.0273511
1422 0.99197876
1420 1.0955939
1418 1.2894449
1416 1.4957972
1414 1.6503421
1412 1.8355749
1410 2.0628664
1408 2.3605578
1406 2.7513001
1404 3.1703534
1402 3.6334114
1400 4.0813079
1398 4.5051932
1396 4.8522787
1394 5.0750785
1392 5.1943998
1390 5.1849785
1388 5.1215224
1386 4.9850249
1384 4.8072233
1382 4.580729
1380 4.3778625
1378 4.2062492
1376 4.0951028
1374 4.0036263
1372 3.8693881
1370 3.6706779
1368 3.3740778
1366 3.0116951
1364 2.5992708
1362 2.1411262
1360 1.6618989
1358 1.1961231
1356 0.79642516
1354 0.47630471
1352 0.24914393
1350 0.075821899
1348 -0.057868913
1346 -0.17522857
1344 -0.15520799
1342 -0.053527489
1340 0.18319772
1338 0.38989493
1336 0.53269058
1334 0.56762433
1332 0.47250354
1330 0.3747988
1328 0.29605943
1326 0.30023801
1324 0.40840027
1322 0.61366451
1320 0.91295999
1318 1.240289
1316 1.56305
1314 1.8049617
1312 1.9688183
1310 2.0432839
1308 2.0655637
1306 2.0526729
1304 2.0273452
1302 2.011461
1300 2.0114629
1298 2.0623295
1296 2.1394
1294 2.260118
1292 2.3898535
1290 2.5253396
1288 2.653928
1286 2.76722
1284 2.8705549
1282 2.9590008
1280 3.0506382
1278 3.1545784
1276 3.2784944
1274 3.433701
1272 3.6085188
1270 3.8106074
1268 4.0348792
1266 4.3003459
1264 4.598886
1262 4.9504371
1260 5.3396521
1258 5.7740445
1256 6.2468457
1254 6.7629261
1252 7.3285866
1250 7.9419694
1248 8.6124945
1246 9.3140993
1244 10.036208
1242 10.75527
1240 11.445314
1238 12.103197
1236 12.675514
1234 13.171152
1232 13.46772
1230 13.664925
1228 13.60174
1226 13.470636
1224 13.159623
1222 12.803817
1220 12.344071
1218 11.85181
1216 11.297314
1214 10.728759
1212 10.137565
1210 9.5404158
1208 8.9302568
1206 8.2969666
1204 7.6369061
1202 6.9612327
1200 6.2735391
1198 5.5945578
1196 4.9244857
1194 4.2702518
1192 3.6394365
1190 3.0694969
1188 2.5497308
1186 2.128335
1184 1.7581646
1182 1.4666891
1180 1.2184049
1178 1.0699079
1176 0.95948195
1174 0.94551164
1172 0.93296087
1170 0.90668535
1168 0.86111504
1166 0.7614975
1164 0.66351557
1162 0.56979728
1160 0.47835913
1158 0.38866568
1156 0.28836086
1154 0.17380705
1152 0.079656705
1150 0.014860256
1148 -0.023619361
1146 -0.035331465
1144 -0.049186554
1142 -0.05609411
1140 -0.020746157
1138 0.058144167
1136 0.222946
1134 0.44361752
1132 0.79514194
1130 1.2037771
1128 1.6471509
1126 2.0921414
1124 2.4926028
1122 2.8823617
1120 3.2579679
1118 3.6293783
1116 3.9850085
1114 4.326189
1112 4.6086869
1110 4.8962994
1108 5.2026691
1106 5.5346351
1104 5.9295354
1102 6.3292551
1100 6.7412739
1098 7.1776338
1096 7.6583571
1094 8.1974421
1092 8.8037376
1090 9.3859282
1088 9.9323397
1086 10.385842
1084 10.762865
1082 11.108444
1080 11.430903
1078 11.724529
1076 11.993428
1074 12.179343
1072 12.331446
1070 12.428564
1068 12.51246
1066 12.58935
1064 12.66228
1062 12.705625
1060 12.731331
1058 12.656396
1056 12.5638
1054 12.394798
1052 12.20948
1050 11.96665
1048 11.665446
1046 11.221107
1044 10.702757
1042 10.049433
1040 9.4036627
1038 8.7788687
1036 8.2601509
1034 7.869626
1032 7.573802
1030 7.3563514
1028 7.1016965
1026 6.8094463
1024 6.398345
1022 5.9253449
1020 5.4463882
1018 4.977932
1016 4.6377459
1014 4.3370838
1012 4.0936785
1010 3.8523009
1008 3.52794
1006 3.1899793
1004 2.7769327
1002 2.3717816
1000 2.0259707
998 1.7047158
996 1.4907786
994 1.27118
992 1.0328655
990 0.7515533
988 0.3732087
986 0.0036566257
984 -0.34616011
982 -0.59651577
980 -0.70797777
978 -0.68923873
976 -0.52954912
974 -0.25923708
972 0.099201262
970 0.45945349
968 0.81065017
966 0.98944497
964 1.081458
962 0.99973148
960 0.8631134
958 0.73485911
956 0.61159998
954 0.5462051
952 0.48571721
950 0.37045741
948 0.25192818
946 0.11664964
944 0.0
942 -0.0003524255
940 -0.0068613514
938 0.1159267
936 0.23860829
934 0.35881504
932 0.42747495
930 0.38592699
928 0.32034555
926 0.21786508
924 0.19441721
922 0.26661322
920 0.36234698
918 0.47912523
916 0.51421642
914 0.49350867
912 0.56618243
910 0.68765032
908 0.96276432
906 1.2917721
904 1.4553726
902 1.5718639
900 1.4468285
898 1.2821164
896 1.1538
