##TITLE=Methyl Ethyl Ketone
##JCAMP-DX=4.24
##DATA TYPE=INFRARED SPECTRUM
##XUNITS=cm-1
##YUNITS=Absorbance
##FIRSTX=900
##LASTX=2300
##XYDATA=(X++(Y..Y))
2296 -0.0061992998
2294 -0.0063282158
2292 -0.0064571314
2290 -0.0065861465
2288 -0.0067151617
2286 -0.0068440782
2284 -0.0069729937
2282 -0.007102008
2280 -0.0072309249
2278 -0.0073599392
2276 -0.0074889543
2274 -0.0076179695
2272 -0.0077468869
2270 -0.0078756064
2268 -0.0080047138
2266 -0.0081342207
2264 -0.0082627581
2262 -0.0083897132
2260 -0.0085205287
2258 -0.0086567923
2256 -0.008778722
2254 -0.0088805584
2252 -0.0090355687
2250 -0.0092657469
2248 -0.0092979288
2246 -0.0078981742
2244 -0.00029143397
2242 0.012669706
2240 0.0034699999
2238 -0.054060087
2236 -0.15032996
2234 -0.26191404
2232 -0.35091487
2230 -0.38667014
2228 -0.38402519
2226 -0.36933202
2224 -0.36176875
2222 -0.37214059
2220 -0.38642448
2218 -0.38625628
2216 -0.36504227
2214 -0.32147104
2212 -0.26088899
2210 -0.19321698
2208 -0.13889286
2206 -0.11893978
2204 -0.14370774
2202 -0.21334872
2200 -0.29986039
2198 -0.37158379
2196 -0.41710857
2194 -0.43440601
2192 -0.43333533
2190 -0.42437005
2188 -0.40578347
2186 -0.37485036
2184 -0.34094039
2182 -0.31638473
2180 -0.30952495
2178 -0.32395121
2176 -0.34947544
2174 -0.37177724
2172 -0.37777323
2170 -0.35745841
2168 -0.31109896
2166 -0.244664
2164 -0.17367011
2162 -0.1135148
2160 -0.06651637
2158 -0.030678455
2156 -0.0048642596
2154 0.0091615152
2152 -0.00061356125
2150 -0.044312153
2148 -0.10990067
2146 -0.17758787
2144 -0.2275316
2142 -0.24573289
2140 -0.24119997
2138 -0.22914554
2136 -0.21695744
2134 -0.20769101
2132 -0.1991557
2130 -0.18912536
2128 -0.1825684
2126 -0.18607472
2124 -0.20195737
2122 -0.22965334
2120 -0.26340789
2118 -0.29665777
2116 -0.32722199
2114 -0.35652271
2112 -0.39382079
2110 -0.44780552
2108 -0.5128094
2106 -0.57681096
2104 -0.62438351
2102 -0.64369816
2100 -0.64232701
2098 -0.63298541
2096 -0.61864859
2094 -0.59798235
2092 -0.56867611
2090 -0.53113621
2088 -0.49816725
2086 -0.4834905
2084 -0.48459119
2082 -0.4923346
2080 -0.49754718
2078 -0.49413145
2076 -0.48747
2074 -0.48338294
2072 -0.4702788
2070 -0.43169725
2068 -0.3612662
2066 -0.26439586
2064 -0.17729953
2062 -0.1430116
2060 -0.18086895
2058 -0.29194969
2056 -0.44457027
2054 -0.59605342
2052 -0.71303022
2050 -0.7724157
2048 -0.77507192
2046 -0.73447001
2044 -0.67526859
2042 -0.62400723
2040 -0.59698576
2038 -0.60194367
2036 -0.63009411
2034 -0.66602004
2032 -0.69581038
2030 -0.70815271
2028 -0.69848001
2026 -0.66643614
2024 -0.61708778
2022 -0.56093919
2020 -0.52185267
2018 -0.52400804
2016 -0.567904
2014 -0.63923508
2012 -0.70777744
2010 -0.74471992
2008 -0.75550365
2006 -0.75761211
2004 -0.75120783
2002 -0.72665268
2000 -0.67098093
1998 -0.57825726
1996 -0.47686499
1994 -0.40655407
1992 -0.38650873
1990 -0.41816548
1988 -0.4731622
1986 -0.51571697
1984 -0.53595704
1982 -0.53814542
1980 -0.52987909
1978 -0.51601577
1976 -0.48677713
1974 -0.43009409
1972 -0.35499418
1970 -0.28419468
1968 -0.25258645
1966 -0.2911503
1964 -0.3915315
1962 -0.52345157
1960 -0.6485284
1958 -0.7338677
1956 -0.78168982
1954 -0.80997127
1952 -0.82709044
1950 -0.83350813
1948 -0.82240713
1946 -0.78745502
1944 -0.73863846
1942 -0.69228286
1940 -0.65451205
1938 -0.62458301
1936 -0.59794456
1934 -0.57176232
1932 -0.55731362
1930 -0.56823188
1928 -0.59537071
1926 -0.61313707
1924 -0.57997507
1922 -0.46080947
1920 -0.28163674
1918 -0.1009268
1916 0.028161358
1914 0.068505391
1912 0.028011687
1910 -0.063419104
1908 -0.18574359
1906 -0.32359129
1904 -0.44908237
1902 -0.52977854
1900 -0.54687589
1898 -0.49664509
1896 -0.40505999
1894 -0.31240523
1892 -0.25136602
1890 -0.2451511
1888 -0.30075967
1886 -0.41257921
1884 -0.5580672
1882 -0.70836735
1880 -0.84631819
1878 -0.96388167
1876 -1.059525
1874 -1.1314278
1872 -1.1635183
1870 -1.1372755
1868 -1.0634831
1866 -0.97272664
1864 -0.90232402
1862 -0.884399
1860 -0.91857636
1858 -0.98563558
1856 -1.0705029
1854 -1.1592277
1852 -1.2218208
1850 -1.2238626
1848 -1.157052
1846 -1.0387011
1844 -0.92432672
1842 -0.87993699
1840 -0.92015296
1838 -1.0194935
1836 -1.1274986
1834 -1.186288
1832 -1.1592554
1830 -1.0348717
1828 -0.8474831
1826 -0.66060019
1824 -0.54384178
1822 -0.55112451
1820 -0.662211
1818 -0.80863011
1816 -0.92138082
1814 -0.95043468
1812 -0.90811038
1810 -0.84238851
1808 -0.77990502
1806 -0.72398901
1804 -0.65763462
1802 -0.55798686
1800 -0.42706046
1798 -0.28478834
1796 -0.15063286
1794 -0.042533897
1792 0.017124288
1790 0.0093992995
1788 -0.053827256
1786 -0.13749342
1784 -0.19904737
1782 -0.19624388
1780 -0.099669993
1778 0.10126495
1776 0.37328658
1774 0.64732164
1772 0.8255046
1770 0.81703669
1768 0.63907367
1766 0.38858771
1764 0.16741827
1762 0.049076982
1760 0.0084710969
1758 -0.032969654
1756 -0.077539153
1754 -0.067177169
1752 0.036188439
1750 0.23313549
1748 0.45895061
1746 0.61367393
1744 0.64138043
1742 0.54372156
1740 0.4095206
1738 0.36943543
1736 0.47199601
1734 0.67784262
1732 0.86454898
1730 0.88156885
1728 0.69298232
1726 0.37110978
1724 0.050911538
1722 -0.10188901
1720 0.06272006
1718 0.64204901
1716 1.5668783
1714 2.6482348
1712 3.7304356
1710 4.73806
1708 5.7621899
1706 7.0220723
1704 8.7545223
1702 11.159524
1700 14.285226
1698 18.000338
1696 21.887714
1694 25.391651
1692 28.302242
1690 30.78195
1688 33.278042
1686 36.374203
1684 40.445747
1682 45.54163
1680 51.103199
1678 56.248375
1676 60.789787
1674 65.190262
1672 69.895424
1670 75.118317
1668 80.54882
1666 85.515747
1664 89.628906
1662 92.83683
1660 95.225624
1658 96.939774
1656 98.093262
1654 98.749687
1652 98.913742
1650 98.543236
1648 97.583183
1646 96.015999
1644 94.015694
1642 91.883949
1640 89.727364
1638 87.429886
1636 84.786171
1634 81.595741
1632 77.87999
1630 73.849602
1628 69.630531
1626 65.224922
1624 60.59956
1622 55.736439
1620 50.736805
1618 45.812424
1616 41.165543
1614 36.958549
1612 33.308578
1610 30.276251
1608 27.822142
1606 25.822058
1604 24.167395
1602 22.789618
1600 21.664143
1598 20.800957
1596 20.2085
1594 19.883776
1592 19.80987
1590 19.962381
1588 20.330763
1586 20.919477
1584 21.728113
1582 22.75705
1580 24.051382
1578 25.701086
1576 27.784773
1574 30.334095
1572 33.25351
1570 36.32991
1568 39.37608
1566 42.267776
1564 44.943916
1562 47.434753
1560 49.958908
1558 52.820641
1556 55.846413
1554 58.37067
1552 59.9133
1550 60.373081
1548 60.004833
1546 59.304962
1544 58.4669
1542 57.290081
1540 55.52684
1538 53.034016
1536 50.013058
1534 46.986732
1532 44.304092
1530 42.020775
1528 40.061691
1526 38.272049
1524 36.478245
1522 34.523365
1520 32.339401
1518 29.976276
1516 27.599886
1514 25.444386
1512 23.556841
1510 21.745836
1508 19.790251
1506 17.534578
1504 15.054337
1502 12.660101
1500 10.568933
1498 8.8130236
1496 7.3323283
1494 6.0134497
1492 4.7883453
1490 3.6557624
1488 2.6104825
1486 1.6344465
1484 0.7567066
1482 0.066217542
1480 -0.34853989
1478 -0.41220909
1476 -0.034521729
1474 0.86688042
1472 2.214252
1470 3.742826
1468 5.2328143
1466 6.5888038
1464 7.8194275
1462 9.0259647
1460 10.285281
1458 11.5969
1456 12.8378
1454 13.766861
1452 14.232692
1450 14.24028
1448 13.872326
1446 13.265214
1444 12.534077
1442 11.74683
1440 10.943034
1438 10.133711
1436 9.3058939
1434 8.4323158
1432 7.5243783
1430 6.6515422
1428 5.88727
1426 5.2887807
1424 4.8846912
1422 4.6667342
1420 4.6074452
1418 4.6639361
1416 4.7925229
1414 4.9577971
1412 5.1522284
1410 5.4033899
1408 5.7349219
1406 6.1487551
1404 6.6148582
1402 7.0644798
1400 7.4248676
1398 7.634294
1396 7.6563854
1394 7.4916711
1392 7.1671705
1390 6.7362695
1388 6.2540374
1386 5.76858
1384 5.3214178
1382 4.9433298
1380 4.6431513
1378 4.3964682
1376 4.1517229
1374 3.8334455
1372 3.395926
1370 2.850769
1368 2.2414298
1366 1.6365014
1364 1.0846262
1362 0.59608519
1360 0.18124139
1358 -0.13616493
1356 -0.32609043
1354 -0.3548868
1352 -0.19653405
1350 0.15690887
1348 0.68188119
1346 1.31455
1344 2.0023279
1342 2.720752
1340 3.4265633
1338 4.0356359
1336 4.451817
1334 4.5856795
1332 4.4148769
1330 4.0241489
1328 3.5181875
1326 2.9924042
1324 2.525887
1322 2.1706161
1320 1.9492171
1318 1.8430496
1316 1.80672
1314 1.7694626
1312 1.6778269
1310 1.5204362
1308 1.3112972
1306 1.0900481
1304 0.89536029
1302 0.75333244
1300 0.68464392
1298 0.70515656
1296 0.82844853
1294 1.0653596
1292 1.4219491
1290 1.8951582
1288 2.468776
1286 3.1055734
1284 3.7542708
1282 4.3489332
1280 4.8333664
1278 5.1786399
1276 5.3851004
1274 5.495584
1272 5.5657597
1270 5.6547499
1268 5.8100052
1266 6.0544224
1264 6.3971338
1262 6.8317175
1260 7.3493862
1258 7.9442368
1256 8.6177597
1254 9.3831205
1252 10.253589
1250 11.234293
1248 12.315622
1246 13.45475
1244 14.593185
1242 15.652268
1240 16.558006
1238 17.252609
1236 17.690372
1234 17.8461
1232 17.698679
1230 17.225365
1228 16.418762
1226 15.303736
1224 13.934229
1222 12.411948
1220 10.86101
1218 9.42274
1216 8.2227516
1214 7.34166
1212 6.8170147
1210 6.61801
1208 6.6804762
1206 6.9040976
1204 7.176692
1202 7.3807883
1200 7.4125066
1198 7.2027173
1196 6.7249355
1194 6.0270329
1192 5.1876626
1190 4.3108549
1188 3.486896
1186 2.7616072
1184 2.1585412
1182 1.6752952
1180 1.3053145
1178 1.0455797
1176 0.89201003
1174 0.83616191
1172 0.86551625
1170 0.96113431
1168 1.1020463
1166 1.2660422
1164 1.4291379
1162 1.564502
1160 1.6473045
1158 1.6599686
1156 1.5952471
1154 1.4651028
1152 1.2881737
1150 1.0868227
1148 0.87945479
1146 0.67320251
1144 0.47547841
1142 0.2994993
1140 0.15302739
1138 0.028776355
1136 -0.075441256
1134 -0.14191251
1132 -0.15251552
1130 -0.1003255
1128 0.01102107
1126 0.15824342
1124 0.30679718
1122 0.40876171
1120 0.43541759
1118 0.41274545
1116 0.38048455
1114 0.37787589
1112 0.42476708
1110 0.49396348
1108 0.55386734
1106 0.59081197
1104 0.60177314
1102 0.60019869
1100 0.60732579
1098 0.6539585
1096 0.77094001
1094 0.98228121
1092 1.300748
1090 1.7138342
1088 2.1967599
1086 2.7092764
1084 3.2060659
1082 3.6390827
1080 3.9663413
1078 4.1639981
1076 4.2222528
1074 4.1580648
1072 4.0011549
1070 3.7976735
1068 3.5939665
1066 3.4241195
1064 3.3096321
1062 3.245348
1060 3.2163608
1058 3.1997113
1056 3.172823
1054 3.120199
1052 3.0340762
1050 2.9231029
1048 2.8009801
1046 2.6841965
1044 2.5872512
1042 2.5177891
1040 2.4865553
1038 2.5177703
1036 2.6305399
1034 2.8180711
1032 3.0538223
1030 3.2726562
1028 3.4092379
1026 3.4260721
1024 3.3011782
1022 3.038758
1020 2.6587961
1018 2.2085567
1016 1.7479314
1014 1.3520629
1012 1.0778804
1010 0.91394627
1008 0.82024395
1006 0.72157991
1004 0.55512512
1002 0.32354224
1000 0.051609367
998 -0.217501
996 -0.44521785
994 -0.62193888
992 -0.74820322
990 -0.83430248
988 -0.8929736
986 -0.93704581
984 -0.97537929
982 -1.0038433
980 -1.0142244
978 -0.99597043
976 -0.94428629
974 -0.87509596
972 -0.80399829
970 -0.72822642
968 -0.63865674
966 -0.52023703
964 -0.36601537
962 -0.20137218
960 -0.058020439
958 0.038310353
956 0.072007842
954 0.05740732
952 0.017913237
950 -0.017574472
948 -0.026648913
946 -0.014453251
944 0.012915924
942 0.070279248
940 0.17637731
938 0.34502691
936 0.57649773
934 0.82648319
932 1.0433314
930 1.1899281
928 1.2474074
926 1.2518735
924 1.246136
922 1.2482715
920 1.2686372
918 1.312
916 1.3823714
914 1.4855752
912 1.6154034
910 1.719749
908 1.7437623
906 1.6688807
904 1.5126531
902 1.4003627
900 1.4622031
898 1.7432497
896 2.2672999
