Image.
>Pix99999.
  .
5555
5555
2300
900
5555
2
1
0
701
5555
7.7088997e-002
7.8692704e-002
8.0297410e-002
8.1901118e-002
8.3504818e-002
8.5108526e-002
8.6712234e-002
8.8315934e-002
8.9919649e-002
9.1523357e-002
9.3127057e-002
9.4730765e-002
9.6334472e-002
9.7938173e-002
9.9541880e-002
1.0114559e-001
1.0275320e-001
1.0435115e-001
1.0595860e-001
1.0755657e-001
1.0916400e-001
1.1077170e-001
1.1236972e-001
1.1397710e-001
1.1557514e-001
1.1718249e-001
4.4289131e-002
1.5997500e-003
-3.0528001e-002
6.1167721e-003
5.2854635e-002
6.8839848e-002
8.2266793e-002
8.8582799e-002
1.0087679e-001
1.6351549e-001
2.2511713e-001
2.7029523e-001
3.0087903e-001
2.8970492e-001
2.7554256e-001
2.6001546e-001
2.5267041e-001
2.5880182e-001
2.7831024e-001
3.1346285e-001
3.7026820e-001
4.4699344e-001
5.3300422e-001
6.2497503e-001
6.7553854e-001
7.0198804e-001
6.7017806e-001
6.1352944e-001
5.7476127e-001
5.4233056e-001
5.6432801e-001
5.9875697e-001
6.3779211e-001
6.7734975e-001
7.1193117e-001
7.4628055e-001
7.8312129e-001
8.1805068e-001
8.4060526e-001
8.5668421e-001
8.5353804e-001
8.4525603e-001
8.2877451e-001
8.2314175e-001
8.3968401e-001
8.7083650e-001
9.1983145e-001
9.5918775e-001
9.8557079e-001
9.9655038e-001
9.9510747e-001
9.9960715e-001
1.0090858e+000
1.0275880e+000
1.0507915e+000
1.0504934e+000
1.0400354e+000
9.9502522e-001
9.3926281e-001
9.0808845e-001
8.8283527e-001
9.4679713e-001
1.0268561e+000
1.1438377e+000
1.2595271e+000
1.3263260e+000
1.3753572e+000
1.3768307e+000
1.3626814e+000
1.3226578e+000
1.2816681e+000
1.2468114e+000
1.2424439e+000
1.2874891e+000
1.3604714e+000
1.4603943e+000
1.5460494e+000
1.6128534e+000
1.6477576e+000
1.6586601e+000
1.6591212e+000
1.6549337e+000
1.6569909e+000
1.6626501e+000
1.6498615e+000
1.6292934e+000
1.6077560e+000
1.5861869e+000
1.6172739e+000
1.6611892e+000
1.7045411e+000
1.7442647e+000
1.7493865e+000
1.7496810e+000
1.7613171e+000
1.7759417e+000
1.7937758e+000
1.8123318e+000
1.8310698e+000
1.8579750e+000
1.9004920e+000
1.9362859e+000
1.9571903e+000
1.9580529e+000
1.9382828e+000
1.9185370e+000
1.9025851e+000
1.8898990e+000
1.8791100e+000
1.8980857e+000
1.9358926e+000
2.0353277e+000
2.1653435e+000
2.2563150e+000
2.3292599e+000
2.2758610e+000
2.1805205e+000
2.0614541e+000
1.9413211e+000
1.8946793e+000
1.8748916e+000
1.9118850e+000
1.9672543e+000
2.0389440e+000
2.1132429e+000
2.1827452e+000
2.2359383e+000
2.2555082e+000
2.2425559e+000
2.1875927e+000
2.1233075e+000
2.0600524e+000
2.0197291e+000
2.0049896e+000
2.0197170e+000
2.0564241e+000
2.1289229e+000
2.2253048e+000
2.3350961e+000
2.4506922e+000
2.5187078e+000
2.5612242e+000
2.5462799e+000
2.5076504e+000
2.4254928e+000
2.3281643e+000
2.2243965e+000
2.1265774e+000
2.1023235e+000
2.1094501e+000
2.1595840e+000
2.2083995e+000
2.2055552e+000
2.1810021e+000
2.1415887e+000
2.1079090e+000
2.0944021e+000
2.0716462e+000
2.0242732e+000
1.9715958e+000
1.9205717e+000
1.9076129e+000
1.9353749e+000
1.9668159e+000
1.9929872e+000
1.9985639e+000
1.9893914e+000
1.9741492e+000
1.9567331e+000
1.8906229e+000
1.7980239e+000
1.6721089e+000
1.5322546e+000
1.4741493e+000
1.4566143e+000
1.5469536e+000
1.6732172e+000
1.7587000e+000
1.7920377e+000
1.6699021e+000
1.4782860e+000
1.2515123e+000
1.0490252e+000
9.3213719e-001
8.8623601e-001
9.1579819e-001
1.0044301e+000
1.1439140e+000
1.2600037e+000
1.3280607e+000
1.2826406e+000
1.1329080e+000
9.5989984e-001
7.8994179e-001
6.5858459e-001
5.5615693e-001
4.7980419e-001
4.1690341e-001
3.9084122e-001
3.8470322e-001
3.8313136e-001
3.8200235e-001
3.6447778e-001
3.4474742e-001
3.7251329e-001
4.4260752e-001
6.1688441e-001
8.4007698e-001
1.0723348e+000
1.2426064e+000
1.2369971e+000
1.1132716e+000
8.9259201e-001
6.7306352e-001
5.1994085e-001
4.2980212e-001
3.9513403e-001
3.6991817e-001
3.3376509e-001
3.0932051e-001
3.0078116e-001
3.1120333e-001
3.3474395e-001
3.5710457e-001
3.7605429e-001
4.2297435e-001
4.9066362e-001
5.2775145e-001
5.4430032e-001
5.1912421e-001
4.7219408e-001
4.3745443e-001
4.1126639e-001
3.9530161e-001
4.0202314e-001
4.8223880e-001
6.0049605e-001
7.2254246e-001
7.7803475e-001
6.6756922e-001
4.6810099e-001
2.4127853e-001
5.7482172e-002
-1.0503470e-001
-2.0019242e-001
-1.8960187e-001
-4.0301662e-002
2.3275574e-001
5.1175570e-001
7.5672144e-001
8.0528963e-001
6.7630196e-001
5.2353668e-001
3.8164341e-001
4.1483998e-001
5.8067608e-001
6.6480291e-001
6.7324132e-001
4.4442698e-001
7.5610727e-002
-1.6902463e-001
-2.5792339e-001
2.9633656e-002
6.1045039e-001
1.4970598e+000
2.4452982e+000
3.0583761e+000
3.4465816e+000
3.7282360e+000
4.1888843e+000
5.0877719e+000
6.6693039e+000
9.0388927e+000
1.2295406e+001
1.6358143e+001
2.0457691e+001
2.4245714e+001
2.7644381e+001
3.0710920e+001
3.4258804e+001
3.8375759e+001
4.3028336e+001
4.8078362e+001
5.2372166e+001
5.5986244e+001
5.9611362e+001
6.3326221e+001
6.7652840e+001
7.2391022e+001
7.6825195e+001
8.0925224e+001
8.4513214e+001
8.7664162e+001
9.0507080e+001
9.3093147e+001
9.5507034e+001
9.7594383e+001
9.9184380e+001
9.9715744e+001
9.8761681e+001
9.6805008e+001
9.4341141e+001
9.1604530e+001
8.8770309e+001
8.5405617e+001
8.1393417e+001
7.7070251e+001
7.2596893e+001
6.8260796e+001
6.4111069e+001
5.9864643e+001
5.5490433e+001
5.1231407e+001
4.7105804e+001
4.3230228e+001
3.9622612e+001
3.6394207e+001
3.3563400e+001
3.1135370e+001
2.9093378e+001
2.7315926e+001
2.5821974e+001
2.4604040e+001
2.3669806e+001
2.2986500e+001
2.2536026e+001
2.2260521e+001
2.2143223e+001
2.2147646e+001
2.2282501e+001
2.2539377e+001
2.2937059e+001
2.3473837e+001
2.4232349e+001
2.5235743e+001
2.6457672e+001
2.7880903e+001
2.9320665e+001
3.0734240e+001
3.2083008e+001
3.3364651e+001
3.4770504e+001
3.6372532e+001
3.8642620e+001
4.1577644e+001
4.4497643e+001
4.7236794e+001
4.9219906e+001
5.0525059e+001
5.1703430e+001
5.2792530e+001
5.3910564e+001
5.4831280e+001
5.5222267e+001
5.4969997e+001
5.4033749e+001
5.2738426e+001
5.1454437e+001
5.0241982e+001
4.9146698e+001
4.8036789e+001
4.6832329e+001
4.5417583e+001
4.3730057e+001
4.1948341e+001
4.0120537e+001
3.8230400e+001
3.6262943e+001
3.3684639e+001
3.0316929e+001
2.6822765e+001
2.3267912e+001
2.0361151e+001
1.8198250e+001
1.6198856e+001
1.4354368e+001
1.2477311e+001
1.0549188e+001
8.5491600e+000
6.5151463e+000
4.5491681e+000
2.7959719e+000
1.4486140e+000
5.5526197e-001
1.1728928e-001
1.9272172e-001
7.6162970e-001
1.4401830e+000
2.0497766e+000
2.5594244e+000
2.9317794e+000
3.3261445e+000
3.8191211e+000
4.4551969e+000
5.2922201e+000
6.0588813e+000
6.6756253e+000
7.0227585e+000
6.9767823e+000
6.8316784e+000
6.5588317e+000
6.3076873e+000
6.0858960e+000
5.8838854e+000
5.6785259e+000
5.3836250e+000
4.9784184e+000
4.4890103e+000
3.9603641e+000
3.5150065e+000
3.1982532e+000
3.0605783e+000
3.0908935e+000
3.2657313e+000
3.5018001e+000
3.7133839e+000
3.8932579e+000
4.0250559e+000
4.1752787e+000
4.3915501e+000
4.6706614e+000
5.0421586e+000
5.4414883e+000
5.8673968e+000
6.2440143e+000
6.5215883e+000
6.6814632e+000
6.6414232e+000
6.4977589e+000
6.1961403e+000
5.8341470e+000
5.3950710e+000
4.9511213e+000
4.5086360e+000
4.0935140e+000
3.7059622e+000
3.3265460e+000
2.9500177e+000
2.5620589e+000
2.1647429e+000
1.7613448e+000
1.3628483e+000
9.8730928e-001
6.5210521e-001
3.9046615e-001
1.9171624e-001
7.6488174e-002
9.9541489e-003
-3.6963196e-003
1.1653785e-002
9.5336244e-002
2.2661017e-001
4.4428188e-001
6.4907897e-001
8.1597602e-001
9.0826672e-001
8.7188166e-001
8.2796079e-001
7.8617662e-001
8.1459314e-001
9.5233709e-001
1.1739196e+000
1.4947903e+000
1.8405983e+000
2.1938000e+000
2.4902997e+000
2.7170310e+000
2.8620169e+000
2.9335744e+000
2.9434764e+000
2.9135070e+000
2.8637352e+000
2.8072231e+000
2.7560003e+000
2.7098429e+000
2.6734204e+000
2.6526752e+000
2.6684101e+000
2.6997960e+000
2.7585814e+000
2.8168776e+000
2.8698711e+000
2.9301827e+000
3.0085926e+000
3.1039357e+000
3.2318480e+000
3.3696184e+000
3.5235949e+000
3.6834664e+000
3.8510094e+000
4.0172238e+000
4.1810374e+000
4.3399959e+000
4.4981761e+000
4.6710916e+000
4.8630810e+000
5.0843778e+000
5.3275013e+000
5.5835252e+000
5.8430748e+000
6.0934720e+000
6.3315463e+000
6.5400147e+000
6.7154865e+000
6.8091612e+000
6.8488374e+000
6.7618480e+000
6.6282892e+000
6.3846245e+000
6.1071229e+000
5.7385545e+000
5.3320522e+000
4.8360600e+000
4.3231659e+000
3.7821000e+000
3.2659166e+000
2.7967861e+000
2.3705349e+000
2.0088000e+000
1.6899500e+000
1.4214979e+000
1.1725674e+000
9.3693256e-001
6.8400687e-001
4.1921282e-001
1.5665187e-001
-9.0393439e-002
-2.7737060e-001
-4.2211393e-001
-5.0107145e-001
-5.4786116e-001
-5.5074775e-001
-5.2778369e-001
-4.4015798e-001
-3.2610601e-001
-1.4084828e-001
5.2238926e-002
2.5913614e-001
4.5419240e-001
6.1179006e-001
7.4953365e-001
8.3586287e-001
8.9218831e-001
8.8641542e-001
8.5246456e-001
7.7450103e-001
6.9705462e-001
6.2056923e-001
5.4597861e-001
4.6959713e-001
3.7224224e-001
2.5728524e-001
1.4063805e-001
3.5078976e-002
-5.5209058e-003
7.0092827e-003
1.2915640e-001
2.9635370e-001
4.7971588e-001
6.5334100e-001
7.5240570e-001
8.3351427e-001
8.8945359e-001
9.4163120e-001
9.8587286e-001
1.0254700e+000
1.0472114e+000
1.0785701e+000
1.1408123e+000
1.2131650e+000
1.3083434e+000
1.3883485e+000
1.4369814e+000
1.4652249e+000
1.4621286e+000
1.4553584e+000
1.4466300e+000
1.4535486e+000
1.4825662e+000
1.5618736e+000
1.6833400e+000
1.8326676e+000
1.9896588e+000
2.0839190e+000
2.1402242e+000
2.1261957e+000
2.0875387e+000
2.0366383e+000
1.9848102e+000
1.9452736e+000
1.9089921e+000
1.8857085e+000
1.8630643e+000
1.8404113e+000
1.8144372e+000
1.7725331e+000
1.7155335e+000
1.6104439e+000
1.4991766e+000
1.3757215e+000
1.2816503e+000
1.2414243e+000
1.2003697e+000
1.1539887e+000
1.0637031e+000
9.2101526e-001
7.4888778e-001
5.4734987e-001
3.1096029e-001
5.0906658e-002
-2.0747577e-001
-4.5737770e-001
-6.2768114e-001
-7.6196015e-001
-8.3807343e-001
-8.9947200e-001
-9.7073025e-001
-1.0453136e+000
-1.1388160e+000
-1.2350743e+000
-1.3452857e+000
-1.4543790e+000
-1.5537492e+000
-1.6419705e+000
-1.6813715e+000
-1.7217101e+000
-1.7655058e+000
-1.8232025e+000
-1.9102340e+000
-1.9611928e+000
-1.9459593e+000
-1.8614395e+000
-1.6849040e+000
-1.5085680e+000
-1.3367742e+000
-1.2402498e+000
-1.2048377e+000
-1.1934586e+000
-1.1942121e+000
-1.1526600e+000
-1.0936031e+000
-1.0674598e+000
-1.0531126e+000
-1.0667679e+000
-1.0812036e+000
-9.8049772e-001
-8.6127764e-001
-6.2982965e-001
-3.9180201e-001
-1.2913714e-001
5.3293705e-003
1.6004559e-001
2.9765475e-001
3.6262539e-001
4.2772257e-001
4.9415994e-001
5.9817809e-001
7.8359902e-001
1.0283713e+000
1.3678578e+000
1.7060461e+000
2.0407026e+000
2.2594063e+000
2.3686199e+000
2.3623443e+000
2.2742703e+000
2.1630874e+000
2.0413110e+000
2.0828924e+000
2.1887414e+000
2.5584116e+000
2.9974661e+000
3.4788969e+000
3.9668682e+000
4.2941999e+000
