##TITLE=Methyl Ethyl Ketone
##JCAMP-DX=4.24
##DATA TYPE=INFRARED SPECTRUM
##XUNITS=cm-1
##YUNITS=Absorbance
##FIRSTX=900
##LASTX=2300
##XYDATA=(X++(Y..Y))
2296 -0.048746001
2294 -0.049760547
2292 -0.050774101
2290 -0.051788647
2288 -0.052803196
2286 -0.053816751
2284 -0.054831289
2282 -0.055844847
2280 -0.056859389
2278 -0.057872951
2276 -0.058887485
2274 -0.059901047
2272 -0.060915586
2270 -0.061930131
2268 -0.062943697
2266 -0.063958228
2264 -0.064971797
2262 -0.06598632
2260 -0.066999897
2258 -0.068014428
2256 -0.069028005
2254 -0.070042521
2252 -0.071057066
2250 -0.072070651
2248 -0.073085167
2246 -0.074098751
2244 -0.0027535856
2242 0.052055586
2240 0.10959936
2238 0.068137795
2236 0.012022709
2234 -0.1539994
2232 -0.32565036
2230 -0.44649979
2228 -0.54656684
2226 -0.50032753
2224 -0.43141073
2222 -0.29284269
2220 -0.15849917
2218 -0.048413727
2216 0.048200227
2214 0.11837544
2212 0.19052179
2210 0.26843524
2208 0.34487584
2206 0.41902578
2204 0.46987832
2202 0.49838173
2200 0.50598419
2198 0.49903509
2196 0.48882285
2194 0.4772695
2192 0.43753999
2190 0.38547906
2188 0.28818759
2186 0.17646208
2184 0.1093272
2182 0.052653737
2180 0.085580058
2178 0.13153224
2176 0.15428428
2174 0.16807233
2172 0.10464255
2170 0.036448777
2168 -0.017072445
2166 -0.045999214
2164 0.0095525859
2162 0.086018771
2160 0.1945
2158 0.29129416
2156 0.35975701
2154 0.39767116
2152 0.395558
2150 0.35754082
2148 0.28379342
2146 0.22138464
2144 0.17231429
2142 0.19566341
2140 0.26840082
2138 0.36744437
2136 0.47806913
2134 0.53649795
2132 0.57246947
2130 0.5728097
2128 0.56243759
2126 0.56909382
2124 0.57990998
2122 0.62454778
2120 0.67468405
2118 0.72774279
2116 0.77392113
2114 0.76570559
2112 0.74349391
2110 0.69416195
2108 0.65386987
2106 0.65286857
2104 0.65983611
2102 0.67159927
2100 0.66658759
2098 0.6322118
2096 0.60640717
2094 0.59748352
2092 0.63237023
2090 0.71007735
2088 0.80109346
2086 0.8980605
2084 0.94820333
2082 0.96690673
2080 0.94026732
2078 0.89194143
2076 0.84389687
2074 0.79705799
2072 0.76003003
2070 0.72611338
2068 0.69818431
2066 0.67183071
2064 0.65540451
2062 0.6435138
2060 0.65889543
2058 0.687549
2056 0.75968176
2054 0.84167176
2052 0.92815179
2050 1.0006878
2048 1.0349526
2046 1.0394535
2044 1.0007616
2042 0.94894481
2040 0.89000911
2038 0.86080402
2036 0.86911786
2034 0.88566291
2032 0.90347439
2030 0.85870934
2028 0.76449102
2026 0.64889878
2024 0.52482063
2022 0.47824779
2020 0.47264931
2018 0.52951747
2016 0.61046797
2014 0.68430185
2012 0.75496441
2010 0.80815858
2008 0.85635304
2006 0.89718729
2004 0.93295413
2002 0.94588268
2000 0.94685954
1998 0.92087811
1996 0.89137143
1994 0.87157559
1992 0.86772603
1990 0.89463586
1988 0.93572563
1986 0.98887563
1984 1.0390692
1982 1.0811613
1980 1.1011175
1978 1.0981171
1976 1.0898972
1974 1.081455
1972 1.1103965
1970 1.1679533
1968 1.2005943
1966 1.2139722
1964 1.1494211
1962 1.0453758
1960 0.99833161
1958 0.97849572
1956 1.0528133
1954 1.1590126
1952 1.2183131
1950 1.2566545
1948 1.2404521
1946 1.2107999
1944 1.202652
1942 1.2046161
1940 1.2197922
1938 1.2333337
1936 1.2324371
1934 1.2278377
1932 1.2241839
1930 1.2156928
1928 1.198552
1926 1.1744186
1924 1.1441028
1922 1.1498173
1920 1.1963989
1918 1.2918999
1916 1.42309
1914 1.5437216
1912 1.6503469
1910 1.6970795
1908 1.7069637
1906 1.6456964
1904 1.5487361
1902 1.43489
1900 1.3151995
1898 1.2727545
1896 1.2669001
1894 1.3413916
1892 1.442516
1890 1.512735
1888 1.5509572
1886 1.5034114
1884 1.421314
1882 1.331231
1880 1.2509154
1878 1.1998415
1876 1.15897
1874 1.1174997
1872 1.0825218
1870 1.0571464
1868 1.0470369
1866 1.0530136
1864 1.0574754
1862 1.056275
1860 1.0538474
1858 1.0513822
1856 1.010664
1854 0.94008744
1852 0.75917232
1850 0.50784981
1848 0.1981062
1846 -0.14012054
1844 -0.30026266
1842 -0.36097804
1840 -0.20842052
1838 0.043683149
1836 0.29525501
1834 0.53558427
1832 0.71653098
1830 0.8485043
1828 0.90050995
1826 0.90169352
1824 0.86034399
1822 0.81410259
1820 0.79455423
1818 0.78153193
1816 0.76099968
1814 0.71251899
1812 0.62732357
1810 0.56375319
1808 0.54189426
1806 0.5832665
1804 0.67800671
1802 0.66407323
1800 0.53745079
1798 0.29229581
1796 -0.028050713
1794 -0.13036139
1792 -0.068116724
1790 0.16979706
1788 0.50590056
1786 0.70585907
1784 0.8170886
1782 0.82317853
1780 0.7673682
1778 0.68512827
1776 0.60007858
1774 0.56308818
1772 0.56826252
1770 0.63049179
1768 0.67458993
1766 0.60768002
1764 0.4579336
1762 0.24343643
1760 0.057788458
1758 -0.20458338
1756 -0.46521986
1754 -0.6257239
1752 -0.70754391
1750 -0.73653173
1748 -0.75444913
1746 -0.77757072
1744 -0.87191337
1742 -1.0319318
1740 -1.1953691
1738 -1.3503599
1736 -1.3041199
1734 -1.1047246
1732 -0.76002359
1730 -0.3326512
1728 -0.11139736
1726 -0.038384192
1724 -0.062619671
1722 -0.11230951
1720 0.031255372
1718 0.38324547
1716 1.0418322
1714 1.8076791
1712 2.3969138
1710 2.8079233
1708 3.0261979
1706 3.2703907
1704 3.7432075
1702 4.7720013
1700 6.5365
1698 9.3457851
1696 13.213572
1694 17.304741
1692 21.206001
1690 24.62571
1688 27.569538
1686 30.847921
1684 34.581802
1682 38.980419
1680 43.91436
1678 48.324474
1676 52.236286
1674 56.114616
1672 60.030754
1670 64.453239
1668 69.234863
1666 73.880249
1664 78.377724
1662 82.653343
1660 86.677841
1658 90.366295
1656 93.69223
1654 96.61515
1652 99.135658
1650 101.28021
1648 102.58823
1646 102.70428
1644 101.75734
1642 99.983009
1640 97.662712
1638 95.040039
1636 91.945114
1634 88.372192
1632 84.60672
1630 80.774452
1628 76.890831
1626 72.96666
1624 68.614037
1622 63.832893
1620 59.004959
1618 54.188507
1616 49.784801
1614 45.816704
1612 42.379272
1610 39.45689
1608 36.884777
1606 34.632706
1604 32.5518
1602 30.688396
1600 29.107012
1598 27.830841
1596 26.8475
1594 26.115438
1592 25.544886
1590 25.11709
1588 24.796049
1586 24.625978
1584 24.623941
1582 24.769699
1580 25.037968
1578 25.394754
1576 25.818686
1574 26.3172
1572 26.889439
1570 27.595474
1568 28.447079
1566 29.439829
1564 30.57576
1562 31.890524
1560 33.448715
1558 35.65868
1556 38.540443
1554 41.5481
1552 44.511971
1550 46.751106
1548 48.256428
1546 49.349358
1544 50.023663
1542 50.411751
1540 50.541061
1538 50.529518
1536 50.337116
1534 49.940411
1532 49.30975
1530 48.435577
1528 47.310852
1526 45.941299
1524 44.33699
1522 42.5033
1520 40.709114
1518 39.083031
1516 37.670788
1514 36.508835
1512 35.132999
1510 33.413937
1508 31.059807
1506 27.92355
1504 24.858435
1502 21.95491
1500 19.584038
1498 17.80088
1496 16.023714
1494 14.234309
1492 12.371945
1490 10.444637
1488 8.5213842
1486 6.6488352
1484 4.9099059
1482 3.3789434
1480 2.126476
1478 1.1708724
1476 0.49496228
1474 0.20139064
1472 0.41211155
1470 0.94833159
1468 1.6464112
1466 2.3127728
1464 2.8190703
1462 3.198076
1460 3.4344761
1458 3.6534758
1456 3.8887601
1454 4.2113919
1452 4.6656151
1450 5.049386
1448 5.3100805
1446 5.4318643
1444 5.3577757
1442 5.203917
1440 4.9388366
1438 4.5967484
1436 4.1560488
1434 3.6535234
1432 3.1130023
1430 2.6394866
1428 2.253006
1426 1.9560279
1424 1.7576605
1422 1.6494612
1420 1.6683866
1418 1.8617593
1416 2.1883199
1414 2.6166179
1412 3.0562372
1410 3.4308624
1408 3.7595556
1406 4.0367723
1404 4.2928939
1402 4.5323224
1400 4.7459879
1398 4.9169965
1396 5.0668569
1394 5.1842561
1392 5.2927403
1390 5.3820877
1388 5.4211488
1386 5.3757701
1384 5.2554569
1382 5.0245528
1380 4.7201509
1378 4.3175669
1376 3.8503485
1374 3.3351829
1372 2.868484
1370 2.4790051
1368 2.2024121
1366 1.9848214
1364 1.7121094
1362 1.3736269
1360 0.94703901
1358 0.52706522
1356 0.22553684
1354 0.033486061
1352 -0.0036044619
1350 0.015836168
1348 0.06917917
1346 0.11889572
1344 0.13932201
1342 0.16105306
1340 0.19353002
1338 0.2649093
1336 0.41472685
1334 0.57412302
1332 0.74916637
1330 0.90491349
1328 1.0359054
1326 1.1888007
1324 1.3767631
1322 1.5973797
1320 1.8546429
1318 2.1157486
1316 2.37712
1314 2.6276634
1312 2.8612804
1310 3.0665872
1308 3.2402003
1306 3.3725021
1304 3.4693263
1302 3.5269029
1300 3.5601864
1298 3.5725505
1296 3.574543
1294 3.5671709
1292 3.5546429
1290 3.5341928
1288 3.5222399
1286 3.5359457
1284 3.5665169
1282 3.6363103
1280 3.7089961
1278 3.7879286
1276 3.8662271
1274 3.9439189
1272 4.025815
1270 4.1179962
1268 4.2312717
1266 4.3849182
1264 4.5959907
1262 4.8845916
1260 5.230062
1258 5.6333642
1256 6.0568142
1254 6.501184
1252 6.9657974
1250 7.4476438
1248 7.9461498
1246 8.4427004
1244 8.9049072
1242 9.3275213
1240 9.6614714
1238 9.9326029
1236 10.077386
1234 10.169
1232 10.16588
1230 10.142402
1228 10.083823
1226 9.9925709
1224 9.8071585
1222 9.5597296
1220 9.1645365
1218 8.7335005
1216 8.2345114
1214 7.7374325
1212 7.2432361
1210 6.7478952
1208 6.2481761
1206 5.7341986
1204 5.2042942
1202 4.6721644
1200 4.1464839
1198 3.6591206
1196 3.2114
1194 2.8169708
1192 2.4598539
1190 2.132534
1188 1.8231388
1186 1.5334543
1184 1.2616559
1182 1.0365031
1180 0.85071141
1178 0.78186041
1176 0.76179403
1174 0.87453359
1172 0.99878103
1170 1.1360689
1168 1.2410737
1166 1.2455364
1164 1.2150197
1162 1.0998759
1160 0.97696209
1158 0.83951539
1156 0.70500487
1154 0.57492328
1152 0.44391787
1150 0.31382158
1148 0.1960894
1146 0.096983209
1144 0.03091892
1142 -0.0023071747
1140 -0.0054092137
1138 0.014105376
1136 0.047477998
1134 0.09871655
1132 0.23917809
1130 0.43447384
1128 0.73853165
1126 1.0800421
1124 1.462198
1122 1.8447771
1120 2.1916561
1118 2.5172508
1116 2.7461329
1114 2.9504573
1112 3.0578594
1110 3.1483629
1108 3.1858423
1106 3.2216702
1104 3.2576735
1102 3.329803
1100 3.4777043
1098 3.6837487
1096 3.9814284
1094 4.3082819
1092 4.674438
1090 5.0701513
1088 5.4988389
1086 5.960279
1084 6.4335656
1082 6.8154302
1080 7.1206899
1078 7.2656422
1076 7.3363528
1074 7.3887124
1072 7.4372826
1070 7.5011773
1068 7.5543399
1066 7.5048742
1064 7.435792
1062 7.3198204
1060 7.2048302
1058 7.1095161
1056 6.9977746
1054 6.8141456
1052 6.6203284
1050 6.3988318
1048 6.2237973
1046 6.1635785
1044 6.1478982
1042 6.2107186
1040 6.2398353
1038 6.2147784
1036 6.12923
1034 5.9712057
1032 5.7673388
1030 5.5182452
1028 5.2199593
1026 4.8892136
1024 4.57061
1022 4.2621012
1020 3.9928675
1018 3.7336197
1016 3.4184542
1014 3.0865831
1012 2.7366183
1010 2.39518
1008 2.1837201
1006 1.9866529
1004 1.8317877
1002 1.6635083
1000 1.4029572
998 1.1513858
996 0.94145215
994 0.7772029
992 0.75371408
990 0.730349
988 0.70315516
986 0.60947651
984 0.3996492
982 0.16836542
980 -0.088520154
978 -0.29598576
976 -0.45036715
974 -0.56629413
972 -0.64880919
970 -0.67960513
968 -0.67569011
966 -0.60677302
964 -0.5063169
962 -0.3610062
960 -0.19914432
958 0.0063064992
956 0.21545786
954 0.29863173
952 0.35731238
950 0.1921806
948 0.028214563
946 0.0092979325
944 0.0050828606
942 0.15813673
940 0.45933977
938 0.78125793
936 1.0382113
934 1.1040169
932 1.1319371
930 1.0807856
928 1.1035205
926 1.2468443
924 1.51291
922 1.927107
920 2.303256
918 2.6405196
916 2.7345955
914 2.6551497
912 2.4016469
910 2.0572591
908 1.8138404
906 1.6102114
904 1.5981177
902 1.6364998
900 1.7529688
898 1.8820795
896 2.1473
