##TITLE=Methyl Ethyl Ketone
##JCAMP-DX=4.24
##DATA TYPE=INFRARED SPECTRUM
##XUNITS=cm-1
##YUNITS=Absorbance
##FIRSTX=900
##LASTX=2300
##XYDATA=(X++(Y..Y))
2296 -0.017054001
2294 -0.017408494
2292 -0.017762985
2290 -0.018117478
2288 -0.018472966
2286 -0.018827464
2284 -0.019181956
2282 -0.01953744
2280 -0.019891944
2278 -0.020246437
2276 -0.020600928
2274 -0.020956406
2272 -0.021310914
2270 -0.021665405
2268 -0.022020878
2266 -0.022375394
2264 -0.022729887
2262 -0.023084378
2260 -0.023439845
2258 -0.023794364
2256 -0.024148857
2254 -0.024504319
2252 -0.024858844
2250 -0.025213337
2248 -0.02556783
2246 -0.025923286
2244 -0.00096333714
2242 0.011140074
2240 0.028932281
2238 0.068711035
2236 0.1117581
2234 0.18043354
2232 0.24991967
2230 0.29618821
2228 0.33953589
2226 0.3687245
2224 0.39162564
2222 0.38937083
2220 0.3758738
2218 0.33239049
2216 0.29540858
2214 0.27630839
2212 0.27237362
2210 0.29145887
2208 0.31808847
2206 0.35235286
2204 0.39477363
2202 0.44456002
2200 0.47806242
2198 0.4990195
2196 0.49657643
2194 0.48115832
2192 0.48001626
2190 0.48552874
2188 0.5165081
2186 0.55560386
2184 0.58140719
2182 0.60402948
2180 0.60429168
2178 0.60202557
2176 0.66577512
2174 0.74087328
2172 0.87587208
2170 1.0046935
2168 1.0658988
2166 1.0926714
2164 1.018186
2162 0.92048579
2160 0.78899598
2158 0.6712051
2156 0.58583403
2154 0.53967333
2152 0.54549181
2150 0.57018042
2148 0.61002392
2146 0.63650817
2144 0.64978582
2142 0.66137731
2140 0.67281526
2138 0.69829124
2136 0.73139572
2134 0.7643984
2132 0.79691166
2130 0.81756407
2128 0.83441156
2126 0.85397142
2124 0.87429374
2122 0.90715224
2120 0.94090593
2118 0.95358056
2116 0.96274
2114 0.96765971
2112 0.97667986
2110 1.0061768
2108 1.0240917
2106 0.99803293
2104 0.95040673
2102 0.86969835
2100 0.81335795
2098 0.80623162
2096 0.82492715
2094 0.86810452
2092 0.8887763
2090 0.88245082
2088 0.86234629
2086 0.8336935
2084 0.83054227
2082 0.84488493
2080 0.89747936
2078 0.96917999
2076 1.0470359
2074 1.1264619
2072 1.152204
2070 1.1606538
2068 1.112576
2066 1.05152
2064 0.9959982
2062 0.94693625
2060 0.94703138
2058 0.9601506
2056 0.99146688
2054 1.015442
2052 1.001794
2050 0.96941835
2048 0.90970731
2046 0.84603393
2044 0.78590178
2042 0.74083453
2040 0.71605182
2038 0.73084092
2036 0.78687924
2034 0.86924785
2032 0.97006518
2030 1.0357928
2028 1.0723126
2026 1.0613693
2024 1.0238628
2022 1.0024408
2020 0.99192417
2018 1.0188793
2016 1.06032
2014 1.0730525
2012 1.0744188
2010 1.0335207
2008 0.98217374
2006 0.95169133
2004 0.92898357
2002 0.92705601
2000 0.92778575
1998 0.92224067
1996 0.91484714
1994 0.90985972
1992 0.91190481
1990 0.92359185
1988 0.93954676
1986 0.95242387
1984 0.95162284
1982 0.93297696
1980 0.90241152
1978 0.86564463
1976 0.86047602
1974 0.8873412
1972 0.95591551
1970 1.0526114
1968 1.1162171
1966 1.1553793
1964 1.1334908
1962 1.0798609
1960 1.030584
1958 0.98440713
1956 0.94686842
1954 0.91123205
1952 0.86339307
1950 0.81215382
1948 0.7880432
1946 0.78173751
1944 0.82048446
1942 0.88038677
1940 0.94607812
1938 1.0020262
1936 1.023423
1934 1.018934
1932 0.98995239
1930 0.94257188
1928 0.88401371
1926 0.81427699
1924 0.73820299
1922 0.6737445
1920 0.61988121
1918 0.59536582
1916 0.58824885
1914 0.61080122
1912 0.6535573
1910 0.71668065
1908 0.79246867
1906 0.84245282
1904 0.87605721
1902 0.8912825
1900 0.89683783
1898 0.94338053
1896 1.00604
1894 1.0786475
1892 1.1493617
1890 1.1717269
1888 1.1618171
1886 1.0818479
1884 0.96904063
1882 0.83328182
1880 0.70238656
1878 0.60740352
1876 0.524019
1874 0.45048285
1872 0.37424898
1870 0.29575035
1868 0.25869304
1866 0.26066849
1864 0.30806339
1862 0.37927511
1860 0.44517207
1858 0.50571167
1856 0.52800459
1854 0.5273208
1852 0.45137107
1850 0.33322403
1848 0.14643024
1846 -0.070516355
1844 -0.23155469
1842 -0.352622
1840 -0.33821321
1838 -0.26080734
1836 -0.15122372
1834 -0.03749454
1832 0.056200586
1830 0.13633169
1828 0.18897471
1826 0.2355915
1824 0.27087325
1822 0.3018032
1820 0.335273
1818 0.35495043
1816 0.36323744
1814 0.34544939
1812 0.30255705
1810 0.25124294
1808 0.19634245
1806 0.15644899
1804 0.13200782
1802 0.053221542
1800 -0.073381379
1798 -0.25772354
1796 -0.47806215
1794 -0.55107909
1792 -0.52246517
1790 -0.32734823
1788 -0.044243883
1786 0.17832944
1784 0.35042933
1782 0.42268285
1780 0.42674813
1778 0.3710039
1776 0.28986743
1774 0.23895477
1772 0.23928882
1770 0.31880805
1768 0.41315868
1766 0.43193543
1764 0.3639456
1762 0.21136272
1760 0.053657427
1758 -0.13484758
1756 -0.29553771
1754 -0.36830041
1752 -0.40485755
1750 -0.42653921
1748 -0.48504874
1746 -0.59375465
1744 -0.72191215
1742 -0.87047863
1740 -0.98035723
1738 -1.0491103
1736 -0.99733806
1734 -0.8480199
1732 -0.61251628
1730 -0.33237737
1728 -0.1705692
1726 -0.10636841
1724 -0.094427481
1722 -0.100748
1720 0.0052647069
1718 0.23929642
1716 0.71169001
1714 1.3294961
1712 1.9034005
1710 2.4028785
1708 2.8171101
1706 3.3199809
1704 4.0981698
1702 5.4464369
1700 7.5126076
1698 10.598215
1696 14.674144
1694 18.927231
1692 22.967072
1690 26.503662
1688 29.574171
1686 32.990791
1684 36.874859
1682 41.464127
1680 46.608841
1678 51.122204
1676 55.036602
1674 58.815147
1672 62.572056
1670 66.935539
1668 71.724968
1666 76.279396
1664 80.5196
1662 84.160576
1660 87.269783
1658 89.974579
1656 92.31572
1654 94.381004
1652 96.109879
1650 97.43943
1648 98.114235
1646 97.898178
1644 96.942101
1642 95.477798
1640 93.461151
1638 90.971558
1636 87.694641
1634 83.5942
1632 79.196793
1630 74.716995
1628 70.33992
1626 66.108307
1624 61.684841
1622 57.048084
1620 52.58532
1618 48.324917
1616 44.457058
1614 40.983414
1612 37.921402
1610 35.264469
1608 32.941853
1606 30.940565
1604 29.154686
1602 27.620811
1600 26.371469
1598 25.418287
1596 24.735001
1594 24.300501
1592 24.047943
1590 23.960581
1588 23.996473
1586 24.149458
1584 24.408886
1582 24.758039
1580 25.187185
1578 25.759666
1576 26.492313
1574 27.434494
1572 28.578772
1570 29.821115
1568 31.1308
1566 32.393463
1564 33.598141
1562 34.856701
1560 36.240292
1558 38.294735
1556 41.09
1554 44.170219
1552 47.333092
1550 49.762325
1548 51.451775
1546 52.810856
1544 53.843922
1542 54.662849
1540 55.173
1538 55.201096
1536 54.768715
1534 53.988197
1532 52.973454
1530 51.941917
1528 50.84235
1526 49.636398
1524 48.204258
1522 46.451256
1520 44.531429
1518 42.466225
1516 40.526615
1514 38.820454
1512 37.010483
1510 35.051331
1508 32.465084
1506 29.08777
1504 25.723629
1502 22.434423
1500 19.732845
1498 17.689091
1496 15.715858
1494 13.81673
1492 11.897391
1490 9.9717293
1488 8.0602045
1486 6.2065825
1484 4.4884701
1482 2.9712567
1480 1.759092
1478 0.86696851
1476 0.26897013
1474 0.1055123
1472 0.41012463
1470 0.92942834
1468 1.5619477
1466 2.1319764
1464 2.5582607
1462 2.9186928
1460 3.2449002
1458 3.6537406
1456 4.19382
1454 4.8020949
1452 5.4624319
1450 5.9803452
1448 6.2674251
1446 6.4422998
1444 6.4647913
1442 6.4372029
1440 6.3397489
1438 6.1530519
1436 5.8505783
1434 5.4072433
1432 4.8386493
1430 4.2673388
1428 3.722424
1426 3.2998049
1424 3.0052576
1422 2.8321359
1420 2.8070412
1418 2.9341781
1416 3.2004371
1414 3.5943711
1412 4.0135822
1410 4.4136033
1408 4.780601
1406 5.1054578
1404 5.4197168
1402 5.7152624
1400 5.9868002
1398 6.2098923
1396 6.3923144
1394 6.4965715
1392 6.5703168
1390 6.5638366
1388 6.4991312
1386 6.3319302
1384 6.0891027
1382 5.737793
1380 5.3206115
1378 4.8248744
1376 4.2839174
1374 3.7258844
1372 3.2086079
1370 2.7456284
1368 2.3506355
1366 1.9753556
1364 1.5545783
1362 1.1151636
1360 0.68276566
1358 0.32065731
1356 0.11953481
1354 0.0087856948
1352 -0.0071723773
1350 0.010275317
1348 0.040095784
1346 0.071669862
1344 0.1152308
1342 0.16748443
1340 0.2409889
1338 0.32486758
1336 0.42126313
1334 0.5336262
1332 0.64030957
1330 0.7361452
1328 0.80949694
1326 0.8714388
1324 0.93949878
1322 1.0374893
1320 1.1930017
1318 1.3961695
1316 1.64886
1314 1.9002751
1312 2.1218972
1310 2.2738998
1308 2.3448608
1306 2.3393428
1304 2.281357
1302 2.1958139
1300 2.1055484
1298 2.0255098
1296 1.9572001
1294 1.9025995
1292 1.8549654
1290 1.8129429
1288 1.781176
1286 1.7717564
1284 1.7856529
1282 1.8523276
1280 1.9358498
1278 2.053633
1276 2.1655071
1274 2.2702351
1272 2.3680937
1270 2.4623959
1268 2.5714738
1266 2.7015193
1264 2.8504605
1262 3.019408
1260 3.2011099
1258 3.3973331
1256 3.6050973
1254 3.82149
1252 4.0381293
1250 4.253355
1248 4.464777
1246 4.6774998
1244 4.8958583
1242 5.1130419
1240 5.3154006
1238 5.4939456
1236 5.608717
1234 5.6778536
1232 5.6389761
1230 5.5443826
1228 5.3048801
1226 5.0185757
1224 4.6093435
1222 4.1767726
1220 3.6885843
1218 3.196301
1216 2.6993971
1214 2.2260656
1212 1.7998526
1210 1.4240593
1208 1.1212056
1206 0.85419106
1204 0.62470281
1202 0.39403856
1200 0.1605666
1198 -0.08157146
1196 -0.32227287
1194 -0.53218114
1192 -0.70871669
1190 -0.81835043
1188 -0.89037275
1186 -0.92882437
1184 -0.95617425
1182 -0.98325419
1180 -0.99806148
1178 -0.96121156
1176 -0.89152199
1174 -0.71584022
1172 -0.51435208
1170 -0.23929405
1168 0.028307766
1166 0.26762286
1164 0.46982905
1162 0.57835472
1160 0.64987385
1158 0.64696163
1156 0.61981285
1154 0.55212623
1152 0.46498787
1150 0.35473308
1148 0.25025138
1146 0.15786178
1144 0.10019879
1142 0.070847213
1140 0.042259939
1138 0.0069639832
1136 -0.0686116
1134 -0.15796861
1132 -0.18034755
1130 -0.15334627
1128 -0.00034512579
1126 0.19385937
1124 0.42540446
1122 0.64678562
1120 0.77920485
1118 0.88780755
1116 0.91300517
1114 0.94324172
1112 1.001027
1110 1.070771
1108 1.1769305
1106 1.2753249
1104 1.3514429
1102 1.399738
1100 1.3903046
1098 1.3420902
1096 1.2385571
1094 1.1582891
1092 1.121784
1090 1.2000208
1088 1.395767
1086 1.645125
1084 1.9229631
1082 2.1142461
1080 2.2388999
1078 2.2487311
1076 2.2025144
1074 2.1208994
1072 2.032047
1070 1.9761976
1068 1.9259638
1066 1.8669658
1064 1.807948
1062 1.7587982
1060 1.7259946
1058 1.7950537
1056 1.8650343
1054 1.9357042
1052 1.9671485
1050 1.872761
1048 1.7496216
1046 1.5594714
1044 1.3891073
1042 1.2554981
1040 1.1361349
1038 1.0348251
1036 0.91683501
1034 0.78007829
1032 0.64135998
1030 0.50171983
1028 0.3637355
1026 0.22738165
1024 0.093167976
1022 -0.040525392
1020 -0.17756258
1018 -0.31653601
1016 -0.45842513
1014 -0.59459102
1012 -0.65924919
1010 -0.70834678
1008 -0.71979761
1006 -0.73879057
1004 -0.88463974
1002 -1.0449103
1000 -1.2958949
998 -1.5268841
996 -1.6676857
994 -1.759647
992 -1.7002869
990 -1.6159127
988 -1.4758332
986 -1.35209
984 -1.2566023
982 -1.1769512
980 -1.118794
978 -1.0800105
976 -1.0626714
974 -1.0666755
972 -1.0863013
970 -1.0798949
968 -1.0564692
966 -1.0206214
964 -0.98036551
962 -0.96506947
960 -0.95608574
958 -0.90094298
956 -0.83289301
954 -0.68857658
952 -0.53509921
950 -0.37930286
948 -0.22358114
946 -0.072140142
944 0.0023454204
942 0.072631523
940 0.19974683
938 0.28837419
936 0.36869457
934 0.42514557
932 0.4824197
930 0.54136682
928 0.59746355
926 0.64962411
924 0.7230444
922 0.82338715
920 0.96476561
918 1.1443325
916 1.3500013
914 1.5732824
912 1.7580948
910 1.9228101
908 2.0034337
906 2.0542722
904 2.1483109
902 2.2554829
900 2.4612353
898 2.6831191
896 2.7662001
