##TITLE=Methyl Ethyl Ketone
##JCAMP-DX=4.24
##DATA TYPE=INFRARED SPECTRUM
##XUNITS=cm-1
##YUNITS=Absorbance
##FIRSTX=900
##LASTX=2300
##XYDATA=(X++(Y..Y))
2296 -0.069008999
2294 -0.070444942
2292 -0.071879894
2290 -0.073315836
2288 -0.074751779
2286 -0.076186731
2284 -0.077622674
2282 -0.079058617
2280 -0.08049456
2278 -0.08192952
2276 -0.083365455
2274 -0.084801406
2272 -0.086236365
2270 -0.087672301
2268 -0.089108244
2266 -0.090543203
2264 -0.091979131
2262 -0.093415082
2260 -0.094850048
2258 -0.096285969
2256 -0.097721919
2254 -0.099157862
2252 -0.10059477
2250 -0.10203269
2248 -0.10346097
2246 -0.10489857
2244 -0.0038981431
2242 0.030369606
2240 0.052180961
2238 -0.0022537962
2236 -0.06788528
2234 -0.15789056
2232 -0.24820696
2230 -0.30650994
2228 -0.36479148
2226 -0.4350895
2224 -0.51116776
2222 -0.61078984
2220 -0.69073743
2218 -0.70687079
2216 -0.68967456
2214 -0.60755181
2212 -0.52621019
2210 -0.45241132
2208 -0.41211051
2206 -0.41300371
2204 -0.45234853
2202 -0.52623963
2200 -0.59928912
2198 -0.67003167
2196 -0.68661499
2194 -0.67204529
2192 -0.60366017
2190 -0.51258868
2188 -0.41921824
2186 -0.32558841
2184 -0.27376559
2182 -0.23155883
2180 -0.24868564
2178 -0.27487054
2176 -0.3226963
2174 -0.368505
2172 -0.36897925
2170 -0.36502731
2168 -0.36030886
2166 -0.36860579
2164 -0.42466706
2162 -0.48049837
2160 -0.52352136
2158 -0.54634774
2156 -0.53330696
2154 -0.52458519
2152 -0.52748621
2150 -0.54900408
2148 -0.59012002
2146 -0.62350249
2144 -0.64823836
2142 -0.65948081
2140 -0.66195393
2138 -0.67693645
2136 -0.69920915
2134 -0.7200563
2132 -0.74002653
2130 -0.74421984
2128 -0.74341398
2126 -0.77501279
2124 -0.81424886
2122 -0.86034983
2120 -0.90336591
2118 -0.86896878
2116 -0.82246685
2114 -0.76828808
2112 -0.734034
2110 -0.79302466
2108 -0.876293
2106 -0.99158847
2104 -1.0887498
2102 -1.135368
2100 -1.161698
2098 -1.1665596
2096 -1.186
2094 -1.228563
2092 -1.2859446
2090 -1.3551528
2088 -1.390632
2086 -1.39687
2084 -1.3477283
2082 -1.2646055
2080 -1.1857417
2078 -1.1113229
2076 -1.0907815
2074 -1.0924656
2072 -1.110236
2070 -1.1324518
2068 -1.1118228
2066 -1.0806915
2064 -1.053308
2062 -1.0340751
2060 -1.0919605
2058 -1.170949
2056 -1.2829515
2054 -1.3920524
2052 -1.467244
2050 -1.5174469
2048 -1.520416
2046 -1.5059108
2044 -1.4756119
2042 -1.459859
2040 -1.4709377
2038 -1.4952717
2036 -1.5295771
2034 -1.5441847
2032 -1.538048
2030 -1.528505
2028 -1.5192611
2026 -1.509025
2024 -1.4980567
2022 -1.4476428
2020 -1.3766491
2018 -1.3249938
2016 -1.28268
2014 -1.3306993
2012 -1.4089105
2010 -1.5128082
2008 -1.6210035
2006 -1.6967971
2004 -1.7606601
2002 -1.798211
2000 -1.8180268
1998 -1.7900356
1996 -1.7351428
1994 -1.6351305
1992 -1.5411125
1990 -1.486145
1988 -1.4750299
1986 -1.5241393
1984 -1.5803211
1982 -1.6263763
1980 -1.6466529
1978 -1.6401939
1976 -1.6027628
1974 -1.541911
1972 -1.42458
1970 -1.2675283
1968 -1.1424446
1966 -1.0424521
1964 -1.1037905
1962 -1.248226
1960 -1.4323601
1958 -1.6293006
1956 -1.7389071
1954 -1.8148495
1952 -1.8337543
1950 -1.8332471
1948 -1.8180466
1946 -1.8076249
1944 -1.8477199
1942 -1.9117838
1940 -2.0056577
1938 -2.0872004
1936 -2.1128113
1934 -2.1157672
1932 -2.1062319
1930 -2.1226676
1928 -2.1861651
1926 -2.2132893
1924 -2.1755612
1922 -2.0024829
1920 -1.7017194
1918 -1.421824
1916 -1.1890471
1914 -1.0914429
1912 -1.0887486
1910 -1.1344292
1908 -1.1994989
1906 -1.3205543
1904 -1.470592
1902 -1.6136252
1900 -1.7519091
1898 -1.7371783
1896 -1.6553714
1894 -1.4814287
1892 -1.28664
1890 -1.193121
1888 -1.17968
1886 -1.3438379
1884 -1.5854998
1882 -1.8620611
1880 -2.1023285
1878 -2.2284439
1876 -2.2347
1874 -2.0919647
1872 -1.830992
1870 -1.4655579
1868 -1.1427488
1866 -0.91456252
1864 -0.90441358
1862 -1.0963337
1860 -1.387172
1858 -1.7195402
1856 -1.99268
1854 -2.2125001
1852 -2.2712886
1850 -2.2287543
1848 -2.0088801
1846 -1.6938035
1844 -1.4830531
1842 -1.3393893
1840 -1.4634389
1838 -1.7091445
1836 -1.9176457
1834 -2.0709159
1832 -2.0232708
1830 -1.8612503
1828 -1.6118737
1826 -1.3904493
1824 -1.3473834
1822 -1.457708
1820 -1.73759
1818 -2.0446076
1816 -2.2835257
1814 -2.4068344
1812 -2.3989773
1810 -2.3160408
1808 -2.1951857
1806 -2.0336249
1804 -1.8412669
1802 -1.6046431
1800 -1.3345268
1798 -1.0744904
1796 -0.82841784
1794 -0.62894225
1792 -0.4612768
1790 -0.37343574
1788 -0.33442134
1786 -0.34868315
1784 -0.38892737
1782 -0.39078397
1780 -0.35064942
1778 -0.17339906
1776 0.099919796
1774 0.47169584
1772 0.82131046
1770 0.94202828
1768 0.87285388
1766 0.61014307
1764 0.32686141
1762 0.17942888
1760 0.055602342
1758 -0.12379551
1756 -0.22211771
1754 -0.17543934
1752 0.18009216
1750 0.85169601
1748 1.5888934
1746 2.2919858
1744 2.5448689
1742 2.3768215
1740 2.0657263
1738 1.7075975
1736 1.6286401
1734 1.7702882
1732 1.7606974
1730 1.6150453
1728 1.1012685
1726 0.37473702
1724 -0.10614878
1722 -0.31709671
1720 0.11281824
1718 1.0915421
1716 2.5084629
1714 3.9831474
1712 4.9657321
1710 5.6370931
1708 6.200016
1706 7.0324454
1704 8.4802332
1702 10.736109
1700 13.85392
1698 17.484797
1696 21.345428
1694 24.72249
1692 27.394392
1690 29.856709
1688 32.32288
1686 35.667252
1684 39.898132
1682 44.694267
1680 49.860077
1678 54.17691
1676 57.737926
1674 61.407379
1672 65.249168
1670 69.724068
1668 74.637489
1666 79.308746
1664 83.72448
1662 87.781731
1660 91.505951
1658 94.926308
1656 98.044228
1654 100.86928
1652 103.1916
1650 104.78167
1648 105.00159
1646 103.38143
1644 100.56197
1642 97.182259
1640 93.573418
1638 89.966164
1636 85.901001
1634 81.237099
1632 76.426674
1630 71.644867
1628 67.188118
1626 63.080521
1624 58.873402
1622 54.510101
1620 50.193352
1618 45.94276
1616 41.868973
1614 37.997707
1612 34.499054
1610 31.414572
1608 28.850504
1606 26.780279
1604 25.032337
1602 23.600702
1600 22.418093
1598 21.500328
1596 20.8305
1594 20.388021
1592 20.112532
1590 19.973888
1588 19.923552
1586 20.014614
1584 20.273205
1582 20.77269
1580 21.537241
1578 22.626772
1576 24.046942
1574 25.65016
1572 27.377932
1570 28.980183
1568 30.40148
1566 31.717205
1564 32.943405
1562 34.444664
1560 36.322971
1558 39.049301
1556 42.574741
1554 45.77071
1552 48.452938
1550 50.206795
1548 51.18951
1546 52.242821
1544 53.376305
1542 54.582401
1540 55.395782
1538 55.114689
1536 53.8088
1534 51.747929
1532 49.501698
1530 47.684917
1528 46.294655
1526 45.308147
1524 44.434174
1522 43.491955
1520 42.056873
1518 39.904259
1516 37.496788
1514 34.957737
1512 32.662601
1510 30.727768
1508 28.440742
1506 25.64772
1504 22.600405
1502 19.31699
1500 16.565662
1498 14.43903
1496 12.519
1494 10.825842
1492 9.2124805
1490 7.676209
1488 6.1545286
1486 4.6343699
1484 3.085392
1482 1.6557903
1480 0.57638359
1478 -0.021649122
1476 0.0057545751
1474 0.63175142
1472 1.7286446
1470 2.8464379
1468 3.6493089
1466 4.2158017
1464 4.5611563
1462 5.0146232
1460 5.7514849
1458 6.6302223
1456 7.64996
1454 8.316843
1452 8.4038506
1450 8.2036114
1448 7.6172657
1446 7.0206213
1444 6.418879
1442 5.8713303
1440 5.4128008
1438 5.0697284
1436 4.8488083
1434 4.6233525
1432 4.3655262
1430 4.0143528
1428 3.6247301
1426 3.3471916
1424 3.239212
1422 3.3652289
1420 3.6741173
1418 4.0809093
1416 4.4697142
1414 4.7089119
1412 4.8588362
1410 4.9512787
1408 5.0901308
1406 5.3583579
1404 5.7211838
1402 6.2070661
1400 6.7067041
1398 7.1973662
1396 7.5524282
1394 7.6534686
1392 7.5855594
1390 7.2405534
1388 6.8567715
1386 6.4196401
1384 5.9957223
1382 5.5972443
1380 5.237885
1378 4.9329476
1376 4.6697431
1374 4.4384575
1372 4.178236
1370 3.8770802
1368 3.5243828
1366 3.1243272
1364 2.6936061
1362 2.2326655
1360 1.7381068
1358 1.2488207
1356 0.81129843
1354 0.44533956
1352 0.20507321
1350 0.044670798
1348 0.0018724748
1346 0.065540507
1344 0.2575992
1342 0.52862096
1340 0.93911791
1338 1.2942613
1336 1.5136771
1334 1.5695552
1332 1.338506
1330 1.1020128
1328 0.88175899
1326 0.79255849
1324 0.90069038
1322 1.1236607
1320 1.4801394
1318 1.8542695
1316 2.2179599
1314 2.4842913
1312 2.6386452
1310 2.6827765
1308 2.640311
1306 2.557755
1304 2.4525549
1302 2.3443739
1300 2.2411327
1298 2.1549852
1296 2.0897429
1294 2.0661485
1292 2.0707388
1290 2.1248796
1288 2.189328
1286 2.2619915
1284 2.3239458
1282 2.3568985
1280 2.3901258
1278 2.4249501
1276 2.4677427
1274 2.5276849
1272 2.6006384
1270 2.7012105
1268 2.8390949
1266 3.0365078
1264 3.2811737
1262 3.5859134
1260 3.9231021
1258 4.2957067
1256 4.6893802
1254 5.1035204
1252 5.5342922
1250 5.9747305
1248 6.4133263
1246 6.840775
1244 7.2329078
1242 7.5942683
1240 7.8971691
1238 8.1582842
1236 8.335146
1234 8.4518023
1232 8.4236755
1230 8.3209457
1228 8.0230045
1226 7.6721072
1224 7.1842332
1222 6.679316
1220 6.1356344
1218 5.595273
1216 5.0631256
1214 4.5435829
1212 4.047348
1210 3.5691276
1208 3.1195805
1206 2.6947386
1204 2.2990398
1202 1.9143484
1200 1.5331657
1198 1.1236868
1196 0.69435215
1194 0.26635864
1192 -0.14288661
1190 -0.47626501
1188 -0.76220083
1186 -0.98960203
1184 -1.1910206
1182 -1.3642362
1180 -1.5050505
1178 -1.5400696
1176 -1.5198799
1174 -1.3339609
1172 -1.1223474
1170 -0.84975487
1168 -0.59516853
1166 -0.39561164
1164 -0.20375958
1162 -0.030095354
1160 0.14565794
1158 0.32100797
1156 0.46619713
1154 0.55887753
1152 0.61834258
1150 0.62927788
1148 0.60303462
1146 0.52824855
1144 0.39564621
1142 0.22310123
1140 0.09299244
1138 0.021916471
1136 0.11635774
1134 0.32005182
1132 0.68567395
1130 1.1200566
1128 1.5901423
1126 2.0524278
1124 2.4220188
1122 2.7479188
1120 2.9292119
1118 3.0908604
1116 3.2193599
1114 3.3564122
1112 3.5304971
1110 3.6911747
1108 3.8072395
1106 3.897295
1104 3.9248235
1102 3.9546175
1100 3.9949491
1098 4.0846496
1096 4.2607999
1094 4.525084
1092 4.905118
1090 5.3537922
1088 5.869216
1086 6.3914571
1084 6.9067783
1082 7.3377118
1080 7.6925807
1078 7.8615928
1076 7.9273071
1074 7.8490686
1072 7.723269
1070 7.592607
1068 7.4678488
1066 7.3935671
1064 7.3348999
1062 7.3430414
1060 7.3648553
1058 7.453187
1056 7.5423484
1054 7.6336479
1052 7.7135582
1050 7.7577009
1048 7.8086634
1046 7.8775678
1044 7.9687333
1042 8.0990829
1040 8.2164621
1038 8.3113184
1036 8.3677101
1034 8.3762083
1032 8.3384743
1030 8.2537403
1028 8.1045647
1026 7.909575
1024 7.695365
1022 7.4740829
1020 7.2842345
1018 7.0960054
1016 6.7953115
1014 6.4404621
1012 5.8198757
1010 5.1493363
1008 4.4221683
1006 3.7056444
1004 3.1693223
1002 2.6504571
1000 2.2418008
998 1.8475552
996 1.5175072
994 1.2022755
992 0.93212795
990 0.65899181
988 0.37994629
986 0.1165945
984 -0.1155207
982 -0.28114843
980 -0.35532722
978 -0.37918353
976 -0.3535583
974 -0.36725658
972 -0.41511267
970 -0.51572418
968 -0.64471734
966 -0.70735902
964 -0.7343083
962 -0.64629769
960 -0.52128482
958 -0.39644563
956 -0.27434427
954 -0.21254759
952 -0.1595972
950 -0.14452443
948 -0.12622149
946 -0.041509606
944 0.0056276619
942 0.17563143
940 0.52818567
938 0.98070419
936 1.3621628
934 1.5332342
932 1.6140302
930 1.5034981
928 1.4308189
926 1.4214422
924 1.547938
922 1.8404127
920 2.1860819
918 2.5791507
916 2.8479943
914 3.0270219
912 3.0276315
910 2.93398
908 2.8120625
906 2.6805158
904 2.6829154
902 2.7210867
900 2.8811142
898 3.0607474
896 3.1637001
