##TITLE=Methyl Ethyl Ketone
##JCAMP-DX=4.24
##DATA TYPE=INFRARED SPECTRUM
##XUNITS=cm-1
##YUNITS=Absorbance
##FIRSTX=900
##LASTX=2300
##XYDATA=(X++(Y..Y))
2296 0.016836001
2294 0.017186498
2292 0.017535999
2290 0.017886495
2288 0.018236995
2286 0.0185865
2284 0.018936992
2282 0.019287491
2280 0.019637987
2278 0.019987499
2276 0.020337986
2274 0.020690452
2272 0.021039017
2270 0.021382611
2268 0.021738861
2266 0.022111986
2264 0.022440502
2262 0.022705588
2260 0.023137763
2258 0.02380568
2256 0.023850229
2254 0.02301874
2252 0.024503004
2250 0.029252313
2248 0.025396559
2246 0.0062375143
2244 0.00020551887
2242 0.034076873
2240 0.088317923
2238 0.1337612
2236 0.15537585
2234 0.14731452
2232 0.12400669
2230 0.10330973
2228 0.093414649
2226 0.098334104
2224 0.11671859
2222 0.1450156
2220 0.17687851
2218 0.20572101
2216 0.22712
2214 0.23839329
2212 0.2412854
2210 0.23883955
2208 0.23401241
2206 0.23057471
2204 0.23573214
2202 0.25628769
2200 0.29303184
2198 0.34262291
2196 0.39241213
2194 0.42852199
2192 0.44382709
2190 0.43581972
2188 0.41213778
2186 0.38360915
2184 0.361146
2182 0.35463178
2180 0.36983812
2178 0.40912393
2176 0.46635172
2174 0.53069836
2172 0.58353555
2170 0.60748476
2168 0.60042334
2166 0.56901282
2164 0.53479683
2162 0.51991278
2160 0.52905387
2158 0.55791599
2156 0.589876
2154 0.607557
2152 0.60693812
2150 0.59037799
2148 0.56714237
2146 0.54701287
2144 0.5326072
2142 0.52404338
2140 0.52151722
2138 0.52629572
2136 0.54360795
2134 0.57777995
2132 0.62353492
2130 0.67184341
2128 0.71228957
2126 0.73662972
2124 0.74708521
2122 0.74831891
2120 0.73918623
2118 0.71710473
2116 0.68294382
2114 0.64166206
2112 0.60954958
2110 0.60337818
2108 0.62461495
2106 0.66635156
2104 0.71151918
2102 0.74194616
2100 0.74996799
2098 0.73389786
2096 0.69951999
2094 0.65524656
2092 0.60915077
2090 0.56856012
2088 0.53855646
2086 0.52279699
2084 0.52272868
2082 0.53768474
2080 0.56179267
2078 0.58627683
2076 0.59866714
2074 0.58839744
2072 0.55852401
2070 0.51941526
2068 0.48863959
2066 0.48212323
2064 0.49770486
2062 0.52512282
2060 0.5519231
2058 0.56787384
2056 0.57420719
2054 0.57650232
2052 0.57836235
2050 0.58205307
2048 0.58875221
2046 0.59889501
2044 0.6114226
2042 0.62434226
2040 0.63428944
2038 0.63891023
2036 0.64263988
2034 0.65167987
2032 0.66711026
2030 0.68602067
2028 0.69874364
2026 0.69515735
2024 0.67517799
2022 0.6437062
2020 0.6071372
2018 0.57206458
2016 0.54418397
2014 0.52810138
2012 0.52537
2010 0.53448093
2008 0.54662943
2006 0.55141377
2004 0.54560524
2002 0.53048211
2000 0.51154077
1998 0.49474701
1996 0.48050073
1994 0.46647587
1992 0.45034063
1990 0.43157372
1988 0.41681001
1986 0.41400352
1984 0.42234212
1982 0.43556449
1980 0.44312117
1978 0.43569216
1976 0.41701487
1974 0.39777941
1972 0.39069316
1970 0.40597767
1968 0.44070223
1966 0.48431456
1964 0.52161187
1962 0.53851938
1960 0.53367323
1958 0.51366836
1956 0.49137256
1954 0.47975513
1952 0.48070943
1950 0.48868912
1948 0.49128306
1946 0.476845
1944 0.45057589
1942 0.42608365
1940 0.41466698
1938 0.42186517
1936 0.43657857
1934 0.44150937
1932 0.429694
1930 0.40175879
1928 0.36429971
1926 0.32633334
1924 0.29558098
1922 0.27794856
1920 0.27544028
1918 0.28568849
1916 0.29603016
1914 0.29034239
1912 0.26096287
1910 0.2088376
1908 0.15004469
1906 0.10605671
1904 0.087347679
1902 0.09481018
1900 0.11731857
1898 0.13939676
1896 0.1534043
1894 0.15687099
1892 0.14816675
1890 0.12706301
1888 0.099347882
1886 0.074683748
1884 0.064551517
1882 0.078271665
1880 0.11243533
1878 0.15403579
1876 0.18078899
1874 0.16911519
1872 0.11067153
1870 0.011864495
1868 -0.097445652
1866 -0.17842007
1864 -0.2100812
1862 -0.18855619
1860 -0.13252929
1858 -0.071167052
1856 -0.025101742
1854 -0.0068158042
1852 -0.02126909
1850 -0.067620769
1848 -0.13675392
1846 -0.21332072
1844 -0.27508429
1842 -0.30034259
1840 -0.28652227
1838 -0.24534896
1836 -0.19726515
1834 -0.16326921
1832 -0.14845674
1830 -0.14524977
1828 -0.13654888
1826 -0.10385249
1824 -0.044343498
1822 0.031659313
1820 0.10263992
1818 0.14327803
1816 0.13831429
1814 0.084091507
1812 -0.0035048947
1810 -0.096367098
1808 -0.16540897
1806 -0.189752
1804 -0.18221226
1802 -0.1769959
1800 -0.20399629
1798 -0.27881098
1796 -0.37740287
1794 -0.45107189
1792 -0.45761961
1790 -0.37298614
1788 -0.22098802
1786 -0.054988705
1784 0.082232758
1782 0.16499104
1780 0.19404359
1778 0.187536
1776 0.16546743
1774 0.14586502
1772 0.14176977
1770 0.15747464
1768 0.1728372
1766 0.15918279
1764 0.126131
1762 0.098443277
1760 0.034378275
1758 -0.13671321
1756 -0.38001585
1754 -0.59367329
1752 -0.7511459
1750 -0.88844347
1748 -1.0243127
1746 -1.1564893
1744 -1.2861006
1742 -1.41757
1740 -1.54405
1738 -1.644904
1736 -1.67818
1734 -1.5968519
1732 -1.3992871
1730 -1.1248176
1728 -0.83327645
1726 -0.58457375
1724 -0.39086217
1722 -0.21472621
1720 0.034827933
1718 0.46924323
1716 1.1285245
1714 1.9782686
1712 2.9198852
1710 3.8358178
1708 4.7118421
1706 5.6352901
1704 6.7594771
1702 8.2949877
1700 10.540225
1698 13.756531
1696 17.722713
1694 21.84318
1692 25.62821
1690 28.829893
1688 31.640966
1686 34.571205
1684 38.052917
1682 42.280655
1680 46.877998
1678 51.122707
1676 54.80563
1674 58.24332
1672 61.86396
1670 66.017426
1668 70.628288
1666 75.280205
1664 79.656326
1662 83.604126
1660 87.066841
1658 90.049217
1656 92.575768
1654 94.675751
1652 96.382439
1650 97.711052
1648 98.574348
1646 98.820427
1644 98.407661
1642 97.391747
1640 95.765343
1638 93.451195
1636 90.401215
1634 86.645256
1632 82.401283
1630 78.008766
1628 73.61795
1626 69.180916
1624 64.654442
1622 60.056015
1620 55.50296
1618 51.184017
1616 47.225086
1614 43.67239
1612 40.543583
1610 37.8349
1608 35.499367
1606 33.458302
1604 31.660872
1602 30.09376
1600 28.758514
1598 27.660601
1596 26.7915
1594 26.128309
1592 25.646635
1590 25.324558
1588 25.144146
1586 25.089958
1584 25.143126
1582 25.28565
1580 25.525593
1578 25.898188
1576 26.437456
1574 27.164473
1572 28.068096
1570 29.105644
1568 30.229839
1566 31.395756
1564 32.559666
1562 33.710022
1560 35.005035
1558 36.731846
1556 38.950459
1554 41.42704
1552 43.808292
1550 45.728355
1548 47.101189
1546 48.129894
1544 48.940224
1542 49.506802
1540 49.782681
1538 49.741032
1536 49.412258
1534 48.884926
1532 48.236908
1530 47.511375
1528 46.691425
1526 45.70105
1524 44.47501
1522 42.988815
1520 41.292183
1518 39.506176
1516 37.739529
1514 36.041668
1512 34.320358
1510 32.350281
1508 29.982931
1506 27.228336
1504 24.286938
1502 21.511393
1500 19.089346
1498 16.96286
1496 15.003286
1494 13.075644
1492 11.118833
1490 9.1644068
1488 7.2698507
1486 5.5008698
1484 3.9303222
1482 2.6272888
1480 1.6040155
1478 0.81882691
1476 0.30474472
1474 0.18215513
1472 0.47448194
1470 1.0567062
1468 1.7723105
1466 2.4777894
1464 3.0994744
1462 3.6501477
1460 4.1575623
1458 4.6421814
1456 5.1075401
1454 5.5343771
1452 5.8838706
1450 6.1043015
1448 6.1736946
1446 6.1132965
1444 5.9513211
1442 5.7098012
1440 5.3946714
1438 4.9926786
1436 4.4912858
1434 3.8907399
1432 3.2297366
1430 2.5912654
1428 2.0421481
1426 1.6114972
1424 1.306493
1422 1.1176767
1420 1.0455446
1418 1.1072725
1416 1.3110743
1414 1.645093
1412 2.0800564
1410 2.5700781
1408 3.0774777
1406 3.5809665
1404 4.0605903
1402 4.4941616
1400 4.8652878
1398 5.1691666
1396 5.4155073
1394 5.6286411
1392 5.8186641
1390 5.9684434
1388 6.046936
1386 6.0151949
1384 5.8531094
1382 5.5722613
1380 5.195673
1378 4.7527776
1376 4.2748199
1374 3.793592
1372 3.339606
1370 2.93646
1368 2.5787787
1366 2.2216308
1364 1.8261908
1362 1.3828584
1360 0.9224503
1358 0.52301252
1356 0.24076687
1354 0.078701414
1352 0.013785302
1350 0.0031249006
1348 0.014234493
1346 0.038462788
1344 0.073662519
1342 0.11939057
1340 0.17458251
1338 0.23663875
1336 0.3030746
1334 0.37204307
1332 0.44088393
1330 0.50579941
1328 0.56513196
1326 0.62136078
1324 0.67889559
1322 0.74392503
1320 0.82410651
1318 0.9277662
1316 1.0567701
1314 1.2009289
1312 1.3422776
1310 1.4561512
1308 1.5287254
1306 1.5681357
1304 1.5902287
1302 1.614289
1300 1.6518897
1298 1.7002335
1296 1.7552999
1294 1.817302
1292 1.8919985
1290 1.9922756
1288 2.1287441
1286 2.30356
1284 2.5096388
1282 2.7267752
1280 2.9350486
1278 3.1216853
1276 3.28337
1274 3.4314201
1272 3.580327
1270 3.7445941
1268 3.9381213
1266 4.1738086
1264 4.4628153
1262 4.8132668
1260 5.2284937
1258 5.7042661
1256 6.2346115
1254 6.8135996
1252 7.4335413
1250 8.0830498
1248 8.7461195
1246 9.3996
1244 10.0232
1242 10.60494
1240 11.136891
1238 11.61231
1236 12.016601
1234 12.322424
1232 12.49888
1230 12.519518
1228 12.368837
1226 12.054172
1224 11.593971
1222 11.019738
1220 10.369819
1218 9.6868572
1216 9.0074196
1214 8.3531942
1212 7.7355576
1210 7.1515722
1208 6.5936322
1206 6.0515375
1204 5.5156584
1202 4.9795589
1200 4.4408598
1198 3.9039888
1196 3.3742144
1194 2.8554046
1192 2.3523555
1190 1.87264
1188 1.4270526
1186 1.0315057
1184 0.70130646
1182 0.44734067
1180 0.27436826
1178 0.17578954
1176 0.137724
1174 0.13649449
1172 0.148183
1170 0.15412208
1168 0.14182258
1166 0.1100307
1164 0.062302992
1162 0.0068132505
1160 -0.048552819
1158 -0.099052735
1156 -0.14071615
1154 -0.16967991
1152 -0.18244943
1150 -0.17677815
1148 -0.1542646
1146 -0.1242675
1144 -0.093843803
1142 -0.060378984
1140 -0.018614614
1138 0.038238682
1136 0.12323457
1134 0.2619938
1132 0.47147268
1130 0.74089491
1128 1.0531209
1126 1.3919464
1124 1.7440517
1122 2.1012909
1120 2.4506121
1118 2.7642324
1116 3.0205483
1114 3.2223599
1112 3.3923881
1110 3.5854812
1108 3.8504527
1106 4.1998
1104 4.6215115
1102 5.0644593
1100 5.4825974
1098 5.8667121
1096 6.2236571
1094 6.577189
1092 6.94558
1090 7.3214736
1088 7.6912761
1086 8.0404644
1084 8.3548012
1082 8.6219282
1080 8.8355293
1078 9.0046387
1076 9.1423864
1074 9.2629528
1072 9.3711081
1070 9.4464788
1068 9.4692793
1066 9.4378805
1064 9.3590832
1062 9.2504444
1060 9.1239405
1058 8.9697647
1056 8.7770262
1054 8.5473375
1052 8.2870226
1050 8.0071564
1048 7.7138519
1046 7.3973894
1044 7.0515523
1042 6.6906242
1040 6.3356981
1038 6.0113564
1036 5.7325697
1034 5.4836035
1032 5.2428279
1030 4.993382
1028 4.7227273
1026 4.4271488
1024 4.1042166
1022 3.748543
1020 3.3606803
1018 2.9626238
1016 2.5815256
1014 2.2445998
1012 1.9691594
1010 1.7419269
1008 1.53962
1006 1.3316987
1004 1.0963821
1002 0.84379488
1000 0.5940634
998 0.37410033
996 0.20132816
994 0.058037549
992 -0.082863733
990 -0.25006253
988 -0.45908943
986 -0.68194526
984 -0.88041687
982 -1.0185382
980 -1.07143
978 -1.0484717
976 -0.96699429
974 -0.84130275
972 -0.68222785
970 -0.49090278
968 -0.26938069
966 -0.031075209
964 0.20310703
962 0.39663398
960 0.51370215
958 0.53483838
956 0.45710456
954 0.32065436
952 0.17419183
950 0.05843699
948 0.0012503499
946 -0.0079921791
944 0.0092396084
942 0.027175756
940 0.029443217
938 0.037096351
936 0.072745144
934 0.13082419
932 0.19686443
930 0.24949761
928 0.2718623
926 0.27001214
924 0.25931358
922 0.26819432
920 0.31475595
918 0.36582974
916 0.38297501
914 0.35632512
912 0.29646155
910 0.26512128
908 0.31879348
906 0.44409448
904 0.60249627
902 0.7255066
900 0.75476885
898 0.70186841
896 0.59591001
