##TITLE=Methyl Ethyl Ketone
##JCAMP-DX=4.24
##DATA TYPE=INFRARED SPECTRUM
##XUNITS=cm-1
##YUNITS=Absorbance
##FIRSTX=900
##LASTX=2300
##XYDATA=(X++(Y..Y))
2296 0.10283
2294 0.10496695
2292 0.10710388
2290 0.10924083
2288 0.11137778
2286 0.11352465
2284 0.11566166
2282 0.1177986
2280 0.11993554
2278 0.12207249
2276 0.12421929
2274 0.12635636
2272 0.12849331
2270 0.13063025
2268 0.13277699
2266 0.13491414
2264 0.13705108
2262 0.13918802
2260 0.14132497
2258 0.14347164
2256 0.14560886
2254 0.1477458
2252 0.14988273
2250 0.15202935
2248 0.15416662
2246 0.15630357
2244 0.084146455
2242 0.0031381713
2240 -0.050086081
2238 -0.064117759
2236 -0.072495975
2234 -0.046260029
2232 -0.017440554
2230 0.013553925
2228 0.043627653
2226 0.065749548
2224 0.086966634
2222 0.10603667
2220 0.12659737
2218 0.15214866
2216 0.18167771
2214 0.21927667
2212 0.2622872
2210 0.31331092
2208 0.36470538
2206 0.41592342
2204 0.43669114
2202 0.42807838
2200 0.38396543
2198 0.31474
2196 0.27506
2194 0.25339285
2192 0.28656802
2190 0.34329131
2188 0.40115267
2186 0.45886934
2184 0.49989718
2182 0.5370847
2180 0.58431548
2178 0.63280457
2176 0.65921772
2174 0.67961282
2172 0.6546734
2170 0.6279195
2168 0.61549932
2166 0.61360103
2164 0.64508325
2162 0.67113996
2160 0.6747418
2158 0.657184
2156 0.60377002
2154 0.55508929
2152 0.51864266
2150 0.50523883
2148 0.51636064
2146 0.52985466
2144 0.54317379
2142 0.56028396
2140 0.58008027
2138 0.60717773
2136 0.6380983
2134 0.6419276
2132 0.6341114
2130 0.61310565
2128 0.58820879
2126 0.60503572
2124 0.6316821
2122 0.67688912
2120 0.7233007
2118 0.73813659
2116 0.74728417
2114 0.74736124
2112 0.75025737
2110 0.77121055
2108 0.8011179
2106 0.85008317
2104 0.9017297
2102 0.95319217
2100 0.98354143
2098 0.97851962
2096 0.94689
2094 0.88735956
2092 0.8340376
2090 0.79136378
2088 0.77704966
2086 0.78472197
2084 0.79743779
2082 0.8113901
2080 0.79056346
2078 0.75145876
2076 0.69587302
2074 0.63440681
2072 0.62673402
2070 0.63669294
2068 0.71114373
2066 0.80086869
2064 0.87186074
2062 0.9332146
2060 0.93081027
2058 0.91151398
2056 0.86830026
2054 0.82140934
2052 0.77912891
2050 0.73793292
2048 0.69812131
2046 0.66120178
2044 0.62985402
2042 0.60797948
2040 0.59796625
2038 0.58486712
2036 0.56435645
2034 0.52805835
2032 0.47795886
2030 0.44069439
2028 0.41601437
2026 0.42096409
2024 0.44396743
2022 0.47424263
2020 0.50714123
2018 0.52435297
2016 0.53440601
2014 0.52610219
2012 0.51120818
2010 0.50087672
2008 0.49203235
2006 0.49119523
2004 0.49057943
2002 0.47918731
2000 0.46227807
1998 0.43620089
1996 0.4072957
1994 0.37866864
1992 0.35201478
1990 0.3269662
1988 0.30970961
1986 0.30176866
1984 0.30817702
1982 0.33157477
1980 0.36380118
1978 0.40309715
1976 0.43575341
1974 0.46168128
1972 0.47446927
1970 0.47888073
1968 0.4588421
1966 0.42412972
1964 0.36234617
1962 0.28657517
1960 0.23303241
1958 0.18968244
1956 0.18606286
1954 0.19603676
1952 0.20550944
1950 0.21268617
1948 0.21326302
1946 0.21331
1944 0.21948846
1942 0.23093399
1940 0.24347872
1938 0.25393423
1936 0.25550887
1934 0.25490826
1932 0.2590946
1930 0.26808172
1928 0.28645325
1926 0.2953707
1924 0.29091334
1922 0.26895827
1920 0.22980972
1918 0.1931705
1916 0.158756
1914 0.14148051
1912 0.13717017
1910 0.13909359
1908 0.144574
1906 0.13396193
1904 0.1135732
1902 0.087610662
1900 0.058469504
1898 0.055917572
1896 0.064670429
1894 0.092082784
1892 0.1248486
1890 0.13927719
1888 0.14016709
1886 0.10701475
1884 0.060204338
1882 0.0090669766
1880 -0.033933189
1878 -0.051379777
1876 -0.048956402
1874 -0.019792892
1872 0.023977123
1870 0.080200255
1868 0.12237269
1866 0.13446979
1864 0.10402311
1862 0.030907277
1860 -0.051411584
1858 -0.12928763
1856 -0.19114886
1854 -0.23823537
1852 -0.27895015
1850 -0.31430423
1848 -0.33567321
1846 -0.34581286
1844 -0.34029388
1842 -0.3247661
1840 -0.31804439
1838 -0.31723738
1836 -0.31030515
1834 -0.29856482
1832 -0.25645182
1830 -0.1972812
1828 -0.13175495
1826 -0.07487151
1824 -0.063833095
1822 -0.092114627
1820 -0.16273659
1818 -0.25513989
1816 -0.34869486
1814 -0.43652523
1812 -0.51184082
1810 -0.5605464
1808 -0.58383906
1806 -0.57120198
1804 -0.52968246
1802 -0.51037681
1800 -0.51521575
1798 -0.54677123
1796 -0.59443927
1794 -0.56244308
1792 -0.47606561
1790 -0.34848458
1788 -0.20449306
1786 -0.127101
1784 -0.093724906
1782 -0.093975037
1780 -0.11319483
1778 -0.1207604
1776 -0.11424657
1774 -0.072719447
1772 -0.0097157639
1770 0.046017654
1768 0.083756134
1766 0.07612434
1764 0.045669883
1762 0.021761315
1760 0.018560572
1758 -0.051174033
1756 -0.14238775
1754 -0.1930532
1752 -0.19397388
1750 -0.1467883
1748 -0.10686245
1746 -0.093824141
1744 -0.15451171
1742 -0.28674549
1740 -0.4168593
1738 -0.52991247
1736 -0.52150398
1734 -0.41629139
1732 -0.26504067
1730 -0.095483407
1728 -0.047491424
1726 -0.086570427
1724 -0.12068892
1722 -0.12691011
1720 -0.0029112026
1718 0.22867286
1716 0.63494444
1714 1.1427829
1712 1.5966001
1710 2.0114069
1708 2.420366
1706 2.9690599
1704 3.8038287
1702 5.1518965
1700 7.1204839
1698 9.9203634
1696 13.517428
1694 17.234989
1692 20.752119
1690 23.915369
1688 26.765383
1686 30.114336
1684 34.045444
1682 38.807976
1680 44.228802
1678 49.132736
1676 53.52816
1674 57.880913
1672 62.284454
1670 67.367554
1668 72.934082
1666 78.298752
1664 83.403831
1662 88.028183
1660 92.219612
1658 96.059212
1656 99.475655
1654 102.3623
1652 104.4302
1650 105.37927
1648 104.99137
1646 103.16536
1644 100.6007
1642 97.930023
1640 95.046173
1638 91.933769
1636 88.106171
1634 83.443314
1632 78.558044
1630 73.686531
1628 69.077454
1626 64.759369
1624 60.349079
1622 55.801796
1620 51.3647
1618 47.060101
1616 43.069859
1614 39.410561
1612 36.198544
1610 33.434002
1608 31.050119
1606 29.027958
1604 27.239742
1602 25.714342
1600 24.467966
1598 23.509775
1596 22.809
1594 22.343052
1592 22.047583
1590 21.900881
1588 21.858473
1586 21.905849
1584 22.026697
1582 22.21768
1580 22.475243
1578 22.843624
1576 23.333485
1574 23.963825
1572 24.727009
1570 25.613503
1568 26.615759
1566 27.729687
1564 28.963089
1562 30.440268
1560 32.249348
1558 34.887653
1556 38.405357
1554 42.153851
1552 45.923737
1550 48.875874
1548 51.04948
1546 52.976501
1544 54.698544
1542 56.371742
1540 57.822739
1538 58.760269
1536 58.969315
1534 58.294182
1532 57.004829
1530 55.486732
1528 53.857143
1526 52.214451
1524 50.484039
1522 48.609615
1520 46.529083
1518 44.179165
1516 41.853172
1514 39.65274
1512 37.566998
1510 35.632504
1508 33.278416
1506 30.361971
1504 27.339224
1502 24.231651
1500 21.528402
1498 19.269619
1496 17.012857
1494 14.754677
1492 12.464342
1490 10.163907
1488 7.9100347
1486 5.7716637
1484 3.8550298
1482 2.2527597
1480 1.0655172
1478 0.32421479
1476 0.063186385
1474 0.39266983
1472 1.2535256
1470 2.3286262
1468 3.4216933
1466 4.3489084
1464 4.991137
1462 5.5124774
1460 5.9659662
1458 6.4235916
1456 6.9017401
1454 7.2866578
1452 7.505085
1450 7.5792365
1448 7.4416571
1446 7.2431178
1444 6.9609938
1442 6.6468229
1440 6.2921739
1438 5.9035873
1436 5.4700375
1434 4.9681864
1432 4.4045663
1430 3.8341262
1428 3.287976
1426 2.8502057
1424 2.5379932
1422 2.3600349
1420 2.3026509
1418 2.3248305
1416 2.4082315
1414 2.5325701
1412 2.6940479
1410 2.9189563
1408 3.1919913
1406 3.5274408
1404 3.8982906
1402 4.2999196
1400 4.7118998
1398 5.1295342
1396 5.5342145
1394 5.9057813
1392 6.217453
1390 6.4055095
1388 6.4809041
1386 6.3705349
1384 6.1367636
1382 5.7368989
1380 5.2852945
1378 4.7845244
1376 4.3003688
1374 3.8524418
1372 3.44647
1370 3.0840504
1368 2.7520258
1366 2.415772
1364 2.0266356
1362 1.5940546
1360 1.1205102
1358 0.67512882
1356 0.34421414
1354 0.1127864
1352 0.02901721
1350 0.026228555
1348 0.11832242
1346 0.25455928
1344 0.4359324
1342 0.62648332
1340 0.82897389
1338 1.0264235
1336 1.2082771
1334 1.3894142
1332 1.5525595
1330 1.7239161
1328 1.9081794
1326 2.1071978
1324 2.3390217
1322 2.5957818
1320 2.8948543
1318 3.2238333
1316 3.58266
1314 3.9378238
1312 4.2680578
1310 4.5402818
1308 4.7431421
1306 4.8685365
1304 4.9359555
1302 4.9587688
1300 4.9628978
1298 4.9624
1296 4.9599428
1294 4.9512129
1292 4.9361858
1290 4.9055381
1288 4.8754559
1286 4.8513045
1284 4.8385196
1282 4.8519187
1280 4.8752055
1278 4.9199696
1276 4.9708428
1274 5.0356421
1272 5.101573
1270 5.1715069
1268 5.2409825
1266 5.3106441
1264 5.390368
1262 5.4835591
1260 5.5952139
1258 5.7273946
1256 5.872963
1254 6.0268269
1252 6.1743155
1250 6.3093662
1248 6.4153328
1246 6.5001497
1244 6.5583797
1242 6.6021943
1240 6.6288319
1238 6.6373096
1236 6.6023598
1234 6.5293746
1232 6.3603396
1230 6.1446171
1228 5.8091259
1226 5.4457235
1224 5.0117407
1222 4.5693636
1220 4.1067171
1218 3.64223
1216 3.1758428
1214 2.7218838
1212 2.2939537
1210 1.8992963
1208 1.5571136
1206 1.2605193
1204 1.0207183
1202 0.81923497
1200 0.65388221
1198 0.49869448
1196 0.351515
1194 0.20637004
1192 0.071604505
1190 -0.024312261
1188 -0.085595384
1186 -0.074394509
1184 -0.024243779
1182 0.088435836
1180 0.22951294
1178 0.42966369
1176 0.65560997
1174 0.95396292
1172 1.2559837
1170 1.5530049
1168 1.8154194
1166 1.9684743
1164 2.0797057
1162 2.086643
1160 2.0624976
1158 1.9744757
1156 1.8573029
1154 1.6916918
1152 1.5061537
1150 1.2951832
1148 1.0814813
1146 0.86448354
1144 0.64441347
1142 0.42497402
1140 0.22419572
1138 0.054359235
1136 -0.016614657
1134 -0.014690951
1132 0.12794456
1130 0.32939649
1128 0.55758226
1126 0.78180647
1124 0.9476648
1122 1.0891578
1120 1.15628
1118 1.2017878
1116 1.1680528
1114 1.1319624
1112 1.0931411
1110 1.0771835
1108 1.134482
1106 1.2100251
1104 1.3276902
1102 1.4311123
1100 1.5026571
1098 1.5384307
1096 1.5174429
1094 1.4776608
1092 1.416958
1090 1.3686422
1088 1.3341829
1086 1.3139514
1084 1.3062551
1082 1.3091621
1080 1.3202257
1078 1.3424749
1076 1.3665929
1074 1.3669465
1072 1.3485451
1070 1.2519066
1068 1.1317896
1066 0.96753925
1064 0.80912161
1062 0.73623586
1060 0.68066859
1058 0.7086395
1056 0.72812253
1054 0.70953965
1052 0.6751911
1050 0.59155071
1048 0.50947416
1046 0.43218249
1044 0.36774343
1042 0.32794705
1040 0.30396131
1038 0.30280137
1036 0.306494
1034 0.31251952
1032 0.28528959
1030 0.22561368
1028 0.12993997
1026 0.011462495
1024 -0.090316691
1022 -0.1810531
1020 -0.24559018
1018 -0.29974473
1016 -0.34824198
1014 -0.39371875
1012 -0.42270756
1010 -0.44784245
1008 -0.46176597
1006 -0.47539127
1004 -0.49708077
1002 -0.51712269
1000 -0.52567905
998 -0.53327501
996 -0.5372864
994 -0.55006605
992 -0.59034491
990 -0.63236332
988 -0.67817104
986 -0.71836245
984 -0.74825442
982 -0.77608031
980 -0.79867464
978 -0.7858389
976 -0.7338866
974 -0.63297451
972 -0.49446276
970 -0.37768969
968 -0.27701783
966 -0.237455
964 -0.22583178
962 -0.22335441
960 -0.22318372
958 -0.20408186
956 -0.181603
954 -0.16984873
952 -0.15977719
950 -0.15735561
948 -0.14869963
946 -0.048140034
944 0.0034758821
942 0.10813805
940 0.31399691
938 0.53277618
936 0.69414002
934 0.68640608
932 0.62395406
930 0.44575611
928 0.29532188
926 0.19072565
924 0.15543041
922 0.20492694
920 0.28373611
918 0.38885471
916 0.45162886
914 0.48368236
912 0.46023378
910 0.40864938
908 0.40776843
906 0.42783248
904 0.50936371
902 0.60747278
900 0.61507088
898 0.60830301
896 0.54053003
