##TITLE=Methyl Ethyl Ketone
##JCAMP-DX=4.24
##DATA TYPE=INFRARED SPECTRUM
##XUNITS=cm-1
##YUNITS=Absorbance
##FIRSTX=900
##LASTX=2300
##XYDATA=(X++(Y..Y))
2296 -0.0060145999
2294 -0.0061397213
2292 -0.0062648421
2290 -0.0063898638
2288 -0.0065149837
2286 -0.0066402042
2284 -0.0067654252
2282 -0.0068904478
2280 -0.0070155682
2278 -0.0071407878
2276 -0.00726591
2274 -0.0073908339
2272 -0.0075160507
2270 -0.0076418603
2268 -0.0077665038
2266 -0.0078892661
2264 -0.0080164857
2262 -0.0081502432
2260 -0.0082671996
2258 -0.0083605777
2256 -0.0085161002
2254 -0.008759317
2252 -0.008771156
2250 -0.0084568821
2248 -0.0090021612
2246 -0.0096461792
2244 -0.00035914543
2242 0.023502121
2240 0.034428999
2238 0.0046351422
2236 -0.058145393
2234 -0.13537873
2232 -0.20605943
2230 -0.25227293
2228 -0.27089778
2226 -0.2636365
2224 -0.23419321
2222 -0.18914615
2220 -0.14446549
2218 -0.11597772
2216 -0.10754772
2214 -0.11680789
2212 -0.1305418
2210 -0.13638259
2208 -0.13842498
2206 -0.14386421
2204 -0.15190049
2202 -0.1574681
2200 -0.14844121
2198 -0.1151349
2196 -0.066495642
2194 -0.0169289
2192 0.020903252
2190 0.03706963
2188 0.030125378
2186 0.0024464906
2184 -0.038944989
2182 -0.084884882
2180 -0.1233185
2178 -0.14403172
2176 -0.14807287
2174 -0.14064112
2172 -0.12892728
2170 -0.1195517
2168 -0.11463235
2166 -0.113966
2164 -0.11406679
2162 -0.11150279
2160 -0.10728451
2158 -0.10556194
2156 -0.117138
2154 -0.15055496
2152 -0.19591509
2150 -0.23639421
2148 -0.25292692
2146 -0.23110428
2144 -0.17813149
2142 -0.1091237
2140 -0.040582377
2138 0.013123296
2136 0.047423631
2134 0.06247199
2132 0.063508093
2130 0.057438418
2128 0.050990079
2126 0.050431859
2124 0.060649894
2122 0.084173903
2120 0.11587291
2118 0.14654976
2116 0.16180086
2114 0.1489075
2112 0.10967674
2110 0.053631768
2108 -0.00064744847
2106 -0.035290096
2104 -0.048714675
2102 -0.046838023
2100 -0.040515199
2098 -0.040152535
2096 -0.047422286
2094 -0.060419153
2092 -0.07663969
2090 -0.092699915
2088 -0.10193835
2086 -0.097433105
2084 -0.076441295
2082 -0.040148176
2080 0.0010687006
2078 0.034571998
2076 0.053278815
2074 0.054235604
2072 0.041746441
2070 0.023288371
2068 0.0077367835
2066 0.0031925677
2064 0.012643799
2062 0.034748316
2060 0.058923211
2058 0.072015479
2056 0.065752603
2054 0.037084501
2052 -0.0044275061
2050 -0.04441651
2048 -0.070198409
2046 -0.072885111
2044 -0.055464402
2042 -0.027188968
2040 -0.0024823593
2038 0.0054535582
2036 -0.0031196272
2034 -0.020206302
2032 -0.030329114
2030 -0.01910425
2028 0.010731911
2026 0.047436185
2024 0.073833384
2022 0.074685141
2020 0.051357243
2018 0.014923986
2016 -0.014440721
2014 -0.016365062
2012 0.014757615
2010 0.074904099
2008 0.14864039
2006 0.21757758
2004 0.27130303
2002 0.3045578
2000 0.31707627
1998 0.3119776
1996 0.29799858
1994 0.2858668
1992 0.28411326
1990 0.29772493
1988 0.3217054
1986 0.34641492
1984 0.36247465
1982 0.36276069
1980 0.34800735
1978 0.32310379
1976 0.29463944
1974 0.26954001
1972 0.25356743
1970 0.25136361
1968 0.26530269
1966 0.29521349
1964 0.33471701
1962 0.37397444
1960 0.4012576
1958 0.40570837
1956 0.38324687
1954 0.33636653
1952 0.28086025
1950 0.23778173
1948 0.22275966
1946 0.24333251
1944 0.28639206
1942 0.32988688
1940 0.35844967
1938 0.36455745
1936 0.35612857
1934 0.34741944
1932 0.3464064
1930 0.35503939
1928 0.36620387
1926 0.36870593
1924 0.35326952
1922 0.31509119
1920 0.26270542
1918 0.2118656
1916 0.17885943
1914 0.17595556
1912 0.19934788
1910 0.23706016
1908 0.28000176
1906 0.32207045
1904 0.3599216
1902 0.39083049
1900 0.40901303
1898 0.40878162
1896 0.39303142
1894 0.37022015
1892 0.35124129
1890 0.34649912
1888 0.36004412
1886 0.39026222
1884 0.42704308
1882 0.45669201
1880 0.46989498
1878 0.46170768
1876 0.43333101
1874 0.38992581
1872 0.33955681
1870 0.29140711
1868 0.25353181
1866 0.23171943
1864 0.22533554
1862 0.2300185
1860 0.24174768
1858 0.25753087
1856 0.27636713
1854 0.29747322
1852 0.3159076
1850 0.32371271
1848 0.31148121
1846 0.27297822
1844 0.21902806
1842 0.17046341
1840 0.14525513
1838 0.15443222
1836 0.19100314
1834 0.2379348
1832 0.28262845
1830 0.31765485
1828 0.34069189
1826 0.35257021
1824 0.35559201
1822 0.35292539
1820 0.3487874
1818 0.34752831
1816 0.351372
1814 0.36036271
1812 0.37129295
1810 0.37989238
1808 0.38597378
1806 0.39151651
1804 0.39508846
1802 0.39271134
1800 0.3807829
1798 0.35697025
1796 0.32222071
1794 0.28047317
1792 0.23941761
1790 0.20928428
1788 0.20140588
1786 0.22335821
1784 0.26332998
1782 0.29760057
1780 0.30946916
1778 0.2914423
1776 0.24807373
1774 0.19254182
1772 0.142858
1770 0.11474049
1768 0.10236283
1766 0.088037029
1764 0.071182422
1762 0.058046218
1760 0.020594269
1758 -0.082813568
1756 -0.23409414
1754 -0.37696946
1752 -0.49506885
1750 -0.60590327
1748 -0.71966565
1746 -0.83588964
1744 -0.95223397
1742 -1.0646725
1740 -1.1614118
1738 -1.2249078
1736 -1.23834
1734 -1.1898072
1732 -1.0848182
1730 -0.94187492
1728 -0.77966064
1726 -0.61224669
1724 -0.43962747
1722 -0.2457568
1720 0.011086568
1718 0.38464361
1716 0.89953601
1714 1.5466247
1712 2.277324
1710 3.031311
1708 3.821012
1706 4.7299166
1704 5.8868299
1702 7.4629283
1700 9.7049761
1698 12.82504
1696 16.605143
1694 20.495951
1692 24.054264
1690 27.066046
1688 29.737778
1686 32.583351
1684 36.049049
1682 40.34866
1680 45.093441
1678 49.522514
1676 53.402058
1674 57.038353
1672 60.853382
1670 65.186966
1668 69.919502
1666 74.574646
1664 78.830612
1662 82.583397
1660 85.829422
1658 88.615791
1656 90.984772
1654 92.964447
1652 94.57592
1650 95.82473
1648 96.653809
1646 96.973358
1644 96.796158
1642 96.209496
1640 95.17749
1638 93.540611
1636 91.161781
1634 87.992699
1632 84.20163
1630 80.110825
1628 75.883324
1626 71.498001
1624 66.907921
1622 62.103294
1620 57.204483
1618 52.441479
1616 48.012489
1614 44.04871
1612 40.610634
1610 37.69175
1608 35.22044
1606 33.084206
1604 31.214012
1602 29.594076
1600 28.226452
1598 27.116095
1596 26.244499
1594 25.568844
1592 25.053263
1590 24.679312
1588 24.449373
1586 24.381857
1584 24.479475
1582 24.72876
1580 25.131445
1578 25.706873
1576 26.474543
1574 27.44603
1572 28.608986
1570 29.923334
1568 31.33984
1566 32.802456
1564 34.238476
1562 35.607506
1560 37.104378
1558 39.107143
1556 41.699627
1554 44.5774
1552 47.259411
1550 49.241577
1548 50.434116
1546 51.181248
1544 51.728378
1542 52.103355
1540 52.257519
1538 52.115421
1536 51.653828
1534 50.919807
1532 49.988358
1530 48.940479
1528 47.795868
1526 46.504601
1524 45.023975
1522 43.344166
1520 41.504913
1518 39.594196
1516 37.695087
1514 35.848042
1512 33.959042
1510 31.806393
1508 29.251184
1506 26.320314
1504 23.238297
1502 20.382078
1500 17.939072
1498 15.82174
1496 13.882
1494 11.982313
1492 10.063543
1490 8.1629038
1488 6.3340054
1486 4.6302724
1484 3.126334
1482 1.9103153
1480 1.0068653
1478 0.37504044
1476 0.053623311
1474 0.1706834
1472 0.71667576
1470 1.492358
1468 2.3165503
1466 3.092597
1464 3.7885702
1462 4.4323297
1460 5.0597181
1458 5.6928558
1456 6.3122802
1454 6.8497405
1452 7.2386189
1450 7.4344292
1448 7.4319892
1446 7.271368
1444 6.9986725
1442 6.651576
1440 6.2460408
1438 5.770524
1436 5.2034416
1434 4.5263543
1432 3.7698514
1430 3.027173
1428 2.383486
1426 1.8897443
1424 1.5662268
1422 1.4015359
1420 1.3815145
1418 1.4962071
1416 1.7271057
1414 2.0428791
1412 2.4133701
1410 2.8161619
1408 3.2420478
1406 3.6958442
1404 4.1743379
1402 4.6572399
1400 5.1150999
1398 5.5126581
1396 5.8250785
1394 6.0448585
1392 6.1702576
1390 6.2020788
1388 6.1401582
1386 5.9837451
1384 5.7422509
1382 5.4396486
1380 5.0985465
1378 4.7331977
1376 4.347703
1374 3.935971
1372 3.5012519
1370 3.0629339
1368 2.6337841
1366 2.2101228
1364 1.7802117
1362 1.3302886
1360 0.87526387
1358 0.47301686
1356 0.17665634
1354 0.012672156
1352 -0.022810411
1350 0.030357361
1348 0.13981935
1346 0.29771465
1344 0.50014317
1342 0.73913443
1340 0.99615824
1338 1.2376575
1336 1.4297457
1334 1.5466703
1332 1.5827726
1330 1.562133
1328 1.5131966
1326 1.4605936
1324 1.4254671
1322 1.4240417
1320 1.4651212
1318 1.5456691
1316 1.6525
1314 1.759815
1312 1.8435422
1310 1.8884373
1308 1.8889483
1306 1.853205
1304 1.7951572
1302 1.732976
1300 1.6851891
1298 1.6687487
1296 1.6981143
1294 1.7827885
1292 1.92687
1290 2.1259513
1288 2.36866
1286 2.6349828
1284 2.9035017
1282 3.1550727
1280 3.3784444
1278 3.5761056
1276 3.7571428
1274 3.9364011
1272 4.127162
1270 4.3373156
1268 4.5740781
1266 4.8457727
1264 5.1609521
1262 5.5269537
1260 5.9473
1258 6.4192615
1256 6.9391627
1254 7.5045748
1252 8.1146889
1250 8.7697678
1248 9.4650764
1246 10.18475
1244 10.904994
1242 11.594149
1240 12.222057
1238 12.76657
1236 13.204058
1234 13.508631
1232 13.65176
1230 13.598515
1228 13.329266
1226 12.857979
1224 12.218566
1222 11.468481
1220 10.665385
1218 9.8588409
1216 9.089529
1214 8.3806486
1212 7.7489653
1210 7.2025552
1208 6.739028
1206 6.3377271
1204 5.9680338
1202 5.5895858
1200 5.1673384
1198 4.6843691
1196 4.1375356
1194 3.5442438
1192 2.9311783
1190 2.3339069
1188 1.7860326
1186 1.3120557
1184 0.92788994
1182 0.63573384
1180 0.43304834
1178 0.3137047
1176 0.267326
1174 0.2757448
1172 0.31604683
1170 0.35983491
1168 0.3845157
1166 0.38407898
1164 0.3629199
1162 0.3392483
1160 0.32898286
1158 0.33485195
1156 0.35199144
1154 0.36562318
1152 0.36105594
1150 0.32972839
1148 0.26901022
1146 0.18710035
1144 0.098617941
1142 0.026780881
1140 -0.0063405684
1138 0.013528246
1136 0.096199796
1134 0.2445078
1132 0.45262164
1130 0.69815505
1128 0.95554423
1126 1.2021614
1124 1.4254651
1122 1.6353548
1120 1.8455321
1118 2.0648873
1116 2.2940772
1114 2.5171952
1112 2.7225554
1110 2.9190173
1108 3.1233923
1106 3.35935
1104 3.6414959
1102 3.9582753
1100 4.2923183
1098 4.6267805
1096 4.9521856
1094 5.2761693
1092 5.6091118
1090 5.9567461
1088 6.3200626
1086 6.6907649
1084 7.056385
1082 7.399106
1080 7.7007432
1078 7.9452152
1076 8.1218739
1074 8.2329397
1072 8.2867374
1070 8.2997074
1068 8.2886343
1066 8.2666855
1064 8.2423115
1062 8.2138128
1060 8.1737614
1058 8.1052141
1056 7.9912057
1054 7.8220906
1052 7.5959382
1050 7.3284869
1048 7.0408702
1046 6.758307
1044 6.5036435
1042 6.291038
1040 6.1271992
1038 6.0037689
1036 5.9053497
1034 5.807857
1032 5.6870193
1030 5.5247183
1028 5.3075109
1026 5.0311222
1024 4.6985254
1022 4.3268628
1020 3.9390314
1018 3.5637536
1016 3.2256086
1014 2.9324095
1012 2.6823163
1010 2.4561925
1008 2.2316399
1006 1.9904552
1004 1.7252101
1002 1.4578592
1000 1.2150269
998 1.0132637
996 0.85861433
994 0.7317093
992 0.61210871
990 0.49608365
988 0.38573453
986 0.28854191
984 0.20964897
982 0.14245793
980 0.081201904
978 0.032366857
976 0.005968886
974 0.013624899
972 0.063684896
970 0.15224569
968 0.27173901
966 0.4123365
964 0.56024748
962 0.69037116
960 0.77699333
958 0.80231476
956 0.75739527
954 0.65724325
952 0.52211475
950 0.37001228
948 0.22045222
946 0.099969998
944 0.029010057
942 6.039138e-05
940 0.0030759685
938 0.043664664
936 0.12546343
934 0.23087016
932 0.3391521
930 0.43729413
928 0.51116997
926 0.53548056
924 0.49211621
922 0.4002645
920 0.29361498
918 0.22530413
916 0.23932728
914 0.3264221
912 0.46024138
910 0.5998612
908 0.70955336
906 0.7877962
904 0.83735025
902 0.84414667
900 0.79666251
898 0.71015185
896 0.60658002
