Image.
>Pix99999.
  .
5555
5555
2300
900
5555
2
1
0
701
5555
1.8767001e-001
1.9157441e-001
1.9547883e-001
1.9938323e-001
2.0328766e-001
2.0718215e-001
2.1108648e-001
2.1499090e-001
2.1889532e-001
2.2279972e-001
2.2670414e-001
2.3061840e-001
2.3451313e-001
2.3840757e-001
2.4232161e-001
2.4628493e-001
2.5013199e-001
2.5381061e-001
2.5793356e-001
2.6267081e-001
2.6577255e-001
2.6657781e-001
2.7345750e-001
2.8890285e-001
2.8177154e-001
2.2213858e-001
1.2269143e-001
1.0886101e-002
-7.4352995e-002
-1.0333320e-001
-9.6132956e-002
-8.1899323e-002
-6.9101311e-002
-6.1400205e-002
-6.7615710e-002
-9.3541153e-002
-1.2642041e-001
-1.5240528e-001
-1.7522772e-001
-2.0241842e-001
-2.3563001e-001
-2.6697907e-001
-2.5757700e-001
-1.6937576e-001
-5.5203573e-003
2.1056324e-001
4.2430884e-001
5.7994837e-001
6.5459490e-001
6.4076793e-001
5.5140644e-001
4.0860960e-001
2.4642687e-001
1.0001104e-001
-5.7376651e-003
-5.6913543e-002
-7.0887603e-002
-7.2627082e-002
-7.7497743e-002
-9.3620844e-002
-1.1304443e-001
-1.2381293e-001
-1.1861899e-001
-9.5512956e-002
-6.7601591e-002
-5.2697092e-002
-6.7577638e-002
-1.2020727e-001
-1.8437600e-001
-2.2563036e-001
-2.2298799e-001
-1.7000909e-001
-9.9820741e-002
-5.2357830e-002
-4.0083207e-002
-6.1649181e-002
-9.9525228e-002
-1.3501340e-001
-1.6668227e-001
-1.9489467e-001
-2.0177771e-001
-1.6649948e-001
-8.3577670e-002
3.6837138e-002
1.4359988e-001
1.8035342e-001
1.2952766e-001
-5.4528192e-004
-1.5489548e-001
-2.7245474e-001
-3.3574528e-001
-3.4942669e-001
-3.4059250e-001
-3.3808675e-001
-3.4586859e-001
-3.5653800e-001
-3.5561264e-001
-3.3055869e-001
-2.8662580e-001
-2.3605812e-001
-1.9156571e-001
-1.6120319e-001
-1.3385925e-001
-9.4133109e-002
-3.9643727e-002
2.3267902e-002
7.4491702e-002
9.5627159e-002
9.7156338e-002
1.0137936e-001
1.3094828e-001
2.0086439e-001
2.9573640e-001
3.8668472e-001
4.3992808e-001
4.2593366e-001
3.3908069e-001
1.8974599e-001
1.3800301e-002
-1.4561698e-001
-2.5742114e-001
-3.0305398e-001
-2.9330227e-001
-2.5060090e-001
-1.9536297e-001
-1.4236857e-001
-8.8918254e-002
-2.7280726e-002
4.0144548e-002
1.0299699e-001
1.3739799e-001
1.1949982e-001
4.9369313e-002
-5.8306210e-002
-1.7263588e-001
-2.6040673e-001
-3.0644292e-001
-3.0706638e-001
-2.7180028e-001
-2.1674459e-001
-1.6269399e-001
-1.2950438e-001
-1.2543617e-001
-1.4844033e-001
-1.7567776e-001
-1.7796344e-001
-1.3836166e-001
-5.2233372e-002
5.9308518e-002
1.6416027e-001
2.3293070e-001
2.4586196e-001
2.1559344e-001
1.6901723e-001
1.2876241e-001
1.0940322e-001
1.0388418e-001
9.9475019e-002
1.0286718e-001
1.2997569e-001
1.9305657e-001
2.9617891e-001
4.1899455e-001
5.3025663e-001
6.0280508e-001
6.1750227e-001
5.7747477e-001
4.9962091e-001
4.1304800e-001
3.5019305e-001
3.3469486e-001
3.7936041e-001
4.7107029e-001
5.8116007e-001
6.6944480e-001
6.9992751e-001
6.7599487e-001
6.2364000e-001
5.7676548e-001
5.6565583e-001
5.9404171e-001
6.5088660e-001
7.2263199e-001
7.9459244e-001
8.4811324e-001
8.6719143e-001
8.5627943e-001
8.3193207e-001
8.1476021e-001
8.2168418e-001
8.4815198e-001
8.7817526e-001
8.9758211e-001
8.9677274e-001
8.7728179e-001
8.4871233e-001
8.2973921e-001
8.4003299e-001
8.8390088e-001
9.5567173e-001
1.0455543e+000
1.1420035e+000
1.2327480e+000
1.3034270e+000
1.3323869e+000
1.2989386e+000
1.2048951e+000
1.0691630e+000
9.2511028e-001
8.0914462e-001
7.3852402e-001
7.1625400e-001
7.3514408e-001
7.8368181e-001
8.5285425e-001
9.3373907e-001
1.0091983e+000
1.0596210e+000
1.0772576e+000
1.0638331e+000
1.0301628e+000
9.8991007e-001
9.4917136e-001
9.0863127e-001
8.6761242e-001
8.2653463e-001
7.9201001e-001
7.7256244e-001
7.6803583e-001
7.7008587e-001
7.5992072e-001
7.1902037e-001
6.5677571e-001
6.0131961e-001
5.8262634e-001
6.2011188e-001
6.8962914e-001
7.4352145e-001
7.5406063e-001
7.1433288e-001
6.3888711e-001
5.5191535e-001
4.6632865e-001
3.8727477e-001
3.2467085e-001
2.9011098e-001
2.8379381e-001
2.9711571e-001
3.1825173e-001
3.3507401e-001
3.3948857e-001
3.2987079e-001
3.2093799e-001
3.3528045e-001
3.8237530e-001
4.5531023e-001
5.1939565e-001
5.3202516e-001
4.9604702e-001
4.4402030e-001
3.8974345e-001
3.2851690e-001
2.5073388e-001
1.5267929e-001
6.3143820e-002
2.5136523e-002
4.0310662e-002
6.8855114e-002
3.0212406e-002
-1.5385468e-001
-4.3579358e-001
-6.8636572e-001
-8.3542186e-001
-8.7738383e-001
-8.4636647e-001
-7.9631251e-001
-7.7351022e-001
-8.0601704e-001
-8.7753481e-001
-9.4135135e-001
-9.5738798e-001
-9.0351063e-001
-7.9695565e-001
-6.7951626e-001
-5.7519060e-001
-4.8559728e-001
-3.9021596e-001
-2.5391600e-001
-4.0461347e-002
2.8281200e-001
7.3777699e-001
1.3223565e+000
1.9604783e+000
2.5432994e+000
3.0734921e+000
3.6652107e+000
4.5021157e+000
5.8041210e+000
7.7715340e+000
1.0506578e+001
1.3751429e+001
1.6999491e+001
1.9920572e+001
2.2442055e+001
2.4814190e+001
2.7493942e+001
3.0808674e+001
3.4838966e+001
3.9174839e+001
4.3126137e+001
4.6502243e+001
4.9609043e+001
5.2835953e+001
5.6501755e+001
6.0620075e+001
6.4956848e+001
6.9314545e+001
7.3571266e+001
7.7615112e+001
8.1354530e+001
8.4818260e+001
8.8131805e+001
9.1395943e+001
9.4601662e+001
9.7394043e+001
9.9201538e+001
9.9824219e+001
9.9453430e+001
9.8340683e+001
9.6694199e+001
9.4580498e+001
9.1960518e+001
8.8884491e+001
8.5490036e+001
8.1844826e+001
7.7934738e+001
7.3759438e+001
6.9362503e+001
6.4859482e+001
6.0422329e+001
5.6196915e+001
5.2287941e+001
4.8766499e+001
4.5662998e+001
4.2932430e+001
4.0470650e+001
3.8207058e+001
3.6121422e+001
3.4226372e+001
3.2552273e+001
3.1111000e+001
2.9893087e+001
2.8880121e+001
2.8052668e+001
2.7405672e+001
2.6944614e+001
2.6663172e+001
2.6541948e+001
2.6571766e+001
2.6759991e+001
2.7136057e+001
2.7736624e+001
2.8536364e+001
2.9445061e+001
3.0362560e+001
3.1206116e+001
3.1959112e+001
3.2698872e+001
3.3646904e+001
3.5105980e+001
3.7120598e+001
3.9424961e+001
4.1673840e+001
4.3554501e+001
4.5003128e+001
4.6205502e+001
4.7286503e+001
4.8239750e+001
4.9015980e+001
4.9548260e+001
4.9770916e+001
4.9640614e+001
4.9198421e+001
4.8568264e+001
4.7837692e+001
4.7023651e+001
4.6083382e+001
4.4929268e+001
4.3504879e+001
4.1814514e+001
3.9954243e+001
3.8083538e+001
3.6218479e+001
3.4197426e+001
3.1857603e+001
2.9120493e+001
2.6135063e+001
2.3266479e+001
2.0725122e+001
1.8469530e+001
1.6365429e+001
1.4249392e+001
1.2049548e+001
9.8148251e+000
7.6286182e+000
5.5842361e+000
3.7746480e+000
2.2818334e+000
1.1504915e+000
3.9421037e-001
8.6784028e-002
3.5051602e-001
1.1277499e+000
2.1371200e+000
3.1563857e+000
4.1099167e+000
4.9978385e+000
5.8584366e+000
6.6340361e+000
7.1479988e+000
7.2902598e+000
7.0900984e+000
6.7003918e+000
6.3669925e+000
6.1890135e+000
6.0542321e+000
5.8669367e+000
5.6148219e+000
5.3023052e+000
4.9296746e+000
4.4807787e+000
3.9272754e+000
3.2859216e+000
2.6371577e+000
2.0649600e+000
1.6330886e+000
1.3697143e+000
1.2594078e+000
1.2792583e+000
1.4081700e+000
1.6213028e+000
1.8886260e+000
2.1815133e+000
2.4770815e+000
2.7654674e+000
3.0525701e+000
3.3414478e+000
3.6253879e+000
3.8916800e+000
4.1233692e+000
4.3119359e+000
4.4623938e+000
4.5816603e+000
4.6736999e+000
4.7348814e+000
4.7521849e+000
4.7160678e+000
4.6249781e+000
4.4789414e+000
4.2783833e+000
4.0278373e+000
3.7389741e+000
3.4316161e+000
3.1319380e+000
2.8479919e+000
2.5578685e+000
2.2342260e+000
1.8572320e+000
1.4387057e+000
1.0341036e+000
6.9020027e-001
4.2264020e-001
2.2719491e-001
8.1693448e-002
-2.4915915e-002
-8.0575429e-002
-7.3859438e-002
-4.6306923e-003
1.1323237e-001
2.4858899e-001
3.7415656e-001
4.7705519e-001
5.5844551e-001
6.3602269e-001
7.2431535e-001
8.2682544e-001
9.4647694e-001
1.0889204e+000
1.2576040e+000
1.4504464e+000
1.6585799e+000
1.8650573e+000
2.0595143e+000
2.2458000e+000
2.4309258e+000
2.6201508e+000
2.8088074e+000
2.9771440e+000
3.1092267e+000
3.2031980e+000
3.2660999e+000
3.3138361e+000
3.3575821e+000
3.3973033e+000
3.4327879e+000
3.4690101e+000
3.5151227e+000
3.5842555e+000
3.6819782e+000
3.7986979e+000
3.9200671e+000
4.0312600e+000
4.1274009e+000
4.2224765e+000
4.3388524e+000
4.5050554e+000
4.7414126e+000
5.0499449e+000
5.4250360e+000
5.8553977e+000
6.3341684e+000
6.8640828e+000
7.4432602e+000
8.0567255e+000
8.6865788e+000
9.3155003e+000
9.9331779e+000
1.0540780e+001
1.1135777e+001
1.1701693e+001
1.2221114e+001
1.2674881e+001
1.3042120e+001
1.3298694e+001
1.3419237e+001
1.3379929e+001
1.3175029e+001
1.2828708e+001
1.2376045e+001
1.1852660e+001
1.1289743e+001
1.0705077e+001
1.0113416e+001
9.5309811e+000
8.9651566e+000
8.4066029e+000
7.8390741e+000
7.2428060e+000
6.6107178e+000
5.9641390e+000
5.3272285e+000
4.7157512e+000
4.1371822e+000
3.5870740e+000
3.0663049e+000
2.5931370e+000
2.1856000e+000
1.8512989e+000
1.5871483e+000
1.3730516e+000
1.1911000e+000
1.0376004e+000
9.1463321e-001
8.2949424e-001
7.8423375e-001
7.6692641e-001
7.6101822e-001
7.4776709e-001
7.1394736e-001
6.6016513e-001
5.9252685e-001
5.2173525e-001
4.5509076e-001
3.8960218e-001
3.1895900e-001
2.3605072e-001
1.4270157e-001
6.1336678e-002
1.3084268e-002
5.6399833e-003
5.2128345e-002
1.8367290e-001
4.1519707e-001
7.1387112e-001
1.0444775e+000
1.3939865e+000
1.7604516e+000
2.1542552e+000
2.5769720e+000
3.0013249e+000
3.3940101e+000
3.7254004e+000
3.9874485e+000
4.2228827e+000
4.4830122e+000
4.8086853e+000
5.2146697e+000
5.6575279e+000
6.0877795e+000
6.4776087e+000
6.8203716e+000
7.1505990e+000
7.5082183e+000
7.9209580e+000
8.3993063e+000
8.9152899e+000
9.4269781e+000
9.8803654e+000
1.0230989e+001
1.0466681e+001
1.0591171e+001
1.0632237e+001
1.0624863e+001
1.0611615e+001
1.0630863e+001
1.0701086e+001
1.0818240e+001
1.0940316e+001
1.1017703e+001
1.1011082e+001
1.0896914e+001
1.0686174e+001
1.0397669e+001
1.0049441e+001
9.6588488e+000
9.2297935e+000
8.7677765e+000
8.2841692e+000
7.7971196e+000
7.3377724e+000
6.9328299e+000
6.5854540e+000
6.2826905e+000
5.9822130e+000
5.6473536e+000
5.2798705e+000
4.8989496e+000
4.5455360e+000
4.2502437e+000
3.9962378e+000
3.7567172e+000
3.5107498e+000
3.2485821e+000
2.9912481e+000
2.7575519e+000
2.5368035e+000
2.3077188e+000
2.0390127e+000
1.7062881e+000
1.3147566e+000
8.8779068e-001
4.8237568e-001
1.5435068e-001
-7.1777180e-002
-1.9487531e-001
-2.6360771e-001
-3.2490954e-001
-3.8005063e-001
-4.1271579e-001
-3.8652280e-001
-2.7349257e-001
-8.9819618e-002
1.3708135e-001
3.7904549e-001
6.1518639e-001
8.4945703e-001
1.0865792e+000
1.3125995e+000
1.4986051e+000
1.5812000e+000
1.5044086e+000
1.2686002e+000
9.0858996e-001
5.3094947e-001
2.4033144e-001
7.1233928e-002
1.8440314e-002
-2.2333637e-003
-7.1608536e-002
-1.8798409e-001
-3.3174914e-001
-4.9278748e-001
-6.6475719e-001
-8.4648550e-001
-1.0315456e+000
-1.1895407e+000
-1.2877080e+000
-1.3065207e+000
-1.2424377e+000
-1.1400863e+000
-1.0578215e+000
-1.0610576e+000
-1.1988491e+000
-1.4483460e+000
-1.7519186e+000
-1.9858164e+000
-2.0431538e+000
-1.9473093e+000
-1.7631043e+000
-1.5900223e+000
-1.5357000e+000
