Image.
>Pix99999.
  .
5555
5555
2300
900
5555
2
1
0
701
5555
-5.1715001e-002
-5.2813429e-002
-5.3911857e-002
-5.5011280e-002
-5.6109715e-002
-5.7208143e-002
-5.8307562e-002
-5.9405997e-002
-6.0504425e-002
-6.1602857e-002
-6.2702268e-002
-6.3802682e-002
-6.4900160e-002
-6.5992683e-002
-6.7096882e-002
-6.8215981e-002
-6.9295317e-002
-7.0319131e-002
-7.1489759e-002
-7.2868384e-002
-7.3697716e-002
-7.3755920e-002
-7.5853951e-002
-8.0829285e-002
-7.8220531e-002
-5.5201892e-002
-2.0188256e-003
7.4977010e-002
1.0811460e-001
3.4373287e-002
-1.2082591e-001
-3.0569869e-001
-4.6420228e-001
-5.5344099e-001
-5.8725113e-001
-5.9573346e-001
-6.0820377e-001
-6.4861155e-001
-7.2111547e-001
-8.1803942e-001
-9.0745318e-001
-9.5257896e-001
-9.2602402e-001
-8.1572747e-001
-6.5978360e-001
-5.1036924e-001
-4.1509730e-001
-4.0679383e-001
-4.6484429e-001
-5.5109090e-001
-6.2311429e-001
-6.4762223e-001
-6.3257045e-001
-6.0180146e-001
-5.9068745e-001
-6.2868768e-001
-7.0732880e-001
-8.0318350e-001
-8.8183928e-001
-9.1278946e-001
-8.9491743e-001
-8.3828598e-001
-7.5916135e-001
-6.7496669e-001
-6.0045189e-001
-5.5014086e-001
-5.4149556e-001
-5.8701581e-001
-6.7478037e-001
-7.8251463e-001
-8.7943202e-001
-9.3857419e-001
-9.5989692e-001
-9.5225918e-001
-9.2286479e-001
-8.7768966e-001
-8.2087803e-001
-7.6028889e-001
-7.2143149e-001
-7.3131925e-001
-7.9738396e-001
-9.1301459e-001
-1.0432793e+000
-1.1482532e+000
-1.2094040e+000
-1.2233043e+000
-1.2167566e+000
-1.2231436e+000
-1.2575103e+000
-1.3227890e+000
-1.4010528e+000
-1.4683720e+000
-1.5080817e+000
-1.5108923e+000
-1.4848883e+000
-1.4446000e+000
-1.4044720e+000
-1.3752246e+000
-1.3531680e+000
-1.3308822e+000
-1.3085858e+000
-1.2918798e+000
-1.2958363e+000
-1.3359609e+000
-1.4143903e+000
-1.5257550e+000
-1.6546174e+000
-1.7837815e+000
-1.9046475e+000
-2.0132697e+000
-2.1091285e+000
-2.1916351e+000
-2.2529521e+000
-2.2842546e+000
-2.2847328e+000
-2.2606835e+000
-2.2326565e+000
-2.2238357e+000
-2.2432868e+000
-2.2895639e+000
-2.3419485e+000
-2.3752353e+000
-2.3775752e+000
-2.3470783e+000
-2.2977469e+000
-2.2506320e+000
-2.2280500e+000
-2.2507668e+000
-2.3318405e+000
-2.4739120e+000
-2.6510513e+000
-2.8250554e+000
-2.9587286e+000
-3.0239339e+000
-3.0268271e+000
-2.9886363e+000
-2.9301875e+000
-2.8713102e+000
-2.8319604e+000
-2.8319921e+000
-2.8916199e+000
-3.0208547e+000
-3.1849954e+000
-3.3328688e+000
-3.4290376e+000
-3.4566278e+000
-3.4410973e+000
-3.4205790e+000
-3.4049656e+000
-3.3866293e+000
-3.3446286e+000
-3.2626948e+000
-3.1679239e+000
-3.1052153e+000
-3.1072280e+000
-3.1895022e+000
-3.3246412e+000
-3.4676945e+000
-3.5848715e+000
-3.6529799e+000
-3.6662400e+000
-3.6286700e+000
-3.5509953e+000
-3.4491458e+000
-3.3478050e+000
-3.2730401e+000
-3.2388151e+000
-3.2487855e+000
-3.2901802e+000
-3.3447111e+000
-3.4045100e+000
-3.4664567e+000
-3.5219035e+000
-3.5596938e+000
-3.5697536e+000
-3.5487251e+000
-3.5168719e+000
-3.5026228e+000
-3.5161855e+000
-3.5535789e+000
-3.5948343e+000
-3.6152351e+000
-3.6015320e+000
-3.5471234e+000
-3.4442704e+000
-3.2881136e+000
-3.0904155e+000
-2.8777823e+000
-2.7029326e+000
-2.6197228e+000
-2.6287971e+000
-2.6976893e+000
-2.7802892e+000
-2.8357377e+000
-2.8669219e+000
-2.8980515e+000
-2.9386199e+000
-2.9856508e+000
-3.0271251e+000
-3.0503387e+000
-3.0574143e+000
-3.0569456e+000
-3.0463688e+000
-3.0178051e+000
-2.9710960e+000
-2.9148443e+000
-2.8734529e+000
-2.8733010e+000
-2.9108858e+000
-2.9585283e+000
-2.9625800e+000
-2.8661981e+000
-2.6578610e+000
-2.3671892e+000
-2.0819352e+000
-1.9057035e+000
-1.8720982e+000
-1.9613050e+000
-2.1166129e+000
-2.2704101e+000
-2.3851085e+000
-2.4391813e+000
-2.3927863e+000
-2.2072864e+000
-1.9093840e+000
-1.5760643e+000
-1.3227528e+000
-1.2564732e+000
-1.3596497e+000
-1.5309908e+000
-1.6530442e+000
-1.6269510e+000
-1.4430891e+000
-1.1583853e+000
-8.7304020e-001
-6.9508386e-001
-6.7220652e-001
-7.9698271e-001
-9.9948138e-001
-1.1801909e+000
-1.2676657e+000
-1.2275840e+000
-1.0920982e+000
-9.3040657e-001
-7.9392219e-001
-7.0524698e-001
-6.3228792e-001
-5.1433218e-001
-3.1702194e-001
-4.3661684e-002
2.3062250e-001
3.9479864e-001
3.8326761e-001
1.9146888e-001
-7.3588960e-002
-2.5543386e-001
-3.0002785e-001
-2.3458683e-001
-9.3503550e-002
9.5278196e-002
3.1013629e-001
5.2271551e-001
6.5647197e-001
6.2442160e-001
4.4965002e-001
2.3485535e-001
6.9058254e-002
1.9336906e-003
-2.8361292e-003
-2.2509899e-002
-5.0556116e-002
-1.1233261e-002
1.7374709e-001
5.4903370e-001
1.0383207e+000
1.4846286e+000
1.7642795e+000
1.8187286e+000
1.7207305e+000
1.6140953e+000
1.5422200e+000
1.4523156e+000
1.2547760e+000
8.7336737e-001
3.6545604e-001
-1.0808064e-001
-3.8764650e-001
-3.4514591e-001
7.5537771e-002
8.4883261e-001
1.8151829e+000
2.7459366e+000
3.5392084e+000
4.2323661e+000
4.9839640e+000
6.0262666e+000
7.5707173e+000
9.7636375e+000
1.2578314e+001
1.5819548e+001
1.9130142e+001
2.2106190e+001
2.4645220e+001
2.6943371e+001
2.9363663e+001
3.2307236e+001
3.5905323e+001
3.9991005e+001
4.4099682e+001
4.7670212e+001
5.0675598e+001
5.3556801e+001
5.6699783e+001
6.0302971e+001
6.4279755e+001
6.8348244e+001
7.2328331e+001
7.6165276e+001
7.9810287e+001
8.3210434e+001
8.6374657e+001
8.9346977e+001
9.2073059e+001
9.4377769e+001
9.5964752e+001
9.6533569e+001
9.6183205e+001
9.5331406e+001
9.4157478e+001
9.2541489e+001
9.0252182e+001
8.7078415e+001
8.3150894e+001
7.8896278e+001
7.4638023e+001
7.0514824e+001
6.6506279e+001
6.2489155e+001
5.8407440e+001
5.4297836e+001
5.0243744e+001
4.6358913e+001
4.2776585e+001
3.9623798e+001
3.6929710e+001
3.4628277e+001
3.2642933e+001
3.0910545e+001
2.9395966e+001
2.8089277e+001
2.6984501e+001
2.6071672e+001
2.5334869e+001
2.4756657e+001
2.4331978e+001
2.4070257e+001
2.3987881e+001
2.4105742e+001
2.4461378e+001
2.5101740e+001
2.6034599e+001
2.7211792e+001
2.8510923e+001
2.9762011e+001
3.0876640e+001
3.1874121e+001
3.2839031e+001
3.3927662e+001
3.5422302e+001
3.7627705e+001
4.0364155e+001
4.2966919e+001
4.4953308e+001
4.6210747e+001
4.6977852e+001
4.7745964e+001
4.8789894e+001
5.0050549e+001
5.1250622e+001
5.1981544e+001
5.2010143e+001
5.1368591e+001
5.0297947e+001
4.9178841e+001
4.8229187e+001
4.7432800e+001
4.6661968e+001
4.5721039e+001
4.4436958e+001
4.2716648e+001
4.0676487e+001
3.8618855e+001
3.6670082e+001
3.4690788e+001
3.2436085e+001
2.9666008e+001
2.6467213e+001
2.3280579e+001
2.0429794e+001
1.7987410e+001
1.5877857e+001
1.3924323e+001
1.1998520e+001
1.0057570e+001
8.0791187e+000
6.0582538e+000
4.0853581e+000
2.3549762e+000
1.0366260e+000
2.3954183e-001
5.6561835e-002
5.3495574e-001
1.4992738e+000
2.5398350e+000
3.4003136e+000
4.0941167e+000
4.7292562e+000
5.4380751e+000
6.2342191e+000
6.9656529e+000
7.4275804e+000
7.4316978e+000
6.9999599e+000
6.4037871e+000
5.8356900e+000
5.3123393e+000
4.8220372e+000
4.3681679e+000
3.9681129e+000
3.6453617e+000
3.3792300e+000
3.0935774e+000
2.7348731e+000
2.3057222e+000
1.8662500e+000
1.5313700e+000
1.3859446e+000
1.4478470e+000
1.6750283e+000
1.9660556e+000
2.2301657e+000
2.4189808e+000
2.5429800e+000
2.6782436e+000
2.8876212e+000
3.1926587e+000
3.5947328e+000
4.0769248e+000
4.6053882e+000
5.1253490e+000
5.5648069e+000
5.8414116e+000
5.9159298e+000
5.8167577e+000
5.5899315e+000
5.2839999e+000
4.9410801e+000
4.5935354e+000
4.2750249e+000
4.0191936e+000
3.8280141e+000
3.6570745e+000
3.4618659e+000
3.2174842e+000
2.9279096e+000
2.6291084e+000
2.3336077e+000
2.0090721e+000
1.6286018e+000
1.1948984e+000
7.4851459e-001
3.7258631e-001
1.2177531e-001
-9.5561333e-003
-4.1699238e-002
5.8616102e-003
1.2946512e-001
3.4330231e-001
6.2290370e-001
8.7770981e-001
1.0193172e+000
9.9722940e-001
8.3030945e-001
6.3180280e-001
5.0095671e-001
4.7624967e-001
5.6498075e-001
7.4517828e-001
9.8694336e-001
1.2581245e+000
1.5257000e+000
1.7575645e+000
1.9303589e+000
2.0357602e+000
2.0721099e+000
2.0449321e+000
1.9679406e+000
1.8659730e+000
1.7652212e+000
1.6889162e+000
1.6528857e+000
1.6608862e+000
1.7114477e+000
1.7974877e+000
1.9037881e+000
2.0034366e+000
2.0738556e+000
2.1072576e+000
2.1137440e+000
2.1284599e+000
2.1848001e+000
2.3007770e+000
2.4790158e+000
2.7014630e+000
2.9519506e+000
3.2272849e+000
3.5311320e+000
3.8732617e+000
4.2557559e+000
4.6642413e+000
5.0839286e+000
5.5081158e+000
5.9393864e+000
6.3931451e+000
6.8783212e+000
7.3843999e+000
7.8901787e+000
8.3629198e+000
8.7765160e+000
9.1227951e+000
9.3995676e+000
9.6070595e+000
9.7379246e+000
9.7704306e+000
9.6879435e+000
9.4924841e+000
9.1967783e+000
8.8263292e+000
8.4044313e+000
7.9439731e+000
7.4546227e+000
6.9449039e+000
6.4250960e+000
5.9090991e+000
5.4055738e+000
4.9104366e+000
4.4158559e+000
3.9141192e+000
3.4056947e+000
2.9075727e+000
2.4364142e+000
1.9995394e+000
1.6008731e+000
1.2418671e+000
9.2457253e-001
6.5334767e-001
4.2751086e-001
2.3529762e-001
6.9507852e-002
-6.1684661e-002
-1.4766401e-001
-1.8151698e-001
-1.6608025e-001
-1.2305862e-001
-7.3366664e-002
-2.6210530e-002
1.2751007e-002
3.9700992e-002
5.1897246e-002
4.8284553e-002
3.0238912e-002
3.5547614e-003
-2.6505414e-002
-5.8071457e-002
-8.8225298e-002
-1.0963000e-001
-1.1269391e-001
-8.5982986e-002
-2.5347643e-002
5.6278579e-002
1.5125628e-001
2.7402198e-001
4.4409156e-001
6.7968786e-001
9.9041671e-001
1.3652607e+000
1.7818608e+000
2.2035849e+000
2.6040242e+000
2.9891267e+000
3.3703759e+000
3.7523320e+000
4.1334400e+000
4.4994006e+000
4.8334928e+000
5.1203051e+000
5.3513098e+000
5.5358987e+000
5.6985474e+000
5.8900323e+000
6.1536713e+000
6.4961805e+000
6.9022560e+000
7.3224611e+000
7.7041349e+000
8.0088997e+000
8.2144270e+000
8.3317461e+000
8.3835230e+000
8.4019814e+000
8.4174747e+000
8.4490995e+000
8.5129242e+000
8.6230507e+000
8.7847080e+000
8.9801960e+000
9.1796999e+000
9.3374634e+000
9.4138908e+000
9.3979368e+000
9.2910662e+000
9.1089182e+000
8.8631468e+000
8.5455112e+000
8.1481228e+000
7.6788821e+000
7.1601539e+000
6.6437125e+000
6.1829319e+000
5.8139243e+000
5.5524201e+000
5.3662524e+000
5.2085600e+000
5.0238543e+000
4.7732749e+000
4.4732466e+000
4.1524343e+000
3.8356361e+000
3.5368979e+000
3.2415123e+000
2.9336686e+000
2.6158998e+000
2.2912529e+000
1.9517626e+000
1.5964800e+000
1.2540963e+000
9.6032548e-001
7.4809140e-001
6.2884927e-001
5.4881895e-001
4.4762856e-001
2.9537323e-001
8.1258550e-002
-1.6860244e-001
-4.2321312e-001
-6.6477454e-001
-8.7452292e-001
-1.0200803e+000
-1.0652428e+000
-9.7343850e-001
-7.2550917e-001
-3.6169487e-001
5.6425542e-002
4.4525480e-001
7.3018456e-001
8.8568854e-001
9.0888000e-001
8.3267289e-001
6.9892550e-001
5.4955965e-001
4.1847387e-001
3.1183663e-001
2.2692880e-001
1.5421191e-001
8.7278962e-002
3.6464822e-002
1.0778337e-002
-1.8876418e-004
-5.3203660e-003
9.3534291e-003
6.3939087e-002
1.8004216e-001
3.7278765e-001
6.3209581e-001
9.3818080e-001
1.2584243e+000
1.5566161e+000
1.7952409e+000
1.9347640e+000
1.9299500e+000
1.7533586e+000
1.4489875e+000
1.0749025e+000
6.7320979e-001
2.7271307e-001
-1.3353133e-001
-5.4147685e-001
-8.6873078e-001
-1.0267675e+000
-9.8011893e-001
-7.0675999e-001
