Image.
>Pix99999.
  .
5555
5555
2300
900
5555
2
1
0
701
5555
3.2814998e-002
3.3498023e-002
3.4180049e-002
3.4863070e-002
3.5546090e-002
3.6228120e-002
3.6911137e-002
3.7594162e-002
3.8276196e-002
3.8958218e-002
3.9642215e-002
4.0327217e-002
4.1007325e-002
4.1680481e-002
4.2372137e-002
4.3089591e-002
4.3738190e-002
4.4292569e-002
4.5100041e-002
4.6263132e-002
4.6482485e-002
4.5375410e-002
4.7775991e-002
5.5122111e-002
4.9433719e-002
1.9202858e-002
6.7195145e-004
3.2675110e-002
1.1059784e-001
2.1506307e-001
3.1716427e-001
3.9071462e-001
4.3107036e-001
4.3950096e-001
4.1601574e-001
3.6352852e-001
2.9841399e-001
2.4075872e-001
2.0954771e-001
2.1844934e-001
2.6097056e-001
3.2357314e-001
3.8843819e-001
4.4002882e-001
4.7700897e-001
5.0097924e-001
5.0812244e-001
4.9047855e-001
4.3038821e-001
3.1401360e-001
1.5504001e-001
-2.2333540e-002
-1.8635340e-001
-3.0803481e-001
-3.7870300e-001
-3.9820665e-001
-3.7448880e-001
-3.1817019e-001
-2.4056719e-001
-1.5376428e-001
-7.2193027e-002
-9.2909932e-003
2.8666364e-002
4.0133379e-002
3.3201162e-002
1.8686857e-002
5.6776227e-003
8.5665355e-004
3.7193422e-003
8.2396800e-003
-4.3626600e-003
-5.1179238e-002
-1.2481480e-001
-2.0431818e-001
-2.4802899e-001
-2.1926358e-001
-1.3016075e-001
-1.4642909e-002
7.4859865e-002
9.1490820e-002
3.6168829e-002
-6.7371339e-002
-1.7206094e-001
-2.3172730e-001
-2.3627080e-001
-1.9328628e-001
-1.2861143e-001
-7.0348695e-002
-3.0113447e-002
-1.3910207e-002
-3.0364487e-002
-8.4803864e-002
-1.6402330e-001
-2.4692559e-001
-3.0864891e-001
-3.3100405e-001
-3.2833582e-001
-3.2550842e-001
-3.3938718e-001
-3.7837818e-001
-4.3033716e-001
-4.7784916e-001
-5.1409411e-001
-5.3805494e-001
-5.5455124e-001
-5.6924450e-001
-5.8267361e-001
-5.9328699e-001
-5.9974515e-001
-6.0208374e-001
-6.0533369e-001
-6.1561692e-001
-6.3519925e-001
-6.6403067e-001
-6.9926804e-001
-7.3629200e-001
-7.6755536e-001
-7.8466809e-001
-7.8055668e-001
-7.5336719e-001
-7.2071058e-001
-7.0530629e-001
-7.1714199e-001
-7.5577807e-001
-8.0091226e-001
-8.2662606e-001
-8.1745481e-001
-7.6564127e-001
-6.7533922e-001
-5.6023717e-001
-4.5358056e-001
-3.9290369e-001
-3.9890262e-001
-4.7454330e-001
-5.8093268e-001
-6.6519821e-001
-6.9166285e-001
-6.4398932e-001
-5.5103290e-001
-4.5954826e-001
-4.0825400e-001
-4.2325217e-001
-4.9732167e-001
-6.0923266e-001
-7.4155670e-001
-8.8065100e-001
-1.0176467e+000
-1.1445340e+000
-1.2481377e+000
-1.3147118e+000
-1.3382572e+000
-1.3200459e+000
-1.2763097e+000
-1.2280570e+000
-1.1881720e+000
-1.1630830e+000
-1.1509949e+000
-1.1492878e+000
-1.1687571e+000
-1.2207714e+000
-1.2894800e+000
-1.3434529e+000
-1.3427103e+000
-1.2584733e+000
-1.1253451e+000
-1.0053383e+000
-9.4078809e-001
-9.4873059e-001
-9.8861361e-001
-1.0023246e+000
-9.7693628e-001
-9.2813241e-001
-8.8678169e-001
-8.8307846e-001
-9.1880947e-001
-9.8059499e-001
-1.0545285e+000
-1.1277932e+000
-1.1880836e+000
-1.2270359e+000
-1.2518429e+000
-1.2784083e+000
-1.3251420e+000
-1.4039204e+000
-1.4964125e+000
-1.5681386e+000
-1.5841188e+000
-1.5231194e+000
-1.4196651e+000
-1.3332250e+000
-1.3015171e+000
-1.3353841e+000
-1.3919817e+000
-1.4111145e+000
-1.3800606e+000
-1.3206629e+000
-1.2805400e+000
-1.3046950e+000
-1.3741543e+000
-1.4329299e+000
-1.4229715e+000
-1.3054873e+000
-1.1154034e+000
-9.3022287e-001
-8.3101183e-001
-8.7883800e-001
-1.0547884e+000
-1.2932054e+000
-1.5246994e+000
-1.6904521e+000
-1.7683300e+000
-1.7579623e+000
-1.6630337e+000
-1.4971972e+000
-1.3177115e+000
-1.2004114e+000
-1.1894783e+000
-1.2941830e+000
-1.4656677e+000
-1.6337864e+000
-1.7795200e+000
-1.9180051e+000
-2.0644016e+000
-2.2239225e+000
-2.3735080e+000
-2.4756892e+000
-2.5037544e+000
-2.4450047e+000
-2.3111765e+000
-2.1272759e+000
-1.9136771e+000
-1.6853601e+000
-1.4534909e+000
-1.2327975e+000
-1.0621749e+000
-9.8725051e-001
-1.0131412e+000
-1.1117084e+000
-1.2304419e+000
-1.3124876e+000
-1.3384372e+000
-1.3172255e+000
-1.2691106e+000
-1.2133136e+000
-1.1424977e+000
-1.0398365e+000
-9.2676729e-001
-8.4945327e-001
-8.4149575e-001
-9.0876651e-001
-9.8444289e-001
-9.7106653e-001
-8.4851283e-001
-6.5749872e-001
-4.4956553e-001
-2.6843172e-001
-1.2127011e-001
6.6269711e-003
1.1452439e-001
1.9374099e-001
2.6295343e-001
3.5345131e-001
4.5859757e-001
5.4032350e-001
5.5148798e-001
4.5841384e-001
3.0121201e-001
1.5855712e-001
4.2313371e-002
-8.0233723e-002
-1.9313915e-001
-2.4368273e-001
-2.0648372e-001
-9.3427971e-002
3.0328173e-002
7.4503891e-002
-2.5933720e-003
-1.8533960e-001
-3.8190958e-001
-4.7014001e-001
-4.2390001e-001
-3.0448654e-001
-2.1114902e-001
-2.3842408e-001
-3.7822995e-001
-5.3612965e-001
-5.9057069e-001
-4.1546041e-001
9.4443202e-002
9.8576057e-001
2.1118357e+000
3.2035322e+000
4.1086693e+000
4.8248539e+000
5.5195017e+000
6.4696350e+000
7.9203277e+000
1.0045403e+001
1.2885406e+001
1.6328251e+001
2.0007715e+001
2.3426540e+001
2.6364201e+001
2.8918455e+001
3.1493601e+001
3.4659878e+001
3.8780014e+001
4.3891068e+001
4.9446598e+001
5.4595196e+001
5.9172871e+001
6.3642273e+001
6.8379539e+001
7.3485428e+001
7.8609314e+001
8.3127853e+001
8.6778824e+001
8.9676476e+001
9.1980988e+001
9.3811539e+001
9.5207794e+001
9.6136703e+001
9.6518318e+001
9.6259941e+001
9.5345520e+001
9.3857147e+001
9.2019157e+001
9.0121559e+001
8.8230843e+001
8.6189201e+001
8.3797600e+001
8.0896851e+001
7.7508690e+001
7.3797981e+001
6.9840652e+001
6.5606575e+001
6.1080601e+001
5.6303703e+001
5.1421688e+001
4.6658802e+001
4.2190544e+001
3.8123936e+001
3.4537827e+001
3.1482079e+001
2.8929537e+001
2.6785929e+001
2.4976526e+001
2.3464615e+001
2.2249464e+001
2.1353954e+001
2.0774500e+001
2.0476738e+001
2.0413383e+001
2.0536613e+001
2.0828829e+001
2.1300943e+001
2.1962978e+001
2.2825790e+001
2.3940996e+001
2.5396709e+001
2.7262114e+001
2.9559368e+001
3.2210068e+001
3.5045883e+001
3.7919159e+001
4.0727505e+001
4.3390209e+001
4.5878143e+001
4.8347904e+001
5.1070686e+001
5.3946087e+001
5.6472301e+001
5.8248703e+001
5.9132454e+001
5.9285320e+001
5.9091713e+001
5.8694668e+001
5.7915733e+001
5.6527279e+001
5.4384636e+001
5.1670315e+001
4.8877953e+001
4.6352970e+001
4.4177078e+001
4.2287457e+001
4.0521252e+001
3.8715378e+001
3.6749706e+001
3.4601719e+001
3.2357693e+001
3.0164129e+001
2.8177095e+001
2.6372200e+001
2.4520962e+001
2.2423313e+001
2.0003656e+001
1.7402422e+001
1.4954041e+001
1.2850834e+001
1.1059080e+001
9.4760571e+000
7.9847217e+000
6.5333977e+000
5.1487813e+000
3.8474228e+000
2.6218286e+000
1.5091183e+000
6.0520512e-001
-1.4206916e-003
-2.4202086e-001
-2.5936455e-002
7.3869747e-001
1.9771485e+000
3.4166749e+000
4.8258424e+000
6.0972166e+000
7.2343674e+000
8.3433285e+000
9.5130978e+000
1.0762646e+001
1.1994000e+001
1.2991886e+001
1.3608738e+001
1.3826273e+001
1.3696531e+001
1.3324821e+001
1.2802275e+001
1.2185380e+001
1.1512389e+001
1.0801999e+001
1.0042768e+001
9.1938648e+000
8.2522793e+000
7.2783399e+000
6.3573060e+000
5.5841479e+000
5.0221324e+000
4.6843328e+000
4.5562072e+000
4.5993643e+000
4.7668056e+000
5.0111790e+000
5.3066125e+000
5.6569185e+000
6.0652943e+000
6.5213480e+000
6.9936500e+000
7.4258184e+000
7.7627559e+000
7.9612207e+000
7.9944715e+000
7.8594084e+000
7.5773654e+000
7.1967297e+000
6.7621727e+000
6.3039804e+000
5.8456945e+000
5.4043989e+000
4.9892673e+000
4.5970483e+000
4.2072315e+000
3.7805455e+000
3.2931859e+000
2.7522128e+000
2.1781423e+000
1.6005150e+000
1.0449650e+000
5.3084052e-001
9.1784343e-002
-2.1818741e-001
-3.6459771e-001
-3.5013339e-001
-1.8234035e-001
1.3405323e-001
5.7963848e-001
1.1137593e+000
1.7094880e+000
2.3645294e+000
3.0527253e+000
3.6988831e+000
4.2062430e+000
4.4716525e+000
4.4519830e+000
4.2059011e+000
3.8225055e+000
3.4002607e+000
3.0215294e+000
2.7357345e+000
2.5658281e+000
2.5001216e+000
2.4992700e+000
2.4943600e+000
2.4282920e+000
2.2807534e+000
2.0686207e+000
1.8549635e+000
1.6960086e+000
1.6152450e+000
1.6155400e+000
1.6793153e+000
1.7998142e+000
1.9973336e+000
2.2971263e+000
2.7190454e+000
3.2601681e+000
3.8780406e+000
4.5152969e+000
5.1061602e+000
5.5980601e+000
5.9683089e+000
6.2174358e+000
6.3754859e+000
6.4819160e+000
6.5805688e+000
6.7123799e+000
6.9106073e+000
7.1994386e+000
7.5882339e+000
8.0729742e+000
8.6327648e+000
9.2556572e+000
9.9545374e+000
1.0752823e+001
1.1679455e+001
1.2737371e+001
1.3880500e+001
1.5042382e+001
1.6142860e+001
1.7108435e+001
1.7884037e+001
1.8425056e+001
1.8695829e+001
1.8671560e+001
1.8342684e+001
1.7715275e+001
1.6823786e+001
1.5715017e+001
1.4451738e+001
1.3111960e+001
1.1791730e+001
1.0590000e+001
9.6071444e+000
8.9214687e+000
8.5646505e+000
8.5196362e+000
8.6892128e+000
8.9428062e+000
9.1233034e+000
9.0992994e+000
8.8104954e+000
8.2521286e+000
7.5007572e+000
6.6531525e+000
5.8051820e+000
5.0308337e+000
4.3550568e+000
3.7773342e+000
3.2676761e+000
2.7976649e+000
2.3587301e+000
1.9609600e+000
1.6438037e+000
1.4419732e+000
1.3624574e+000
1.3910058e+000
1.4815478e+000
1.5875983e+000
1.6799581e+000
1.7434783e+000
1.7842463e+000
1.8070271e+000
1.8015839e+000
1.7486651e+000
1.6189634e+000
1.3957260e+000
1.0985535e+000
7.6609659e-001
4.5873275e-001
2.2032219e-001
4.4704705e-002
-8.1787348e-002
-1.6337159e-001
-2.0950831e-001
-2.4595763e-001
-2.8905636e-001
-3.2316366e-001
-3.2516262e-001
-2.7430484e-001
-1.6799033e-001
-4.5634724e-002
5.1433127e-002
1.0358787e-001
1.1247263e-001
1.1869068e-001
1.6416872e-001
2.6961699e-001
4.3998778e-001
6.5323633e-001
8.8025665e-001
1.0917456e+000
1.2699715e+000
1.4278306e+000
1.5926720e+000
1.8086393e+000
2.1043000e+000
2.4571114e+000
2.8270957e+000
3.1615400e+000
3.4136491e+000
3.5611980e+000
3.5890713e+000
3.4882619e+000
3.2702541e+000
2.9983485e+000
2.7502761e+000
2.6056893e+000
2.6126001e+000
2.7314253e+000
2.8949187e+000
3.0204732e+000
3.0430286e+000
2.9577076e+000
2.7862346e+000
2.5825081e+000
2.4015143e+000
2.2771857e+000
2.2245860e+000
2.2192748e+000
2.2368526e+000
2.2800710e+000
2.3649101e+000
2.5249021e+000
2.7705605e+000
3.0340202e+000
3.2347498e+000
3.3131728e+000
3.2440834e+000
3.0876901e+000
2.9079094e+000
2.7159047e+000
2.5035715e+000
2.2451489e+000
1.9272795e+000
1.5873032e+000
1.2642961e+000
9.6521473e-001
6.8871421e-001
4.3361238e-001
2.0346986e-001
1.6429648e-002
-1.1568715e-001
-2.1229979e-001
-3.0194521e-001
-4.1706705e-001
-5.8155233e-001
-7.8811800e-001
-1.0129577e+000
-1.2043072e+000
-1.3141479e+000
-1.3293071e+000
-1.2497343e+000
-1.0891941e+000
-8.5912943e-001
-5.5335456e-001
-1.7682834e-001
2.1277198e-001
5.4646552e-001
7.6201767e-001
8.2266086e-001
7.7283049e-001
6.6913044e-001
5.4015070e-001
4.0204722e-001
2.5207895e-001
1.0215878e-001
3.2006249e-002
1.3048491e-001
4.5824158e-001
1.0382954e+000
1.7832460e+000
2.5785513e+000
3.3097959e+000
3.8739917e+000
4.2092371e+000
4.2932487e+000
4.2111940e+000
4.0771456e+000
4.0125327e+000
4.1079092e+000
4.3308229e+000
4.6182227e+000
4.9057589e+000
5.1427603e+000
5.3311601e+000
5.4868178e+000
5.6288271e+000
5.7868848e+000
6.0294747e+000
6.4201622e+000
6.9662943e+000
7.6613998e+000
