Image.
>Pix99999.
  .
5555
5555
2300
900
5555
2
1
0
701
5555
6.2827997e-002
6.4135127e-002
6.5442257e-002
6.6748396e-002
6.8055518e-002
6.9362648e-002
7.0669778e-002
7.1976908e-002
7.3284037e-002
7.4591167e-002
7.5898297e-002
7.7205427e-002
7.8512557e-002
7.9819687e-002
8.1125841e-002
8.2432948e-002
8.3740078e-002
8.5047208e-002
8.6354338e-002
8.7661467e-002
8.8968597e-002
9.0275727e-002
9.1582857e-002
9.2889987e-002
9.4197117e-002
9.5504247e-002
3.2106414e-002
1.1439900e-003
-2.7150720e-002
-2.3696195e-002
-1.5508728e-002
-2.7098384e-002
-4.2547446e-002
-1.1249465e-001
-1.7821954e-001
-1.8914250e-001
-1.7340530e-001
-4.8383251e-002
8.4481046e-002
2.2350396e-001
3.2514143e-001
3.4433952e-001
3.2040161e-001
2.3400129e-001
1.5970120e-001
1.0526321e-001
1.0065345e-001
1.4281911e-001
1.9642726e-001
2.5628480e-001
2.9243428e-001
3.1469378e-001
3.0970520e-001
2.9318985e-001
2.5362757e-001
2.0680957e-001
1.6411880e-001
1.2248068e-001
1.2705080e-001
1.3915233e-001
2.0450172e-001
2.7130803e-001
2.9913011e-001
3.0856818e-001
2.3385131e-001
1.5737157e-001
1.0443289e-001
8.2452871e-002
1.3373625e-001
1.8482791e-001
2.2138000e-001
2.1869884e-001
1.6137235e-001
1.0462058e-001
5.4957047e-002
4.6452999e-002
7.3706113e-002
9.9258140e-002
1.2108652e-001
1.2479297e-001
1.1881314e-001
1.3028504e-001
1.4938824e-001
1.6511653e-001
1.7951280e-001
1.5389764e-001
1.1906037e-001
6.2469266e-002
4.5949006e-003
-1.4202765e-002
-2.2144342e-002
8.8409893e-003
3.8098373e-002
3.4337033e-002
1.4680565e-002
-3.8309202e-002
-8.2013458e-002
-9.4226569e-002
-7.1848601e-002
8.6793397e-004
8.7733999e-002
1.8358101e-001
2.4940681e-001
2.8280228e-001
2.8526902e-001
2.6572451e-001
2.4193883e-001
2.1726544e-001
1.8974772e-001
1.6096105e-001
1.4372286e-001
1.3141273e-001
1.5557159e-001
1.9144814e-001
2.3453566e-001
2.7808851e-001
2.5092417e-001
2.0453264e-001
9.8121420e-002
-1.4480960e-002
-9.6181996e-002
-1.6126172e-001
-1.8732662e-001
-2.1159874e-001
-2.4963787e-001
-2.9665822e-001
-3.5516599e-001
-3.9905751e-001
-4.1874787e-001
-4.1673177e-001
-3.9565927e-001
-3.8311774e-001
-3.8201028e-001
-4.0984958e-001
-4.5797333e-001
-5.0629032e-001
-5.5195469e-001
-5.3466702e-001
-4.8443583e-001
-3.9427048e-001
-2.8972802e-001
-2.7042657e-001
-2.8136849e-001
-3.7753439e-001
-4.9355802e-001
-5.6461257e-001
-6.1584079e-001
-6.0529721e-001
-5.8338350e-001
-5.7582569e-001
-5.8824861e-001
-6.4732683e-001
-7.2033924e-001
-8.0281270e-001
-8.6773980e-001
-9.0355206e-001
-9.2434275e-001
-9.3367833e-001
-9.4600677e-001
-9.6236813e-001
-9.3985939e-001
-8.7921798e-001
-7.3777860e-001
-5.3940773e-001
-3.8108331e-001
-2.5502557e-001
-3.0767325e-001
-4.5336041e-001
-6.4825284e-001
-8.5995638e-001
-9.7844112e-001
-1.0621709e+000
-1.1044760e+000
-1.1378242e+000
-1.1904337e+000
-1.2486501e+000
-1.3073657e+000
-1.3515627e+000
-1.3602322e+000
-1.3587580e+000
-1.3632286e+000
-1.3922588e+000
-1.4611480e+000
-1.5429322e+000
-1.6209651e+000
-1.6258707e+000
-1.5329466e+000
-1.3186719e+000
-1.0042408e+000
-7.2134954e-001
-4.9477899e-001
-3.9378497e-001
-3.7844554e-001
-4.1956350e-001
-4.8472416e-001
-6.1178398e-001
-7.7170962e-001
-9.1417694e-001
-1.0484473e+000
-1.0523604e+000
-1.0029286e+000
-9.1366583e-001
-8.1746233e-001
-7.8743529e-001
-7.9750383e-001
-8.8041419e-001
-9.9911177e-001
-1.1461658e+000
-1.2970337e+000
-1.4283577e+000
-1.5272400e+000
-1.5687891e+000
-1.5421159e+000
-1.4355179e+000
-1.2980000e+000
-1.1646436e+000
-1.1271966e+000
-1.2003670e+000
-1.3423206e+000
-1.5159980e+000
-1.6371629e+000
-1.7071729e+000
-1.6799803e+000
-1.5895350e+000
-1.4451360e+000
-1.2691036e+000
-1.1918755e+000
-1.1667504e+000
-1.2752469e+000
-1.4480062e+000
-1.6052128e+000
-1.7467930e+000
-1.8138280e+000
-1.8086220e+000
-1.6731491e+000
-1.4692014e+000
-1.2554555e+000
-1.1229730e+000
-1.1698840e+000
-1.3176081e+000
-1.5063086e+000
-1.6504827e+000
-1.7032129e+000
-1.6910406e+000
-1.6400857e+000
-1.5568750e+000
-1.4533651e+000
-1.3315244e+000
-1.1929171e+000
-1.0696756e+000
-9.6017218e-001
-8.2637894e-001
-6.8012202e-001
-5.0212747e-001
-3.1325051e-001
-1.7628957e-001
-7.6821387e-002
-1.6007543e-002
2.5819996e-002
1.0511051e-001
2.1085143e-001
3.4654590e-001
4.6412575e-001
4.4825608e-001
3.4782726e-001
1.8350565e-001
4.3514755e-002
2.6340522e-002
1.5482360e-002
-5.9397954e-002
-8.7127328e-002
-1.2733767e-002
2.7019525e-001
7.7160519e-001
1.3321351e+000
1.8790822e+000
2.0965977e+000
1.9914558e+000
1.7225599e+000
1.3752654e+000
1.2860600e+000
1.4128040e+000
1.5083134e+000
1.5481821e+000
1.2135683e+000
6.3621438e-001
1.8317837e-001
-1.1283947e-001
8.2679197e-002
7.3637259e-001
1.8138201e+000
3.0400436e+000
4.0054269e+000
4.7707033e+000
5.4242640e+000
6.2460880e+000
7.5159950e+000
9.4790201e+000
1.2233948e+001
1.5674736e+001
1.9596857e+001
2.3215889e+001
2.6245996e+001
2.8934124e+001
3.1460154e+001
3.4709599e+001
3.8730930e+001
4.3437252e+001
4.8629681e+001
5.3055195e+001
5.6776844e+001
6.0465366e+001
6.4219505e+001
6.8602440e+001
7.3448776e+001
7.8200302e+001
8.2802803e+001
8.7086800e+001
9.1037727e+001
9.4615623e+001
9.7788223e+001
1.0051907e+002
1.0265360e+002
1.0402242e+002
1.0421754e+002
1.0292857e+002
1.0064879e+002
9.7896942e+001
9.4815895e+001
9.1561699e+001
8.7717812e+001
8.3172546e+001
7.8471443e+001
7.3815926e+001
6.9481857e+001
6.5499825e+001
6.1381920e+001
5.7074734e+001
5.2767700e+001
4.8488449e+001
4.4444057e+001
4.0658428e+001
3.7307320e+001
3.4407291e+001
3.1976326e+001
2.9996893e+001
2.8329266e+001
2.6978071e+001
2.5893406e+001
2.5057905e+001
2.4405500e+001
2.3918121e+001
2.3543898e+001
2.3288839e+001
2.3140572e+001
2.3131893e+001
2.3279182e+001
2.3602110e+001
2.4103998e+001
2.4836840e+001
2.5807629e+001
2.6994848e+001
2.8367897e+001
2.9748779e+001
3.1092838e+001
3.2310036e+001
3.3394405e+001
3.4615387e+001
3.6065708e+001
3.8323982e+001
4.1412144e+001
4.4499371e+001
4.7379959e+001
4.9407818e+001
5.0641159e+001
5.1696571e+001
5.2551624e+001
5.3215786e+001
5.3452202e+001
5.2884911e+001
5.1667141e+001
5.0120499e+001
4.8503380e+001
4.7154781e+001
4.5993431e+001
4.4944050e+001
4.3777279e+001
4.2335133e+001
4.0515984e+001
3.8215942e+001
3.5918617e+001
3.3787758e+001
3.1780479e+001
2.9940483e+001
2.7622620e+001
2.4668900e+001
2.1652676e+001
1.8619802e+001
1.6162506e+001
1.4354580e+001
1.2641571e+001
1.1026893e+001
9.3946352e+000
7.7568717e+000
6.1321874e+000
4.5523739e+000
3.0714719e+000
1.7743793e+000
7.9874229e-001
1.9949181e-001
3.5569273e-002
3.7217060e-001
1.1360459e+000
2.0357440e+000
2.8621116e+000
3.5324764e+000
4.0045786e+000
4.4643903e+000
5.0035453e+000
5.5806451e+000
6.1840601e+000
6.5985951e+000
6.6897240e+000
6.6354218e+000
6.3764033e+000
6.0814285e+000
5.7405777e+000
5.3893709e+000
5.0421143e+000
4.7381983e+000
4.4919014e+000
4.2386775e+000
3.9798508e+000
3.7017252e+000
3.4329641e+000
3.2717159e+000
3.2358143e+000
3.3395660e+000
3.5588043e+000
3.8298149e+000
4.1215572e+000
4.3916464e+000
4.6288023e+000
4.8473039e+000
5.0534940e+000
5.2570291e+000
5.4800940e+000
5.7270765e+000
5.9898357e+000
6.2673893e+000
6.4828711e+000
6.5711346e+000
6.5753880e+000
6.4184961e+000
6.2198391e+000
5.9491701e+000
5.6386461e+000
5.2766061e+000
4.9040732e+000
4.5286584e+000
4.1664371e+000
3.8299043e+000
3.4970059e+000
3.1680894e+000
2.8466275e+000
2.5127950e+000
2.1569190e+000
1.7831539e+000
1.3848155e+000
1.0023570e+000
6.8343586e-001
4.1378814e-001
2.2382212e-001
7.4767791e-002
-2.8825331e-002
-8.0792427e-002
-5.0562166e-002
3.2682553e-002
2.1513642e-001
3.7750542e-001
4.8041943e-001
5.2454299e-001
4.4021657e-001
3.6644191e-001
3.1760591e-001
3.3493200e-001
4.6812025e-001
6.7805833e-001
9.9165004e-001
1.3348247e+000
1.6933800e+000
1.9929305e+000
2.2133205e+000
2.3503871e+000
2.4080682e+000
2.4183264e+000
2.3922286e+000
2.3389940e+000
2.2698612e+000
2.1801381e+000
2.0897286e+000
2.0073414e+000
1.9432194e+000
1.9191875e+000
1.9098120e+000
1.9213393e+000
1.9350148e+000
1.9475082e+000
1.9718223e+000
2.0220616e+000
2.0865486e+000
2.1823089e+000
2.2830067e+000
2.3965228e+000
2.5164535e+000
2.6460321e+000
2.7912204e+000
2.9590342e+000
3.1640959e+000
3.4174457e+000
3.7254744e+000
4.0867906e+000
4.4918785e+000
4.9333444e+000
5.4092569e+000
5.9033999e+000
6.3974166e+000
6.8639131e+000
7.2350960e+000
7.5299907e+000
7.6616015e+000
7.7199512e+000
7.6395483e+000
7.5149665e+000
7.2928047e+000
7.0318646e+000
6.6658273e+000
6.2632494e+000
5.7742901e+000
5.2760901e+000
4.7616796e+000
4.2592993e+000
3.7770185e+000
3.2970140e+000
2.8200195e+000
2.3438227e+000
1.8757780e+000
1.4457490e+000
1.0593677e+000
7.1771467e-001
4.0327430e-001
6.6605344e-002
-2.9151925e-001
-6.8704349e-001
-1.0821083e+000
-1.4080300e+000
-1.6757663e+000
-1.7978449e+000
-1.8503734e+000
-1.7520502e+000
-1.6046000e+000
-1.3406879e+000
-1.0675472e+000
-7.8669989e-001
-5.1546490e-001
-2.7508616e-001
-3.6976755e-002
1.9460140e-001
4.1762218e-001
6.2131739e-001
8.0245829e-001
9.4052345e-001
1.0276057e+000
1.0386348e+000
9.8021442e-001
8.4222996e-001
6.5803945e-001
4.3801862e-001
2.3301664e-001
5.8595642e-002
-5.4043373e-003
1.7524540e-002
2.0406823e-001
4.7305745e-001
8.4732425e-001
1.2541471e+000
1.6825008e+000
2.1099718e+000
2.5120640e+000
2.8985879e+000
3.2138343e+000
3.5145278e+000
3.7590292e+000
3.9953222e+000
4.2036710e+000
4.3909302e+000
4.5254498e+000
4.6473055e+000
4.7474842e+000
4.8666544e+000
5.0192285e+000
5.2075691e+000
5.4451957e+000
5.7281713e+000
6.0568323e+000
6.4028163e+000
6.7623649e+000
7.1245394e+000
7.4880800e+000
7.8478441e+000
8.1866789e+000
8.3872833e+000
8.5148277e+000
8.4428082e+000
8.3258839e+000
8.2053957e+000
8.1117678e+000
8.2199020e+000
8.3649979e+000
8.6823654e+000
8.9896832e+000
9.2496252e+000
9.4605064e+000
9.5151014e+000
9.5477724e+000
9.5314999e+000
9.5502005e+000
9.6352825e+000
9.7500381e+000
9.9032965e+000
1.0022100e+001
1.0094803e+001
1.0084937e+001
9.9906759e+000
9.7808609e+000
9.4835243e+000
9.0950823e+000
8.6580162e+000
8.2094975e+000
7.7515054e+000
7.2426372e+000
6.7096853e+000
6.0632758e+000
5.3990798e+000
4.7502279e+000
4.1161036e+000
3.6391666e+000
3.1843257e+000
2.8715765e+000
2.5740261e+000
2.3418999e+000
2.0952530e+000
1.8010812e+000
1.4665434e+000
1.0393057e+000
5.9527087e-001
1.2673676e-001
-2.8451103e-001
-6.1025357e-001
-7.8861201e-001
-8.0907601e-001
-7.1705842e-001
-5.3903598e-001
-4.1874748e-001
-3.3774498e-001
-3.4756550e-001
-3.9609554e-001
-4.0275687e-001
-3.9301535e-001
-3.1337985e-001
-2.2027886e-001
-1.5305497e-001
-9.1292642e-002
-8.3079964e-002
-7.4065372e-002
-2.3059929e-002
1.8480010e-003
5.7533346e-002
1.6841580e-001
2.9361027e-001
4.2388514e-001
5.7032442e-001
7.4966007e-001
9.9894238e-001
1.2469343e+000
1.4921114e+000
1.6919080e+000
1.8362145e+000
1.9330034e+000
1.9839891e+000
1.9314001e+000
1.8047918e+000
1.6174005e+000
1.4015721e+000
1.4395726e+000
1.5784020e+000
2.0265355e+000
2.5563970e+000
2.9517703e+000
3.3255796e+000
3.5211000e+000
