##TITLE=Methyl Ethyl Ketone
##JCAMP-DX=4.24
##DATA TYPE=INFRARED SPECTRUM
##XUNITS=cm-1
##YUNITS=Absorbance
##FIRSTX=900
##LASTX=2300
##XYDATA=(X++(Y..Y))
2296 -0.017109999
2294 -0.017465491
2292 -0.017820982
2290 -0.01817747
2288 -0.018532965
2286 -0.01888945
2284 -0.019244948
2282 -0.019601429
2280 -0.019956931
2278 -0.02031341
2276 -0.020668915
2274 -0.021024406
2272 -0.021380879
2270 -0.021736389
2268 -0.02209286
2266 -0.02244837
2264 -0.02280484
2262 -0.023160353
2260 -0.023516821
2258 -0.023872336
2256 -0.0242288
2254 -0.024584319
2252 -0.024939811
2250 -0.025296271
2248 -0.025651794
2246 -0.02600825
2244 -0.00096649426
2242 0.053264104
2240 0.10577124
2238 0.11458
2236 0.11688
2234 0.11582314
2232 0.11629485
2230 0.15647341
2228 0.20077004
2226 0.2624855
2224 0.32851979
2222 0.41005981
2220 0.48760882
2218 0.55030847
2216 0.58331859
2214 0.55329913
2212 0.50245881
2210 0.42370993
2208 0.37331796
2206 0.36044499
2204 0.38453791
2202 0.44201821
2200 0.46560863
2198 0.46225122
2196 0.4028143
2194 0.31203645
2192 0.25582686
2190 0.21567421
2188 0.22997665
2186 0.26164284
2184 0.30426759
2182 0.34916839
2180 0.39918321
2178 0.44975093
2176 0.48349658
2174 0.51513368
2172 0.54034758
2170 0.5687744
2168 0.61906093
2166 0.67646521
2164 0.75195229
2162 0.82575119
2160 0.89063609
2158 0.93602705
2156 0.94622296
2154 0.94556808
2152 0.93443894
2150 0.9406234
2148 0.9675405
2146 1.0024772
2144 1.0425812
2142 1.0702289
2140 1.0887389
2138 1.0909661
2136 1.0848
2134 1.0488938
2132 1.0008987
2130 0.93224126
2128 0.8573752
2126 0.81120914
2124 0.77179247
2122 0.78309441
2120 0.80273461
2118 0.82881463
2116 0.85410547
2114 0.86718708
2112 0.88247025
2110 0.91569912
2108 0.95459646
2106 1.0025944
2104 1.0422611
2102 1.0604215
2100 1.068692
2098 1.0655789
2096 1.0714142
2094 1.0909834
2092 1.1167386
2090 1.1466975
2088 1.1592885
2086 1.1573
2084 1.1414257
2082 1.1178603
2080 1.0918578
2078 1.0650042
2076 1.0548156
2074 1.0515122
2072 1.081172
2070 1.1211976
2068 1.1642158
2066 1.2070686
2064 1.2356246
2062 1.2603883
2060 1.2795489
2058 1.2985361
2056 1.3229285
2054 1.3503773
2052 1.383522
2050 1.412003
2048 1.4237943
2046 1.42645
2044 1.416942
2042 1.4059595
2040 1.3976263
2038 1.3793147
2036 1.3500943
2034 1.31585
2032 1.2785468
2030 1.273425
2028 1.293144
2026 1.3234478
2024 1.3572359
2022 1.3417822
2020 1.3001109
2018 1.2619479
2016 1.22742
2014 1.2773784
2012 1.3567468
2010 1.449052
2008 1.5404623
2006 1.5625886
2004 1.5636582
2002 1.537867
2000 1.507264
1998 1.4803556
1996 1.4507571
1994 1.4071817
1992 1.3673297
1990 1.3483944
1988 1.354448
1986 1.401145
1984 1.4433092
1982 1.4654526
1980 1.4570889
1978 1.4171757
1976 1.3787285
1974 1.34663
1972 1.334658
1970 1.3359617
1968 1.3484389
1966 1.3666743
1964 1.3809645
1962 1.3942032
1960 1.4043159
1958 1.4137824
1956 1.4320757
1954 1.4542036
1952 1.4705617
1950 1.4827578
1948 1.4533638
1946 1.400625
1944 1.2969211
1942 1.1725852
1940 1.0490516
1938 0.93874198
1936 0.86645883
1934 0.81946278
1932 0.7942602
1930 0.7871303
1928 0.79252779
1926 0.83553743
1924 0.91926694
1922 1.0410998
1920 1.1959885
1918 1.3057461
1916 1.3737414
1914 1.3798927
1912 1.3454022
1910 1.297296
1908 1.2435706
1906 1.177295
1904 1.105616
1902 1.0665016
1900 1.0447572
1898 1.0929934
1896 1.1703286
1894 1.2571423
1892 1.3425043
1890 1.401816
1888 1.4442595
1886 1.4669021
1884 1.4659249
1882 1.417751
1880 1.339952
1878 1.2281528
1876 1.1197701
1874 1.0289831
1872 0.97060376
1870 0.94605255
1868 0.93611008
1866 0.94383109
1864 0.93408424
1862 0.91182858
1860 0.88395405
1858 0.84938246
1856 0.83663458
1854 0.8367548
1852 0.88303632
1850 0.95375633
1848 1.0541968
1846 1.1640893
1844 1.1894877
1842 1.1629041
1840 1.0317917
1838 0.85466599
1836 0.66773427
1834 0.48883429
1832 0.34276623
1830 0.24016829
1828 0.25102609
1826 0.32526591
1824 0.46325421
1822 0.58640361
1820 0.6206004
1818 0.60363495
1816 0.54520285
1814 0.50358254
1812 0.50203645
1810 0.5203346
1808 0.54974228
1806 0.57905751
1804 0.60609603
1802 0.65842676
1800 0.7292794
1798 0.79836184
1796 0.86103857
1794 0.86063331
1792 0.82303357
1790 0.77481884
1788 0.73121566
1786 0.71555364
1784 0.71870995
1782 0.69944465
1780 0.67542219
1778 0.67796952
1776 0.68907231
1774 0.67393559
1772 0.59959269
1770 0.4119713
1768 0.1923244
1766 0.045126315
1764 -0.0052611758
1762 0.053313754
1760 0.035469417
1758 -0.07937789
1756 -0.20020786
1754 -0.31540567
1752 -0.33510044
1750 -0.24801269
1748 -0.099200547
1746 0.085938327
1744 0.17224126
1742 0.16858035
1740 0.1172082
1738 0.036889061
1736 0.01491868
1734 0.03228467
1732 -0.00078315288
1730 -0.070759937
1728 -0.20627566
1726 -0.35895136
1724 -0.39251611
1722 -0.29548842
1720 0.020053491
1718 0.52691311
1716 1.3473946
1714 2.3310301
1712 3.2975473
1710 4.236505
1708 5.1054039
1706 6.1019802
1704 7.3821855
1702 9.1737223
1700 11.593214
1698 14.56056
1696 17.981142
1694 21.222031
1692 24.034163
1690 26.550903
1688 28.858988
1686 31.62635
1684 34.907082
1682 38.691154
1680 42.866039
1678 46.548824
1676 49.77877
1674 52.939606
1672 56.101715
1670 59.792503
1668 63.901398
1666 68.179497
1664 72.553574
1662 76.784073
1660 80.822845
1658 84.527824
1656 87.936859
1654 91.100578
1652 93.984581
1650 96.575577
1648 98.406265
1646 99.156502
1644 99.005913
1642 98.187248
1640 96.784607
1638 94.907379
1636 92.21357
1634 88.679398
1632 84.732361
1630 80.586197
1628 76.574295
1626 72.746353
1624 68.769676
1622 64.609703
1620 60.391006
1618 56.139603
1616 52.03474
1614 48.113575
1612 44.58543
1610 41.476189
1608 38.797382
1606 36.521187
1604 34.493416
1602 32.720715
1600 31.177521
1598 29.869246
1596 28.763
1594 27.841225
1592 27.057531
1590 26.414469
1588 25.899595
1586 25.555656
1584 25.391806
1582 25.416521
1580 25.610233
1578 25.99316
1576 26.564228
1574 27.315857
1572 28.251268
1570 29.228764
1568 30.21896
1566 31.123335
1564 31.927008
1562 32.8162
1560 33.853138
1558 35.491726
1556 37.723286
1554 40.032818
1552 42.319645
1550 44.108387
1548 45.473373
1546 46.770145
1544 48.00148
1542 49.206871
1540 50.132782
1538 50.500175
1536 50.285828
1534 49.553207
1532 48.602146
1530 47.701054
1528 46.845989
1526 46.031452
1524 45.137363
1522 44.106403
1520 42.738033
1518 40.957962
1516 39.029655
1514 37.016937
1512 35.11908
1510 33.358433
1508 31.189966
1506 28.464993
1504 25.572006
1502 22.557369
1500 19.970509
1498 17.866159
1496 15.810715
1494 13.78691
1492 11.723446
1490 9.6305523
1488 7.5842671
1486 5.6347084
1484 3.8485959
1482 2.3329206
1480 1.1598699
1478 0.38172922
1476 0.098549217
1474 0.40727901
1472 1.2283664
1470 2.191112
1468 3.1178143
1466 3.99456
1464 4.7695961
1462 5.5365157
1460 6.325448
1458 6.9162254
1456 7.1922002
1454 7.1524434
1452 6.7049122
1450 6.28439
1448 5.9388227
1446 5.6200109
1444 5.3309383
1442 5.0262141
1440 4.6955132
1438 4.3658614
1436 4.0035915
1434 3.565661
1432 3.0391865
1430 2.4788878
1428 1.9504941
1426 1.5567265
1424 1.3298978
1422 1.274928
1420 1.3452126
1418 1.4904803
1416 1.6626428
1414 1.821437
1412 2.0160251
1410 2.2636805
1408 2.5753944
1406 2.9708993
1404 3.3953233
1402 3.8537369
1400 4.2938924
1398 4.6991205
1396 5.0353856
1394 5.2546644
1392 5.375978
1390 5.3544798
1388 5.2685623
1386 5.0890398
1384 4.8677368
1382 4.5943866
1380 4.3275065
1378 4.0704484
1376 3.84394
1374 3.6275642
1372 3.3900242
1370 3.1249325
1368 2.824528
1366 2.5009928
1364 2.1532173
1362 1.7762234
1360 1.371164
1358 0.9726848
1356 0.62717056
1354 0.35038602
1352 0.17121057
1350 0.045887757
1348 -0.041648567
1346 -0.13124035
1344 -0.1334804
1342 -0.082803756
1340 0.056877255
1338 0.17209861
1336 0.23397028
1334 0.22927928
1332 0.14036976
1330 0.067777358
1328 0.034277286
1326 0.058333445
1324 0.15643521
1322 0.30838752
1320 0.51433557
1318 0.73870832
1316 0.96228999
1314 1.1360658
1312 1.2587937
1310 1.3217586
1308 1.3442643
1306 1.33512
1304 1.3037194
1302 1.2521399
1300 1.1943203
1298 1.1520846
1296 1.1289144
1294 1.1531668
1292 1.1965737
1290 1.2667161
1288 1.33548
1286 1.3929492
1284 1.4467235
1282 1.4978302
1280 1.5596434
1278 1.648176
1276 1.7518713
1274 1.880769
1272 2.0197885
1270 2.171072
1268 2.3244016
1266 2.4878936
1264 2.6743507
1262 2.9087913
1260 3.222198
1258 3.62901
1256 4.1141
1254 4.6664543
1252 5.2451797
1250 5.8422489
1248 6.4450893
1246 7.0450001
1244 7.6303968
1242 8.1937733
1240 8.7055378
1238 9.1795855
1236 9.5753174
1234 9.9176311
1232 10.13124
1230 10.276128
1228 10.240091
1226 10.152059
1224 9.9242182
1222 9.6578426
1220 9.2974415
1218 8.8948412
1216 8.4084377
1214 7.8977356
1212 7.3474927
1210 6.7950644
1208 6.2396235
1206 5.6818557
1204 5.1208496
1202 4.5521932
1200 3.9780152
1198 3.4103508
1196 2.8555858
1194 2.3389866
1192 1.8549045
1190 1.416773
1188 1.010591
1186 0.65376461
1184 0.3358196
1182 0.11132118
1180 -0.062582806
1178 -0.11841643
1176 -0.13877159
1174 -0.081833452
1172 -0.014339276
1170 0.07778541
1168 0.16172749
1166 0.22105321
1164 0.26176107
1162 0.25644359
1160 0.23958051
1158 0.19933584
1156 0.15532699
1154 0.10372645
1152 0.04453823
1150 -0.024588477
1148 -0.09250322
1146 -0.1516818
1144 -0.16936971
1142 -0.14020661
1140 -0.045207314
1138 0.083955623
1136 0.17957456
1134 0.3241753
1132 0.56116325
1130 0.85558391
1128 1.2649961
1126 1.7153472
1124 2.2145128
1122 2.7140696
1120 3.170248
1118 3.6141396
1116 4.0140471
1114 4.411562
1112 4.8020091
1110 5.1864529
1108 5.5516748
1106 5.9076152
1104 6.2413416
1102 6.575943
1100 6.9134879
1098 7.2614346
1096 7.6264143
1094 8.0019159
1092 8.3946161
1090 8.8182392
1088 9.27596
1086 9.7634363
1084 10.263145
1082 10.688884
1080 11.049389
1078 11.25481
1076 11.380814
1074 11.430305
1072 11.462932
1070 11.543309
1068 11.6359
1066 11.741114
1064 11.83516
1062 11.827104
1060 11.797186
1058 11.661106
1056 11.502057
1054 11.238062
1052 10.942429
1050 10.54168
1048 10.126208
1046 9.6779327
1044 9.2350416
1042 8.8053436
1040 8.3919554
1038 8.0045042
1036 7.6401901
1034 7.3027177
1032 6.976706
1030 6.6590195
1028 6.3297219
1026 5.9909816
1024 5.6406965
1022 5.286109
1020 4.9473147
1018 4.6181316
1016 4.3237286
1014 4.0420332
1012 3.7977552
1010 3.561815
1008 3.348788
1006 3.1378551
1004 2.9286149
1002 2.7130959
1000 2.4549873
998 2.1802385
996 1.8323642
994 1.479938
992 1.1155576
990 0.77869189
988 0.50730914
986 0.28153634
984 0.13670169
982 0.039833605
980 0.010469723
978 0.053136915
976 0.17541285
974 0.38764176
972 0.67125571
970 0.95232093
968 1.2263703
966 1.40606
964 1.5391492
962 1.5944474
960 1.6210623
958 1.5626166
956 1.4823956
954 1.3140759
952 1.1329153
950 0.89849186
948 0.65893519
946 0.37594894
944 0.10515662
942 -0.006780073
940 -0.20744938
938 -0.241669
936 -0.25080371
934 -0.18742833
932 -0.14124134
930 -0.13184063
928 -0.13308989
926 -0.15148164
924 -0.17212461
922 -0.19569665
920 -0.21260983
918 -0.22256801
916 -0.19986227
914 -0.15298462
912 -0.036430217
910 0.11631691
908 0.31586075
906 0.53032333
904 0.58506572
902 0.59580839
900 0.43457818
898 0.24537164
896 0.16963001
