##TITLE=Methyl Ethyl Ketone
##JCAMP-DX=4.24
##DATA TYPE=INFRARED SPECTRUM
##XUNITS=cm-1
##YUNITS=Absorbance
##FIRSTX=900
##LASTX=2300
##XYDATA=(X++(Y..Y))
2296 0.0040658
2294 0.004150379
2292 0.0042348583
2290 0.0043194368
2288 0.0044040163
2286 0.004488694
2284 0.0045731748
2282 0.004657852
2280 0.0047423332
2278 0.00482701
2276 0.0049115904
2274 0.0049961694
2272 0.0050807479
2270 0.0051653269
2268 0.0052499059
2266 0.0053344849
2264 0.0054189661
2262 0.0055036405
2260 0.0055882223
2258 0.0056728008
2256 0.0057573798
2254 0.0058419588
2252 0.0059265378
2250 0.0060111172
2248 0.0060956962
2246 0.0061802752
2244 0.00022966544
2242 0.01262548
2240 0.018844001
2238 0.036531832
2236 0.056009628
2234 0.049933407
2232 0.041486304
2230 0.021265185
2228 0.0045845723
2226 0.020927655
2224 0.038539086
2222 0.054519724
2220 0.058317304
2218 0.025398284
2216 -0.0072982144
2214 -0.034996651
2212 -0.039849821
2210 -0.0079252888
2208 0.036696151
2206 0.094315358
2204 0.14697103
2202 0.19399308
2200 0.23652942
2198 0.27596968
2196 0.30082929
2194 0.31743845
2192 0.30945468
2190 0.29094601
2188 0.27741903
2186 0.26572144
2184 0.3028796
2182 0.35123676
2180 0.42007199
2178 0.49127537
2176 0.51361001
2174 0.52883285
2172 0.51467305
2170 0.50026619
2168 0.50055277
2166 0.50794899
2164 0.53616029
2162 0.56796622
2160 0.60364121
2158 0.629875
2156 0.63737297
2154 0.63604301
2152 0.62470543
2150 0.62672621
2148 0.64497787
2146 0.68298286
2144 0.73696929
2142 0.786452
2140 0.83170795
2138 0.87017304
2136 0.9051466
2134 0.95022929
2132 0.99956739
2130 1.020825
2128 1.0329319
2126 0.9803645
2124 0.9129836
2122 0.82744831
2120 0.74144256
2118 0.69827574
2116 0.6673649
2114 0.68183964
2112 0.70714551
2110 0.75089085
2108 0.79794037
2106 0.84684604
2104 0.88892442
2102 0.91546547
2100 0.92858237
2098 0.92311251
2096 0.92137575
2094 0.92828828
2092 0.94875127
2090 0.98194116
2088 1.0083857
2086 1.0274
2084 1.0289119
2082 1.0192968
2080 0.99354792
2078 0.9601841
2076 0.91767001
2074 0.8718071
2072 0.84991282
2070 0.83597022
2068 0.86510402
2066 0.90495282
2064 0.9432261
2062 0.97793543
2060 0.97498482
2058 0.96239847
2056 0.93746889
2054 0.91413444
2052 0.90663165
2050 0.9037351
2048 0.90620941
2046 0.90354609
2044 0.88966084
2042 0.87742192
2040 0.86962181
2038 0.87568957
2036 0.89584243
2034 0.92698181
2032 0.96652156
2030 1.0165763
2028 1.07461
2026 1.1196579
2024 1.1563028
2022 1.1498488
2020 1.1220326
2018 1.0672731
2016 1.001592
2014 0.95302886
2012 0.90954012
2010 0.89321846
2008 0.88293415
2006 0.86363637
2004 0.84041893
2002 0.8092283
2000 0.78074569
1998 0.77749097
1996 0.78735501
1994 0.82058048
1992 0.85721284
1990 0.883964
1988 0.8948682
1986 0.87637067
1984 0.84548837
1982 0.80724144
1980 0.77279603
1978 0.74699914
1976 0.72256118
1974 0.69904834
1972 0.69424033
1970 0.70466435
1968 0.74577475
1966 0.80438066
1964 0.83357024
1962 0.84422386
1960 0.80448198
1958 0.74316072
1956 0.68264371
1954 0.62295824
1952 0.5826515
1950 0.54741055
1948 0.52141982
1946 0.49926251
1944 0.47828954
1942 0.46294379
1940 0.44854054
1938 0.43444699
1936 0.41626313
1934 0.39129263
1932 0.36139518
1930 0.32869864
1928 0.30019507
1926 0.28378907
1924 0.28557733
1922 0.31617531
1920 0.36932886
1918 0.42231759
1916 0.46398056
1914 0.47399643
1912 0.4623284
1910 0.43771175
1908 0.40929738
1906 0.36170307
1904 0.30287319
1902 0.239171
1900 0.17199107
1898 0.14992872
1896 0.14627714
1894 0.16337371
1892 0.18473494
1890 0.1714475
1888 0.1386916
1886 0.069255382
1884 -0.0091863889
1882 -0.075606592
1880 -0.12170742
1878 -0.12576845
1876 -0.107722
1874 -0.065263852
1872 -0.022712423
1870 0.014022972
1868 0.036814678
1866 0.031843536
1864 0.012465158
1862 -0.025019784
1860 -0.062711768
1858 -0.091802359
1856 -0.12137657
1854 -0.14762865
1852 -0.18621074
1850 -0.22858989
1848 -0.27519721
1846 -0.31816036
1844 -0.36184999
1842 -0.40087247
1840 -0.42691904
1838 -0.4461531
1836 -0.42510498
1834 -0.38577008
1832 -0.31510532
1830 -0.22681411
1828 -0.13561457
1826 -0.045406073
1824 0.013907509
1822 0.038347542
1820 0.017480183
1818 -0.03611565
1816 -0.1027132
1814 -0.17119102
1812 -0.22955577
1810 -0.26861417
1808 -0.29149765
1806 -0.28844848
1804 -0.2646133
1802 -0.25027591
1800 -0.24444857
1798 -0.25552747
1796 -0.27696571
1794 -0.24378367
1792 -0.1773732
1790 -0.07063517
1788 0.050456487
1786 0.13266627
1784 0.18478937
1782 0.2028518
1780 0.19624594
1778 0.174738
1776 0.14881028
1774 0.14028901
1772 0.15396006
1770 0.17892422
1768 0.20574307
1766 0.20724642
1764 0.174532
1762 0.11438721
1760 0.033578105
1758 -0.12444817
1756 -0.28651673
1754 -0.3868961
1752 -0.39816308
1750 -0.31926709
1748 -0.23612258
1746 -0.18345928
1744 -0.21693915
1742 -0.33803236
1740 -0.44596434
1738 -0.5229221
1736 -0.465036
1734 -0.29820585
1732 -0.12747295
1730 0.028854813
1728 0.038708687
1726 -0.05573551
1724 -0.11805489
1722 -0.1346969
1720 0.0037721097
1718 0.27480677
1716 0.73363113
1714 1.3063534
1712 1.8234885
1710 2.2871523
1708 2.7251079
1706 3.2883508
1704 4.1384788
1702 5.539114
1700 7.6177106
1698 10.60801
1696 14.462714
1694 18.41128
1692 22.097837
1690 25.366203
1688 28.279062
1686 31.731899
1684 35.819004
1682 40.808243
1680 46.506721
1678 51.519093
1676 55.869843
1674 60.016861
1672 64.107948
1670 68.996399
1668 74.494682
1666 80.018753
1664 85.432945
1662 90.328873
1660 94.672447
1658 98.367233
1656 101.28777
1654 103.25425
1652 104.2178
1650 104.19456
1648 103.25172
1646 101.49286
1644 99.151611
1642 96.500458
1640 93.480354
1638 90.133316
1636 86.113518
1634 81.353409
1632 76.404022
1630 71.473076
1628 66.837021
1626 62.531322
1624 58.214279
1622 53.837139
1620 49.622192
1618 45.58025
1616 41.832542
1614 38.391823
1612 35.359211
1610 32.745049
1608 30.543411
1606 28.737051
1604 27.195791
1602 25.919317
1600 24.857874
1598 24.016905
1596 23.3715
1594 22.939484
1592 22.710342
1590 22.663879
1588 22.752638
1586 22.913771
1584 23.095354
1582 23.273361
1580 23.441523
1578 23.694168
1576 24.066629
1574 24.659134
1572 25.482189
1570 26.466274
1568 27.586441
1566 28.738672
1564 29.918028
1562 31.316122
1560 33.033085
1558 35.664425
1556 39.280514
1554 43.18861
1552 47.140896
1550 50.152451
1548 52.230156
1546 53.911678
1544 55.213039
1542 56.28928
1540 57.06778
1538 57.416889
1536 57.255798
1534 56.57193
1532 55.471413
1530 54.175323
1528 52.73457
1526 51.195549
1524 49.500862
1522 47.597046
1520 45.461224
1518 43.033287
1516 40.642441
1514 38.407085
1512 36.295921
1510 34.357506
1508 31.992926
1506 29.056871
1504 26.02796
1502 22.929577
1500 20.282429
1498 18.135929
1496 16.020428
1494 13.932156
1492 11.799349
1490 9.6376648
1488 7.4882803
1486 5.4261723
1484 3.5840681
1482 2.0496366
1480 0.93311214
1478 0.26019013
1476 0.051976755
1474 0.40742308
1472 1.2555106
1470 2.2842381
1468 3.2838228
1466 4.0976224
1464 4.6343269
1462 5.0689287
1460 5.4677434
1458 5.8872075
1456 6.3397002
1454 6.7194386
1452 6.9526572
1450 7.0417247
1448 6.9147296
1446 6.7266784
1444 6.4609785
1442 6.1938939
1440 5.9252586
1438 5.6207175
1436 5.2593203
1434 4.7706771
1432 4.1645675
1430 3.5411325
1428 2.93782
1426 2.4704928
1424 2.1546724
1422 1.9946345
1420 1.990216
1418 2.1089025
1416 2.3072515
1414 2.534636
1412 2.7531371
1410 2.9619339
1408 3.1803708
1406 3.434978
1404 3.7270648
1402 4.0592179
1400 4.4021039
1398 4.7454681
1396 5.0813789
1394 5.3936248
1392 5.6807828
1390 5.8936601
1388 6.0118093
1386 5.9681201
1384 5.8044896
1382 5.478117
1380 5.0931015
1378 4.6463418
1376 4.1890888
1374 3.741837
1372 3.31885
1370 2.9297073
1368 2.5870817
1366 2.2520943
1364 1.8767239
1362 1.4645137
1360 1.0053349
1358 0.57575047
1356 0.26933718
1354 0.063734666
1352 0.0088223545
1350 0.02910075
1348 0.1143791
1346 0.21306893
1344 0.36130202
1342 0.53334856
1340 0.75013179
1338 0.97310984
1336 1.1971657
1334 1.4137623
1332 1.5869477
1330 1.752733
1328 1.9065658
1326 2.0752037
1324 2.2815311
1322 2.5114789
1320 2.7837994
1318 3.0759487
1316 3.3926201
1314 3.7146754
1312 4.0191574
1310 4.2750602
1308 4.4601898
1306 4.5548491
1304 4.5801592
1302 4.5499129
1300 4.4974051
1298 4.4400349
1296 4.3824
1294 4.319746
1292 4.254425
1290 4.1807303
1288 4.1145401
1286 4.0688047
1284 4.0347023
1282 4.0229845
1280 4.0122218
1278 4.0024805
1276 3.9955685
1274 4.0008159
1272 4.0221286
1270 4.0776405
1268 4.1605291
1266 4.280251
1264 4.4137669
1262 4.5548902
1260 4.6796956
1258 4.7863469
1256 4.8819456
1254 4.9690537
1252 5.0572805
1250 5.1412759
1248 5.2093887
1246 5.2657747
1244 5.3037043
1242 5.3362288
1240 5.3698559
1238 5.3983512
1236 5.4100428
1234 5.3891568
1232 5.2746682
1230 5.1048832
1228 4.7870731
1226 4.4316692
1224 3.9806516
1222 3.5223737
1220 3.0474582
1218 2.581454
1216 2.135463
1214 1.7122502
1212 1.3321491
1210 0.98799431
1208 0.69893026
1206 0.45159477
1204 0.2561048
1202 0.096653759
1200 -0.026064493
1198 -0.12743613
1196 -0.20874929
1194 -0.27121815
1192 -0.32076585
1190 -0.36104941
1188 -0.39654544
1186 -0.42957622
1184 -0.44862121
1182 -0.41403157
1180 -0.3386938
1178 -0.14517318
1176 0.089896798
1174 0.42883635
1172 0.76947278
1170 1.0896106
1168 1.3703023
1166 1.5263528
1164 1.6405417
1162 1.651149
1160 1.6374103
1158 1.5738215
1156 1.4882885
1154 1.3650262
1152 1.2183172
1150 1.0401337
1148 0.84777856
1146 0.64133394
1144 0.43749923
1142 0.24536061
1140 0.10766072
1138 0.026248753
1136 0.053983688
1134 0.1527912
1132 0.34944451
1130 0.58423239
1128 0.82365406
1126 1.0547614
1124 1.2370371
1122 1.4007639
1120 1.511608
1118 1.6096849
1116 1.66466
1114 1.7140779
1112 1.7434822
1110 1.7733845
1108 1.8054575
1106 1.8453599
1104 1.9043006
1102 1.9685032
1100 2.042031
1098 2.1119497
1096 2.1761284
1094 2.236335
1092 2.2897661
1090 2.3294168
1088 2.3538888
1086 2.367065
1084 2.3727233
1082 2.3838797
1080 2.3967342
1078 2.3952992
1076 2.3823514
1074 2.3319771
1072 2.2640646
1070 2.1609669
1068 2.0495434
1066 1.9360814
1064 1.82794
1062 1.7603573
1060 1.6969663
1058 1.6470176
1056 1.5932314
1054 1.5227209
1052 1.4522334
1050 1.38315
1048 1.3199365
1046 1.2712929
1044 1.2298554
1042 1.1999702
1040 1.1584932
1038 1.0978944
1036 1.014275
1034 0.90548271
1032 0.79980963
1030 0.69620031
1028 0.57915872
1026 0.45063651
1024 0.29550558
1022 0.13117802
1020 0.018206641
1018 -0.070155717
1016 -0.10241514
1014 -0.12316416
1012 -0.18315746
1010 -0.25247303
1008 -0.35378158
1006 -0.45388708
1004 -0.50966322
1002 -0.55965668
1000 -0.57296258
998 -0.58182281
996 -0.57114571
994 -0.5577907
992 -0.5377667
990 -0.53295165
988 -0.56403458
986 -0.61142373
984 -0.68529665
982 -0.74444938
980 -0.78148562
978 -0.78564745
976 -0.75451148
974 -0.69281912
972 -0.60540432
970 -0.49009526
968 -0.35781044
966 -0.2335415
964 -0.11713114
962 -0.087934896
960 -0.090895332
958 -0.17051047
956 -0.26479915
954 -0.31417865
952 -0.3538056
950 -0.28653499
948 -0.21022515
946 -0.067860641
944 0.0022498593
942 0.069959432
940 0.20196508
938 0.33835578
936 0.46085429
934 0.54285997
932 0.61437643
930 0.66429192
928 0.74487615
926 0.8750447
924 1.032526
922 1.2223921
920 1.3499948
918 1.417502
916 1.3527343
914 1.1936131
912 0.97681296
910 0.73146218
908 0.56419629
906 0.42900163
904 0.34683731
902 0.2798627
900 0.18961242
898 0.09624736
896 0.10978
