##TITLE=Methyl Ethyl Ketone
##JCAMP-DX=4.24
##DATA TYPE=INFRARED SPECTRUM
##XUNITS=cm-1
##YUNITS=Absorbance
##FIRSTX=900
##LASTX=2300
##XYDATA=(X++(Y..Y))
2296 -0.031854
2294 -0.032516055
2292 -0.033179104
2290 -0.033841159
2288 -0.034504205
2286 -0.035167258
2284 -0.035829321
2282 -0.036492363
2280 -0.037155412
2278 -0.037817478
2276 -0.038480517
2274 -0.039143566
2272 -0.039805636
2270 -0.040466707
2268 -0.041130699
2266 -0.041798666
2264 -0.04245694
2262 -0.043100361
2260 -0.043781437
2258 -0.044512104
2256 -0.045109026
2254 -0.04551594
2252 -0.046423927
2250 -0.048038147
2248 -0.047790695
2246 -0.038993429
2244 -0.0014362399
2242 0.072656117
2240 0.12578765
2238 0.093207516
2236 -0.04466854
2234 -0.27589828
2232 -0.5138222
2230 -0.66867769
2228 -0.72424674
2226 -0.69275749
2224 -0.6141547
2222 -0.52761704
2220 -0.43730044
2218 -0.34008551
2216 -0.24559657
2214 -0.16642024
2212 -0.1110606
2210 -0.08366023
2208 -0.075687684
2206 -0.076840356
2204 -0.085074484
2202 -0.095763765
2200 -0.083281547
2198 -0.02225332
2196 0.085091427
2194 0.22115904
2192 0.34131593
2190 0.40384173
2188 0.4127897
2186 0.39004213
2184 0.37020358
2182 0.38565275
2180 0.44434386
2178 0.54202461
2176 0.65726459
2174 0.76341212
2172 0.83453071
2170 0.8524437
2168 0.82927942
2166 0.78932869
2164 0.76550996
2162 0.78477114
2160 0.83887208
2158 0.90572912
2156 0.95573801
2154 0.96578866
2152 0.94890368
2150 0.93036509
2148 0.93456584
2146 0.97612929
2144 1.0320822
2142 1.071052
2140 1.0814089
2138 1.0689815
2136 1.0816486
2134 1.1685683
2132 1.3226346
2130 1.5084544
2128 1.657444
2126 1.7100186
2124 1.6893752
2122 1.6470058
2120 1.6256754
2118 1.6505458
2116 1.6918843
2114 1.708275
2112 1.6917468
2110 1.6510192
2108 1.6079743
2106 1.5862107
2104 1.5985411
2102 1.6499152
2100 1.7316741
2098 1.8274107
2096 1.9116572
2094 1.9604524
2092 1.9713131
2090 1.952399
2088 1.9222652
2086 1.89924
2084 1.8861566
2082 1.8791478
2080 1.8732949
2078 1.8648014
2076 1.8564043
2074 1.8525758
2072 1.8542
2070 1.8607216
2068 1.8735363
2066 1.8943529
2064 1.9222777
2062 1.9541678
2060 1.9792217
2058 1.98569
2056 1.9702914
2054 1.9359821
2052 1.8969668
2050 1.8691632
2048 1.8571297
2046 1.8584571
2044 1.864102
2042 1.8666735
2040 1.8774594
2038 1.9125917
2036 1.9739057
2034 2.0509849
2032 2.1104474
2030 2.1168311
2028 2.0670624
2026 1.9785793
2024 1.8921171
2022 1.8501236
2020 1.8618037
2018 1.9147666
2016 1.9716001
2014 1.9927822
2012 1.9758497
2010 1.9386736
2008 1.9127669
2006 1.9260392
2004 1.9709046
2002 2.0235279
2000 2.0634828
1998 2.0774183
1996 2.0724216
1994 2.063071
1992 2.0570858
1990 2.0568597
1988 2.0600641
1986 2.0629241
1984 2.0666087
1982 2.0742488
1980 2.0873497
1978 2.1069074
1976 2.1346886
1974 2.1739941
1972 2.2328885
1970 2.318047
1968 2.4207189
1966 2.521188
1964 2.5858469
1962 2.5816441
1960 2.506228
1958 2.3781276
1956 2.2384
1954 2.131927
1952 2.0753868
1950 2.0652776
1948 2.0766213
1946 2.0788751
1944 2.06006
1942 2.0215487
1940 1.9764463
1938 1.940834
1936 1.9217542
1934 1.9191121
1932 1.92542
1930 1.9317837
1928 1.9386075
1926 1.9546993
1924 2.0029759
1922 2.1044908
1920 2.2425153
1918 2.3796659
1916 2.4808886
1914 2.5218968
1912 2.5125971
1910 2.4757731
1908 2.4102917
1906 2.3037057
1904 2.158972
1902 1.9948082
1900 1.8563511
1898 1.794348
1896 1.8238572
1894 1.9311171
1892 2.0692074
1890 2.1780341
1888 2.21314
1886 2.1510723
1884 2.0130205
1882 1.8445768
1880 1.6892772
1878 1.5820311
1876 1.53571
1874 1.5473093
1872 1.5981469
1870 1.6594951
1868 1.6933661
1866 1.6661886
1864 1.5844772
1862 1.4806629
1860 1.3943112
1858 1.3584125
1856 1.3687029
1854 1.3991656
1852 1.4288834
1850 1.4430833
1848 1.430436
1846 1.3823143
1844 1.2953212
1842 1.1754599
1840 1.0558571
1838 0.98137939
1836 0.97565371
1834 1.0415848
1832 1.1578805
1830 1.2905639
1828 1.4094605
1826 1.4898785
1824 1.5134234
1822 1.4691244
1820 1.362972
1818 1.2141042
1816 1.0543383
1814 0.91966319
1812 0.83379978
1810 0.80839074
1808 0.84034473
1806 0.91509151
1804 1.0055299
1802 1.0808703
1800 1.1268355
1798 1.1451274
1796 1.1547
1794 1.1792389
1792 1.216728
1790 1.2476113
1788 1.2576009
1786 1.237975
1784 1.1775331
1782 1.0679779
1780 0.92474079
1778 0.78016126
1776 0.66801316
1774 0.6104598
1772 0.58160573
1770 0.52858233
1768 0.42943832
1766 0.29465464
1764 0.1628018
1762 0.076414011
1760 0.019950302
1758 -0.051681209
1756 -0.11707956
1754 -0.11019437
1752 -0.0085725412
1750 0.16027188
1748 0.31887487
1746 0.37211642
1744 0.28830138
1742 0.1010562
1740 -0.090825059
1738 -0.16732199
1736 -0.10201101
1734 0.045048922
1732 0.16538766
1730 0.14836845
1728 -0.0069684535
1726 -0.20892724
1724 -0.34012306
1722 -0.28890598
1720 -0.0029650182
1718 0.50809854
1716 1.1637121
1714 1.8397567
1712 2.4331572
1710 2.8933041
1708 3.3049641
1706 3.8573084
1704 4.7458458
1702 6.1498404
1700 8.2229757
1698 11.030282
1696 14.307714
1694 17.56691
1692 20.500237
1690 23.05571
1688 25.509851
1686 28.339643
1684 31.849623
1682 36.063164
1680 40.5172
1678 44.500229
1676 47.882713
1674 51.080402
1672 54.514744
1670 58.441364
1668 62.739182
1666 67.017052
1664 71.043526
1662 74.782921
1660 78.230133
1658 81.382919
1656 84.275574
1654 86.972794
1652 89.529701
1650 91.944946
1648 94.006744
1646 95.369568
1644 95.924255
1642 95.797531
1640 95.09211
1638 93.828102
1636 91.941383
1634 89.343346
1632 86.130653
1630 82.559479
1628 78.800842
1626 74.906143
1624 70.883682
1622 66.737328
1620 62.53331
1618 58.390213
1616 54.390942
1614 50.57666
1612 47.00724
1610 43.75922
1608 40.857006
1606 38.270035
1604 35.969116
1602 33.940361
1600 32.185879
1598 30.716604
1596 29.5215
1594 28.562719
1592 27.793961
1590 27.172392
1588 26.675985
1586 26.305677
1584 26.066965
1582 25.96677
1580 26.02824
1578 26.290165
1576 26.793858
1574 27.567089
1572 28.575972
1570 29.726271
1568 30.92252
1566 32.092529
1564 33.214764
1562 34.345257
1560 35.681133
1558 37.489876
1556 39.728172
1554 42.01371
1552 44.008183
1550 45.542469
1548 46.69429
1546 47.743034
1544 48.828217
1542 49.877583
1540 50.734161
1538 51.215931
1536 51.241798
1534 50.858776
1532 50.181751
1530 49.357277
1528 48.465527
1526 47.497101
1524 46.404789
1522 45.124763
1520 43.615246
1518 41.880737
1516 40.013115
1514 38.167076
1512 36.362881
1510 34.449505
1508 32.259605
1506 29.690563
1504 26.860559
1502 24.104109
1500 21.628401
1498 19.41931
1496 17.37743
1494 15.369192
1492 13.313406
1490 11.204453
1488 9.0570068
1486 6.9041419
1484 4.8484621
1482 3.0602851
1480 1.6447942
1478 0.624614
1476 0.098499574
1474 0.23516756
1472 0.96140933
1470 1.906029
1468 2.7982821
1466 3.5881357
1464 4.3193178
1462 5.0792499
1460 5.8759294
1458 6.5997834
1456 7.1089201
1454 7.2789335
1452 7.1303859
1450 6.8534837
1448 6.5786834
1446 6.3096356
1444 6.0321169
1442 5.744596
1440 5.4489284
1438 5.1429305
1436 4.7960415
1434 4.3498507
1432 3.7909212
1430 3.1782587
1428 2.59938
1426 2.1507406
1424 1.8818932
1422 1.7724072
1420 1.7758887
1418 1.8360999
1416 1.9227371
1414 2.045891
1412 2.2276134
1410 2.4906569
1408 2.8388474
1406 3.2495587
1404 3.6996164
1402 4.1718774
1400 4.641964
1398 5.073194
1396 5.4261928
1394 5.6653867
1392 5.778511
1390 5.7848339
1388 5.7028761
1386 5.5408449
1384 5.3096995
1382 5.0283823
1380 4.7198582
1378 4.4072599
1376 4.096374
1374 3.7695339
1372 3.4198761
1370 3.0643952
1368 2.7197616
1366 2.3913064
1364 2.0644062
1362 1.7030233
1360 1.2971697
1358 0.88500613
1356 0.51658887
1354 0.23903191
1352 0.071047433
1350 -0.01072379
1348 -0.027833117
1346 0.016349357
1344 0.12415292
1342 0.29610175
1340 0.50623882
1338 0.68883014
1336 0.78342086
1334 0.75836676
1332 0.62239176
1330 0.43795669
1328 0.26834241
1326 0.15654635
1324 0.1307864
1322 0.20042759
1320 0.3592591
1318 0.58093768
1316 0.82735896
1314 1.0506814
1312 1.2153955
1310 1.3122492
1308 1.3476063
1306 1.3430036
1304 1.3176
1302 1.2809099
1300 1.2414402
1298 1.2104729
1296 1.1998857
1294 1.2208027
1292 1.2790318
1290 1.3712547
1288 1.4911799
1286 1.6304957
1284 1.7779135
1282 1.9176227
1280 2.0365012
1278 2.1290276
1276 2.20102
1274 2.2754619
1272 2.3785553
1270 2.5342848
1268 2.7608628
1266 3.0659964
1264 3.4506884
1262 3.9073691
1260 4.423902
1258 4.9843454
1256 5.5770516
1254 6.199966
1252 6.8511224
1250 7.5237784
1248 8.203083
1246 8.8622255
1244 9.4799652
1242 10.052554
1240 10.586788
1238 11.099608
1236 11.596629
1234 12.050813
1232 12.42004
1230 12.646995
1228 12.693131
1226 12.568957
1224 12.300829
1222 11.929803
1220 11.491683
1218 11.00148
1216 10.471371
1214 9.9146643
1212 9.3447914
1210 8.7710295
1208 8.199605
1206 7.6303849
1204 7.0620761
1202 6.492815
1200 5.9164166
1198 5.3190041
1196 4.6933999
1194 4.0520372
1192 3.4222765
1190 2.8506
1188 2.3692932
1186 1.9701079
1184 1.6335744
1182 1.3383181
1180 1.0802921
1178 0.89131486
1176 0.79656398
1174 0.78643286
1172 0.83161986
1170 0.87956113
1168 0.88904154
1166 0.85723788
1164 0.7986396
1162 0.74468189
1160 0.71855795
1158 0.71512192
1156 0.71643811
1154 0.69213444
1152 0.61988515
1150 0.50330091
1148 0.35762879
1146 0.21045142
1144 0.088715248
1142 0.010668529
1140 -0.01143078
1138 0.025582932
1136 0.12341114
1134 0.28549069
1132 0.51639962
1130 0.82220232
1128 1.2071869
1126 1.6695721
1124 2.1984632
1122 2.7639403
1120 3.3282359
1118 3.8470802
1116 4.2865644
1114 4.6441851
1112 4.9354701
1110 5.2016888
1108 5.481822
1106 5.7925649
1104 6.1347227
1102 6.4833078
1100 6.8151169
1098 7.1286907
1096 7.4333429
1094 7.7525849
1092 8.110034
1090 8.5213165
1088 8.9953566
1086 9.5286894
1084 10.10308
1082 10.668554
1080 11.167651
1078 11.53734
1076 11.732657
1074 11.75854
1072 11.653766
1070 11.505335
1068 11.397454
1066 11.372528
1064 11.44008
1062 11.54679
1060 11.631803
1058 11.664761
1056 11.630172
1054 11.538539
1052 11.394826
1050 11.18742
1048 10.900479
1046 10.528
1044 10.075799
1042 9.5824747
1040 9.0917702
1038 8.6490383
1036 8.28372
1034 7.979691
1032 7.7049947
1030 7.4151678
1028 7.0716934
1026 6.6630592
1024 6.1905775
1022 5.6743302
1020 5.1448727
1018 4.6505423
1016 4.231523
1014 3.8898702
1012 3.6054258
1010 3.3196657
1008 2.9853001
1006 2.6184587
1004 2.2579255
1002 1.9619875
1000 1.7670703
998 1.6265503
996 1.4783857
994 1.278936
992 1.0136609
990 0.7466116
988 0.54593849
986 0.42968172
984 0.39073503
982 0.381363
980 0.3614004
978 0.34825408
976 0.36995715
974 0.44213018
972 0.56653923
970 0.70919526
968 0.83641863
966 0.94519895
964 1.0402014
962 1.12613
960 1.2015114
958 1.242911
956 1.2269686
954 1.1491119
952 1.0095489
950 0.80915159
948 0.56181741
946 0.32649821
944 0.14968571
942 -0.0055837482
940 -0.17429757
938 -0.31049019
936 -0.37297773
934 -0.41049945
932 -0.48155564
930 -0.59802175
928 -0.75092143
926 -0.89703494
924 -0.98768741
922 -0.98605967
920 -0.87824905
918 -0.72554725
916 -0.6088863
914 -0.61237305
912 -0.79767203
910 -1.136902
908 -1.5662638
906 -1.9688529
904 -2.2411149
902 -2.3830705
900 -2.4226191
898 -2.3943141
896 -2.3343
