##TITLE=Methyl Ethyl Ketone
##JCAMP-DX=4.24
##DATA TYPE=INFRARED SPECTRUM
##XUNITS=cm-1
##YUNITS=Absorbance
##FIRSTX=900
##LASTX=2300
##XYDATA=(X++(Y..Y))
2296 0.074822001
2294 0.07637877
2292 0.077935547
2290 0.079491325
2288 0.081048086
2286 0.082604863
2284 0.084161632
2282 0.085718416
2280 0.087274194
2278 0.088830955
2276 0.090387732
2274 0.091945484
2272 0.093500309
2270 0.095053121
2268 0.096613735
2266 0.098184295
2264 0.099727683
2262 0.1012334
2260 0.1028386
2258 0.1045825
2256 0.10596085
2254 0.1068051
2252 0.10904802
2250 0.11325937
2248 0.11227012
2246 0.097806215
2244 0.065696068
2242 0.014569283
2240 -0.050430119
2238 -0.11882738
2236 -0.16599528
2234 -0.17086627
2232 -0.1428104
2230 -0.10000119
2228 -0.060552195
2226 -0.03847545
2224 -0.031670399
2222 -0.034149282
2220 -0.043282665
2218 -0.056933012
2216 -0.070696801
2214 -0.081940442
2212 -0.098007001
2210 -0.12738185
2208 -0.17098033
2206 -0.22412142
2204 -0.26894081
2202 -0.28647721
2200 -0.26958138
2198 -0.218133
2196 -0.14525571
2194 -0.068316363
2192 -0.0052235913
2190 0.029331142
2188 0.034205578
2186 0.015210036
2184 -0.01104528
2182 -0.027251165
2180 -0.026997553
2178 -0.0090112491
2176 0.021688897
2174 0.059020326
2172 0.10061859
2170 0.1443436
2168 0.1837979
2166 0.21258856
2164 0.23012334
2162 0.23909514
2160 0.24741885
2158 0.26278809
2156 0.28493601
2154 0.31122983
2152 0.34054926
2150 0.37149253
2148 0.39898407
2146 0.4161357
2144 0.41369596
2142 0.38595599
2140 0.34474576
2138 0.30759266
2136 0.2899363
2134 0.30288681
2132 0.34353212
2130 0.40355656
2128 0.47283921
2126 0.53939748
2124 0.58583134
2122 0.59628916
2120 0.56973231
2118 0.51290613
2116 0.44217831
2114 0.37475529
2112 0.31732577
2110 0.27350396
2108 0.2507875
2106 0.25734326
2104 0.29753226
2102 0.36997694
2100 0.4558728
2098 0.53200632
2096 0.5842557
2094 0.60605669
2092 0.60653538
2090 0.59893215
2088 0.58891881
2086 0.57854998
2084 0.56836849
2082 0.55951917
2080 0.55775177
2078 0.56865418
2076 0.58925653
2074 0.61352855
2072 0.63719004
2070 0.65777177
2068 0.67675668
2066 0.6955899
2064 0.70898509
2062 0.71020544
2060 0.69844157
2058 0.67713279
2056 0.65678626
2054 0.64914501
2052 0.65920073
2050 0.68711227
2048 0.72524565
2046 0.76258248
2044 0.78716075
2042 0.78887534
2040 0.76649696
2038 0.7253415
2036 0.68228227
2034 0.6570974
2032 0.66165811
2030 0.7008028
2028 0.76540041
2026 0.84052175
2024 0.91198397
2022 0.96667665
2020 0.99318278
2018 0.98382407
2016 0.94358003
2014 0.88427162
2012 0.82266355
2010 0.77499759
2008 0.74715924
2006 0.73976076
2004 0.75157291
2002 0.77995825
2000 0.81864595
1998 0.86129755
1996 0.90832645
1994 0.96177572
1992 1.0167441
1990 1.0637081
1988 1.0887879
1986 1.0797086
1984 1.0393744
1982 0.9790293
1980 0.91449821
1978 0.8620432
1976 0.83287632
1974 0.8325119
1972 0.85309899
1970 0.88005382
1968 0.89734781
1966 0.89266795
1964 0.87083107
1962 0.84482247
1960 0.8260504
1958 0.82078767
1956 0.81924939
1954 0.80660963
1952 0.78100711
1950 0.75026006
1948 0.73295188
1946 0.74697495
1944 0.78554732
1942 0.82871461
1940 0.85627162
1938 0.85455436
1936 0.8342557
1934 0.81756687
1932 0.8213048
1930 0.85471582
1928 0.91091746
1926 0.974244
1924 1.0270305
1922 1.0536311
1920 1.0491645
1918 1.01723
1916 0.97356462
1914 0.93745697
1912 0.9162972
1910 0.90849763
1908 0.90395039
1906 0.89067262
1904 0.86644876
1902 0.8368417
1900 0.81595969
1898 0.81926483
1896 0.84925717
1894 0.89722109
1892 0.93900818
1890 0.94633424
1888 0.90827101
1886 0.82799017
1884 0.72354901
1882 0.61957079
1880 0.53608096
1878 0.48883373
1876 0.489712
1874 0.54469854
1872 0.64229465
1870 0.75758213
1868 0.85107768
1866 0.88371658
1864 0.85221571
1862 0.7777288
1860 0.69139314
1858 0.62359619
1856 0.58453345
1854 0.57264602
1852 0.59023076
1850 0.63939321
1848 0.70500559
1846 0.76115286
1844 0.78282487
1842 0.75450581
1840 0.69539988
1838 0.64404422
1836 0.62917459
1834 0.664473
1832 0.73432595
1830 0.80549228
1828 0.84494913
1826 0.82837647
1824 0.76114357
1822 0.66837817
1820 0.5792442
1818 0.520123
1816 0.50262225
1814 0.52535814
1812 0.57205147
1810 0.61936229
1808 0.65113664
1806 0.65962845
1804 0.64896125
1802 0.63091189
1800 0.61912757
1798 0.62498987
1796 0.64777285
1794 0.67496389
1792 0.67792678
1790 0.62685907
1788 0.53190207
1786 0.430424
1784 0.35352612
1782 0.32058069
1780 0.33356088
1778 0.38292161
1776 0.45718428
1774 0.54163188
1772 0.60647613
1770 0.6152761
1768 0.54972696
1766 0.41483971
1764 0.25717819
1762 0.13556987
1760 0.037269231
1758 -0.090497687
1756 -0.23058429
1754 -0.31675652
1752 -0.32425451
1750 -0.27172029
1748 -0.20200026
1746 -0.16539714
1744 -0.18864492
1742 -0.27111039
1740 -0.37420639
1738 -0.4420827
1736 -0.457544
1734 -0.4396047
1732 -0.42397675
1730 -0.44503939
1728 -0.49404716
1726 -0.52592355
1724 -0.48437038
1722 -0.31237099
1720 0.033409476
1718 0.57024789
1716 1.2452536
1714 1.9594631
1712 2.6452572
1710 3.2884302
1708 3.972486
1706 4.8536677
1704 6.0915885
1702 7.8376775
1700 10.244886
1698 13.397689
1696 17.038713
1694 20.668949
1692 23.94759
1690 26.776989
1688 29.40696
1686 32.311134
1684 35.813797
1682 39.975796
1680 44.387077
1678 48.387833
1676 51.865028
1674 55.223873
1672 58.881424
1670 63.092857
1668 67.696167
1666 72.225098
1664 76.375053
1662 80.055305
1660 83.265511
1658 86.057487
1656 88.521286
1654 90.761566
1652 92.833542
1650 94.705658
1648 96.15966
1646 96.881966
1644 96.838654
1642 96.244179
1640 95.196678
1638 93.625153
1636 91.364159
1634 88.247009
1632 84.382187
1630 80.113007
1628 75.679893
1626 71.168633
1624 66.591599
1622 61.939308
1620 57.297558
1618 52.837864
1616 48.689598
1614 44.919483
1612 41.563465
1610 38.630188
1608 36.07906
1606 33.832363
1604 31.837763
1602 30.077938
1600 28.557503
1598 27.291876
1596 26.2745
1594 25.474003
1592 24.852549
1590 24.375269
1588 24.032059
1586 23.837814
1584 23.805555
1582 23.947149
1580 24.296629
1578 24.905279
1576 25.804943
1574 26.986258
1572 28.3599
1570 29.771185
1568 31.116961
1566 32.37355
1564 33.565166
1562 34.783157
1560 36.273308
1558 38.355904
1556 40.979942
1554 43.682529
1552 46.006046
1550 47.658257
1548 48.702282
1546 49.518997
1544 50.334007
1542 51.109074
1540 51.685299
1538 51.85585
1536 51.54163
1534 50.830414
1532 49.888988
1530 48.913406
1528 47.989456
1526 47.062351
1524 46.026871
1522 44.764271
1520 43.206806
1518 41.37109
1516 39.384628
1514 37.446823
1512 35.581799
1510 33.589142
1508 31.254675
1506 28.454258
1504 25.341223
1502 22.343164
1500 19.733789
1498 17.51454
1496 15.566143
1494 13.702826
1492 11.803668
1490 9.8511753
1488 7.8644123
1486 5.8933015
1484 4.0464859
1482 2.483289
1480 1.2925611
1478 0.47304061
1476 0.06992843
1474 0.17735103
1472 0.71947491
1470 1.41423
1468 2.0670414
1466 2.6582878
1464 3.2319715
1462 3.8595762
1460 4.5820093
1458 5.3798413
1456 6.15488
1454 6.7380157
1452 7.028758
1450 7.0429621
1448 6.8492384
1446 6.5480962
1444 6.2180023
1442 5.894403
1440 5.5824714
1438 5.2565966
1436 4.8725214
1434 4.3795052
1432 3.7777362
1430 3.1392341
1428 2.5507479
1426 2.0910993
1424 1.8031503
1422 1.6800048
1420 1.6936154
1418 1.8024743
1416 1.9687057
1414 2.167177
1412 2.3934221
1410 2.6674194
1408 3.0068903
1406 3.4164314
1404 3.8881073
1402 4.3991389
1400 4.9192562
1398 5.41223
1396 5.8409071
1394 6.1706381
1392 6.3777251
1390 6.4539304
1388 6.3960671
1386 6.2056599
1384 5.8975616
1382 5.5052729
1380 5.068758
1378 4.6286144
1376 4.2083516
1374 3.8055675
1372 3.4133799
1370 3.0264421
1368 2.6374938
1366 2.236213
1364 1.813848
1362 1.3688513
1360 0.92300081
1358 0.52925771
1356 0.23383002
1354 0.058088005
1352 -0.0020991862
1350 0.019546323
1348 0.093989357
1346 0.21106929
1344 0.36998719
1342 0.57483697
1340 0.81108731
1338 1.0331616
1336 1.1931
1334 1.2555133
1332 1.2183106
1330 1.127928
1328 1.033766
1326 0.97080892
1324 0.96260613
1322 1.0178207
1320 1.1336315
1318 1.2926446
1316 1.4679
1314 1.623611
1312 1.731884
1310 1.7828797
1308 1.7794943
1306 1.7386607
1304 1.679232
1302 1.617331
1300 1.5676309
1298 1.5433575
1296 1.5569857
1294 1.6202089
1292 1.7394459
1290 1.9115994
1288 2.125972
1286 2.3625143
1284 2.6018684
1282 2.8298304
1280 3.0383308
1278 3.2286777
1276 3.4060214
1274 3.5791659
1272 3.7595222
1270 3.9617078
1268 4.1997614
1266 4.4847665
1264 4.8241329
1262 5.2202673
1260 5.6727319
1258 6.1779494
1256 6.7297831
1254 7.3188252
1252 7.9374175
1250 8.5828514
1248 9.2529573
1246 9.943675
1244 10.643011
1242 11.323643
1240 11.954531
1238 12.504059
1236 12.944757
1234 13.259941
1232 13.43488
1230 13.459336
1228 13.327477
1226 13.040771
1224 12.605018
1222 12.036547
1220 11.359974
1218 10.61352
1216 9.8421717
1214 9.0972042
1212 8.4196959
1210 7.8244634
1208 7.3103943
1206 6.8556485
1204 6.4338059
1202 6.0188975
1200 5.5866446
1198 5.117094
1196 4.5978861
1194 4.0325007
1192 3.4368486
1190 2.8453238
1188 2.2941933
1186 1.8134507
1184 1.4230268
1182 1.1240919
1180 0.9097181
1178 0.76545328
1176 0.67562401
1174 0.62580168
1172 0.6033687
1170 0.59931755
1168 0.60765862
1166 0.6270681
1164 0.6565246
1162 0.69281787
1160 0.72911197
1158 0.75192654
1156 0.74883813
1154 0.71373576
1152 0.64429855
1150 0.54366505
1148 0.41848701
1146 0.28089821
1144 0.148334
1142 0.04679383
1140 -0.0015457371
1138 0.011049375
1136 0.082931377
1134 0.19895171
1132 0.34554964
1130 0.52115494
1128 0.73200583
1126 0.99507827
1124 1.3200966
1122 1.6922804
1120 2.084096
1118 2.4530771
1116 2.7693386
1114 3.0425622
1112 3.2932091
1110 3.5432944
1108 3.8057952
1106 4.0698948
1104 4.3227801
1102 4.5626698
1100 4.7977433
1098 5.0536613
1096 5.3527713
1094 5.6973853
1092 6.0800543
1090 6.480803
1088 6.8829002
1086 7.2843771
1084 7.6792603
1082 8.0422707
1080 8.3431053
1078 8.5534658
1076 8.6618414
1074 8.7005186
1072 8.7087154
1070 8.7145128
1068 8.7322493
1066 8.7474785
1064 8.7440081
1062 8.7204351
1060 8.681076
1058 8.6345873
1056 8.5840654
1054 8.5129147
1052 8.4001141
1050 8.2252026
1048 7.9756408
1046 7.6620536
1044 7.3066678
1042 6.9480481
1040 6.6257634
1038 6.3698006
1036 6.1946201
1034 6.0750442
1032 5.9705653
1030 5.8239727
1028 5.5883589
1026 5.2593298
1024 4.851459
1022 4.4054599
1020 3.9623733
1018 3.5463252
1016 3.1722031
1014 2.8413117
1012 2.5506063
1010 2.295332
1008 2.0711679
1006 1.8755307
1004 1.70425
1002 1.5471264
1000 1.3907342
998 1.2183431
996 1.0169015
994 0.78934222
992 0.54820883
990 0.32452431
988 0.14688332
986 0.021158703
984 -0.058285337
982 -0.11606541
980 -0.17455681
978 -0.23319802
976 -0.28083485
974 -0.29015756
972 -0.23629826
970 -0.11619024
968 0.060318381
966 0.25816751
964 0.44127035
962 0.59134829
960 0.6977765
958 0.76091617
956 0.78145444
954 0.75169516
952 0.66511518
950 0.52678478
948 0.35395825
946 0.19610193
944 0.089564204
942 -0.0037660822
940 -0.11735932
938 -0.20193061
936 -0.20486799
934 -0.13619125
932 -0.026387878
930 0.076426491
928 0.12692097
926 0.1066942
924 0.018569857
922 -0.080717869
920 -0.13272721
918 -0.12353743
916 -0.059637062
914 0.017095201
912 0.065594241
910 0.081962183
908 0.073084235
906 0.05166544
904 0.028786069
902 0.0034521613
900 -0.023508675
898 -0.032071408
896 0.0025927001
