Image.
>Pix99999.
  .
5555
5555
2300
900
5555
2
1
0
701
5555
4.7974002e-002
4.8971575e-002
4.9970143e-002
5.0967719e-002
5.1966287e-002
5.2963868e-002
5.3961437e-002
5.4960001e-002
5.5957582e-002
5.6956142e-002
5.7953730e-002
5.8952287e-002
5.9949875e-002
6.0946468e-002
6.1945979e-002
6.2948480e-002
6.3942254e-002
6.4924128e-002
6.5937869e-002
6.6997170e-002
6.7936227e-002
6.8706021e-002
6.9923252e-002
7.1771525e-002
7.1956612e-002
6.6372000e-002
4.6402358e-002
6.7321393e-003
-3.9606269e-002
-7.7312984e-002
-1.0285565e-001
-1.1898250e-001
-1.4000629e-001
-1.7958978e-001
-2.3554114e-001
-2.9790300e-001
-3.4433278e-001
-3.5358468e-001
-3.2347071e-001
-2.6364642e-001
-2.0895687e-001
-1.9391268e-001
-2.2156739e-001
-2.7910298e-001
-3.2798588e-001
-3.3204928e-001
-2.9573891e-001
-2.3664886e-001
-1.7479418e-001
-1.2352850e-001
-6.7103207e-002
1.3566472e-002
1.1420695e-001
2.2013476e-001
3.0483326e-001
3.4302008e-001
3.2915160e-001
2.6783752e-001
1.7895994e-001
8.7770492e-002
2.1709485e-002
1.7240553e-003
1.9716842e-002
5.6641370e-002
8.7792076e-002
9.2353277e-002
7.2189033e-002
3.6130443e-002
-9.7220344e-003
-5.9017718e-002
-9.9838100e-002
-1.1843178e-001
-1.0142840e-001
-4.2033255e-002
4.0241279e-002
1.2001918e-001
1.8523268e-001
2.3221670e-001
2.7164659e-001
3.1366470e-001
3.4588173e-001
3.4978256e-001
3.1519553e-001
2.3932768e-001
1.3643360e-001
2.6460050e-002
-7.2103329e-002
-1.4278118e-001
-1.7450714e-001
-1.6203637e-001
-1.1617600e-001
-5.5725612e-002
-8.3160084e-003
1.0143418e-003
-2.9218184e-002
-8.6431123e-002
-1.3696671e-001
-1.4641212e-001
-1.0898420e-001
-3.4752458e-002
4.7216289e-002
1.0622817e-001
1.3350540e-001
1.3187048e-001
1.1578795e-001
1.0058145e-001
8.7484069e-002
7.0954204e-002
4.1106068e-002
-7.5930003e-003
-5.6314219e-002
-7.8700617e-002
-5.8128919e-002
9.8310458e-003
9.6941940e-002
1.6693456e-001
2.0484416e-001
2.0996848e-001
2.0189671e-001
2.0289280e-001
2.1279286e-001
2.2064407e-001
2.1122828e-001
1.7201078e-001
1.0751496e-001
3.0384036e-002
-4.3357842e-002
-9.9530689e-002
-1.3628268e-001
-1.5728942e-001
-1.6683228e-001
-1.6888215e-001
-1.6619810e-001
-1.6119841e-001
-1.5718828e-001
-1.5399401e-001
-1.3513446e-001
-8.2291894e-002
-2.7507171e-004
9.1190301e-002
1.5494001e-001
1.5724815e-001
1.0971381e-001
4.4849925e-002
-5.6539942e-003
-1.9227400e-002
-5.1190704e-003
1.4249652e-002
2.2643967e-002
1.1336719e-002
-1.2553564e-002
-3.7729695e-002
-6.5807685e-002
-1.0458443e-001
-1.6015801e-001
-2.3457471e-001
-3.1769410e-001
-3.9556962e-001
-4.6262789e-001
-5.1530182e-001
-5.3953713e-001
-5.1817483e-001
-4.4388959e-001
-3.2274196e-001
-1.9583502e-001
-1.1381249e-001
-9.5330551e-002
-1.3360658e-001
-1.8626720e-001
-2.0314386e-001
-1.7224871e-001
-1.0630623e-001
-3.6069822e-002
5.5340333e-003
9.3296254e-003
-1.8093251e-002
-5.7276268e-002
-8.6270072e-002
-9.6963756e-002
-9.0892501e-002
-7.8186713e-002
-7.1733885e-002
-7.9387158e-002
-1.0376941e-001
-1.3772446e-001
-1.6844629e-001
-1.8013857e-001
-1.6262633e-001
-1.3544942e-001
-1.2898821e-001
-1.5033287e-001
-1.8890814e-001
-2.1843320e-001
-2.1373558e-001
-1.8700203e-001
-1.6884221e-001
-1.7726479e-001
-2.1550855e-001
-2.6096880e-001
-2.8019723e-001
-2.5234142e-001
-1.7366043e-001
-7.8712299e-002
-2.0955112e-002
-4.4366669e-002
-1.7135960e-001
-3.6192042e-001
-5.4531747e-001
-6.7137092e-001
-7.1559912e-001
-6.9929701e-001
-6.6383642e-001
-6.2712121e-001
-5.9017551e-001
-5.5151594e-001
-5.1306826e-001
-4.9120983e-001
-5.0455099e-001
-5.4322827e-001
-5.8012986e-001
-5.9168971e-001
-5.6345367e-001
-5.0365645e-001
-4.3540302e-001
-3.8795039e-001
-3.8752428e-001
-4.3627557e-001
-5.1879215e-001
-6.0917896e-001
-6.8004566e-001
-7.1950656e-001
-7.2539240e-001
-6.9297594e-001
-6.1979532e-001
-5.2593625e-001
-4.4572729e-001
-4.1131616e-001
-4.4348687e-001
-5.2557439e-001
-6.1780149e-001
-6.8410516e-001
-6.9947094e-001
-6.6548938e-001
-5.9992492e-001
-5.1739448e-001
-4.2981350e-001
-3.5509521e-001
-3.1247461e-001
-3.0680102e-001
-3.2730848e-001
-3.3863500e-001
-2.9814690e-001
-2.0006560e-001
-6.6503197e-002
7.6104797e-002
2.0384422e-001
3.0265167e-001
3.6752984e-001
4.0405059e-001
4.2405581e-001
4.3831685e-001
4.5248255e-001
4.5601532e-001
4.2965510e-001
3.6541754e-001
2.6892507e-001
1.6472720e-001
8.2783304e-002
2.1538777e-002
-3.6563575e-002
-7.0777774e-002
-3.6931243e-002
7.4074358e-002
2.3483071e-001
3.8695809e-001
4.6171033e-001
4.2869172e-001
2.9975805e-001
1.3910630e-001
3.3783883e-002
1.6013399e-002
6.3155174e-002
1.1149117e-001
8.6328909e-002
-2.4306100e-002
-1.7357473e-001
-2.7930373e-001
-2.4057040e-001
3.9693028e-002
6.2401813e-001
1.4406900e+000
2.3218782e+000
3.1338766e+000
3.8180232e+000
4.4693642e+000
5.2990074e+000
6.5245686e+000
8.3371420e+000
1.0861289e+001
1.4103779e+001
1.7762571e+001
2.1338640e+001
2.4544065e+001
2.7370510e+001
3.0157429e+001
3.3457745e+001
3.7654221e+001
4.2819702e+001
4.8403202e+001
5.3514866e+001
5.7971844e+001
6.2260132e+001
6.6855331e+001
7.1996933e+001
7.7359665e+001
8.2227097e+001
8.6197685e+001
8.9247375e+001
9.1511688e+001
9.3192116e+001
9.4423203e+001
9.5254639e+001
9.5674881e+001
9.5629967e+001
9.5050652e+001
9.3897682e+001
9.2316963e+001
9.0585701e+001
8.8831963e+001
8.7000710e+001
8.4930702e+001
8.2422554e+001
7.9412109e+001
7.5962456e+001
7.2106247e+001
6.7833481e+001
6.3178440e+001
5.8244808e+001
5.3227184e+001
4.8377377e+001
4.3873856e+001
3.9807091e+001
3.6228874e+001
3.3157742e+001
3.0547344e+001
2.8298508e+001
2.6337530e+001
2.4634220e+001
2.3196285e+001
2.2058098e+001
2.1236000e+001
2.0717531e+001
2.0465378e+001
2.0426760e+001
2.0574121e+001
2.0909407e+001
2.1440073e+001
2.2182421e+001
2.3196514e+001
2.4580889e+001
2.6417171e+001
2.8739973e+001
3.1467871e+001
3.4412655e+001
3.7399998e+001
4.0300400e+001
4.3021774e+001
4.5550648e+001
4.8118736e+001
5.1107319e+001
5.4430641e+001
5.7482399e+001
5.9716824e+001
6.0852844e+001
6.1037773e+001
6.0771000e+001
6.0282551e+001
5.9420586e+001
5.7981701e+001
5.5849567e+001
5.3204830e+001
5.0507156e+001
4.8075855e+001
4.5985760e+001
4.4181087e+001
4.2509251e+001
4.0770489e+001
3.8758896e+001
3.6390415e+001
3.3747993e+001
3.1054056e+001
2.8601316e+001
2.6441280e+001
2.4332985e+001
2.2047245e+001
1.9485935e+001
1.6789497e+001
1.4313833e+001
1.2253623e+001
1.0547951e+001
9.0668001e+000
7.6750751e+000
6.3051500e+000
4.9725709e+000
3.6942782e+000
2.4772413e+000
1.3774800e+000
5.0782549e-001
-4.5685530e-002
-2.3921186e-001
-1.2387037e-003
7.5741589e-001
1.9789582e+000
3.4244440e+000
4.8798704e+000
6.2276044e+000
7.4454298e+000
8.6063757e+000
9.7939177e+000
1.1059287e+001
1.2348001e+001
1.3482411e+001
1.4287018e+001
1.4644347e+001
1.4553828e+001
1.4148250e+001
1.3567745e+001
1.2910360e+001
1.2222503e+001
1.1490900e+001
1.0682271e+001
9.7647886e+000
8.7680416e+000
7.8007450e+000
6.9629164e+000
6.3130999e+000
5.8656492e+000
5.5861630e+000
5.4332132e+000
5.3736119e+000
5.3937368e+000
5.5045280e+000
5.7199588e+000
6.0475101e+000
6.4746990e+000
6.9603453e+000
7.4472146e+000
7.8652101e+000
8.1494761e+000
8.2526388e+000
8.1617851e+000
7.9106932e+000
7.5537715e+000
7.1565924e+000
6.7632484e+000
6.3829799e+000
6.0207806e+000
5.6844082e+000
5.3696284e+000
5.0513611e+000
4.6881857e+000
4.2282748e+000
3.6593502e+000
3.0322545e+000
2.4068065e+000
1.8302078e+000
1.3207825e+000
8.5968554e-001
4.4111034e-001
9.2998855e-002
-1.4771365e-001
-2.4212699e-001
-1.5346742e-001
1.4553618e-001
6.4835125e-001
1.2983286e+000
2.0295560e+000
2.7786810e+000
3.4805322e+000
4.0669327e+000
4.4751968e+000
4.6581669e+000
4.6078973e+000
4.3755374e+000
4.0292645e+000
3.6419177e+000
3.2775428e+000
2.9804840e+000
2.7697725e+000
2.6286485e+000
2.5254700e+000
2.4194918e+000
2.2792399e+000
2.0939977e+000
1.8666523e+000
1.6162628e+000
1.3681302e+000
1.1517191e+000
9.9673170e-001
9.3120271e-001
9.7995716e-001
1.1612234e+000
1.4829434e+000
1.9354649e+000
2.4940920e+000
3.1143858e+000
3.7460995e+000
4.3378344e+000
4.8458543e+000
5.2423577e+000
5.5153656e+000
5.6763620e+000
5.7532964e+000
5.7937331e+000
5.8471966e+000
5.9566250e+000
6.1543236e+000
6.4550271e+000
6.8680816e+000
7.4003105e+000
8.0592995e+000
8.8538733e+000
9.7882471e+000
1.0855314e+001
1.2032515e+001
1.3269750e+001
1.4504048e+001
1.5659983e+001
1.6665823e+001
1.7461037e+001
1.7994530e+001
1.8225655e+001
1.8124640e+001
1.7679090e+001
1.6902145e+001
1.5845421e+001
1.4572468e+001
1.3157372e+001
1.1685735e+001
1.0267539e+001
9.0168371e+000
8.0405369e+000
7.4111681e+000
7.1286697e+000
7.1482911e+000
7.3673487e+000
7.6637540e+000
7.9051595e+000
7.9723225e+000
7.7827625e+000
7.3008785e+000
6.5729671e+000
5.6832113e+000
4.7513957e+000
3.8839855e+000
3.1372828e+000
2.5358806e+000
2.0614674e+000
1.6907935e+000
1.4123806e+000
1.2203200e+000
1.1137366e+000
1.0871060e+000
1.1216979e+000
1.1976538e+000
1.2991965e+000
1.4107891e+000
1.5147120e+000
1.5892268e+000
1.6050739e+000
1.5403929e+000
1.3948320e+000
1.1858599e+000
9.5873690e-001
7.5403118e-001
5.8546680e-001
4.5113361e-001
3.2804587e-001
1.9273841e-001
3.4541652e-002
-1.3584715e-001
-2.6671189e-001
-3.1652468e-001
-2.9169655e-001
-2.1284360e-001
-1.0687187e-001
1.6180351e-003
9.8033093e-002
1.7762360e-001
2.5346622e-001
3.3973587e-001
4.4156343e-001
5.5036139e-001
6.3059938e-001
6.5647882e-001
6.4345598e-001
6.2419283e-001
6.4731151e-001
7.4174392e-001
8.7778032e-001
1.0220429e+000
1.1692194e+000
1.3331380e+000
1.5574366e+000
1.8709760e+000
2.2453208e+000
2.6363246e+000
2.9951913e+000
3.2808056e+000
3.4741459e+000
3.5643885e+000
3.5479829e+000
3.4316325e+000
3.2454185e+000
3.0284441e+000
2.8282671e+000
2.6852160e+000
2.6131685e+000
2.6095064e+000
2.6447914e+000
2.6875286e+000
2.7186108e+000
2.7304020e+000
2.7382221e+000
2.7617154e+000
2.8168249e+000
2.9115865e+000
3.0347412e+000
3.1696537e+000
3.2982686e+000
3.4072800e+000
3.4975295e+000
3.5739350e+000
3.6408930e+000
3.6908906e+000
3.6808829e+000
3.5599179e+000
3.2802889e+000
2.8217978e+000
2.2440848e+000
1.6308799e+000
1.0786173e+000
6.6858560e-001
4.2553446e-001
3.4029719e-001
3.4209806e-001
3.4223914e-001
2.4584363e-001
-3.4108460e-003
-3.3602744e-001
-6.5045786e-001
-8.4398258e-001
-8.5643047e-001
-7.6364946e-001
-6.6387254e-001
-6.1855960e-001
-6.5644485e-001
-7.3003185e-001
-7.8353500e-001
-7.9572040e-001
-7.5585800e-001
-6.6001725e-001
-5.1139891e-001
-3.3162957e-001
-1.4978676e-001
-4.2996332e-003
7.5713634e-002
1.0072293e-001
8.8740245e-002
4.9961865e-002
-9.2333928e-003
-8.8598363e-002
-1.7798761e-001
-2.2783770e-001
-1.9357099e-001
-8.2503177e-002
9.0440825e-002
3.2866269e-001
6.2246275e-001
8.9914179e-001
1.0858886e+000
1.1667254e+000
1.1518369e+000
1.0955063e+000
1.0604115e+000
1.0980958e+000
1.2389960e+000
1.4438099e+000
1.6648228e+000
1.8874964e+000
2.1098700e+000
2.3457146e+000
2.6030478e+000
2.8515251e+000
3.0635893e+000
3.2605464e+000
3.4770777e+000
3.7531240e+000
4.1082530e+000
4.4761181e+000
4.7684999e+000
