Image.
>Pix99999.
  .
5555
5555
2300
900
5555
2
1
0
701
5555
2.0466000e-002
2.0901378e-002
2.1335758e-002
2.1771131e-002
2.2205513e-002
2.2639893e-002
2.3075264e-002
2.3509651e-002
2.3945017e-002
2.4379406e-002
2.4814771e-002
2.5249165e-002
2.5684524e-002
2.6118921e-002
2.6554279e-002
2.6988680e-002
2.7423058e-002
2.7858410e-002
2.8292814e-002
2.8728167e-002
2.9162571e-002
2.9597921e-002
3.0032327e-002
3.0467674e-002
3.0902086e-002
3.1337429e-002
1.1645401e-003
8.0149494e-002
1.8430421e-001
2.8331271e-001
3.8143972e-001
3.7861595e-001
3.6679086e-001
3.1609112e-001
2.6992992e-001
2.7487248e-001
2.9315904e-001
3.6057207e-001
4.2174160e-001
4.5588037e-001
4.5722857e-001
3.9025503e-001
3.0257100e-001
1.8766178e-001
9.8414093e-002
4.3251581e-002
2.9497458e-002
5.3566277e-002
8.0945723e-002
1.0895370e-001
1.3089357e-001
1.4932254e-001
1.9824097e-001
2.6064122e-001
3.3264247e-001
4.0748695e-001
4.4423762e-001
4.7219908e-001
4.8798621e-001
5.0212157e-001
5.2425629e-001
5.4501569e-001
5.4158753e-001
5.2977782e-001
4.8308608e-001
4.3168235e-001
3.7549070e-001
3.4169117e-001
3.6646992e-001
4.3471441e-001
5.7411402e-001
7.1964198e-001
8.6339223e-001
9.6153516e-001
1.0084959e+000
1.0079893e+000
9.7008479e-001
9.2375451e-001
8.7425029e-001
8.4526056e-001
8.2761258e-001
8.1323391e-001
7.9976088e-001
7.8882039e-001
7.7866322e-001
8.0029285e-001
8.2931691e-001
8.8028115e-001
9.3331963e-001
9.6068418e-001
9.7950774e-001
9.6196920e-001
9.4505942e-001
9.5428354e-001
9.8297834e-001
1.0589303e+000
1.1308588e+000
1.1785752e+000
1.1934720e+000
1.1593552e+000
1.1253858e+000
1.1010185e+000
1.1129062e+000
1.1608720e+000
1.2106755e+000
1.2578650e+000
1.2680397e+000
1.2541139e+000
1.2237606e+000
1.1864483e+000
1.1676043e+000
1.1567857e+000
1.1903120e+000
1.2379223e+000
1.3074137e+000
1.3810757e+000
1.4099692e+000
1.4281249e+000
1.4254463e+000
1.4220589e+000
1.4371772e+000
1.4526417e+000
1.4564385e+000
1.4506826e+000
1.4265245e+000
1.4035286e+000
1.3897600e+000
1.3903831e+000
1.4098760e+000
1.4342481e+000
1.4602971e+000
1.4780431e+000
1.4874102e+000
1.4907629e+000
1.4903915e+000
1.4851956e+000
1.4772320e+000
1.4846079e+000
1.5002077e+000
1.5208910e+000
1.5432000e+000
1.5289335e+000
1.5022786e+000
1.4871514e+000
1.4761217e+000
1.4799258e+000
1.4818957e+000
1.4441590e+000
1.4012954e+000
1.3799057e+000
1.3840429e+000
1.4489998e+000
1.5191429e+000
1.5667763e+000
1.5832540e+000
1.5548579e+000
1.5143372e+000
1.4717667e+000
1.4185077e+000
1.3535548e+000
1.2933800e+000
1.2399831e+000
1.2567446e+000
1.3260809e+000
1.4147925e+000
1.5096714e+000
1.4986579e+000
1.4311690e+000
1.3366920e+000
1.2334569e+000
1.1975486e+000
1.1860139e+000
1.1665795e+000
1.1436337e+000
1.1145306e+000
1.0843750e+000
1.0588595e+000
1.0229143e+000
9.4417191e-001
8.5542911e-001
7.7488112e-001
7.2129452e-001
7.1718282e-001
7.3494375e-001
7.6491058e-001
8.0611295e-001
8.5760236e-001
9.3130815e-001
1.0260482e+000
1.0932690e+000
1.1310043e+000
1.1109960e+000
1.0519674e+000
9.7672045e-001
8.9587134e-001
7.9560035e-001
6.8514401e-001
5.7394922e-001
4.6294239e-001
4.4053948e-001
4.5952287e-001
5.6718373e-001
7.0433342e-001
8.0738652e-001
8.7237388e-001
8.3013093e-001
7.3685998e-001
6.0979325e-001
4.8358864e-001
3.8783816e-001
3.3643502e-001
3.4749964e-001
4.2361230e-001
5.6664497e-001
6.8332249e-001
7.4094701e-001
6.9118994e-001
5.4592061e-001
4.0142229e-001
2.7989474e-001
1.9067743e-001
1.2247674e-001
4.1516580e-002
-5.0579175e-002
-1.2166960e-001
-1.7953500e-001
-1.8571362e-001
-1.6513807e-001
-1.1615562e-001
-4.9549595e-002
5.8634657e-002
1.9649741e-001
3.8952863e-001
5.9166270e-001
7.3775035e-001
7.9408109e-001
6.7339200e-001
4.5186993e-001
1.7110068e-001
-8.2837671e-002
-2.5032657e-001
-3.2637289e-001
-3.1595880e-001
-2.5201389e-001
-1.5807514e-001
-4.9117137e-002
6.6093057e-002
1.5391783e-001
2.1523005e-001
2.5703120e-001
2.8791857e-001
3.6614031e-001
4.7925720e-001
5.3944278e-001
5.6297547e-001
5.0021100e-001
3.9248350e-001
3.2277822e-001
2.8721261e-001
3.3756268e-001
4.5537570e-001
6.6586202e-001
8.9227861e-001
1.0199916e+000
1.0152570e+000
8.0369002e-001
5.1173222e-001
2.4808711e-001
5.8190458e-002
-1.0384022e-001
-2.0187671e-001
-2.0050554e-001
-7.1334302e-002
1.7159289e-001
3.8768283e-001
5.3741574e-001
4.9850115e-001
2.9630226e-001
1.2393069e-001
5.9201419e-003
8.1728794e-002
3.0025280e-001
4.1335413e-001
4.3375647e-001
2.2760537e-001
-1.0892272e-001
-2.9373842e-001
-3.0949619e-001
2.8765023e-002
6.1719012e-001
1.4173515e+000
2.2277834e+000
2.6997612e+000
2.9852464e+000
3.2579439e+000
3.7806699e+000
4.7906094e+000
6.4987531e+000
8.9836378e+000
1.2246160e+001
1.6163286e+001
1.9966930e+001
2.3339151e+001
2.6320059e+001
2.9009302e+001
3.2246578e+001
3.6108860e+001
4.0627949e+001
4.5646160e+001
4.9990929e+001
5.3714085e+001
5.7406696e+001
6.1152851e+001
6.5509430e+001
7.0281425e+001
7.4767944e+001
7.8923553e+001
8.2528290e+001
8.5669708e+001
8.8502090e+001
9.1115173e+001
9.3658905e+001
9.6039658e+001
9.8151138e+001
9.9311768e+001
9.8959679e+001
9.7476364e+001
9.5298508e+001
9.2763161e+001
9.0121010e+001
8.6932297e+001
8.3078072e+001
7.8855118e+001
7.4418961e+001
7.0113663e+001
6.6003441e+001
6.1779240e+001
5.7409508e+001
5.3097591e+001
4.8864590e+001
4.4875542e+001
4.1152149e+001
3.7824738e+001
3.4904972e+001
3.2369835e+001
3.0196365e+001
2.8250818e+001
2.6572725e+001
2.5199652e+001
2.4160700e+001
2.3448502e+001
2.3023478e+001
2.2793858e+001
2.2711172e+001
2.2708300e+001
2.2800915e+001
2.2990538e+001
2.3333870e+001
2.3851906e+001
2.4626835e+001
2.5679399e+001
2.6937969e+001
2.8367903e+001
2.9805740e+001
3.1214359e+001
3.2588722e+001
3.3931232e+001
3.5394714e+001
3.7042553e+001
3.9284389e+001
4.2109074e+001
4.4853779e+001
4.7369331e+001
4.9190521e+001
5.0400269e+001
5.1539680e+001
5.2641788e+001
5.3792255e+001
5.4764961e+001
5.5217533e+001
5.5039856e+001
5.4193497e+001
5.2977226e+001
5.1741287e+001
5.0534889e+001
4.9397598e+001
4.8240536e+001
4.7007942e+001
4.5554840e+001
4.3801178e+001
4.1885784e+001
3.9837799e+001
3.7779881e+001
3.5735683e+001
3.3229671e+001
3.0117344e+001
2.6876469e+001
2.3551514e+001
2.0733244e+001
1.8494839e+001
1.6378143e+001
1.4388268e+001
1.2416451e+001
1.0441264e+001
8.3994493e+000
6.3211107e+000
4.2917500e+000
2.4819028e+000
1.1315663e+000
3.0173710e-001
5.6717284e-002
3.9881372e-001
1.1788962e+000
2.0383620e+000
2.7491302e+000
3.3195677e+000
3.7337096e+000
4.2086062e+000
4.8568692e+000
5.6407595e+000
6.5898600e+000
7.3416104e+000
7.7515574e+000
7.8966680e+000
7.6723142e+000
7.4116464e+000
7.1083155e+000
6.8387561e+000
6.6123595e+000
6.3999233e+000
6.1743641e+000
5.8409204e+000
5.3794804e+000
4.8304515e+000
4.2492023e+000
3.7824335e+000
3.4792531e+000
3.3894529e+000
3.4842031e+000
3.7117810e+000
3.9663913e+000
4.1328588e+000
4.2411475e+000
4.3029294e+000
4.4059429e+000
4.6204839e+000
4.9203119e+000
5.3340201e+000
5.7742357e+000
6.2319713e+000
6.6177926e+000
6.8633566e+000
6.9761944e+000
6.8632059e+000
6.6478534e+000
6.2774000e+000
5.8549924e+000
5.3723197e+000
4.9121032e+000
4.4888415e+000
4.1113858e+000
3.7741413e+000
3.4244640e+000
3.0577059e+000
2.6702001e+000
2.2724042e+000
1.8861381e+000
1.5057489e+000
1.1231585e+000
7.5737673e-001
4.3574029e-001
1.8413803e-001
6.0128078e-002
2.3649834e-002
1.0309064e-001
2.3528357e-001
4.5379561e-001
6.9302154e-001
9.5544350e-001
1.1709489e+000
1.2839372e+000
1.3218104e+000
1.2291732e+000
1.1402770e+000
1.0702103e+000
1.0700729e+000
1.1808163e+000
1.3782338e+000
1.6836760e+000
2.0318763e+000
2.4007699e+000
2.6991737e+000
2.9061348e+000
2.9982314e+000
3.0013483e+000
2.9648144e+000
2.9119389e+000
2.8738492e+000
2.8433220e+000
2.8165491e+000
2.7946715e+000
2.7828991e+000
2.7963808e+000
2.8714962e+000
2.9775839e+000
3.1415999e+000
3.3008795e+000
3.4367597e+000
3.5534263e+000
3.6286554e+000
3.7053330e+000
3.7871871e+000
3.8834064e+000
4.0057230e+000
4.1473804e+000
4.3192720e+000
4.5129027e+000
4.7304087e+000
4.9471121e+000
5.1587887e+000
5.3541088e+000
5.5420589e+000
5.7485104e+000
5.9766383e+000
6.2406030e+000
6.5194750e+000
6.7890191e+000
7.0386038e+000
7.2332792e+000
7.3831415e+000
7.4356513e+000
7.4244337e+000
7.2643518e+000
7.0438352e+000
6.6757154e+000
6.2722459e+000
5.7786021e+000
5.2724352e+000
4.7391596e+000
4.2195568e+000
3.7314427e+000
3.2766523e+000
2.8800671e+000
2.5135465e+000
2.1904142e+000
1.8868799e+000
1.6091920e+000
1.3536297e+000
1.1205357e+000
9.0072113e-001
6.8782502e-001
4.6408391e-001
2.3443441e-001
5.8455020e-003
-2.0969294e-001
-3.7312165e-001
-4.9438006e-001
-5.1252204e-001
-4.7810680e-001
-3.2467923e-001
-1.4160320e-001
9.5510423e-002
3.2508576e-001
5.1237690e-001
6.7696440e-001
7.7134115e-001
8.4624892e-001
8.7412381e-001
8.9857733e-001
9.1656655e-001
9.3526828e-001
9.5043194e-001
9.3676865e-001
8.7945753e-001
7.8104877e-001
6.3801718e-001
4.8161846e-001
3.1713122e-001
1.6864598e-001
4.1298509e-002
-2.9647429e-002
-5.3531703e-002
2.9376537e-002
1.6729598e-001
3.7957817e-001
6.1325788e-001
8.5269088e-001
1.0857301e+000
1.2794640e+000
1.4611243e+000
1.5976458e+000
1.7304258e+000
1.8503509e+000
1.9603063e+000
2.0372882e+000
2.0937650e+000
2.1005726e+000
2.1049411e+000
2.1075726e+000
2.1340179e+000
2.2023287e+000
2.3147771e+000
2.4819260e+000
2.6590850e+000
2.8389943e+000
2.9716642e+000
3.0675993e+000
3.1569991e+000
3.2440960e+000
3.3412340e+000
3.4357657e+000
3.4796965e+000
3.5032852e+000
3.4991200e+000
3.4889450e+000
3.4795706e+000
3.4593401e+000
3.3581891e+000
3.2400372e+000
3.0390432e+000
2.8505287e+000
2.7177444e+000
2.6047506e+000
2.5542221e+000
2.5048733e+000
2.4597857e+000
2.4268794e+000
2.4159608e+000
2.4016149e+000
2.3789749e+000
2.3222899e+000
2.2252164e+000
2.1068816e+000
1.9677857e+000
1.8064208e+000
1.6275635e+000
1.4259617e+000
1.2149880e+000
1.0294034e+000
8.5910559e-001
7.4825454e-001
6.5445352e-001
5.7269466e-001
4.8778906e-001
3.4411842e-001
1.9119062e-001
-1.2646973e-002
-2.0888218e-001
-3.4934029e-001
-4.6420348e-001
-4.6611428e-001
-4.5086738e-001
-3.8330594e-001
-3.2420033e-001
-2.8631350e-001
-2.8010237e-001
-3.3008766e-001
-4.0428400e-001
-5.0872982e-001
-5.8088428e-001
-6.1657029e-001
-5.9593463e-001
-5.3164309e-001
-4.8616546e-001
-4.5597458e-001
-4.9936402e-001
-5.7488483e-001
-6.2954378e-001
-6.7260146e-001
-6.1263591e-001
-5.2947986e-001
-4.1912583e-001
-3.0730879e-001
-2.3888865e-001
-1.6900814e-001
-5.5687502e-002
3.5293698e-003
1.1034435e-001
3.3837855e-001
6.5894043e-001
9.8022223e-001
1.3026389e+000
1.5890026e+000
1.7974521e+000
1.9496263e+000
2.0119843e+000
2.0765462e+000
2.1437776e+000
2.2125051e+000
2.2811742e+000
2.2531199e+000
2.1558211e+000
1.9939566e+000
1.7986350e+000
1.6725446e+000
1.5735494e+000
1.5665977e+000
1.5840856e+000
1.6972680e+000
1.8261440e+000
2.1364999e+000
