Image.
>Pix99999.
  .
5555
5555
2300
900
5555
2
1
0
701
5555
1.8811000e-003
1.9202440e-003
1.9592883e-003
1.9984320e-003
2.0375759e-003
2.0767199e-003
2.1158641e-003
2.1551070e-003
2.1941531e-003
2.2331972e-003
2.2723400e-003
2.3115824e-003
2.3507280e-003
2.3894794e-003
2.4288122e-003
2.4693299e-003
2.5072335e-003
2.5416645e-003
2.5853687e-003
2.6423419e-003
2.6642999e-003
2.6370611e-003
2.7397403e-003
3.0258924e-003
2.8289338e-003
1.5987892e-003
5.7701425e-005
1.3023512e-004
7.1484908e-003
2.5825430e-002
5.4517843e-002
8.7077156e-002
1.0650865e-001
1.0011780e-001
8.5100338e-002
8.3734497e-002
1.0369599e-001
1.4175646e-001
1.6829509e-001
1.5417594e-001
1.0346772e-001
3.4015268e-002
-2.1126160e-002
-3.3208326e-002
-8.9091677e-003
3.4648146e-002
8.1878409e-002
1.1984208e-001
1.4372629e-001
1.5184720e-001
1.4512499e-001
1.2777944e-001
1.1445349e-001
1.1938694e-001
1.4200935e-001
1.7485686e-001
2.0192601e-001
2.0876227e-001
1.9800919e-001
1.7896043e-001
1.6530457e-001
1.6881731e-001
1.8825418e-001
2.1793690e-001
2.5170863e-001
2.8383136e-001
3.1055689e-001
3.2839382e-001
3.3228618e-001
3.1901759e-001
2.9521999e-001
2.7138993e-001
2.6008034e-001
2.7135816e-001
3.0246240e-001
3.4560394e-001
3.9077738e-001
4.2937759e-001
4.6130785e-001
4.8899126e-001
5.1270717e-001
5.3172046e-001
5.4439253e-001
5.4929811e-001
5.4692763e-001
5.3975743e-001
5.3540790e-001
5.4260129e-001
5.6715584e-001
6.0884845e-001
6.4730024e-001
6.5854448e-001
6.3459808e-001
5.7772613e-001
5.0689495e-001
4.4157913e-001
3.7822253e-001
3.0637145e-001
2.2405601e-001
1.3669562e-001
6.5467432e-002
3.0017685e-002
1.8938871e-002
1.0081351e-002
-1.2138666e-002
-5.3422000e-002
-9.1114074e-002
-9.6483029e-002
-6.1674539e-002
8.8753961e-003
9.6163668e-002
1.7857082e-001
2.4647841e-001
2.9732046e-001
3.3673400e-001
3.7144634e-001
3.9964414e-001
4.1357461e-001
3.9595637e-001
3.3078751e-001
2.2344486e-001
9.2211209e-002
-2.8583139e-002
-1.0638121e-001
-1.4256628e-001
-1.5589501e-001
-1.7609541e-001
-2.2808373e-001
-2.9970971e-001
-3.6421162e-001
-4.0137443e-001
-4.0042639e-001
-3.7482548e-001
-3.4399229e-001
-3.0846012e-001
-2.5879252e-001
-1.8101668e-001
-6.8018317e-002
5.1888771e-002
1.3642731e-001
1.5185401e-001
8.1367850e-002
-4.0331803e-002
-1.6095115e-001
-2.5197709e-001
-3.0409643e-001
-3.3736813e-001
-3.7737820e-001
-4.1865143e-001
-4.3997726e-001
-4.1820216e-001
-3.4279913e-001
-2.5678867e-001
-2.2160934e-001
-2.6909959e-001
-4.0233749e-001
-5.6882483e-001
-7.0024949e-001
-7.7033675e-001
-7.7908206e-001
-7.4438745e-001
-6.8766254e-001
-6.1425638e-001
-5.2462447e-001
-4.3437982e-001
-3.6430934e-001
-3.2280329e-001
-3.0783328e-001
-3.0174279e-001
-2.8532615e-001
-2.6441070e-001
-2.5507089e-001
-2.6041052e-001
-2.7532834e-001
-2.9208139e-001
-3.0867499e-001
-3.5121423e-001
-4.5119697e-001
-6.0005885e-001
-7.6407582e-001
-8.9586514e-001
-9.5294052e-001
-9.3756342e-001
-8.7637371e-001
-7.9701203e-001
-7.2152513e-001
-6.5377122e-001
-5.9082019e-001
-5.4219419e-001
-5.2044821e-001
-5.1844305e-001
-5.2005893e-001
-5.1950830e-001
-5.2338982e-001
-5.6335479e-001
-6.7157876e-001
-8.2440919e-001
-9.6529812e-001
-1.0351148e+000
-9.9148738e-001
-8.5959429e-001
-7.0200664e-001
-5.7794130e-001
-5.3265607e-001
-5.7362354e-001
-6.8420476e-001
-8.3483905e-001
-9.9119329e-001
-1.1220754e+000
-1.1983322e+000
-1.1896000e+000
-1.0711994e+000
-8.4723312e-001
-5.5290365e-001
-2.8408781e-001
-1.5485515e-001
-2.0759863e-001
-4.2380968e-001
-7.2043478e-001
-9.9219048e-001
-1.1875172e+000
-1.2915109e+000
-1.2927389e+000
-1.1839336e+000
-9.8392081e-001
-7.3593390e-001
-5.2032733e-001
-4.2213422e-001
-4.5191988e-001
-5.6291741e-001
-6.7040384e-001
-6.8595040e-001
-5.8810705e-001
-4.1244313e-001
-2.5080770e-001
-2.0947492e-001
-3.2026029e-001
-5.5203319e-001
-8.2148457e-001
-1.0262021e+000
-1.1040515e+000
-1.0362487e+000
-8.6701459e-001
-6.7359728e-001
-5.1049936e-001
-4.0221849e-001
-3.2564384e-001
-2.3162103e-001
-8.6178347e-002
1.2156846e-001
3.5991144e-001
5.6386483e-001
6.4057839e-001
5.0984341e-001
2.2021675e-001
-9.5631287e-002
-3.3251381e-001
-4.2711908e-001
-3.6938319e-001
-1.8338421e-001
1.0240600e-001
4.4751874e-001
7.5126177e-001
8.8909054e-001
8.2243401e-001
5.9454840e-001
3.1885520e-001
1.2496786e-001
2.6611252e-002
-3.6631919e-002
-5.7230130e-002
3.0666757e-002
2.7970099e-001
7.0013094e-001
1.1892719e+000
1.5766929e+000
1.7510148e+000
1.6825116e+000
1.4656020e+000
1.2564603e+000
1.1038400e+000
9.5820802e-001
7.4424595e-001
4.0331239e-001
-1.6478583e-002
-3.8385645e-001
-5.6273454e-001
-4.3398720e-001
8.1044137e-002
9.9100244e-001
2.1167800e+000
3.1697114e+000
4.0092783e+000
4.6690989e+000
5.3568821e+000
6.3867102e+000
8.0264454e+000
1.0441729e+001
1.3572443e+001
1.7153601e+001
2.0768715e+001
2.3975199e+001
2.6652939e+001
2.9005280e+001
3.1465778e+001
3.4565281e+001
3.8619923e+001
4.3633381e+001
4.9049679e+001
5.4021950e+001
5.8356644e+001
6.2468544e+001
6.6736748e+001
7.1318649e+001
7.5945793e+001
8.0072250e+001
8.3448753e+001
8.6144989e+001
8.8280678e+001
8.9956902e+001
9.1233772e+001
9.2132164e+001
9.2641502e+001
9.2721527e+001
9.2295128e+001
9.1294891e+001
8.9837524e+001
8.8178146e+001
8.6431686e+001
8.4536240e+001
8.2339355e+001
7.9670998e+001
7.6535370e+001
7.3090073e+001
6.9423737e+001
6.5528946e+001
6.1380360e+001
5.6971722e+001
5.2395729e+001
4.7832485e+001
4.3438744e+001
3.9331753e+001
3.5613373e+001
3.2363918e+001
2.9595686e+001
2.7255150e+001
2.5283186e+001
2.3633564e+001
2.2281046e+001
2.1218685e+001
2.0436001e+001
1.9913069e+001
1.9619040e+001
1.9520035e+001
1.9604477e+001
1.9885242e+001
2.0385195e+001
2.1139530e+001
2.2227745e+001
2.3759985e+001
2.5788828e+001
2.8279837e+001
3.1091393e+001
3.4002995e+001
3.6869400e+001
3.9643669e+001
4.2287350e+001
4.4794979e+001
4.7389977e+001
5.0434109e+001
5.3789230e+001
5.6778770e+001
5.8846424e+001
5.9772274e+001
5.9792149e+001
5.9500748e+001
5.9202126e+001
5.8769600e+001
5.7904400e+001
5.6285248e+001
5.3932659e+001
5.1248444e+001
4.8632195e+001
4.6355247e+001
4.4499596e+001
4.2950150e+001
4.1505741e+001
3.9926338e+001
3.8030098e+001
3.5752842e+001
3.3247128e+001
3.0845551e+001
2.8687241e+001
2.6628281e+001
2.4441648e+001
2.1926222e+001
1.9156828e+001
1.6500843e+001
1.4200903e+001
1.2261780e+001
1.0586443e+001
9.0273027e+000
7.4972997e+000
5.9934173e+000
4.5116944e+000
3.0413394e+000
1.6563532e+000
5.3085059e-001
-1.8274418e-001
-3.8982534e-001
-2.6023448e-002
9.1586095e-001
2.2533212e+000
3.6124680e+000
4.7679739e+000
5.7463717e+000
6.6655207e+000
7.6805682e+000
8.8941069e+000
1.0303013e+001
1.1743800e+001
1.2896366e+001
1.3545866e+001
1.3675729e+001
1.3378223e+001
1.2827965e+001
1.2167174e+001
1.1470000e+001
1.0774497e+001
1.0084640e+001
9.3718443e+000
8.5801373e+000
7.6982331e+000
6.7881060e+000
5.9449220e+000
5.2798600e+000
4.8633776e+000
4.6965227e+000
4.7240601e+000
4.8382697e+000
4.9485803e+000
5.0141697e+000
5.0564041e+000
5.1634417e+000
5.4034142e+000
5.7905388e+000
6.3008952e+000
6.8707695e+000
7.4160199e+000
7.8385925e+000
8.0552425e+000
8.0175686e+000
7.7353911e+000
7.2904367e+000
6.7660604e+000
6.2229347e+000
5.7057972e+000
5.2418571e+000
4.8474789e+000
4.5231233e+000
4.2354488e+000
3.9100962e+000
3.4907620e+000
2.9675491e+000
2.3698468e+000
1.7665250e+000
1.2066178e+000
6.9729310e-001
2.4912496e-001
-1.0636291e-001
-3.2760072e-001
-3.6837396e-001
-2.0339155e-001
1.5524855e-001
6.7192483e-001
1.2907858e+000
1.9743160e+000
2.7154114e+000
3.4781880e+000
4.1683979e+000
4.6750460e+000
4.8940568e+000
4.7963738e+000
4.4725571e+000
4.0359230e+000
3.5902772e+000
3.2200429e+000
2.9758565e+000
2.8693290e+000
2.8569551e+000
2.8724101e+000
2.8374395e+000
2.7051656e+000
2.4884636e+000
2.2217238e+000
1.9517150e+000
1.7166560e+000
1.5354470e+000
1.4232575e+000
1.3966620e+000
1.4740572e+000
1.6754289e+000
2.0140612e+000
2.4880011e+000
3.0762999e+000
3.7297001e+000
4.3905411e+000
5.0001574e+000
5.5164700e+000
5.9290533e+000
6.2452273e+000
6.4904838e+000
6.6922951e+000
6.8740592e+000
7.0611420e+000
7.2847080e+000
7.5767813e+000
7.9669232e+000
8.4725046e+000
9.0889778e+000
9.8070688e+000
1.0618006e+001
1.1513861e+001
1.2489696e+001
1.3533554e+001
1.4628000e+001
1.5746152e+001
1.6852678e+001
1.7896904e+001
1.8801947e+001
1.9485144e+001
1.9868040e+001
1.9887239e+001
1.9521067e+001
1.8782465e+001
1.7737129e+001
1.6470217e+001
1.5079014e+001
1.3664944e+001
1.2333700e+001
1.1179372e+001
1.0273589e+001
9.6615257e+000
9.3389006e+000
9.2701645e+000
9.3775387e+000
9.5649519e+000
9.7204790e+000
9.7413721e+000
9.5558071e+000
9.1272430e+000
8.4804449e+000
7.6695614e+000
6.7802510e+000
5.8973761e+000
5.0868402e+000
4.3961015e+000
3.8410928e+000
3.4208889e+000
3.1143684e+000
2.8974400e+000
2.7507842e+000
2.6606555e+000
2.6229327e+000
2.6308668e+000
2.6667786e+000
2.7090342e+000
2.7328081e+000
2.7158725e+000
2.6430264e+000
2.5033729e+000
2.2921429e+000
2.0126543e+000
1.6836562e+000
1.3305120e+000
9.8535711e-001
6.7640746e-001
4.1878617e-001
2.1412629e-001
4.2147681e-002
-1.0489914e-001
-1.9486339e-001
-2.0282891e-001
-1.4481278e-001
-5.5663846e-002
1.0177271e-002
1.2763519e-002
-3.9948329e-002
-1.1514560e-001
-1.5037872e-001
-1.0361288e-001
-1.0783225e-003
1.0888663e-001
1.6675471e-001
1.3846822e-001
6.0185649e-002
-1.6626213e-002
-4.5530003e-002
6.5458566e-003
1.4199615e-001
3.5762143e-001
6.5439284e-001
1.0308588e+000
1.4762018e+000
1.9710857e+000
2.4799356e+000
2.9609685e+000
3.3674326e+000
3.6591761e+000
3.8179269e+000
3.8408713e+000
3.7523539e+000
3.5851765e+000
3.3765175e+000
3.1619759e+000
2.9679286e+000
2.8092918e+000
2.6746533e+000
2.5473487e+000
2.4144454e+000
2.2743230e+000
2.1532395e+000
2.0701909e+000
2.0057449e+000
1.9316977e+000
1.8232893e+000
1.6802711e+000
1.5681572e+000
1.5546389e+000
1.6643622e+000
1.8863200e+000
2.1362889e+000
2.3197784e+000
2.3661544e+000
2.2381532e+000
1.9816200e+000
1.6674731e+000
1.3790450e+000
1.1758140e+000
1.0361784e+000
9.1883481e-001
7.8334111e-001
6.0674012e-001
4.1750944e-001
2.4539454e-001
8.4831096e-002
-8.4902257e-002
-3.0374962e-001
-5.9895909e-001
-9.4304109e-001
-1.2921643e+000
-1.5943650e+000
-1.8070782e+000
-1.9262723e+000
-1.9621645e+000
-1.9414436e+000
-1.8916594e+000
-1.8305240e+000
-1.7666620e+000
-1.6876918e+000
-1.5779343e+000
-1.4294870e+000
-1.2416381e+000
-1.0326185e+000
-8.2426059e-001
-6.3594949e-001
-4.8311496e-001
-3.7025642e-001
-2.9350761e-001
-2.2970708e-001
-1.5677503e-001
-7.2892196e-002
1.2655281e-002
6.9797195e-002
7.4339449e-002
4.1367371e-002
6.5262727e-003
4.3020919e-002
2.0129083e-001
4.1649300e-001
6.0052001e-001
6.8553370e-001
6.3383633e-001
4.9980915e-001
3.5464257e-001
2.4661471e-001
2.0907821e-001
2.4049143e-001
3.2768315e-001
4.4613335e-001
5.6521159e-001
6.4192915e-001
6.4270914e-001
5.8203340e-001
4.9064234e-001
4.1554150e-001
3.8923836e-001
3.7130103e-001
3.1315446e-001
2.0629957e-001
5.2221000e-002
