Image.
>Pix99999.
  .
5555
5555
2300
900
5555
2
1
0
701
5555
2.4282999e-001
2.4788277e-001
2.5293556e-001
2.5798830e-001
2.6304108e-001
2.6809385e-001
2.7314663e-001
2.7818948e-001
2.8324220e-001
2.8829494e-001
2.9334772e-001
2.9840049e-001
3.0345324e-001
3.0850604e-001
3.1355879e-001
3.1861159e-001
3.2366434e-001
3.2870737e-001
3.3375987e-001
3.3881268e-001
3.4386542e-001
3.4891820e-001
3.5397097e-001
3.5902372e-001
3.6407652e-001
3.6912927e-001
1.4845945e-001
5.3976853e-003
-1.0409280e-001
-9.1297645e-003
1.1583665e-001
3.0143991e-001
4.8575073e-001
5.4414785e-001
5.9044278e-001
5.8841449e-001
5.8243215e-001
5.6968403e-001
5.4174399e-001
4.6865037e-001
4.0659514e-001
3.7422580e-001
3.8210261e-001
4.5282191e-001
4.9698552e-001
5.0321442e-001
4.7369364e-001
4.1204640e-001
3.9339736e-001
4.0844762e-001
4.0851787e-001
3.9865792e-001
3.1578839e-001
2.0118797e-001
1.0564403e-001
1.6975887e-002
2.1201801e-002
4.6689674e-002
1.4902142e-001
2.6271784e-001
3.8196370e-001
5.0172806e-001
6.2205273e-001
7.4968320e-001
9.1893262e-001
1.0838436e+000
1.2179297e+000
1.3086112e+000
1.2963150e+000
1.2536259e+000
1.1732401e+000
1.1096277e+000
1.0760372e+000
1.0606288e+000
1.0624195e+000
1.0576215e+000
1.0455006e+000
1.0226510e+000
9.9280971e-001
9.8068827e-001
9.7859687e-001
1.0096234e+000
1.0542232e+000
1.0916840e+000
1.1265360e+000
1.1190151e+000
1.1016991e+000
1.0517735e+000
9.9881148e-001
9.8570210e-001
9.8990142e-001
1.0807399e+000
1.1823601e+000
1.2759975e+000
1.3508911e+000
1.3731321e+000
1.3932201e+000
1.4257332e+000
1.4607720e+000
1.4971237e+000
1.5179857e+000
1.5182896e+000
1.5058546e+000
1.4833314e+000
1.4223286e+000
1.3307000e+000
1.1834986e+000
1.0024263e+000
8.5666180e-001
7.3182499e-001
7.6059902e-001
8.5217351e-001
1.0242000e+000
1.2202048e+000
1.3642098e+000
1.4930550e+000
1.5211915e+000
1.5178527e+000
1.3909385e+000
1.2455480e+000
1.1322600e+000
1.0650986e+000
1.1411872e+000
1.2386138e+000
1.3182017e+000
1.3399965e+000
1.2564380e+000
1.1549424e+000
1.0569286e+000
1.0008430e+000
9.9434972e-001
9.9477494e-001
9.9308038e-001
9.6873832e-001
9.2699301e-001
9.1381508e-001
9.2085576e-001
9.8939872e-001
1.0884548e+000
1.1491119e+000
1.1918200e+000
1.1611096e+000
1.1060222e+000
1.0937043e+000
1.0934206e+000
1.0995049e+000
1.0984883e+000
1.0357059e+000
9.5725769e-001
8.7952048e-001
8.1539929e-001
7.9220080e-001
8.0078840e-001
8.5748565e-001
9.4836962e-001
1.0777835e+000
1.1846601e+000
1.2473801e+000
1.2279189e+000
1.1272937e+000
1.0261114e+000
9.4093692e-001
9.6997505e-001
1.0840518e+000
1.1960783e+000
1.2968407e+000
1.2328529e+000
1.0827292e+000
9.1090357e-001
7.3442149e-001
6.6100085e-001
6.2623143e-001
6.3853568e-001
6.6580582e-001
6.9867712e-001
7.2346503e-001
6.9524664e-001
6.4925522e-001
5.9689844e-001
5.6584954e-001
5.9518856e-001
6.3075238e-001
6.4321417e-001
6.0077757e-001
4.8174724e-001
3.9855149e-001
3.9031288e-001
5.8022124e-001
9.6253252e-001
1.3301879e+000
1.6418529e+000
1.7076391e+000
1.5958457e+000
1.4180409e+000
1.2197998e+000
1.0180922e+000
8.1609803e-001
6.3935953e-001
4.7420940e-001
4.9559852e-001
5.9852141e-001
8.1291407e-001
1.0575410e+000
1.2122550e+000
1.2865257e+000
1.1621907e+000
9.3335122e-001
6.1117554e-001
2.9386857e-001
6.6947863e-002
-5.5848863e-002
-4.3036491e-002
8.4022686e-002
3.1636909e-001
5.5813706e-001
7.6929587e-001
8.1946301e-001
7.0771581e-001
5.1160860e-001
2.7789098e-001
8.8977948e-002
-5.8069833e-002
-1.5518408e-001
-2.2355276e-001
-2.1825920e-001
-1.7175643e-001
-1.2263889e-001
-7.6974772e-002
-1.2494143e-001
-2.1580209e-001
-2.9041642e-001
-3.3710921e-001
-2.7323681e-001
-1.2376353e-001
1.5444013e-001
4.5286071e-001
6.5325403e-001
6.8813086e-001
4.5753741e-001
9.7037531e-002
-3.0754960e-001
-6.3791305e-001
-8.3738035e-001
-8.9124835e-001
-8.2110512e-001
-6.2962353e-001
-3.5006070e-001
-1.0244198e-001
9.5249087e-002
1.2945390e-001
4.1485846e-002
6.6118529e-003
2.3729786e-002
1.9584356e-001
4.6036834e-001
6.3264942e-001
7.4106908e-001
7.5173283e-001
7.1893460e-001
7.5764340e-001
8.5315543e-001
1.0288601e+000
1.1928948e+000
1.1884120e+000
1.0422344e+000
7.4779820e-001
4.2950317e-001
2.0043388e-001
4.8821941e-002
-2.0636895e-001
-4.6996886e-001
-6.3251638e-001
-5.7772601e-001
-2.9953301e-001
8.5097417e-002
5.0965035e-001
7.2742665e-001
7.3693985e-001
7.1199262e-001
6.9507945e-001
9.6143603e-001
1.4455982e+000
1.7493768e+000
1.8898197e+000
1.5063789e+000
7.9318309e-001
2.0738962e-001
-1.7892325e-001
7.3687434e-002
8.9676088e-001
2.3303628e+000
3.9215190e+000
4.9912148e+000
5.6192822e+000
5.8791561e+000
6.2098484e+000
7.0239120e+000
8.6447811e+000
1.1220863e+001
1.4593833e+001
1.8541857e+001
2.2166380e+001
2.5132511e+001
2.7698784e+001
3.0043316e+001
3.3058449e+001
3.6806515e+001
4.1224876e+001
4.6134560e+001
5.0384014e+001
5.4023289e+001
5.7673698e+001
6.1414188e+001
6.5792648e+001
7.0651253e+001
7.5505348e+001
8.0305496e+001
8.4891785e+001
8.9213737e+001
9.3142410e+001
9.6634972e+001
9.9632683e+001
1.0206800e+002
1.0389863e+002
1.0463223e+002
1.0389928e+002
1.0203252e+002
9.9427254e+001
9.6436111e+001
9.3328438e+001
8.9795616e+001
8.5760437e+001
8.1550865e+001
7.7303497e+001
7.3213852e+001
6.9307289e+001
6.5164642e+001
6.0753544e+001
5.6331779e+001
5.1933468e+001
4.7757599e+001
4.3823883e+001
4.0241886e+001
3.7041271e+001
3.4286869e+001
3.1968508e+001
2.9976965e+001
2.8317776e+001
2.6942102e+001
2.5835531e+001
2.4931999e+001
2.4213938e+001
2.3630463e+001
2.3202473e+001
2.2929647e+001
2.2853628e+001
2.2986149e+001
2.3312090e+001
2.3806202e+001
2.4467484e+001
2.5284714e+001
2.6229204e+001
2.7283554e+001
2.8308910e+001
2.9274321e+001
3.0176435e+001
3.1022526e+001
3.2202503e+001
3.3825874e+001
3.6358883e+001
3.9769485e+001
4.2950428e+001
4.5727291e+001
4.7658176e+001
4.8843765e+001
4.9949574e+001
5.0944233e+001
5.1795837e+001
5.2256359e+001
5.1988827e+001
5.1104828e+001
4.9859035e+001
4.8501419e+001
4.7312424e+001
4.6194336e+001
4.5065601e+001
4.3760723e+001
4.2173485e+001
4.0320469e+001
3.8190014e+001
3.6104870e+001
3.4174549e+001
3.2265598e+001
3.0358767e+001
2.7990871e+001
2.5029236e+001
2.2090361e+001
1.9249613e+001
1.6951277e+001
1.5260170e+001
1.3621858e+001
1.2018330e+001
1.0339170e+001
8.5916452e+000
6.8409243e+000
5.1262484e+000
3.5214739e+000
2.1190152e+000
1.0304863e+000
3.1676802e-001
5.4287042e-002
2.9422262e-001
9.5925248e-001
1.7311411e+000
2.4045827e+000
2.9591365e+000
3.3679955e+000
3.8517156e+000
4.5291486e+000
5.3295851e+000
6.2674599e+000
6.9343076e+000
7.1479893e+000
7.1054339e+000
6.7125530e+000
6.2943034e+000
5.8448224e+000
5.4073029e+000
4.9979630e+000
4.6509161e+000
4.3717699e+000
4.0934839e+000
3.8038907e+000
3.4720292e+000
3.1362081e+000
2.8934171e+000
2.7812634e+000
2.8380144e+000
3.0410533e+000
3.3469455e+000
3.6721315e+000
3.9243331e+000
4.1235771e+000
4.2780099e+000
4.4687977e+000
4.7615428e+000
5.1093869e+000
5.5157709e+000
5.8935437e+000
6.2012415e+000
6.4559784e+000
6.6204209e+000
6.7348247e+000
6.7536530e+000
6.6696091e+000
6.4207702e+000
6.0728302e+000
5.6007361e+000
5.1297560e+000
4.6650863e+000
4.2169914e+000
3.7877100e+000
3.3630199e+000
2.9568925e+000
2.5959046e+000
2.2607808e+000
1.9140635e+000
1.5569410e+000
1.1888252e+000
8.5254270e-001
6.0697013e-001
4.1040659e-001
2.5330892e-001
1.0445191e-001
-4.4347659e-002
-1.3511965e-001
-1.2299800e-001
-2.9797494e-002
2.1568018e-001
4.6324033e-001
6.9687831e-001
8.5455853e-001
8.7148207e-001
8.5327220e-001
7.9059714e-001
7.7553004e-001
8.5256910e-001
1.0561471e+000
1.4213897e+000
1.8608903e+000
2.3397400e+000
2.7062058e+000
2.9429452e+000
3.0518310e+000
3.0685709e+000
3.0657465e+000
3.0525863e+000
3.0406101e+000
3.0258453e+000
3.0005739e+000
2.9603143e+000
2.8872149e+000
2.8103657e+000
2.7430539e+000
2.7063401e+000
2.7463472e+000
2.7986386e+000
2.8679626e+000
2.9215760e+000
2.9410663e+000
2.9607999e+000
2.9866030e+000
3.0433612e+000
3.1579733e+000
3.3203654e+000
3.5484622e+000
3.7905593e+000
4.0415006e+000
4.2669458e+000
4.4749112e+000
4.7067885e+000
4.9823256e+000
5.3517594e+000
5.7901716e+000
6.2672853e+000
6.7459249e+000
7.1638594e+000
7.5460939e+000
7.8851962e+000
8.2119865e+000
8.5376225e+000
8.8251257e+000
8.9900961e+000
9.0577984e+000
8.8497849e+000
8.5650091e+000
8.0828609e+000
7.5905061e+000
7.0762410e+000
6.5741920e+000
6.0933571e+000
5.6003985e+000
5.0895176e+000
4.5856891e+000
4.1013813e+000
3.6692100e+000
3.2986040e+000
2.9536669e+000
2.6265206e+000
2.2773564e+000
1.9065714e+000
1.5106795e+000
1.1005726e+000
6.9049770e-001
2.8891432e-001
-7.7639073e-002
-4.0964150e-001
-6.4697111e-001
-8.2523644e-001
-8.5015774e-001
-8.2430798e-001
-6.7747039e-001
-5.1952744e-001
-3.4732798e-001
-2.0000623e-001
-1.3003667e-001
-8.3427072e-002
-8.9057878e-002
-6.6221572e-002
1.8484958e-002
1.4961243e-001
3.4969753e-001
5.2686685e-001
6.5996629e-001
7.0555979e-001
6.5027070e-001
5.3372455e-001
3.6687875e-001
2.0180379e-001
4.6343841e-002
-6.5845311e-002
-1.3647245e-001
-6.2837780e-002
9.2694193e-002
3.8869950e-001
7.3975194e-001
1.1788489e+000
1.6350642e+000
2.0995440e+000
2.5343485e+000
2.8059928e+000
3.0410061e+000
3.1356902e+000
3.2430851e+000
3.3898389e+000
3.5351400e+000
3.6701639e+000
3.7508597e+000
3.7268224e+000
3.6920125e+000
3.6525428e+000
3.7002528e+000
3.8736861e+000
4.1962295e+000
4.6744571e+000
5.2417870e+000
5.8629413e+000
6.3868976e+000
6.8245444e+000
7.0565519e+000
7.1724901e+000
7.1160712e+000
6.9867997e+000
6.7375975e+000
6.4641905e+000
6.2067509e+000
5.9805880e+000
5.9701047e+000
6.0045066e+000
6.2608533e+000
6.5415940e+000
6.9277081e+000
7.3133669e+000
7.6935792e+000
8.0289631e+000
8.2532110e+000
8.4304199e+000
8.5196314e+000
8.5918159e+000
8.6354303e+000
8.6374102e+000
8.5848465e+000
8.4543295e+000
8.2498541e+000
7.9909630e+000
7.6872029e+000
7.3022780e+000
6.8581228e+000
6.2370768e+000
5.5465508e+000
4.8408833e+000
4.1602430e+000
3.7995794e+000
3.5178416e+000
3.5154719e+000
3.5302448e+000
3.4726539e+000
3.3894458e+000
3.1349669e+000
2.8701997e+000
2.5594788e+000
2.2324820e+000
1.8529880e+000
1.4307945e+000
9.1399205e-001
4.3465656e-001
2.9536217e-002
-2.2289519e-001
-2.6816121e-001
-2.4534461e-001
-1.5562057e-001
-1.1970997e-001
-1.2527925e-001
-1.0850293e-001
-7.1643740e-002
8.7812006e-002
3.0444783e-001
5.5890572e-001
8.1802601e-001
9.1991913e-001
9.8176968e-001
8.9899224e-001
7.9577756e-001
6.2055063e-001
4.3960917e-001
2.1922243e-001
2.1948755e-002
-1.3169795e-003
-3.6978710e-002
6.2686533e-002
1.9999057e-001
4.4959623e-001
7.8034306e-001
1.2829871e+000
1.7541366e+000
2.1728842e+000
2.4864261e+000
2.6725936e+000
2.8659353e+000
3.0655746e+000
3.2352242e+000
3.3830342e+000
3.4785793e+000
3.5484641e+000
3.7950983e+000
4.1118608e+000
4.7639346e+000
5.5041070e+000
6.2746181e+000
7.0490961e+000
7.2560000e+000
