##TITLE=Methyl Ethyl Ketone
##JCAMP-DX=4.24
##DATA TYPE=INFRARED SPECTRUM
##XUNITS=cm-1
##YUNITS=Absorbance
##FIRSTX=900
##LASTX=2300
##XYDATA=(X++(Y..Y))
2296 0.062827997
2294 0.064135127
2292 0.065442257
2290 0.066748396
2288 0.068055518
2286 0.069362648
2284 0.070669778
2282 0.071976908
2280 0.073284037
2278 0.074591167
2276 0.075898297
2274 0.077205427
2272 0.078512557
2270 0.079819687
2268 0.081125841
2266 0.082432948
2264 0.083740078
2262 0.085047208
2260 0.086354338
2258 0.087661467
2256 0.088968597
2254 0.090275727
2252 0.091582857
2250 0.092889987
2248 0.094197117
2246 0.095504247
2244 0.032106414
2242 0.00114399
2240 -0.02715072
2238 -0.023696195
2236 -0.015508728
2234 -0.027098384
2232 -0.042547446
2230 -0.11249465
2228 -0.17821954
2226 -0.1891425
2224 -0.1734053
2222 -0.048383251
2220 0.084481046
2218 0.22350396
2216 0.32514143
2214 0.34433952
2212 0.32040161
2210 0.23400129
2208 0.1597012
2206 0.10526321
2204 0.10065345
2202 0.14281911
2200 0.19642726
2198 0.2562848
2196 0.29243428
2194 0.31469378
2192 0.3097052
2190 0.29318985
2188 0.25362757
2186 0.20680957
2184 0.1641188
2182 0.12248068
2180 0.1270508
2178 0.13915233
2176 0.20450172
2174 0.27130803
2172 0.29913011
2170 0.30856818
2168 0.23385131
2166 0.15737157
2164 0.10443289
2162 0.082452871
2160 0.13373625
2158 0.18482791
2156 0.22138
2154 0.21869884
2152 0.16137235
2150 0.10462058
2148 0.054957047
2146 0.046452999
2144 0.073706113
2142 0.09925814
2140 0.12108652
2138 0.12479297
2136 0.11881314
2134 0.13028504
2132 0.14938824
2130 0.16511653
2128 0.1795128
2126 0.15389764
2124 0.11906037
2122 0.062469266
2120 0.0045949006
2118 -0.014202765
2116 -0.022144342
2114 0.0088409893
2112 0.038098373
2110 0.034337033
2108 0.014680565
2106 -0.038309202
2104 -0.082013458
2102 -0.094226569
2100 -0.071848601
2098 0.00086793397
2096 0.087733999
2094 0.18358101
2092 0.24940681
2090 0.28280228
2088 0.28526902
2086 0.26572451
2084 0.24193883
2082 0.21726544
2080 0.18974772
2078 0.16096105
2076 0.14372286
2074 0.13141273
2072 0.15557159
2070 0.19144814
2068 0.23453566
2066 0.27808851
2064 0.25092417
2062 0.20453264
2060 0.09812142
2058 -0.01448096
2056 -0.096181996
2054 -0.16126172
2052 -0.18732662
2050 -0.21159874
2048 -0.24963787
2046 -0.29665822
2044 -0.35516599
2042 -0.39905751
2040 -0.41874787
2038 -0.41673177
2036 -0.39565927
2034 -0.38311774
2032 -0.38201028
2030 -0.40984958
2028 -0.45797333
2026 -0.50629032
2024 -0.55195469
2022 -0.53466702
2020 -0.48443583
2018 -0.39427048
2016 -0.28972802
2014 -0.27042657
2012 -0.28136849
2010 -0.37753439
2008 -0.49355802
2006 -0.56461257
2004 -0.61584079
2002 -0.60529721
2000 -0.5833835
1998 -0.57582569
1996 -0.58824861
1994 -0.64732683
1992 -0.72033924
1990 -0.8028127
1988 -0.8677398
1986 -0.90355206
1984 -0.92434275
1982 -0.93367833
1980 -0.94600677
1978 -0.96236813
1976 -0.93985939
1974 -0.87921798
1972 -0.7377786
1970 -0.53940773
1968 -0.38108331
1966 -0.25502557
1964 -0.30767325
1962 -0.45336041
1960 -0.64825284
1958 -0.85995638
1956 -0.97844112
1954 -1.0621709
1952 -1.104476
1950 -1.1378242
1948 -1.1904337
1946 -1.2486501
1944 -1.3073657
1942 -1.3515627
1940 -1.3602322
1938 -1.358758
1936 -1.3632286
1934 -1.3922588
1932 -1.461148
1930 -1.5429322
1928 -1.6209651
1926 -1.6258707
1924 -1.5329466
1922 -1.3186719
1920 -1.0042408
1918 -0.72134954
1916 -0.49477899
1914 -0.39378497
1912 -0.37844554
1910 -0.4195635
1908 -0.48472416
1906 -0.61178398
1904 -0.77170962
1902 -0.91417694
1900 -1.0484473
1898 -1.0523604
1896 -1.0029286
1894 -0.91366583
1892 -0.81746233
1890 -0.78743529
1888 -0.79750383
1886 -0.88041419
1884 -0.99911177
1882 -1.1461658
1880 -1.2970337
1878 -1.4283577
1876 -1.52724
1874 -1.5687891
1872 -1.5421159
1870 -1.4355179
1868 -1.298
1866 -1.1646436
1864 -1.1271966
1862 -1.200367
1860 -1.3423206
1858 -1.515998
1856 -1.6371629
1854 -1.7071729
1852 -1.6799803
1850 -1.589535
1848 -1.445136
1846 -1.2691036
1844 -1.1918755
1842 -1.1667504
1840 -1.2752469
1838 -1.4480062
1836 -1.6052128
1834 -1.746793
1832 -1.813828
1830 -1.808622
1828 -1.6731491
1826 -1.4692014
1824 -1.2554555
1822 -1.122973
1820 -1.169884
1818 -1.3176081
1816 -1.5063086
1814 -1.6504827
1812 -1.7032129
1810 -1.6910406
1808 -1.6400857
1806 -1.556875
1804 -1.4533651
1802 -1.3315244
1800 -1.1929171
1798 -1.0696756
1796 -0.96017218
1794 -0.82637894
1792 -0.68012202
1790 -0.50212747
1788 -0.31325051
1786 -0.17628957
1784 -0.076821387
1782 -0.016007543
1780 0.025819996
1778 0.10511051
1776 0.21085143
1774 0.3465459
1772 0.46412575
1770 0.44825608
1768 0.34782726
1766 0.18350565
1764 0.043514755
1762 0.026340522
1760 0.01548236
1758 -0.059397954
1756 -0.087127328
1754 -0.012733767
1752 0.27019525
1750 0.77160519
1748 1.3321351
1746 1.8790822
1744 2.0965977
1742 1.9914558
1740 1.7225599
1738 1.3752654
1736 1.28606
1734 1.412804
1732 1.5083134
1730 1.5481821
1728 1.2135683
1726 0.63621438
1724 0.18317837
1722 -0.11283947
1720 0.082679197
1718 0.73637259
1716 1.8138201
1714 3.0400436
1712 4.0054269
1710 4.7707033
1708 5.424264
1706 6.246088
1704 7.515995
1702 9.4790201
1700 12.233948
1698 15.674736
1696 19.596857
1694 23.215889
1692 26.245996
1690 28.934124
1688 31.460154
1686 34.709599
1684 38.73093
1682 43.437252
1680 48.629681
1678 53.055195
1676 56.776844
1674 60.465366
1672 64.219505
1670 68.60244
1668 73.448776
1666 78.200302
1664 82.802803
1662 87.0868
1660 91.037727
1658 94.615623
1656 97.788223
1654 100.51907
1652 102.6536
1650 104.02242
1648 104.21754
1646 102.92857
1644 100.64879
1642 97.896942
1640 94.815895
1638 91.561699
1636 87.717812
1634 83.172546
1632 78.471443
1630 73.815926
1628 69.481857
1626 65.499825
1624 61.38192
1622 57.074734
1620 52.7677
1618 48.488449
1616 44.444057
1614 40.658428
1612 37.30732
1610 34.407291
1608 31.976326
1606 29.996893
1604 28.329266
1602 26.978071
1600 25.893406
1598 25.057905
1596 24.4055
1594 23.918121
1592 23.543898
1590 23.288839
1588 23.140572
1586 23.131893
1584 23.279182
1582 23.60211
1580 24.103998
1578 24.83684
1576 25.807629
1574 26.994848
1572 28.367897
1570 29.748779
1568 31.092838
1566 32.310036
1564 33.394405
1562 34.615387
1560 36.065708
1558 38.323982
1556 41.412144
1554 44.499371
1552 47.379959
1550 49.407818
1548 50.641159
1546 51.696571
1544 52.551624
1542 53.215786
1540 53.452202
1538 52.884911
1536 51.667141
1534 50.120499
1532 48.50338
1530 47.154781
1528 45.993431
1526 44.94405
1524 43.777279
1522 42.335133
1520 40.515984
1518 38.215942
1516 35.918617
1514 33.787758
1512 31.780479
1510 29.940483
1508 27.62262
1506 24.6689
1504 21.652676
1502 18.619802
1500 16.162506
1498 14.35458
1496 12.641571
1494 11.026893
1492 9.3946352
1490 7.7568717
1488 6.1321874
1486 4.5523739
1484 3.0714719
1482 1.7743793
1480 0.79874229
1478 0.19949181
1476 0.035569273
1474 0.3721706
1472 1.1360459
1470 2.035744
1468 2.8621116
1466 3.5324764
1464 4.0045786
1462 4.4643903
1460 5.0035453
1458 5.5806451
1456 6.1840601
1454 6.5985951
1452 6.689724
1450 6.6354218
1448 6.3764033
1446 6.0814285
1444 5.7405777
1442 5.3893709
1440 5.0421143
1438 4.7381983
1436 4.4919014
1434 4.2386775
1432 3.9798508
1430 3.7017252
1428 3.4329641
1426 3.2717159
1424 3.2358143
1422 3.339566
1420 3.5588043
1418 3.8298149
1416 4.1215572
1414 4.3916464
1412 4.6288023
1410 4.8473039
1408 5.053494
1406 5.2570291
1404 5.480094
1402 5.7270765
1400 5.9898357
1398 6.2673893
1396 6.4828711
1394 6.5711346
1392 6.575388
1390 6.4184961
1388 6.2198391
1386 5.9491701
1384 5.6386461
1382 5.2766061
1380 4.9040732
1378 4.5286584
1376 4.1664371
1374 3.8299043
1372 3.4970059
1370 3.1680894
1368 2.8466275
1366 2.512795
1364 2.156919
1362 1.7831539
1360 1.3848155
1358 1.002357
1356 0.68343586
1354 0.41378814
1352 0.22382212
1350 0.074767791
1348 -0.028825331
1346 -0.080792427
1344 -0.050562166
1342 0.032682553
1340 0.21513642
1338 0.37750542
1336 0.48041943
1334 0.52454299
1332 0.44021657
1330 0.36644191
1328 0.31760591
1326 0.334932
1324 0.46812025
1322 0.67805833
1320 0.99165004
1318 1.3348247
1316 1.69338
1314 1.9929305
1312 2.2133205
1310 2.3503871
1308 2.4080682
1306 2.4183264
1304 2.3922286
1302 2.338994
1300 2.2698612
1298 2.1801381
1296 2.0897286
1294 2.0073414
1292 1.9432194
1290 1.9191875
1288 1.909812
1286 1.9213393
1284 1.9350148
1282 1.9475082
1280 1.9718223
1278 2.0220616
1276 2.0865486
1274 2.1823089
1272 2.2830067
1270 2.3965228
1268 2.5164535
1266 2.6460321
1264 2.7912204
1262 2.9590342
1260 3.1640959
1258 3.4174457
1256 3.7254744
1254 4.0867906
1252 4.4918785
1250 4.9333444
1248 5.4092569
1246 5.9033999
1244 6.3974166
1242 6.8639131
1240 7.235096
1238 7.5299907
1236 7.6616015
1234 7.7199512
1232 7.6395483
1230 7.5149665
1228 7.2928047
1226 7.0318646
1224 6.6658273
1222 6.2632494
1220 5.7742901
1218 5.2760901
1216 4.7616796
1214 4.2592993
1212 3.7770185
1210 3.297014
1208 2.8200195
1206 2.3438227
1204 1.875778
1202 1.445749
1200 1.0593677
1198 0.71771467
1196 0.4032743
1194 0.066605344
1192 -0.29151925
1190 -0.68704349
1188 -1.0821083
1186 -1.40803
1184 -1.6757663
1182 -1.7978449
1180 -1.8503734
1178 -1.7520502
1176 -1.6046
1174 -1.3406879
1172 -1.0675472
1170 -0.78669989
1168 -0.5154649
1166 -0.27508616
1164 -0.036976755
1162 0.1946014
1160 0.41762218
1158 0.62131739
1156 0.80245829
1154 0.94052345
1152 1.0276057
1150 1.0386348
1148 0.98021442
1146 0.84222996
1144 0.65803945
1142 0.43801862
1140 0.23301664
1138 0.058595642
1136 -0.0054043373
1134 0.01752454
1132 0.20406823
1130 0.47305745
1128 0.84732425
1126 1.2541471
1124 1.6825008
1122 2.1099718
1120 2.512064
1118 2.8985879
1116 3.2138343
1114 3.5145278
1112 3.7590292
1110 3.9953222
1108 4.203671
1106 4.3909302
1104 4.5254498
1102 4.6473055
1100 4.7474842
1098 4.8666544
1096 5.0192285
1094 5.2075691
1092 5.4451957
1090 5.7281713
1088 6.0568323
1086 6.4028163
1084 6.7623649
1082 7.1245394
1080 7.48808
1078 7.8478441
1076 8.1866789
1074 8.3872833
1072 8.5148277
1070 8.4428082
1068 8.3258839
1066 8.2053957
1064 8.1117678
1062 8.219902
1060 8.3649979
1058 8.6823654
1056 8.9896832
1054 9.2496252
1052 9.4605064
1050 9.5151014
1048 9.5477724
1046 9.5314999
1044 9.5502005
1042 9.6352825
1040 9.7500381
1038 9.9032965
1036 10.0221
1034 10.094803
1032 10.084937
1030 9.9906759
1028 9.7808609
1026 9.4835243
1024 9.0950823
1022 8.6580162
1020 8.2094975
1018 7.7515054
1016 7.2426372
1014 6.7096853
1012 6.0632758
1010 5.3990798
1008 4.7502279
1006 4.1161036
1004 3.6391666
1002 3.1843257
1000 2.8715765
998 2.5740261
996 2.3418999
994 2.095253
992 1.8010812
990 1.4665434
988 1.0393057
986 0.59527087
984 0.12673676
982 -0.28451103
980 -0.61025357
978 -0.78861201
976 -0.80907601
974 -0.71705842
972 -0.53903598
970 -0.41874748
968 -0.33774498
966 -0.3475655
964 -0.39609554
962 -0.40275687
960 -0.39301535
958 -0.31337985
956 -0.22027886
954 -0.15305497
952 -0.091292642
950 -0.083079964
948 -0.074065372
946 -0.023059929
944 0.001848001
942 0.057533346
940 0.1684158
938 0.29361027
936 0.42388514
934 0.57032442
932 0.74966007
930 0.99894238
928 1.2469343
926 1.4921114
924 1.691908
922 1.8362145
920 1.9330034
918 1.9839891
916 1.9314001
914 1.8047918
912 1.6174005
910 1.4015721
908 1.4395726
906 1.578402
904 2.0265355
902 2.556397
900 2.9517703
898 3.3255796
896 3.5211
