Image.
>Pix99999.
  .
5555
5555
2300
900
5555
2
1
0
701
5555
-3.5969999e-003
-3.6717928e-003
-3.7466858e-003
-3.8214789e-003
-3.8962720e-003
-3.9711646e-003
-4.0459577e-003
-4.1209487e-003
-4.1956450e-003
-4.2701405e-003
-4.3453244e-003
-4.4213040e-003
-4.4950349e-003
-4.5655887e-003
-4.6445159e-003
-4.7351499e-003
-4.7946540e-003
-4.8106359e-003
-4.9424311e-003
-5.2362978e-003
-5.1000458e-003
-4.3589883e-003
-5.2171159e-003
-8.3302082e-003
-5.4997113e-003
9.1510396e-003
2.2266833e-002
1.8633241e-002
-2.7228480e-003
-3.4039676e-002
-4.8703313e-002
-2.2595476e-002
3.6849614e-002
1.1335293e-001
1.9180131e-001
2.6024851e-001
3.1794623e-001
3.6552885e-001
3.9587128e-001
4.0181369e-001
3.8523999e-001
3.5319993e-001
3.2269400e-001
3.0927864e-001
3.1074101e-001
3.2056528e-001
3.3681390e-001
3.6047581e-001
3.9836052e-001
4.5359358e-001
5.0712645e-001
5.3577816e-001
5.2794516e-001
4.8192546e-001
4.2105824e-001
3.7379292e-001
3.5720721e-001
3.8094574e-001
4.3979272e-001
5.2389950e-001
6.2378716e-001
7.3111337e-001
8.4136134e-001
9.5244300e-001
1.0672547e+000
1.1857500e+000
1.2902696e+000
1.3572413e+000
1.3642029e+000
1.2995775e+000
1.1939499e+000
1.0900877e+000
1.0222726e+000
1.0118484e+000
1.0414480e+000
1.0810714e+000
1.1054572e+000
1.0965080e+000
1.0598238e+000
1.0098008e+000
9.6441740e-001
9.3885648e-001
9.3374330e-001
9.4459653e-001
9.6741360e-001
1.0007888e+000
1.0525411e+000
1.1295199e+000
1.2208960e+000
1.3084513e+000
1.3709142e+000
1.3906801e+000
1.3700910e+000
1.3196142e+000
1.2530121e+000
1.1837322e+000
1.1194223e+000
1.0662503e+000
1.0327840e+000
1.0269545e+000
1.0505285e+000
1.0981414e+000
1.1459076e+000
1.1676397e+000
1.1572583e+000
1.1229551e+000
1.0989709e+000
1.1236557e+000
1.2113264e+000
1.3607259e+000
1.5482558e+000
1.7411641e+000
1.9061160e+000
2.0132091e+000
2.0474010e+000
2.0060387e+000
1.9136879e+000
1.8049860e+000
1.7103412e+000
1.6515740e+000
1.6227314e+000
1.6082606e+000
1.6020540e+000
1.6043323e+000
1.6250777e+000
1.6739213e+000
1.7441161e+000
1.8219854e+000
1.8946439e+000
1.9519117e+000
1.9921914e+000
2.0188525e+000
2.0387361e+000
2.0581758e+000
2.0734625e+000
2.0773301e+000
2.0661588e+000
2.0400758e+000
2.0073438e+000
1.9776990e+000
1.9520000e+000
1.9289522e+000
1.9169866e+000
1.9257627e+000
1.9519314e+000
1.9854329e+000
2.0136521e+000
2.0237031e+000
2.0033720e+000
1.9421850e+000
1.8330715e+000
1.6783850e+000
1.5130240e+000
1.3819783e+000
1.3089119e+000
1.3008606e+000
1.3399915e+000
1.4010663e+000
1.4743683e+000
1.5569611e+000
1.6392257e+000
1.7088740e+000
1.7581477e+000
1.7833593e+000
1.7882829e+000
1.7793050e+000
1.7603275e+000
1.7345130e+000
1.7090759e+000
1.6908870e+000
1.6754915e+000
1.6524537e+000
1.6103715e+000
1.5417840e+000
1.4568241e+000
1.3748250e+000
1.3162485e+000
1.2960527e+000
1.3054569e+000
1.3219296e+000
1.3174343e+000
1.2668744e+000
1.1663840e+000
1.0258853e+000
8.6665684e-001
7.1632856e-001
6.0795486e-001
5.7292902e-001
6.2461215e-001
7.6029843e-001
9.5074886e-001
1.1545007e+000
1.3362840e+000
1.4687139e+000
1.5388055e+000
1.5458692e+000
1.5093039e+000
1.4584032e+000
1.4192172e+000
1.4103873e+000
1.4294143e+000
1.4609233e+000
1.4836191e+000
1.4761909e+000
1.4278480e+000
1.3389614e+000
1.2326478e+000
1.1408062e+000
1.0800651e+000
1.0511117e+000
1.0300800e+000
9.8731619e-001
9.2759359e-001
8.7854123e-001
8.7347203e-001
9.3611461e-001
1.0420971e+000
1.1421460e+000
1.2051154e+000
1.2176141e+000
1.1841400e+000
1.1164362e+000
1.0174389e+000
8.8614255e-001
7.3191202e-001
5.7435608e-001
4.4714043e-001
3.8564074e-001
3.9731997e-001
4.6846297e-001
5.7261598e-001
6.8210518e-001
7.9099822e-001
9.0514225e-001
1.0185001e+000
1.1154200e+000
1.1791068e+000
1.1964645e+000
1.1703980e+000
1.1135660e+000
1.0357685e+000
9.4529563e-001
8.5762358e-001
7.9258728e-001
7.6696408e-001
7.8644997e-001
8.1825173e-001
8.1001580e-001
7.3554790e-001
5.9992671e-001
4.5675358e-001
3.7911648e-001
3.9089319e-001
4.7265381e-001
5.7697827e-001
6.4944768e-001
6.7015123e-001
6.4731795e-001
6.0058630e-001
5.5234820e-001
5.1602000e-001
4.9506626e-001
4.7898561e-001
4.4905835e-001
3.8994184e-001
2.9634929e-001
1.9276400e-001
1.1241984e-001
3.3205584e-002
-9.6402392e-002
-2.6719671e-001
-4.2697063e-001
-5.5457276e-001
-6.5838480e-001
-7.4742907e-001
-8.2669002e-001
-8.9895546e-001
-9.6275294e-001
-1.0019854e+000
-9.9132442e-001
-9.1225803e-001
-7.6046449e-001
-5.6663984e-001
-3.8375154e-001
-2.4981394e-001
-1.8033001e-001
-1.5593769e-001
-1.2452701e-001
4.6627298e-003
3.3439615e-001
9.0099061e-001
1.6721249e+000
2.5539010e+000
3.4358425e+000
4.3175321e+000
5.3045716e+000
6.5641794e+000
8.3025265e+000
1.0745024e+001
1.4040114e+001
1.7926287e+001
2.1843960e+001
2.5391302e+001
2.8435612e+001
3.1265196e+001
3.4465538e+001
3.8539371e+001
4.3718529e+001
4.9511841e+001
5.4980202e+001
5.9815186e+001
6.4350601e+001
6.9023430e+001
7.4141190e+001
7.9475151e+001
8.4393097e+001
8.8494263e+001
9.1686607e+001
9.4042885e+001
9.5724533e+001
9.6861458e+001
9.7528763e+001
9.7746857e+001
9.7494102e+001
9.6750290e+001
9.5531319e+001
9.3989235e+001
9.2356445e+001
9.0683601e+001
8.8829010e+001
8.6593018e+001
8.3795334e+001
8.0433273e+001
7.6651550e+001
7.2518486e+001
6.8009720e+001
6.3133522e+001
5.7972980e+001
5.2742340e+001
4.7748867e+001
4.3214798e+001
3.9246685e+001
3.5863968e+001
3.3013901e+001
3.0598343e+001
2.8499914e+001
2.6658173e+001
2.5074768e+001
2.3767668e+001
2.2756771e+001
2.2044998e+001
2.1617414e+001
2.1453108e+001
2.1528681e+001
2.1821726e+001
2.2309351e+001
2.2961760e+001
2.3750950e+001
2.4701466e+001
2.5897642e+001
2.7450686e+001
2.9466171e+001
3.1945230e+001
3.4772285e+001
3.7778000e+001
4.0767651e+001
4.3579082e+001
4.6135227e+001
4.8587818e+001
5.1249062e+001
5.4096100e+001
5.6711670e+001
5.8676636e+001
5.9717701e+001
5.9887924e+001
5.9522785e+001
5.8766384e+001
5.7503483e+001
5.5669441e+001
5.3349392e+001
5.0806744e+001
4.8423618e+001
4.6364586e+001
4.4513481e+001
4.2695148e+001
4.0741447e+001
3.8529949e+001
3.6019550e+001
3.3321308e+001
3.0690065e+001
2.8337757e+001
2.6348492e+001
2.4581120e+001
2.2692158e+001
2.0472988e+001
1.7956921e+001
1.5370943e+001
1.3070568e+001
1.1215497e+001
9.6929131e+000
8.3263283e+000
6.9506993e+000
5.4995289e+000
4.0296884e+000
2.6410251e+000
1.4486542e+000
5.4039502e-001
-4.2167187e-002
-3.0926612e-001
-3.0898196e-001
-1.8146873e-002
6.6667962e-001
1.7584640e+000
3.1311600e+000
4.6247616e+000
6.0874968e+000
7.4398413e+000
8.6930904e+000
9.8714809e+000
1.0984536e+001
1.2010400e+001
1.2890501e+001
1.3556734e+001
1.3947517e+001
1.4046765e+001
1.3898000e+001
1.3556946e+001
1.3075330e+001
1.2472606e+001
1.1729800e+001
1.0825429e+001
9.7597666e+000
8.5989552e+000
7.4851336e+000
6.5387621e+000
5.8195453e+000
5.3335209e+000
5.0327144e+000
4.8707743e+000
4.8231115e+000
4.8864002e+000
5.0775561e+000
5.4012923e+000
5.8372865e+000
6.3519483e+000
6.8996296e+000
7.4245405e+000
7.8613181e+000
8.1484118e+000
8.2389145e+000
8.1252069e+000
7.8531933e+000
7.4832702e+000
7.0762930e+000
6.6731853e+000
6.2848749e+000
5.9143977e+000
5.5604887e+000
5.2085872e+000
4.8264294e+000
4.3841486e+000
3.8645103e+000
3.2714999e+000
2.6345451e+000
1.9762098e+000
1.3023193e+000
6.3131917e-001
1.0027975e-002
-4.9057087e-001
-7.8074861e-001
-8.1921685e-001
-6.4500964e-001
-3.0156082e-001
1.8544602e-001
7.7275467e-001
1.3877608e+000
1.9803120e+000
2.5460734e+000
3.0870340e+000
3.5945377e+000
4.0335855e+000
4.3340054e+000
4.4423409e+000
4.3500710e+000
4.0862927e+000
3.7237928e+000
3.3379271e+000
2.9887142e+000
2.7130382e+000
2.5137160e+000
2.3778601e+000
2.2798812e+000
2.1954401e+000
2.1078045e+000
2.0067987e+000
1.8916149e+000
1.7681252e+000
1.6510299e+000
1.5634426e+000
1.5392857e+000
1.6160001e+000
1.8295752e+000
2.1996715e+000
2.7150085e+000
3.3406479e+000
4.0131721e+000
4.6683426e+000
5.2543688e+000
5.7338219e+000
6.0923896e+000
6.3329744e+000
6.4816084e+000
6.5795817e+000
6.6842537e+000
6.8446603e+000
7.0856910e+000
7.4161401e+000
7.8264813e+000
8.3112040e+000
8.8806734e+000
9.5513945e+000
1.0342841e+001
1.1261303e+001
1.2285109e+001
1.3378343e+001
1.4484250e+001
1.5550301e+001
1.6537405e+001
1.7410692e+001
1.8140549e+001
1.8690742e+001
1.9011005e+001
1.9048120e+001
1.8748629e+001
1.8086931e+001
1.7090250e+001
1.5823422e+001
1.4400700e+001
1.2949694e+001
1.1598850e+001
1.0454223e+001
9.5751839e+000
8.9940586e+000
8.7028532e+000
8.6645384e+000
8.7985229e+000
8.9981623e+000
9.1268387e+000
9.0660715e+000
8.7542868e+000
8.1792431e+000
7.4045153e+000
6.5180178e+000
5.6184959e+000
4.7908821e+000
4.0818906e+000
3.5101006e+000
3.0536339e+000
2.6844854e+000
2.3833141e+000
2.1400201e+000
1.9602176e+000
1.8492643e+000
1.8035697e+000
1.8149424e+000
1.8685451e+000
1.9415195e+000
1.9982951e+000
2.0073383e+000
1.9553185e+000
1.8440500e+000
1.6978986e+000
1.5349748e+000
1.3471301e+000
1.1234866e+000
8.6304855e-001
5.8309418e-001
3.3537948e-001
1.5629220e-001
2.8197892e-002
-7.1004286e-002
-1.4379910e-001
-1.9019988e-001
-2.1598227e-001
-2.3275337e-001
-2.6176035e-001
-3.1752074e-001
-3.9149469e-001
-4.6015880e-001
-4.7929561e-001
-4.2258573e-001
-3.1976563e-001
-2.1319908e-001
-1.4100941e-001
-1.1916368e-001
-1.1153055e-001
-7.6472223e-002
9.1427192e-003
1.5513517e-001
3.4936470e-001
5.7946002e-001
8.4626400e-001
1.1571400e+000
1.5274767e+000
1.9680246e+000
2.4716744e+000
3.0122283e+000
3.5265243e+000
3.9453933e+000
4.2110863e+000
4.2930961e+000
4.2266693e+000
4.0691710e+000
3.8931034e+000
3.7527981e+000
3.6445365e+000
3.5432320e+000
3.4066668e+000
3.2063046e+000
2.9627118e+000
2.7105541e+000
2.4898641e+000
2.3294203e+000
2.2230880e+000
2.1575913e+000
2.1245999e+000
2.1194997e+000
2.1460886e+000
2.2111158e+000
2.3233473e+000
2.4862299e+000
2.6850452e+000
2.8838062e+000
2.9996316e+000
2.9607949e+000
2.7643685e+000
2.4479978e+000
2.1185811e+000
1.8659183e+000
1.6777866e+000
1.5087143e+000
1.2895870e+000
9.7393489e-001
6.0167938e-001
2.2947820e-001
-1.0047781e-001
-3.5740578e-001
-5.3506947e-001
-6.3702655e-001
-6.7921227e-001
-6.9126576e-001
-7.3519433e-001
-8.5851061e-001
-1.0367967e+000
-1.2219663e+000
-1.3481622e+000
-1.3668017e+000
-1.2985066e+000
-1.1804639e+000
-1.0454080e+000
-9.1584575e-001
-7.8335392e-001
-6.3609809e-001
-4.7630090e-001
-3.1652972e-001
-1.9203500e-001
-1.3240306e-001
-1.2881964e-001
-1.5967521e-001
-1.9264929e-001
-2.0376299e-001
-2.0687872e-001
-2.1511960e-001
-2.0627505e-001
-1.5617590e-001
-6.4197503e-002
7.1597010e-002
2.7812928e-001
5.7191420e-001
9.0979153e-001
1.2356572e+000
1.5006334e+000
1.6687032e+000
1.7447604e+000
1.7508183e+000
1.7344272e+000
1.7306199e+000
1.7055141e+000
1.6192726e+000
1.4775324e+000
1.3155400e+000
1.2367549e+000
1.3361971e+000
1.6081440e+000
2.0124540e+000
2.4729514e+000
2.9131749e+000
3.2928462e+000
3.5829201e+000
3.7644811e+000
3.8211000e+000
