##TITLE=Methyl Ethyl Ketone
##JCAMP-DX=4.24
##DATA TYPE=INFRARED SPECTRUM
##XUNITS=cm-1
##YUNITS=Absorbance
##FIRSTX=900
##LASTX=2300
##XYDATA=(X++(Y..Y))
2296 -0.018409001
2294 -0.01879245
2292 -0.019175902
2290 -0.019558359
2288 -0.019941805
2286 -0.020324264
2284 -0.020707708
2282 -0.02109017
2280 -0.021473611
2278 -0.021856075
2276 -0.022239514
2274 -0.022622965
2272 -0.023005433
2270 -0.023386905
2268 -0.023771299
2266 -0.024159664
2264 -0.024537358
2262 -0.024898233
2260 -0.025302559
2258 -0.02576635
2256 -0.026071399
2254 -0.02615275
2252 -0.026825251
2250 -0.028330596
2248 -0.027640296
2246 -0.020423321
2244 -0.00074868859
2242 0.0308234
2240 0.045811038
2238 0.017961398
2236 -0.0382271
2234 -0.096352622
2232 -0.12908553
2230 -0.11784747
2228 -0.080008678
2226 -0.0408994
2224 -0.015995057
2222 -0.013375749
2220 -0.023396391
2218 -0.031980712
2216 -0.028151687
2214 -0.0044230684
2212 0.036564
2210 0.087416857
2208 0.13376354
2206 0.16251378
2204 0.17410934
2202 0.17311153
2200 0.1636012
2198 0.1487647
2196 0.12887786
2194 0.10517857
2192 0.086428329
2190 0.082259715
2188 0.095973447
2186 0.12746415
2184 0.1710728
2182 0.21969593
2180 0.26735517
2178 0.30944866
2176 0.34546286
2174 0.37550318
2172 0.39685544
2170 0.4048498
2168 0.39070481
2166 0.34804478
2164 0.28596392
2162 0.22083588
2160 0.17774342
2158 0.17756601
2156 0.212423
2154 0.26176265
2152 0.29335675
2150 0.28004321
2148 0.23080546
2146 0.16891535
2144 0.12473783
2142 0.123829
2140 0.16327052
2138 0.228397
2136 0.29770571
2134 0.35075858
2132 0.38049713
2130 0.38720334
2128 0.38151121
2126 0.37527555
2124 0.37053022
2122 0.36366484
2120 0.34308982
2118 0.29851127
2116 0.23657143
2114 0.1717017
2112 0.12409349
2110 0.11146699
2108 0.13325158
2106 0.18000428
2104 0.23441109
2102 0.28018436
2100 0.31653321
2098 0.34840915
2096 0.37952429
2094 0.40967566
2092 0.42538056
2090 0.41184065
2088 0.37024269
2086 0.31026551
2084 0.25000814
2082 0.2069511
2080 0.1834152
2078 0.17613678
2076 0.18424687
2074 0.20812213
2072 0.2480268
2070 0.30086756
2068 0.34990448
2066 0.37557086
2064 0.3697944
2062 0.33319488
2060 0.28183833
2058 0.23607931
2056 0.20827486
2054 0.2054117
2052 0.22712554
2050 0.26831421
2048 0.31613731
2046 0.35540572
2044 0.37414861
2042 0.36561832
2040 0.33868289
2038 0.30833888
2036 0.28738701
2034 0.28473535
2032 0.29828611
2030 0.3208462
2028 0.3436999
2026 0.35971743
2024 0.37030932
2022 0.38049826
2020 0.39461103
2018 0.4145222
2016 0.43411201
2014 0.44410104
2012 0.43720827
2010 0.41008255
2008 0.37142995
2006 0.33463228
2004 0.30957487
2002 0.30164361
2000 0.305186
1998 0.31187999
1996 0.32336429
1994 0.34481874
1992 0.37522498
1990 0.40830627
1988 0.42907059
1986 0.4224683
1984 0.38994747
1982 0.34193185
1980 0.29221156
1978 0.25359809
1976 0.23022486
1974 0.2218246
1972 0.22781003
1970 0.24765798
1968 0.28057274
1966 0.32389727
1964 0.36756203
1962 0.39863792
1960 0.40759441
1958 0.38968399
1956 0.35222015
1954 0.30895683
1952 0.27586788
1950 0.2656514
1948 0.27399269
1946 0.2867825
1944 0.28565583
1942 0.25601524
1940 0.20627108
1938 0.1562984
1936 0.12333714
1934 0.11802684
1932 0.13270999
1930 0.15157206
1928 0.16453485
1926 0.167915
1924 0.16917206
1922 0.17894791
1920 0.19721068
1918 0.217041
1916 0.22869128
1914 0.22355317
1912 0.20244475
1910 0.17115055
1908 0.13432914
1906 0.094694264
1904 0.051226839
1902 0.0022006612
1900 -0.048537351
1898 -0.093722351
1896 -0.12556715
1894 -0.13907722
1892 -0.14152363
1890 -0.14587131
1888 -0.1593823
1886 -0.18373714
1884 -0.21312551
1882 -0.23853959
1880 -0.2543079
1878 -0.25732455
1876 -0.245666
1874 -0.21966821
1872 -0.18767674
1870 -0.16417357
1868 -0.17012617
1866 -0.22355515
1864 -0.31433252
1862 -0.41455841
1860 -0.49375296
1858 -0.52798539
1856 -0.52172488
1854 -0.49626887
1852 -0.47110528
1850 -0.46062675
1848 -0.46934921
1846 -0.49486035
1844 -0.52969366
1842 -0.56389153
1840 -0.58768815
1838 -0.59306455
1836 -0.57818443
1834 -0.54532832
1832 -0.49790776
1830 -0.44054466
1828 -0.38187194
1826 -0.33259708
1824 -0.30145222
1822 -0.29422924
1820 -0.31034541
1818 -0.34403819
1816 -0.38402313
1814 -0.41674277
1812 -0.43281263
1810 -0.42721114
1808 -0.40061504
1806 -0.3576645
1804 -0.30559665
1802 -0.25192964
1800 -0.19946411
1798 -0.14793593
1796 -0.098196998
1794 -0.054440368
1792 -0.030925199
1790 -0.043833252
1788 -0.087540172
1786 -0.14069979
1784 -0.18214628
1782 -0.19523035
1780 -0.17432083
1778 -0.1225509
1776 -0.049311027
1774 0.031700172
1772 0.10282142
1770 0.14630799
1768 0.15485291
1766 0.13223322
1764 0.097818539
1762 0.070921727
1760 0.023950392
1758 -0.091014884
1756 -0.25386414
1754 -0.39944115
1752 -0.50402617
1750 -0.58300501
1748 -0.65887642
1746 -0.75191033
1744 -0.87172735
1742 -1.0135108
1740 -1.1418285
1738 -1.205603
1736 -1.1814801
1734 -1.0771316
1732 -0.93507212
1730 -0.81229109
1728 -0.72659516
1726 -0.65640986
1724 -0.55043393
1722 -0.33538172
1720 0.08106795
1718 0.7775594
1716 1.7121415
1714 2.7501316
1712 3.769676
1710 4.6989408
1708 5.5871139
1706 6.5829911
1704 7.8726501
1702 9.6611605
1700 12.170606
1698 15.546953
1696 19.524
1694 23.537819
1692 27.179043
1690 30.298342
1688 33.135395
1686 36.189056
1684 39.829285
1682 44.162712
1680 48.770519
1678 52.940384
1676 56.505985
1674 59.836082
1672 63.364521
1670 67.408875
1668 71.88047
1666 76.379501
1664 80.629272
1662 84.53231
1660 88.064514
1658 91.237114
1656 94.062515
1654 96.530907
1652 98.55468
1650 99.97197
1648 100.58205
1646 100.22482
1644 99.015129
1642 97.271782
1640 95.115646
1638 92.445091
1636 89.146568
1634 85.183304
1632 80.752808
1630 76.217995
1628 71.755699
1626 67.330025
1624 62.873161
1622 58.350758
1620 53.835129
1618 49.48698
1616 45.434887
1614 41.753616
1612 38.496723
1610 35.697769
1608 33.331367
1606 31.318193
1604 29.590857
1602 28.109632
1600 26.856737
1598 25.830694
1596 25.0205
1594 24.400761
1592 23.940613
1590 23.611158
1588 23.403822
1586 23.329521
1584 23.398273
1582 23.61849
1580 24.016285
1578 24.629562
1576 25.471315
1574 26.51996
1572 27.709778
1570 28.941195
1568 30.150639
1566 31.323271
1564 32.456059
1562 33.580788
1560 34.900391
1558 36.732719
1556 39.110657
1554 41.722099
1552 44.165131
1550 46.08094
1548 47.425945
1546 48.467503
1544 49.366859
1542 50.089626
1540 50.53606
1538 50.594913
1536 50.244286
1534 49.567493
1532 48.681522
1530 47.700424
1528 46.656139
1526 45.492149
1524 44.152573
1522 42.613873
1520 40.90752
1518 39.118732
1516 37.339886
1514 35.634552
1512 33.927998
1510 31.999842
1508 29.672674
1506 26.897093
1504 23.854006
1502 20.935032
1500 18.376869
1498 16.16494
1496 14.193143
1494 12.319806
1492 10.463407
1490 8.6275692
1488 6.8295131
1486 5.0893192
1484 3.4732242
1482 2.0963724
1480 1.0436573
1478 0.35235006
1476 0.069522738
1474 0.24373239
1472 0.79908574
1470 1.515274
1468 2.2223406
1466 2.8615773
1464 3.4318624
1462 3.971642
1460 4.5049934
1458 5.0212517
1456 5.4770398
1454 5.8019829
1452 5.9537687
1450 5.9380112
1448 5.787065
1446 5.5534854
1444 5.2852831
1442 5.013916
1440 4.7424006
1438 4.4395165
1436 4.064127
1434 3.5807996
1432 3.0052862
1430 2.4192247
1428 1.9046339
1426 1.5198771
1424 1.293324
1422 1.2180219
1420 1.2751191
1418 1.4390031
1416 1.6784629
1414 1.959002
1412 2.2608473
1410 2.5859301
1408 2.941313
1406 3.3332164
1404 3.759536
1402 4.2055936
1400 4.6500521
1398 5.0661387
1396 5.4284997
1394 5.7168303
1392 5.9184175
1390 6.0295372
1388 6.0445256
1386 5.9537497
1384 5.7568922
1382 5.4695268
1380 5.1151543
1378 4.7229919
1376 4.3159456
1374 3.9063363
1372 3.506078
1370 3.1274402
1368 2.7677703
1366 2.4016857
1364 2.0013194
1362 1.5489333
1360 1.0638959
1358 0.61685526
1356 0.27313456
1354 0.066906177
1352 -0.0027377349
1350 0.020572361
1348 0.093923494
1346 0.19241679
1344 0.3047556
1342 0.4332698
1340 0.57303894
1338 0.70287579
1336 0.79994285
1334 0.84780788
1332 0.85015523
1330 0.839885
1328 0.84810716
1326 0.89126837
1324 0.97747409
1322 1.1060207
1320 1.2714435
1318 1.4624283
1316 1.6595
1314 1.8331554
1312 1.9607291
1310 2.0372608
1308 2.0712907
1306 2.0865464
1304 2.1035903
1302 2.130801
1300 2.1710246
1298 2.2223117
1296 2.2839427
1294 2.358777
1292 2.4491949
1290 2.5545926
1288 2.6712639
1286 2.7918892
1284 2.9091678
1282 3.0184608
1280 3.1206222
1278 3.2253327
1276 3.3448484
1274 3.491864
1272 3.6741629
1270 3.8902807
1268 4.1371179
1266 4.4125342
1264 4.7177372
1262 5.0600572
1260 5.447248
1258 5.8856368
1256 6.3784857
1254 6.92383
1252 7.5152826
1250 8.1397314
1248 8.778182
1246 9.4041748
1244 9.9923906
1242 10.524369
1240 10.990217
1238 11.389989
1236 11.721571
1234 11.966559
1232 12.10312
1230 12.104325
1228 11.955766
1226 11.67455
1224 11.281823
1222 10.799025
1220 10.24505
1218 9.6359625
1216 8.9915514
1214 8.3378839
1212 7.6962061
1210 7.0735464
1208 6.4693213
1206 5.8735843
1204 5.27773
1202 4.6797137
1200 4.0808487
1198 3.4853854
1196 2.8996072
1194 2.3328438
1192 1.7973955
1190 1.3100357
1188 0.88480413
1186 0.52672166
1184 0.23603158
1182 0.0074701458
1180 -0.1610907
1178 -0.26279098
1176 -0.29358801
1174 -0.2614125
1172 -0.18569559
1170 -0.10401057
1168 -0.050613467
1166 -0.041327626
1164 -0.075592592
1162 -0.1263992
1160 -0.16428989
1158 -0.16975643
1156 -0.13698912
1154 -0.085667476
1152 -0.039593142
1150 -0.017161351
1148 -0.026732679
1146 -0.056026716
1144 -0.084045365
1142 -0.082152829
1140 -0.030280568
1138 0.067805737
1136 0.20694715
1134 0.39134991
1132 0.62122732
1130 0.88244033
1128 1.1618211
1126 1.4567164
1124 1.766526
1122 2.0887876
1120 2.4176641
1118 2.7396655
1116 3.0421987
1114 3.3202078
1112 3.5806794
1110 3.8545952
1108 4.1686759
1106 4.5231752
1104 4.9011407
1102 5.2596674
1100 5.5633883
1098 5.8128338
1096 6.0258427
1094 6.2418165
1092 6.497364
1090 6.8076382
1088 7.1730499
1086 7.5694351
1084 7.9664168
1082 8.33354
1080 8.6468296
1078 8.8997393
1076 9.0929518
1074 9.2345343
1072 9.3326206
1070 9.3909683
1068 9.4138641
1066 9.4106417
1064 9.3911448
1062 9.3642178
1060 9.3286848
1058 9.2584753
1056 9.1263828
1054 8.92029
1052 8.6430893
1050 8.3286009
1048 8.0076389
1046 7.681139
1044 7.3418059
1042 6.9804378
1040 6.598762
1038 6.2298665
1036 5.9024701
1034 5.6106405
1032 5.336997
1030 5.0559168
1028 4.7501984
1026 4.4327035
1024 4.1176176
1022 3.801728
1020 3.4818025
1018 3.1678362
1016 2.8748543
1014 2.6222527
1012 2.4169571
1010 2.2254128
1008 2.0100319
1006 1.7520243
1004 1.4485682
1002 1.1311228
1000 0.83305597
998 0.56652492
996 0.33323073
994 0.11864033
992 -0.092365444
990 -0.30360723
988 -0.51189983
986 -0.7003724
984 -0.84807748
982 -0.93207622
980 -0.93323404
978 -0.84680659
976 -0.67760515
974 -0.45017916
972 -0.19301535
970 0.068591595
968 0.31075612
966 0.51192898
964 0.65217614
962 0.71542835
960 0.69241601
958 0.59412694
956 0.44038069
954 0.2643244
952 0.10283446
950 -0.0061781816
948 -0.039625928
946 -0.027454708
944 -0.0071463208
942 0.004041513
940 0.0004606045
938 6.5321103e-05
936 0.023073427
934 0.076455541
932 0.15733707
930 0.23899841
928 0.29830474
926 0.34720799
924 0.4059236
922 0.49262434
920 0.61323982
918 0.7295785
916 0.79910642
914 0.80504775
912 0.74959695
910 0.68337518
908 0.66258156
906 0.7181533
904 0.86148095
902 1.0521311
900 1.2457383
898 1.433862
896 1.617
