Image.
>Pix99999.
  .
5555
5555
2300
900
5555
2
1
0
701
5555
-8.8913003e-003
-9.0762358e-003
-9.2611713e-003
-9.4461069e-003
-9.6311411e-003
-9.8160775e-003
-1.0001409e-002
-1.0186151e-002
-1.0370886e-002
-1.0555621e-002
-1.0741343e-002
-1.0926092e-002
-1.1110829e-002
-1.1295564e-002
-1.1481280e-002
-1.1666035e-002
-1.1850771e-002
-1.2035508e-002
-1.2220243e-002
-1.2405952e-002
-1.2590715e-002
-1.2775450e-002
-1.2960185e-002
-1.3145888e-002
-1.3330657e-002
-1.3515393e-002
-5.0224573e-004
3.4690265e-002
7.6329038e-002
6.1054625e-002
3.7363973e-002
-1.0373580e-002
-5.6703296e-002
-3.2810763e-002
-1.5611690e-003
6.1672423e-002
1.1534605e-001
1.1799476e-001
1.0894897e-001
7.2654791e-002
4.8140772e-002
5.2735653e-002
6.9276817e-002
1.0249355e-001
1.3139293e-001
1.5361664e-001
1.5757060e-001
1.4432620e-001
1.1761531e-001
8.1690371e-002
6.1682072e-002
5.1218767e-002
4.7988687e-002
4.7656678e-002
4.9979907e-002
5.3104222e-002
8.1894241e-002
1.1656642e-001
1.1703543e-001
1.1155465e-001
4.1268855e-002
-3.2286931e-002
-7.5255074e-002
-1.0628281e-001
-8.5437112e-002
-5.8067866e-002
-2.5281692e-002
4.5587909e-003
2.5463734e-002
3.5435323e-002
2.6361700e-002
7.6843463e-003
-2.2052126e-002
-3.3924218e-002
-2.4362858e-002
5.6573572e-003
5.1787119e-002
8.9665800e-002
1.2065981e-001
1.3076454e-001
1.2987514e-001
1.0312850e-001
6.5886952e-002
3.5700899e-002
8.0585759e-003
3.0553184e-002
6.4696081e-002
1.1530516e-001
1.6646856e-001
1.8057860e-001
1.8377401e-001
1.4484300e-001
9.6967198e-002
3.6405765e-002
-1.6240887e-002
-3.9334729e-002
-3.8975760e-002
3.5779839e-003
6.1134581e-002
1.3343254e-001
2.0055999e-001
2.5814104e-001
2.9197398e-001
3.0263701e-001
2.7793875e-001
2.2663900e-001
1.6357926e-001
9.5134512e-002
4.2111058e-002
-2.3628324e-003
-2.6349891e-002
-4.2219136e-002
-4.3297123e-002
-3.9829563e-002
-2.6006581e-002
-9.0302862e-003
3.5490423e-002
8.7115385e-002
1.5479222e-001
2.2221890e-001
2.7080771e-001
3.0864280e-001
3.2173562e-001
3.2013661e-001
2.9388270e-001
2.4362679e-001
1.5641001e-001
7.1560077e-002
5.8975443e-004
-1.1499459e-003
7.6667465e-002
1.9988096e-001
3.5300690e-001
4.6804288e-001
5.4933202e-001
5.8201879e-001
5.8743161e-001
5.8366054e-001
5.7741326e-001
6.1011660e-001
6.5909201e-001
7.2366863e-001
7.9252243e-001
7.8228068e-001
7.4614513e-001
6.3484490e-001
5.0760305e-001
4.0425399e-001
3.3195144e-001
3.6967084e-001
4.5853215e-001
6.1924517e-001
7.7857006e-001
8.9278156e-001
9.5989799e-001
9.6161449e-001
9.3251902e-001
8.8220179e-001
8.1891620e-001
7.4742186e-001
6.8911284e-001
6.4522308e-001
6.4882731e-001
6.8695688e-001
7.6291579e-001
8.5878950e-001
9.4522774e-001
1.0244271e+000
1.0676481e+000
1.0952746e+000
1.0889558e+000
1.0694078e+000
1.0061616e+000
9.2872310e-001
8.5589302e-001
8.0094254e-001
8.3213681e-001
8.9562076e-001
9.7115839e-001
1.0203965e+000
9.8966175e-001
9.3362480e-001
8.7732321e-001
8.4027916e-001
8.3675808e-001
8.2454270e-001
7.9037279e-001
7.4587607e-001
6.9511002e-001
6.8991601e-001
7.2479355e-001
7.7301168e-001
8.2487708e-001
8.5072476e-001
8.6008662e-001
9.0760428e-001
9.7705001e-001
1.0736588e+000
1.1810514e+000
1.2319978e+000
1.2577429e+000
1.2543923e+000
1.2405958e+000
1.2287480e+000
1.2146589e+000
1.1838236e+000
1.1501759e+000
1.1260508e+000
1.1102005e+000
1.1075029e+000
1.0889901e+000
1.0368599e+000
9.6389234e-001
8.7860185e-001
8.1983811e-001
7.9413992e-001
8.0868721e-001
8.5128927e-001
9.1879451e-001
1.0039181e+000
1.0420486e+000
1.0427312e+000
9.0021092e-001
6.6841060e-001
3.4993801e-001
-9.2717856e-003
-1.7844817e-001
-2.3813629e-001
-4.9604189e-002
2.5110230e-001
5.3278583e-001
7.8914160e-001
9.7193384e-001
1.0979543e+000
1.1343023e+000
1.1072607e+000
1.0039641e+000
8.9601552e-001
8.4554178e-001
8.3769494e-001
8.6988342e-001
8.8640326e-001
8.6162752e-001
8.3592552e-001
8.2475513e-001
8.4163553e-001
8.8288552e-001
7.9135597e-001
5.7443994e-001
2.3405871e-001
-1.8244894e-001
-3.8759369e-001
-4.3589240e-001
-2.6870412e-001
1.8923916e-002
2.2459586e-001
3.6748010e-001
3.7997457e-001
3.0509165e-001
1.3905574e-001
-5.8954462e-002
-1.8512878e-001
-2.1355446e-001
-6.2505126e-002
1.3940072e-001
2.4625450e-001
2.6326862e-001
1.9505754e-001
5.9515145e-002
-1.2289041e-001
-3.1504500e-001
-4.9494320e-001
-7.5382471e-001
-1.1115867e+000
-1.5243249e+000
-1.9655107e+000
-2.3180602e+000
-2.5843363e+000
-2.7246943e+000
-2.7713666e+000
-2.6833599e+000
-2.4992785e+000
-2.1511512e+000
-1.6967394e+000
-1.2558817e+000
-8.4169245e-001
-5.2506995e-001
-2.6653770e-001
7.5178400e-002
5.7008970e-001
1.2794554e+000
2.0643630e+000
2.7500000e+000
3.3339229e+000
3.8177481e+000
4.3748040e+000
5.1746354e+000
6.5149584e+000
8.5527554e+000
1.1700611e+001
1.6004856e+001
2.0649139e+001
2.5205904e+001
2.9220161e+001
3.2666908e+001
3.6373734e+001
4.0484623e+001
4.5346909e+001
5.0827160e+001
5.5769695e+001
6.0191200e+001
6.4528687e+001
6.8876640e+001
7.3829720e+001
7.9213272e+001
8.4425804e+001
8.9420166e+001
9.4007751e+001
9.8183327e+001
1.0192412e+002
1.0513857e+002
1.0768490e+002
1.0933340e+002
1.0985230e+002
1.0906263e+002
1.0691536e+002
1.0397440e+002
1.0077357e+002
9.7340553e+001
9.3734428e+001
8.9564301e+001
8.4734108e+001
7.9754135e+001
7.4816078e+001
7.0069702e+001
6.5527229e+001
6.0747280e+001
5.5696693e+001
5.0796608e+001
4.6088909e+001
4.1917114e+001
3.8288612e+001
3.5209034e+001
3.2655041e+001
3.0439268e+001
2.8538742e+001
2.6824972e+001
2.5347582e+001
2.4171206e+001
2.3314444e+001
2.2757000e+001
2.2464796e+001
2.2355532e+001
2.2395605e+001
2.2530972e+001
2.2750143e+001
2.3037783e+001
2.3380301e+001
2.3766872e+001
2.4260927e+001
2.4883085e+001
2.5690788e+001
2.6690241e+001
2.7832600e+001
2.9100880e+001
3.0381006e+001
3.1660265e+001
3.2975494e+001
3.4389469e+001
3.6456482e+001
3.9238514e+001
4.2353870e+001
4.5601295e+001
4.8081936e+001
4.9753174e+001
5.0904930e+001
5.1520676e+001
5.1746468e+001
5.1564079e+001
5.1012188e+001
5.0137455e+001
4.9060055e+001
4.7793350e+001
4.6396545e+001
4.4821384e+001
4.3037449e+001
4.1082867e+001
3.8972958e+001
3.6982727e+001
3.5231606e+001
3.3665657e+001
3.2289101e+001
3.0687840e+001
2.8757715e+001
2.6306917e+001
2.3226614e+001
2.0283382e+001
1.7567122e+001
1.5358711e+001
1.3714370e+001
1.2104857e+001
1.0531585e+001
8.9508104e+000
7.3806024e+000
5.8590689e+000
4.4247074e+000
3.1268182e+000
2.0171697e+000
1.1505685e+000
5.3633910e-001
1.5096200e-001
1.1087692e-001
4.7622445e-001
1.0607100e+000
1.7908611e+000
2.4668400e+000
2.9689462e+000
3.3457208e+000
3.5942376e+000
3.8878555e+000
4.2888999e+000
4.7759585e+000
5.3629656e+000
5.7879243e+000
5.9538798e+000
5.9783359e+000
5.8076634e+000
5.5742688e+000
5.2537332e+000
4.8582206e+000
4.3836145e+000
3.8891230e+000
3.4073846e+000
3.0190728e+000
2.7233539e+000
2.4876950e+000
2.3183599e+000
2.2154577e+000
2.2231896e+000
2.3896601e+000
2.6898599e+000
3.1058640e+000
3.5432081e+000
3.9397993e+000
4.2911172e+000
4.5820465e+000
4.8407922e+000
5.0585346e+000
5.2496281e+000
5.3994651e+000
5.5532856e+000
5.7171559e+000
5.8949394e+000
6.0770450e+000
6.1834755e+000
6.1572499e+000
6.0025306e+000
5.6679587e+000
5.2485857e+000
4.7359743e+000
4.2154398e+000
3.7169840e+000
3.3008621e+000
2.9661696e+000
2.6753592e+000
2.3752813e+000
1.9762335e+000
1.5102668e+000
1.0137378e+000
5.6448948e-001
2.6566970e-001
7.4642718e-002
1.5441143e-002
2.2206113e-002
1.0191951e-001
1.9745606e-001
2.7534199e-001
3.2738832e-001
3.2985204e-001
3.4725136e-001
3.9931658e-001
4.9968809e-001
6.7462367e-001
8.6325538e-001
1.0713582e+000
1.2807422e+000
1.5010334e+000
1.7397010e+000
2.0116131e+000
2.3168733e+000
2.6534300e+000
2.9833205e+000
3.2821753e+000
3.5059488e+000
3.6581771e+000
3.7542822e+000
3.8135395e+000
3.8554401e+000
3.8806827e+000
3.8762531e+000
3.8574855e+000
3.8223119e+000
3.7980962e+000
3.8116879e+000
3.8558559e+000
3.9653242e+000
4.0803146e+000
4.1947632e+000
4.2787180e+000
4.2949929e+000
4.3057513e+000
4.3162479e+000
4.3793797e+000
4.5380044e+000
4.7581267e+000
5.0638094e+000
5.3930826e+000
5.7474947e+000
6.1036320e+000
6.4649920e+000
6.8405886e+000
7.2345047e+000
7.6562839e+000
8.0971270e+000
8.5448465e+000
8.9923248e+000
9.4253378e+000
9.8488770e+000
1.0257514e+001
1.0637018e+001
1.0934729e+001
1.1157692e+001
1.1187400e+001
1.1132972e+001
1.0870023e+001
1.0559879e+001
1.0129711e+001
9.6806946e+000
9.1868544e+000
8.6778984e+000
8.1376829e+000
7.5831795e+000
7.0087199e+000
6.4474864e+000
5.9100060e+000
5.4058499e+000
4.9402480e+000
4.4875569e+000
4.0424709e+000
3.5794768e+000
3.1024358e+000
2.6188684e+000
2.1449161e+000
1.7264550e+000
1.3522704e+000
1.0598689e+000
8.0909985e-001
6.1965752e-001
4.6615085e-001
4.0314743e-001
3.8132602e-001
4.7675690e-001
5.8855963e-001
7.3519021e-001
8.5607904e-001
8.9536428e-001
9.0058339e-001
8.2500780e-001
7.5551075e-001
7.0276642e-001
6.8256414e-001
7.1218210e-001
7.3403454e-001
7.3426640e-001
6.6483861e-001
5.1721752e-001
3.3271989e-001
1.3514532e-001
3.2903064e-002
2.1536268e-002
1.6078201e-001
3.9132038e-001
7.2605610e-001
1.1020828e+000
1.4859486e+000
1.8634522e+000
2.1965590e+000
2.5099640e+000
2.7604001e+000
2.9953456e+000
3.1782544e+000
3.3495755e+000
3.4739256e+000
3.5673721e+000
3.5623803e+000
3.5359700e+000
3.4643002e+000
3.4473014e+000
3.5453243e+000
3.7309837e+000
4.0519714e+000
4.3934336e+000
4.7561340e+000
5.0950441e+000
5.4110332e+000
5.7273350e+000
6.0376034e+000
6.3027792e+000
6.5239344e+000
6.6199126e+000
6.6556997e+000
6.6612277e+000
6.6651196e+000
6.7290826e+000
6.7957029e+000
6.7870779e+000
6.7520161e+000
6.5932121e+000
6.4266429e+000
6.2481031e+000
6.0712256e+000
5.9008884e+000
5.7281647e+000
5.5482507e+000
5.3743067e+000
5.2174430e+000
5.0935445e+000
5.0338030e+000
5.0157685e+000
5.0563879e+000
5.0887198e+000
5.1013694e+000
5.0079441e+000
4.8058915e+000
4.4472346e+000
3.9832535e+000
3.5362720e+000
3.1180871e+000
2.9105601e+000
2.7886083e+000
2.7178144e+000
2.6451089e+000
2.3985066e+000
2.1172433e+000
1.7752000e+000
1.4343328e+000
1.1654010e+000
8.9790195e-001
6.3612330e-001
3.8166887e-001
1.6068450e-001
-3.5348512e-002
-1.5311857e-001
-2.4409235e-001
-2.7342477e-001
-2.9074022e-001
-2.8948396e-001
-3.2846600e-001
-4.2187339e-001
-5.3433365e-001
-6.5953368e-001
-6.6389269e-001
-5.6279659e-001
-2.8962663e-001
8.7753385e-002
4.6242252e-001
8.2613695e-001
9.9503517e-001
1.0915692e+000
9.8843336e-001
8.3713031e-001
5.6271857e-001
2.7656722e-001
6.5765381e-002
-1.2288512e-001
-3.9882854e-002
3.7782863e-003
1.1770621e-001
3.4708479e-001
6.1606866e-001
9.1993654e-001
1.3263543e+000
1.7486411e+000
2.2032266e+000
2.6010401e+000
2.9068384e+000
3.1302800e+000
3.2524779e+000
3.2875149e+000
3.2412648e+000
3.1624398e+000
3.0618081e+000
3.0708692e+000
3.1397798e+000
3.3780074e+000
3.6820593e+000
4.0259309e+000
4.3798223e+000
4.5013413e+000
4.5851970e+000
4.3734999e+000
