Image.
>Pix99999.
  .
5555
5555
2300
900
5555
2
1
0
701
5555
2.0736000e-002
2.1167383e-002
2.1598766e-002
2.2030149e-002
2.2461532e-002
2.2892913e-002
2.3324298e-002
2.3755681e-002
2.4187062e-002
2.4618445e-002
2.5049830e-002
2.5481211e-002
2.5912594e-002
2.6343977e-002
2.6775360e-002
2.7206743e-002
2.7638126e-002
2.8069507e-002
2.8500890e-002
2.8932275e-002
2.9363656e-002
2.9795039e-002
3.0226422e-002
3.0657806e-002
3.1089189e-002
3.1520572e-002
1.0595590e-002
3.7752942e-004
-1.3999680e-002
-1.6038112e-002
-1.6218729e-002
-2.8080652e-003
1.1497485e-002
2.3999872e-002
3.5391375e-002
3.8658101e-002
4.0708579e-002
3.9131768e-002
3.6816515e-002
3.2857087e-002
3.2730944e-002
4.1175026e-002
5.4324202e-002
7.4323788e-002
8.8103980e-002
9.3601048e-002
9.3332402e-002
8.8005431e-002
8.8575050e-002
9.3799062e-002
9.4617859e-002
9.2721619e-002
7.7165186e-002
5.5698231e-002
4.0495303e-002
2.7452614e-002
2.9962441e-002
3.6017422e-002
4.7142010e-002
5.9074003e-002
7.7641025e-002
9.6204072e-002
1.0780005e-001
1.1332000e-001
8.7824829e-002
5.8467798e-002
2.6062422e-002
5.9861788e-003
1.8259039e-002
3.9386284e-002
7.1060002e-002
9.8305002e-002
1.1754434e-001
1.3746177e-001
1.5908226e-001
1.7347929e-001
1.8133937e-001
1.6635810e-001
1.3596684e-001
1.0137396e-001
6.5353513e-002
5.2941620e-002
5.0517939e-002
6.2589213e-002
7.8988440e-002
7.1437627e-002
5.8241241e-002
2.1283211e-002
-1.8054828e-002
-3.1999759e-002
-3.7008598e-002
-2.4639419e-003
3.8836926e-002
8.4621213e-002
1.2162808e-001
1.3014372e-001
1.2743388e-001
1.0925071e-001
9.1491580e-002
7.8282781e-002
6.3214429e-002
4.4862796e-002
2.7242402e-002
1.0874735e-002
2.2943057e-003
-4.9791503e-005
-6.7477226e-003
-1.6906464e-002
-2.5848966e-002
-3.3886787e-002
-3.1677403e-002
-2.5245130e-002
-1.7021559e-002
-8.3443681e-003
3.6457346e-003
1.6454661e-002
2.7228720e-002
3.6697071e-002
3.6065344e-002
3.0352330e-002
7.6167942e-003
-2.1596365e-002
-6.1795101e-002
-9.9226795e-002
-1.2369994e-001
-1.3906536e-001
-1.4154361e-001
-1.4177738e-001
-1.4258994e-001
-1.5078664e-001
-1.6798186e-001
-1.9587572e-001
-2.3249468e-001
-2.6669732e-001
-2.9764292e-001
-3.0776399e-001
-3.0479366e-001
-2.7672559e-001
-2.3655452e-001
-1.9485837e-001
-1.5329000e-001
-1.2911037e-001
-1.1094477e-001
-1.0799249e-001
-1.1024103e-001
-1.3194929e-001
-1.5960042e-001
-1.9371989e-001
-2.2553588e-001
-2.3953572e-001
-2.4364215e-001
-2.3099478e-001
-2.1733943e-001
-2.1147336e-001
-2.1213880e-001
-2.2177272e-001
-2.2826794e-001
-2.2740193e-001
-2.2941612e-001
-2.3621374e-001
-2.4878229e-001
-2.6552430e-001
-2.6126942e-001
-2.4015145e-001
-2.1560983e-001
-1.9088335e-001
-2.0440131e-001
-2.3834920e-001
-2.7923280e-001
-3.2208961e-001
-3.4826371e-001
-3.6843431e-001
-3.8804367e-001
-4.0706146e-001
-4.1835758e-001
-4.2647499e-001
-4.3130952e-001
-4.3711150e-001
-4.5273215e-001
-4.7160423e-001
-4.9172315e-001
-5.0824267e-001
-5.1580083e-001
-5.1404446e-001
-5.0051230e-001
-4.7352770e-001
-4.3265146e-001
-3.9159298e-001
-3.5478681e-001
-3.4582239e-001
-3.6200842e-001
-3.8180205e-001
-4.0006286e-001
-3.9946645e-001
-3.8660389e-001
-3.9075476e-001
-4.0544841e-001
-4.2843759e-001
-4.5500982e-001
-4.4764295e-001
-4.2632571e-001
-3.9758244e-001
-3.7082234e-001
-3.7825760e-001
-4.0444261e-001
-4.5645437e-001
-5.1808548e-001
-5.8003950e-001
-6.3808519e-001
-6.8602848e-001
-7.1899801e-001
-7.2918642e-001
-7.1083134e-001
-6.5990359e-001
-6.0159546e-001
-5.4860032e-001
-5.3092784e-001
-5.5062509e-001
-5.8632869e-001
-6.2702942e-001
-6.6104484e-001
-6.8821245e-001
-7.0565468e-001
-7.1671569e-001
-7.0210522e-001
-6.7219859e-001
-6.3478917e-001
-5.9485227e-001
-5.9008908e-001
-6.0261893e-001
-6.1556560e-001
-6.2073100e-001
-5.7931411e-001
-5.1263058e-001
-4.3153322e-001
-3.6468822e-001
-3.5675961e-001
-3.9078191e-001
-4.6209639e-001
-5.3644240e-001
-5.8890516e-001
-6.1643362e-001
-6.1860174e-001
-6.0424215e-001
-5.8055711e-001
-5.3560251e-001
-4.7143048e-001
-4.0310663e-001
-3.3484045e-001
-2.9403341e-001
-2.7500713e-001
-2.5882664e-001
-2.4301040e-001
-2.1804465e-001
-1.8853463e-001
-1.5669358e-001
-1.2372348e-001
-8.1619672e-002
-3.3585172e-002
2.3777459e-002
8.9406744e-002
1.6947670e-001
2.4532926e-001
2.8023586e-001
2.7049360e-001
1.9771406e-001
1.1294880e-001
6.4228065e-002
1.9750068e-002
-4.0582344e-002
-8.0374971e-002
-8.2580127e-002
-4.2345755e-002
3.4840230e-002
1.0211223e-001
1.4575143e-001
1.1290719e-001
1.1110168e-002
-8.3792314e-002
-1.5996704e-001
-1.3746001e-001
-3.9947532e-002
3.7448794e-002
9.0414427e-002
2.9181596e-002
-1.0204978e-001
-1.7559338e-001
-1.7467059e-001
2.7451545e-002
4.0959060e-001
1.0085411e+000
1.7060895e+000
2.3232851e+000
2.8905838e+000
3.4463379e+000
4.1596341e+000
5.1867805e+000
6.7697244e+000
9.0246029e+000
1.2113874e+001
1.5992858e+001
1.9949841e+001
2.3654621e+001
2.7008499e+001
3.0058960e+001
3.3707638e+001
3.8035908e+001
4.3261375e+001
4.9195122e+001
5.4361130e+001
5.8800541e+001
6.2935066e+001
6.6921867e+001
7.1622734e+001
7.6854179e+001
8.2038353e+001
8.7026154e+001
9.1313820e+001
9.4925980e+001
9.7863144e+001
1.0018891e+002
1.0202463e+002
1.0322600e+002
1.0365077e+002
1.0292949e+002
1.0081715e+002
9.7910980e+001
9.4770477e+001
9.1389626e+001
8.7803673e+001
8.3575455e+001
7.8601013e+001
7.3525368e+001
6.8580421e+001
6.4006447e+001
5.9809200e+001
5.5620678e+001
5.1381588e+001
4.7259155e+001
4.3264362e+001
3.9510342e+001
3.6023769e+001
3.2976349e+001
3.0383350e+001
2.8234045e+001
2.6510708e+001
2.5081545e+001
2.3949995e+001
2.3069960e+001
2.2431692e+001
2.1980999e+001
2.1708796e+001
2.1577160e+001
2.1574282e+001
2.1669695e+001
2.1857313e+001
2.2122953e+001
2.2477350e+001
2.2921070e+001
2.3511333e+001
2.4264601e+001
2.5174784e+001
2.6230417e+001
2.7330683e+001
2.8451521e+001
2.9582527e+001
3.0727192e+001
3.2094898e+001
3.3787498e+001
3.6425556e+001
4.0069359e+001
4.4070919e+001
4.8199242e+001
5.1420902e+001
5.3775391e+001
5.5805286e+001
5.7507126e+001
5.8985779e+001
5.9997242e+001
6.0228981e+001
5.9654972e+001
5.8380428e+001
5.6695721e+001
5.4957161e+001
5.3208771e+001
5.1487499e+001
4.9664661e+001
4.7656204e+001
4.5365395e+001
4.2726322e+001
4.0139843e+001
3.7743050e+001
3.5508400e+001
3.3459068e+001
3.0953865e+001
2.7837523e+001
2.4682417e+001
2.1547323e+001
1.8912609e+001
1.6838909e+001
1.4823000e+001
1.2858539e+001
1.0866355e+001
8.8507891e+000
6.8359051e+000
4.8936749e+000
3.1560121e+000
1.7302420e+000
7.2492838e-001
1.5903766e-001
4.7762431e-002
4.5574856e-001
1.3042015e+000
2.2928870e+000
3.2399983e+000
4.0509086e+000
4.6507678e+000
5.1891203e+000
5.7211051e+000
6.2515535e+000
6.7799001e+000
7.1727748e+000
7.3486180e+000
7.3732886e+000
7.1842680e+000
6.9454679e+000
6.6423621e+000
6.3446169e+000
6.0518336e+000
5.7467470e+000
5.4037056e+000
4.9566641e+000
4.4037519e+000
3.8200040e+000
3.2526779e+000
2.8105857e+000
2.5122297e+000
2.3580780e+000
2.3347037e+000
2.4119885e+000
2.5540056e+000
2.7257919e+000
2.9092333e+000
3.0968533e+000
3.3040617e+000
3.5493937e+000
3.8346281e+000
4.1770039e+000
4.5526519e+000
4.9728723e+000
5.3939428e+000
5.8043442e+000
6.1393833e+000
6.3341446e+000
6.3995285e+000
6.2599950e+000
6.0090737e+000
5.6092982e+000
5.1696892e+000
4.6877851e+000
4.2085371e+000
3.7411280e+000
3.2982061e+000
2.8881531e+000
2.5174844e+000
2.1642849e+000
1.7881960e+000
1.3872030e+000
9.5401841e-001
5.4739571e-001
2.4296023e-001
4.1847013e-002
-6.8230974e-004
3.8080871e-002
1.5987602e-001
3.0914533e-001
4.9827558e-001
7.0670164e-001
9.4835556e-001
1.1911187e+000
1.4297056e+000
1.6357268e+000
1.7783837e+000
1.9050990e+000
2.0111537e+000
2.1373072e+000
2.3004928e+000
2.5024803e+000
2.7584913e+000
3.0496850e+000
3.3708999e+000
3.6780784e+000
3.9533131e+000
4.1644025e+000
4.3120522e+000
4.3994484e+000
4.4419012e+000
4.4485512e+000
4.4300742e+000
4.3824191e+000
4.3168573e+000
4.2268791e+000
4.1342177e+000
4.0486193e+000
3.9757760e+000
3.9334850e+000
3.9037578e+000
3.9009140e+000
3.9056325e+000
3.9264209e+000
3.9474800e+000
3.9691730e+000
3.9870572e+000
4.0001540e+000
4.0161815e+000
4.0387454e+000
4.0751319e+000
4.1319628e+000
4.2130098e+000
4.3212748e+000
4.4486656e+000
4.5898952e+000
4.7283115e+000
4.8592257e+000
4.9697690e+000
5.0634751e+000
5.1331134e+000
5.1868076e+000
5.2170725e+000
5.2271605e+000
5.1920600e+000
5.1224790e+000
4.9679079e+000
4.7697949e+000
4.4578328e+000
4.1097727e+000
3.6662824e+000
3.2059948e+000
2.7073181e+000
2.2126291e+000
1.7297400e+000
1.2729223e+000
8.6638153e-001
5.0837916e-001
2.2333328e-001
-1.4163896e-002
-1.9602059e-001
-3.5679582e-001
-4.9665725e-001
-6.2621182e-001
-7.4090999e-001
-8.2348651e-001
-8.7615937e-001
-8.7961012e-001
-8.5396045e-001
-7.9731250e-001
-7.2570109e-001
-6.3423449e-001
-5.2048802e-001
-3.3417332e-001
-1.1257400e-001
2.1193120e-001
5.4322875e-001
8.7548244e-001
1.1730943e+000
1.3619207e+000
1.5082185e+000
1.5489119e+000
1.5606840e+000
1.5134842e+000
1.4449571e+000
1.3385510e+000
1.2040229e+000
1.0297260e+000
8.3191961e-001
6.1253035e-001
4.0750286e-001
2.2467631e-001
9.8363280e-002
2.3713350e-002
2.6673172e-002
8.1432469e-002
2.1593137e-001
3.8417464e-001
5.6955379e-001
7.5384659e-001
9.0804017e-001
1.0480419e+000
1.1408761e+000
1.2205645e+000
1.2538114e+000
1.2917207e+000
1.3538007e+000
1.4367381e+000
1.5843236e+000
1.7289850e+000
1.8627360e+000
1.9627383e+000
1.9957812e+000
2.0091047e+000
1.9925429e+000
1.9760947e+000
1.9610081e+000
1.9545494e+000
1.9588977e+000
1.9814537e+000
2.0182910e+000
2.0579269e+000
2.0954590e+000
2.1046579e+000
2.0938573e+000
2.0304523e+000
1.9440715e+000
1.8154113e+000
1.6779723e+000
1.5453472e+000
1.4183280e+000
1.3281776e+000
1.2436831e+000
1.1838686e+000
1.1242028e+000
1.0654269e+000
1.0033393e+000
9.3083090e-001
8.5521686e-001
7.7316648e-001
7.0205742e-001
6.5195048e-001
6.1230427e-001
5.8584201e-001
5.4172003e-001
4.7587255e-001
3.9047730e-001
2.8768736e-001
1.8209270e-001
7.5121887e-002
-2.6722521e-002
-1.2479670e-001
-2.1085921e-001
-2.9242796e-001
-3.7469828e-001
-4.5872802e-001
-5.6002694e-001
-6.6432667e-001
-7.6963317e-001
-8.7263072e-001
-9.4736654e-001
-1.0155232e+000
-1.0403818e+000
-1.0557276e+000
-1.0294993e+000
-9.9375403e-001
-9.2859125e-001
-8.5604477e-001
-7.6701903e-001
-6.8259865e-001
-6.0717112e-001
-5.5086511e-001
-5.2080357e-001
-5.0585866e-001
-5.0579828e-001
-4.9330309e-001
-4.6967503e-001
-4.2299733e-001
-3.6338365e-001
-3.2413298e-001
-2.9494533e-001
-2.8383297e-001
-2.7737668e-001
-2.4515910e-001
-2.0800500e-001
-1.8255323e-001
-1.5902120e-001
-1.4724505e-001
-1.3082947e-001
-4.2902999e-002
2.2736564e-003
7.0917144e-002
2.1193469e-001
3.8816810e-001
5.5542713e-001
6.9606441e-001
8.1922346e-001
9.0495151e-001
9.8113567e-001
1.0416936e+000
1.0828520e+000
1.0998846e+000
1.0878297e+000
1.0488877e+000
1.0163991e+000
9.8851246e-001
9.7090220e-001
9.5858651e-001
9.1920555e-001
8.6966825e-001
8.0789930e-001
7.4317503e-001
6.9076592e-001
6.4051253e-001
6.6325998e-001
