Image.
>Pix99999.
  .
5555
5555
2300
900
5555
2
1
0
701
5555
1.2434000e-001
1.2692630e-001
1.2951259e-001
1.3210885e-001
1.3469520e-001
1.3728149e-001
1.3986780e-001
1.4245410e-001
1.4504041e-001
1.4762670e-001
1.5021300e-001
1.5279931e-001
1.5538560e-001
1.5797190e-001
1.6055821e-001
1.6314450e-001
1.6573080e-001
1.6833661e-001
1.7090391e-001
1.7343134e-001
1.7607428e-001
1.7891450e-001
1.8125677e-001
1.8292579e-001
1.8639863e-001
1.8719500e-001
1.4970708e-001
4.1328952e-002
-1.2339524e-001
-3.1115416e-001
-4.6685857e-001
-5.4081005e-001
-5.2948213e-001
-4.5111310e-001
-3.5818774e-001
-3.0270100e-001
-2.9530561e-001
-3.2891983e-001
-3.7424666e-001
-4.0114978e-001
-4.0222231e-001
-3.7940803e-001
-3.4502420e-001
-3.1441560e-001
-3.0285057e-001
-3.2354364e-001
-3.8145021e-001
-4.7275409e-001
-5.6821495e-001
-6.3354665e-001
-6.4587218e-001
-5.9478253e-001
-5.0563759e-001
-4.1164985e-001
-3.3232412e-001
-2.7740821e-001
-2.3551080e-001
-1.9176693e-001
-1.4451483e-001
-9.7014964e-002
-5.4540172e-002
-2.2936672e-002
-8.0118477e-003
-1.5317688e-002
-4.9468953e-002
-1.0860938e-001
-1.6564684e-001
-1.8780066e-001
-1.5356503e-001
-5.4846194e-002
7.7773802e-002
2.0343851e-001
2.9275084e-001
3.2649460e-001
3.0983302e-001
2.5703785e-001
1.8569176e-001
1.1503950e-001
6.7415357e-002
6.2246442e-002
1.0256486e-001
1.7972434e-001
2.6117229e-001
3.1102890e-001
3.1436440e-001
2.7100363e-001
2.0923740e-001
1.6203037e-001
1.3974114e-001
1.4111948e-001
1.5248443e-001
1.5877801e-001
1.5703063e-001
1.4819668e-001
1.3007052e-001
9.9482208e-002
5.4990306e-002
-1.1266228e-003
-5.4023508e-002
-8.6681321e-002
-9.2930429e-002
-7.3658749e-002
-4.0903773e-002
-8.4227528e-003
2.0208580e-002
4.4931848e-002
6.2996596e-002
7.2029077e-002
7.6386571e-002
8.4137827e-002
1.0743328e-001
1.5457748e-001
2.1158640e-001
2.5706759e-001
2.7688852e-001
2.6456442e-001
2.3152395e-001
1.9395806e-001
1.5778834e-001
1.2371920e-001
8.9912973e-002
5.6132026e-002
3.2298639e-002
2.9602421e-002
4.6353389e-002
7.3273718e-002
9.3092501e-002
9.0363070e-002
7.0513107e-002
4.8831590e-002
4.3506075e-002
6.8278961e-002
1.1484938e-001
1.6510540e-001
2.0043109e-001
2.0757121e-001
1.9453377e-001
1.7668396e-001
1.6055529e-001
1.4581724e-001
1.2218600e-001
7.9321802e-002
2.4627971e-002
-2.8274607e-002
-7.4756466e-002
-1.1526313e-001
-1.5215677e-001
-1.8654260e-001
-2.1151537e-001
-2.1644169e-001
-1.9077143e-001
-1.2802866e-001
-3.7975501e-002
6.0668811e-002
1.4355806e-001
1.8812564e-001
1.8877360e-001
1.5040329e-001
8.7442912e-002
1.9349940e-002
-3.0125584e-002
-3.8975019e-002
-4.3728855e-004
7.9126589e-002
1.6976817e-001
2.3524107e-001
2.6012030e-001
2.4431255e-001
2.0547360e-001
1.6546744e-001
1.2934828e-001
9.5237792e-002
7.0489317e-002
6.5145105e-002
7.7545807e-002
9.6791245e-002
9.9811368e-002
6.5904558e-002
9.7563667e-003
-3.8325310e-002
-6.2288340e-002
-5.8694880e-002
-3.9879598e-002
-1.9411577e-002
1.6948167e-002
9.5085904e-002
2.2437847e-001
3.9459145e-001
5.5436873e-001
6.4318693e-001
6.5401685e-001
6.1231792e-001
5.5015379e-001
4.9085328e-001
4.1521406e-001
2.9107684e-001
1.3280463e-001
-1.5140317e-002
-9.9176869e-002
-7.6275170e-002
3.8726140e-002
1.9597563e-001
3.3659559e-001
4.0763092e-001
3.9165965e-001
2.9709250e-001
1.5535268e-001
7.4542686e-003
-1.1367073e-001
-1.8161233e-001
-1.7330800e-001
-7.3195383e-002
1.0739732e-001
3.3167061e-001
5.1979244e-001
5.8344269e-001
5.0335562e-001
3.1256130e-001
8.1945725e-002
-1.0888938e-001
-2.2368543e-001
-2.5285116e-001
-1.7996334e-001
8.2012191e-003
2.7920640e-001
5.6452966e-001
7.6353741e-001
7.8165513e-001
6.2678832e-001
3.7763122e-001
1.3498372e-001
-6.8102479e-003
-1.2847493e-002
1.0040051e-001
2.5844863e-001
3.6190715e-001
3.4686589e-001
1.9224384e-001
-4.9624801e-002
-2.8516090e-001
-4.3571115e-001
-4.5303142e-001
-3.5923654e-001
-2.1906367e-001
-8.8772029e-002
-1.1922009e-003
6.8007320e-002
1.7598476e-001
3.6186624e-001
6.3179290e-001
9.1709286e-001
1.1064566e+000
1.1155840e+000
9.1253358e-001
5.9275705e-001
3.1751072e-001
1.6372377e-001
1.3594741e-001
2.2195840e-001
4.0405118e-001
6.5305227e-001
9.2162448e-001
1.1143432e+000
1.1240023e+000
9.4044316e-001
6.3695735e-001
3.3363441e-001
1.4322959e-001
3.5352647e-002
-9.7159714e-002
-2.2604099e-001
-2.2202481e-001
-8.3433241e-003
4.1287750e-001
9.2233181e-001
1.3355179e+000
1.5300092e+000
1.4699452e+000
1.2573162e+000
1.0631872e+000
9.3975002e-001
8.2945639e-001
6.4166218e-001
3.0273056e-001
-1.3371468e-001
-5.1495767e-001
-6.8448585e-001
-5.0958997e-001
8.4605157e-002
1.0912883e+000
2.3221371e+000
3.4842579e+000
4.4264488e+000
5.1627150e+000
5.8679876e+000
6.8161907e+000
8.2450752e+000
1.0305292e+001
1.2950051e+001
1.5959459e+001
1.9017000e+001
2.1802830e+001
2.4235577e+001
2.6467909e+001
2.8804396e+001
3.1596586e+001
3.4990746e+001
3.8888241e+001
4.2894558e+001
4.6500305e+001
4.9665257e+001
5.2759056e+001
5.6087914e+001
5.9780769e+001
6.3698311e+001
6.7531349e+001
7.1146713e+001
7.4586792e+001
7.7863281e+001
8.0943871e+001
8.3859657e+001
8.6694824e+001
8.9482719e+001
9.2144432e+001
9.4321800e+001
9.5507286e+001
9.5601982e+001
9.4894882e+001
9.3614639e+001
9.1837288e+001
8.9510727e+001
8.6535851e+001
8.3025177e+001
7.9277336e+001
7.5478348e+001
7.1658798e+001
6.7780434e+001
6.3783375e+001
5.9684616e+001
5.5580276e+001
5.1576775e+001
4.7776146e+001
4.4285591e+001
4.1199772e+001
3.8521587e+001
3.6169155e+001
3.4065079e+001
3.2161217e+001
3.0456429e+001
2.8984573e+001
2.7755501e+001
2.6745300e+001
2.5905205e+001
2.5177931e+001
2.4551258e+001
2.4062408e+001
2.3765085e+001
2.3716570e+001
2.3968222e+001
2.4550766e+001
2.5427628e+001
2.6491758e+001
2.7607557e+001
2.8645987e+001
2.9573320e+001
3.0451752e+001
3.1329794e+001
3.2258198e+001
3.3474892e+001
3.5341572e+001
3.7848541e+001
4.0556778e+001
4.2999233e+001
4.4847298e+001
4.6153397e+001
4.7320965e+001
4.8595154e+001
4.9931084e+001
5.1084160e+001
5.1695885e+001
5.1615685e+001
5.0976151e+001
5.0048435e+001
4.9157413e+001
4.8448662e+001
4.7837551e+001
4.7150387e+001
4.6182137e+001
4.4796921e+001
4.2980438e+001
4.0906029e+001
3.8889496e+001
3.7031521e+001
3.5138611e+001
3.2954433e+001
3.0281778e+001
2.7236856e+001
2.4257000e+001
2.1627100e+001
1.9351431e+001
1.7317572e+001
1.5358674e+001
1.3369909e+001
1.1334426e+001
9.2354345e+000
7.0530763e+000
4.8766961e+000
2.9251533e+000
1.3944142e+000
4.1399309e-001
8.3591871e-002
4.3895742e-001
1.2753465e+000
2.1446600e+000
2.7959740e+000
3.3011093e+000
3.8047986e+000
4.4328327e+000
5.1807761e+000
5.8774457e+000
6.3093200e+000
6.2935133e+000
5.8588929e+000
5.2804165e+000
4.7440562e+000
4.2507071e+000
3.7878759e+000
3.3787329e+000
3.0546381e+000
2.8373446e+000
2.6928728e+000
2.5218978e+000
2.2544343e+000
1.8889444e+000
1.4858400e+000
1.1613985e+000
9.9394941e-001
9.8566478e-001
1.0866923e+000
1.2043283e+000
1.2725228e+000
1.2819901e+000
1.2672789e+000
1.3025495e+000
1.4418972e+000
1.6972142e+000
2.0653508e+000
2.5312705e+000
3.0585361e+000
3.5828984e+000
4.0311284e+000
4.3342185e+000
4.4697571e+000
4.4799805e+000
4.4081264e+000
4.2767501e+000
4.1015739e+000
3.8969393e+000
3.6889536e+000
3.5161362e+000
3.3853230e+000
3.2539566e+000
3.0814681e+000
2.8516874e+000
2.5774167e+000
2.3017149e+000
2.0390098e+000
1.7522867e+000
1.4147063e+000
1.0367239e+000
6.5885228e-001
3.4855217e-001
1.3735302e-001
-5.6198388e-003
-1.0190193e-001
-1.3510929e-001
-7.5844884e-002
1.0318197e-001
3.7352237e-001
6.2270397e-001
7.5071138e-001
7.1758014e-001
5.5050981e-001
3.5896039e-001
2.3639497e-001
2.1788235e-001
3.1698769e-001
5.3130370e-001
8.4226847e-001
1.2085443e+000
1.5726800e+000
1.8632237e+000
2.0340760e+000
2.0897529e+000
2.0630965e+000
2.0135450e+000
1.9916514e+000
2.0205350e+000
2.1053803e+000
2.2309208e+000
2.3770573e+000
2.5243578e+000
2.6591613e+000
2.7781382e+000
2.8833761e+000
2.9827406e+000
3.0866666e+000
3.2077103e+000
3.3578389e+000
3.5453737e+000
3.7701814e+000
4.0177498e+000
4.2697268e+000
4.5083323e+000
4.7271395e+000
4.9399843e+000
5.1676402e+000
5.4333448e+000
5.7536321e+000
6.1311293e+000
6.5661488e+000
7.0598254e+000
7.6103268e+000
8.2090216e+000
8.8408194e+000
9.4820747e+000
1.0114808e+001
1.0734509e+001
1.1336742e+001
1.1910647e+001
1.2435143e+001
1.2879847e+001
1.3219240e+001
1.3440537e+001
1.3541320e+001
1.3530314e+001
1.3414783e+001
1.3199937e+001
1.2894066e+001
1.2513790e+001
1.2078258e+001
1.1606246e+001
1.1108628e+001
1.0582418e+001
1.0024717e+001
9.4334908e+000
8.8108158e+000
8.1667576e+000
7.5124025e+000
6.8583016e+000
6.2132287e+000
5.5835419e+000
4.9767795e+000
4.4037161e+000
3.8741412e+000
3.3934987e+000
2.9656205e+000
2.5934663e+000
2.2840061e+000
2.0520477e+000
1.9044399e+000
1.8256557e+000
1.7886040e+000
1.7538247e+000
1.6895789e+000
1.5883936e+000
1.4535348e+000
1.2990999e+000
1.1404600e+000
9.8956198e-001
8.5430229e-001
7.3536873e-001
6.2812078e-001
5.2054870e-001
4.0367299e-001
2.8025323e-001
1.6114840e-001
6.8425700e-002
1.7283851e-002
9.7762793e-004
1.1128435e-002
4.8267897e-002
1.1876866e-001
2.3786022e-001
4.2298412e-001
6.9040585e-001
1.0440886e+000
1.4583738e+000
1.8958600e+000
2.3095102e+000
2.6653414e+000
2.9676027e+000
3.2352691e+000
3.5005724e+000
3.7875493e+000
4.0928049e+000
4.4077239e+000
4.7271743e+000
5.0544562e+000
5.4099908e+000
5.8074427e+000
6.2321424e+000
6.6566319e+000
7.0396705e+000
7.3494015e+000
7.5885668e+000
7.7768941e+000
7.9553986e+000
8.1565742e+000
8.3762732e+000
8.5929260e+000
8.7651520e+000
8.8628683e+000
8.9011316e+000
8.9087315e+000
8.9204836e+000
8.9575882e+000
8.9996252e+000
9.0133982e+000
8.9592810e+000
8.8054457e+000
8.5462456e+000
8.1884537e+000
7.7558980e+000
7.2757754e+000
6.7743039e+000
6.2747288e+000
5.7933831e+000
5.3401918e+000
4.9132371e+000
4.5078802e+000
4.1209512e+000
3.7521400e+000
3.4092937e+000
3.0993905e+000
2.8225229e+000
2.5753093e+000
2.3493772e+000
2.1354265e+000
1.9259391e+000
1.7153171e+000
1.5021449e+000
1.2872431e+000
1.0748881e+000
8.6750919e-001
6.5970474e-001
4.4369215e-001
2.1053548e-001
-4.4961840e-002
-3.1525245e-001
-5.8968496e-001
-8.5777295e-001
-1.1097262e+000
-1.3380816e+000
-1.5340675e+000
-1.6831079e+000
-1.7701874e+000
-1.7822843e+000
-1.7103281e+000
-1.5548282e+000
-1.3237686e+000
-1.0402132e+000
-7.2763145e-001
-3.9783829e-001
-5.7512045e-002
2.9451200e-001
6.5062046e-001
9.6702683e-001
1.1947240e+000
1.2980677e+000
1.2585843e+000
1.1060305e+000
8.8117683e-001
6.2236881e-001
3.6919421e-001
1.6721696e-001
4.9545970e-002
-4.0207244e-004
-1.2431669e-002
-1.9352481e-002
-5.1225662e-002
-1.2507029e-001
-2.4163091e-001
-3.5422677e-001
-4.1665870e-001
-4.2848763e-001
-4.0446639e-001
-3.7374732e-001
-3.6567098e-001
-3.9670381e-001
-4.7083142e-001
-5.5648983e-001
-6.0899031e-001
-5.6745690e-001
-3.8961661e-001
-1.2119909e-001
1.5641630e-001
3.0856699e-001
2.3287620e-001
7.8273565e-003
-2.4281000e-001
