Image.
>Pix99999.
  .
5555
5555
2300
900
5555
2
1
0
701
5555
5.0758000e-002
5.1814489e-002
5.2869979e-002
5.3926468e-002
5.4981962e-002
5.6038443e-002
5.7093941e-002
5.8150422e-002
5.9205920e-002
6.0261410e-002
6.1317887e-002
6.2373389e-002
6.3429862e-002
6.4485371e-002
6.5541841e-002
6.6597350e-002
6.7653812e-002
6.8709336e-002
6.9765799e-002
7.0821308e-002
7.1877770e-002
7.2933294e-002
7.3989749e-002
7.5045273e-002
7.6100759e-002
7.7157214e-002
6.3066036e-002
2.4115243e-003
-5.1768959e-002
-1.0502169e-001
-1.5814044e-001
-1.3563833e-001
-1.0613818e-001
-4.1888572e-002
2.0267706e-002
5.2753847e-002
8.1676975e-002
1.0141150e-001
1.2830473e-001
1.7861901e-001
2.2873715e-001
2.7550822e-001
3.0844221e-001
3.1908932e-001
3.3203027e-001
3.4951571e-001
3.5849866e-001
3.5896605e-001
3.2486972e-001
2.6535100e-001
2.3326786e-001
2.1801092e-001
2.6641312e-001
3.4227094e-001
3.9859414e-001
4.4795999e-001
4.4667640e-001
4.3383849e-001
4.1486490e-001
3.9548513e-001
4.1087401e-001
4.3380347e-001
5.0615674e-001
5.7864648e-001
6.2514442e-001
6.5456092e-001
6.3103014e-001
6.0910302e-001
6.0480386e-001
6.1103225e-001
6.3378102e-001
6.3661635e-001
6.0813987e-001
5.5682391e-001
4.8345208e-001
4.3823466e-001
4.1995284e-001
4.5937908e-001
5.3704745e-001
6.2246203e-001
7.0995343e-001
7.5551176e-001
7.8319377e-001
7.6910621e-001
7.4217761e-001
7.0311487e-001
6.6151541e-001
6.5515399e-001
6.5598541e-001
6.8581587e-001
7.1682316e-001
7.2532749e-001
7.2363883e-001
6.9086617e-001
6.5297687e-001
6.1341959e-001
5.7946670e-001
5.5856287e-001
5.4468119e-001
5.3943288e-001
5.4165572e-001
5.5214894e-001
5.6752563e-001
5.8672100e-001
5.8702463e-001
5.7101500e-001
5.2068210e-001
4.4907784e-001
3.7673092e-001
3.0560660e-001
2.8395373e-001
2.8285506e-001
3.2109720e-001
3.7145257e-001
3.8838932e-001
3.9619577e-001
3.5171452e-001
2.9787394e-001
2.4844100e-001
2.0398560e-001
1.8200201e-001
1.6366304e-001
1.4361542e-001
1.1381474e-001
6.1101556e-002
1.7269105e-003
-6.1185308e-002
-9.0954170e-002
-7.0675850e-002
-7.0650028e-003
9.5886752e-002
1.7379023e-001
2.2061938e-001
2.1842650e-001
1.8279111e-001
1.5086521e-001
1.2543640e-001
9.7685017e-002
6.8576932e-002
2.3180570e-002
-2.9568199e-002
-4.9639497e-002
-5.9363790e-002
-4.5134541e-002
-2.6347017e-002
-2.6386257e-002
-3.3853181e-002
-5.6776401e-002
-8.4979609e-002
-1.1498255e-001
-1.5102643e-001
-2.0141006e-001
-2.5722662e-001
-3.2110116e-001
-3.6638120e-001
-3.8082585e-001
-3.7511602e-001
-3.5136756e-001
-3.3028245e-001
-3.1473041e-001
-3.0597600e-001
-3.0118760e-001
-3.0458242e-001
-3.1271759e-001
-3.1595388e-001
-3.1570619e-001
-3.1828916e-001
-3.2398507e-001
-3.7715718e-001
-4.5141727e-001
-5.3325558e-001
-6.1544520e-001
-6.1635661e-001
-5.8961713e-001
-5.3070080e-001
-4.6881500e-001
-4.4867754e-001
-4.3766037e-001
-4.2789313e-001
-4.0568313e-001
-3.5350087e-001
-3.0143550e-001
-2.6224318e-001
-2.6709577e-001
-3.3111829e-001
-4.3888599e-001
-5.7903737e-001
-6.8728793e-001
-7.5492454e-001
-7.6082641e-001
-7.2528940e-001
-6.8862349e-001
-6.5758759e-001
-6.4368439e-001
-6.3851291e-001
-6.1613560e-001
-5.8448243e-001
-5.3923738e-001
-4.8971334e-001
-4.4513458e-001
-4.0326285e-001
-3.5711297e-001
-3.0913296e-001
-2.6780009e-001
-2.3353016e-001
-2.2727457e-001
-2.3127760e-001
-2.3665798e-001
-2.3634845e-001
-2.1743329e-001
-2.1669699e-001
-2.5232121e-001
-3.2913890e-001
-4.4455788e-001
-5.0784349e-001
-5.0181043e-001
-4.1195393e-001
-2.6442051e-001
-1.4137223e-001
-4.9802929e-002
-1.9848542e-002
-2.7529329e-002
-8.8403150e-002
-1.7594680e-001
-3.1306720e-001
-4.7183642e-001
-6.0857952e-001
-7.2592735e-001
-7.5915742e-001
-7.5271618e-001
-7.1574759e-001
-6.7104530e-001
-6.3102490e-001
-5.9127426e-001
-5.5368143e-001
-4.9522915e-001
-3.9952567e-001
-2.7939337e-001
-1.3849097e-001
-1.8912788e-002
6.1059855e-002
8.3134279e-002
4.7715671e-002
-2.2416880e-002
-1.1428208e-001
-2.0130199e-001
-2.7748755e-001
-3.7562525e-001
-4.9196562e-001
-6.3346511e-001
-7.9045212e-001
-8.6274260e-001
-8.7888885e-001
-7.5297469e-001
-5.4893869e-001
-3.6071551e-001
-1.9730504e-001
-1.4944811e-001
-1.7910677e-001
-2.7798450e-001
-4.1225713e-001
-5.3812295e-001
-6.1483109e-001
-5.7724839e-001
-4.5135367e-001
-2.5945556e-001
-7.5460061e-002
4.8127130e-002
3.2989651e-002
-7.3805675e-002
-1.9142200e-001
-3.0129448e-001
-4.2570052e-001
-5.6460845e-001
-7.3888695e-001
-9.5095176e-001
-1.1116703e+000
-1.2255901e+000
-1.2422935e+000
-1.1807957e+000
-1.0532460e+000
-8.7628770e-001
-6.7285615e-001
-4.5901543e-001
-2.8369525e-001
-1.4905366e-001
-5.7520878e-002
-7.2873095e-003
5.9085689e-003
4.4838749e-002
2.4893169e-001
6.5155375e-001
1.3007897e+000
2.0872149e+000
2.9105940e+000
3.8306956e+000
4.9212623e+000
6.4858165e+000
8.6901398e+000
1.1860041e+001
1.5996571e+001
2.0201410e+001
2.4067102e+001
2.7356699e+001
3.0137325e+001
3.3353951e+001
3.7137581e+001
4.1927052e+001
4.7535160e+001
5.2635860e+001
5.7216000e+001
6.1613903e+001
6.5949539e+001
7.0906563e+001
7.6289001e+001
8.1364449e+001
8.6016830e+001
8.9813820e+001
9.2824646e+001
9.5157486e+001
9.6870171e+001
9.8077362e+001
9.8757416e+001
9.8911987e+001
9.8566330e+001
9.7750893e+001
9.6640091e+001
9.5422867e+001
9.3921730e+001
9.2092857e+001
8.9584129e+001
8.6328232e+001
8.2598389e+001
7.8551796e+001
7.4298882e+001
6.9906891e+001
6.5162804e+001
6.0086174e+001
5.5138988e+001
5.0361229e+001
4.5972084e+001
4.1983368e+001
3.8470364e+001
3.5430767e+001
3.2790047e+001
3.0538401e+001
2.8572954e+001
2.6928410e+001
2.5618389e+001
2.4635241e+001
2.3916000e+001
2.3453024e+001
2.3194925e+001
2.3160152e+001
2.3335445e+001
2.3713514e+001
2.4272074e+001
2.4960030e+001
2.5742605e+001
2.6715908e+001
2.7909029e+001
2.9459677e+001
3.1386265e+001
3.3536877e+001
3.5868042e+001
3.8111229e+001
4.0231770e+001
4.2245041e+001
4.4186138e+001
4.6510281e+001
4.9216270e+001
5.1791801e+001
5.4055882e+001
5.5527912e+001
5.6201088e+001
5.6499607e+001
5.6335262e+001
5.5660648e+001
5.4462639e+001
5.2779022e+001
5.0891712e+001
4.9216236e+001
4.7667027e+001
4.6199944e+001
4.4702518e+001
4.3083599e+001
4.1259914e+001
3.9164700e+001
3.6858738e+001
3.4325638e+001
3.1941357e+001
2.9848801e+001
2.7860840e+001
2.5985064e+001
2.3716621e+001
2.0935329e+001
1.8194822e+001
1.5545930e+001
1.3341532e+001
1.1631700e+001
9.9569283e+000
8.3298206e+000
6.7270417e+000
5.1890297e+000
3.7710652e+000
2.5381687e+000
1.5566200e+000
8.3599412e-001
3.5608786e-001
9.7164832e-002
3.4331340e-002
3.2572320e-001
1.0131934e+000
1.9752750e+000
3.1514759e+000
4.2900686e+000
5.2582803e+000
6.1089568e+000
6.8479495e+000
7.6097765e+000
8.4328995e+000
9.2477989e+000
1.0011939e+001
1.0552287e+001
1.0743691e+001
1.0746893e+001
1.0487137e+001
1.0111142e+001
9.5743389e+000
8.8938951e+000
8.0452385e+000
7.0879416e+000
6.0827527e+000
5.2336841e+000
4.5693421e+000
4.0993571e+000
3.7949498e+000
3.5738714e+000
3.4660120e+000
3.4873791e+000
3.6652427e+000
4.0371900e+000
4.5012455e+000
5.0220861e+000
5.5425415e+000
6.0357776e+000
6.4853854e+000
6.8499446e+000
7.1031199e+000
7.1665459e+000
7.1223001e+000
6.9020133e+000
6.6835237e+000
6.4507837e+000
6.2312922e+000
6.0217853e+000
5.7894640e+000
5.5184808e+000
5.1983886e+000
4.8072309e+000
4.3335629e+000
3.7843027e+000
3.2083540e+000
2.6249197e+000
2.0883467e+000
1.5720485e+000
1.0464306e+000
5.4049104e-001
8.9694336e-002
-2.4832770e-001
-3.7512243e-001
-3.5713428e-001
-1.6354126e-001
1.2456140e-001
5.1705933e-001
9.1569638e-001
1.2861680e+000
1.6052256e+000
1.8224689e+000
2.0138950e+000
2.1538343e+000
2.2957428e+000
2.4101837e+000
2.4869452e+000
2.4955246e+000
2.4602745e+000
2.3773966e+000
2.2861102e+000
2.1983898e+000
2.1245966e+000
2.0741401e+000
2.0465243e+000
2.0342138e+000
2.0323832e+000
2.0256679e+000
2.0073030e+000
1.9789417e+000
1.9439369e+000
1.9156351e+000
1.9066575e+000
1.9314286e+000
2.0242999e+000
2.1710706e+000
2.4170218e+000
2.7048481e+000
3.0633345e+000
3.4405673e+000
3.8493226e+000
4.2394080e+000
4.5790138e+000
4.8452244e+000
4.9722037e+000
5.0502892e+000
5.0642986e+000
5.1249328e+000
5.2619252e+000
5.4769678e+000
5.7878065e+000
6.1503081e+000
6.5747428e+000
7.0544314e+000
7.5958009e+000
8.2097015e+000
8.8840628e+000
9.6147118e+000
1.0374500e+001
1.1135411e+001
1.1866666e+001
1.2498903e+001
1.3029041e+001
1.3313043e+001
1.3440403e+001
1.3207200e+001
1.2832852e+001
1.2119885e+001
1.1334357e+001
1.0365228e+001
9.3889904e+000
8.4024811e+000
7.4742680e+000
6.6745000e+000
5.9851441e+000
5.4971175e+000
5.1531115e+000
5.0205340e+000
5.0042691e+000
5.1068521e+000
5.1815157e+000
5.1914988e+000
5.0208931e+000
4.6852856e+000
4.1916490e+000
3.6106937e+000
3.0399299e+000
2.4998949e+000
2.0681643e+000
1.6997291e+000
1.4457389e+000
1.2512257e+000
1.1950464e+000
1.1837400e+000
1.2784152e+000
1.3780919e+000
1.4710926e+000
1.5529703e+000
1.5999100e+000
1.6451252e+000
1.6835589e+000
1.6997405e+000
1.6661983e+000
1.5837457e+000
1.4205439e+000
1.2277062e+000
9.9728179e-001
7.6362878e-001
5.3151715e-001
3.2661515e-001
1.5660140e-001
5.6312155e-002
1.1681223e-002
1.8836256e-002
5.5781126e-002
1.3988283e-001
2.5403500e-001
4.3224856e-001
6.3362503e-001
8.6607540e-001
1.0838898e+000
1.1951720e+000
1.2754147e+000
1.2427458e+000
1.2160032e+000
1.2224429e+000
1.2370907e+000
1.2760185e+000
1.3000550e+000
1.2887681e+000
1.2859570e+000
1.3052851e+000
1.3721268e+000
1.5189857e+000
1.7275950e+000
2.0176759e+000
2.3584013e+000
2.7454188e+000
3.1173065e+000
3.4666910e+000
3.7368731e+000
3.9491138e+000
4.0797720e+000
4.1640344e+000
4.1771779e+000
4.1560693e+000
4.0580449e+000
3.9376235e+000
3.7802677e+000
3.6228600e+000
3.5013664e+000
3.3861907e+000
3.3006966e+000
3.2271314e+000
3.2068489e+000
3.2033937e+000
3.2509809e+000
3.2696171e+000
3.2162323e+000
3.1313090e+000
2.9926739e+000
2.9038382e+000
2.8924584e+000
2.9487798e+000
3.0802665e+000
3.2004731e+000
3.3032801e+000
3.3255167e+000
3.2825379e+000
3.1332388e+000
2.9177480e+000
2.5912287e+000
2.2180536e+000
1.8051486e+000
1.3887682e+000
1.0507615e+000
7.3221225e-001
4.8294920e-001
2.3602004e-001
-5.2020431e-002
-3.3770204e-001
-6.0390639e-001
-8.4065515e-001
-9.4700068e-001
-1.0265111e+000
-1.0221870e+000
-9.9148631e-001
-8.9912295e-001
-7.7396178e-001
-5.9340191e-001
-4.4426510e-001
-3.4027401e-001
-3.0089426e-001
-3.2740915e-001
-3.3947900e-001
-3.3818465e-001
-3.0097607e-001
-2.4275360e-001
-2.0664500e-001
-1.7977008e-001
-1.4073983e-001
-9.6026435e-002
-6.3939095e-003
9.0426542e-002
1.3962924e-001
1.7885041e-001
1.1856419e-001
5.5930883e-002
1.8434249e-002
3.4098849e-003
1.0777591e-001
3.6907619e-001
8.8951719e-001
1.4143944e+000
1.9497972e+000
2.3855550e+000
2.6062181e+000
2.7094891e+000
2.6252756e+000
2.5068040e+000
2.3480122e+000
2.2310507e+000
2.1521633e+000
2.0543058e+000
1.9423586e+000
1.7913457e+000
1.6223820e+000
1.6311728e+000
1.7106292e+000
1.9386344e+000
2.2066238e+000
2.4451702e+000
2.6796780e+000
3.0836999e+000
