##TITLE=Methyl Ethyl Ketone
##JCAMP-DX=4.24
##DATA TYPE=INFRARED SPECTRUM
##XUNITS=cm-1
##YUNITS=Absorbance
##FIRSTX=900
##LASTX=2300
##XYDATA=(X++(Y..Y))
2296 0.0027530999
2294 0.0028104181
2292 0.0028676363
2290 0.0029249538
2288 0.0029821726
2286 0.00303949
2284 0.003096808
2282 0.003154027
2280 0.0032113441
2278 0.0032689583
2276 0.0033258859
2274 0.0033818199
2272 0.0034403936
2270 0.0035024448
2268 0.0035550499
2266 0.0035943619
2264 0.0036690719
2262 0.0037934473
2260 0.003785783
2258 0.0035933608
2256 0.0038913772
2254 0.0048784479
2252 0.004042991
2250 0.0006372116
2248 0.0040060231
2246 0.020474633
2244 0.032942399
2242 0.01872956
2240 -0.040884599
2238 -0.15136158
2236 -0.26947057
2234 -0.34363857
2232 -0.34459743
2230 -0.2627539
2228 -0.14162719
2226 -0.035198901
2224 0.022005212
2222 0.0076753884
2220 -0.074924536
2218 -0.20863725
2216 -0.35034314
2214 -0.4536202
2212 -0.48961061
2210 -0.44673198
2208 -0.3615751
2206 -0.28012678
2204 -0.22726144
2202 -0.21519712
2200 -0.231848
2198 -0.26041549
2196 -0.29484928
2194 -0.33197805
2192 -0.36590582
2190 -0.38965935
2188 -0.39556208
2186 -0.37975734
2184 -0.35486481
2182 -0.33778301
2180 -0.34142092
2178 -0.37127358
2176 -0.40817428
2174 -0.4272911
2172 -0.41313344
2170 -0.35951251
2168 -0.28491789
2166 -0.21477471
2164 -0.16970846
2162 -0.16175635
2160 -0.17501828
2158 -0.18483722
2156 -0.16924401
2154 -0.11535576
2152 -0.042858172
2150 0.019263612
2148 0.04965613
2146 0.036341857
2144 -0.0062470343
2142 -0.056126088
2140 -0.097853631
2138 -0.12234184
2136 -0.13604
2134 -0.15022255
2132 -0.17351116
2130 -0.21251857
2128 -0.27027678
2126 -0.34624699
2124 -0.43039486
2122 -0.50842887
2120 -0.56247741
2118 -0.57755494
2116 -0.55580556
2114 -0.50768328
2112 -0.4518041
2110 -0.40826082
2108 -0.39164886
2106 -0.40992957
2104 -0.45252845
2102 -0.50179392
2100 -0.53960979
2098 -0.55141413
2096 -0.53719574
2094 -0.50440758
2092 -0.4681969
2090 -0.44553435
2088 -0.44941953
2086 -0.48639649
2084 -0.54308969
2082 -0.59918118
2080 -0.63795656
2078 -0.64913672
2076 -0.642097
2074 -0.63126695
2072 -0.61973238
2070 -0.60474634
2068 -0.57984316
2066 -0.5419361
2064 -0.50744152
2062 -0.49850193
2060 -0.52719438
2058 -0.59699357
2056 -0.69417
2054 -0.79846138
2052 -0.89153707
2050 -0.95825791
2048 -0.99205947
2046 -0.9920879
2044 -0.96635443
2042 -0.92664188
2040 -0.88530833
2038 -0.85283172
2036 -0.83138657
2034 -0.81845653
2032 -0.8068406
2030 -0.78888547
2028 -0.76288962
2026 -0.72867393
2024 -0.68103921
2022 -0.61510503
2020 -0.53747028
2018 -0.46202955
2016 -0.411158
2014 -0.40243545
2012 -0.41820574
2010 -0.42685494
2008 -0.40676314
2006 -0.34946057
2004 -0.27889174
2002 -0.2311856
2000 -0.23199441
1998 -0.29444158
1996 -0.40295357
1994 -0.52908325
1992 -0.64528155
1990 -0.72937828
1988 -0.77663159
1986 -0.79174548
1984 -0.78456736
1982 -0.76599252
1980 -0.74325949
1978 -0.71807897
1976 -0.67673659
1974 -0.60046202
1972 -0.48055989
1970 -0.32311633
1968 -0.17428839
1966 -0.092807494
1964 -0.10792226
1962 -0.2215005
1960 -0.38683802
1958 -0.5417192
1956 -0.657233
1954 -0.72708774
1952 -0.76249474
1950 -0.77941817
1948 -0.78178823
1946 -0.76855004
1944 -0.74631172
1942 -0.72517526
1940 -0.71087283
1938 -0.70490432
1936 -0.70194656
1934 -0.69627017
1932 -0.695122
1930 -0.70948106
1928 -0.73549861
1926 -0.75528377
1924 -0.72679669
1922 -0.6098569
1920 -0.42573047
1918 -0.22995411
1916 -0.078123674
1914 -0.011525347
1912 -0.021448141
1910 -0.077229202
1908 -0.17120154
1906 -0.30524671
1904 -0.45716679
1902 -0.58641392
1900 -0.63667905
1898 -0.5580743
1896 -0.36182141
1894 -0.10112081
1892 0.14122051
1890 0.2799103
1888 0.27865422
1886 0.14230354
1884 -0.072581016
1882 -0.2897653
1880 -0.46583956
1878 -0.58387768
1876 -0.64805299
1874 -0.66822886
1872 -0.6340149
1870 -0.52975345
1868 -0.3738282
1866 -0.21016885
1864 -0.10041794
1862 -0.1006894
1860 -0.20494954
1858 -0.36941305
1856 -0.55289346
1854 -0.72200215
1852 -0.85369545
1850 -0.93061155
1848 -0.93505883
1846 -0.85719287
1844 -0.72569793
1842 -0.59091932
1840 -0.4926208
1838 -0.45029268
1836 -0.43383601
1834 -0.3862251
1832 -0.26533285
1830 -0.057660349
1828 0.17921245
1826 0.35029766
1824 0.39026031
1822 0.27409738
1820 0.050324623
1818 -0.19358063
1816 -0.39694285
1814 -0.52960736
1812 -0.59714818
1810 -0.62051332
1808 -0.59599316
1806 -0.50730699
1804 -0.36619154
1802 -0.20895143
1800 -0.088586599
1798 -0.04999733
1796 -0.06177593
1794 -0.045516431
1792 0.051680043
1790 0.24534275
1788 0.48913771
1786 0.70646977
1784 0.86251116
1782 0.96113557
1780 1.0287356
1778 1.099521
1776 1.1918256
1774 1.3009689
1772 1.3745606
1770 1.337701
1768 1.1596103
1766 0.85921663
1764 0.5218218
1762 0.25413233
1760 0.064163029
1758 -0.10188224
1756 -0.22930044
1754 -0.25019145
1752 -0.12778664
1750 0.1293443
1748 0.44574809
1746 0.70807892
1744 0.83538437
1742 0.80079043
1740 0.68818343
1738 0.64077985
1736 0.71377599
1734 0.8680352
1732 0.98429561
1730 0.92003375
1728 0.65519607
1726 0.28193972
1724 -0.051912032
1722 -0.1754604
1720 0.059095383
1718 0.73537898
1716 1.7392986
1714 2.8189406
1712 3.781276
1710 4.5445247
1708 5.2266264
1706 6.0907636
1704 7.3934402
1702 9.3387871
1700 12.016708
1698 15.364451
1696 19.013
1694 22.4207
1692 25.333868
1690 27.839994
1688 30.356789
1686 33.482079
1684 37.605209
1682 42.773544
1680 48.389801
1678 53.510719
1676 57.916599
1674 62.073105
1672 66.453758
1670 71.315865
1668 76.401497
1666 81.088646
1664 85.005135
1662 88.087212
1660 90.404884
1658 92.091873
1656 93.265144
1654 94.007744
1652 94.368683
1650 94.360596
1648 93.934769
1646 93.024002
1644 91.708801
1642 90.183487
1640 88.521439
1638 86.646942
1636 84.405716
1634 81.634529
1632 78.349525
1630 74.718689
1628 70.823929
1626 66.639526
1624 62.145
1622 57.368889
1620 52.463173
1618 47.678585
1616 43.210228
1614 39.170448
1612 35.625309
1610 32.59824
1608 30.045908
1606 27.875149
1604 26.017195
1602 24.442326
1600 23.151726
1598 22.165815
1596 21.487499
1594 21.097361
1592 20.961554
1590 21.035776
1588 21.286585
1586 21.697006
1584 22.260988
1582 22.99029
1580 23.953758
1578 25.272251
1576 27.059599
1574 29.382954
1572 32.16312
1570 35.179356
1568 38.20924
1566 41.078114
1564 43.714832
1562 46.190937
1560 48.798267
1558 51.924801
1556 55.398914
1554 58.465748
1552 60.548141
1550 61.467472
1548 61.457603
1546 61.048466
1544 60.458889
1542 59.49506
1540 57.92424
1538 55.629398
1536 52.819344
1534 50.002243
1532 47.510956
1530 45.38908
1528 43.551933
1526 41.83675
1524 40.065552
1522 38.082771
1520 35.83408
1518 33.394066
1516 30.939014
1514 28.693802
1512 26.67812
1510 24.665754
1508 22.449038
1506 19.941851
1504 17.284224
1502 14.8234
1500 12.750543
1498 11.00758
1496 9.4624424
1494 7.9704657
1492 6.4696116
1490 5.0004864
1488 3.6096709
1486 2.3298943
1484 1.2188873
1482 0.36484885
1480 -0.16241702
1478 -0.31679535
1476 -0.017063588
1474 0.83491576
1472 2.1633663
1470 3.6810889
1468 5.1404457
1466 6.4206772
1464 7.5202208
1462 8.5512466
1460 9.6191711
1458 10.772933
1456 11.9614
1454 13.02328
1452 13.802989
1450 14.194443
1448 14.178371
1446 13.833428
1444 13.2647
1442 12.57764
1440 11.850788
1438 11.121322
1436 10.380385
1434 9.5769377
1432 8.6955729
1430 7.7841349
1428 6.9167781
1426 6.1783028
1424 5.6196599
1422 5.2388401
1420 5.0099573
1418 4.8935795
1416 4.8675113
1414 4.938005
1412 5.1178017
1410 5.4161787
1408 5.8188763
1406 6.2785172
1404 6.7397571
1402 7.1477928
1400 7.4577479
1398 7.6402583
1396 7.6751785
1394 7.5544448
1392 7.2915907
1390 6.9281464
1388 6.512321
1386 6.0903502
1384 5.6936116
1382 5.3304157
1380 4.9944553
1378 4.6646757
1376 4.3142715
1374 3.914947
1372 3.4510579
1370 2.9278755
1368 2.3597867
1366 1.7684114
1364 1.1783491
1362 0.6184535
1360 0.132174
1358 -0.2198685
1356 -0.39505699
1354 -0.3862811
1352 -0.20077533
1350 0.14386287
1348 0.62664801
1346 1.2252464
1344 1.9193039
1342 2.6866765
1340 3.4726815
1338 4.1721454
1336 4.6763797
1334 4.8993187
1332 4.8201051
1330 4.5151882
1328 4.0780864
1326 3.5925264
1324 3.1307116
1322 2.7459888
1320 2.46948
1318 2.2989309
1316 2.2064102
1314 2.1351721
1312 2.0340457
1310 1.875635
1308 1.6581295
1306 1.4144285
1304 1.186413
1302 1.0173339
1300 0.94614232
1298 1.002092
1296 1.2049857
1294 1.5594547
1292 2.0527692
1290 2.6470244
1288 3.2942119
1286 3.9401965
1284 4.5373321
1282 5.0540791
1280 5.4723849
1278 5.7930331
1276 6.0286655
1274 6.2057543
1272 6.3538055
1270 6.5024519
1268 6.6800299
1266 6.9124389
1264 7.2223077
1262 7.6267042
1260 8.1327057
1258 8.732295
1256 9.4176283
1254 10.188842
1252 11.052792
1250 12.023522
1248 13.102892
1246 14.26325
1244 15.459302
1242 16.625092
1240 17.694361
1238 18.612078
1236 19.325714
1234 19.78277
1232 19.926559
1230 19.698648
1228 19.069643
1226 18.067707
1224 16.762133
1222 15.272675
1220 13.733015
1218 12.28477
1216 11.050314
1214 10.111202
1212 9.5078163
1210 9.2156277
1208 9.1806946
1206 9.315834
1204 9.5205746
1202 9.6845474
1200 9.7055397
1198 9.5079374
1196 9.0537853
1194 8.3732309
1192 7.5290637
1190 6.6177602
1188 5.7316747
1186 4.9352942
1184 4.2678304
1182 3.7269716
1180 3.2951007
1178 2.9433622
1176 2.64624
1174 2.3925583
1172 2.1794803
1170 2.0159817
1168 1.9111921
1166 1.8683765
1164 1.88201
1162 1.9295729
1160 1.9814589
1158 2.0018601
1156 1.9593956
1154 1.8378199
1152 1.6360383
1150 1.379146
1148 1.0985242
1146 0.82474893
1144 0.58094108
1142 0.37294552
1140 0.19790161
1138 0.043281168
1136 -0.097109005
1134 -0.2097325
1132 -0.28219724
1130 -0.31624636
1128 -0.31912896
1126 -0.30289292
1124 -0.27738276
1122 -0.24456792
1120 -0.20587319
1118 -0.16602029
1116 -0.130723
1114 -0.10534018
1112 -0.08741501
1110 -0.056320712
1108 0.003400296
1106 0.083216801
1104 0.16667372
1102 0.23375118
1100 0.2816464
1098 0.35222951
1096 0.48618284
1094 0.69236219
1092 0.95818019
1090 1.2375009
1088 1.4956955
1086 1.7483221
1084 2.0184801
1082 2.3148367
1080 2.6239245
1078 2.8838139
1076 3.0342615
1074 3.0513408
1072 2.9358823
1070 2.7309115
1068 2.4879897
1066 2.2532084
1064 2.061008
1062 1.9173619
1060 1.8149428
1058 1.7293584
1056 1.6362971
1054 1.5244577
1052 1.3909988
1050 1.248143
1048 1.1122577
1046 1.0024682
1044 0.93786997
1042 0.93652332
1040 1.0133963
1038 1.1751096
1036 1.41831
1034 1.7160668
1032 2.0290737
1030 2.29812
1028 2.4677536
1026 2.5079057
1024 2.4064257
1022 2.1854229
1020 1.8748198
1018 1.5021287
1016 1.0970057
1014 0.69714129
1012 0.33573028
1010 0.024731562
1008 -0.23768359
1006 -0.47912937
1004 -0.720716
1002 -0.94414943
1000 -1.1296144
998 -1.2830596
996 -1.4202143
994 -1.5677661
992 -1.7414618
990 -1.9150625
988 -2.0573831
986 -2.1559358
984 -2.2090595
982 -2.2348688
980 -2.2519259
978 -2.2635283
976 -2.2661028
974 -2.2449079
972 -2.1877174
970 -2.098702
968 -1.9917606
966 -1.89993
964 -1.8501917
962 -1.831839
960 -1.8179584
958 -1.7585981
956 -1.6133599
954 -1.3959882
952 -1.1288515
950 -0.81941891
948 -0.48180822
946 -0.16691527
944 0.081654549
942 0.27813059
940 0.43253088
938 0.48911631
936 0.41110599
934 0.28958812
932 0.22956739
930 0.2699886
928 0.40959993
926 0.55948889
924 0.62983561
922 0.60942423
920 0.52524173
918 0.47424895
916 0.544366
914 0.72241861
912 0.96047574
910 1.174197
908 1.3035797
906 1.4182814
904 1.6122177
902 1.9480176
900 2.4414697
898 2.9549115
896 3.3124001
