Image.
>Pix99999.
  .
5555
5555
2300
900
5555
2
1
0
701
5555
3.5270002e-002
3.6002953e-002
3.6736898e-002
3.7470847e-002
3.8204800e-002
3.8938750e-002
3.9671708e-002
4.0405650e-002
4.1139599e-002
4.1873548e-002
4.2607497e-002
4.3340467e-002
4.4074401e-002
4.4808351e-002
4.5542300e-002
4.6276249e-002
4.7009222e-002
4.7743149e-002
4.8477102e-002
4.9211051e-002
4.9944032e-002
5.0677951e-002
5.1411901e-002
5.2145850e-002
5.2879799e-002
5.3612784e-002
1.9923057e-003
7.9546675e-002
1.9162312e-001
2.6023093e-001
3.2218015e-001
2.4001992e-001
1.5057646e-001
1.3060540e-001
1.2778394e-001
2.3481150e-001
3.2541355e-001
3.1512144e-001
2.5790650e-001
7.4036643e-002
-8.2237743e-002
-1.6257109e-001
-1.8466380e-001
-1.1898249e-001
-9.4870962e-002
-1.2931281e-001
-2.3186004e-001
-3.9641294e-001
-5.6305641e-001
-7.2820038e-001
-8.1712002e-001
-8.6219543e-001
-7.5247175e-001
-5.7617974e-001
-3.2796356e-001
-5.7784870e-002
1.0984176e-001
2.5357586e-001
2.7063781e-001
2.6758617e-001
1.4813772e-001
9.5031923e-003
-2.2650731e-001
-4.5877942e-001
-6.1689425e-001
-7.2115213e-001
-6.5548027e-001
-5.5376989e-001
-4.0314680e-001
-2.8077605e-001
-2.2130501e-001
-2.0008631e-001
-2.2486337e-001
-2.3907956e-001
-2.3602484e-001
-2.0967071e-001
-1.6432521e-001
-1.4278620e-001
-1.3926721e-001
-1.9000201e-001
-2.6925912e-001
-3.6989942e-001
-4.7816852e-001
-5.4485816e-001
-5.9800202e-001
-6.0009557e-001
-5.9065211e-001
-5.4174489e-001
-4.8661453e-001
-4.3017772e-001
-3.7835285e-001
-3.6158231e-001
-3.5103554e-001
-3.4498742e-001
-3.4139583e-001
-3.4336135e-001
-3.4141028e-001
-3.2922980e-001
-3.0029160e-001
-2.4587820e-001
-2.1682000e-001
-2.2611725e-001
-2.7112952e-001
-3.4732530e-001
-3.7296909e-001
-3.5268348e-001
-2.7945355e-001
-1.7527819e-001
-1.4644714e-001
-1.5964353e-001
-2.6429871e-001
-4.0495899e-001
-4.6401840e-001
-4.9567980e-001
-4.1496933e-001
-3.0910242e-001
-2.6139224e-001
-2.3010613e-001
-2.4126780e-001
-2.5194699e-001
-2.1366371e-001
-1.6702574e-001
-1.2716046e-001
-1.0820760e-001
-1.4201966e-001
-1.8526356e-001
-2.2795761e-001
-2.4387483e-001
-2.1729612e-001
-1.8656646e-001
-1.5806457e-001
-1.7045088e-001
-2.2249788e-001
-2.9099801e-001
-3.6837566e-001
-4.1677234e-001
-4.4669989e-001
-4.4965148e-001
-4.4065002e-001
-4.3789077e-001
-4.3739998e-001
-4.5117521e-001
-4.6804607e-001
-5.1109248e-001
-5.6401843e-001
-6.7908907e-001
-8.1561959e-001
-9.9711543e-001
-1.1859515e+000
-1.3642372e+000
-1.5205785e+000
-1.6233504e+000
-1.6804336e+000
-1.6578455e+000
-1.5692741e+000
-1.3903294e+000
-1.1721864e+000
-9.2948759e-001
-7.4822152e-001
-6.4634132e-001
-6.0061288e-001
-5.9305799e-001
-4.9385825e-001
-3.2023579e-001
-1.2773600e-001
6.8383113e-002
7.2119072e-002
-2.3633707e-002
-1.8219024e-001
-3.6178073e-001
-4.2833701e-001
-4.5027575e-001
-4.0225527e-001
-3.3390582e-001
-3.1173730e-001
-3.2684249e-001
-4.5694247e-001
-6.2495738e-001
-7.7252489e-001
-8.8396639e-001
-9.1102487e-001
-9.0799427e-001
-9.0484160e-001
-9.0883994e-001
-9.3417698e-001
-9.4931501e-001
-9.4937766e-001
-8.9306003e-001
-7.7488708e-001
-6.4642900e-001
-5.1267529e-001
-4.2460275e-001
-3.7291446e-001
-3.5348302e-001
-3.5322049e-001
-4.3794671e-001
-5.6599516e-001
-6.9464821e-001
-8.1848210e-001
-7.7770644e-001
-6.6419858e-001
-4.6810174e-001
-2.5666311e-001
-1.4486189e-001
-1.0729960e-001
-2.0913036e-001
-3.7513351e-001
-5.7506531e-001
-7.6295370e-001
-9.0172887e-001
-9.8722404e-001
-1.0220318e+000
-1.0081593e+000
-9.5564741e-001
-8.9950007e-001
-8.3455676e-001
-8.2729948e-001
-8.6623043e-001
-9.4859165e-001
-1.0662705e+000
-1.1687800e+000
-1.2613754e+000
-1.2784402e+000
-1.2535518e+000
-1.1678281e+000
-1.0590929e+000
-1.0213820e+000
-1.0324358e+000
-1.1604109e+000
-1.3404815e+000
-1.5499343e+000
-1.7477510e+000
-1.8645251e+000
-1.8872966e+000
-1.6867169e+000
-1.3906379e+000
-1.0584184e+000
-8.1681859e-001
-8.0182797e-001
-8.9437336e-001
-1.0400383e+000
-1.1234696e+000
-1.0983971e+000
-1.0197783e+000
-9.1513693e-001
-8.2501650e-001
-7.5637358e-001
-6.5351075e-001
-5.2210051e-001
-3.3166352e-001
-1.0150892e-001
1.3321508e-001
3.7673000e-001
5.7618511e-001
7.5960743e-001
8.8035357e-001
9.6967530e-001
1.0110614e+000
1.0360634e+000
1.0912030e+000
1.1566286e+000
1.1935700e+000
1.1492780e+000
9.4254464e-001
6.5659773e-001
3.9490035e-001
2.2961980e-001
2.0687051e-001
8.4301315e-002
-1.4503765e-001
-3.2566959e-001
-4.3771359e-001
-3.1554559e-001
5.1960900e-002
5.3738934e-001
1.0766132e+000
1.3432177e+000
1.3572153e+000
1.2663640e+000
1.1243067e+000
1.2127000e+000
1.4705200e+000
1.6201748e+000
1.6718563e+000
1.3319767e+000
7.6262307e-001
2.7687189e-001
-6.0083255e-002
7.1468964e-002
6.7366087e-001
1.8622028e+000
3.2776139e+000
4.5164890e+000
5.5515780e+000
6.2940960e+000
7.0744138e+000
8.1632442e+000
9.8830547e+000
1.2410585e+001
1.5675683e+001
1.9578285e+001
2.3327780e+001
2.6597178e+001
2.9508942e+001
3.2146793e+001
3.5290993e+001
3.9011803e+001
4.3285782e+001
4.7993561e+001
5.2144958e+001
5.5790215e+001
5.9542835e+001
6.3442654e+001
6.7976891e+001
7.2949913e+001
7.7740799e+001
8.2322350e+001
8.6504158e+001
9.0294411e+001
9.3642326e+001
9.6530685e+001
9.8914337e+001
1.0074480e+002
1.0201780e+002
1.0235720e+002
1.0156893e+002
9.9914787e+001
9.7682037e+001
9.5013245e+001
9.2016632e+001
8.8343971e+001
8.3953560e+001
7.9370804e+001
7.4813454e+001
7.0542458e+001
6.6561874e+001
6.2414680e+001
5.8047729e+001
5.3704285e+001
4.9414551e+001
4.5379658e+001
4.1624172e+001
3.8246006e+001
3.5269981e+001
3.2690998e+001
3.0498363e+001
2.8598837e+001
2.7005058e+001
2.5694286e+001
2.4658142e+001
2.3834000e+001
2.3215767e+001
2.2770010e+001
2.2494345e+001
2.2368309e+001
2.2400635e+001
2.2571589e+001
2.2892269e+001
2.3345446e+001
2.4022686e+001
2.4954372e+001
2.6106615e+001
2.7478140e+001
2.8774826e+001
2.9938721e+001
3.0908672e+001
3.1671968e+001
3.2541103e+001
3.3611439e+001
3.5586411e+001
3.8474857e+001
4.1624630e+001
4.4852402e+001
4.7232128e+001
4.8817780e+001
5.0046394e+001
5.0921154e+001
5.1588406e+001
5.1911121e+001
5.1869694e+001
5.1469173e+001
5.0768494e+001
4.9939762e+001
4.9073616e+001
4.8159168e+001
4.7190449e+001
4.5980469e+001
4.4437954e+001
4.2491074e+001
4.0139717e+001
3.7841644e+001
3.5740929e+001
3.3691200e+001
3.1615826e+001
2.8998243e+001
2.5685764e+001
2.2537754e+001
1.9700970e+001
1.7456282e+001
1.5858000e+001
1.4218286e+001
1.2512033e+001
1.0749817e+001
8.9546843e+000
7.2549701e+000
5.6747584e+000
4.2116261e+000
2.9379058e+000
1.8652234e+000
1.0279619e+000
4.4080928e-001
1.8903197e-001
4.3064588e-001
9.5788062e-001
1.6179258e+000
2.2639158e+000
2.7474737e+000
3.1710589e+000
3.5509598e+000
3.9524655e+000
4.4190001e+000
4.8185525e+000
5.1359725e+000
5.3129454e+000
5.2949862e+000
5.1866074e+000
4.9494586e+000
4.6840439e+000
4.3842683e+000
4.1365156e+000
3.9285228e+000
3.7452078e+000
3.5546286e+000
3.3005114e+000
3.0247240e+000
2.7797358e+000
2.6100411e+000
2.5584786e+000
2.6107812e+000
2.7770422e+000
3.0296800e+000
3.3632619e+000
3.7401528e+000
4.0873690e+000
4.3940701e+000
4.6223173e+000
4.8032680e+000
4.9521060e+000
5.0635958e+000
5.1275530e+000
5.1527357e+000
5.1272593e+000
5.0928712e+000
5.0755548e+000
5.0364952e+000
4.9673848e+000
4.8537650e+000
4.6732912e+000
4.4508395e+000
4.1621914e+000
3.8288085e+000
3.4370940e+000
3.0582800e+000
2.7068021e+000
2.3992953e+000
2.1196899e+000
1.7899514e+000
1.4115927e+000
9.9987781e-001
6.1327398e-001
3.3379686e-001
1.4899248e-001
6.5720275e-002
1.8717285e-002
-1.2585940e-002
-3.6590606e-002
-2.6982559e-002
2.5033131e-002
1.5424289e-001
2.8326541e-001
4.1301599e-001
4.8381978e-001
4.9826312e-001
5.2158391e-001
5.7575953e-001
6.9297093e-001
8.8793647e-001
1.1527058e+000
1.4892372e+000
1.8668503e+000
2.2598100e+000
2.5920548e+000
2.8485806e+000
2.9807031e+000
3.0197551e+000
2.9813108e+000
2.8945589e+000
2.7805519e+000
2.6547916e+000
2.5414648e+000
2.4505000e+000
2.4230652e+000
2.4356883e+000
2.5231860e+000
2.6265922e+000
2.7472057e+000
2.8523784e+000
2.9217551e+000
2.9981635e+000
3.0963600e+000
3.2293172e+000
3.4197640e+000
3.6112378e+000
3.7977276e+000
3.9819229e+000
4.1764317e+000
4.4147434e+000
4.7145095e+000
5.0440540e+000
5.4026580e+000
5.7662058e+000
6.1426997e+000
6.5514922e+000
6.9958496e+000
7.4928699e+000
8.0188751e+000
8.5628891e+000
9.0885992e+000
9.5363674e+000
9.9099798e+000
1.0109043e+001
1.0224929e+001
1.0169720e+001
1.0068431e+001
9.8719683e+000
9.6496010e+000
9.3563938e+000
9.0317879e+000
8.6325359e+000
8.2045708e+000
7.7191429e+000
7.2091804e+000
6.6588445e+000
6.1047568e+000
5.5487742e+000
5.0059414e+000
4.4789581e+000
3.9540250e+000
3.4351554e+000
2.9365706e+000
2.4660785e+000
2.0574489e+000
1.6993868e+000
1.4070389e+000
1.1505767e+000
9.2415380e-001
7.1079522e-001
5.1137859e-001
3.3836421e-001
2.5712624e-001
2.2417800e-001
3.3448085e-001
4.6026623e-001
6.1521232e-001
7.4957025e-001
8.2429332e-001
8.9195073e-001
9.4222498e-001
9.8876810e-001
1.0226574e+000
1.0255104e+000
9.7295833e-001
8.8413793e-001
7.4734074e-001
6.0429102e-001
4.5693678e-001
3.2084394e-001
1.9847189e-001
9.6222803e-002
1.9445259e-002
6.6759288e-003
4.5681626e-002
2.3842719e-001
5.1472628e-001
9.1934693e-001
1.3723300e+000
1.8933005e+000
2.4073157e+000
2.8219600e+000
3.1838839e+000
3.3138084e+000
3.4197257e+000
3.4433606e+000
3.4878838e+000
3.6010551e+000
3.7488899e+000
3.9849017e+000
4.2528691e+000
4.5791025e+000
4.8841333e+000
5.1488857e+000
5.3526421e+000
5.4862022e+000
5.6440783e+000
5.8323212e+000
6.0690312e+000
6.3370705e+000
6.5684199e+000
6.7722378e+000
6.9386740e+000
7.0696683e+000
7.0686822e+000
6.9981394e+000
6.7326951e+000
6.4494824e+000
6.3444309e+000
6.3193760e+000
6.7137122e+000
7.1220374e+000
7.4855647e+000
7.7612629e+000
7.6525512e+000
7.5090413e+000
7.2609658e+000
7.0818820e+000
7.0727143e+000
7.1244216e+000
7.2849712e+000
7.4044461e+000
7.4553776e+000
7.3982801e+000
7.2144666e+000
6.9814234e+000
6.7068195e+000
6.4595709e+000
6.2336464e+000
6.0401630e+000
5.8600178e+000
5.6390438e+000
5.3900070e+000
5.0039001e+000
4.5712953e+000
4.0317159e+000
3.4707544e+000
2.8739359e+000
2.2769406e+000
1.7152631e+000
1.1754768e+000
7.8463691e-001
4.1599673e-001
1.4413789e-001
-1.3501909e-001
-4.3545696e-001
-7.3161441e-001
-1.0149729e+000
-1.2548971e+000
-1.4166280e+000
-1.5061560e+000
-1.4970061e+000
-1.4283389e+000
-1.2980971e+000
-1.1742588e+000
-1.0568137e+000
-9.6794403e-001
-8.9653140e-001
-8.1298351e-001
-7.1938121e-001
-5.3035462e-001
-3.0683565e-001
-1.7730594e-002
2.7955914e-001
4.3538478e-001
5.6457400e-001
4.5936483e-001
3.4011132e-001
1.5401572e-001
1.1322163e-003
3.6819875e-002
1.5980786e-001
5.1626158e-001
8.6259431e-001
1.1785414e+000
1.4887680e+000
1.7881861e+000
2.1561120e+000
2.6334128e+000
3.1379578e+000
3.6719084e+000
4.0352297e+000
4.2369366e+000
4.1922846e+000
3.9741435e+000
3.7288103e+000
3.4688261e+000
3.3320053e+000
3.2416563e+000
3.4596982e+000
3.7582998e+000
4.4807606e+000
5.2705150e+000
5.8401999e+000
