Image.
>Pix99999.
  .
5555
5555
2300
900
5555
2
1
0
701
5555
5.7094000e-002
5.8306266e-002
5.9519529e-002
6.0732793e-002
6.1946057e-002
6.3158326e-002
6.4371586e-002
6.5584846e-002
6.6798113e-002
6.8010390e-002
6.9223642e-002
7.0439860e-002
7.1650222e-002
7.2850674e-002
7.4075460e-002
7.5333975e-002
7.6503284e-002
7.7546701e-002
7.8923337e-002
8.0767542e-002
8.1372686e-002
8.0235675e-002
8.3704293e-002
9.3669318e-002
8.6513922e-002
4.4929322e-002
5.4618511e-003
1.0141544e-002
6.2266402e-002
1.4624399e-001
2.1489443e-001
2.2881028e-001
2.1583594e-001
2.2057365e-001
2.7700284e-001
4.0251499e-001
5.6098807e-001
7.0280552e-001
7.8716552e-001
7.8937984e-001
7.3878831e-001
6.8173909e-001
6.6845357e-001
7.3585707e-001
8.6304760e-001
1.0115622e+000
1.1426572e+000
1.2275077e+000
1.2745417e+000
1.3014081e+000
1.3143429e+000
1.3176106e+000
1.3215028e+000
1.3388069e+000
1.3845893e+000
1.4677271e+000
1.5694441e+000
1.6634946e+000
1.7300723e+000
1.7570108e+000
1.7554343e+000
1.7439631e+000
1.7423532e+000
1.7654140e+000
1.8088583e+000
1.8612599e+000
1.9092214e+000
1.9415519e+000
1.9567788e+000
1.9570183e+000
1.9445699e+000
1.9227126e+000
1.8985995e+000
1.8800668e+000
1.8702409e+000
1.8707286e+000
1.8821319e+000
1.9060169e+000
1.9493188e+000
2.0190725e+000
2.1140115e+000
2.2283077e+000
2.3480077e+000
2.4579995e+000
2.5495720e+000
2.6173193e+000
2.6605487e+000
2.6792488e+000
2.6702714e+000
2.6330001e+000
2.5833573e+000
2.5421739e+000
2.5274458e+000
2.5487192e+000
2.5857897e+000
2.6110516e+000
2.6121292e+000
2.5878525e+000
2.5575979e+000
2.5441132e+000
2.5535712e+000
2.5829539e+000
2.6216860e+000
2.6590557e+000
2.6964285e+000
2.7396550e+000
2.7939897e+000
2.8623929e+000
2.9393349e+000
3.0165789e+000
3.0886958e+000
3.1521528e+000
3.2059319e+000
3.2511132e+000
3.2931926e+000
3.3387771e+000
3.3915348e+000
3.4509711e+000
3.5041680e+000
3.5348952e+000
3.5332687e+000
3.4960194e+000
3.4340029e+000
3.3646350e+000
3.3073719e+000
3.2797928e+000
3.2896760e+000
3.3378851e+000
3.4154778e+000
3.5091534e+000
3.6046643e+000
3.6882412e+000
3.7494080e+000
3.7807550e+000
3.7826891e+000
3.7602878e+000
3.7248857e+000
3.6882434e+000
3.6525986e+000
3.6157870e+000
3.5751202e+000
3.5313435e+000
3.4977682e+000
3.4909430e+000
3.5160582e+000
3.5697749e+000
3.6370251e+000
3.6979520e+000
3.7341149e+000
3.7310543e+000
3.6883500e+000
3.6158338e+000
3.5399508e+000
3.4914050e+000
3.4887960e+000
3.5382485e+000
3.6209657e+000
3.7085974e+000
3.7801545e+000
3.8238184e+000
3.8477056e+000
3.8670070e+000
3.8870020e+000
3.9050484e+000
3.9086406e+000
3.8847306e+000
3.8374262e+000
3.7812178e+000
3.7368720e+000
3.7239380e+000
3.7459171e+000
3.7943354e+000
3.8440320e+000
3.8662894e+000
3.8498623e+000
3.7986000e+000
3.7400582e+000
3.7067215e+000
3.7042031e+000
3.7207580e+000
3.7347655e+000
3.7250473e+000
3.6901860e+000
3.6392479e+000
3.5804765e+000
3.5197213e+000
3.4587352e+000
3.3983819e+000
3.3458748e+000
3.3110380e+000
3.3010600e+000
3.3179696e+000
3.3473148e+000
3.3690820e+000
3.3765578e+000
3.3743258e+000
3.3804440e+000
3.4132645e+000
3.4617894e+000
3.4993460e+000
3.5070002e+000
3.4766738e+000
3.4222989e+000
3.3681800e+000
3.3302133e+000
3.3162742e+000
3.3251269e+000
3.3488271e+000
3.3706758e+000
3.3686440e+000
3.3177700e+000
3.1977139e+000
3.0143652e+000
2.7955425e+000
2.5955577e+000
2.4731872e+000
2.4428406e+000
2.4848111e+000
2.5519934e+000
2.5895042e+000
2.5692029e+000
2.4829707e+000
2.3327096e+000
2.1299441e+000
1.9088280e+000
1.7165107e+000
1.5975122e+000
1.5818170e+000
1.6471977e+000
1.7402616e+000
1.8130600e+000
1.8316250e+000
1.7942960e+000
1.7217611e+000
1.6445383e+000
1.5932937e+000
1.5809617e+000
1.6044838e+000
1.6428980e+000
1.6668078e+000
1.6552771e+000
1.5988951e+000
1.5090603e+000
1.4092531e+000
1.3198754e+000
1.2511799e+000
1.1830083e+000
1.0789075e+000
9.1847998e-001
7.0209026e-001
4.6504000e-001
2.6318717e-001
1.4556800e-001
1.4267181e-001
2.3404247e-001
3.6538208e-001
4.8311019e-001
5.4447073e-001
5.3459650e-001
4.5805252e-001
3.2238743e-001
1.4204909e-001
-3.5365172e-002
-1.4707018e-001
-1.6790229e-001
-1.0962853e-001
-1.7003438e-002
4.6795920e-002
2.4250172e-002
-1.1909762e-001
-3.4224072e-001
-5.6468642e-001
-7.7194476e-001
-9.9889833e-001
-1.2521024e+000
-1.5073786e+000
-1.7286543e+000
-1.8816603e+000
-1.9623748e+000
-1.9864861e+000
-1.9529200e+000
-1.8457795e+000
-1.6551039e+000
-1.3836794e+000
-1.0626026e+000
-7.4139529e-001
-4.5940661e-001
-2.3707180e-001
-5.6801170e-002
1.3628334e-001
4.4186246e-001
9.6059728e-001
1.6539617e+000
2.3867264e+000
3.1026640e+000
3.8431129e+000
4.7342358e+000
5.9837251e+000
7.9233980e+000
1.0869395e+001
1.4635285e+001
1.8631741e+001
2.2337980e+001
2.5452610e+001
2.8136240e+001
3.0898378e+001
3.4213802e+001
3.8340412e+001
4.2919960e+001
4.7200199e+001
5.0911758e+001
5.4297638e+001
5.7732727e+001
6.1544544e+001
6.5691818e+001
6.9840553e+001
7.3771446e+001
7.7421494e+001
8.0759010e+001
8.3755775e+001
8.6393570e+001
8.8672287e+001
9.0629501e+001
9.2315636e+001
9.3699539e+001
9.4683784e+001
9.5214905e+001
9.5281471e+001
9.4816216e+001
9.3701561e+001
9.1867661e+001
8.9326630e+001
8.6235146e+001
8.2835526e+001
7.9209236e+001
7.5278534e+001
7.1004684e+001
6.6440384e+001
6.1761253e+001
5.7224636e+001
5.3008259e+001
4.9187943e+001
4.5791519e+001
4.2813179e+001
4.0207561e+001
3.7903965e+001
3.5856476e+001
3.4051262e+001
3.2488377e+001
3.1171291e+001
3.0085501e+001
2.9199137e+001
2.8479343e+001
2.7897724e+001
2.7439274e+001
2.7099508e+001
2.6867069e+001
2.6727451e+001
2.6690725e+001
2.6796043e+001
2.7096056e+001
2.7636892e+001
2.8409914e+001
2.9347874e+001
3.0370560e+001
3.1402187e+001
3.2376743e+001
3.3276394e+001
3.4281696e+001
3.5736942e+001
3.7805302e+001
4.0367962e+001
4.3036415e+001
4.5259010e+001
4.6810966e+001
4.7857391e+001
4.8562645e+001
4.9001427e+001
4.9244061e+001
4.9362644e+001
4.9367085e+001
4.9200401e+001
4.8822674e+001
4.8230923e+001
4.7418205e+001
4.6371002e+001
4.5098934e+001
4.3645294e+001
4.2099686e+001
4.0580566e+001
3.9138458e+001
3.7719227e+001
3.6160961e+001
3.4225933e+001
3.1793032e+001
2.8930101e+001
2.5886286e+001
2.3040482e+001
2.0585443e+001
1.8450291e+001
1.6492571e+001
1.4561519e+001
1.2576632e+001
1.0548208e+001
8.5281572e+000
6.5991473e+000
4.8572221e+000
3.3918402e+000
2.2126470e+000
1.2514229e+000
5.3464890e-001
2.0977750e-001
3.4084430e-001
8.4450912e-001
1.5677371e+000
2.3223634e+000
2.9872010e+000
3.5414639e+000
4.0045905e+000
4.4221053e+000
4.8532000e+000
5.3531866e+000
5.9001274e+000
6.3788571e+000
6.6981506e+000
6.8297787e+000
6.7801161e+000
6.5801048e+000
6.2464995e+000
5.7717156e+000
5.1548228e+000
4.4187703e+000
3.6309285e+000
2.9040487e+000
2.3149960e+000
1.8756300e+000
1.5743692e+000
1.3902657e+000
1.3210166e+000
1.3901452e+000
1.6084371e+000
1.9583510e+000
2.4005771e+000
2.8777840e+000
3.3484383e+000
3.7987914e+000
4.2191820e+000
4.5969820e+000
4.9197879e+000
5.1793761e+000
5.3856139e+000
5.5706782e+000
5.7555075e+000
5.9348502e+000
6.0852141e+000
6.1669049e+000
6.1492515e+000
6.0204706e+000
5.7735825e+000
5.4058456e+000
4.9330287e+000
4.3987875e+000
3.8577700e+000
3.3641341e+000
2.9261794e+000
2.4857764e+000
1.9928889e+000
1.4409784e+000
8.7765229e-001
4.1149849e-001
1.1517030e-001
-1.8841868e-002
-3.0079210e-002
2.2915326e-002
9.6869022e-002
1.7918679e-001
2.6165679e-001
3.3370525e-001
3.9368987e-001
4.5437279e-001
5.2645916e-001
6.1025941e-001
6.9337165e-001
7.4919641e-001
7.6450360e-001
7.5342542e-001
7.3608172e-001
7.3133272e-001
7.5182307e-001
8.0031687e-001
8.7787497e-001
9.8510635e-001
1.1146817e+000
1.2462771e+000
1.3586857e+000
1.4357593e+000
1.4720846e+000
1.4787990e+000
1.4706968e+000
1.4621396e+000
1.4640714e+000
1.4819834e+000
1.5203552e+000
1.5844465e+000
1.6809881e+000
1.8180014e+000
1.9983952e+000
2.2142479e+000
2.4489200e+000
2.6755815e+000
2.8719716e+000
3.0308480e+000
3.1622262e+000
3.3009052e+000
3.4826424e+000
3.7321115e+000
4.0569777e+000
4.4385304e+000
4.8575459e+000
5.3065648e+000
5.7898431e+000
6.3269625e+000
6.9301605e+000
7.5904093e+000
8.2866068e+000
8.9851494e+000
9.6569061e+000
1.0286309e+001
1.0862720e+001
1.1376127e+001
1.1811399e+001
1.2145185e+001
1.2351040e+001
1.2408731e+001
1.2309962e+001
1.2069093e+001
1.1705040e+001
1.1235559e+001
1.0676440e+001
1.0049521e+001
9.3815966e+000
8.7162418e+000
8.0892124e+000
7.5141330e+000
6.9892159e+000
6.4917908e+000
5.9987202e+000
5.4970450e+000
4.9804354e+000
4.4521008e+000
3.9189000e+000
3.3902996e+000
2.8756704e+000
2.3822439e+000
1.9149938e+000
1.4755492e+000
1.0699717e+000
7.1600032e-001
4.3684107e-001
2.6019880e-001
2.0125800e-001
2.4418396e-001
3.5476750e-001
4.7612366e-001
5.5873311e-001
5.8325285e-001
5.5233711e-001
5.0085807e-001
4.6307638e-001
4.5360455e-001
4.7311643e-001
5.0147331e-001
5.1614809e-001
5.0094599e-001
4.4571260e-001
3.5175714e-001
2.3202053e-001
1.1888469e-001
3.9677102e-002
-1.0474818e-004
8.0752485e-003
9.0650916e-002
2.6541626e-001
5.1893282e-001
8.2600445e-001
1.1515293e+000
1.4620444e+000
1.7349255e+000
1.9579960e+000
2.1383517e+000
2.2910428e+000
2.4390297e+000
2.6025884e+000
2.7907279e+000
3.0073731e+000
3.2505751e+000
3.5139778e+000
3.7843668e+000
4.0536256e+000
4.3302646e+000
4.6321855e+000
4.9888678e+000
5.4198236e+000
5.9107733e+000
6.4306531e+000
6.9260764e+000
7.3476481e+000
7.6701984e+000
7.8848982e+000
8.0095720e+000
8.0677471e+000
8.0807114e+000
8.0658407e+000
8.0329800e+000
7.9899592e+000
7.9455791e+000
7.9068837e+000
7.8759003e+000
7.8497810e+000
7.8145199e+000
7.7543144e+000
7.6554747e+000
7.5081725e+000
7.3120627e+000
7.0723681e+000
6.8038392e+000
6.5229106e+000
6.2447143e+000
5.9782410e+000
5.7158055e+000
5.4449201e+000
5.1513319e+000
4.8260164e+000
4.4765182e+000
4.1164227e+000
3.7651200e+000
3.4370022e+000
3.1278629e+000
2.8290880e+000
2.5309741e+000
2.2302914e+000
1.9426520e+000
1.6861538e+000
1.4725572e+000
1.3053681e+000
1.1685058e+000
1.0405225e+000
8.9861482e-001
7.2499144e-001
5.1813579e-001
2.8267628e-001
2.9912531e-002
-2.2728468e-001
-4.7630256e-001
-7.0675510e-001
-9.1511619e-001
-1.0988560e+000
-1.2530302e+000
-1.3664520e+000
-1.4098418e+000
-1.3548313e+000
-1.1904429e+000
-9.2275608e-001
-5.9942776e-001
-2.7777785e-001
-1.1893898e-002
1.5788499e-001
2.3550366e-001
2.4115080e-001
2.1275501e-001
1.8419857e-001
1.5996353e-001
1.3614321e-001
1.0506793e-001
6.2850773e-002
2.2295192e-002
3.6473833e-003
3.8347945e-002
1.4264891e-001
2.6849839e-001
3.6464113e-001
4.2633647e-001
4.6880186e-001
5.3757739e-001
6.6816097e-001
8.3082998e-001
9.7707617e-001
1.0490941e+000
1.0041338e+000
8.6560607e-001
6.8430173e-001
5.5185413e-001
5.4649693e-001
6.5518880e-001
8.2429898e-001
9.3139130e-001
8.8077599e-001
7.4914956e-001
6.4918530e-001
6.6528976e-001
8.7480998e-001
