##TITLE=Methyl Ethyl Ketone
##JCAMP-DX=4.24
##DATA TYPE=INFRARED SPECTRUM
##XUNITS=cm-1
##YUNITS=Absorbance
##FIRSTX=900
##LASTX=2300
##XYDATA=(X++(Y..Y))
2296 0.22235
2294 0.22697338
2292 0.23159677
2290 0.23623011
2288 0.24085353
2286 0.24547693
2284 0.25010031
2282 0.25473359
2280 0.25935706
2278 0.26398048
2276 0.26860386
2274 0.27323708
2272 0.27786064
2270 0.28247419
2268 0.2871072
2266 0.29176992
2264 0.29636484
2262 0.3008607
2260 0.30560759
2258 0.31071103
2256 0.31488141
2254 0.31774509
2252 0.32405791
2250 0.3352274
2248 0.33359131
2246 0.29498714
2244 0.19020692
2242 0.0065846955
2240 -0.19659448
2238 -0.35402876
2236 -0.45807031
2234 -0.51995492
2232 -0.56020933
2230 -0.59778982
2228 -0.63542891
2226 -0.67145997
2224 -0.70582443
2222 -0.74136513
2220 -0.7906965
2218 -0.86561066
2216 -0.96310914
2214 -1.072543
2212 -1.169992
2210 -1.2343668
2208 -1.2697817
2206 -1.2878071
2204 -1.2963743
2202 -1.3015643
2200 -1.3044149
2198 -1.30646
2196 -1.3165357
2194 -1.3398296
2192 -1.3572446
2190 -1.3475934
2188 -1.311816
2186 -1.2630128
2184 -1.234444
2182 -1.2571933
2180 -1.3270851
2178 -1.4255956
2176 -1.5210485
2174 -1.5826021
2172 -1.5979991
2170 -1.566604
2168 -1.5082496
2166 -1.4484528
2164 -1.4078488
2162 -1.4021202
2160 -1.4352154
2158 -1.5046943
2156 -1.6006399
2154 -1.7076356
2152 -1.7979075
2150 -1.8455157
2148 -1.8472277
2146 -1.8140428
2144 -1.7814851
2142 -1.787256
2140 -1.8428694
2138 -1.9439145
2136 -2.0566943
2134 -2.1430957
2132 -2.1872199
2130 -2.1872165
2128 -2.1644242
2126 -2.1420715
2124 -2.1173837
2122 -2.0806727
2120 -2.0343714
2118 -1.9902561
2116 -1.9769443
2114 -2.0192132
2112 -2.0995286
2110 -2.1854477
2108 -2.2486696
2106 -2.2709608
2104 -2.2660382
2102 -2.2555966
2100 -2.24421
2098 -2.2285194
2096 -2.2014287
2094 -2.1593919
2092 -2.1194265
2090 -2.1033804
2088 -2.1204164
2086 -2.17045
2084 -2.2376757
2082 -2.3023324
2080 -2.3531172
2078 -2.3833957
2076 -2.391983
2074 -2.3795056
2072 -2.347012
2070 -2.2982812
2068 -2.2494824
2066 -2.2201221
2064 -2.2225742
2062 -2.2596295
2060 -2.3061266
2058 -2.32987
2056 -2.3163629
2054 -2.2650912
2052 -2.1989515
2050 -2.1467924
2048 -2.122401
2046 -2.1297607
2044 -2.1603899
2042 -2.200407
2040 -2.2344573
2038 -2.2487204
2036 -2.239363
2034 -2.2085938
2032 -2.1664784
2030 -2.124099
2028 -2.0810888
2026 -2.0314744
2024 -1.9666502
2022 -1.8810142
2020 -1.7850411
2018 -1.6969573
2016 -1.6374199
2014 -1.624005
2012 -1.6571785
2010 -1.7265925
2008 -1.8086022
2006 -1.8776528
2004 -1.9234903
2002 -1.94622
2000 -1.9584378
1998 -1.9758918
1996 -2.0042
1994 -2.0432694
1992 -2.0893075
1990 -2.1360145
1988 -2.1724858
1986 -2.1890094
1984 -2.1877921
1982 -2.1784
1980 -2.1749935
1978 -2.188225
1976 -2.2066257
1974 -2.2097449
1972 -2.1860354
1970 -2.1337385
1968 -2.0709178
1966 -2.0222714
1964 -2.0007622
1962 -2.0101681
1960 -2.042244
1958 -2.0830359
1956 -2.1186399
1954 -2.1364732
1952 -2.1300206
1950 -2.0991194
1948 -2.0594921
1946 -2.0318501
1944 -2.0246525
1942 -2.0361543
1940 -2.0505655
1938 -2.0489645
1936 -2.0282571
1934 -1.9956017
1932 -1.9643739
1930 -1.9476633
1928 -1.9456056
1926 -1.9466622
1924 -1.9199517
1922 -1.8339828
1920 -1.6964858
1918 -1.5412251
1916 -1.4200143
1914 -1.3803018
1912 -1.4167497
1910 -1.4947956
1908 -1.5823836
1906 -1.6555686
1904 -1.7092479
1902 -1.7470158
1900 -1.7659663
1898 -1.760682
1896 -1.7341714
1894 -1.6963432
1892 -1.6634572
1890 -1.652457
1888 -1.6689309
1886 -1.7095479
1884 -1.7610852
1882 -1.8067322
1880 -1.8363092
1878 -1.845955
1876 -1.84112
1874 -1.8303568
1872 -1.813136
1870 -1.7836154
1868 -1.7372667
1866 -1.674355
1864 -1.6100092
1862 -1.565484
1860 -1.5508949
1858 -1.5663724
1856 -1.6007057
1854 -1.6371237
1852 -1.6600451
1850 -1.6588219
1848 -1.637816
1846 -1.6099929
1844 -1.5860384
1842 -1.5720401
1840 -1.5629685
1838 -1.5494342
1836 -1.5309728
1834 -1.509827
1832 -1.4727817
1830 -1.3995582
1828 -1.2841901
1826 -1.1383343
1824 -1.0061684
1822 -0.94144565
1820 -0.9524554
1818 -1.0115606
1816 -1.0721428
1814 -1.0875903
1812 -1.0520388
1810 -0.98784059
1808 -0.92074293
1806 -0.87046999
1804 -0.83418822
1802 -0.79538357
1800 -0.74288905
1798 -0.67505187
1796 -0.60897928
1794 -0.56770241
1792 -0.54649359
1790 -0.5214631
1788 -0.47424728
1786 -0.39910555
1784 -0.31922954
1782 -0.26729128
1780 -0.23155206
1778 -0.1741786
1776 -0.090055831
1774 -0.0049876813
1772 0.037840012
1770 0.0016132016
1768 -0.08114104
1766 -0.13453943
1764 -0.1147268
1762 -0.027108476
1760 0.032073405
1758 -0.062533244
1756 -0.28739443
1754 -0.51340634
1752 -0.66031772
1750 -0.70996082
1748 -0.69352859
1746 -0.66891611
1744 -0.68246025
1742 -0.75556445
1740 -0.85232979
1738 -0.90221012
1736 -0.86375999
1734 -0.73468643
1732 -0.56641597
1730 -0.43643609
1728 -0.37301445
1726 -0.35519099
1724 -0.33168146
1722 -0.2370369
1720 -0.019117169
1718 0.35592452
1716 0.8960107
1714 1.5783265
1712 2.3212931
1710 3.0218873
1708 3.6798239
1706 4.3947554
1704 5.324801
1702 6.6663508
1700 8.6406822
1698 11.403503
1696 14.729
1694 18.113119
1692 21.197523
1690 23.860813
1688 26.320131
1686 29.018608
1684 32.283211
1682 36.205982
1680 40.421558
1678 44.304146
1676 47.674156
1674 50.797489
1672 54.024746
1670 57.647156
1668 61.680485
1666 65.912346
1664 70.148132
1662 74.25061
1660 78.080231
1658 81.51059
1656 84.526886
1654 87.219559
1652 89.718765
1650 92.119415
1648 94.262573
1646 95.799675
1644 96.55584
1642 96.556366
1640 95.852226
1638 94.473183
1636 92.406319
1634 89.633591
1632 86.298813
1630 82.674522
1628 78.914169
1626 75.028755
1624 70.992561
1622 66.787254
1620 62.474049
1618 58.18676
1616 54.054859
1614 50.186661
1612 46.680149
1610 43.613091
1608 40.985172
1606 38.72245
1604 36.743877
1602 34.981331
1600 33.394196
1598 31.967571
1596 30.695999
1594 29.57799
1592 28.610058
1590 27.78871
1588 27.122831
1586 26.63135
1584 26.321869
1582 26.191891
1580 26.251637
1578 26.525473
1576 27.034428
1574 27.780876
1572 28.698303
1570 29.657913
1568 30.55604
1566 31.337742
1564 32.005306
1562 32.643497
1560 33.509766
1558 34.971718
1556 37.113941
1554 39.66584
1552 42.207508
1550 44.304306
1548 45.853813
1546 47.108643
1544 48.273045
1542 49.396881
1540 50.426239
1538 51.224442
1536 51.639515
1534 51.552094
1532 51.004463
1530 50.199127
1528 49.275856
1526 48.255901
1524 47.096455
1522 45.721684
1520 44.111023
1518 42.325073
1516 40.484226
1514 38.722866
1512 36.999878
1510 35.07679
1508 32.75861
1506 29.994629
1504 26.979115
1502 24.120525
1500 21.638638
1498 19.464649
1496 17.439285
1494 15.385321
1492 13.228024
1490 11.021141
1488 8.8341246
1486 6.7275538
1484 4.7825041
1482 3.0981104
1480 1.7280926
1478 0.68884021
1476 0.11800386
1474 0.26205695
1472 1.1010778
1470 2.2689331
1468 3.457396
1466 4.5425348
1464 5.514039
1462 6.4371619
1460 7.2827911
1458 7.8886914
1456 8.1248398
1454 7.9660921
1452 7.5400529
1450 7.1160288
1448 6.8282123
1446 6.597857
1444 6.3457222
1442 6.054019
1440 5.7194757
1438 5.3373423
1436 4.8847899
1434 4.3238878
1432 3.6625447
1430 2.9756956
1428 2.3497641
1426 1.8598751
1424 1.5428079
1422 1.3848133
1420 1.3571457
1418 1.4278784
1416 1.57494
1414 1.7910709
1412 2.0708215
1410 2.4058578
1408 2.782001
1406 3.1772313
1404 3.5682044
1402 3.9323797
1400 4.2494001
1398 4.5043302
1396 4.6962285
1394 4.8425488
1392 4.9629965
1390 5.0715322
1388 5.1625156
1386 5.2048049
1384 5.1712379
1382 5.0505142
1380 4.8446355
1378 4.5704994
1376 4.2499514
1374 3.9080415
1372 3.5740039
1370 3.2773201
1368 3.0173309
1366 2.7481201
1364 2.4201326
1362 2.001698
1360 1.5119531
1358 1.038239
1356 0.65300828
1354 0.37716222
1352 0.19519106
1350 0.057300732
1348 -0.063355364
1346 -0.14572001
1344 -0.16333281
1342 -0.10274027
1340 0.020306446
1338 0.15047452
1336 0.24093057
1334 0.27601656
1332 0.26432982
1330 0.24148031
1328 0.24181275
1326 0.28632301
1324 0.38580495
1322 0.537772
1320 0.72875583
1318 0.93294781
1316 1.12795
1314 1.3023667
1312 1.45048
1310 1.571929
1308 1.6659123
1306 1.7296828
1304 1.7644331
1302 1.77943
1300 1.7882957
1298 1.808754
1296 1.8563
1294 1.9390714
1292 2.0550807
1290 2.1872551
1288 2.316664
1286 2.4281628
1284 2.5169895
1282 2.5945852
1280 2.6747744
1278 2.7682502
1276 2.87888
1274 3.001025
1272 3.1318612
1270 3.278832
1268 3.4564705
1266 3.686985
1264 3.9846063
1262 4.3450112
1260 4.753746
1258 5.1877885
1256 5.632937
1254 6.096375
1252 6.5947075
1250 7.1505442
1248 7.775208
1246 8.453825
1244 9.157402
1242 9.8425245
1240 10.470057
1238 11.016524
1236 11.470015
1234 11.830739
1232 12.1034
1230 12.293537
1228 12.402145
1226 12.429749
1224 12.373245
1222 12.223142
1220 11.974711
1218 11.63577
1216 11.221857
1214 10.754337
1212 10.251845
1210 9.7182169
1208 9.1557722
1206 8.5650415
1204 7.9503498
1202 7.3233747
1200 6.6975708
1198 6.0855856
1196 5.4960642
1194 4.9288816
1192 4.3804245
1190 3.844358
1188 3.3178563
1186 2.807755
1184 2.3277538
1182 1.9013412
1180 1.5525968
1178 1.300542
1176 1.15326
1174 1.096578
1172 1.1045212
1170 1.1378778
1168 1.1607223
1166 1.1522229
1164 1.1036046
1162 1.0249475
1160 0.9295001
1158 0.8268714
1156 0.72306627
1154 0.61753839
1152 0.50789487
1150 0.39147514
1148 0.2688944
1146 0.14901716
1144 0.046464454
1142 -0.015948698
1140 -0.019312885
1138 0.042029381
1136 0.17446914
1134 0.3925541
1132 0.70385021
1130 1.0933746
1128 1.5287542
1126 1.950835
1124 2.3067632
1122 2.57816
1120 2.775924
1118 2.9614503
1116 3.1947157
1114 3.5004635
1112 3.8764389
1110 4.2766333
1108 4.6581626
1106 5.0130501
1104 5.3468881
1102 5.6789498
1100 6.0260091
1098 6.3915482
1096 6.7793427
1094 7.2013884
1092 7.6618719
1090 8.139698
1088 8.6014071
1086 8.9983168
1084 9.2946634
1082 9.4987526
1080 9.6340504
1078 9.7366133
1076 9.8377142
1074 9.9486313
1072 10.077234
1070 10.234614
1068 10.427169
1066 10.640229
1064 10.85076
1062 11.013672
1060 11.09136
1058 11.064999
1056 10.934457
1054 10.722205
1052 10.455574
1050 10.164319
1048 9.8662434
1046 9.5541353
1044 9.2181168
1042 8.857338
1040 8.4806108
1038 8.1174984
1036 7.79001
1034 7.4834991
1032 7.1739058
1030 6.835701
1028 6.4562497
1026 6.060564
1024 5.6755252
1022 5.3055091
1020 4.9459195
1018 4.5832171
1016 4.2106743
1014 3.8498616
1012 3.525383
1010 3.2515125
1008 3.0350881
1006 2.8692501
1004 2.7361083
1002 2.5953777
1000 2.4044402
998 2.1319423
996 1.7691714
994 1.3706449
992 0.99917972
990 0.69452727
988 0.47404575
986 0.30246526
984 0.14345752
982 -0.00018118322
980 -0.110507
978 -0.1522031
976 -0.097785302
974 0.039990753
972 0.23499246
970 0.44993207
968 0.65119064
966 0.82694399
964 0.97209096
962 1.0858657
960 1.1656504
958 1.199108
956 1.1741
954 1.0876602
952 0.93970883
950 0.73325527
948 0.48471799
946 0.2552532
944 0.097962052
942 -0.0021548346
940 -0.065929785
938 -0.075042762
936 -0.021629971
934 0.029341452
932 0.014221139
930 -0.059402518
928 -0.16595474
926 -0.27901322
924 -0.3782016
922 -0.46652523
920 -0.54760921
918 -0.60579008
916 -0.62563771
914 -0.6113565
912 -0.58704495
910 -0.634417
908 -0.83222675
906 -1.1915665
904 -1.6760023
902 -2.1299527
900 -2.3979323
898 -2.4438388
896 -2.2613001
