Image.
>Pix99999.
  .
5555
5555
2300
900
5555
2
1
0
701
5555
-2.1692000e-002
-2.2143353e-002
-2.2594709e-002
-2.3046063e-002
-2.3497416e-002
-2.3948772e-002
-2.4400126e-002
-2.4851479e-002
-2.5302835e-002
-2.5754189e-002
-2.6204556e-002
-2.6655897e-002
-2.7107252e-002
-2.7558604e-002
-2.8009960e-002
-2.8461315e-002
-2.8912667e-002
-2.9364023e-002
-2.9815378e-002
-3.0266730e-002
-3.0718086e-002
-3.1169441e-002
-3.1620797e-002
-3.2071181e-002
-3.2522503e-002
-3.2973859e-002
-1.2253429e-003
5.5866688e-002
1.1724592e-001
1.3341758e-001
1.4293057e-001
9.8860614e-002
5.0848283e-002
6.2404829e-004
-4.5204692e-002
-5.4973602e-002
-5.4036360e-002
-1.2405265e-002
3.4398507e-002
9.0395734e-002
1.4298394e-001
1.8697922e-001
2.2049360e-001
2.3770301e-001
2.2991897e-001
1.9220085e-001
1.4790611e-001
9.9080898e-002
8.2941979e-002
9.1446728e-002
1.1685057e-001
1.5106094e-001
1.6530104e-001
1.7052869e-001
1.7347324e-001
1.7586458e-001
1.9911440e-001
2.2715232e-001
2.6327506e-001
3.0055940e-001
3.3834314e-001
3.7460804e-001
3.9316314e-001
4.0339601e-001
3.7562183e-001
3.4336671e-001
3.0830675e-001
2.8939819e-001
3.1253344e-001
3.5044584e-001
4.0825498e-001
4.5569211e-001
4.8514012e-001
5.0680792e-001
5.2184194e-001
5.4701179e-001
5.8178097e-001
6.1309981e-001
6.4137000e-001
6.4615780e-001
6.3830113e-001
6.2848788e-001
6.1828184e-001
6.4042902e-001
6.7288280e-001
7.2579008e-001
7.8330147e-001
8.2067472e-001
8.5281599e-001
8.4725350e-001
8.3348566e-001
7.9834771e-001
7.6082468e-001
7.2620904e-001
6.9823378e-001
6.8900812e-001
6.9269449e-001
7.1884942e-001
7.5353879e-001
7.9701835e-001
8.3432859e-001
8.6199528e-001
8.7874097e-001
8.8564068e-001
8.9305705e-001
9.0185148e-001
9.0280968e-001
8.9839417e-001
8.7555379e-001
8.4350812e-001
8.1897116e-001
7.9805183e-001
7.9127884e-001
7.8901672e-001
7.8978992e-001
7.9166305e-001
8.0245197e-001
8.1473249e-001
8.2113665e-001
8.2280850e-001
8.0474144e-001
7.8230965e-001
7.5912130e-001
7.4330395e-001
7.4788481e-001
7.6327574e-001
7.9242343e-001
8.2102269e-001
8.4385467e-001
8.5370314e-001
8.4814930e-001
8.3720773e-001
8.2397401e-001
8.2414591e-001
8.3581078e-001
8.5652417e-001
8.8226587e-001
9.0181869e-001
9.1803724e-001
9.2182517e-001
9.2011803e-001
9.0414172e-001
8.8282841e-001
8.6151493e-001
8.4173113e-001
8.5134333e-001
8.7053865e-001
9.0670240e-001
9.4195259e-001
9.5772344e-001
9.6079648e-001
9.4231832e-001
9.1408569e-001
8.7296891e-001
8.3386958e-001
7.9982489e-001
7.7958387e-001
7.7699703e-001
7.7732772e-001
7.7803332e-001
7.7774626e-001
7.7741522e-001
8.0147010e-001
8.4490842e-001
8.9867043e-001
9.5660067e-001
9.7245920e-001
9.6474475e-001
9.3560600e-001
8.9804018e-001
8.7712032e-001
8.6184269e-001
8.4043711e-001
8.1521112e-001
7.8640485e-001
7.5970745e-001
7.4791276e-001
7.4540770e-001
7.4742949e-001
7.4726963e-001
7.3499739e-001
7.1352541e-001
6.8503582e-001
6.5582007e-001
6.3300377e-001
6.2330759e-001
6.3103932e-001
6.5732843e-001
6.9643927e-001
7.2196501e-001
7.2822088e-001
7.0389622e-001
6.5984654e-001
6.1458516e-001
5.7223129e-001
5.3280401e-001
4.9401760e-001
4.6486109e-001
4.3894953e-001
4.5577693e-001
4.9040002e-001
5.4795468e-001
6.1027944e-001
6.3856781e-001
6.4501780e-001
6.0700250e-001
5.5215216e-001
4.9497241e-001
4.4373170e-001
4.1151968e-001
3.8924402e-001
3.8019064e-001
3.8132149e-001
3.9533290e-001
4.1401702e-001
4.2509580e-001
4.1465783e-001
3.7624779e-001
3.2735866e-001
2.7862543e-001
2.4292915e-001
2.2077544e-001
2.0977856e-001
2.0780885e-001
2.1133880e-001
2.2120215e-001
2.1591409e-001
2.0533721e-001
1.8197960e-001
1.5322945e-001
1.5210386e-001
1.6522230e-001
2.0821629e-001
2.6613772e-001
3.2292649e-001
3.7147000e-001
3.8245994e-001
3.6091432e-001
3.0428460e-001
2.3474272e-001
1.7525685e-001
1.3154729e-001
1.0930926e-001
1.0210707e-001
1.0227314e-001
1.1496100e-001
1.3757482e-001
1.3312240e-001
1.0498886e-001
3.8610544e-002
-5.3120427e-002
-8.0855653e-002
-6.4601481e-002
1.9249693e-002
1.3665539e-001
2.2200586e-001
2.8199822e-001
3.0696782e-001
3.0872917e-001
3.0085310e-001
2.9528657e-001
3.2308754e-001
3.7331045e-001
4.2002556e-001
4.3805104e-001
3.7911031e-001
2.7672181e-001
1.6966233e-001
4.9200971e-002
-8.3774090e-002
-1.8970557e-001
-2.4964479e-001
-2.5906405e-001
-2.2129549e-001
-1.8166897e-001
-1.5917251e-001
-2.0230201e-001
-3.1248447e-001
-4.2700788e-001
-5.3050214e-001
-5.1388997e-001
-4.0027583e-001
-2.3918498e-001
-5.9541017e-002
-1.2887623e-002
-6.1621755e-002
-1.0595901e-001
-1.2225240e-001
1.4533140e-002
2.9190254e-001
7.5508529e-001
1.3212776e+000
1.8361371e+000
2.3114018e+000
2.7779779e+000
3.3832228e+000
4.2768459e+000
5.7154942e+000
7.8240418e+000
1.0825181e+001
1.4679713e+001
1.8638538e+001
2.2352169e+001
2.5664129e+001
2.8625086e+001
3.2083794e+001
3.6133553e+001
4.1000065e+001
4.6508961e+001
5.1397671e+001
5.5690987e+001
5.9838089e+001
6.3959145e+001
6.8778336e+001
7.4114525e+001
7.9368454e+001
8.4432755e+001
8.8950569e+001
9.2945374e+001
9.6441452e+001
9.9364342e+001
1.0160164e+002
1.0287120e+002
1.0287454e+002
1.0166760e+002
9.9407677e+001
9.6707146e+001
9.4102493e+001
9.1361984e+001
8.8382668e+001
8.4747787e+001
8.0359398e+001
7.5789055e+001
7.1252792e+001
6.6923096e+001
6.2818745e+001
5.8595520e+001
5.4219471e+001
4.9970200e+001
4.5867760e+001
4.2053028e+001
3.8545002e+001
3.5472519e+001
3.2844948e+001
3.0645531e+001
2.8852642e+001
2.7323860e+001
2.6069960e+001
2.5062588e+001
2.4301527e+001
2.3749001e+001
2.3386429e+001
2.3159441e+001
2.3049284e+001
2.3019461e+001
2.3066372e+001
2.3181765e+001
2.3366230e+001
2.3618799e+001
2.4001186e+001
2.4532772e+001
2.5275511e+001
2.6230476e+001
2.7310160e+001
2.8489759e+001
2.9650658e+001
3.0782648e+001
3.2064262e+001
3.3593342e+001
3.6040894e+001
3.9482727e+001
4.3309719e+001
4.7276394e+001
5.0316536e+001
5.2463726e+001
5.4291534e+001
5.5837509e+001
5.7276772e+001
5.8393520e+001
5.8843464e+001
5.8545227e+001
5.7523327e+001
5.6071747e+001
5.4586884e+001
5.3083378e+001
5.1572201e+001
4.9907516e+001
4.7986397e+001
4.5789772e+001
4.3268528e+001
4.0826775e+001
3.8608974e+001
3.6539040e+001
3.4646801e+001
3.2292500e+001
2.9318264e+001
2.6234428e+001
2.3069441e+001
2.0359543e+001
1.8156570e+001
1.5995571e+001
1.3879748e+001
1.1754951e+001
9.6390848e+000
7.5619473e+000
5.5815802e+000
3.7877119e+000
2.2649486e+000
1.1146268e+000
3.6850548e-001
6.6065468e-002
3.1961271e-001
1.0757177e+000
2.0357270e+000
3.0144444e+000
3.8469033e+000
4.4309006e+000
4.9277229e+000
5.3974571e+000
5.8930945e+000
6.4313202e+000
6.8777342e+000
7.1538429e+000
7.2642150e+000
7.1305637e+000
6.9271717e+000
6.6317143e+000
6.3224702e+000
5.9953923e+000
5.6373439e+000
5.2348504e+000
4.7511306e+000
4.1976600e+000
3.6496174e+000
3.1352360e+000
2.7294579e+000
2.4436800e+000
2.2781255e+000
2.2344799e+000
2.2924178e+000
2.4281857e+000
2.6163821e+000
2.8226225e+000
3.0445008e+000
3.2766345e+000
3.5266972e+000
3.7996075e+000
4.0978670e+000
4.4281278e+000
4.8050952e+000
5.2006998e+000
5.6148171e+000
5.9802594e+000
6.2386217e+000
6.3846555e+000
6.3430500e+000
6.1665916e+000
5.8042679e+000
5.3647361e+000
4.8427038e+000
4.3160429e+000
3.8075070e+000
3.3456879e+000
2.9420805e+000
2.6017458e+000
2.2852464e+000
1.9320792e+000
1.5367447e+000
1.0789258e+000
6.3473576e-001
2.9340839e-001
5.9725657e-002
4.2413245e-003
3.6589153e-002
1.4958727e-001
2.8088892e-001
4.5105159e-001
6.3953292e-001
8.6194426e-001
1.0927980e+000
1.3311657e+000
1.5483074e+000
1.7065731e+000
1.8484390e+000
1.9674555e+000
2.1094229e+000
2.3002446e+000
2.5362425e+000
2.8373268e+000
3.1666319e+000
3.5185502e+000
3.8455791e+000
4.1265235e+000
4.3372231e+000
4.4726019e+000
4.5385704e+000
4.5525589e+000
4.5269709e+000
4.4821382e+000
4.4247727e+000
4.3673286e+000
4.3152428e+000
4.2744241e+000
4.2578101e+000
4.2557597e+000
4.2813392e+000
4.3079696e+000
4.3289833e+000
4.3360720e+000
4.3110509e+000
4.2790813e+000
4.2403302e+000
4.2219973e+000
4.2455611e+000
4.3076210e+000
4.4230552e+000
4.5576749e+000
4.7080488e+000
4.8457079e+000
4.9678631e+000
5.0764513e+000
5.1753807e+000
5.2774458e+000
5.3791227e+000
5.4735818e+000
5.5556250e+000
5.6036487e+000
5.6306014e+000
5.6274009e+000
5.6076050e+000
5.5613928e+000
5.4878998e+000
5.3428760e+000
5.1574521e+000
4.8646336e+000
4.5385857e+000
4.1251593e+000
3.6891165e+000
3.2001305e+000
2.7095189e+000
2.2209656e+000
1.7669110e+000
1.3768106e+000
1.0363680e+000
7.6615930e-001
5.2348751e-001
3.1280082e-001
1.1560227e-001
-6.2481068e-002
-2.0877208e-001
-3.2328928e-001
-3.9989120e-001
-4.4833988e-001
-4.6880311e-001
-4.7277597e-001
-4.5965815e-001
-4.3505737e-001
-3.8645145e-001
-3.0789036e-001
-1.2841956e-001
9.6696794e-002
4.5152372e-001
8.0993170e-001
1.1495355e+000
1.4428840e+000
1.5913943e+000
1.6957703e+000
1.6914370e+000
1.6630702e+000
1.5848466e+000
1.4802229e+000
1.3309085e+000
1.1587183e+000
9.5752907e-001
7.5442624e-001
5.5247748e-001
3.6814547e-001
2.0676425e-001
9.2770100e-002
2.3696737e-002
2.8484173e-002
8.3629593e-002
2.0630972e-001
3.6141157e-001
5.5178946e-001
7.4882221e-001
9.3123055e-001
1.0937843e+000
1.1650959e+000
1.2112021e+000
1.1679842e+000
1.1344776e+000
1.1495045e+000
1.1940261e+000
1.3308668e+000
1.4688901e+000
1.6057978e+000
1.7128425e+000
1.7587659e+000
1.7739983e+000
1.7421000e+000
1.7046347e+000
1.6658580e+000
1.6666765e+000
1.7095628e+000
1.7820064e+000
1.8679332e+000
1.8899806e+000
1.8629999e+000
1.7525990e+000
1.6064215e+000
1.4694993e+000
1.3428978e+000
1.2714926e+000
1.2163268e+000
1.1927199e+000
1.1737120e+000
1.1587976e+000
1.1409487e+000
1.1029912e+000
1.0648886e+000
1.0270784e+000
9.9885404e-001
1.0009871e+000
1.0024567e+000
1.0001875e+000
9.7800440e-001
9.1724432e-001
8.3833301e-001
7.3144281e-001
6.0758901e-001
4.6275991e-001
2.9656118e-001
1.1345811e-001
-5.4361552e-002
-2.0393494e-001
-2.7505857e-001
-3.0006370e-001
-2.6792246e-001
-2.1783890e-001
-2.0830399e-001
-2.1518652e-001
-2.8324932e-001
-3.6182970e-001
-4.4326839e-001
-5.2447385e-001
-6.0096318e-001
-6.7915362e-001
-7.6921082e-001
-8.5294896e-001
-9.0794498e-001
-9.4297093e-001
-9.1561306e-001
-8.6774635e-001
-7.7315354e-001
-6.7452967e-001
-5.7032657e-001
-4.9700066e-001
-4.6744061e-001
-4.8976260e-001
-5.6644142e-001
-6.5638936e-001
-7.5482792e-001
-8.1548107e-001
-8.5025173e-001
-8.3491600e-001
-7.9352152e-001
-6.8518084e-001
-5.5322617e-001
-3.7201691e-001
-1.8336818e-001
-5.8774892e-002
5.2709758e-002
3.6431443e-002
1.5679900e-002
5.1684752e-003
1.6201362e-003
5.1316321e-002
1.7868084e-001
4.2646989e-001
6.8321395e-001
9.6522492e-001
1.2008228e+000
1.3352787e+000
1.3718686e+000
1.2524321e+000
1.1279919e+000
9.9947518e-001
9.6197110e-001
1.0086417e+000
1.0557771e+000
1.1019690e+000
1.0601983e+000
9.7195864e-001
8.1282175e-001
6.2777901e-001
4.4030896e-001
2.5371030e-001
1.9792148e-001
1.6372274e-001
2.9144999e-001
