Image.
>Pix99999.
  .
5555
5555
2300
900
5555
2
1
0
701
5555
-2.9848000e-002
-3.0469112e-002
-3.1090222e-002
-3.1711332e-002
-3.2332446e-002
-3.2953557e-002
-3.3573676e-002
-3.4194779e-002
-3.4815893e-002
-3.5437003e-002
-3.6058117e-002
-3.6679223e-002
-3.7299354e-002
-3.7920449e-002
-3.8541563e-002
-3.9162669e-002
-3.9783783e-002
-4.0404893e-002
-4.1026007e-002
-4.1646142e-002
-4.2267229e-002
-4.2888340e-002
-4.3509450e-002
-4.4130564e-002
-4.4751674e-002
-4.5371823e-002
-1.6860629e-003
5.0183684e-002
9.0365633e-002
1.3229652e-001
1.7460372e-001
2.2527611e-001
2.7657118e-001
3.2828751e-001
3.7715971e-001
4.0346050e-001
4.2093110e-001
4.0340701e-001
3.8071367e-001
3.4808195e-001
3.2313943e-001
3.1619498e-001
3.1827521e-001
3.3329698e-001
3.3925560e-001
3.3289963e-001
3.2241511e-001
3.0868730e-001
3.2740313e-001
3.7052330e-001
4.3134284e-001
5.0146806e-001
5.3911328e-001
5.6226689e-001
5.5843133e-001
5.4612041e-001
5.4221201e-001
5.4035252e-001
5.4328245e-001
5.4676503e-001
5.3898686e-001
5.3070807e-001
5.2869576e-001
5.3029901e-001
5.4929560e-001
5.7370526e-001
6.1178571e-001
6.5329105e-001
7.0004928e-001
7.4193311e-001
7.7349597e-001
7.9161006e-001
7.9179382e-001
7.8481257e-001
7.7188456e-001
7.7172679e-001
7.8341508e-001
8.0476493e-001
8.3201230e-001
8.4889734e-001
8.5979939e-001
8.7144113e-001
8.8355440e-001
9.1110551e-001
9.4354558e-001
9.7791493e-001
1.0127147e+000
1.0334634e+000
1.0506629e+000
1.0428494e+000
1.0276314e+000
9.8341370e-001
9.3412441e-001
8.8066423e-001
8.3675504e-001
8.2357526e-001
8.3045912e-001
8.7171888e-001
9.2078018e-001
9.7446918e-001
1.0109957e+000
1.0241860e+000
1.0148360e+000
9.8568302e-001
9.5603168e-001
9.2809248e-001
9.1382354e-001
9.0835184e-001
9.0122026e-001
8.9273697e-001
8.6864132e-001
8.3818948e-001
8.1418198e-001
7.9254591e-001
8.0352908e-001
8.2299578e-001
8.5641271e-001
8.9181650e-001
9.1659343e-001
9.3551773e-001
9.3365514e-001
9.2005742e-001
8.8000035e-001
8.3546877e-001
7.9393929e-001
7.6657963e-001
7.6619518e-001
7.7808797e-001
7.9969198e-001
8.2392418e-001
8.4794843e-001
8.7842768e-001
9.1539222e-001
9.4906890e-001
9.7993332e-001
9.9393022e-001
9.9791038e-001
1.0008129e+000
1.0042100e+000
1.0061021e+000
1.0068799e+000
9.9956530e-001
9.8876202e-001
9.9962723e-001
1.0162646e+000
1.0380150e+000
1.0572040e+000
1.0510460e+000
1.0382274e+000
1.0275499e+000
1.0226500e+000
1.0357034e+000
1.0525737e+000
1.0647177e+000
1.0698301e+000
1.0604786e+000
1.0472640e+000
1.0335176e+000
1.0218054e+000
1.0143538e+000
1.0090429e+000
1.0058210e+000
1.0234921e+000
1.0575378e+000
1.1099988e+000
1.1721613e+000
1.2039828e+000
1.2180326e+000
1.2185960e+000
1.2139554e+000
1.2289028e+000
1.2499700e+000
1.2524600e+000
1.2459536e+000
1.2262160e+000
1.2056749e+000
1.2006503e+000
1.2046345e+000
1.2107725e+000
1.2155260e+000
1.2116971e+000
1.2002873e+000
1.1833580e+000
1.1621298e+000
1.1409674e+000
1.1355000e+000
1.1534165e+000
1.1940511e+000
1.2501663e+000
1.2882459e+000
1.3023014e+000
1.2972286e+000
1.2819451e+000
1.2649596e+000
1.2494572e+000
1.2104551e+000
1.1576880e+000
1.1172500e+000
1.0820131e+000
1.1054239e+000
1.1519142e+000
1.2077576e+000
1.2596889e+000
1.2545590e+000
1.2185698e+000
1.1368514e+000
1.0464734e+000
9.8010778e-001
9.3765604e-001
9.3405551e-001
9.5007896e-001
9.8490614e-001
1.0320177e+000
1.0924997e+000
1.1323260e+000
1.1320930e+000
1.0783172e+000
9.7230643e-001
8.7262660e-001
7.9403061e-001
7.4405086e-001
7.1619093e-001
6.7829090e-001
6.3432014e-001
5.9256679e-001
5.5671108e-001
5.3197050e-001
5.1566756e-001
4.9139804e-001
4.6478578e-001
4.7585759e-001
5.1083010e-001
6.0308707e-001
7.1567881e-001
8.0214179e-001
8.4735793e-001
7.9419726e-001
6.8474841e-001
5.4302883e-001
4.0636286e-001
3.0940714e-001
2.5088879e-001
2.3114564e-001
2.3841223e-001
2.6047817e-001
2.9591051e-001
3.3974457e-001
3.6572835e-001
3.7703472e-001
3.6396024e-001
3.3511785e-001
3.2748675e-001
3.3202961e-001
3.3358386e-001
3.2626736e-001
2.9625094e-001
2.5144830e-001
2.2273326e-001
2.0376557e-001
2.0689830e-001
2.2656600e-001
2.6820859e-001
3.1703544e-001
3.3171794e-001
3.1256184e-001
2.3961422e-001
1.4542980e-001
7.0269749e-002
1.7297102e-002
-6.5598205e-002
-1.4622286e-001
-1.8654723e-001
-1.5889114e-001
-5.9978001e-002
3.9852127e-002
1.1341885e-001
9.5166236e-002
-1.3289455e-002
-1.1944441e-001
-2.0466590e-001
-1.8691400e-001
-8.6150706e-002
-8.8003073e-003
3.9551288e-002
-1.9802481e-002
-1.4949623e-001
-2.0687583e-001
-1.8654799e-001
-1.9017763e-002
2.3773003e-001
6.4266014e-001
1.1313981e+000
1.5260389e+000
1.8595947e+000
2.1885140e+000
2.6725013e+000
3.4730010e+000
4.8356671e+000
6.8752813e+000
9.7645864e+000
1.3441856e+001
1.7173750e+001
2.0628223e+001
2.3720341e+001
2.6517229e+001
2.9867907e+001
3.3851906e+001
3.8592567e+001
4.3913200e+001
4.8539719e+001
5.2514027e+001
5.6398056e+001
6.0301201e+001
6.4874176e+001
6.9932816e+001
7.4843948e+001
7.9528687e+001
8.3714424e+001
8.7408020e+001
9.0598808e+001
9.3296112e+001
9.5530945e+001
9.7337097e+001
9.8780525e+001
9.9519455e+001
9.9260109e+001
9.8147629e+001
9.6416611e+001
9.4163216e+001
9.1536377e+001
8.8302139e+001
8.4437073e+001
8.0408104e+001
7.6392845e+001
7.2418900e+001
6.8496086e+001
6.4222198e+001
5.9585274e+001
5.4991756e+001
5.0487988e+001
4.6348370e+001
4.2583172e+001
3.9242340e+001
3.6326973e+001
3.3781662e+001
3.1590250e+001
2.9636311e+001
2.7946630e+001
2.6531979e+001
2.5410553e+001
2.4567501e+001
2.3974232e+001
2.3554434e+001
2.3274002e+001
2.3077902e+001
2.2976315e+001
2.2971691e+001
2.3067421e+001
2.3261349e+001
2.3600676e+001
2.4096743e+001
2.4789095e+001
2.5672262e+001
2.6645760e+001
2.7680759e+001
2.8702879e+001
2.9709482e+001
3.0908659e+001
3.2393681e+001
3.4717430e+001
3.7934341e+001
4.1399422e+001
4.4912872e+001
4.7662064e+001
4.9694195e+001
5.1540176e+001
5.3238987e+001
5.4920509e+001
5.6381378e+001
5.7270374e+001
5.7448772e+001
5.6857891e+001
5.5762127e+001
5.4538155e+001
5.3225605e+001
5.1860699e+001
5.0352295e+001
4.8631531e+001
4.6729828e+001
4.4625679e+001
4.2580128e+001
4.0688023e+001
3.8813839e+001
3.6956890e+001
3.4560421e+001
3.1461235e+001
2.8268776e+001
2.5019245e+001
2.2257208e+001
2.0038120e+001
1.7865999e+001
1.5735642e+001
1.3561468e+001
1.1341722e+001
9.0834436e+000
6.8463979e+000
4.7594376e+000
2.9332950e+000
1.5194337e+000
5.5460119e-001
9.6903197e-002
2.7084181e-001
9.8845178e-001
1.9146161e+000
2.8544886e+000
3.6622815e+000
4.2514157e+000
4.7959661e+000
5.3723359e+000
6.0087633e+000
6.7242804e+000
7.2910151e+000
7.5907707e+000
7.6805367e+000
7.4705906e+000
7.2286286e+000
6.9500389e+000
6.6935101e+000
6.4615574e+000
6.1962738e+000
5.8724227e+000
5.4203653e+000
4.8438692e+000
4.2372990e+000
3.6406479e+000
3.1697936e+000
2.8376160e+000
2.6428373e+000
2.5774744e+000
2.6061389e+000
2.7012515e+000
2.8317208e+000
2.9776936e+000
3.1496553e+000
3.3583052e+000
3.6312830e+000
3.9644880e+000
4.3736773e+000
4.8194556e+000
5.3060303e+000
5.7719998e+000
6.1846948e+000
6.5233264e+000
6.7150092e+000
6.8070335e+000
6.7338648e+000
6.5519423e+000
6.2205200e+000
5.8281112e+000
5.3681183e+000
4.8918886e+000
4.4150724e+000
3.9580719e+000
3.5343809e+000
3.1655469e+000
2.8108721e+000
2.4098618e+000
1.9505188e+000
1.4004972e+000
8.5515052e-001
4.2333716e-001
1.1728197e-001
2.3651918e-002
3.5771959e-002
1.4331569e-001
2.5822145e-001
4.0134162e-001
5.6631541e-001
7.7531624e-001
9.8724085e-001
1.1938629e+000
1.3706623e+000
1.4746329e+000
1.5761870e+000
1.6783760e+000
1.8165307e+000
2.0193515e+000
2.2601602e+000
2.5575006e+000
2.8798177e+000
3.2251401e+000
3.5573487e+000
3.8556333e+000
4.0934405e+000
4.2675047e+000
4.3892355e+000
4.4749627e+000
4.5410161e+000
4.5940289e+000
4.6275568e+000
4.6506858e+000
4.6561956e+000
4.6613960e+000
4.6733837e+000
4.6908598e+000
4.7184901e+000
4.7465453e+000
4.7714305e+000
4.7981286e+000
4.8280587e+000
4.8619871e+000
4.9073362e+000
4.9581246e+000
5.0228481e+000
5.1013632e+000
5.1994958e+000
5.3124304e+000
5.4397287e+000
5.5697498e+000
5.7024226e+000
5.8364143e+000
5.9745712e+000
6.1250277e+000
6.2855811e+000
6.4557266e+000
6.6257000e+000
6.7751708e+000
6.9020972e+000
6.9769168e+000
7.0180759e+000
6.9965644e+000
6.9344306e+000
6.7793479e+000
6.5718884e+000
6.2251010e+000
5.8364501e+000
5.3385434e+000
4.8221602e+000
4.2623148e+000
3.7017181e+000
3.1434886e+000
2.6131403e+000
2.1377826e+000
1.7188644e+000
1.3839097e+000
1.1002198e+000
8.7518841e-001
6.6887236e-001
4.7808194e-001
2.8242344e-001
8.6412571e-002
-9.7501621e-002
-2.6140290e-001
-3.6997721e-001
-4.3750769e-001
-4.3600407e-001
-4.0244800e-001
-3.3002490e-001
-2.3754920e-001
-9.7985782e-002
7.4876398e-002
3.5753912e-001
6.6020870e-001
1.0119137e+000
1.3258795e+000
1.5194472e+000
1.6574571e+000
1.6597329e+000
1.6412629e+000
1.5825597e+000
1.5187585e+000
1.4435799e+000
1.3439920e+000
1.2072470e+000
1.0313264e+000
8.1373888e-001
5.8837491e-001
3.6437970e-001
1.8449549e-001
4.5077953e-002
-3.3314943e-002
-6.3796557e-002
6.4452365e-003
1.3225488e-001
3.4832561e-001
5.8190548e-001
7.7896762e-001
9.4572753e-001
9.8626441e-001
1.0096534e+000
1.0039428e+000
1.0199951e+000
1.1296360e+000
1.2555710e+000
1.4306462e+000
1.5883700e+000
1.7007508e+000
1.7853055e+000
1.8154098e+000
1.8365110e+000
1.8450714e+000
1.8601104e+000
1.8840240e+000
1.9169507e+000
1.9597628e+000
2.0123971e+000
2.0695148e+000
2.1040831e+000
2.1190491e+000
2.0866451e+000
2.0354202e+000
1.9997714e+000
1.9749624e+000
1.9934676e+000
2.0162168e+000
2.0018563e+000
1.9710160e+000
1.8548884e+000
1.7321820e+000
1.5939835e+000
1.4715400e+000
1.4186763e+000
1.3784111e+000
1.3773559e+000
1.3631709e+000
1.3162501e+000
1.2523937e+000
1.1566384e+000
1.0578461e+000
9.5466352e-001
8.5403001e-001
7.5706393e-001
6.6614372e-001
5.8063245e-001
4.9176055e-001
3.9899856e-001
2.8777069e-001
1.6856930e-001
6.8279043e-002
-1.8498586e-002
-3.5726685e-002
-3.3349156e-002
-2.0854544e-002
-1.3894744e-002
-9.0193324e-002
-1.7541200e-001
-2.8445634e-001
-3.8578957e-001
-4.3373966e-001
-4.8072267e-001
-5.2356142e-001
-5.6712031e-001
-6.1249524e-001
-6.4411557e-001
-6.4445359e-001
-6.4166874e-001
-6.3346350e-001
-6.3358039e-001
-6.4389682e-001
-6.4723504e-001
-6.4336514e-001
-6.3595229e-001
-6.2718558e-001
-6.4376086e-001
-6.7553806e-001
-7.1131700e-001
-7.4634564e-001
-7.3253965e-001
-7.0054674e-001
-6.1057091e-001
-5.0704563e-001
-3.7210765e-001
-2.3510921e-001
-1.3787010e-001
-4.6461307e-002
-1.5312857e-002
8.9835376e-004
2.5663678e-002
1.0980204e-002
4.8192691e-002
9.5857546e-002
1.7485061e-001
2.7190918e-001
4.0768802e-001
5.5525005e-001
7.2078824e-001
8.4360641e-001
9.1352862e-001
9.1393757e-001
8.4929168e-001
7.5761324e-001
6.4634669e-001
5.0768614e-001
3.5536602e-001
2.0820493e-001
6.5482229e-002
8.4357105e-002
1.4702123e-001
3.1045502e-001
4.9022079e-001
5.1174998e-001
