##TITLE=Methyl Ethyl Ketone
##JCAMP-DX=4.24
##DATA TYPE=INFRARED SPECTRUM
##XUNITS=cm-1
##YUNITS=Absorbance
##FIRSTX=900
##LASTX=2300
##XYDATA=(X++(Y..Y))
2296 0.040238
2294 0.041074805
2292 0.041911606
2290 0.042749405
2288 0.043586213
2286 0.044423014
2284 0.045259818
2282 0.04609761
2280 0.046934422
2278 0.047771227
2276 0.048609015
2274 0.04944583
2272 0.050282635
2270 0.051119436
2268 0.05195722
2266 0.052794043
2264 0.053630844
2262 0.054468624
2260 0.055305451
2258 0.056142252
2256 0.056979056
2254 0.05781683
2252 0.058653664
2250 0.059490465
2248 0.060328234
2246 0.061165072
2244 0.021895986
2242 0.00078608573
2240 -0.01801344
2238 0.016150046
2236 0.058171984
2234 0.12318166
2232 0.18738468
2230 0.19641829
2228 0.19798541
2226 0.16127549
2224 0.13000068
2222 0.13259636
2220 0.14432043
2218 0.17836995
2216 0.20782429
2214 0.22450578
2212 0.2414858
2210 0.26016453
2208 0.28605121
2206 0.32077813
2204 0.34693968
2202 0.36425468
2200 0.37288731
2198 0.37544882
2196 0.38553572
2194 0.4002164
2192 0.41309434
2190 0.4250575
2188 0.42966989
2186 0.43189657
2184 0.43284199
2182 0.43351626
2180 0.42468289
2178 0.41428331
2176 0.39181373
2174 0.36873952
2172 0.35143623
2170 0.33743751
2168 0.33938909
2166 0.34058085
2164 0.33346051
2162 0.32013139
2160 0.29300538
2158 0.27347246
2156 0.27091998
2154 0.28422871
2152 0.31795639
2150 0.35263276
2148 0.38599288
2146 0.40005466
2144 0.39719269
2142 0.3735767
2140 0.33678544
2138 0.31065306
2136 0.29103255
2134 0.30470639
2132 0.33204737
2130 0.37581348
2128 0.4243964
2126 0.44937137
2124 0.46881607
2122 0.44980258
2120 0.42488661
2118 0.40310448
2116 0.38391998
2114 0.38031551
2112 0.37908033
2110 0.37797481
2108 0.37737116
2106 0.37825936
2104 0.37585592
2102 0.36584508
2100 0.352088
2098 0.33402756
2096 0.32471141
2094 0.32781011
2092 0.33989909
2090 0.3594259
2088 0.37361369
2086 0.38226649
2084 0.37416661
2082 0.35542312
2080 0.33238962
2078 0.30797213
2076 0.30020386
2074 0.29947001
2072 0.299344
2070 0.29926968
2068 0.28692052
2066 0.27201772
2064 0.2635031
2062 0.25741112
2060 0.25924024
2058 0.26354501
2056 0.27282771
2054 0.28030556
2052 0.27886596
2050 0.26225293
2048 0.21233857
2046 0.15393963
2044 0.092365161
2042 0.052797772
2040 0.0463739
2038 0.054178752
2036 0.07022506
2034 0.084544793
2032 0.095939003
2030 0.11868645
2028 0.15154083
2026 0.18272328
2024 0.21231024
2022 0.22369218
2020 0.22606555
2018 0.21791102
2016 0.205286
2014 0.17449237
2012 0.13685943
2010 0.085759379
2008 0.031463984
2006 -0.011367064
2004 -0.050708279
2002 -0.083351448
2000 -0.11284517
1998 -0.13226548
1996 -0.14204143
1994 -0.12796585
1992 -0.10605486
1990 -0.083472051
1988 -0.068629377
1986 -0.072425157
1984 -0.084253199
1982 -0.10097156
1980 -0.12261822
1978 -0.14657134
1976 -0.17423229
1974 -0.2037206
1972 -0.21814042
1970 -0.21989834
1968 -0.22028366
1966 -0.22144358
1964 -0.26069385
1962 -0.32123446
1960 -0.38318801
1958 -0.44502178
1956 -0.46679917
1954 -0.47442114
1952 -0.47280082
1950 -0.4720614
1948 -0.49012414
1946 -0.51637751
1944 -0.55733728
1942 -0.59758502
1940 -0.63333797
1938 -0.66295326
1936 -0.68348116
1934 -0.70338601
1932 -0.7224074
1930 -0.74825454
1928 -0.78024685
1926 -0.8062672
1924 -0.81909323
1922 -0.79647022
1920 -0.74208921
1918 -0.67622423
1916 -0.61204439
1914 -0.57284391
1912 -0.55196881
1910 -0.55310571
1908 -0.56463873
1906 -0.59396225
1904 -0.63301241
1902 -0.65310377
1900 -0.66529632
1898 -0.63541198
1896 -0.58951998
1894 -0.53866434
1892 -0.49098465
1890 -0.48499098
1888 -0.50366443
1886 -0.56786406
1884 -0.64263082
1882 -0.69965297
1880 -0.73195922
1878 -0.71767706
1876 -0.68154001
1874 -0.62629437
1872 -0.56828147
1870 -0.51055682
1868 -0.46608943
1866 -0.44834986
1864 -0.45476845
1862 -0.4878138
1860 -0.52048492
1858 -0.54289293
1856 -0.56011742
1854 -0.57086957
1852 -0.59078676
1850 -0.61368877
1848 -0.6331588
1846 -0.64565927
1844 -0.66591495
1842 -0.68736458
1840 -0.73016489
1838 -0.7831859
1836 -0.81013227
1834 -0.82018304
1832 -0.77802247
1830 -0.70289218
1828 -0.6013608
1826 -0.49626815
1824 -0.43253064
1822 -0.4104321
1820 -0.43918338
1818 -0.48993427
1816 -0.53379714
1814 -0.56302011
1812 -0.56988144
1810 -0.55987376
1808 -0.54109669
1806 -0.51312101
1804 -0.47935298
1802 -0.46229056
1800 -0.457656
1798 -0.45739046
1796 -0.45704356
1794 -0.41247255
1792 -0.3420884
1790 -0.26212335
1788 -0.1850806
1786 -0.13968214
1784 -0.11680834
1782 -0.10262974
1780 -0.093726166
1778 -0.068935961
1776 -0.0312858
1774 0.027051214
1772 0.09254808
1770 0.1225939
1768 0.1271576
1766 0.09810999
1764 0.0624405
1762 0.05840113
1760 0.023969155
1758 -0.074144319
1756 -0.17880172
1754 -0.25692591
1752 -0.27649823
1750 -0.22961439
1748 -0.15310875
1746 -0.071052894
1744 -0.053030416
1742 -0.10806134
1740 -0.17443123
1738 -0.23404843
1736 -0.17983401
1734 -0.031646345
1732 0.11480682
1730 0.24435918
1728 0.22296681
1726 0.095471367
1724 -0.0086046383
1722 -0.074434049
1720 0.014922813
1718 0.25750005
1716 0.7074374
1714 1.2927232
1712 1.8813721
1710 2.4623613
1708 3.044832
1706 3.7776835
1704 4.8152175
1702 6.4270315
1700 8.743535
1698 11.972212
1696 16.057714
1694 20.228401
1692 24.128374
1690 27.604467
1688 30.717508
1686 34.308941
1684 38.474155
1682 43.399609
1680 48.916519
1678 53.737522
1676 57.902885
1674 61.912735
1672 65.89576
1670 70.604027
1668 75.841629
1666 80.94175
1664 85.77887
1662 89.928787
1660 93.426231
1658 96.311249
1656 98.586769
1654 100.27589
1652 101.278
1650 101.50845
1648 100.7908
1646 99.008926
1644 96.565681
1642 93.872398
1640 90.885284
1638 87.638977
1636 83.819756
1634 79.362419
1632 74.828674
1630 70.414192
1628 66.233711
1626 62.290779
1624 58.226082
1622 54.002815
1620 49.908909
1618 45.966305
1616 42.317455
1614 38.972519
1612 36.005669
1610 33.423798
1608 31.210508
1606 29.356199
1604 27.762472
1602 26.443695
1600 25.37944
1598 24.56896
1596 23.973499
1594 23.582455
1592 23.349422
1590 23.26112
1588 23.280611
1586 23.399279
1584 23.604433
1582 23.88184
1580 24.223282
1578 24.671648
1576 25.237886
1574 25.983858
1572 26.911543
1570 27.974161
1568 29.15424
1566 30.365427
1564 31.604134
1562 33.035549
1560 34.749817
1558 37.299351
1556 40.735703
1554 44.37693
1552 47.996017
1550 50.724804
1548 52.583878
1546 54.108681
1544 55.300514
1542 56.268524
1540 56.90958
1538 57.060963
1536 56.668285
1534 55.757675
1532 54.469723
1530 53.045223
1528 51.533577
1526 49.978451
1524 48.258846
1522 46.285042
1520 44.046509
1518 41.492863
1516 39.055359
1514 36.891136
1512 34.863159
1510 32.993011
1508 30.669296
1506 27.742792
1504 24.75848
1502 21.750967
1500 19.18951
1498 17.12319
1496 15.091714
1494 13.093307
1492 11.062029
1490 9.0111237
1488 6.970787
1486 5.0178714
1484 3.2895319
1482 1.8686051
1480 0.84930694
1478 0.24231261
1476 0.050382059
1474 0.37708712
1472 1.170697
1470 2.1637981
1468 3.186044
1466 4.0570402
1464 4.6694679
1462 5.1735778
1460 5.6211443
1458 6.0829887
1456 6.5759802
1454 6.9840965
1452 7.2317395
1450 7.3346019
1448 7.2235661
1446 7.0592465
1444 6.8249826
1442 6.5759382
1440 6.3044167
1438 5.9798832
1436 5.5823884
1434 5.0753698
1432 4.4796062
1430 3.9102526
1428 3.4052601
1426 3.0533879
1424 2.855
1422 2.7835844
1420 2.8301017
1418 2.9557095
1416 3.1405656
1414 3.3601849
1412 3.5879257
1410 3.8304172
1408 4.0844407
1406 4.3608613
1404 4.6536589
1402 4.9551535
1400 5.2667918
1398 5.5879493
1396 5.9140143
1394 6.237103
1392 6.5050564
1390 6.6522541
1388 6.6868143
1386 6.5377498
1384 6.2837877
1382 5.8865724
1380 5.4345341
1378 4.9255767
1376 4.413003
1374 3.9238379
1372 3.4895458
1370 3.1156967
1368 2.7924056
1366 2.4717171
1364 2.0838299
1362 1.6388333
1360 1.1361606
1358 0.66062045
1356 0.31524014
1354 0.081441648
1352 0.014240915
1350 0.025025778
1348 0.10484667
1346 0.21335751
1344 0.37244081
1342 0.558263
1340 0.79366225
1338 1.0226743
1336 1.2270886
1334 1.4070406
1332 1.5217552
1330 1.644588
1328 1.7826514
1326 1.9522464
1324 2.1795237
1322 2.4330342
1320 2.7294257
1318 3.0437772
1316 3.37625
1314 3.7003961
1312 3.9961624
1310 4.2396274
1308 4.4196277
1306 4.5344357
1304 4.5983434
1302 4.6197267
1300 4.6198425
1298 4.6037588
1296 4.5818429
1294 4.5513587
1292 4.5174747
1290 4.4764051
1288 4.4387641
1286 4.410913
1284 4.3903046
1282 4.3833351
1280 4.3780417
1278 4.3758359
1276 4.3800831
1274 4.403089
1272 4.4466367
1270 4.52843
1268 4.6255102
1266 4.7389073
1264 4.8428359
1262 4.9315166
1260 5.013864
1258 5.0942407
1256 5.1903973
1254 5.3016415
1252 5.4250112
1250 5.5535736
1248 5.6747203
1246 5.7858
1244 5.8707161
1242 5.9369946
1240 5.9707446
1238 5.9823866
1236 5.9514799
1234 5.8860927
1232 5.73562
1230 5.5352898
1228 5.2013888
1226 4.8219728
1224 4.322
1222 3.7983661
1220 3.2206137
1218 2.652662
1216 2.109797
1214 1.6109649
1212 1.1911639
1210 0.82077086
1208 0.52182674
1206 0.25828385
1204 0.038361825
1202 -0.15288505
1200 -0.31408486
1198 -0.4546645
1196 -0.57684147
1194 -0.6847651
1192 -0.77862906
1190 -0.8474012
1188 -0.89254534
1186 -0.88594598
1184 -0.84634215
1182 -0.74093139
1180 -0.60317945
1178 -0.39294136
1176 -0.15383619
1174 0.16295493
1172 0.4868342
1170 0.81740981
1168 1.1154628
1166 1.3094536
1164 1.4578232
1162 1.493742
1160 1.5041965
1158 1.4622896
1156 1.3951585
1154 1.2837951
1152 1.1403433
1150 0.95641559
1148 0.77170336
1146 0.58887213
1144 0.42143616
1142 0.27010363
1140 0.13925637
1138 0.035624832
1136 0.005518137
1134 0.033775538
1132 0.16795798
1130 0.35594651
1128 0.61452353
1126 0.89166188
1124 1.1662043
1122 1.4307879
1120 1.6451321
1118 1.8491488
1116 2.0217028
1114 2.1891234
1112 2.3368251
1110 2.4771607
1108 2.5941899
1106 2.708235
1104 2.813333
1102 2.904376
1100 2.9661341
1098 3.0079172
1096 3.0210428
1094 3.043452
1092 3.080518
1090 3.1430557
1088 3.2334423
1086 3.3489215
1084 3.4886031
1082 3.6628203
1080 3.8560908
1078 4.0384007
1076 4.2007012
1074 4.2553668
1072 4.2582197
1070 4.1426387
1068 3.997695
1066 3.8306329
1064 3.6745119
1062 3.6207576
1060 3.5920143
1058 3.6919756
1056 3.7937143
1054 3.9012296
1052 3.9851253
1050 3.993319
1048 3.9799862
1046 3.9145572
1044 3.8392205
1042 3.7447262
1040 3.6478114
1038 3.5480309
1036 3.4591401
1034 3.3832407
1032 3.313344
1030 3.2480788
1028 3.1731157
1026 3.0914998
1024 3.0074737
1022 2.9199169
1020 2.8105397
1018 2.6886258
1016 2.5239885
1014 2.3450577
1012 2.1343861
1010 1.9150019
1008 1.655984
1006 1.3930385
1004 1.1231283
1002 0.86143208
1000 0.656564
998 0.46777621
996 0.35053214
994 0.25397199
992 0.22158109
990 0.20476946
988 0.22279698
986 0.23433237
984 0.23392251
982 0.21106605
980 0.15751573
978 0.082135528
976 -0.016162656
974 -0.11806944
972 -0.21977663
970 -0.26505768
968 -0.27031958
966 -0.17252144
964 -0.027695164
962 0.12629247
960 0.2758092
958 0.27648944
956 0.24069002
954 0.10525976
952 -0.038565561
950 -0.093562692
948 -0.13553217
946 -0.043505676
944 0.0025481805
942 0.079546556
940 0.23995546
938 0.45001668
936 0.64427602
934 0.79208469
932 0.91755724
930 0.99543118
928 1.0702024
926 1.1392658
924 1.164546
922 1.1355206
920 1.0332735
918 0.86279523
916 0.69218433
914 0.52176178
912 0.3924576
910 0.28600532
908 0.21476692
906 0.1585865
904 0.11618458
902 0.078340001
900 -0.0055591464
898 -0.096437015
896 -0.15726
