Image.
>Pix99999.
  .
5555
5555
2300
900
5555
2
1
0
701
5555
-2.9568000e-002
-3.0196102e-002
-3.0825201e-002
-3.1453304e-002
-3.2081407e-002
-3.2709509e-002
-3.3337608e-002
-3.3965711e-002
-3.4593809e-002
-3.5221912e-002
-3.5850015e-002
-3.6479097e-002
-3.7107214e-002
-3.7735317e-002
-3.8363419e-002
-3.8991522e-002
-3.9619625e-002
-4.0247723e-002
-4.0875826e-002
-4.1503929e-002
-4.2133000e-002
-4.2761132e-002
-4.3389231e-002
-4.4017334e-002
-4.4645436e-002
-4.5273535e-002
-1.6824228e-003
4.8219491e-002
7.6554000e-002
6.2775053e-002
4.2968087e-002
-2.7122900e-002
-1.0152930e-001
-1.9176434e-001
-2.7541864e-001
-3.0018950e-001
-3.0460000e-001
-2.2950108e-001
-1.5464568e-001
-9.3436159e-002
-6.7356229e-002
-1.1636525e-001
-1.8066581e-001
-2.6271546e-001
-3.1080738e-001
-3.1521520e-001
-2.8341416e-001
-2.1943352e-001
-1.5911360e-001
-1.0311716e-001
-8.0803998e-002
-7.7726558e-002
-9.4989248e-002
-1.2059666e-001
-1.2448109e-001
-1.2114778e-001
-1.0852200e-001
-9.3868926e-002
-1.1514875e-001
-1.4181271e-001
-1.6745830e-001
-1.9082828e-001
-1.8943214e-001
-1.8842660e-001
-2.0300618e-001
-2.2154336e-001
-2.4889454e-001
-2.7147239e-001
-2.7959302e-001
-2.8008676e-001
-2.6896399e-001
-2.4972263e-001
-2.2046173e-001
-1.8811284e-001
-1.5344577e-001
-1.2479464e-001
-1.0164480e-001
-9.4792515e-002
-9.8822474e-002
-1.2930514e-001
-1.7362256e-001
-2.1264739e-001
-2.4900293e-001
-2.4541292e-001
-2.2919759e-001
-1.9213650e-001
-1.5038982e-001
-9.7781681e-002
-4.4135705e-002
-3.0927374e-003
2.9347785e-002
1.0504168e-002
-1.9497838e-002
-6.6390678e-002
-1.0698244e-001
-1.2101521e-001
-1.2407257e-001
-1.1139273e-001
-1.0150980e-001
-1.0015414e-001
-1.1049429e-001
-1.3433166e-001
-1.6124532e-001
-1.8931027e-001
-2.0809755e-001
-2.1939650e-001
-2.1505092e-001
-2.0118274e-001
-1.7557058e-001
-1.4426909e-001
-1.2526329e-001
-1.1158521e-001
-1.1767320e-001
-1.2985469e-001
-1.4302562e-001
-1.5605429e-001
-1.7485069e-001
-1.9544178e-001
-2.2784372e-001
-2.6227030e-001
-2.9515627e-001
-3.2568008e-001
-3.4744555e-001
-3.6594200e-001
-3.7893200e-001
-3.8942680e-001
-3.9636680e-001
-3.9541900e-001
-3.8491729e-001
-3.6928412e-001
-3.5127714e-001
-3.3831707e-001
-3.3038321e-001
-3.2367972e-001
-3.1629911e-001
-3.1453523e-001
-3.1576526e-001
-3.2238561e-001
-3.3115375e-001
-3.3151147e-001
-3.2888001e-001
-3.3187163e-001
-3.3792752e-001
-3.5622054e-001
-3.7768096e-001
-3.8980073e-001
-3.9901200e-001
-4.0113908e-001
-4.0582892e-001
-4.2467052e-001
-4.5415643e-001
-5.0207502e-001
-5.4523879e-001
-5.7180059e-001
-5.7190841e-001
-5.3876650e-001
-5.0063378e-001
-4.6635011e-001
-4.5206726e-001
-4.5692977e-001
-4.6481058e-001
-4.7022289e-001
-4.5510313e-001
-4.2360014e-001
-3.8800788e-001
-3.5193813e-001
-3.4560701e-001
-3.5655406e-001
-3.8300321e-001
-4.1582042e-001
-4.4419113e-001
-4.7116986e-001
-4.8806337e-001
-5.0225115e-001
-5.0117368e-001
-4.9568751e-001
-4.9612167e-001
-4.9643356e-001
-5.0752574e-001
-5.1850003e-001
-5.2462971e-001
-5.3000009e-001
-5.3046060e-001
-5.3914535e-001
-5.5688381e-001
-5.8419293e-001
-6.1681199e-001
-6.3306129e-001
-6.3356501e-001
-6.1511862e-001
-5.8926100e-001
-5.6996763e-001
-5.5640215e-001
-5.4923099e-001
-5.4360020e-001
-5.4162204e-001
-5.4257441e-001
-5.4447311e-001
-5.4846358e-001
-5.3953952e-001
-5.2624571e-001
-5.0931507e-001
-4.9324453e-001
-5.0144279e-001
-5.2088314e-001
-5.5879647e-001
-5.9795266e-001
-6.2209618e-001
-6.3846773e-001
-6.4452803e-001
-6.6360795e-001
-7.0278502e-001
-7.5801796e-001
-8.2123923e-001
-8.5322803e-001
-8.5563684e-001
-8.2960522e-001
-7.9383659e-001
-7.7203339e-001
-7.6047975e-001
-7.6287830e-001
-7.6905459e-001
-8.0053622e-001
-8.4361011e-001
-9.1688877e-001
-1.0010307e+000
-1.0597643e+000
-1.0982770e+000
-1.0796640e+000
-1.0366362e+000
-9.8107141e-001
-9.2776948e-001
-8.8352346e-001
-8.3902150e-001
-7.8913283e-001
-7.2822601e-001
-6.6878515e-001
-6.2774086e-001
-6.2274998e-001
-6.4453197e-001
-6.7524427e-001
-6.9654471e-001
-6.9361442e-001
-6.6781586e-001
-6.2728202e-001
-5.8284599e-001
-5.4033941e-001
-5.2875507e-001
-5.3977931e-001
-5.7600033e-001
-6.2673002e-001
-6.1861962e-001
-5.7379121e-001
-4.5659381e-001
-3.0502048e-001
-1.8143658e-001
-8.3173037e-002
-2.8485093e-002
-4.3609440e-003
6.8515388e-004
-7.0159892e-003
-2.3422655e-002
-3.2528523e-002
-3.5246652e-002
-2.2853332e-002
2.4422351e-003
2.6133139e-002
5.2463166e-002
2.4386853e-002
-8.4943943e-002
-2.0911270e-001
-3.0853653e-001
-3.6749765e-001
-3.7994000e-001
-3.6329910e-001
-3.3610928e-001
-3.2940301e-001
-3.5797459e-001
-4.0812063e-001
-4.6614146e-001
-4.6441400e-001
-4.0692452e-001
-2.8829384e-001
-1.3734224e-001
-5.5576812e-002
-3.4585394e-002
-3.8755998e-002
-5.2616429e-002
8.3857961e-003
1.6952983e-001
5.1631445e-001
1.0140836e+000
1.5849469e+000
2.1849315e+000
2.7905800e+000
3.5104043e+000
4.4666128e+000
5.9283638e+000
8.0320978e+000
1.1080243e+001
1.5059285e+001
1.9220619e+001
2.3200642e+001
2.6752527e+001
2.9910572e+001
3.3515556e+001
3.7670837e+001
4.2602402e+001
4.8141399e+001
5.2941242e+001
5.7045116e+001
6.0890141e+001
6.4621758e+001
6.8977852e+001
7.3798645e+001
7.8549103e+001
8.3119308e+001
8.7160149e+001
9.0690063e+001
9.3731155e+001
9.6311371e+001
9.8496071e+001
1.0009615e+002
1.0090005e+002
1.0059657e+002
9.8943039e+001
9.6527809e+001
9.3922020e+001
9.1043144e+001
8.7905807e+001
8.4152496e+001
7.9702675e+001
7.5179916e+001
7.0799110e+001
6.6656578e+001
6.2752113e+001
5.8733120e+001
5.4564369e+001
5.0548069e+001
4.6701813e+001
4.3105629e+001
3.9769081e+001
3.6779099e+001
3.4150871e+001
3.1913458e+001
3.0056707e+001
2.8473080e+001
2.7170250e+001
2.6112942e+001
2.5301456e+001
2.4699001e+001
2.4300461e+001
2.4067411e+001
2.3988556e+001
2.4027969e+001
2.4163713e+001
2.4374416e+001
2.4635199e+001
2.4934832e+001
2.5328445e+001
2.5833258e+001
2.6527033e+001
2.7412746e+001
2.8454161e+001
2.9635199e+001
3.0854607e+001
3.2106384e+001
3.3515007e+001
3.5173153e+001
3.7718521e+001
4.1242458e+001
4.5198273e+001
4.9328304e+001
5.2519005e+001
5.4748112e+001
5.6478752e+001
5.7693222e+001
5.8519321e+001
5.8893860e+001
5.8740257e+001
5.8035629e+001
5.6850189e+001
5.5298973e+001
5.3607765e+001
5.1827789e+001
5.0002850e+001
4.8015629e+001
4.5776440e+001
4.3392509e+001
4.0867741e+001
3.8578400e+001
3.6677410e+001
3.4843761e+001
3.3057781e+001
3.0715658e+001
2.7651407e+001
2.4550222e+001
2.1453039e+001
1.8847101e+001
1.6783331e+001
1.4740429e+001
1.2721045e+001
1.0682285e+001
8.6584387e+000
6.7152572e+000
4.9156241e+000
3.3399000e+000
2.0331192e+000
1.0408659e+000
3.7771484e-001
6.3357428e-002
2.3355410e-001
8.6561668e-001
1.7244910e+000
2.6643019e+000
3.4740500e+000
4.0369835e+000
4.4740381e+000
4.8215275e+000
5.1825304e+000
5.5814199e+000
5.9769874e+000
6.3334885e+000
6.5790715e+000
6.6483874e+000
6.6317859e+000
6.4973722e+000
6.3128271e+000
6.0613184e+000
5.7378340e+000
5.3273187e+000
4.8207579e+000
4.2446008e+000
3.7117610e+000
3.2514699e+000
2.9346879e+000
2.7591310e+000
2.6990137e+000
2.7582722e+000
2.9120207e+000
3.1506143e+000
3.4616539e+000
3.7881920e+000
4.1192975e+000
4.4364200e+000
4.7333879e+000
5.0233731e+000
5.2932482e+000
5.5578079e+000
5.8097005e+000
6.0683861e+000
6.3308525e+000
6.5724010e+000
6.7437172e+000
6.7982531e+000
6.6567349e+000
6.3795204e+000
5.9211278e+000
5.4102235e+000
4.8465409e+000
4.2811370e+000
3.7420154e+000
3.2533541e+000
2.8281696e+000
2.4744720e+000
2.1435606e+000
1.7664859e+000
1.3514796e+000
8.9496493e-001
4.7639120e-001
1.9529720e-001
1.9154161e-002
-8.8634854e-003
2.8095465e-002
1.1756513e-001
2.1607393e-001
3.2058477e-001
4.3311924e-001
5.6673723e-001
7.1836811e-001
8.9838976e-001
1.0936877e+000
1.2865171e+000
1.4811699e+000
1.6773331e+000
1.8868128e+000
2.1332850e+000
2.4083064e+000
2.7327685e+000
3.0830097e+000
3.4583299e+000
3.8208086e+000
4.1491032e+000
4.4220567e+000
4.6357660e+000
4.8086576e+000
4.9494219e+000
5.0651808e+000
5.1561780e+000
5.1985717e+000
5.2131000e+000
5.1854796e+000
5.1544557e+000
5.1360378e+000
5.1343079e+000
5.1694479e+000
5.2091074e+000
5.2496009e+000
5.2848086e+000
5.3076119e+000
5.3348389e+000
5.3768902e+000
5.4335184e+000
5.5198121e+000
5.6215529e+000
5.7422566e+000
5.8669624e+000
5.9914250e+000
6.1126060e+000
6.2311058e+000
6.3517232e+000
6.4734926e+000
6.5942397e+000
6.7120695e+000
6.8231063e+000
6.9293499e+000
7.0257406e+000
7.1121912e+000
7.1740651e+000
7.2103925e+000
7.1861572e+000
7.1173983e+000
6.9423118e+000
6.7185884e+000
6.3721094e+000
5.9891410e+000
5.5106373e+000
5.0081701e+000
4.4492235e+000
3.8894100e+000
3.3326542e+000
2.8105106e+000
2.3518493e+000
1.9381664e+000
1.5885451e+000
1.2655678e+000
9.7601205e-001
7.1246803e-001
4.8198536e-001
2.9634160e-001
1.5294793e-001
5.1844813e-002
-2.1583401e-002
-7.9540998e-002
-1.2816943e-001
-1.6685322e-001
-1.8851496e-001
-1.5409189e-001
-8.3133847e-002
8.6629853e-002
2.8644398e-001
5.5433470e-001
8.2483697e-001
1.0872202e+000
1.3256766e+000
1.4860663e+000
1.6031460e+000
1.6116580e+000
1.5835068e+000
1.4822406e+000
1.3622100e+000
1.2107246e+000
1.0433508e+000
8.5491413e-001
6.5828258e-001
4.5755500e-001
2.8133881e-001
1.3577527e-001
4.9329199e-002
1.1992746e-002
2.9410917e-002
8.3249025e-002
1.9040960e-001
3.2572675e-001
5.0285208e-001
6.8777776e-001
8.5518277e-001
1.0097001e+000
1.1120480e+000
1.2053794e+000
1.2756058e+000
1.3431158e+000
1.4009023e+000
1.4582447e+000
1.5140042e+000
1.5691100e+000
1.6217058e+000
1.6680176e+000
1.7020543e+000
1.7360057e+000
1.7703857e+000
1.8079410e+000
1.8489020e+000
1.8877717e+000
1.9232086e+000
1.9507450e+000
1.9706279e+000
1.9779266e+000
1.9781263e+000
1.9783390e+000
1.9794357e+000
1.9861426e+000
1.9941045e+000
2.0004084e+000
2.0077834e+000
2.0273621e+000
2.0495000e+000
2.0794573e+000
2.1066616e+000
2.1133604e+000
2.1236713e+000
2.1505485e+000
2.1894357e+000
2.2659011e+000
2.3318732e+000
2.3697891e+000
2.3733675e+000
2.3116970e+000
2.2309296e+000
2.1248076e+000
2.0421901e+000
1.9911283e+000
1.9901549e+000
2.0358546e+000
2.1015146e+000
2.1771636e+000
2.2122617e+000
2.2210021e+000
2.1768606e+000
2.1101401e+000
2.0218172e+000
1.9246935e+000
1.7949977e+000
1.6553576e+000
1.4631640e+000
1.2664936e+000
1.0671252e+000
8.7439871e-001
7.2704196e-001
5.8426422e-001
4.6132141e-001
3.3732510e-001
2.0995213e-001
9.0898521e-002
-8.7066218e-003
-9.5998853e-002
-1.6124588e-001
-2.2660348e-001
-2.9196882e-001
-3.6484605e-001
-4.4556314e-001
-5.2287799e-001
-5.9597749e-001
-6.4017701e-001
-6.6467667e-001
-6.5704650e-001
-6.3408947e-001
-5.9686589e-001
-5.5523926e-001
-5.0866222e-001
-4.6104357e-001
-4.0633988e-001
-3.5001281e-001
-2.7234927e-001
-1.9041799e-001
-6.1330501e-002
2.0341389e-003
6.3169375e-002
1.7964137e-001
2.8822708e-001
3.8134086e-001
4.2937437e-001
4.6878153e-001
4.8977384e-001
5.0920016e-001
5.2624899e-001
5.4345500e-001
5.6119770e-001
5.7990170e-001
5.9880322e-001
5.9110785e-001
5.6363213e-001
4.7723743e-001
3.6068210e-001
2.3205209e-001
1.0114308e-001
3.8773935e-002
-3.9102919e-003
2.6626438e-002
6.9426164e-002
1.1847000e-001
