Image.
>Pix99999.
  .
5555
5555
2300
900
5555
2
1
0
701
5555
1.5768001e-002
1.6095530e-002
1.6424060e-002
1.6751593e-002
1.7080121e-002
1.7407658e-002
1.7736180e-002
1.8063720e-002
1.8392239e-002
1.8719783e-002
1.9048300e-002
1.9374860e-002
1.9703360e-002
2.0035816e-002
2.0359520e-002
2.0671315e-002
2.1015113e-002
2.1403529e-002
2.1673134e-002
2.1777285e-002
2.2321086e-002
2.3486450e-002
2.3010595e-002
2.0222168e-002
2.3530211e-002
3.7305284e-002
3.9495040e-002
1.1860281e-002
-1.8675961e-002
-1.8122891e-002
2.4396585e-002
1.0303417e-001
1.7152914e-001
1.8410186e-001
1.4354441e-001
6.8794005e-002
-1.3423736e-002
-7.7845983e-002
-1.1359093e-001
-1.1398636e-001
-7.2068252e-002
1.3089596e-002
1.1739060e-001
2.1030320e-001
2.6568541e-001
2.6627836e-001
2.2497210e-001
1.6412158e-001
1.0711937e-001
7.1675107e-002
5.1825214e-002
3.5000496e-002
1.1799211e-002
-2.1647666e-002
-5.1282715e-002
-6.1409235e-002
-5.2761320e-002
-3.3072520e-002
-1.6689863e-002
-1.6341731e-002
-2.9866515e-002
-4.8146222e-002
-5.3648219e-002
-2.8364820e-002
3.6783565e-002
1.4215851e-001
2.6483500e-001
3.7441179e-001
4.4156873e-001
4.4330806e-001
3.8022602e-001
2.6650172e-001
1.3918509e-001
4.1607149e-002
1.1367921e-002
7.2354935e-002
2.0100741e-001
3.5404709e-001
4.7492516e-001
5.1470506e-001
4.7291198e-001
3.7267366e-001
2.6284373e-001
1.9428304e-001
1.9022320e-001
2.5555491e-001
3.6186531e-001
4.6969184e-001
5.4265130e-001
5.5395204e-001
5.1019472e-001
4.3262711e-001
3.5206392e-001
2.9690018e-001
2.7236614e-001
2.7328458e-001
2.8801948e-001
3.0699036e-001
3.3796540e-001
3.9248735e-001
4.6975285e-001
5.6011403e-001
6.3808793e-001
6.7696583e-001
6.6985005e-001
6.2163198e-001
5.5293596e-001
4.8748928e-001
4.3734863e-001
4.0679058e-001
3.8812241e-001
3.7269238e-001
3.6712319e-001
3.8332495e-001
4.2857620e-001
5.0171846e-001
5.7528442e-001
6.1735952e-001
6.2220770e-001
6.0027385e-001
5.8203429e-001
5.9690571e-001
6.3690841e-001
6.7567855e-001
6.7747980e-001
6.1461931e-001
5.0655198e-001
3.9269206e-001
3.1091321e-001
2.8618523e-001
2.9631144e-001
3.0244955e-001
2.8161600e-001
2.2505970e-001
1.5011975e-001
8.2898401e-002
3.9670113e-002
2.9167913e-002
4.9345486e-002
9.2292391e-002
1.4458801e-001
1.9228587e-001
2.2884837e-001
2.5188527e-001
2.6196125e-001
2.6018584e-001
2.4536711e-001
2.1625200e-001
1.7626747e-001
1.3076574e-001
8.3605140e-002
3.7891898e-002
-2.9818676e-003
-3.6273573e-002
-6.2843822e-002
-8.7062143e-002
-1.2089159e-001
-1.7531033e-001
-2.4201281e-001
-3.0018306e-001
-3.1648231e-001
-2.6046601e-001
-1.3753697e-001
2.2818785e-002
1.6513713e-001
2.3259500e-001
2.1246439e-001
1.2090881e-001
1.5283749e-004
-1.0406853e-001
-1.8026356e-001
-2.3593593e-001
-2.8212115e-001
-3.2751569e-001
-3.6877194e-001
-3.9854750e-001
-4.1923565e-001
-4.3898505e-001
-4.6703056e-001
-5.0940973e-001
-5.5773944e-001
-5.9877896e-001
-6.3119340e-001
-6.6112417e-001
-6.9740319e-001
-7.4147642e-001
-7.5909370e-001
-7.0662338e-001
-5.8351690e-001
-4.2107660e-001
-2.8075743e-001
-2.2403659e-001
-2.5000229e-001
-3.2164130e-001
-3.9942423e-001
-4.5303330e-001
-4.8530841e-001
-5.1423377e-001
-5.4382044e-001
-5.6411237e-001
-5.4539716e-001
-4.5798352e-001
-3.1745952e-001
-1.6980560e-001
-7.7127509e-002
-9.4587222e-002
-2.1695168e-001
-4.0284282e-001
-6.0813910e-001
-7.9506713e-001
-9.4607902e-001
-1.0531616e+000
-1.0985892e+000
-1.0646354e+000
-9.6320653e-001
-8.2795030e-001
-7.0734936e-001
-6.4705151e-001
-6.4888978e-001
-6.8816149e-001
-7.4307942e-001
-8.0023164e-001
-8.6328954e-001
-9.4431472e-001
-1.0482200e+000
-1.1687893e+000
-1.2747506e+000
-1.3250875e+000
-1.3027109e+000
-1.2118708e+000
-1.0787500e+000
-9.3524730e-001
-7.8585958e-001
-6.1984086e-001
-4.4151267e-001
-2.7180436e-001
-1.5387754e-001
-1.3477172e-001
-2.2056639e-001
-3.8498726e-001
-5.8199030e-001
-7.5922465e-001
-8.7969559e-001
-9.1934144e-001
-8.6189413e-001
-7.0690602e-001
-5.0805014e-001
-3.5220972e-001
-3.1553644e-001
-4.3744427e-001
-6.4265430e-001
-7.9140484e-001
-7.9672319e-001
-6.3613027e-001
-3.7481102e-001
-1.2021551e-001
7.5943306e-002
2.1023643e-001
2.9299960e-001
3.4083760e-001
3.8140914e-001
4.4380179e-001
5.3048104e-001
6.1822122e-001
6.5632755e-001
5.9255046e-001
4.4536299e-001
2.7366221e-001
7.9565369e-002
-1.6573180e-001
-4.1288215e-001
-5.6366414e-001
-5.8532804e-001
-5.1142931e-001
-4.2155269e-001
-4.0984178e-001
-5.1706517e-001
-7.2324920e-001
-9.2677307e-001
-9.9007630e-001
-8.6312199e-001
-5.8701569e-001
-2.8528953e-001
-1.0985047e-001
-1.0367118e-001
-2.0743093e-001
-3.0600464e-001
-2.5837931e-001
5.9433594e-002
7.2069395e-001
1.6428272e+000
2.6303248e+000
3.5134447e+000
4.1989617e+000
4.7760439e+000
5.4770727e+000
6.5601416e+000
8.2729969e+000
1.0818358e+001
1.4272927e+001
1.8282713e+001
2.2208750e+001
2.5666212e+001
2.8614807e+001
3.1422075e+001
3.4708843e+001
3.8931866e+001
4.4223198e+001
5.0037518e+001
5.5448162e+001
6.0217327e+001
6.4768944e+001
6.9526192e+001
7.4695473e+001
7.9988724e+001
8.4780098e+001
8.8740692e+001
9.1879341e+001
9.4296280e+001
9.6104370e+001
9.7360741e+001
9.8067268e+001
9.8205879e+001
9.7761383e+001
9.6768700e+001
9.5324783e+001
9.3606819e+001
9.1817314e+001
8.9972755e+001
8.7907516e+001
8.5437271e+001
8.2428703e+001
7.8927856e+001
7.5115700e+001
7.1055618e+001
6.6685150e+001
6.1983803e+001
5.7018215e+001
5.1980530e+001
4.7147518e+001
4.2702942e+001
3.8717197e+001
3.5225368e+001
3.2242641e+001
2.9734829e+001
2.7627708e+001
2.5860283e+001
2.4395830e+001
2.3223063e+001
2.2346458e+001
2.1760500e+001
2.1443272e+001
2.1359932e+001
2.1470152e+001
2.1750414e+001
2.2198677e+001
2.2815474e+001
2.3607630e+001
2.4618925e+001
2.5929356e+001
2.7625572e+001
2.9772381e+001
3.2329544e+001
3.5146473e+001
3.8044598e+001
4.0851715e+001
4.3463333e+001
4.5884171e+001
4.8322800e+001
5.1096867e+001
5.4091202e+001
5.6730659e+001
5.8552765e+001
5.9381268e+001
5.9374054e+001
5.8940037e+001
5.8250793e+001
5.7160690e+001
5.5516499e+001
5.3275600e+001
5.0638256e+001
4.8017815e+001
4.5664387e+001
4.3577042e+001
4.1658829e+001
3.9766750e+001
3.7773178e+001
3.5596466e+001
3.3250046e+001
3.0849712e+001
2.8537415e+001
2.6429502e+001
2.4481880e+001
2.2484001e+001
2.0286020e+001
1.7880793e+001
1.5424886e+001
1.3202121e+001
1.1347534e+001
9.7791882e+000
8.3664999e+000
6.9898434e+000
5.6124701e+000
4.2913575e+000
3.0794930e+000
2.0017736e+000
1.0872366e+000
3.7683588e-001
-8.7351993e-002
-2.5514671e-001
-2.3616016e-002
7.4351138e-001
2.0250373e+000
3.5943179e+000
5.2105460e+000
6.6917200e+000
7.9750829e+000
9.1351595e+000
1.0269152e+001
1.1447948e+001
1.2649600e+001
1.3738223e+001
1.4554697e+001
1.4962672e+001
1.4933697e+001
1.4573071e+001
1.4001482e+001
1.3312520e+001
1.2560971e+001
1.1755026e+001
1.0881443e+001
9.9197979e+000
8.9018812e+000
7.9284258e+000
7.0875220e+000
6.4250927e+000
5.9486408e+000
5.6269789e+000
5.4321489e+000
5.3536663e+000
5.3896828e+000
5.5438371e+000
5.8137455e+000
6.1850104e+000
6.6311040e+000
7.1102037e+000
7.5678291e+000
7.9376664e+000
8.1599159e+000
8.1940680e+000
8.0383282e+000
7.7427783e+000
7.3749251e+000
7.0053644e+000
6.6741061e+000
6.3744903e+000
6.0897632e+000
5.8038092e+000
5.5023050e+000
5.1725130e+000
4.7969313e+000
4.3530684e+000
3.8314362e+000
3.2444007e+000
2.6096880e+000
1.9463286e+000
1.2795359e+000
6.4616871e-001
1.0164560e-001
-2.7948880e-001
-4.5292014e-001
-4.2765462e-001
-2.2010708e-001
1.5741801e-001
6.7609978e-001
1.2821000e+000
1.9320800e+000
2.6064754e+000
3.2792990e+000
3.9035048e+000
4.4142914e+000
4.7320604e+000
4.8107629e+000
4.6678410e+000
4.3506136e+000
3.9316494e+000
3.4830303e+000
3.0650580e+000
2.7222240e+000
2.4744363e+000
2.3174801e+000
2.2159991e+000
2.1284988e+000
2.0181746e+000
1.8685360e+000
1.6972772e+000
1.5346411e+000
1.4179180e+000
1.3784720e+000
1.4338434e+000
1.5978000e+000
1.8823051e+000
2.2941751e+000
2.8296607e+000
3.4667079e+000
4.1540284e+000
4.8309627e+000
5.4342642e+000
5.9183164e+000
6.2724705e+000
6.5076470e+000
6.6596909e+000
6.7687469e+000
6.8724504e+000
7.0067859e+000
7.2053337e+000
7.4964991e+000
7.8991365e+000
8.4224939e+000
9.0624542e+000
9.8125029e+000
1.0667069e+001
1.1621151e+001
1.2668936e+001
1.3800697e+001
1.4998250e+001
1.6225264e+001
1.7417530e+001
1.8499430e+001
1.9384068e+001
1.9994343e+001
2.0278656e+001
2.0196041e+001
1.9722153e+001
1.8861265e+001
1.7669529e+001
1.6233919e+001
1.4677017e+001
1.3125255e+001
1.1692141e+001
1.0470554e+001
9.5128498e+000
8.8466434e+000
8.4656572e+000
8.3438654e+000
8.4273291e+000
8.6340599e+000
8.8384562e+000
8.9110775e+000
8.7419415e+000
8.2729635e+000
7.5477943e+000
6.6528029e+000
5.7102828e+000
4.8234854e+000
4.0350595e+000
3.3603759e+000
2.7880411e+000
2.3124754e+000
1.9539630e+000
1.7344201e+000
1.6641109e+000
1.7315646e+000
1.8836656e+000
2.0601246e+000
2.2075791e+000
2.2892091e+000
2.3008919e+000
2.2448931e+000
2.1202528e+000
1.9223601e+000
1.6428238e+000
1.2877650e+000
8.9931047e-001
5.3064340e-001
2.3911446e-001
6.3544139e-002
-4.1913996e-003
1.4422443e-003
1.3144394e-002
-2.1320105e-002
-9.9579781e-002
-2.0155154e-001
-2.9655749e-001
-3.5664442e-001
-3.6726972e-001
-3.2349473e-001
-2.3599495e-001
-1.2076648e-001
2.5113150e-003
1.1373503e-001
1.9509494e-001
2.3945491e-001
2.6492605e-001
2.9679227e-001
3.6210853e-001
4.7818160e-001
6.3680851e-001
8.2489753e-001
1.0328584e+000
1.2563571e+000
1.5018291e+000
1.7741100e+000
2.0669672e+000
2.3713262e+000
2.6780264e+000
2.9780550e+000
3.2625625e+000
3.5144548e+000
3.6961291e+000
3.7757313e+000
3.7520678e+000
3.6458423e+000
3.5163867e+000
3.4188395e+000
3.3720365e+000
3.3755879e+000
3.4023798e+000
3.4217496e+000
3.4119761e+000
3.3580284e+000
3.2568276e+000
3.1086400e+000
2.9152021e+000
2.6797485e+000
2.4095643e+000
2.1266789e+000
1.8933005e+000
1.7741954e+000
1.8112670e+000
2.0167398e+000
2.3328435e+000
2.6828349e+000
2.9842398e+000
3.1613517e+000
3.1635156e+000
2.9722428e+000
2.6475430e+000
2.2751751e+000
1.9595333e+000
1.7737343e+000
1.6826513e+000
1.6183709e+000
1.4945304e+000
1.2471175e+000
8.9540648e-001
4.8659465e-001
9.0076879e-002
-2.3774269e-001
-4.9826235e-001
-7.0838070e-001
-8.8851500e-001
-1.0503252e+000
-1.1749738e+000
-1.2420294e+000
-1.2497321e+000
-1.2067137e+000
-1.1403563e+000
-1.0768961e+000
-1.0242167e+000
-9.8165542e-001
-9.3432444e-001
-8.6661482e-001
-7.7181745e-001
-6.5081006e-001
-5.2276701e-001
-4.1405171e-001
-3.5962161e-001
-3.8271737e-001
-4.5887572e-001
-5.4685414e-001
-5.8879852e-001
-5.3927362e-001
-4.1097319e-001
-2.3773292e-001
-7.6471567e-002
3.4818105e-002
1.4538939e-001
3.0802548e-001
5.1039428e-001
7.2687972e-001
9.4253290e-001
1.1459160e+000
1.3282526e+000
1.4769748e+000
1.5613251e+000
1.5562559e+000
1.4734937e+000
1.3564268e+000
1.3322967e+000
1.5263871e+000
1.9758519e+000
2.6562147e+000
3.3900518e+000
3.9821997e+000
4.3178196e+000
4.3475647e+000
4.2014937e+000
4.0371251e+000
3.9413602e+000
3.9835999e+000
