Image.
>Pix99999.
  .
5555
5555
2300
900
5555
2
1
0
701
5555
4.1963000e-002
4.2835753e-002
4.3709502e-002
4.4582255e-002
4.5455005e-002
4.6327755e-002
4.7201499e-002
4.8074260e-002
4.8947014e-002
4.9819764e-002
5.0693501e-002
5.1566266e-002
5.2439015e-002
5.3311769e-002
5.4184522e-002
5.5058252e-002
5.5931021e-002
5.6803774e-002
5.7676524e-002
5.8550250e-002
5.9423029e-002
6.0295783e-002
6.1168529e-002
6.2042248e-002
6.2915035e-002
6.3787788e-002
2.1324262e-002
7.5927860e-004
-3.0030720e-002
-3.3232693e-002
-3.2246914e-002
-3.8451284e-002
-4.6254091e-002
-7.8058288e-002
-1.1275797e-001
-1.6112350e-001
-2.0660719e-001
-2.3554525e-001
-2.5718316e-001
-2.5913322e-001
-2.6000974e-001
-2.6095435e-001
-2.6180902e-001
-2.6250762e-001
-2.6494908e-001
-2.6957336e-001
-2.7635458e-001
-2.8513110e-001
-2.8633541e-001
-2.8180438e-001
-2.7665928e-001
-2.7136686e-001
-2.6611075e-001
-2.6085824e-001
-2.5256032e-001
-2.4326621e-001
-2.4540040e-001
-2.5018772e-001
-2.5737685e-001
-2.6485786e-001
-2.6853457e-001
-2.7302825e-001
-2.9075626e-001
-3.1137711e-001
-3.4132487e-001
-3.6787179e-001
-3.7864161e-001
-3.8127336e-001
-3.6712262e-001
-3.5780069e-001
-3.6090100e-001
-3.7539366e-001
-4.0450436e-001
-4.2880782e-001
-4.4594523e-001
-4.5167106e-001
-4.4794247e-001
-4.4560552e-001
-4.4488239e-001
-4.4648784e-001
-4.4929513e-001
-4.4443038e-001
-4.3639579e-001
-4.3282861e-001
-4.3081680e-001
-4.3654671e-001
-4.4400120e-001
-4.2968380e-001
-4.1085610e-001
-3.7291726e-001
-3.3509630e-001
-3.1887430e-001
-3.1281844e-001
-3.3826101e-001
-3.6649132e-001
-3.8913465e-001
-3.9996064e-001
-3.8636759e-001
-3.6577380e-001
-3.3943108e-001
-3.1800857e-001
-3.0399850e-001
-2.9774752e-001
-2.9841575e-001
-3.0050761e-001
-3.0325252e-001
-3.0191499e-001
-2.9793188e-001
-2.9540941e-001
-2.9366848e-001
-2.8727400e-001
-2.7883482e-001
-2.5261280e-001
-2.2060966e-001
-1.9458212e-001
-1.7035750e-001
-1.7505823e-001
-1.8502529e-001
-1.9528528e-001
-2.0311390e-001
-1.9735858e-001
-1.8907779e-001
-1.8009470e-001
-1.7229313e-001
-1.6645251e-001
-1.6415751e-001
-1.6728941e-001
-1.7176451e-001
-1.7794229e-001
-1.7213301e-001
-1.5301843e-001
-1.1739173e-001
-6.7897864e-002
-1.7382422e-002
3.2887235e-002
7.7097930e-002
1.1807968e-001
1.6143095e-001
2.0666227e-001
2.4224941e-001
2.7307200e-001
2.8657269e-001
2.9340822e-001
2.9592723e-001
2.9682982e-001
2.9655185e-001
2.9594141e-001
2.9825112e-001
3.0139977e-001
3.0934319e-001
3.1845215e-001
3.3014867e-001
3.4629515e-001
3.6687759e-001
3.8998240e-001
4.1014972e-001
4.2341709e-001
4.2820305e-001
4.2961428e-001
4.3167168e-001
4.4500801e-001
4.6995190e-001
5.1242357e-001
5.6748974e-001
6.1557156e-001
6.5756160e-001
6.6220516e-001
6.4622617e-001
6.2049079e-001
5.9113145e-001
5.7524312e-001
5.6350476e-001
5.4519242e-001
5.2335119e-001
5.0698692e-001
4.9749750e-001
5.1208091e-001
5.4077154e-001
5.7646734e-001
6.0938519e-001
6.2557918e-001
6.2436664e-001
6.0394943e-001
5.7210690e-001
5.3676605e-001
5.1705474e-001
5.2261931e-001
5.6105918e-001
6.2469161e-001
6.8645924e-001
7.3525131e-001
7.5583762e-001
7.5758386e-001
7.4494994e-001
7.2711170e-001
6.9976950e-001
6.6667557e-001
6.4158571e-001
6.1886662e-001
6.3232136e-001
6.6072714e-001
7.1226597e-001
7.7075809e-001
8.0717349e-001
8.2641709e-001
7.9903299e-001
7.5192982e-001
6.9558102e-001
6.4371926e-001
6.1456001e-001
5.9511602e-001
5.8876449e-001
5.9032834e-001
6.0299498e-001
6.2742561e-001
6.5065098e-001
6.5703791e-001
6.3559377e-001
5.9235328e-001
5.4021293e-001
4.8934057e-001
4.4581115e-001
4.0618247e-001
3.7273112e-001
3.4649161e-001
3.2928357e-001
3.2479680e-001
3.3094901e-001
3.4295565e-001
3.5613769e-001
3.8751215e-001
4.2702061e-001
4.9548155e-001
5.7968378e-001
6.6466552e-001
7.4076927e-001
7.6912206e-001
7.5520080e-001
6.9486618e-001
6.1127430e-001
5.3079659e-001
4.6601054e-001
4.2772543e-001
4.1645437e-001
4.2431915e-001
4.5115501e-001
4.9061537e-001
5.1034474e-001
5.1376420e-001
4.8731393e-001
4.4134286e-001
4.2670551e-001
4.3041080e-001
4.6019137e-001
4.9720642e-001
5.1540899e-001
5.1766628e-001
5.1310182e-001
5.0038409e-001
4.8054379e-001
4.5529598e-001
4.2529973e-001
3.9548317e-001
3.4580702e-001
2.8735808e-001
2.1586643e-001
1.3758060e-001
7.3810413e-002
2.0099999e-002
-7.7721611e-002
-1.8077856e-001
-2.4624282e-001
-2.4932915e-001
-1.8520200e-001
-1.1277336e-001
-5.8500253e-002
-7.7419862e-002
-1.7365845e-001
-2.6990253e-001
-3.4853336e-001
-3.1587198e-001
-1.9149832e-001
-6.2969804e-002
5.3717975e-002
4.6685115e-002
-4.8563763e-002
-1.0994004e-001
-1.2597001e-001
-1.4607467e-002
1.8869676e-001
5.4945785e-001
1.0116301e+000
1.4166754e+000
1.7783910e+000
2.1368620e+000
2.6335278e+000
3.4187799e+000
4.7336364e+000
6.6917391e+000
9.5079765e+000
1.3135143e+001
1.6851171e+001
2.0321301e+001
2.3421074e+001
2.6212269e+001
2.9545237e+001
3.3503273e+001
3.8256714e+001
4.3623642e+001
4.8292385e+001
5.2300301e+001
5.6138592e+001
5.9930454e+001
6.4328331e+001
6.9160538e+001
7.3826500e+001
7.8267967e+001
8.2281578e+001
8.5899368e+001
8.9177765e+001
9.2116829e+001
9.4733170e+001
9.6982681e+001
9.8826645e+001
9.9876350e+001
9.9796783e+001
9.8800072e+001
9.7182297e+001
9.5019478e+001
9.2456062e+001
8.9196342e+001
8.5200729e+001
8.0983597e+001
7.6745735e+001
7.2641502e+001
6.8699043e+001
6.4548477e+001
6.0164211e+001
5.5810978e+001
5.1518227e+001
4.7450089e+001
4.3624325e+001
4.0169510e+001
3.7099979e+001
3.4438946e+001
3.2179371e+001
3.0219034e+001
2.8572836e+001
2.7213154e+001
2.6135088e+001
2.5289001e+001
2.4667768e+001
2.4225988e+001
2.3950378e+001
2.3802515e+001
2.3761929e+001
2.3807297e+001
2.3937691e+001
2.4151655e+001
2.4503572e+001
2.5007629e+001
2.5681335e+001
2.6510324e+001
2.7425762e+001
2.8405880e+001
2.9393614e+001
3.0388758e+001
3.1562632e+001
3.3006760e+001
3.5291878e+001
3.8484215e+001
4.1964508e+001
4.5515995e+001
4.8259045e+001
5.0220161e+001
5.1914680e+001
5.3386662e+001
5.4800308e+001
5.6006321e+001
5.6726345e+001
5.6830170e+001
5.6256603e+001
5.5229198e+001
5.4088722e+001
5.2849728e+001
5.1527451e+001
5.0010933e+001
4.8214947e+001
4.6201656e+001
4.3952480e+001
4.1779270e+001
3.9797737e+001
3.7871639e+001
3.6014523e+001
3.3678688e+001
3.0715107e+001
2.7674000e+001
2.4581741e+001
2.1933115e+001
1.9772329e+001
1.7616714e+001
1.5452568e+001
1.3207194e+001
1.0893058e+001
8.5691376e+000
6.3185821e+000
4.3003120e+000
2.6011186e+000
1.3232400e+000
4.7850010e-001
8.6300120e-002
2.6929826e-001
9.4615960e-001
1.8278890e+000
2.7456708e+000
3.5402608e+000
4.1255283e+000
4.6416321e+000
5.1459951e+000
5.6743631e+000
6.2347798e+000
6.6879845e+000
6.9434395e+000
7.0557437e+000
6.9580312e+000
6.8095036e+000
6.5934496e+000
6.3548908e+000
6.0863767e+000
5.7692094e+000
5.3825345e+000
4.8764186e+000
4.2599854e+000
3.6275005e+000
3.0142579e+000
2.5284178e+000
2.1809292e+000
1.9699895e+000
1.8943392e+000
1.9226167e+000
2.0313599e+000
2.1929231e+000
2.3758788e+000
2.5896425e+000
2.8330023e+000
3.1258316e+000
3.4583244e+000
3.8304584e+000
4.2217240e+000
4.6298547e+000
5.0427785e+000
5.4513550e+000
5.8198919e+000
6.0907497e+000
6.2577310e+000
6.2497702e+000
6.1191030e+000
5.8183088e+000
5.4414568e+000
4.9816709e+000
4.5054455e+000
4.0347109e+000
3.5950439e+000
3.1920712e+000
2.8272440e+000
2.4596250e+000
2.0367367e+000
1.5677078e+000
1.0506629e+000
5.7087952e-001
2.3480779e-001
2.0712625e-002
-1.1901816e-002
4.0315203e-002
1.5922409e-001
2.8159571e-001
4.3565243e-001
6.1010230e-001
8.2518935e-001
1.0330397e+000
1.2143058e+000
1.3701991e+000
1.4556812e+000
1.5467520e+000
1.6499760e+000
1.7903422e+000
2.0010557e+000
2.2550023e+000
2.5741451e+000
2.9200246e+000
3.2906101e+000
3.6447437e+000
3.9642067e+000
4.2345071e+000
4.4514728e+000
4.6309471e+000
4.7788582e+000
4.8977289e+000
4.9898672e+000
5.0330868e+000
5.0476999e+000
5.0192099e+000
4.9878783e+000
4.9717979e+000
4.9778323e+000
5.0339932e+000
5.0978990e+000
5.1692653e+000
5.2342238e+000
5.2844429e+000
5.3392029e+000
5.4083099e+000
5.4892092e+000
5.5943203e+000
5.7105708e+000
5.8414450e+000
5.9815927e+000
6.1312485e+000
6.2919078e+000
6.4664721e+000
6.6565428e+000
6.8566689e+000
7.0508666e+000
7.2305746e+000
7.3733554e+000
7.4902496e+000
7.5759182e+000
7.6446066e+000
7.6927447e+000
7.7158771e+000
7.6767654e+000
7.5908976e+000
7.3924041e+000
7.1438231e+000
6.7702589e+000
6.3598700e+000
5.8538332e+000
5.3319068e+000
4.7732563e+000
4.2215228e+000
3.6873770e+000
3.1850314e+000
2.7429090e+000
2.3516622e+000
2.0341921e+000
1.7529265e+000
1.5101061e+000
1.2679713e+000
1.0259000e+000
7.8076035e-001
5.4117858e-001
3.3332798e-001
1.5797400e-001
4.3636657e-002
-3.1593546e-002
-5.6298230e-002
-5.8596469e-002
-3.6875501e-002
5.7650208e-003
1.1300815e-001
2.6010799e-001
5.3403020e-001
8.2782131e-001
1.1663640e+000
1.4721423e+000
1.6728758e+000
1.8244703e+000
1.8544600e+000
1.8555983e+000
1.7981322e+000
1.7176757e+000
1.5971498e+000
1.4471692e+000
1.2568983e+000
1.0472072e+000
8.1824535e-001
5.9292006e-001
3.7661225e-001
1.9518423e-001
4.7163703e-002
-4.5569830e-002
-9.6362889e-002
-5.7495017e-002
2.9611275e-002
1.9090709e-001
3.7194484e-001
5.5161518e-001
7.1751803e-001
8.1165159e-001
8.8817674e-001
9.0581840e-001
9.2585742e-001
9.6088105e-001
1.0090823e+000
1.0993371e+000
1.1993550e+000
1.3219274e+000
1.4364260e+000
1.5312251e+000
1.5910245e+000
1.5953715e+000
1.5791590e+000
1.5421879e+000
1.5361564e+000
1.5663702e+000
1.6447479e+000
1.7610246e+000
1.8854448e+000
2.0064116e+000
2.0662251e+000
2.0861301e+000
2.0168383e+000
1.9128743e+000
1.7708329e+000
1.6214000e+000
1.4817822e+000
1.3416080e+000
1.1876096e+000
1.0311275e+000
8.6338973e-001
7.0975173e-001
6.1866808e-001
5.4512984e-001
5.2678937e-001
5.0266343e-001
4.6408856e-001
4.1978335e-001
3.6490577e-001
3.1646347e-001
2.7643728e-001
2.3288099e-001
1.8625492e-001
1.4571400e-001
1.1212109e-001
8.8789754e-002
7.0252970e-002
2.6288575e-002
-3.3423774e-002
-1.1708460e-001
-2.0924957e-001
-2.9055771e-001
-3.6892128e-001
-4.4711530e-001
-5.2669591e-001
-6.2376642e-001
-7.2022325e-001
-7.9322934e-001
-8.6009216e-001
-8.8689899e-001
-9.1382009e-001
-9.4119215e-001
-9.6560580e-001
-9.8054039e-001
-9.7955233e-001
-9.4259471e-001
-9.0621674e-001
-8.7104350e-001
-8.5075670e-001
-8.4911740e-001
-8.3728677e-001
-8.1410688e-001
-7.7137411e-001
-7.1328795e-001
-6.5680629e-001
-6.0165930e-001
-5.6240648e-001
-5.3084320e-001
-5.1242846e-001
-4.9764034e-001
-4.6206832e-001
-4.2076114e-001
-3.4395015e-001
-2.6320440e-001
-1.8817908e-001
-1.1319326e-001
-3.5990037e-002
7.0714206e-004
2.2054914e-002
6.5891616e-002
1.2172340e-001
1.8835144e-001
2.8768915e-001
4.1466391e-001
6.0011780e-001
7.7222550e-001
9.2189038e-001
1.0108119e+000
1.0261334e+000
1.0277028e+000
1.0166562e+000
1.0332114e+000
1.0684872e+000
1.0672760e+000
1.0472987e+000
9.8713648e-001
9.1375154e-001
8.9867866e-001
9.0027446e-001
9.2229360e-001
9.4795275e-001
9.2193002e-001
