Image.
>Pix99999.
  .
5555
5555
2300
900
5555
2
1
0
701
5555
1.1040000e-001
1.1269671e-001
1.1499343e-001
1.1729014e-001
1.1958686e-001
1.2188357e-001
1.2418029e-001
1.2647700e-001
1.2877372e-001
1.3107044e-001
1.3336714e-001
1.3566385e-001
1.3796057e-001
1.4025728e-001
1.4255400e-001
1.4485070e-001
1.4714743e-001
1.4944413e-001
1.5174086e-001
1.5403756e-001
1.5633428e-001
1.5863100e-001
1.6092771e-001
1.6322443e-001
1.6552114e-001
1.6781786e-001
1.1555909e-001
4.3794001e-003
-1.2521280e-001
-1.7286596e-001
-2.0830528e-001
-9.2971064e-002
3.3786155e-002
1.7362884e-001
3.0515403e-001
3.6552799e-001
4.1891938e-001
4.5707366e-001
5.0439703e-001
5.8218402e-001
6.6593313e-001
7.5898010e-001
8.5099697e-001
9.4040012e-001
9.9620521e-001
1.0103595e+000
9.3973923e-001
7.9002452e-001
6.2554240e-001
4.5389590e-001
3.7384000e-001
3.4688705e-001
3.7272927e-001
4.2017454e-001
4.3671694e-001
4.4273806e-001
4.1555080e-001
3.8087142e-001
3.7266308e-001
3.6967093e-001
4.6618056e-001
5.7643110e-001
7.3920089e-001
8.9012504e-001
9.4457477e-001
9.6394908e-001
8.8968360e-001
8.1631970e-001
7.6914066e-001
7.4958485e-001
7.7734995e-001
8.2057047e-001
8.7908798e-001
9.2445850e-001
9.5322829e-001
9.5180428e-001
9.2521572e-001
9.0236211e-001
8.8396233e-001
8.7660164e-001
8.7498999e-001
8.7660319e-001
8.7926668e-001
9.2560941e-001
9.8584080e-001
1.0901955e+000
1.2046468e+000
1.2860548e+000
1.3572371e+000
1.3366847e+000
1.2993728e+000
1.2352530e+000
1.1748070e+000
1.1473159e+000
1.1265529e+000
1.1116135e+000
1.0957217e+000
1.0759268e+000
1.0484179e+000
1.0088551e+000
9.7318858e-001
9.4501305e-001
9.6161139e-001
1.0234369e+000
1.1045091e+000
1.1960350e+000
1.2407182e+000
1.2535701e+000
1.2504177e+000
1.2410728e+000
1.2793672e+000
1.3378747e+000
1.3781600e+000
1.4119244e+000
1.3751080e+000
1.3211029e+000
1.2545344e+000
1.1875484e+000
1.1377386e+000
1.0975300e+000
1.0912315e+000
1.0956012e+000
1.1149960e+000
1.1315939e+000
1.1338063e+000
1.1197357e+000
1.0795541e+000
1.0444690e+000
1.0237914e+000
1.0786604e+000
1.2202944e+000
1.3932319e+000
1.5811206e+000
1.6718560e+000
1.6847000e+000
1.6362714e+000
1.5571811e+000
1.5235274e+000
1.5161690e+000
1.5518650e+000
1.6038599e+000
1.6213080e+000
1.6258698e+000
1.5444027e+000
1.4391851e+000
1.3210678e+000
1.2114546e+000
1.1872250e+000
1.1954532e+000
1.2526639e+000
1.3156643e+000
1.3605635e+000
1.4122789e+000
1.4871050e+000
1.5975981e+000
1.7574807e+000
1.9172783e+000
2.0607224e+000
2.1361568e+000
2.1404214e+000
2.0774200e+000
1.9673311e+000
1.8749325e+000
1.8039247e+000
1.8025423e+000
1.8428214e+000
1.8632832e+000
1.8689411e+000
1.7784480e+000
1.6464343e+000
1.5181999e+000
1.3937403e+000
1.3224423e+000
1.2662624e+000
1.2026809e+000
1.1507500e+000
1.1720617e+000
1.2529831e+000
1.4556460e+000
1.6709905e+000
1.8195314e+000
1.8643146e+000
1.7434139e+000
1.5266743e+000
1.2363223e+000
9.4226551e-001
6.7199910e-001
4.9289012e-001
4.0372348e-001
4.5872059e-001
6.2092274e-001
8.4770393e-001
1.1059268e+000
1.3250954e+000
1.5162189e+000
1.6300707e+000
1.7034640e+000
1.7057418e+000
1.6760080e+000
1.6456434e+000
1.6164857e+000
1.6042080e+000
1.5917151e+000
1.5281570e+000
1.4422834e+000
1.3391850e+000
1.2503312e+000
1.2233899e+000
1.2186263e+000
1.2160076e+000
1.1599900e+000
1.0095559e+000
7.8911549e-001
5.1339877e-001
3.0664939e-001
2.0111586e-001
2.5405547e-001
4.3769497e-001
6.6937166e-001
9.1618353e-001
1.0781420e+000
1.1744959e+000
1.0804343e+000
8.6960208e-001
5.1893562e-001
9.9601254e-002
-9.9847555e-002
-1.7184268e-001
2.8130800e-002
3.4183112e-001
5.5640346e-001
6.9447327e-001
6.8886840e-001
6.1839604e-001
5.4048413e-001
4.9101314e-001
5.1398331e-001
5.8385456e-001
6.9084722e-001
7.8856301e-001
8.5195202e-001
8.4395766e-001
7.5416607e-001
6.3711709e-001
5.1858455e-001
4.5763651e-001
4.5705533e-001
3.7547225e-001
2.0782863e-001
-8.0724947e-002
-4.5014572e-001
-6.3685274e-001
-6.8733519e-001
-4.8937419e-001
-1.4932726e-001
1.6707979e-001
4.5055926e-001
5.7814693e-001
5.9478033e-001
4.6121079e-001
2.5215086e-001
6.3787676e-002
-4.9731847e-002
2.2429306e-002
1.7714074e-001
3.0481052e-001
3.4258720e-001
2.3557752e-001
6.5686800e-002
-2.5507811e-001
-6.2026846e-001
-9.1409475e-001
-1.1467057e+000
-1.3309799e+000
-1.5020871e+000
-1.6777679e+000
-1.8863297e+000
-2.1318805e+000
-2.3448477e+000
-2.5213449e+000
-2.4563801e+000
-2.2054667e+000
-1.7126580e+000
-1.0725348e+000
-6.0459340e-001
-2.8020200e-001
-1.3801683e-001
-1.0055133e-001
1.7287306e-002
2.8575599e-001
9.0879059e-001
1.7340627e+000
2.5356760e+000
3.1962261e+000
3.5790439e+000
3.8655286e+000
4.2426581e+000
5.0997643e+000
6.6668954e+000
9.3965483e+000
1.3344286e+001
1.7638939e+001
2.1828825e+001
2.5543211e+001
2.8773594e+001
3.2362442e+001
3.6433552e+001
4.1096828e+001
4.6216801e+001
5.0616337e+001
5.4356773e+001
5.8088043e+001
6.1906303e+001
6.6454781e+001
7.1542664e+001
7.6549149e+001
8.1391396e+001
8.5791847e+001
8.9750092e+001
9.3240524e+001
9.6297455e+001
9.8988617e+001
1.0127480e+002
1.0312787e+002
1.0410023e+002
1.0382393e+002
1.0253843e+002
1.0057107e+002
9.8088326e+001
9.5273102e+001
9.1909630e+001
8.7975662e+001
8.3866905e+001
7.9739983e+001
7.5582321e+001
7.1401260e+001
6.6853683e+001
6.1939587e+001
5.7155907e+001
5.2548935e+001
4.8400970e+001
4.4716766e+001
4.1494053e+001
3.8719292e+001
3.6266636e+001
3.4121017e+001
3.2178234e+001
3.0478100e+001
2.9062994e+001
2.7941544e+001
2.7081501e+001
2.6477722e+001
2.6084303e+001
2.5878557e+001
2.5812506e+001
2.5824322e+001
2.5860098e+001
2.5897720e+001
2.5927147e+001
2.6075502e+001
2.6392286e+001
2.6974209e+001
2.7834848e+001
2.8822128e+001
2.9896360e+001
3.0886843e+001
3.1772886e+001
3.2699200e+001
3.3747520e+001
3.5590706e+001
3.8308300e+001
4.1454388e+001
4.4805466e+001
4.7333935e+001
4.8991203e+001
5.0086071e+001
5.0628754e+001
5.0827694e+001
5.0748901e+001
5.0532467e+001
5.0147686e+001
4.9586216e+001
4.8767624e+001
4.7670967e+001
4.6275845e+001
4.4577850e+001
4.2628990e+001
4.0452061e+001
3.8367817e+001
3.6509846e+001
3.4871914e+001
3.3477360e+001
3.1849039e+001
2.9873543e+001
2.7428829e+001
2.4429699e+001
2.1680395e+001
1.9278114e+001
1.7286169e+001
1.5729310e+001
1.4090285e+001
1.2362636e+001
1.0593607e+001
8.8138371e+000
7.1107121e+000
5.5315814e+000
4.1292939e+000
2.9271526e+000
1.9315886e+000
1.1379728e+000
5.1050341e-001
1.7857823e-001
2.7076310e-001
6.7758387e-001
1.2842032e+000
1.8765236e+000
2.3364286e+000
2.6793175e+000
2.8905544e+000
3.1274710e+000
3.4403200e+000
3.8683374e+000
4.4454002e+000
4.9161739e+000
5.2049041e+000
5.3488250e+000
5.2908812e+000
5.1525307e+000
4.9056273e+000
4.5776100e+000
4.1570430e+000
3.6828189e+000
3.1833115e+000
2.7535191e+000
2.4043999e+000
2.1417770e+000
1.9685931e+000
1.8750085e+000
1.9062668e+000
2.1081591e+000
2.4630086e+000
2.9618151e+000
3.4710929e+000
3.8971367e+000
4.2311616e+000
4.4395657e+000
4.5888686e+000
4.6723471e+000
4.7094078e+000
4.6743631e+000
4.6497216e+000
4.6543479e+000
4.7456470e+000
4.9633346e+000
5.1700850e+000
5.3408651e+000
5.4128971e+000
5.3306708e+000
5.1111612e+000
4.7120337e+000
4.1939688e+000
3.5865908e+000
3.0375059e+000
2.5749917e+000
2.2319896e+000
1.9427285e+000
1.5871600e+000
1.1853349e+000
7.5639588e-001
3.8042381e-001
1.6442418e-001
4.2600125e-002
1.4500600e-002
8.8255042e-003
2.2911881e-003
-1.0167200e-002
-6.6160843e-002
-1.5717095e-001
-3.1068510e-001
-4.3895918e-001
-5.0879431e-001
-4.9564290e-001
-3.4829089e-001
-1.6610615e-001
6.5557733e-002
2.9108751e-001
5.0806808e-001
6.9262606e-001
8.4284830e-001
9.7831070e-001
1.1131901e+000
1.2879009e+000
1.4981430e+000
1.7323979e+000
1.9691600e+000
2.1797292e+000
2.3561690e+000
2.4766231e+000
2.5554726e+000
2.5793684e+000
2.5740001e+000
2.5325985e+000
2.4785638e+000
2.4108534e+000
2.3619561e+000
2.3665185e+000
2.4024553e+000
2.5069811e+000
2.6026731e+000
2.6739440e+000
2.7077973e+000
2.6739371e+000
2.6346190e+000
2.6026363e+000
2.6434307e+000
2.7989757e+000
3.0461166e+000
3.4001050e+000
3.7836900e+000
4.1950159e+000
4.6078343e+000
5.0219259e+000
5.4373097e+000
5.8469696e+000
6.2348909e+000
6.6058249e+000
6.9526162e+000
7.2883863e+000
7.6155815e+000
7.9342322e+000
8.2331161e+000
8.5068445e+000
8.7119923e+000
8.8501034e+000
8.7921143e+000
8.6381397e+000
8.2237043e+000
7.7592635e+000
7.1803055e+000
6.6119838e+000
6.0677285e+000
5.5497985e+000
5.0776749e+000
4.6275964e+000
4.2062426e+000
3.7839921e+000
3.3585401e+000
2.9239073e+000
2.4823914e+000
2.0461173e+000
1.6154857e+000
1.1920106e+000
7.7756786e-001
3.8383856e-001
1.1309624e-002
-3.1143045e-001
-5.9514499e-001
-7.8568447e-001
-9.1870046e-001
-9.0255392e-001
-8.2832801e-001
-6.0079902e-001
-3.5622829e-001
-8.2796991e-002
1.5877473e-001
2.9980522e-001
4.0330875e-001
4.1282719e-001
3.9046845e-001
3.0445582e-001
2.0205693e-001
7.7000909e-002
-3.1195387e-002
-1.1499210e-001
-1.8292141e-001
-2.2754177e-001
-2.3291549e-001
-1.9016933e-001
-6.5518744e-002
1.0222830e-001
3.2002056e-001
5.7670414e-001
8.4276414e-001
1.1082168e+000
1.3520566e+000
1.6004457e+000
1.9047512e+000
2.2315931e+000
2.6249161e+000
3.0165951e+000
3.3659871e+000
3.7013779e+000
3.9803972e+000
4.2457871e+000
4.4661365e+000
4.6637049e+000
4.8028135e+000
4.9130812e+000
4.9704666e+000
5.0425353e+000
5.1518002e+000
5.3724918e+000
5.7381964e+000
6.1808829e+000
6.6891060e+000
7.1378694e+000
7.5295196e+000
7.8357644e+000
8.0825329e+000
8.2637997e+000
8.4026518e+000
8.4474792e+000
8.4470654e+000
8.3434525e+000
8.2166147e+000
8.0874624e+000
7.9717159e+000
7.9568210e+000
7.9525371e+000
7.9836855e+000
8.0025120e+000
7.9652123e+000
7.8961573e+000
7.7218213e+000
7.4851456e+000
7.0983214e+000
6.6914887e+000
6.2583323e+000
5.9370785e+000
5.7835088e+000
5.7088099e+000
5.7131019e+000
5.6187077e+000
5.4320564e+000
5.1864247e+000
4.9077444e+000
4.7012210e+000
4.5296612e+000
4.3318329e+000
4.1049647e+000
3.6778114e+000
3.1846204e+000
2.5572600e+000
1.9166682e+000
1.3836176e+000
8.7558913e-001
5.5561447e-001
2.5220954e-001
5.1440403e-002
-1.3741925e-001
-2.7412212e-001
-4.0964800e-001
-5.4356837e-001
-7.0523328e-001
-9.3104589e-001
-1.1712486e+000
-1.4294319e+000
-1.5793686e+000
-1.5775241e+000
-1.4447087e+000
-1.1797389e+000
-9.5880431e-001
-7.7594769e-001
-6.4901787e-001
-5.5486560e-001
-4.4588551e-001
-3.3682603e-001
-3.6025077e-001
-4.3159539e-001
-6.0882956e-001
-8.0089182e-001
-8.1515586e-001
-8.0013484e-001
-5.9468794e-001
-3.7860733e-001
-1.2404571e-001
4.8346221e-003
1.4990577e-001
4.1853291e-001
6.3211501e-001
7.7753317e-001
7.2250301e-001
6.1753088e-001
4.0631819e-001
1.9531913e-001
-1.5476510e-002
-2.3486960e-001
-4.6212721e-001
-5.6098682e-001
-5.3684604e-001
-2.5050330e-001
2.2007728e-001
6.6630638e-001
1.0980971e+000
1.3167863e+000
1.4556950e+000
1.6928080e+000
1.9565452e+000
2.2700205e+000
2.5908670e+000
2.2881999e+000
