Image.
>Pix99999.
  .
5555
5555
2300
900
5555
2
1
0
701
5555
1.3435000e-001
1.3714601e-001
1.3994201e-001
1.4273800e-001
1.4552405e-001
1.4832000e-001
1.5111600e-001
1.5391201e-001
1.5670800e-001
1.5950400e-001
1.6230001e-001
1.6509600e-001
1.6789201e-001
1.7068799e-001
1.7347419e-001
1.7626999e-001
1.7906600e-001
1.8186201e-001
1.8465799e-001
1.8745400e-001
1.9024999e-001
1.9304600e-001
1.9584200e-001
1.9862832e-001
2.0142400e-001
2.0422000e-001
1.4447843e-001
5.4837000e-003
-1.4645760e-001
-2.5565434e-001
-3.5865745e-001
-3.7848568e-001
-3.9231190e-001
-4.0547007e-001
-4.1636541e-001
-4.1021147e-001
-3.8459954e-001
-2.7472532e-001
-1.5823893e-001
-3.5745300e-002
3.2977343e-002
-1.6503254e-002
-1.2062529e-001
-3.0245084e-001
-4.5065913e-001
-5.5096859e-001
-5.8202595e-001
-5.4914236e-001
-5.1105082e-001
-4.7212282e-001
-4.5965856e-001
-4.6256295e-001
-4.8615947e-001
-5.1843899e-001
-5.9439862e-001
-6.8433470e-001
-7.8555000e-001
-8.8912368e-001
-9.2184764e-001
-9.4340736e-001
-9.2000139e-001
-8.9650738e-001
-9.1912591e-001
-9.4402432e-001
-9.5730728e-001
-9.5021939e-001
-8.7329090e-001
-8.0520785e-001
-7.7752352e-001
-7.9298812e-001
-8.8225704e-001
-9.5973027e-001
-1.0090253e+000
-1.0209657e+000
-9.9407715e-001
-9.8821074e-001
-1.0045698e+000
-1.0493200e+000
-1.1123571e+000
-1.1568600e+000
-1.1901200e+000
-1.1818621e+000
-1.1561980e+000
-1.0745529e+000
-9.7537518e-001
-8.7709337e-001
-7.7950948e-001
-7.6214188e-001
-7.5900197e-001
-7.8230566e-001
-8.0972302e-001
-8.3849001e-001
-8.7450135e-001
-9.4056565e-001
-1.0014154e+000
-1.0332543e+000
-1.0361371e+000
-9.8508096e-001
-9.2754322e-001
-8.7275219e-001
-8.3056712e-001
-8.0488187e-001
-7.9983705e-001
-8.1369036e-001
-8.6111945e-001
-9.3307698e-001
-9.9904650e-001
-1.0586120e+000
-1.0597348e+000
-1.0311985e+000
-9.5236576e-001
-8.5431409e-001
-7.9685003e-001
-7.5347519e-001
-8.4859729e-001
-9.8013991e-001
-1.1939857e+000
-1.4155784e+000
-1.5387022e+000
-1.6134701e+000
-1.5282571e+000
-1.3982728e+000
-1.2254329e+000
-1.0737840e+000
-1.0029758e+000
-9.9237752e-001
-1.0704262e+000
-1.1835365e+000
-1.3196086e+000
-1.4577055e+000
-1.5880615e+000
-1.7062101e+000
-1.8148851e+000
-1.8651510e+000
-1.8737363e+000
-1.8079950e+000
-1.7011544e+000
-1.5866268e+000
-1.4725742e+000
-1.3929582e+000
-1.3257600e+000
-1.3153749e+000
-1.3204843e+000
-1.4151760e+000
-1.5325285e+000
-1.6632600e+000
-1.7851218e+000
-1.8311510e+000
-1.8476034e+000
-1.8338126e+000
-1.8185358e+000
-1.8308152e+000
-1.8537103e+000
-1.8714029e+000
-1.8824661e+000
-1.8661479e+000
-1.8608223e+000
-1.8802705e+000
-1.9211299e+000
-1.9872001e+000
-2.0087686e+000
-1.9883549e+000
-1.8815014e+000
-1.7183541e+000
-1.5837406e+000
-1.4731215e+000
-1.5459272e+000
-1.7087363e+000
-1.9335120e+000
-2.1786153e+000
-2.2950613e+000
-2.3590963e+000
-2.3189127e+000
-2.2400939e+000
-2.1680260e+000
-2.1221499e+000
-2.1931465e+000
-2.3304036e+000
-2.5184088e+000
-2.6865785e+000
-2.7493572e+000
-2.7371814e+000
-2.6570139e+000
-2.5324790e+000
-2.3881080e+000
-2.1525171e+000
-1.8169696e+000
-1.4154253e+000
-9.6019930e-001
-6.8340480e-001
-5.6017411e-001
-5.9333414e-001
-7.2131944e-001
-8.3742654e-001
-9.3994683e-001
-1.1611710e+000
-1.4454360e+000
-1.7917935e+000
-2.1581895e+000
-2.2960827e+000
-2.3269143e+000
-2.1786110e+000
-1.9756640e+000
-1.8467770e+000
-1.7904034e+000
-1.8923014e+000
-2.0777023e+000
-2.3310800e+000
-2.5794256e+000
-2.7739232e+000
-2.8401701e+000
-2.7366436e+000
-2.4551904e+000
-2.0092998e+000
-1.6422523e+000
-1.3988364e+000
-1.4528862e+000
-1.7484900e+000
-2.0828071e+000
-2.4097707e+000
-2.5803599e+000
-2.6473198e+000
-2.4985485e+000
-2.2333848e+000
-1.7904760e+000
-1.2716607e+000
-1.0193685e+000
-9.3649709e-001
-1.2829157e+000
-1.8117697e+000
-2.2817872e+000
-2.6448450e+000
-2.6926320e+000
-2.5442483e+000
-2.1665220e+000
-1.7901428e+000
-1.6068578e+000
-1.6377578e+000
-1.9599659e+000
-2.3383999e+000
-2.6580000e+000
-2.8006938e+000
-2.7375748e+000
-2.5669456e+000
-2.3392184e+000
-2.1033800e+000
-1.8730395e+000
-1.5792195e+000
-1.2421074e+000
-8.6791784e-001
-4.7692356e-001
-2.3110715e-001
-6.9361918e-002
-1.2800664e-001
-2.9352561e-001
-4.3302009e-001
-5.2649719e-001
-4.5658460e-001
-2.5837439e-001
1.1634000e-001
5.8315396e-001
1.0344216e+000
1.3257948e+000
1.2347660e+000
8.9795065e-001
4.6492493e-001
1.5374085e-001
1.1758596e-001
5.5954568e-002
-1.0742983e-001
-2.5329286e-001
-3.7620029e-001
-1.2519276e-001
5.4974473e-001
1.4750080e+000
2.5455644e+000
3.0729332e+000
3.0879893e+000
2.8382926e+000
2.4406414e+000
2.3720000e+000
2.5459414e+000
2.4975591e+000
2.2686992e+000
1.5591223e+000
6.0522598e-001
-5.4612517e-002
-3.5863361e-001
1.0983205e-001
1.2156035e+000
2.9075212e+000
4.6618242e+000
5.8478241e+000
6.6902452e+000
7.3541541e+000
8.3099661e+000
9.9115810e+000
1.2338029e+001
1.5648332e+001
1.9262693e+001
2.2916286e+001
2.5936420e+001
2.8137497e+001
3.0176464e+001
3.2237190e+001
3.5123829e+001
3.8834999e+001
4.3025341e+001
4.7560558e+001
5.1486374e+001
5.4878830e+001
5.8465485e+001
6.2244938e+001
6.6513680e+001
7.1090523e+001
7.5405502e+001
7.9507332e+001
8.3384651e+001
8.7061676e+001
9.0506523e+001
9.3736259e+001
9.6736450e+001
9.9353119e+001
1.0146097e+002
1.0226166e+002
1.0128250e+002
9.9073380e+001
9.6145531e+001
9.2949684e+001
8.9714539e+001
8.5948296e+001
8.1539612e+001
7.6870537e+001
7.2131691e+001
6.7793602e+001
6.3874947e+001
5.9945721e+001
5.5929230e+001
5.1835476e+001
4.7678284e+001
4.3555229e+001
3.9518471e+001
3.5826122e+001
3.2540161e+001
2.9779263e+001
2.7507849e+001
2.5546034e+001
2.3885715e+001
2.2466898e+001
2.1325535e+001
2.0464500e+001
1.9865215e+001
1.9474800e+001
1.9236343e+001
1.9084606e+001
1.9085215e+001
1.9254520e+001
1.9715000e+001
2.0491194e+001
2.1638794e+001
2.3164085e+001
2.4801632e+001
2.6498962e+001
2.7939310e+001
2.9071001e+001
3.0086714e+001
3.1007378e+001
3.2284550e+001
3.4029171e+001
3.6755154e+001
4.0341743e+001
4.3585651e+001
4.6359425e+001
4.8221195e+001
4.9407513e+001
5.0735107e+001
5.2245731e+001
5.4007870e+001
5.5444279e+001
5.5906525e+001
5.5306541e+001
5.3691292e+001
5.1792439e+001
5.0191998e+001
4.8951782e+001
4.8108948e+001
4.7391075e+001
4.6682323e+001
4.5415676e+001
4.3411892e+001
4.1052242e+001
3.8403366e+001
3.6011120e+001
3.3917385e+001
3.1464045e+001
2.8491865e+001
2.5351240e+001
2.2146515e+001
1.9484491e+001
1.7448589e+001
1.5532143e+001
1.3704474e+001
1.1844440e+001
9.9114237e+000
7.9111781e+000
5.8679838e+000
3.8488159e+000
2.0875769e+000
7.9774171e-001
7.7977873e-002
-5.5038780e-003
4.8095542e-001
1.4846040e+000
2.4254260e+000
3.0079401e+000
3.4228444e+000
3.6544967e+000
4.0218515e+000
4.6684132e+000
5.4362392e+000
6.3481197e+000
6.9176044e+000
6.9985094e+000
6.7767153e+000
6.1647034e+000
5.5003033e+000
4.7733073e+000
4.1543741e+000
3.6874435e+000
3.4449944e+000
3.4000299e+000
3.3683007e+000
3.2630880e+000
2.9498653e+000
2.5276999e+000
2.1686187e+000
1.9760623e+000
2.0580184e+000
2.3264604e+000
2.7177958e+000
3.0798743e+000
3.2724612e+000
3.4162188e+000
3.4985962e+000
3.6336286e+000
3.8793373e+000
4.1937423e+000
4.6388764e+000
5.1277280e+000
5.6867681e+000
6.1659212e+000
6.5061617e+000
6.6447492e+000
6.5130200e+000
6.2567706e+000
5.8311300e+000
5.3514485e+000
4.8174777e+000
4.3586044e+000
4.0006790e+000
3.7756858e+000
3.6288474e+000
3.4508538e+000
3.2194459e+000
2.8900235e+000
2.5208216e+000
2.1429217e+000
1.7408636e+000
1.3250046e+000
9.2000830e-001
5.7123744e-001
3.1476134e-001
1.6865876e-001
6.0317632e-002
-4.4341199e-002
-1.3996929e-001
-1.4247361e-001
-3.1438485e-002
2.8890735e-001
5.7639110e-001
7.8963315e-001
8.0729717e-001
5.7442021e-001
3.3588260e-001
1.2866586e-001
7.3145598e-002
2.1379721e-001
5.2763283e-001
1.0207021e+000
1.5898660e+000
2.1772301e+000
2.6197541e+000
2.9048972e+000
2.9829173e+000
2.9307468e+000
2.8110514e+000
2.6683202e+000
2.5489972e+000
2.4395795e+000
2.3567502e+000
2.2857857e+000
2.2500901e+000
2.2433431e+000
2.3056059e+000
2.3930359e+000
2.5282893e+000
2.6595199e+000
2.7844853e+000
2.9022453e+000
3.0122163e+000
3.1496115e+000
3.3299890e+000
3.5479400e+000
3.8122778e+000
4.0759211e+000
4.3451920e+000
4.6114593e+000
4.8909078e+000
5.1913080e+000
5.5114684e+000
5.8313169e+000
6.1524234e+000
6.4763002e+000
6.8155546e+000
7.1985216e+000
7.6078749e+000
8.0492315e+000
8.4850025e+000
8.8734837e+000
9.2158222e+000
9.4462099e+000
9.6208992e+000
9.6757603e+000
9.6777802e+000
9.5433044e+000
9.3557262e+000
9.0237703e+000
8.6586990e+000
8.2205877e+000
7.7851300e+000
7.3572459e+000
6.9313960e+000
6.5004740e+000
6.0354815e+000
5.5193558e+000
4.9683213e+000
4.3854818e+000
3.8180273e+000
3.2735310e+000
2.7733634e+000
2.3086071e+000
1.8666140e+000
1.4425446e+000
1.0398948e+000
6.6771030e-001
3.8476288e-001
1.5915683e-001
5.0264757e-002
-2.2555392e-002
-6.1385050e-002
-8.8219799e-002
-8.8249259e-002
-6.1976213e-002
6.4420648e-002
1.9194356e-001
3.2535306e-001
4.2660022e-001
4.5074862e-001
4.7369647e-001
4.9644828e-001
5.4507971e-001
6.3168383e-001
7.1203274e-001
7.7435780e-001
7.8750581e-001
7.3603499e-001
6.0485655e-001
4.0940759e-001
2.1456352e-001
4.9053598e-002
3.6702972e-002
1.2587027e-001
3.9793876e-001
7.4052131e-001
1.0824399e+000
1.4048250e+000
1.6213131e+000
1.8036240e+000
1.9056200e+000
2.0022366e+000
2.1113784e+000
2.2339015e+000
2.4137845e+000
2.6220207e+000
2.9226966e+000
3.2559700e+000
3.6668613e+000
4.0580473e+000
4.4070745e+000
4.7177176e+000
4.9738002e+000
5.2602229e+000
5.5884500e+000
5.9508572e+000
6.3409939e+000
6.6889315e+000
6.9981585e+000
7.2652321e+000
7.5006514e+000
7.6982517e+000
7.8662825e+000
7.9484439e+000
7.9943485e+000
7.9729128e+000
7.9374418e+000
7.9003949e+000
7.8754444e+000
7.9398236e+000
8.0195179e+000
8.1696873e+000
8.2900486e+000
8.2770023e+000
8.2134953e+000
7.9905820e+000
7.7810178e+000
7.6089110e+000
7.4928474e+000
7.4845910e+000
7.5035405e+000
7.5639262e+000
7.6320100e+000
7.7046204e+000
7.7429118e+000
7.7366834e+000
7.6032157e+000
7.3647232e+000
6.9481444e+000
6.4305906e+000
5.8179083e+000
5.1776567e+000
4.6223798e+000
4.1068854e+000
3.7802074e+000
3.4944022e+000
3.3149118e+000
3.1397822e+000
2.9143496e+000
2.6826739e+000
2.4122880e+000
2.1481473e+000
1.9120642e+000
1.6825820e+000
1.4770005e+000
1.2962079e+000
1.1739620e+000
1.0689185e+000
9.8844600e-001
8.5740530e-001
6.5765136e-001
4.6247020e-001
2.8242686e-001
2.6722842e-001
3.8891956e-001
6.1416733e-001
8.9448357e-001
1.0609500e+000
1.1680434e+000
1.1213167e+000
1.0224413e+000
8.4127009e-001
6.4223301e-001
4.1429260e-001
1.8584163e-001
2.1022767e-002
-1.2482083e-001
-4.1142214e-002
1.5733361e-002
4.7519633e-001
9.7644180e-001
1.6517129e+000
2.3060484e+000
2.8967452e+000
3.4246650e+000
3.8167360e+000
4.0977769e+000
4.2006707e+000
4.2587538e+000
4.2633519e+000
4.3699660e+000
4.5705557e+000
4.6876431e+000
4.7440796e+000
4.6092672e+000
4.3718772e+000
4.2701240e+000
4.2164640e+000
4.4075356e+000
4.6589947e+000
5.0306144e+000
5.4201097e+000
5.8464999e+000
