Image.
>Pix99999.
  .
5555
5555
2300
900
5555
2
1
0
701
5555
-1.1877000e-002
-1.2129638e-002
-1.2381280e-002
-1.2633916e-002
-1.2886555e-002
-1.3139193e-002
-1.3390840e-002
-1.3643470e-002
-1.3896109e-002
-1.4147760e-002
-1.4400385e-002
-1.4653024e-002
-1.4904680e-002
-1.5157302e-002
-1.5409940e-002
-1.5662577e-002
-1.5914241e-002
-1.6166855e-002
-1.6419495e-002
-1.6671160e-002
-1.6923770e-002
-1.7176410e-002
-1.7429048e-002
-1.7680721e-002
-1.7933326e-002
-1.8185964e-002
-6.7581428e-004
3.1378143e-002
6.7051083e-002
1.0589325e-001
1.4512572e-001
2.2018018e-001
2.9571444e-001
3.2408723e-001
3.4236011e-001
2.9770598e-001
2.5591582e-001
2.4155238e-001
2.5280491e-001
3.3745590e-001
4.3926972e-001
5.6952155e-001
6.7206842e-001
7.2666287e-001
7.5235015e-001
7.4565381e-001
7.7091366e-001
8.2899994e-001
8.9686221e-001
9.7045439e-001
9.6911216e-001
9.2432964e-001
8.3784115e-001
7.3431486e-001
6.7978495e-001
6.4154840e-001
6.4889640e-001
6.6649884e-001
6.9417357e-001
7.2350776e-001
7.7148485e-001
8.2217795e-001
8.8416672e-001
9.4517899e-001
9.9430782e-001
1.0347136e+000
1.0476383e+000
1.0409136e+000
9.9107486e-001
9.3931335e-001
8.9229900e-001
8.8233840e-001
9.2535913e-001
9.7096276e-001
1.0131695e+000
1.0100107e+000
9.6681064e-001
9.1202468e-001
8.5201591e-001
8.1271958e-001
7.8502887e-001
7.9077095e-001
8.1026572e-001
8.5373932e-001
9.0450960e-001
9.3393576e-001
9.5819265e-001
9.5701540e-001
9.4975048e-001
9.0373313e-001
8.4892768e-001
7.7020031e-001
6.9944698e-001
6.7974621e-001
6.7753130e-001
7.0546019e-001
7.2857535e-001
7.3106760e-001
7.3140281e-001
7.3312706e-001
7.6218283e-001
8.2656342e-001
9.2067170e-001
1.0402441e+000
1.1284726e+000
1.1882150e+000
1.1852292e+000
1.1435537e+000
1.1054468e+000
1.0716009e+000
1.0694343e+000
1.0802655e+000
1.0742201e+000
1.0622178e+000
1.0293095e+000
9.9105817e-001
9.5852345e-001
9.2698509e-001
8.9905190e-001
8.7865680e-001
8.9602655e-001
9.3359077e-001
1.0154010e+000
1.0911255e+000
1.1271045e+000
1.1230643e+000
1.0554180e+000
9.8058128e-001
9.1501540e-001
8.8951361e-001
9.1197485e-001
9.6312678e-001
1.0332325e+000
1.0815250e+000
1.1090057e+000
1.1123086e+000
1.1015257e+000
1.1322170e+000
1.1850995e+000
1.2605349e+000
1.3450600e+000
1.3495027e+000
1.3278860e+000
1.2304196e+000
1.1151778e+000
1.0221250e+000
9.4939935e-001
9.7605842e-001
1.0505525e+000
1.2177081e+000
1.4106500e+000
1.6074886e+000
1.7684114e+000
1.8510551e+000
1.8687440e+000
1.8129643e+000
1.7339292e+000
1.6466287e+000
1.5832400e+000
1.5461777e+000
1.5417000e+000
1.5604410e+000
1.6010005e+000
1.6533326e+000
1.6898137e+000
1.7151371e+000
1.6870580e+000
1.6335032e+000
1.5759960e+000
1.5187856e+000
1.4862229e+000
1.4628186e+000
1.4197875e+000
1.3749260e+000
1.3513505e+000
1.3406501e+000
1.3670206e+000
1.3890773e+000
1.3745825e+000
1.3419267e+000
1.2959057e+000
1.2636745e+000
1.2603780e+000
1.2637419e+000
1.2574234e+000
1.2348150e+000
1.1900780e+000
1.1416160e+000
1.0992771e+000
1.0667920e+000
1.0488914e+000
1.0398918e+000
1.0347068e+000
1.0239395e+000
1.0069994e+000
9.9680674e-001
9.9201041e-001
1.0154061e+000
1.0536858e+000
1.1157441e+000
1.1889714e+000
1.2754977e+000
1.3560821e+000
1.3717099e+000
1.3314748e+000
1.1695507e+000
9.5700204e-001
7.3066717e-001
5.4565412e-001
4.6294692e-001
4.8499402e-001
6.2299961e-001
8.3645475e-001
1.0988524e+000
1.2592632e+000
1.2872572e+000
1.1418126e+000
8.6615616e-001
6.3034618e-001
4.5550531e-001
3.8007829e-001
3.6497012e-001
3.4287035e-001
3.0300465e-001
2.1727440e-001
9.9790648e-002
6.8545081e-003
-7.3133878e-002
-3.5488222e-002
7.4547380e-002
2.9874027e-001
6.0007709e-001
9.9226868e-001
1.3833437e+000
1.6358491e+000
1.7062129e+000
1.4747137e+000
1.1115519e+000
7.3089695e-001
4.3045008e-001
2.6575285e-001
1.9215938e-001
1.7184694e-001
1.6529036e-001
1.5742765e-001
1.6812150e-001
2.0028162e-001
2.3386085e-001
2.5764680e-001
2.6426479e-001
2.5693929e-001
2.6682279e-001
2.9837719e-001
2.5590500e-001
1.7431526e-001
6.3704103e-002
-5.1989757e-002
-1.0776453e-001
-1.2073126e-001
-9.6617751e-002
-1.6247626e-002
2.1748140e-001
5.3066623e-001
8.8168573e-001
1.1108817e+000
1.0160108e+000
7.3934317e-001
3.7607992e-001
8.5151255e-002
-2.0762502e-001
-4.3473402e-001
-5.1333839e-001
-4.7339022e-001
-3.6072350e-001
-3.1604993e-001
-3.6230570e-001
-5.7071394e-001
-8.9615124e-001
-1.1001228e+000
-1.1846943e+000
-1.0450100e+000
-7.5693345e-001
-5.6454325e-001
-4.5159429e-001
-5.0654775e-001
-6.4111280e-001
-6.3187927e-001
-4.5549929e-001
9.3029708e-002
9.4702101e-001
2.0264513e+000
3.0621879e+000
3.7038977e+000
4.1216693e+000
4.4767079e+000
5.0575843e+000
6.0982342e+000
7.8195643e+000
1.0316061e+001
1.3579295e+001
1.7525143e+001
2.1440851e+001
2.5012060e+001
2.8252995e+001
3.1214216e+001
3.4711601e+001
3.8818130e+001
4.3500019e+001
4.8624519e+001
5.3075699e+001
5.6917957e+001
6.0776062e+001
6.4706963e+001
6.9151825e+001
7.3935837e+001
7.8460602e+001
8.2747139e+001
8.6761292e+001
9.0536247e+001
9.4098267e+001
9.7410172e+001
1.0039783e+002
1.0281940e+002
1.0442551e+002
1.0466383e+002
1.0321072e+002
1.0070323e+002
9.7729507e+001
9.4620049e+001
9.1564964e+001
8.8128242e+001
8.4180717e+001
7.9913612e+001
7.5447426e+001
7.1048531e+001
6.6758675e+001
6.2305080e+001
5.7663719e+001
5.3103924e+001
4.8653618e+001
4.4516399e+001
4.0714657e+001
3.7337463e+001
3.4394749e+001
3.1822897e+001
2.9599514e+001
2.7600990e+001
2.5870518e+001
2.4458063e+001
2.3386652e+001
2.2633999e+001
2.2146589e+001
2.1819693e+001
2.1617695e+001
2.1493492e+001
2.1498793e+001
2.1653183e+001
2.1989340e+001
2.2502554e+001
2.3244530e+001
2.4225687e+001
2.5397289e+001
2.6749619e+001
2.8112226e+001
2.9451521e+001
3.0777536e+001
3.2091167e+001
3.3596092e+001
3.5361736e+001
3.7778725e+001
4.0797085e+001
4.3649689e+001
4.6200359e+001
4.8001022e+001
4.9162434e+001
5.0242821e+001
5.1276958e+001
5.2372337e+001
5.3193039e+001
5.3326103e+001
5.2647514e+001
5.1126724e+001
4.9242928e+001
4.7455517e+001
4.5841492e+001
4.4457001e+001
4.3164452e+001
4.1899235e+001
4.0492218e+001
3.8899479e+001
3.7201756e+001
3.5406166e+001
3.3563641e+001
3.1636854e+001
2.9254679e+001
2.6284420e+001
2.3257309e+001
2.0256491e+001
1.7767481e+001
1.5867910e+001
1.4095000e+001
1.2443069e+001
1.0800786e+001
9.1344748e+000
7.3871431e+000
5.5770264e+000
3.7714760e+000
2.1515253e+000
9.3830216e-001
2.0782931e-001
3.6389947e-002
3.9516869e-001
1.1837685e+000
2.0394790e+000
2.7373452e+000
3.2857552e+000
3.6268096e+000
3.9716387e+000
4.4050012e+000
4.9608951e+000
5.6994400e+000
6.3199100e+000
6.7449307e+000
6.8867302e+000
6.6302886e+000
6.3030605e+000
5.8910871e+000
5.5593028e+000
5.3262091e+000
5.1503425e+000
4.9961071e+000
4.7538080e+000
4.3916831e+000
3.9344902e+000
3.4453900e+000
3.0467601e+000
2.8031173e+000
2.7797830e+000
2.9495685e+000
3.2898710e+000
3.6704571e+000
3.9623871e+000
4.1954455e+000
4.3428483e+000
4.5005183e+000
4.7204266e+000
4.9834847e+000
5.3193245e+000
5.6787558e+000
6.0710216e+000
6.4324212e+000
6.7374797e+000
6.9434462e+000
7.0045438e+000
6.9764504e+000
6.8128800e+000
6.5650764e+000
6.1983585e+000
5.7781730e+000
5.2948465e+000
4.8184257e+000
4.3457990e+000
3.9120121e+000
3.5193918e+000
3.1498902e+000
2.7960064e+000
2.4091415e+000
1.9821191e+000
1.5133308e+000
1.0466833e+000
6.3821614e-001
3.1490126e-001
1.2074916e-001
8.8646961e-003
1.7942786e-002
1.0342446e-001
2.5580639e-001
4.3879211e-001
6.6713524e-001
8.8541305e-001
1.0828571e+000
1.2124161e+000
1.2554392e+000
1.2876461e+000
1.3178303e+000
1.4018478e+000
1.5562227e+000
1.7780606e+000
2.0786567e+000
2.4403465e+000
2.8478000e+000
3.2282624e+000
3.5582874e+000
3.7678366e+000
3.8804784e+000
3.9076750e+000
3.8854206e+000
3.8471029e+000
3.8010187e+000
3.7620707e+000
3.7330859e+000
3.7347047e+000
3.7599788e+000
3.8345268e+000
3.9200759e+000
4.0187163e+000
4.1141706e+000
4.2041416e+000
4.2964721e+000
4.3956585e+000
4.4936914e+000
4.5853229e+000
4.6808128e+000
4.7836962e+000
4.9173703e+000
5.1049004e+000
5.3404222e+000
5.6418214e+000
5.9784999e+000
6.3494711e+000
6.7264571e+000
7.1109681e+000
7.5050178e+000
7.9165478e+000
8.3672953e+000
8.8372250e+000
9.3124943e+000
9.7664185e+000
1.0146948e+001
1.0479362e+001
1.0716671e+001
1.0904521e+001
1.0986280e+001
1.1006408e+001
1.0857820e+001
1.0648256e+001
1.0278346e+001
9.8833952e+000
9.4323568e+000
8.9825974e+000
8.5345116e+000
8.0777111e+000
7.6020613e+000
7.1022024e+000
6.5694575e+000
6.0290241e+000
5.4871039e+000
4.9728031e+000
4.4882722e+000
4.0289464e+000
3.5889857e+000
3.1572611e+000
2.7386291e+000
2.3555989e+000
2.0006225e+000
1.6977950e+000
1.4242675e+000
1.2014754e+000
1.0166284e+000
9.3728751e-001
8.9815402e-001
9.6228051e-001
1.0320183e+000
1.1018325e+000
1.1632411e+000
1.2010622e+000
1.2347944e+000
1.2555300e+000
1.2510737e+000
1.1908443e+000
1.0857753e+000
9.0661412e-001
7.0747489e-001
4.8806372e-001
3.0193740e-001
1.5871233e-001
6.3824698e-002
1.5249860e-002
-1.6791623e-003
7.1073174e-003
4.8489772e-002
1.2056856e-001
2.9165077e-001
5.2149522e-001
8.5983211e-001
1.2331650e+000
1.6331735e+000
2.0247965e+000
2.3483160e+000
2.6498904e+000
2.8677673e+000
3.0622542e+000
3.1625996e+000
3.2303793e+000
3.1971240e+000
3.1658700e+000
3.1458731e+000
3.1784112e+000
3.3170438e+000
3.5045452e+000
3.7703428e+000
4.0703545e+000
4.4143701e+000
4.7773066e+000
5.1543236e+000
5.5010576e+000
5.8069577e+000
5.9886751e+000
6.0690680e+000
5.9539099e+000
5.7453756e+000
5.4955106e+000
5.2608480e+000
5.2295275e+000
5.2682004e+000
5.4868097e+000
5.7167840e+000
5.8582973e+000
5.9511023e+000
5.7587752e+000
5.5421429e+000
5.2231503e+000
4.9436617e+000
4.7890649e+000
4.6433611e+000
4.5149179e+000
4.3449259e+000
4.1012769e+000
3.8751464e+000
3.6794813e+000
3.5327702e+000
3.4393995e+000
3.3338246e+000
3.2088327e+000
3.0019555e+000
2.7333629e+000
2.4085162e+000
2.0577109e+000
1.7372403e+000
1.4281977e+000
1.1128883e+000
7.9657304e-001
4.8796993e-001
1.9366828e-001
4.8418798e-002
-7.7668570e-002
-1.2377343e-001
-1.8058619e-001
-3.1471771e-001
-4.6235704e-001
-6.6842139e-001
-8.6460817e-001
-1.0271183e+000
-1.1488204e+000
-1.1761900e+000
-1.1844764e+000
-1.1614325e+000
-1.1485859e+000
-1.1468580e+000
-1.0928602e+000
-9.8013604e-001
-7.8721702e-001
-5.2966768e-001
-2.5709048e-001
2.0481035e-002
2.3143150e-001
4.0744191e-001
4.8884737e-001
5.3877079e-001
5.5728024e-001
5.6763196e-001
5.3694725e-001
4.9739802e-001
3.6065960e-001
2.2119465e-001
9.8173931e-002
6.0322322e-004
1.9937605e-002
9.6706465e-002
3.4411478e-001
5.9303570e-001
8.4594566e-001
1.0996751e+000
1.3555465e+000
1.6337795e+000
1.9473987e+000
2.2595060e+000
2.5696006e+000
2.8924479e+000
3.2263842e+000
3.5044212e+000
3.7428541e+000
3.9253407e+000
4.0793090e+000
4.4203238e+000
4.8310399e+000
5.2700458e+000
5.7133293e+000
5.7899489e+000
5.8069468e+000
5.6999998e+000
