Image.
>Pix99999.
  .
5555
5555
2300
900
5555
2
1
0
701
5555
4.4465002e-002
4.5390677e-002
4.6315353e-002
4.7240034e-002
4.8165701e-002
4.9090385e-002
5.0015062e-002
5.0940730e-002
5.1865418e-002
5.2790094e-002
5.3715758e-002
5.4642417e-002
5.5565160e-002
5.6483917e-002
5.7415340e-002
5.8364622e-002
5.9266385e-002
6.0100745e-002
6.1113797e-002
6.2374555e-002
6.2975340e-002
6.2648617e-002
6.4775638e-002
7.0362553e-002
6.6830069e-002
4.3339144e-002
1.1227360e-002
-1.2753282e-002
-1.5095480e-002
1.4509909e-002
7.7379353e-002
1.7042620e-001
2.8309318e-001
4.0130839e-001
5.0530630e-001
5.7316303e-001
5.8078599e-001
5.0934023e-001
3.6392733e-001
1.6330792e-001
-4.7065455e-002
-2.1885259e-001
-3.2388979e-001
-3.4960431e-001
-3.2149184e-001
-2.7570051e-001
-2.4504448e-001
-2.5463012e-001
-3.0314913e-001
-3.7835369e-001
-4.5668000e-001
-5.1532257e-001
-5.4840928e-001
-5.5960310e-001
-5.6956780e-001
-5.9951240e-001
-6.5140402e-001
-7.1800667e-001
-7.8020942e-001
-8.2028282e-001
-8.4130114e-001
-8.5229027e-001
-8.5861212e-001
-8.6318040e-001
-8.6448854e-001
-8.6075187e-001
-8.5485327e-001
-8.4809470e-001
-8.2855225e-001
-7.8343171e-001
-7.1455002e-001
-6.3308120e-001
-5.6755996e-001
-5.4759216e-001
-5.8321440e-001
-6.7193145e-001
-7.8819239e-001
-8.9998120e-001
-9.8082435e-001
-1.0129126e+000
-1.0047400e+000
-9.7653264e-001
-9.5667064e-001
-9.7286898e-001
-1.0380487e+000
-1.1547521e+000
-1.3051308e+000
-1.4618499e+000
-1.5885874e+000
-1.6527927e+000
-1.6509243e+000
-1.5945290e+000
-1.5138612e+000
-1.4389049e+000
-1.3730017e+000
-1.3090721e+000
-1.2387056e+000
-1.1586936e+000
-1.0856520e+000
-1.0403986e+000
-1.0284286e+000
-1.0470815e+000
-1.0834608e+000
-1.1244082e+000
-1.1698360e+000
-1.2256600e+000
-1.3000643e+000
-1.3974462e+000
-1.5018692e+000
-1.5904553e+000
-1.6440886e+000
-1.6505903e+000
-1.6200761e+000
-1.5725391e+000
-1.5322701e+000
-1.5222393e+000
-1.5542874e+000
-1.6307600e+000
-1.7331808e+000
-1.8372540e+000
-1.9297199e+000
-2.0049198e+000
-2.0689244e+000
-2.1304111e+000
-2.1882675e+000
-2.2381570e+000
-2.2814860e+000
-2.3222523e+000
-2.3657176e+000
-2.4175224e+000
-2.4829342e+000
-2.5657494e+000
-2.6631238e+000
-2.7652681e+000
-2.8442299e+000
-2.8677435e+000
-2.8176286e+000
-2.6884589e+000
-2.5009737e+000
-2.2887914e+000
-2.0915000e+000
-1.9474885e+000
-1.8819197e+000
-1.9066136e+000
-2.0027919e+000
-2.1377478e+000
-2.2795620e+000
-2.3995759e+000
-2.4801407e+000
-2.5104918e+000
-2.4885144e+000
-2.4205394e+000
-2.3325601e+000
-2.2567716e+000
-2.2113822e+000
-2.2044013e+000
-2.2313783e+000
-2.2839913e+000
-2.3607237e+000
-2.4589043e+000
-2.5565884e+000
-2.6236451e+000
-2.6369462e+000
-2.5845041e+000
-2.4849839e+000
-2.3705137e+000
-2.2674246e+000
-2.1941788e+000
-2.1531401e+000
-2.1382730e+000
-2.1404157e+000
-2.1491303e+000
-2.1522541e+000
-2.1409059e+000
-2.1225975e+000
-2.1125500e+000
-2.1223280e+000
-2.1564591e+000
-2.1993623e+000
-2.2288094e+000
-2.2368829e+000
-2.2268233e+000
-2.2118521e+000
-2.2053888e+000
-2.2008142e+000
-2.1808865e+000
-2.1302164e+000
-2.0465107e+000
-1.9752811e+000
-1.9762310e+000
-2.0583072e+000
-2.1912541e+000
-2.3046954e+000
-2.3258193e+000
-2.2574923e+000
-2.1460893e+000
-2.0372720e+000
-1.9609773e+000
-1.8959857e+000
-1.7991577e+000
-1.6548572e+000
-1.4717335e+000
-1.2850126e+000
-1.1427660e+000
-1.0885440e+000
-1.1522678e+000
-1.3208669e+000
-1.5525769e+000
-1.7879303e+000
-1.9665841e+000
-2.0594602e+000
-2.0590811e+000
-1.9678583e+000
-1.7993273e+000
-1.5984854e+000
-1.4264750e+000
-1.3362685e+000
-1.3603110e+000
-1.4690832e+000
-1.6005089e+000
-1.7104028e+000
-1.7743720e+000
-1.7915169e+000
-1.7748510e+000
-1.7406920e+000
-1.7043428e+000
-1.6735337e+000
-1.6476098e+000
-1.6111451e+000
-1.5413510e+000
-1.4200329e+000
-1.2379900e+000
-1.0070997e+000
-7.5882411e-001
-5.5456966e-001
-4.6448192e-001
-5.1871634e-001
-7.0908731e-001
-9.7945505e-001
-1.2508067e+000
-1.4665400e+000
-1.5961010e+000
-1.6449758e+000
-1.6356034e+000
-1.5688440e+000
-1.4350750e+000
-1.2528043e+000
-1.0643786e+000
-9.2525613e-001
-8.7867725e-001
-8.8384140e-001
-8.5410607e-001
-7.5633121e-001
-6.0585421e-001
-4.4106114e-001
-3.0268323e-001
-1.9463423e-001
-9.9937670e-002
-2.8221609e-002
-1.1047430e-003
4.8767342e-003
4.3219149e-002
1.4775227e-001
3.1693059e-001
4.7082704e-001
5.0008309e-001
4.0465719e-001
2.5751027e-001
7.5866967e-002
-1.5778294e-001
-3.8400686e-001
-4.9657270e-001
-4.6233606e-001
-3.2154760e-001
-1.6780145e-001
-1.1040714e-001
-1.8927898e-001
-3.6948562e-001
-5.2683860e-001
-5.0579494e-001
-2.7784401e-001
6.5262541e-002
3.5428497e-001
4.1086364e-001
2.1802600e-001
-9.8484427e-002
-3.4923720e-001
-3.2559851e-001
1.3076472e-001
1.0821247e+000
2.3428943e+000
3.5730457e+000
4.5798793e+000
5.3544016e+000
6.0774860e+000
7.0481429e+000
8.5205402e+000
1.0671929e+001
1.3575518e+001
1.7167957e+001
2.1086142e+001
2.4793110e+001
2.8011440e+001
3.0780842e+001
3.3482384e+001
3.6694214e+001
4.0803688e+001
4.5877926e+001
5.1386597e+001
5.6481358e+001
6.0992645e+001
6.5384819e+001
7.0082108e+001
7.5257408e+001
8.0551147e+001
8.5246201e+001
8.8962891e+001
9.1713676e+001
9.3673523e+001
9.5079323e+001
9.6100288e+001
9.6810944e+001
9.7172653e+001
9.7061111e+001
9.6341743e+001
9.4936607e+001
9.3018013e+001
9.0932266e+001
8.8809242e+001
8.6533363e+001
8.3911972e+001
8.0765846e+001
7.7123734e+001
7.3182312e+001
6.9016464e+001
6.4560478e+001
5.9776558e+001
5.4711651e+001
4.9569851e+001
4.4668377e+001
4.0216286e+001
3.6285275e+001
3.2892159e+001
3.0020741e+001
2.7622770e+001
2.5627522e+001
2.3973934e+001
2.2616762e+001
2.1529766e+001
2.0702499e+001
2.0122002e+001
1.9770845e+001
1.9629616e+001
1.9682861e+001
1.9933966e+001
2.0398870e+001
2.1081211e+001
2.1978409e+001
2.3136938e+001
2.4653757e+001
2.6607143e+001
2.9018873e+001
3.1782871e+001
3.4685291e+001
3.7566521e+001
4.0353542e+001
4.3008938e+001
4.5540722e+001
4.8101231e+001
5.0910370e+001
5.3810715e+001
5.6260441e+001
5.7880299e+001
5.8604523e+001
5.8642803e+001
5.8384144e+001
5.7963818e+001
5.7189651e+001
5.5814800e+001
5.3670841e+001
5.0928116e+001
4.8090168e+001
4.5527523e+001
4.3356739e+001
4.1535858e+001
3.9899700e+001
3.8262222e+001
3.6457306e+001
3.4402767e+001
3.2131153e+001
2.9799742e+001
2.7646116e+001
2.5723520e+001
2.3847311e+001
2.1792046e+001
1.9389893e+001
1.6729126e+001
1.4162441e+001
1.1932377e+001
1.0066298e+001
8.4810286e+000
7.0284514e+000
5.6235037e+000
4.2742734e+000
2.9989247e+000
1.8121650e+000
7.7250004e-001
-1.1062473e-002
-4.4789064e-001
-4.8098600e-001
-4.3403298e-002
9.2330527e-001
2.3190296e+000
3.8607781e+000
5.3218460e+000
6.6140881e+000
7.7593179e+000
8.8781395e+000
1.0082089e+001
1.1417022e+001
1.2775200e+001
1.3882380e+001
1.4529440e+001
1.4657606e+001
1.4333845e+001
1.3742679e+001
1.3039125e+001
1.2302180e+001
1.1563292e+001
1.0810900e+001
1.0007556e+001
9.1009483e+000
8.0985699e+000
7.0898318e+000
6.1802139e+000
5.4649506e+000
4.9967790e+000
4.7690883e+000
4.7462649e+000
4.8702140e+000
5.0804229e+000
5.3252850e+000
5.5847521e+000
5.8798738e+000
6.2334423e+000
6.6531544e+000
7.1195741e+000
7.5775938e+000
7.9583445e+000
8.1892900e+000
8.2250004e+000
8.0665932e+000
7.7551570e+000
7.3716688e+000
6.9821382e+000
6.6155548e+000
6.2825365e+000
5.9774299e+000
5.6835771e+000
5.3723001e+000
5.0040917e+000
4.5327926e+000
3.9417000e+000
3.2622271e+000
2.5391800e+000
1.8199043e+000
1.1408968e+000
5.2434230e-001
7.1237683e-003
-3.5030779e-001
-5.0782526e-001
-4.6590051e-001
-2.3618206e-001
1.6480523e-001
7.1063817e-001
1.3615822e+000
2.0795641e+000
2.8292339e+000
3.5479648e+000
4.1319718e+000
4.4879403e+000
4.5635228e+000
4.3670197e+000
3.9893560e+000
3.5318937e+000
3.0789893e+000
2.6929626e+000
2.4029567e+000
2.2153337e+000
2.1097114e+000
2.0548501e+000
2.0120757e+000
1.9477115e+000
1.8409058e+000
1.6853454e+000
1.4944664e+000
1.2888777e+000
1.0940734e+000
9.3965966e-001
8.6082476e-001
8.9271283e-001
1.0658759e+000
1.3935922e+000
1.8584043e+000
2.4224401e+000
3.0247908e+000
3.6040823e+000
4.1099052e+000
4.5091405e+000
4.7968364e+000
4.9839516e+000
5.0990996e+000
5.1747956e+000
5.2431645e+000
5.3326683e+000
5.4658689e+000
5.6681342e+000
5.9713211e+000
6.4043941e+000
6.9862967e+000
7.7202029e+000
8.5838823e+000
9.5493011e+000
1.0587832e+001
1.1669565e+001
1.2758500e+001
1.3813566e+001
1.4786968e+001
1.5635092e+001
1.6326578e+001
1.6828329e+001
1.7103590e+001
1.7101521e+001
1.6758030e+001
1.6036095e+001
1.4968279e+001
1.3635646e+001
1.2179097e+001
1.0741534e+001
9.4303999e+000
8.3272114e+000
7.4707894e+000
6.8855209e+000
6.5826116e+000
6.5438466e+000
6.6941109e+000
6.9240861e+000
7.0861487e+000
7.0592513e+000
6.8012934e+000
6.3237286e+000
5.7103949e+000
5.0522928e+000
4.4168873e+000
3.8464599e+000
3.3407173e+000
2.8863835e+000
2.4654136e+000
2.0728655e+000
1.7342259e+000
1.4797801e+000
1.3330934e+000
1.3000026e+000
1.3520626e+000
1.4537337e+000
1.5719072e+000
1.6753020e+000
1.7350630e+000
1.7282509e+000
1.6446273e+000
1.4896615e+000
1.2963586e+000
1.0967520e+000
9.0407622e-001
7.1941876e-001
5.2760643e-001
3.2700211e-001
1.5493816e-001
4.6297941e-002
7.1647679e-003
2.5168456e-002
6.1734270e-002
8.2389913e-002
7.8927658e-002
6.3521795e-002
7.9718471e-002
1.5639046e-001
2.6907274e-001
3.8304842e-001
4.7144815e-001
5.2542138e-001
5.7490849e-001
6.5079910e-001
7.6295209e-001
9.1214126e-001
1.0890900e+000
1.2824697e+000
1.4816196e+000
1.6787124e+000
1.8725183e+000
2.0664284e+000
2.2722032e+000
2.5066199e+000
2.7944908e+000
3.1575394e+000
3.6026416e+000
4.1130662e+000
4.6192379e+000
5.0344868e+000
5.2635570e+000
5.2429628e+000
5.0022044e+000
4.6163573e+000
4.2199683e+000
3.9340010e+000
3.8013864e+000
3.8186600e+000
3.9082243e+000
3.9837573e+000
3.9862270e+000
3.8836143e+000
3.7016053e+000
3.4834225e+000
3.2813001e+000
3.1396029e+000
3.0724821e+000
3.0804484e+000
3.1450739e+000
3.2424309e+000
3.3462720e+000
3.4375300e+000
3.5193181e+000
3.5966029e+000
3.6632454e+000
3.7028291e+000
3.6785879e+000
3.5626204e+000
3.3702550e+000
3.1280527e+000
2.8652909e+000
2.6095200e+000
2.3801665e+000
2.1915040e+000
2.0458565e+000
1.9256560e+000
1.7608693e+000
1.4930614e+000
1.1392605e+000
7.3940009e-001
3.4635812e-001
-1.7789900e-003
-3.2208410e-001
-6.2603688e-001
-8.6460263e-001
-9.8392558e-001
-9.6382713e-001
-8.1502914e-001
-6.2053847e-001
-4.5975763e-001
-3.4174231e-001
-2.5370628e-001
-1.6872089e-001
-6.9718480e-002
1.5868846e-002
5.5850334e-002
3.9245546e-002
-3.2449439e-002
-1.3310310e-001
-2.2970246e-001
-2.8700146e-001
-2.8149286e-001
-2.3219253e-001
-1.6779920e-001
-1.1344057e-001
-7.9111844e-002
-2.4483144e-002
1.0133460e-001
3.4157971e-001
7.0907462e-001
1.1146380e+000
1.4669914e+000
1.7592323e+000
2.0147431e+000
2.2897625e+000
2.6258075e+000
2.9790771e+000
3.2884440e+000
3.5081594e+000
3.6120892e+000
3.6340213e+000
3.6090229e+000
3.5186720e+000
3.3450549e+000
3.1227610e+000
2.9100966e+000
2.8061900e+000
2.8894897e+000
3.1151981e+000
3.4178078e+000
3.7700498e+000
4.1543999e+000
