##TITLE=Methyl Ethyl Ketone
##JCAMP-DX=4.24
##DATA TYPE=INFRARED SPECTRUM
##XUNITS=cm-1
##YUNITS=Absorbance
##FIRSTX=900
##LASTX=2300
##XYDATA=(X++(Y..Y))
2296 0.18556
2294 0.18942447
2292 0.19327897
2290 0.19714342
2288 0.20099795
2286 0.20486236
2284 0.20872682
2282 0.21258141
2280 0.21644577
2278 0.22030036
2276 0.22416471
2274 0.22802919
2272 0.23188382
2270 0.23571868
2268 0.23960221
2266 0.24356493
2264 0.24732405
2262 0.25082502
2260 0.25504097
2258 0.26023805
2256 0.26280856
2254 0.26167721
2252 0.2703281
2250 0.29276726
2248 0.27886048
2246 0.18727286
2244 0.072456025
2242 -0.00036526425
2240 -0.030755293
2238 -0.038798172
2236 -0.052674029
2234 -0.090656161
2232 -0.1224499
2230 -0.1164196
2228 -0.091959827
2226 -0.079480097
2224 -0.093416318
2222 -0.1364049
2220 -0.18294378
2218 -0.20520613
2216 -0.19927029
2214 -0.17206576
2212 -0.1451422
2210 -0.13907178
2208 -0.15285589
2206 -0.17621036
2204 -0.18790568
2202 -0.17051324
2200 -0.13505451
2198 -0.1037937
2196 -0.10865
2194 -0.17524892
2192 -0.29188675
2190 -0.43167189
2188 -0.55389887
2186 -0.62369335
2184 -0.64690036
2182 -0.64345461
2180 -0.6372962
2178 -0.64481086
2176 -0.6474151
2174 -0.62233126
2172 -0.57622612
2170 -0.52756292
2168 -0.5025
2166 -0.51911622
2164 -0.55282962
2162 -0.57118732
2160 -0.56791365
2158 -0.55082172
2156 -0.547759
2154 -0.58352691
2152 -0.64368731
2150 -0.69980526
2148 -0.72213429
2146 -0.69003642
2144 -0.62063503
2142 -0.54382956
2140 -0.48785251
2138 -0.4727979
2136 -0.48923916
2134 -0.51842767
2132 -0.54613149
2130 -0.56234109
2128 -0.56635159
2126 -0.56023765
2124 -0.54395616
2122 -0.52053767
2120 -0.50940663
2118 -0.53205156
2116 -0.59350491
2114 -0.68685019
2112 -0.78193003
2110 -0.84679276
2108 -0.87713808
2106 -0.88096303
2104 -0.87274516
2102 -0.86349624
2100 -0.8414166
2098 -0.79055101
2096 -0.71455288
2094 -0.62909371
2092 -0.56700873
2090 -0.55959046
2088 -0.6052959
2086 -0.68713051
2084 -0.77842522
2082 -0.85462111
2080 -0.91370052
2078 -0.96197635
2076 -1.0025039
2074 -1.035205
2072 -1.053472
2070 -1.0503815
2068 -1.0266972
2066 -0.98812765
2064 -0.94802189
2062 -0.92066014
2060 -0.91272533
2058 -0.9247005
2056 -0.94478458
2054 -0.95776325
2052 -0.95493913
2050 -0.93291897
2048 -0.8981424
2046 -0.86209786
2044 -0.84062481
2042 -0.84884548
2040 -0.89209372
2038 -0.96657133
2036 -1.0483232
2034 -1.1081445
2032 -1.130896
2030 -1.1152511
2028 -1.0890685
2026 -1.0864022
2024 -1.1143137
2022 -1.1614361
2020 -1.1935391
2018 -1.1772012
2016 -1.1226799
2014 -1.0602497
2012 -1.0182651
2010 -1.0167679
2008 -1.0484035
2006 -1.0950501
2004 -1.1448506
2002 -1.188401
2000 -1.2106845
1998 -1.1976125
1996 -1.1520071
1994 -1.0880176
1992 -1.0326349
1990 -1.012548
1988 -1.028898
1986 -1.0700142
1984 -1.122088
1982 -1.1721876
1980 -1.2104548
1978 -1.2262832
1976 -1.19836
1974 -1.107934
1972 -0.96818364
1970 -0.81417769
1968 -0.70543623
1966 -0.69943517
1964 -0.79766643
1962 -0.96755236
1960 -1.153288
1958 -1.2992693
1956 -1.3910872
1954 -1.4364989
1952 -1.4454526
1950 -1.4273056
1948 -1.3925203
1946 -1.352475
1944 -1.3220137
1942 -1.3128091
1940 -1.3160268
1938 -1.3139763
1936 -1.2966057
1934 -1.2626774
1932 -1.2274181
1930 -1.2098587
1928 -1.2091589
1926 -1.2096322
1924 -1.1790271
1922 -1.0888513
1920 -0.95969915
1918 -0.83583939
1916 -0.74549544
1914 -0.69954342
1912 -0.68130779
1910 -0.67004496
1908 -0.68913883
1906 -0.77650267
1904 -0.9212988
1902 -1.0759457
1900 -1.160766
1898 -1.1023363
1896 -0.92280716
1894 -0.70278943
1892 -0.53732693
1890 -0.50747436
1888 -0.61864293
1886 -0.8262955
1884 -1.0583285
1882 -1.2399082
1880 -1.3368812
1878 -1.3432103
1876 -1.2687501
1874 -1.1296846
1872 -0.93871641
1870 -0.71520561
1868 -0.51846021
1866 -0.42234865
1864 -0.45901978
1862 -0.62208998
1860 -0.85580611
1858 -1.0870919
1856 -1.28574
1854 -1.4493272
1852 -1.570256
1850 -1.6360271
1848 -1.639984
1846 -1.5867572
1844 -1.5124694
1842 -1.4649932
1840 -1.4584503
1838 -1.4774888
1836 -1.4774414
1834 -1.402916
1832 -1.2217828
1830 -0.93454677
1828 -0.61274385
1826 -0.36572891
1824 -0.27678022
1822 -0.38724363
1820 -0.64749455
1818 -0.95387322
1816 -1.2136343
1814 -1.363309
1812 -1.4101031
1810 -1.4027387
1808 -1.3759663
1806 -1.34307
1804 -1.2864134
1802 -1.1717294
1800 -0.97586811
1798 -0.6933189
1796 -0.3548457
1794 -0.021001257
1792 0.21852288
1790 0.28303769
1788 0.210035
1786 0.11321685
1784 0.074893437
1782 0.13605109
1780 0.29526889
1778 0.52629548
1776 0.80570519
1774 1.1030703
1772 1.3317711
1770 1.3818853
1768 1.2202897
1766 0.89089739
1764 0.51778698
1762 0.24265441
1760 0.060885772
1758 -0.11765069
1756 -0.26185802
1754 -0.24962911
1752 -0.013519876
1750 0.43423739
1748 0.96195495
1746 1.3733572
1744 1.5445714
1742 1.4506118
1740 1.2247808
1738 1.0786437
1736 1.0825599
1734 1.1677346
1732 1.1823257
1730 0.96519655
1728 0.52356917
1726 0.011326209
1724 -0.36136177
1722 -0.37342381
1720 0.13725662
1718 1.2206876
1716 2.6310072
1714 3.9428496
1712 4.9335723
1710 5.6193748
1708 6.2363582
1706 7.1491265
1704 8.6484165
1702 10.902645
1700 13.884489
1698 17.385115
1696 21.02043
1694 24.349821
1692 27.221752
1690 29.793186
1688 32.481022
1686 35.823479
1684 40.108936
1682 45.279263
1680 50.739082
1678 55.641598
1676 59.876728
1674 63.992222
1672 68.437309
1670 73.356895
1668 78.373886
1666 82.782898
1664 86.250206
1662 88.851334
1660 90.779884
1658 92.247116
1656 93.388283
1654 94.247406
1652 94.780022
1650 94.872139
1648 94.370766
1646 93.155075
1644 91.382401
1642 89.417542
1640 87.432739
1638 85.358032
1636 82.979004
1634 80.036354
1632 76.49691
1630 72.541656
1628 68.320457
1626 63.907093
1624 59.33548
1622 54.629414
1620 49.882778
1618 45.250565
1616 40.864315
1614 36.822395
1612 33.224602
1610 30.161631
1608 27.626795
1606 25.521257
1604 23.74464
1602 22.22547
1600 20.953737
1598 19.970316
1596 19.305
1594 18.957273
1592 18.880388
1590 18.993195
1588 19.246666
1586 19.637194
1584 20.197327
1582 20.99509
1580 22.141413
1578 23.771393
1576 25.942028
1574 28.599617
1572 31.560266
1570 34.54707
1568 37.387001
1566 40.044537
1564 42.527622
1562 44.898548
1560 47.412365
1558 50.413925
1556 53.727772
1554 56.640362
1552 58.627182
1550 59.562981
1548 59.715702
1546 59.625038
1544 59.506927
1542 59.138527
1540 58.174843
1538 56.317677
1536 53.681515
1534 50.808784
1532 48.154182
1530 45.937813
1528 44.171513
1526 42.6731
1524 41.187641
1522 39.446602
1520 37.303982
1518 34.790981
1516 32.130283
1514 29.674435
1512 27.52516
1510 25.457861
1508 23.217049
1506 20.643486
1504 17.852001
1502 15.224381
1500 12.989397
1498 11.11285
1496 9.4811716
1494 7.9642315
1492 6.5062075
1490 5.1384072
1488 3.8605585
1486 2.6261978
1484 1.4595726
1482 0.48372155
1480 -0.16875976
1478 -0.38004744
1476 -0.037630975
1474 0.92834473
1472 2.3716805
1470 3.912709
1468 5.2890625
1466 6.4675307
1464 7.5333238
1462 8.6483765
1460 9.9190483
1458 11.332508
1456 12.716
1454 13.749783
1452 14.239161
1450 14.203789
1448 13.760783
1446 13.087536
1444 12.340037
1442 11.62014
1440 10.98052
1438 10.414266
1436 9.8528328
1434 9.1761227
1432 8.3347597
1430 7.3973484
1428 6.4917641
1426 5.7784042
1424 5.3478022
1422 5.1775165
1420 5.1870966
1418 5.2583222
1416 5.3140712
1414 5.3523679
1412 5.4188285
1410 5.5950618
1408 5.9235706
1406 6.3774443
1404 6.9043369
1402 7.4367251
1400 7.9023519
1398 8.2295151
1396 8.359314
1394 8.2596264
1392 7.9496965
1390 7.5120702
1388 7.0230832
1386 6.5267
1384 6.0459504
1382 5.5840859
1380 5.1448236
1378 4.7349186
1376 4.339057
1374 3.9104457
1372 3.4123621
1370 2.8384101
1368 2.2132492
1366 1.5954685
1364 1.0312271
1362 0.53626186
1360 0.1220677
1358 -0.1942129
1356 -0.38293299
1354 -0.39998108
1352 -0.2163648
1350 0.16473714
1348 0.71469319
1346 1.3778286
1344 2.1047759
1342 2.8626294
1340 3.6023946
1338 4.2412553
1336 4.6781602
1334 4.8075008
1332 4.6007824
1330 4.156951
1328 3.6013787
1326 3.0522094
1324 2.6044948
1322 2.3122106
1320 2.1880708
1318 2.1881704
1316 2.23773
1314 2.2376845
1312 2.1207938
1310 1.8868593
1308 1.5735557
1306 1.2543257
1304 0.99170744
1302 0.81401902
1300 0.73238873
1298 0.74353117
1296 0.85032856
1294 1.0713805
1292 1.423412
1290 1.9098723
1288 2.5082479
1286 3.1560585
1284 3.7850573
1282 4.3361754
1280 4.7735891
1278 5.100142
1276 5.3325787
1274 5.4969192
1272 5.6211429
1270 5.73347
1268 5.8634143
1266 6.0417118
1264 6.2950354
1262 6.6414938
1260 7.0931063
1258 7.6542492
1256 8.3256769
1254 9.1035872
1252 9.9803743
1250 10.942156
1248 11.970526
1246 13.0425
1244 14.124977
1242 15.171412
1240 16.129332
1238 16.935495
1236 17.531086
1234 17.868971
1232 17.915838
1230 17.657906
1228 17.093895
1226 16.242615
1224 15.134583
1222 13.822782
1220 12.388966
1218 10.967146
1216 9.6974859
1214 8.706316
1212 8.0794344
1210 7.8204961
1208 7.8822451
1206 8.1509552
1204 8.489234
1202 8.7466278
1200 8.7971611
1198 8.5768661
1196 8.0714006
1194 7.3405857
1192 6.4682493
1190 5.5503411
1188 4.6708269
1186 3.8807008
1184 3.2093234
1182 2.6560459
1180 2.2112501
1178 1.8611145
1176 1.59234
1174 1.3953866
1172 1.2635511
1170 1.1951555
1168 1.1899954
1166 1.2476465
1164 1.3594851
1162 1.4988381
1160 1.6309743
1158 1.7144932
1156 1.7169515
1154 1.6302197
1152 1.4620759
1150 1.242339
1148 1.0022724
1146 0.76373535
1144 0.54343474
1142 0.35054636
1140 0.18585473
1138 0.036049537
1136 -0.10381649
1134 -0.21239251
1132 -0.27452698
1130 -0.30439967
1128 -0.32076806
1126 -0.33578351
1124 -0.35355896
1122 -0.36324254
1120 -0.35635602
1118 -0.33844715
1116 -0.31541759
1114 -0.28523219
1112 -0.23970079
1110 -0.16082823
1108 -0.034510702
1106 0.136849
1104 0.33942771
1102 0.54173374
1100 0.71882635
1098 0.87446684
1096 1.0320429
1094 1.2457144
1092 1.5591301
1090 1.9688125
1088 2.4480834
1086 2.9400065
1084 3.3882182
1082 3.7568204
1080 4.0209565
1078 4.1719518
1076 4.2082653
1074 4.1376581
1072 3.9762828
1070 3.7570844
1068 3.5192959
1066 3.3068528
1064 3.152004
1062 3.0510271
1060 2.9851317
1058 2.9188733
1056 2.8223057
1054 2.6918876
1052 2.5402668
1050 2.40694
1048 2.3279245
1046 2.3111894
1044 2.3460686
1042 2.3903837
1040 2.4111006
1038 2.4237733
1036 2.4605
1034 2.5644822
1032 2.7553766
1030 2.9764645
1028 3.1500514
1026 3.1935816
1024 3.053381
1022 2.7638969
1020 2.3858838
1018 1.9927473
1016 1.6454
1014 1.3565569
1012 1.1221035
1010 0.92190164
1008 0.73245162
1006 0.53261125
1004 0.30956772
1002 0.074309304
1000 -0.15924267
998 -0.38619041
996 -0.60381639
994 -0.80910289
992 -0.99457794
990 -1.1389213
988 -1.2206806
986 -1.2291435
984 -1.1625257
982 -1.0402708
980 -0.88869941
978 -0.74000049
976 -0.61802346
974 -0.51445234
972 -0.41303894
970 -0.2975809
968 -0.1559438
966 0.010245666
964 0.1919512
962 0.36613685
960 0.49910232
958 0.53325284
956 0.42667314
954 0.21286498
952 -0.040658638
950 -0.21420307
948 -0.21688899
946 -0.10481353
944 0.041851148
942 0.18723355
940 0.31703103
938 0.45483571
936 0.6315397
934 0.86980915
932 1.1671071
930 1.4363813
928 1.5887572
926 1.6061785
924 1.5066741
922 1.3766814
920 1.3076395
918 1.3469777
916 1.5187415
914 1.8022941
912 2.1675422
910 2.590909
908 3.0407972
906 3.4473138
904 3.7275372
902 3.7852571
900 3.5651197
898 3.1875699
896 2.8169999
