##TITLE=Methyl Ethyl Ketone
##JCAMP-DX=4.24
##DATA TYPE=INFRARED SPECTRUM
##XUNITS=cm-1
##YUNITS=Absorbance
##FIRSTX=900
##LASTX=2300
##XYDATA=(X++(Y..Y))
2296 0.097940996
2294 0.099978089
2292 0.10201418
2290 0.10405126
2288 0.10608834
2286 0.10812543
2284 0.11016251
2282 0.1121996
2280 0.11423669
2278 0.11627378
2276 0.11831086
2274 0.12035778
2272 0.12239502
2270 0.12440267
2268 0.1264686
2266 0.12858456
2264 0.13054521
2262 0.13228774
2260 0.13460983
2258 0.13771504
2256 0.13872285
2254 0.1367615
2252 0.14263734
2250 0.15954223
2248 0.14736257
2246 0.077249035
2244 0.014190017
2242 0.029736688
2240 0.11592856
2238 0.24153532
2236 0.37294227
2234 0.48741719
2232 0.6081481
2230 0.76573741
2228 0.96737993
2226 1.2073895
2224 1.4563583
2222 1.6777608
2220 1.8359858
2218 1.901907
2216 1.8723
2214 1.7591172
2212 1.6041499
2210 1.4541959
2208 1.3409772
2206 1.2857171
2204 1.2866976
2202 1.3349489
2200 1.4202726
2198 1.5318551
2196 1.6580071
2194 1.7892975
2192 1.9249822
2190 2.0644076
2188 2.1961713
2186 2.3044322
2184 2.370852
2182 2.385545
2180 2.3770452
2178 2.3812366
2176 2.4143398
2174 2.4777398
2172 2.5398264
2170 2.5688689
2168 2.5744708
2166 2.5819664
2164 2.62391
2162 2.7246873
2160 2.8695161
2158 3.0284088
2156 3.1665099
2154 3.2516263
2152 3.26912
2150 3.2178006
2148 3.1279054
2146 3.0416608
2144 3.0085206
2142 3.064785
2140 3.1845043
2138 3.3186305
2136 3.4119313
2134 3.4260676
2132 3.3983486
2130 3.3897521
2128 3.4460359
2126 3.5901542
2124 3.7757447
2122 3.9344854
2120 4.0090423
2118 3.9627957
2116 3.8247087
2114 3.64977
2112 3.5011652
2110 3.432426
2108 3.4470489
2106 3.5276806
2104 3.6486924
2102 3.7836711
2100 3.913368
2098 4.0206914
2096 4.0852003
2094 4.0909328
2092 4.0453939
2090 3.9664865
2088 3.8770607
2086 3.797725
2084 3.7323854
2082 3.679765
2080 3.642992
2078 3.6261334
2076 3.6295629
2074 3.6494482
2072 3.6731601
2070 3.6868112
2068 3.6879466
2066 3.6794429
2064 3.6679554
2062 3.6600034
2060 3.6580517
2058 3.6632121
2056 3.6794629
2054 3.7108884
2052 3.7568471
2050 3.81146
2048 3.8566008
2046 3.8724144
2044 3.853946
2042 3.808244
2040 3.7645347
2038 3.7563107
2036 3.7955301
2034 3.8774946
2032 3.9695194
2030 4.0306592
2028 4.0334611
2026 3.9638193
2024 3.8352029
2022 3.6747494
2020 3.5164924
2018 3.3939967
2016 3.3282602
2014 3.327642
2012 3.3704557
2010 3.4245439
2008 3.4686038
2006 3.4924023
2004 3.5078757
2002 3.5304921
2000 3.5477653
1998 3.5348635
1996 3.4718072
1994 3.3500783
1992 3.1979349
1990 3.0575259
1988 2.956742
1986 2.9079709
1984 2.8917177
1982 2.8778419
1980 2.8549106
1978 2.8264008
1976 2.8155344
1974 2.849566
1972 2.9336524
1970 3.0555286
1968 3.1763074
1966 3.2499337
1964 3.2513604
1962 3.1743031
1960 3.042948
1958 2.89499
1956 2.762567
1954 2.670336
1952 2.6265891
1950 2.6275332
1948 2.6518908
1946 2.6721251
1944 2.6705863
1942 2.6399844
1940 2.5946548
1938 2.5573432
1936 2.5420885
1934 2.5529974
1932 2.5751381
1930 2.5868392
1928 2.5801017
1926 2.5610349
1924 2.563524
1922 2.6261547
1920 2.7470818
1918 2.896796
1916 3.0265656
1914 3.0871496
1912 3.0640719
1910 2.9665136
1908 2.8205669
1906 2.6604171
1904 2.521656
1902 2.434397
1900 2.402452
1898 2.4126585
1896 2.440743
1894 2.4596512
1892 2.4509654
1890 2.4061821
1888 2.3367155
1886 2.2657242
1884 2.2192886
1882 2.2184713
1880 2.2595298
1878 2.3220255
1876 2.37728
1874 2.3970804
1872 2.3695412
1870 2.2963121
1868 2.1949172
1866 2.0897043
1864 1.9992743
1862 1.934284
1860 1.8898079
1858 1.85355
1856 1.8202456
1854 1.7913189
1852 1.7743691
1850 1.7751337
1848 1.778252
1846 1.7571214
1844 1.69476
1842 1.5876656
1840 1.4602731
1838 1.3501105
1836 1.2782571
1834 1.251964
1832 1.2717332
1830 1.3317347
1828 1.4112874
1826 1.4793557
1824 1.4997
1822 1.4430817
1820 1.321436
1818 1.174585
1816 1.0460515
1814 0.96949965
1812 0.93765521
1810 0.91872418
1808 0.89111763
1806 0.84758949
1804 0.80110615
1802 0.77367139
1800 0.77249217
1798 0.79133403
1796 0.81467932
1794 0.82662708
1792 0.83176959
1790 0.84755242
1788 0.88386101
1786 0.93692499
1784 0.9726088
1782 0.94907767
1780 0.88100284
1778 0.82107395
1776 0.80463624
1774 0.83649153
1772 0.86148012
1770 0.8008002
1768 0.65076226
1766 0.46571308
1764 0.2979444
1762 0.17488846
1760 0.051800571
1758 -0.14640455
1756 -0.40090358
1754 -0.62262261
1752 -0.74376374
1750 -0.73462516
1748 -0.62287432
1746 -0.47506571
1744 -0.35895613
1742 -0.32309189
1740 -0.34751227
1738 -0.3667466
1736 -0.338184
1734 -0.25525862
1732 -0.16620225
1730 -0.14412929
1728 -0.20136777
1726 -0.29212251
1724 -0.34065828
1722 -0.2615706
1720 0.0038969219
1718 0.47941461
1716 1.1311135
1714 1.8796294
1712 2.6249292
1710 3.2843738
1708 3.9028618
1706 4.6372457
1704 5.692513
1702 7.2831621
1700 9.5625906
1698 12.56072
1696 15.968
1694 19.258789
1692 22.137478
1690 24.598862
1688 26.927954
1686 29.580528
1684 32.86935
1682 36.858334
1680 41.144962
1678 45.07011
1676 48.463413
1674 51.634277
1672 54.961586
1670 58.737461
1668 62.938267
1666 67.289101
1664 71.565872
1662 75.640518
1660 79.414665
1658 82.822304
1656 85.909286
1654 88.80574
1652 91.591301
1650 94.232742
1648 96.430275
1646 97.731888
1644 98.034744
1642 97.566696
1640 96.483192
1638 94.800369
1636 92.472229
1634 89.466087
1632 85.960052
1630 82.28653
1628 78.59211
1626 74.814583
1624 70.870079
1622 66.71785
1620 62.437115
1618 58.204437
1616 54.14537
1614 50.314224
1612 46.756451
1610 43.518753
1608 40.621059
1606 38.055801
1604 35.817116
1602 33.904484
1600 32.301834
1598 30.972277
1596 29.864
1594 28.918257
1592 28.08873
1590 27.348999
1588 26.701406
1586 26.1723
1584 25.796469
1582 25.613739
1580 25.664919
1578 25.987444
1576 26.593771
1574 27.458475
1572 28.497694
1570 29.581091
1568 30.608358
1566 31.533443
1564 32.372917
1562 33.22757
1560 34.34745
1558 36.055107
1556 38.333858
1554 40.788811
1552 43.016705
1550 44.748009
1548 46.016613
1546 47.134426
1544 48.304447
1542 49.519867
1540 50.631561
1538 51.391911
1536 51.616657
1534 51.250469
1532 50.422623
1530 49.414726
1528 48.389126
1526 47.325302
1524 46.129372
1522 44.682629
1520 42.94059
1518 40.962109
1516 38.892159
1514 36.913349
1512 35.0228
1510 33.001232
1508 30.65292
1506 27.908928
1504 24.947948
1502 22.17108
1500 19.80533
1498 17.800369
1496 15.998857
1494 14.201087
1492 12.280592
1490 10.219944
1488 8.0655909
1486 5.9227009
1484 3.9378059
1482 2.2820771
1480 1.0623031
1478 0.30500335
1476 0.059906799
1474 0.39524931
1472 1.2130563
1470 2.217716
1468 3.1793015
1466 4.0200062
1464 4.7610941
1462 5.4908824
1460 6.209681
1458 6.7867045
1456 7.0791197
1454 6.9933128
1452 6.5943785
1450 6.119833
1448 5.7139759
1446 5.351707
1444 4.9976521
1442 4.6505761
1440 4.3103189
1438 3.9642801
1436 3.5772529
1434 3.0984354
1432 2.5354433
1430 1.9780879
1428 1.516482
1426 1.2089107
1424 1.0649257
1422 1.0375917
1420 1.0772771
1418 1.1506691
1416 1.2420057
1414 1.355618
1412 1.5014994
1410 1.6912159
1408 1.9348121
1406 2.2391243
1404 2.6055481
1402 3.0262959
1400 3.4786921
1398 3.9217565
1396 4.3147926
1394 4.6255546
1392 4.8346667
1390 4.9391556
1388 4.938992
1386 4.8352799
1384 4.6420608
1382 4.3913131
1380 4.1124921
1378 3.823103
1376 3.5263743
1374 3.2117944
1372 2.8858039
1370 2.5819943
1368 2.3207006
1366 2.0897386
1364 1.8536137
1362 1.5591017
1360 1.1915433
1358 0.80199552
1356 0.453756
1354 0.20043954
1352 0.059136942
1350 -0.0052293763
1348 -0.026374673
1346 -0.016163964
1344 0.024894238
1342 0.10359915
1340 0.21031055
1338 0.30847335
1336 0.3691757
1334 0.38862491
1332 0.38544059
1330 0.40337661
1328 0.47746056
1326 0.61754584
1324 0.81922531
1322 1.0636775
1320 1.3280629
1318 1.5893762
1316 1.83128
1314 2.0490634
1312 2.2429481
1310 2.4165692
1308 2.5709763
1306 2.7018292
1304 2.8066583
1302 2.888607
1300 2.9544144
1298 3.0149603
1296 3.0785856
1294 3.1476951
1292 3.2217972
1290 3.2976604
1288 3.3745999
1286 3.45716
1284 3.5499854
1282 3.6550417
1280 3.7714176
1278 3.8950257
1276 4.0281358
1274 4.1853342
1272 4.3831024
1270 4.6339064
1268 4.9357028
1266 5.2625408
1264 5.5894094
1262 5.9052582
1260 6.2171497
1258 6.5589204
1256 6.961874
1254 7.4397697
1252 7.9905438
1250 8.5902748
1248 9.2102861
1246 9.8233004
1244 10.411437
1242 10.974187
1240 11.515491
1238 12.036365
1236 12.525586
1234 12.94212
1232 13.24452
1230 13.405498
1228 13.417183
1226 13.299386
1224 13.07612
1222 12.764609
1220 12.378633
1218 11.92815
1216 11.419457
1214 10.847263
1212 10.211718
1210 9.5251989
1208 8.8093443
1206 8.0989676
1204 7.4202824
1202 6.7760234
1200 6.1590114
1198 5.5541358
1196 4.9504571
1194 4.3490181
1192 3.7557967
1190 3.1815219
1188 2.6413977
1186 2.1583993
1184 1.7565103
1182 1.4566226
1180 1.2683551
1178 1.1779823
1176 1.16004
1174 1.1763133
1172 1.1898806
1170 1.1737076
1168 1.1122515
1166 1.0100168
1164 0.88303185
1162 0.76035982
1160 0.66671962
1158 0.60848123
1156 0.57807225
1154 0.54727173
1152 0.49219945
1150 0.41080326
1148 0.3110092
1146 0.21112429
1144 0.12526716
1142 0.053556181
1140 0.0047288658
1138 0.015435107
1136 0.12756132
1134 0.3770605
1132 0.77588761
1130 1.2822663
1128 1.8422749
1126 2.4044642
1124 2.9276481
1122 3.3936634
1120 3.793648
1118 4.1299396
1116 4.4202428
1114 4.7117205
1112 5.0390382
1110 5.3878026
1108 5.7284822
1106 6.0244451
1104 6.2608957
1102 6.4812002
1100 6.7304912
1098 7.023807
1096 7.3634429
1094 7.7386875
1092 8.1415224
1090 8.5777769
1088 9.040451
1086 9.4814835
1084 9.8491106
1082 10.109592
1080 10.254251
1078 10.32967
1076 10.392185
1074 10.487072
1072 10.642892
1070 10.84297
1068 11.055851
1066 11.2326
1064 11.33364
1062 11.344818
1060 11.268655
1058 11.133791
1056 10.965743
1054 10.777864
1052 10.568923
1050 10.31901
1048 10.001451
1046 9.6004572
1044 9.1140823
1042 8.5856066
1040 8.0691185
1038 7.6171293
1036 7.2596397
1034 6.9621339
1032 6.6779046
1030 6.3714485
1028 6.0213017
1026 5.6382084
1024 5.235034
1022 4.8082733
1020 4.3584833
1018 3.9099083
1016 3.493737
1014 3.1424637
1012 2.8726642
1010 2.6511254
1008 2.434696
1006 2.1901655
1004 1.9031659
1002 1.6114839
1000 1.3543457
998 1.1351235
996 0.93995857
994 0.73064679
992 0.48170185
990 0.22804065
988 0.015335642
986 -0.12487257
984 -0.1826788
982 -0.20636292
980 -0.24336721
978 -0.29068631
976 -0.32198173
974 -0.27570504
972 -0.10221988
970 0.17898163
968 0.52081436
966 0.84128302
964 1.0636494
962 1.1590819
960 1.1225142
958 0.99174768
956 0.8132416
954 0.62860173
952 0.46851361
950 0.33016682
948 0.2082658
946 0.1175545
944 0.062796541
942 -0.0037654266
940 -0.11809517
938 -0.22737631
936 -0.27855885
934 -0.29772007
932 -0.33005041
930 -0.4183749
928 -0.59246635
926 -0.83590567
924 -1.11019
922 -1.3372506
920 -1.4512
918 -1.4677777
916 -1.4283029
914 -1.3942212
912 -1.4116378
910 -1.4496529
908 -1.4645694
906 -1.4373714
904 -1.3633622
902 -1.2694404
900 -1.1857245
898 -1.124456
896 -1.0937001
