Image.
>Pix99999.
  .
5555
5555
2300
900
5555
2
1
0
701
5555
-1.4036000e-003
-1.4327583e-003
-1.4620163e-003
-1.4911748e-003
-1.5204326e-003
-1.5495914e-003
-1.5787497e-003
-1.6080070e-003
-1.6371662e-003
-1.6664233e-003
-1.6955829e-003
-1.7248396e-003
-1.7539994e-003
-1.7831577e-003
-1.8124139e-003
-1.8415743e-003
-1.8708303e-003
-1.8999910e-003
-1.9291491e-003
-1.9584047e-003
-1.9875658e-003
-2.0168212e-003
-2.0459823e-003
-2.0751406e-003
-2.1043953e-003
-2.1335571e-003
3.0655116e-002
1.2312001e-003
-3.3098880e-002
-1.0947854e-001
-1.9206715e-001
-2.4125536e-001
-2.8527269e-001
-2.6768926e-001
-2.4506548e-001
-2.0591250e-001
-1.6850932e-001
-1.4305350e-001
-1.2192728e-001
-1.1208369e-001
-8.7157540e-002
-2.7866755e-002
6.7282245e-002
2.1764159e-001
3.3082297e-001
3.9340821e-001
3.3289510e-001
1.5685488e-001
-3.2159645e-002
-2.2521771e-001
-2.8346217e-001
-2.6381415e-001
-1.7623258e-001
-6.1144795e-002
-1.2174644e-002
1.4718650e-002
-4.5042798e-002
-1.2441044e-001
-1.9890277e-001
-2.7171317e-001
-2.7955055e-001
-2.7851415e-001
-2.4453130e-001
-2.0332940e-001
-1.3868754e-001
-7.5761974e-002
-2.7456414e-002
-1.4806250e-003
-2.8958114e-002
-8.5163094e-002
-1.8552290e-001
-2.8984085e-001
-3.9327532e-001
-4.4026810e-001
-4.2380622e-001
-3.6355644e-001
-2.7048126e-001
-2.1395031e-001
-1.8521935e-001
-1.4507000e-001
-9.7133711e-002
1.8272705e-002
1.6182907e-001
2.3246390e-001
2.7903119e-001
1.8848635e-001
6.6456392e-002
-3.9956618e-002
-1.4032818e-001
-1.7876276e-001
-2.0619801e-001
-2.1731120e-001
-2.2003080e-001
-1.9596398e-001
-1.6198328e-001
-1.0994443e-001
-6.0627777e-002
-2.3233505e-002
2.6645563e-003
1.2192406e-002
2.9093143e-002
5.8749199e-002
9.7181410e-002
1.4277989e-001
1.4912212e-001
1.2227200e-001
7.4476510e-002
1.5905686e-002
2.2016237e-002
6.2840223e-002
1.4681208e-001
2.4696048e-001
2.9646122e-001
3.2902375e-001
3.2218257e-001
3.0602220e-001
2.9495713e-001
2.8258112e-001
2.4674883e-001
2.0459519e-001
1.5317228e-001
1.1719748e-001
1.4298366e-001
1.9210193e-001
2.6950651e-001
3.1572178e-001
2.9029480e-001
2.3542181e-001
1.5735035e-001
1.2186530e-001
1.4340672e-001
1.7917746e-001
2.1845657e-001
2.0382030e-001
1.4601435e-001
7.5746782e-002
1.8823082e-003
1.0485804e-002
6.2170140e-002
1.6963580e-001
2.9840401e-001
3.4892455e-001
3.7264293e-001
3.2323423e-001
2.5569040e-001
1.9898157e-001
1.4173886e-001
5.9840631e-002
-3.5563480e-002
-1.6364670e-001
-2.8124428e-001
-3.4316120e-001
-3.6067399e-001
-3.0810627e-001
-2.3982559e-001
-1.7223857e-001
-1.3041194e-001
-1.2426143e-001
-1.4948714e-001
-2.0162073e-001
-2.5814342e-001
-3.1372270e-001
-3.6594075e-001
-4.1602370e-001
-4.8930597e-001
-5.7750070e-001
-6.4092869e-001
-6.8958157e-001
-6.3625920e-001
-5.3894293e-001
-4.2351714e-001
-3.0605233e-001
-3.0352533e-001
-3.4139907e-001
-4.1828781e-001
-4.9369001e-001
-4.9408805e-001
-4.6973339e-001
-4.3575671e-001
-4.2013243e-001
-4.5907515e-001
-5.1362371e-001
-5.6850100e-001
-6.1424404e-001
-6.4700991e-001
-6.8782246e-001
-7.4495667e-001
-8.0894375e-001
-8.7474984e-001
-9.0317607e-001
-8.9566410e-001
-8.3409387e-001
-7.3754388e-001
-6.2959552e-001
-5.1915681e-001
-4.4903278e-001
-4.0092322e-001
-3.9882952e-001
-4.1650945e-001
-4.1631901e-001
-4.0526572e-001
-3.5209799e-001
-2.8706944e-001
-2.5022641e-001
-2.3404503e-001
-2.5726828e-001
-2.8880161e-001
-3.0023870e-001
-2.9902813e-001
-2.8667194e-001
-2.8619701e-001
-3.1782612e-001
-3.6499035e-001
-4.2135760e-001
-4.6830979e-001
-4.9630523e-001
-5.1073724e-001
-5.1334268e-001
-4.8783338e-001
-4.4111338e-001
-3.9368972e-001
-3.5092530e-001
-3.9375284e-001
-4.9468717e-001
-7.0585680e-001
-9.7803432e-001
-1.1614842e+000
-1.2889074e+000
-1.1609051e+000
-9.0472835e-001
-5.8470100e-001
-2.4631160e-001
2.4942569e-002
2.2825809e-001
2.9822466e-001
2.7661258e-001
1.7020321e-001
5.8237329e-002
8.1193019e-003
-1.3994446e-003
1.3846257e-002
1.7130356e-003
-6.4616330e-002
-1.4185457e-001
-2.0925155e-001
-2.2303250e-001
-1.8312311e-001
-1.7788532e-001
-2.1888800e-001
-3.0029625e-001
-4.0639001e-001
-3.8882589e-001
-2.7842522e-001
-1.1385074e-001
7.9921059e-002
2.1091472e-001
3.0431473e-001
3.6878324e-001
4.0989861e-001
3.9625758e-001
3.5632828e-001
3.2804775e-001
3.2916465e-001
4.1247249e-001
4.9078625e-001
4.6409345e-001
3.5695881e-001
1.8042138e-001
6.0487151e-002
-1.4411899e-001
-3.5385716e-001
-4.5106956e-001
-5.3217202e-001
-6.4399737e-001
-8.0398536e-001
-1.0040035e+000
-1.1825845e+000
-1.3270620e+000
-1.4192020e+000
-1.4739699e+000
-1.4590000e+000
-1.3973922e+000
-1.2182134e+000
-9.5999169e-001
-7.2517961e-001
-5.1124626e-001
-3.6059967e-001
-2.2476831e-001
7.3517099e-002
5.8363110e-001
1.3692590e+000
2.2294436e+000
2.9223526e+000
3.4746287e+000
3.9017160e+000
4.4223771e+000
5.2312598e+000
6.6022391e+000
8.6765327e+000
1.1753982e+001
1.5858999e+001
2.0203209e+001
2.4389866e+001
2.8056810e+001
3.1188274e+001
3.4618793e+001
3.8483162e+001
4.3034672e+001
4.8149521e+001
5.2690067e+001
5.6688202e+001
6.0680195e+001
6.4741005e+001
6.9425850e+001
7.4539665e+001
7.9404251e+001
8.3998192e+001
8.8182068e+001
9.1994881e+001
9.5485878e+001
9.8583542e+001
1.0117437e+002
1.0305621e+002
1.0403467e+002
1.0392622e+002
1.0268179e+002
1.0070274e+002
9.8387962e+001
9.5756058e+001
9.2851295e+001
8.9392433e+001
8.5337662e+001
8.1095879e+001
7.6835297e+001
7.2628914e+001
6.8483200e+001
6.4045601e+001
5.9300709e+001
5.4614456e+001
5.0029636e+001
4.5829857e+001
4.2039478e+001
3.8775726e+001
3.6027672e+001
3.3646526e+001
3.1592587e+001
2.9688219e+001
2.7980040e+001
2.6538885e+001
2.5399546e+001
2.4567501e+001
2.4006178e+001
2.3630291e+001
2.3404745e+001
2.3276468e+001
2.3255207e+001
2.3335463e+001
2.3520969e+001
2.3801947e+001
2.4253286e+001
2.4898573e+001
2.5769342e+001
2.6868872e+001
2.8091671e+001
2.9413240e+001
3.0743107e+001
3.2067646e+001
3.3388039e+001
3.4752434e+001
3.6660866e+001
3.9167515e+001
4.2051682e+001
4.5152348e+001
4.7634136e+001
4.9462265e+001
5.0829998e+001
5.1717140e+001
5.2250122e+001
5.2344959e+001
5.1991852e+001
5.1232513e+001
5.0190609e+001
4.8995678e+001
4.7778629e+001
4.6490509e+001
4.5095200e+001
4.3485947e+001
4.1600891e+001
3.9604198e+001
3.7575768e+001
3.5728573e+001
3.4148849e+001
3.2479759e+001
3.0623240e+001
2.8183384e+001
2.5011993e+001
2.1907194e+001
1.8969088e+001
1.6616394e+001
1.4926189e+001
1.3331857e+001
1.1819471e+001
1.0256833e+001
8.6234064e+000
6.9143739e+000
5.1917644e+000
3.6020360e+000
2.2518663e+000
1.2505903e+000
5.8849341e-001
2.0369764e-001
1.3571638e-001
4.4324595e-001
9.7323322e-001
1.5926358e+000
2.1818957e+000
2.6512811e+000
3.0589643e+000
3.4138548e+000
3.8146210e+000
4.3085599e+000
4.8348298e+000
5.3967910e+000
5.7959290e+000
5.9454851e+000
5.9605212e+000
5.7884293e+000
5.5606241e+000
5.2495942e+000
4.8678174e+000
4.3956456e+000
3.8802376e+000
3.3509166e+000
2.9152784e+000
2.5963960e+000
2.3812079e+000
2.2782011e+000
2.2712095e+000
2.3918397e+000
2.6852958e+000
3.0914800e+000
3.5582528e+000
3.9949558e+000
4.3075442e+000
4.5560255e+000
4.7515898e+000
4.9445229e+000
5.1602745e+000
5.3585358e+000
5.5204959e+000
5.6574855e+000
5.7563438e+000
5.8481002e+000
5.9251366e+000
5.9219995e+000
5.7879701e+000
5.5492663e+000
5.1722393e+000
4.7666855e+000
4.3307571e+000
3.9044571e+000
3.4951892e+000
3.1240380e+000
2.7948382e+000
2.4967554e+000
2.1993799e+000
1.8356154e+000
1.4180129e+000
9.6293819e-001
5.4185379e-001
2.4947259e-001
6.3231371e-002
1.0776434e-002
1.9103996e-002
8.7373763e-002
1.8538108e-001
3.0561680e-001
4.3707713e-001
5.8641863e-001
7.3676515e-001
8.8920629e-001
1.0314275e+000
1.1637906e+000
1.2924540e+000
1.4205840e+000
1.5701278e+000
1.7515569e+000
1.9673671e+000
2.2208216e+000
2.4835474e+000
2.7440100e+000
2.9695933e+000
3.1542177e+000
3.2890909e+000
3.3893268e+000
3.4761577e+000
3.5591743e+000
3.6505890e+000
3.7324634e+000
3.7796786e+000
3.7945857e+000
3.7539771e+000
3.7101107e+000
3.6928163e+000
3.7065599e+000
3.7925830e+000
3.8824658e+000
3.9707320e+000
4.0501666e+000
4.1118722e+000
4.1837115e+000
4.2750521e+000
4.3799253e+000
4.5111976e+000
4.6759267e+000
4.8955579e+000
5.1610885e+000
5.4797587e+000
5.8032103e+000
6.1316805e+000
6.4619741e+000
6.8069153e+000
7.1999154e+000
7.6336570e+000
8.1052008e+000
8.5946999e+000
9.0833521e+000
9.5549173e+000
9.9720230e+000
1.0336827e+001
1.0578428e+001
1.0759485e+001
1.0815560e+001
1.0816554e+001
1.0677192e+001
1.0471251e+001
1.0081786e+001
9.6371031e+000
9.0631409e+000
8.4778061e+000
7.8755140e+000
7.3023458e+000
6.7830582e+000
6.3082504e+000
5.8962483e+000
5.5069342e+000
5.1372399e+000
4.7439365e+000
4.3247781e+000
3.8834028e+000
3.4343286e+000
3.0210407e+000
2.6402388e+000
2.3106041e+000
2.0006695e+000
1.6792336e+000
1.3528880e+000
1.0220609e+000
7.2934496e-001
5.9465432e-001
5.3035998e-001
6.6329807e-001
8.0460995e-001
9.3306482e-001
1.0279120e+000
1.0225514e+000
1.0194212e+000
1.0248480e+000
1.0551085e+000
1.1308075e+000
1.1917014e+000
1.2184378e+000
1.1778051e+000
1.0405785e+000
8.3875722e-001
5.7460213e-001
3.3238864e-001
1.2757558e-001
2.6886083e-002
1.2769647e-002
9.6078455e-002
2.4397559e-001
4.8995259e-001
7.8335488e-001
1.1284075e+000
1.4819422e+000
1.8057351e+000
2.1146715e+000
2.3734200e+000
2.6199768e+000
2.8254228e+000
3.0113015e+000
3.1162858e+000
3.1867902e+000
3.1501577e+000
3.1137152e+000
3.0841954e+000
3.1086755e+000
3.2379436e+000
3.3817227e+000
3.5456858e+000
3.6977172e+000
3.8429821e+000
4.0423784e+000
4.2951727e+000
4.5583329e+000
4.8182530e+000
4.9996758e+000
5.1367145e+000
5.2873974e+000
5.4534073e+000
5.6857195e+000
5.9245462e+000
6.0557981e+000
6.1337614e+000
5.9963279e+000
5.8183279e+000
5.5451913e+000
5.2775316e+000
5.0756392e+000
4.8862944e+000
4.7501183e+000
4.5934515e+000
4.3710971e+000
4.1422324e+000
3.9030893e+000
3.7193103e+000
3.6402833e+000
3.5926325e+000
3.5878150e+000
3.5605400e+000
3.5043089e+000
3.4106824e+000
3.2766933e+000
3.0678575e+000
2.8007977e+000
2.4603393e+000
2.0820060e+000
1.7060503e+000
1.3367810e+000
1.0275301e+000
7.4091339e-001
5.2715272e-001
3.3277747e-001
2.1891201e-001
1.1805269e-001
9.1479518e-002
6.6387609e-002
4.5922276e-002
-3.6597103e-003
-1.8352072e-001
-4.1243729e-001
-7.9113257e-001
-1.1511581e+000
-1.4629880e+000
-1.6811578e+000
-1.7345258e+000
-1.7316332e+000
-1.6537840e+000
-1.5699110e+000
-1.4793172e+000
-1.3814168e+000
-1.2782104e+000
-1.1830323e+000
-1.0933263e+000
-1.0105076e+000
-9.2930764e-001
-8.1900334e-001
-6.9675136e-001
-5.2326685e-001
-3.3811614e-001
-1.3873546e-001
5.6521200e-002
1.1059144e-001
1.5044348e-001
6.8665817e-002
2.9300922e-005
-6.6889450e-005
-2.6548140e-002
-6.4969868e-003
3.2574870e-004
-3.0928228e-002
-3.4609891e-002
2.1254882e-002
1.1347726e-001
2.6400733e-001
4.3159920e-001
6.2038517e-001
8.4109771e-001
1.0904260e+000
1.2757043e+000
1.4137532e+000
1.3936137e+000
1.2906229e+000
1.2531885e+000
1.2421737e+000
1.5045085e+000
1.8381728e+000
2.2046638e+000
2.5762162e+000
2.7972000e+000
