##TITLE=Methyl Ethyl Ketone
##JCAMP-DX=4.24
##DATA TYPE=INFRARED SPECTRUM
##XUNITS=cm-1
##YUNITS=Absorbance
##FIRSTX=900
##LASTX=2300
##XYDATA=(X++(Y..Y))
2296 0.046317
2294 0.047280621
2292 0.048244242
2290 0.049207866
2288 0.050171487
2286 0.051134117
2284 0.052098718
2282 0.053062353
2280 0.054024983
2278 0.054988593
2276 0.055952214
2274 0.056918789
2272 0.057879508
2270 0.058832284
2268 0.059806481
2266 0.060809463
2264 0.061734859
2262 0.0625512
2260 0.063657328
2258 0.065167665
2256 0.065604366
2254 0.064530574
2252 0.067449205
2250 0.075998798
2248 0.069708526
2246 0.03381668
2244 0.0012069943
2242 0.010030583
2240 0.065825962
2238 0.15730608
2236 0.24288085
2234 0.28441498
2232 0.29210564
2230 0.28747326
2228 0.28137872
2226 0.27448699
2224 0.23951714
2222 0.15344848
2220 0.043477815
2218 -0.048642308
2216 -0.082666717
2214 -0.03414024
2212 0.06006366
2210 0.14907479
2208 0.20005576
2206 0.19697171
2204 0.16864288
2202 0.15124121
2200 0.15526217
2198 0.1779414
2196 0.19563785
2194 0.1842794
2192 0.1436972
2190 0.084670037
2188 0.031535178
2186 0.0090232873
2184 0.026620943
2182 0.083751343
2180 0.15904221
2178 0.22801654
2176 0.28039944
2174 0.31320551
2172 0.33351058
2170 0.34918851
2168 0.35825652
2166 0.35770556
2164 0.35410112
2162 0.35704967
2160 0.37507796
2158 0.41314533
2156 0.46352199
2154 0.51483059
2152 0.55855435
2150 0.58993095
2148 0.61518568
2146 0.64171964
2144 0.66639435
2142 0.67858189
2140 0.65226758
2138 0.56481647
2136 0.42918229
2134 0.27543861
2132 0.15141651
2130 0.09916123
2128 0.11224528
2126 0.16472071
2124 0.22307442
2122 0.25739211
2120 0.26167715
2118 0.23883623
2116 0.19198957
2114 0.1270538
2112 0.0624348
2110 0.017552195
2108 -0.0034284124
2106 -0.0041677835
2104 0.003748971
2102 0.0097185159
2100 0.01879576
2098 0.039611097
2096 0.070325285
2094 0.10513383
2092 0.13955763
2090 0.17099003
2088 0.20178251
2086 0.23376399
2084 0.25853294
2082 0.26683399
2080 0.26309776
2078 0.25852826
2076 0.26903316
2074 0.30736032
2072 0.36600119
2070 0.42924508
2068 0.48154455
2066 0.51073819
2064 0.51684725
2062 0.50495535
2060 0.48024097
2058 0.44636461
2056 0.40143198
2054 0.342428
2052 0.27131292
2050 0.19395897
2048 0.12326474
2046 0.072799608
2044 0.046769522
2042 0.043506023
2040 0.054082368
2038 0.069286712
2036 0.091017842
2034 0.12677589
2032 0.18665737
2030 0.277136
2028 0.38564572
2026 0.49108618
2024 0.57198727
2022 0.61159897
2020 0.6118573
2018 0.58459997
2016 0.54812002
2014 0.51917434
2012 0.49759597
2010 0.47536159
2008 0.44451448
2006 0.40236065
2004 0.36659923
2002 0.35845661
2000 0.37414223
1998 0.39598331
1996 0.39920571
1994 0.3635599
1992 0.29903087
1990 0.22915907
1988 0.1736844
1986 0.14533043
1984 0.13878028
1982 0.14215305
1980 0.15165551
1978 0.16993585
1976 0.20778458
1974 0.2764788
1972 0.37372243
1970 0.48588541
1968 0.58042336
1966 0.62037414
1964 0.58795881
1962 0.48340461
1960 0.34049401
1958 0.20595363
1956 0.1127502
1954 0.078904793
1952 0.093277402
1950 0.13030592
1948 0.16380191
1946 0.1737275
1944 0.16332875
1942 0.14832309
1940 0.14636683
1938 0.17022172
1936 0.21088572
1934 0.24802397
1932 0.2617586
1930 0.23778418
1928 0.18106845
1926 0.11068848
1924 0.062870383
1922 0.07476607
1920 0.15109302
1918 0.2737118
1916 0.40449244
1914 0.50250787
1912 0.55550677
1910 0.56713974
1908 0.5382061
1906 0.47009042
1904 0.3798224
1902 0.29611483
1900 0.25949472
1898 0.30486032
1896 0.41684571
1894 0.54854959
1892 0.64170671
1890 0.64546031
1888 0.55827779
1886 0.41152442
1884 0.25523481
1882 0.138758
1880 0.072717011
1878 0.040620126
1876 0.0092710201
1874 -0.054068107
1872 -0.14669764
1870 -0.2426715
1868 -0.309055
1866 -0.319626
1864 -0.28688285
1862 -0.2447146
1860 -0.21815252
1858 -0.22173056
1856 -0.25752771
1854 -0.3213807
1852 -0.41156703
1850 -0.52494168
1848 -0.6421932
1846 -0.73493928
1844 -0.77969474
1842 -0.76436049
1840 -0.70930529
1838 -0.65177059
1836 -0.61581427
1834 -0.60809588
1832 -0.60421395
1830 -0.56643462
1828 -0.48039436
1826 -0.35456142
1824 -0.22360674
1822 -0.13254997
1820 -0.105548
1818 -0.14746594
1816 -0.24461973
1814 -0.37185636
1812 -0.4991217
1810 -0.59662557
1808 -0.64501226
1806 -0.6391905
1804 -0.60629535
1802 -0.59107679
1800 -0.62454027
1798 -0.71462047
1796 -0.8174293
1794 -0.86097598
1792 -0.79828399
1790 -0.61704516
1788 -0.36662662
1786 -0.12865451
1784 0.0488635
1782 0.15133472
1780 0.18830189
1778 0.18229461
1776 0.15477772
1774 0.1255029
1772 0.11747117
1770 0.14777553
1768 0.19451183
1766 0.21442364
1764 0.19492801
1762 0.14395703
1760 0.046095997
1758 -0.12259487
1756 -0.33219501
1754 -0.51986605
1752 -0.66345876
1750 -0.77616483
1748 -0.87107933
1746 -0.95574784
1744 -1.0348271
1742 -1.1074582
1740 -1.1545929
1738 -1.1459689
1736 -1.06192
1734 -0.90107888
1732 -0.70013261
1730 -0.51787204
1728 -0.38849577
1726 -0.31600264
1724 -0.26942477
1722 -0.18684171
1720 0.028785758
1718 0.47930098
1716 1.1783452
1714 2.0587308
1712 3.0121412
1710 3.9335482
1708 4.834836
1706 5.8340359
1704 7.0998955
1702 8.8294086
1700 11.232077
1698 14.444683
1696 18.229572
1694 22.07489
1692 25.604851
1690 28.68664
1688 31.586319
1686 34.856651
1684 38.98764
1682 44.220409
1680 50.096081
1678 55.718563
1676 60.783485
1674 65.592537
1672 70.539314
1670 75.890732
1668 81.40638
1666 86.473099
1664 90.721191
1662 94.085464
1660 96.628937
1658 98.46846
1656 99.670799
1654 100.23618
1652 100.1521
1650 99.420807
1648 98.135986
1646 96.48336
1644 94.668106
1642 92.852119
1640 90.982964
1638 88.826439
1636 86.188141
1634 82.98127
1632 79.303322
1630 75.372139
1628 71.250175
1626 66.841377
1624 62.10408
1622 57.105656
1620 52.046288
1618 47.214256
1616 42.801628
1614 38.880737
1612 35.477978
1610 32.588032
1608 30.15943
1606 28.106993
1604 26.369902
1602 24.922386
1600 23.756063
1598 22.871937
1596 22.2565
1594 21.880875
1592 21.723148
1590 21.772844
1588 22.028437
1586 22.49045
1584 23.132811
1582 23.912579
1580 24.848648
1578 26.032259
1576 27.589914
1574 29.642775
1572 32.170063
1570 34.998993
1568 37.925961
1566 40.760242
1564 43.375221
1562 45.750542
1560 48.080029
1558 50.688969
1556 53.531872
1554 56.143208
1552 58.079891
1550 59.080551
1548 59.221008
1546 58.856998
1544 58.116547
1542 56.828953
1540 54.87994
1538 52.330574
1536 49.489311
1534 46.845829
1532 44.62952
1530 42.726387
1528 40.957905
1526 39.158852
1524 37.186859
1522 34.949173
1520 32.477524
1518 29.937956
1516 27.532158
1514 25.431051
1512 23.59584
1510 21.767258
1508 19.734968
1506 17.43432
1504 14.99412
1502 12.70797
1500 10.748249
1498 9.0913153
1496 7.644443
1494 6.2920508
1492 4.9711022
1490 3.693346
1488 2.5054028
1486 1.4757612
1484 0.66811073
1482 0.12612358
1480 -0.15302402
1478 -0.20946181
1476 -0.0067914277
1474 0.57800567
1472 1.5774091
1470 2.8788362
1468 4.31146
1466 5.6859722
1464 6.8975658
1462 7.9613791
1460 8.9431639
1458 9.929594
1456 10.9486
1454 11.93686
1452 12.766292
1450 13.266346
1448 13.369263
1446 13.154036
1444 12.728806
1442 12.19019
1440 11.577045
1438 10.854414
1436 9.9780331
1434 8.9293575
1432 7.7745094
1430 6.6808472
1428 5.7844262
1426 5.1400294
1424 4.7413864
1422 4.5259213
1420 4.4443283
1418 4.4841528
1416 4.6477714
1414 4.9427781
1412 5.354918
1410 5.837605
1408 6.3403797
1406 6.8177428
1404 7.2264557
1402 7.5257735
1400 7.680192
1398 7.6660309
1396 7.4886928
1394 7.1935334
1392 6.8396149
1390 6.4890509
1388 6.1822386
1386 5.9243898
1384 5.7033668
1382 5.4914551
1380 5.2500086
1378 4.9327435
1376 4.5122771
1374 3.9959419
1372 3.418658
1370 2.8401542
1368 2.2919273
1366 1.7549078
1364 1.2068858
1362 0.6453824
1360 0.11187303
1358 -0.29630351
1356 -0.50326884
1354 -0.48826078
1352 -0.25343704
1350 0.17980021
1348 0.77181351
1346 1.461025
1344 2.1824961
1342 2.8754299
1340 3.4906137
1338 3.9959686
1336 4.3665113
1334 4.5831866
1332 4.6325178
1330 4.5116401
1328 4.2391028
1326 3.8659587
1324 3.4560475
1322 3.0783029
1320 2.7776029
1318 2.5542679
1316 2.3845501
1314 2.2234335
1312 2.0356789
1310 1.8133613
1308 1.5693828
1306 1.3402042
1304 1.1596532
1302 1.0459551
1300 1.0052509
1298 1.0307565
1296 1.1222428
1294 1.2965795
1292 1.5735831
1290 1.9688928
1288 2.4777279
1286 3.0600121
1284 3.6630383
1282 4.2274528
1280 4.7044301
1278 5.06849
1276 5.311717
1274 5.449769
1272 5.5142374
1270 5.5554318
1268 5.624332
1266 5.7633114
1264 6.0027246
1262 6.3534703
1260 6.821146
1258 7.4086595
1256 8.1139059
1254 8.9253464
1252 9.8248558
1250 10.786592
1248 11.787714
1246 12.81525
1244 13.851531
1242 14.864964
1240 15.808594
1238 16.612495
1236 17.205172
1234 17.524313
1232 17.518759
1230 17.152735
1228 16.41828
1226 15.362293
1224 14.065251
1222 12.645452
1220 11.22734
1218 9.922246
1216 8.8234854
1214 7.9941182
1212 7.4675083
1210 7.2304106
1208 7.2380495
1206 7.4030857
1204 7.6246438
1202 7.7958159
1200 7.8190999
1198 7.6230845
1196 7.1720357
1194 6.4950185
1192 5.6563435
1190 4.7606869
1188 3.9060764
1186 3.1535137
1184 2.5374091
1182 2.0536394
1180 1.6885
1178 1.4276731
1176 1.2573199
1174 1.1649351
1172 1.1353602
1170 1.1465366
1168 1.1749263
1166 1.1974871
1164 1.1967397
1162 1.168438
1160 1.11622
1158 1.0534222
1156 0.99187469
1154 0.93424296
1152 0.8782028
1150 0.8153255
1148 0.73721761
1146 0.63921857
1144 0.51965117
1142 0.38126951
1140 0.22495329
1138 0.04635857
1136 -0.14590143
1134 -0.31110659
1132 -0.41296363
1130 -0.44535536
1128 -0.42140737
1126 -0.38214228
1124 -0.36685497
1122 -0.39265409
1120 -0.4547548
1118 -0.50927508
1116 -0.51514274
1114 -0.46216375
1112 -0.35728627
1110 -0.23060074
1108 -0.10822719
1106 0.0075386316
1104 0.12072651
1102 0.23667023
1100 0.35897988
1098 0.48676708
1096 0.62437141
1094 0.79205477
1092 1.0117198
1090 1.298985
1088 1.6609902
1086 2.0855222
1084 2.5471432
1082 2.9964981
1080 3.3745234
1078 3.6141012
1076 3.6697299
1074 3.5605013
1072 3.3341599
1070 3.0731509
1068 2.8539152
1066 2.7128301
1064 2.6653521
1062 2.6964977
1060 2.7776663
1058 2.8634908
1056 2.9087999
1054 2.881089
1052 2.765923
1050 2.5916049
1048 2.4007702
1046 2.2460177
1044 2.169204
1042 2.1741667
1040 2.2510955
1038 2.3783505
1036 2.5341299
1034 2.7049584
1032 2.8684714
1030 2.9729414
1028 2.9665544
1026 2.8211207
1024 2.5346818
1022 2.165554
1020 1.7781806
1018 1.4093031
1016 1.0782294
1014 0.77328813
1012 0.48236006
1010 0.21640196
1008 -0.0081433505
1006 -0.17597714
1004 -0.28300592
1002 -0.35911337
1000 -0.44193321
998 -0.5665437
996 -0.75326717
994 -0.97769058
992 -1.2050446
990 -1.4031982
988 -1.5507548
986 -1.6592615
984 -1.7398332
982 -1.7760397
980 -1.7455161
978 -1.6289628
976 -1.4250656
974 -1.188381
972 -0.98236465
970 -0.85147387
968 -0.81508511
966 -0.82338202
964 -0.81984764
962 -0.78376734
960 -0.71320611
958 -0.63991314
956 -0.5894624
954 -0.5374366
952 -0.4542028
950 -0.33539638
948 -0.19100501
946 -0.058792893
944 0.040097609
942 0.16743617
940 0.37470293
938 0.6024636
936 0.77117062
934 0.82880878
932 0.75846297
930 0.64660138
928 0.5942744
926 0.66093045
924 0.87130922
922 1.1592538
920 1.4404914
918 1.6477169
916 1.7294772
914 1.6773345
912 1.5003417
910 1.2326101
908 0.91397053
906 0.58337259
904 0.2807852
902 0.051557414
900 -0.054054145
898 0.028393269
896 0.36689001
