##TITLE=Methyl Ethyl Ketone
##JCAMP-DX=4.24
##DATA TYPE=INFRARED SPECTRUM
##XUNITS=cm-1
##YUNITS=Absorbance
##FIRSTX=900
##LASTX=2300
##XYDATA=(X++(Y..Y))
2296 0.023047
2294 0.023526315
2292 0.024005629
2290 0.024484944
2288 0.024965251
2286 0.025444571
2284 0.025923885
2282 0.0264032
2280 0.026882514
2278 0.027361829
2276 0.027841143
2274 0.02832341
2272 0.028800806
2270 0.029272234
2268 0.029759239
2266 0.030269049
2264 0.030718736
2262 0.031086111
2260 0.031673726
2258 0.032570411
2256 0.032648429
2254 0.03157524
2252 0.033545006
2250 0.039804552
2248 0.034756687
2246 0.0094302036
2244 0.00031568084
2242 0.040975124
2240 0.10185196
2238 0.14182891
2236 0.14549829
2234 0.1135449
2232 0.08150664
2230 0.083354175
2228 0.10663962
2226 0.127941
2224 0.1343879
2222 0.12368368
2220 0.12305108
2218 0.16087809
2216 0.23525743
2214 0.3347331
2212 0.44651279
2210 0.55899066
2208 0.6667372
2206 0.76238352
2204 0.82321107
2202 0.82717198
2200 0.77420032
2198 0.67496568
2196 0.55575788
2194 0.44342053
2192 0.34783629
2190 0.27378157
2188 0.22737974
2186 0.21293971
2184 0.2252848
2182 0.25376749
2180 0.27793548
2178 0.28113621
2176 0.274786
2174 0.27825135
2172 0.30553624
2170 0.36471561
2168 0.44776571
2166 0.54323536
2164 0.64749116
2162 0.75614899
2160 0.85061991
2158 0.9068498
2156 0.89828497
2154 0.80728024
2152 0.65546733
2150 0.48280144
2148 0.34874421
2146 0.30496964
2144 0.34489736
2142 0.4358803
2140 0.5224517
2138 0.55627
2136 0.54899716
2134 0.53230882
2132 0.5315007
2130 0.56132007
2128 0.60513884
2126 0.64110035
2124 0.6721518
2122 0.70934474
2120 0.75837255
2118 0.81959033
2116 0.88080686
2114 0.92793179
2112 0.95789415
2110 0.97234458
2108 0.97477049
2106 0.97049946
2104 0.97014654
2102 0.98436189
2100 1.0155876
2098 1.0597943
2096 1.0999
2094 1.1161109
2092 1.0986786
2090 1.0453373
2088 0.96931797
2086 0.88835299
2084 0.81597626
2082 0.76167142
2080 0.72620589
2078 0.70839596
2076 0.71301043
2074 0.74683958
2072 0.81435716
2070 0.91490501
2068 1.0305333
2066 1.1348593
2064 1.1948994
2062 1.1822622
2060 1.0973514
2058 0.95757896
2056 0.80242145
2054 0.67555666
2052 0.6024996
2050 0.59622961
2048 0.65095609
2046 0.75051147
2044 0.8669166
2042 0.96809709
2040 1.0242039
2038 1.0146911
2036 0.95232153
2034 0.86620611
2032 0.79270488
2030 0.76183772
2028 0.76673794
2026 0.78604794
2024 0.80665904
2022 0.82317883
2020 0.84339505
2018 0.87621301
2016 0.91134799
2014 0.93335718
2012 0.94313455
2010 0.94858289
2008 0.95367259
2006 0.959059
2004 0.96086276
2002 0.95505178
2000 0.94502228
1998 0.93649435
1996 0.92967713
1994 0.92256254
1992 0.91570574
1990 0.91151279
1988 0.91424435
1986 0.92873818
1984 0.95869976
1982 1.0044404
1980 1.0541369
1978 1.0921409
1976 1.1111858
1974 1.1139611
1972 1.1257129
1970 1.1744847
1968 1.2538984
1966 1.3357543
1964 1.375092
1962 1.3320594
1960 1.221068
1958 1.083638
1956 0.9598316
1954 0.87883502
1952 0.83515781
1950 0.80898631
1948 0.79395735
1946 0.79378998
1944 0.82021147
1942 0.88360029
1940 0.9732191
1938 1.0660359
1936 1.1343943
1934 1.1543486
1932 1.123266
1930 1.05493
1928 0.98390764
1926 0.95286292
1924 0.99527568
1922 1.1253066
1920 1.2977183
1918 1.439705
1916 1.4950186
1914 1.4336214
1912 1.2881023
1910 1.1183228
1908 0.95826441
1906 0.82292473
1904 0.71992642
1902 0.65832752
1900 0.6647293
1898 0.76772392
1896 0.96041715
1894 1.2071012
1892 1.4380854
1890 1.572955
1888 1.5611446
1886 1.3856878
1884 1.0958652
1882 0.77428889
1880 0.49112126
1878 0.29824051
1876 0.21432801
1874 0.23576103
1872 0.34179726
1870 0.49899706
1868 0.65455848
1866 0.75294554
1864 0.77374631
1862 0.72518939
1860 0.64440811
1858 0.57563549
1856 0.527098
1854 0.481976
1852 0.41630545
1850 0.31155816
1848 0.182152
1846 0.06231118
1844 -0.016761078
1842 -0.035340115
1840 -0.0068960711
1838 0.037787259
1836 0.081362583
1834 0.12182098
1832 0.17815651
1830 0.27471697
1828 0.40538669
1826 0.5394007
1824 0.62877965
1822 0.62693042
1820 0.53284502
1818 0.3781333
1816 0.20387457
1814 0.049668029
1812 -0.063671634
1810 -0.12705393
1808 -0.12722646
1806 -0.055367552
1804 0.058210254
1802 0.1584239
1800 0.19829194
1798 0.15593983
1796 0.084324427
1794 0.07295575
1792 0.15242864
1790 0.2996113
1788 0.45683739
1786 0.56028241
1784 0.60006678
1782 0.60564405
1780 0.60585028
1778 0.62386584
1776 0.68166405
1774 0.78996903
1772 0.90878749
1770 0.96692216
1768 0.91391462
1766 0.73428029
1764 0.48406839
1762 0.25346452
1760 0.066299371
1758 -0.097898573
1756 -0.21389256
1754 -0.22329414
1752 -0.10114724
1750 0.13555923
1748 0.4141061
1746 0.63217604
1744 0.72102201
1742 0.66136271
1740 0.52434552
1738 0.43181905
1736 0.447644
1734 0.56349176
1732 0.67916131
1730 0.65531206
1728 0.45870316
1726 0.15954663
1724 -0.10761207
1722 -0.18245651
1720 0.046716049
1718 0.62133086
1716 1.4541885
1714 2.3734396
1712 3.2494485
1710 4.0332174
1708 4.83498
1706 5.8818665
1704 7.3954268
1702 9.5559902
1700 12.454496
1698 16.043385
1696 19.938856
1694 23.55957
1692 26.62196
1690 29.196009
1688 31.69524
1686 34.729366
1684 38.716908
1682 43.745316
1680 49.254082
1678 54.328339
1676 58.774956
1674 63.080807
1672 67.724258
1670 72.943687
1668 78.396294
1666 83.334351
1664 87.317619
1662 90.290077
1660 92.40155
1658 93.912941
1656 95.057175
1654 95.989174
1652 96.715561
1650 97.099785
1648 96.891571
1646 95.840927
1644 94.076019
1642 92.036522
1640 89.984825
1638 87.924011
1636 85.669556
1634 82.947937
1632 79.678062
1630 75.970528
1628 71.915115
1626 67.544052
1624 62.876759
1622 57.952881
1620 52.914948
1618 47.991257
1616 43.365345
1614 39.154186
1612 35.440968
1610 32.27404
1608 29.628834
1606 27.418558
1604 25.570883
1602 24.045103
1600 22.818909
1598 21.881361
1596 21.212999
1594 20.78495
1592 20.578777
1590 20.586016
1588 20.801666
1586 21.221764
1584 21.835423
1582 22.637489
1580 23.682796
1578 25.083223
1576 26.929087
1574 29.249645
1572 31.937105
1570 34.763775
1568 37.555042
1566 40.231159
1564 42.789059
1562 45.31274
1560 48.021431
1558 51.163174
1556 54.488243
1554 57.258141
1552 58.989296
1550 59.644386
1548 59.518578
1546 59.112926
1544 58.640907
1542 57.937714
1540 56.73954
1538 54.818855
1536 52.259544
1534 49.46619
1532 46.781666
1530 44.373127
1528 42.241566
1526 40.24345
1524 38.22242
1522 36.060539
1520 33.729492
1518 31.305275
1516 28.934071
1514 26.782557
1512 24.847321
1510 22.924049
1508 20.807316
1506 18.385042
1504 15.774343
1502 13.315444
1500 11.226091
1498 9.5055838
1496 8.0481434
1494 6.6917863
1492 5.3561296
1490 4.0723796
1488 2.8803296
1486 1.803865
1484 0.8777476
1482 0.15612312
1480 -0.29622591
1478 -0.39897114
1476 -0.030570418
1474 0.93806452
1472 2.4263206
1470 4.10254
1468 5.6856356
1466 7.0530586
1464 8.2422571
1462 9.4395838
1460 10.786366
1458 12.294468
1456 13.7958
1454 14.953213
1452 15.556257
1450 15.621591
1448 15.269086
1446 14.680357
1444 13.993388
1442 13.26657
1440 12.533731
1438 11.809645
1436 11.071614
1434 10.260789
1432 9.3621073
1430 8.4346676
1428 7.5669198
1426 6.8595405
1424 6.3720789
1422 6.1007214
1420 6.0134563
1418 6.0598397
1416 6.1938114
1414 6.3842897
1412 6.6197033
1410 6.9102139
1408 7.260922
1406 7.6602564
1404 8.0769644
1402 8.4564142
1400 8.7362843
1398 8.8546677
1396 8.773921
1394 8.4961615
1392 8.0573788
1390 7.5274057
1388 6.9655185
1386 6.4040098
1384 5.8655281
1382 5.3665719
1380 4.9176631
1378 4.5190554
1376 4.1501112
1374 3.7643487
1372 3.3251882
1370 2.82234
1368 2.2641401
1366 1.6777893
1364 1.0906185
1362 0.52647221
1360 0.026760846
1358 -0.34181702
1356 -0.52410114
1354 -0.49495327
1352 -0.25312686
1350 0.17366797
1348 0.74105787
1346 1.3912499
1344 2.0796919
1342 2.7834239
1340 3.4586163
1338 4.0208983
1336 4.3838344
1334 4.4814367
1332 4.3044581
1330 3.9289961
1328 3.4466696
1326 2.9413507
1324 2.4839115
1322 2.1228735
1320 1.8799651
1318 1.7377852
1316 1.65499
1314 1.5689582
1312 1.436064
1310 1.2555211
1308 1.0485537
1306 0.85500634
1304 0.70329314
1302 0.59646302
1300 0.53807116
1298 0.54382622
1296 0.63955146
1294 0.86133677
1292 1.2315835
1290 1.7422482
1288 2.3647401
1286 3.0464792
1284 3.7279153
1282 4.3488464
1280 4.8599753
1278 5.2357168
1276 5.4763999
1274 5.6206732
1272 5.7192488
1270 5.8271413
1268 5.9876719
1266 6.2205734
1264 6.5381579
1262 6.9493237
1260 7.4623399
1258 8.0848913
1256 8.8183489
1254 9.6522083
1252 10.574217
1250 11.574512
1248 12.643851
1246 13.77625
1244 14.949314
1242 16.114531
1240 17.204536
1238 18.129213
1236 18.804556
1234 19.164728
1232 19.163401
1230 18.783634
1228 18.037857
1226 16.976349
1224 15.669223
1222 14.205961
1220 12.685857
1218 11.22089
1216 9.9210968
1214 8.8809481
1212 8.1685801
1210 7.7996306
1208 7.7450633
1206 7.9076481
1204 8.1640053
1202 8.3724747
1200 8.41259
1198 8.2201729
1196 7.7731075
1194 7.1118407
1192 6.3045988
1190 5.4461269
1188 4.6233816
1186 3.89116
1184 3.2740171
1182 2.7495675
1180 2.2939661
1178 1.9056091
1176 1.5983
1174 1.4053987
1172 1.3445566
1170 1.3875127
1168 1.4902177
1166 1.60007
1164 1.6787629
1162 1.7242371
1160 1.7416023
1158 1.7327237
1156 1.6935872
1154 1.610164
1152 1.4717469
1150 1.2813888
1148 1.0493808
1146 0.7958957
1144 0.5454762
1142 0.32697347
1140 0.15814079
1138 0.02974955
1136 -0.063449144
1134 -0.1035255
1132 -0.07894069
1130 -0.0068614185
1128 0.085661419
1126 0.16572957
1124 0.21168058
1122 0.23279865
1120 0.249764
1118 0.29149544
1116 0.37628171
1114 0.49124902
1112 0.61448389
1110 0.72158194
1108 0.79957104
1106 0.86540103
1104 0.94151092
1102 1.0448111
1100 1.1779648
1098 1.3120053
1096 1.4233571
1094 1.5233845
1092 1.645102
1090 1.853102
1088 2.1961982
1086 2.6598058
1084 3.1938479
1082 3.6959255
1080 4.0644116
1078 4.2339058
1076 4.1752114
1074 3.9317932
1072 3.5763447
1070 3.2113628
1068 2.9290721
1066 2.7729506
1064 2.7523119
1062 2.8152549
1060 2.8947678
1058 2.9243937
1056 2.8613884
1054 2.7284074
1052 2.5712376
1050 2.454098
1048 2.4242365
1046 2.4672427
1044 2.5529494
1042 2.6499691
1040 2.7429023
1038 2.8613327
1036 3.03756
1034 3.2776632
1032 3.5578086
1030 3.7857661
1028 3.8652341
1026 3.7387085
1024 3.3959434
1022 2.9372492
1020 2.4820275
1018 2.122668
1016 1.9151572
1014 1.8255354
1012 1.7909843
1010 1.7284763
1008 1.5646081
1006 1.2726934
1004 0.86120892
1002 0.41211909
1000 0.012022167
998 -0.29545829
996 -0.49329355
994 -0.61479795
992 -0.6993621
990 -0.76591301
988 -0.82273048
986 -0.86026841
984 -0.87006021
982 -0.86146164
980 -0.84815323
978 -0.84320551
976 -0.850914
974 -0.84727693
972 -0.80857301
970 -0.73547906
968 -0.64098531
966 -0.5587365
964 -0.51858002
962 -0.51996601
960 -0.54916358
958 -0.57341254
956 -0.56104058
954 -0.50080454
952 -0.39344281
950 -0.26390514
948 -0.14041018
946 -0.041071746
944 0.034014888
942 0.13951463
940 0.32636005
938 0.58306742
936 0.88033372
934 1.1804498
932 1.4454428
930 1.6428039
928 1.7429383
926 1.7198507
924 1.5618141
922 1.3072143
920 1.0188475
918 0.80276531
916 0.74518132
914 0.81309444
912 0.93561268
910 1.0105991
908 0.95988411
906 0.82865489
904 0.68838936
902 0.5925315
900 0.58148921
898 0.66172248
896 0.83121997
