##TITLE=Methyl Ethyl Ketone
##JCAMP-DX=4.24
##DATA TYPE=INFRARED SPECTRUM
##XUNITS=cm-1
##YUNITS=Absorbance
##FIRSTX=900
##LASTX=2300
##XYDATA=(X++(Y..Y))
2296 -0.013485
2294 -0.013765599
2292 -0.014046197
2290 -0.014326796
2288 -0.014607394
2286 -0.014887
2284 -0.015167591
2282 -0.01544819
2280 -0.015728788
2278 -0.016009387
2276 -0.016289987
2274 -0.016571568
2272 -0.0168512
2270 -0.017129818
2268 -0.01741234
2266 -0.017700806
2264 -0.01797376
2262 -0.018222952
2260 -0.018533951
2258 -0.018931143
2256 -0.019098399
2254 -0.01894295
2252 -0.01964215
2250 -0.021548027
2248 -0.020274486
2246 -0.011996822
2244 -0.00043427426
2242 0.0086571835
2240 0.0098455558
2238 -0.00028459949
2236 -0.017463468
2234 -0.035311684
2232 -0.047754873
2230 -0.048918065
2228 -0.033279877
2226 0.0011803999
2224 0.042749316
2222 0.078580767
2220 0.10750742
2218 0.13329037
2216 0.16556086
2214 0.21195957
2212 0.2651892
2210 0.31288892
2208 0.34054995
2206 0.33763435
2204 0.31204757
2202 0.2777786
2200 0.25038457
2198 0.2430995
2196 0.25810429
2194 0.29351085
2192 0.34487405
2190 0.40641844
2188 0.46984294
2186 0.52580637
2184 0.56395161
2182 0.57614005
2180 0.56461525
2178 0.53739297
2176 0.51226085
2174 0.50688022
2172 0.52562797
2170 0.56523591
2168 0.60931057
2166 0.63927799
2164 0.64513624
2162 0.62360442
2160 0.58683699
2158 0.5518775
2156 0.53466296
2154 0.54721063
2152 0.58748484
2150 0.64781255
2148 0.7171793
2146 0.78433317
2144 0.84124172
2142 0.88313138
2140 0.91384393
2138 0.9407469
2136 0.97327083
2134 1.0183939
2132 1.0704148
2130 1.1189086
2128 1.152584
2126 1.1625501
2124 1.1501552
2122 1.1223789
2120 1.0936955
2118 1.079713
2116 1.08796
2114 1.119328
2112 1.16028
2110 1.1942424
2108 1.2140963
2106 1.2190928
2104 1.2181195
2102 1.2214319
2100 1.2300841
2098 1.2415311
2096 1.2539142
2094 1.2663109
2092 1.2803164
2090 1.2980926
2088 1.3202126
2086 1.34553
2084 1.3663715
2082 1.3731275
2080 1.357816
2078 1.317667
2076 1.2691629
2074 1.2345585
2072 1.229332
2070 1.2597401
2068 1.30662
2066 1.3432649
2064 1.3522371
2062 1.3259988
2060 1.2806915
2058 1.239483
2056 1.2172056
2054 1.220369
2052 1.2381318
2050 1.2542115
2048 1.2576406
2046 1.2435071
2044 1.22031
2042 1.2017387
2040 1.1984366
2038 1.2163457
2036 1.2493072
2034 1.2858132
2032 1.3135537
2030 1.322531
2028 1.3106438
2026 1.2820135
2024 1.2501171
2022 1.2311922
2020 1.2351651
2018 1.266072
2016 1.31546
2014 1.3681645
2012 1.4052651
2010 1.4100107
2008 1.382256
2006 1.33191
2004 1.2788125
2002 1.243152
2000 1.2287931
1998 1.2304783
1996 1.2381001
1994 1.2410765
1992 1.2347457
1990 1.2178185
1988 1.191604
1986 1.1593179
1984 1.1266429
1982 1.1010156
1980 1.0915189
1978 1.1056799
1976 1.1422143
1974 1.19328
1972 1.2411311
1970 1.2665292
1968 1.2631897
1966 1.2345086
1964 1.1957332
1962 1.1652607
1960 1.151708
1958 1.1563271
1956 1.1710685
1954 1.1846976
1952 1.1906663
1950 1.1858783
1948 1.1700234
1946 1.143875
1944 1.1086286
1942 1.0661017
1940 1.0217158
1938 0.98199064
1936 0.95063514
1934 0.92877626
1932 0.9129042
1930 0.8969996
1928 0.87425458
1926 0.83952892
1924 0.79589987
1922 0.75175881
1920 0.71930277
1918 0.71003479
1916 0.72507244
1914 0.7584151
1912 0.79847974
1910 0.83265811
1908 0.85520381
1906 0.86518204
1904 0.86521161
1902 0.85811037
1900 0.84036791
1898 0.80644
1896 0.75783569
1894 0.70120627
1892 0.64675564
1890 0.60412788
1888 0.57339633
1886 0.54876751
1884 0.52351612
1882 0.49222827
1880 0.45538354
1878 0.41628656
1876 0.375615
1874 0.33304775
1872 0.29208547
1870 0.25950295
1868 0.24573471
1866 0.25980902
1864 0.29588482
1862 0.3391262
1860 0.37506971
1858 0.39258802
1856 0.39041573
1854 0.37206987
1852 0.33608633
1850 0.27837175
1848 0.19938479
1846 0.10679439
1844 0.026152754
1842 -0.011069529
1840 0.0049306396
1838 0.065849915
1836 0.14812085
1834 0.2232293
1832 0.27643931
1830 0.30390891
1828 0.30756703
1826 0.29249936
1824 0.26634365
1822 0.2369554
1820 0.20710999
1818 0.17573692
1816 0.13994628
1814 0.098145291
1812 0.058178596
1810 0.033388995
1808 0.033480614
1806 0.059921149
1804 0.091149628
1802 0.094085529
1800 0.051242504
1798 -0.035978656
1796 -0.13609071
1794 -0.2029749
1792 -0.2097156
1790 -0.15075544
1788 -0.047809411
1786 0.062120013
1784 0.14895292
1782 0.19266012
1780 0.18775551
1778 0.14034
1776 0.067277089
1774 -0.0076307468
1772 -0.057869237
1770 -0.063119575
1768 -0.03647504
1766 -0.0088772699
1764 0.01629523
1762 0.045070756
1760 0.021696514
1758 -0.13202146
1756 -0.37887657
1754 -0.60772669
1752 -0.7815991
1750 -0.92820239
1748 -1.0676124
1746 -1.2042714
1744 -1.3382599
1742 -1.4665983
1740 -1.5768269
1738 -1.6483953
1736 -1.65464
1734 -1.5712954
1732 -1.4011383
1730 -1.1706119
1728 -0.9180938
1726 -0.68162173
1724 -0.46910909
1722 -0.25318378
1720 0.04627794
1718 0.53055245
1716 1.2259991
1714 2.0859833
1712 3.0206234
1710 3.9359972
1708 4.8328381
1706 5.8008642
1704 6.9810472
1702 8.5627222
1700 10.828777
1698 14.037074
1696 17.992428
1694 22.14082
1692 26.007343
1690 29.331591
1688 32.283997
1686 35.352257
1684 38.94989
1682 43.255783
1680 47.886841
1678 52.124863
1676 55.769772
1674 59.14642
1672 62.672215
1670 66.672699
1668 71.062325
1666 75.437851
1664 79.532761
1662 83.270493
1660 86.650017
1658 89.706947
1656 92.493317
1654 95.048294
1652 97.311157
1650 99.109474
1648 100.13738
1646 100.07357
1644 98.981636
1642 97.246521
1640 95.080704
1638 92.466209
1636 89.337616
1634 85.663109
1632 81.594574
1630 77.414055
1628 73.229958
1626 68.964607
1624 64.562477
1622 60.044128
1620 55.52565
1618 51.190357
1616 47.166344
1614 43.512924
1612 40.274372
1610 37.481258
1608 35.107754
1606 33.07856
1604 31.331238
1602 29.829548
1600 28.558189
1598 27.514168
1596 26.684999
1594 26.045788
1592 25.569149
1590 25.229193
1588 25.006948
1586 24.892935
1584 24.877726
1582 24.95525
1580 25.146029
1578 25.494318
1576 26.041086
1574 26.810045
1572 27.774035
1570 28.857126
1568 29.98864
1566 31.11565
1564 32.200817
1562 33.257305
1560 34.475052
1558 36.176521
1556 38.4552
1554 41.093559
1552 43.699875
1550 45.821503
1548 47.311462
1546 48.359108
1544 49.104477
1542 49.560043
1540 49.734718
1538 49.663494
1536 49.377514
1534 48.897686
1532 48.242649
1530 47.428333
1528 46.463001
1526 45.344749
1524 44.070148
1522 42.639683
1520 41.071812
1518 39.404827
1516 37.692284
1514 35.978714
1512 34.202839
1510 32.194141
1508 29.821117
1506 27.065414
1504 24.106777
1502 21.298944
1500 18.84197
1498 16.694849
1496 14.735572
1494 12.819624
1492 10.876664
1490 8.935792
1488 7.0534754
1486 5.2939992
1484 3.7321801
1482 2.4426322
1480 1.444486
1478 0.7014972
1476 0.2426261
1474 0.17312478
1472 0.50083685
1470 1.0900748
1468 1.7863351
1466 2.4620156
1464 3.0561559
1462 3.5846045
1460 4.0668864
1458 4.504807
1456 4.8910198
1454 5.2111073
1452 5.4499316
1450 5.5951147
1448 5.6435246
1446 5.6034431
1444 5.485467
1442 5.2976899
1440 5.0359497
1438 4.6816487
1436 4.22014
1434 3.652638
1432 3.0178149
1430 2.3966756
1428 1.855726
1426 1.4268836
1424 1.1253438
1422 0.95495528
1420 0.925717
1418 1.05516
1416 1.3391458
1414 1.73999
1412 2.2099006
1410 2.7010493
1408 3.1870961
1406 3.6704328
1404 4.1486802
1402 4.6027699
1400 5.006844
1398 5.3335614
1396 5.5717931
1394 5.7339854
1392 5.8327341
1390 5.8719058
1388 5.8445129
1386 5.7328749
1384 5.5306568
1382 5.2517896
1380 4.9131632
1378 4.5293283
1376 4.1129026
1374 3.6762033
1372 3.2400179
1370 2.8343356
1368 2.4678953
1366 2.1138065
1364 1.7410551
1362 1.3305424
1360 0.89968598
1358 0.51504838
1356 0.23162684
1354 0.065957338
1352 0.0055373693
1350 0.0080085602
1348 0.038602103
1346 0.085694715
1344 0.14530641
1342 0.21667936
1340 0.29548332
1338 0.37125427
1336 0.43712914
1334 0.4943839
1332 0.54623222
1330 0.59629351
1328 0.64942837
1326 0.71234059
1324 0.79180688
1322 0.89333951
1320 1.0179269
1318 1.1590923
1316 1.30664
1314 1.4474546
1312 1.5697892
1310 1.6662152
1308 1.7340789
1306 1.7771171
1304 1.8017462
1302 1.816135
1300 1.8290904
1298 1.8495142
1296 1.8848143
1294 1.9397843
1292 2.0168209
1290 2.114989
1288 2.232132
1286 2.3650243
1284 2.5099702
1282 2.6628492
1280 2.8189611
1278 2.9732196
1276 3.1221843
1274 3.2665639
1272 3.4137492
1270 3.5816455
1268 3.7877433
1266 4.0436249
1264 4.3542895
1262 4.7152519
1260 5.124228
1258 5.5861268
1256 6.1044517
1254 6.6764832
1252 7.2934766
1250 7.9386292
1248 8.5975771
1246 9.2629251
1244 9.9246464
1242 10.56351
1240 11.151491
1238 11.647447
1236 12.015142
1234 12.23735
1232 12.3062
1230 12.228819
1228 12.019382
1226 11.693299
1224 11.267732
1222 10.760833
1220 10.192587
1218 9.5860567
1216 8.9633064
1214 8.3468189
1212 7.7517052
1210 7.1792707
1208 6.6237726
1206 6.072752
1204 5.515976
1202 4.9508553
1200 4.3789644
1198 3.8054898
1196 3.2356429
1194 2.6734984
1192 2.1253793
1190 1.6039431
1188 1.1250989
1186 0.70816767
1184 0.36940128
1182 0.11626375
1180 -0.048648462
1178 -0.12926349
1176 -0.13460541
1174 -0.081948183
1172 0.0058261454
1170 0.098482363
1168 0.17019847
1166 0.20975372
1164 0.21693075
1162 0.20795339
1160 0.19907999
1158 0.19731981
1156 0.20312615
1154 0.20722757
1152 0.20009212
1150 0.17703107
1148 0.13674228
1146 0.08352457
1144 0.027529024
1142 -0.011070168
1140 -0.013680383
1138 0.029376663
1136 0.128904
1134 0.30213451
1132 0.55727935
1130 0.87706149
1128 1.2346686
1126 1.5960321
1124 1.9344001
1122 2.2451403
1120 2.536092
1118 2.830301
1116 3.145247
1114 3.4747775
1112 3.8067582
1110 4.1286731
1108 4.434186
1106 4.7325649
1104 5.0341711
1102 5.3420882
1100 5.6556273
1098 5.968668
1096 6.2733717
1094 6.5609717
1092 6.8299398
1090 7.0979295
1088 7.3848767
1086 7.7029929
1084 8.0486374
1082 8.3821487
1080 8.6637611
1078 8.8774033
1076 9.0213289
1074 9.1163988
1072 9.182004
1070 9.2195549
1068 9.2264347
1066 9.2007093
1064 9.1421595
1062 9.054781
1060 8.9422445
1058 8.8052168
1056 8.6454773
1054 8.4691286
1052 8.2796116
1050 8.0693312
1048 7.8269939
1046 7.540257
1044 7.2079744
1042 6.8610706
1040 6.5349593
1038 6.2537584
1036 6.0240498
1034 5.8107033
1032 5.5728307
1030 5.2829561
1028 4.9270744
1026 4.5217137
1024 4.0900269
1022 3.653532
1020 3.2310915
1018 2.8336401
1016 2.4694972
1014 2.1431065
1012 1.8557223
1010 1.6013656
1008 1.371588
1006 1.1559922
1004 0.94679713
1002 0.74576336
1000 0.55756903
998 0.38873839
996 0.24386001
994 0.11990884
992 0.012401335
990 -0.081833094
988 -0.16547853
986 -0.24067836
984 -0.30883938
982 -0.36931065
980 -0.4178752
978 -0.44026506
976 -0.41905171
974 -0.33473668
972 -0.17369212
970 0.056055486
968 0.33242255
966 0.60403198
964 0.81824231
962 0.94303131
960 0.96356285
958 0.90611875
956 0.80409527
954 0.67996502
952 0.54859197
950 0.40800399
948 0.25970998
946 0.13174501
944 0.048614059
942 -0.00092101842
940 -0.027473647
938 -0.0077124387
936 0.07982029
934 0.21920028
932 0.38732356
930 0.56883335
928 0.75089854
926 0.92297643
924 1.075052
922 1.1967006
920 1.276396
918 1.2984165
916 1.2543471
914 1.1666027
912 1.0660619
910 0.98451054
908 0.94486451
906 0.93386757
904 0.94081795
902 1.0002533
900 1.1480649
898 1.3805342
896 1.684
