##TITLE=Methyl Ethyl Ketone
##JCAMP-DX=4.24
##DATA TYPE=INFRARED SPECTRUM
##XUNITS=cm-1
##YUNITS=Absorbance
##FIRSTX=900
##LASTX=2300
##XYDATA=(X++(Y..Y))
2296 0.01637
2294 0.016710512
2292 0.017051026
2290 0.017391538
2288 0.017732052
2286 0.018072564
2284 0.018413078
2282 0.01875359
2280 0.019094104
2278 0.019434616
2276 0.01977513
2274 0.020116625
2272 0.020457154
2270 0.020794723
2268 0.021138119
2266 0.021488478
2264 0.021819433
2262 0.02212069
2260 0.022499202
2258 0.022986673
2256 0.023185542
2254 0.02297857
2252 0.023844682
2250 0.026224123
2248 0.024614966
2246 0.014398179
2244 0.0011356303
2242 -0.0080727143
2240 -0.011452728
2238 -0.012091835
2236 -0.026537186
2234 -0.067218825
2232 -0.11456098
2230 -0.14510657
2228 -0.15711842
2226 -0.15721349
2224 -0.16010211
2222 -0.17611517
2220 -0.18866065
2218 -0.17824408
2216 -0.146042
2214 -0.1025744
2212 -0.070950516
2210 -0.071796335
2208 -0.10074047
2206 -0.14428121
2204 -0.18289511
2202 -0.19927226
2200 -0.19204548
2198 -0.16559531
2196 -0.12742643
2194 -0.085586883
2192 -0.046751175
2190 -0.019466916
2188 -0.02168538
2186 -0.070457228
2184 -0.16696687
2182 -0.30092695
2180 -0.43617943
2178 -0.53334808
2176 -0.57356173
2174 -0.55050051
2172 -0.48110202
2170 -0.38915098
2168 -0.29583034
2166 -0.22116835
2164 -0.18470164
2162 -0.19848397
2160 -0.24435651
2158 -0.29201701
2156 -0.303352
2154 -0.25089458
2152 -0.16089949
2150 -0.074879006
2148 -0.021029256
2146 -0.012741785
2144 -0.023578668
2142 -0.018597191
2140 0.015486214
2138 0.08092276
2136 0.16761011
2134 0.25940958
2132 0.33251682
2130 0.3641755
2128 0.34700081
2126 0.28533056
2124 0.20879917
2122 0.15021503
2120 0.11830789
2118 0.11249422
2116 0.13157672
2114 0.1741381
2112 0.23737834
2110 0.31416407
2108 0.38152072
2106 0.41535378
2104 0.41151428
2102 0.37604681
2100 0.3248826
2098 0.27313054
2096 0.21795
2094 0.15381804
2092 0.09328422
2090 0.056832265
2088 0.067536891
2086 0.1386905
2084 0.23985302
2082 0.32784185
2080 0.37860268
2078 0.38447687
2076 0.3713353
2074 0.37163782
2072 0.39033601
2070 0.41875589
2068 0.44003496
2066 0.44034842
2064 0.43029416
2062 0.42945939
2060 0.45230979
2058 0.50441754
2056 0.56512374
2054 0.60587728
2052 0.61053854
2050 0.57540512
2048 0.52470767
2046 0.48907962
2044 0.4773986
2042 0.48335892
2040 0.47852275
2038 0.43445078
2036 0.36077642
2034 0.28592917
2032 0.24574538
2030 0.26682979
2028 0.32704467
2026 0.38695136
2024 0.42567068
2022 0.44081542
2020 0.46818
2018 0.5494197
2016 0.68070602
2014 0.83082986
2012 0.94368774
2010 0.96610779
2008 0.90029627
2006 0.78026885
2004 0.66475004
2002 0.61306846
2000 0.64514202
1998 0.75238967
1996 0.88579357
1994 0.98512596
1992 1.0185697
1990 0.97821647
1988 0.89719778
1986 0.8242743
1984 0.79564983
1982 0.83367532
1980 0.93226773
1978 1.070178
1976 1.2180885
1974 1.347118
1972 1.4424425
1970 1.4978118
1968 1.5119457
1966 1.4873201
1964 1.4343915
1962 1.3683183
1960 1.30716
1958 1.2663741
1956 1.24518
1954 1.2355833
1952 1.2361382
1950 1.2481928
1948 1.2684314
1946 1.2901751
1944 1.3030109
1942 1.2989252
1940 1.2874532
1938 1.2847465
1936 1.2957457
1934 1.3164046
1932 1.334584
1930 1.338309
1928 1.3347092
1926 1.3425493
1924 1.3860388
1922 1.4824601
1920 1.6103114
1918 1.728425
1916 1.8015672
1914 1.8073927
1912 1.7584605
1910 1.6826605
1908 1.5948092
1906 1.5010921
1904 1.408792
1902 1.3280137
1900 1.2754911
1898 1.269312
1896 1.3170571
1894 1.4161805
1892 1.5467638
1890 1.676173
1888 1.7568731
1886 1.7429664
1884 1.628924
1882 1.4397043
1880 1.228824
1878 1.0580605
1876 0.96242297
1874 0.95423013
1872 1.0206212
1870 1.1332686
1868 1.2546614
1866 1.3474829
1864 1.3956012
1862 1.3994451
1860 1.3743969
1858 1.3405561
1856 1.3046714
1854 1.2646652
1852 1.2205666
1850 1.1743091
1848 1.1263521
1846 1.0764643
1844 1.02702
1842 0.98344165
1840 0.95705235
1838 0.96015996
1836 0.99385315
1834 1.05232
1832 1.1323994
1830 1.2300824
1828 1.3272434
1826 1.3945386
1824 1.3933772
1822 1.2902724
1820 1.095518
1818 0.85217381
1816 0.621198
1814 0.46480668
1812 0.41351688
1810 0.46976364
1808 0.6074751
1806 0.78106797
1804 0.9307059
1802 0.99798143
1800 0.9651075
1798 0.85278016
1796 0.7283293
1794 0.67403358
1792 0.71262443
1790 0.81703359
1788 0.93369263
1786 1.0048364
1784 1.0115074
1782 0.96759945
1780 0.90775269
1778 0.87125599
1776 0.86948287
1774 0.88623255
1772 0.8746531
1770 0.78174442
1768 0.61296457
1766 0.41809314
1764 0.24875581
1762 0.13629612
1760 0.039350055
1758 -0.11333453
1756 -0.29251599
1754 -0.39765111
1752 -0.36712199
1750 -0.1951303
1748 0.047478884
1746 0.24603643
1744 0.31882143
1742 0.23454042
1740 0.050030958
1738 -0.12716269
1736 -0.23842999
1734 -0.27971894
1732 -0.28970656
1730 -0.32236677
1728 -0.38283777
1726 -0.43267593
1724 -0.42076373
1722 -0.29534599
1720 -0.019119821
1718 0.42579812
1716 1.0211147
1714 1.7155666
1712 2.4273067
1710 3.0792251
1708 3.710108
1706 4.4572058
1704 5.4769983
1702 6.9258189
1700 8.9567986
1698 11.658528
1696 14.828571
1694 18.05361
1692 21.027056
1690 23.634665
1688 26.077869
1686 28.778557
1684 32.074913
1682 36.0896
1680 40.436279
1678 44.428299
1676 47.868359
1674 51.054279
1672 54.378262
1670 58.153671
1668 62.309395
1666 66.476349
1664 70.416092
1662 74.070229
1660 77.455849
1658 80.630112
1656 83.66523
1654 86.621552
1652 89.468742
1650 92.063728
1648 94.100922
1646 95.216072
1644 95.389198
1642 94.905807
1640 93.948822
1638 92.535446
1636 90.604668
1634 88.089363
1632 85.097534
1630 81.880585
1628 78.577087
1626 75.18203
1624 71.637199
1622 67.87587
1620 63.906914
1618 59.81916
1616 55.733002
1614 51.783936
1612 48.116512
1610 44.859661
1608 42.035965
1606 39.566414
1604 37.370113
1602 35.394951
1600 33.629761
1598 32.097984
1596 30.810501
1594 29.754353
1592 28.899685
1590 28.205675
1588 27.645834
1586 27.212643
1584 26.905582
1582 26.731039
1580 26.710735
1578 26.877991
1576 27.2628
1574 27.877949
1572 28.68819
1570 29.612171
1568 30.57272
1566 31.514286
1564 32.412453
1562 33.300095
1560 34.354946
1558 35.848305
1556 37.803329
1554 39.94973
1552 41.967888
1550 43.599453
1548 44.841354
1546 45.935467
1544 47.044491
1542 48.165569
1540 49.16888
1538 49.839725
1536 50.045029
1534 49.78651
1532 49.199818
1530 48.51387
1528 47.828903
1526 47.072498
1524 46.130646
1522 44.904423
1520 43.394585
1518 41.716385
1516 40.016758
1514 38.411732
1512 36.822079
1510 34.966122
1508 32.651176
1506 29.882858
1504 26.902344
1502 24.136797
1500 21.800255
1498 19.792891
1496 17.938286
1494 16.06377
1492 14.083265
1490 12.015606
1488 9.8921385
1486 7.7435541
1484 5.6615982
1482 3.8033209
1480 2.2742097
1478 1.1094506
1476 0.39446545
1474 0.26136124
1472 0.66282386
1470 1.327849
1468 2.0384085
1466 2.716218
1464 3.3631332
1462 4.0320168
1460 4.7117057
1458 5.2966337
1456 5.6810999
1454 5.8039441
1452 5.7095256
1450 5.5527682
1448 5.4239054
1446 5.2977324
1444 5.1402645
1442 4.9393439
1440 4.6891837
1438 4.3828259
1436 3.9945514
1434 3.482975
1432 2.8537993
1430 2.1828036
1428 1.56552
1426 1.095526
1424 0.82188272
1422 0.72916782
1420 0.77375501
1418 0.89526677
1416 1.04814
1414 1.21585
1412 1.404274
1410 1.639201
1408 1.9340954
1406 2.27722
1404 2.6458182
1402 3.0100276
1400 3.344892
1398 3.6372609
1396 3.8887358
1394 4.1163507
1392 4.329289
1390 4.5171628
1388 4.6487894
1386 4.6738701
1384 4.5671825
1382 4.3492804
1380 4.061183
1378 3.755275
1376 3.4617658
1374 3.1738126
1372 2.8803
1370 2.5770383
1368 2.2646945
1366 1.9479078
1364 1.625284
1362 1.2878335
1360 0.94213742
1358 0.6204856
1356 0.35502774
1354 0.16569322
1352 0.052417994
1350 -0.010112606
1348 -0.040854432
1346 -0.039400894
1344 0.00043075904
1342 0.084041193
1340 0.19844182
1338 0.30223855
1336 0.35378429
1334 0.32584223
1332 0.22076257
1330 0.083323948
1328 -0.036741793
1326 -0.099299386
1324 -0.078691125
1322 0.028335251
1320 0.20827502
1318 0.42791742
1316 0.64880097
1314 0.83332855
1312 0.957627
1310 1.0215929
1308 1.0356685
1306 1.0187892
1304 0.98969346
1302 0.96298534
1300 0.95041943
1298 0.9592576
1296 0.99024284
1294 1.0350143
1292 1.0868945
1290 1.1467527
1288 1.221468
1286 1.3247421
1284 1.461862
1282 1.6201102
1280 1.7807623
1278 1.9228883
1276 2.0363286
1274 2.1312461
1272 2.2245972
1270 2.3371923
1268 2.4889123
1266 2.6961572
1264 2.9702439
1262 3.3133891
1260 3.7164178
1258 4.1537433
1256 4.6015029
1254 5.0478301
1252 5.4923878
1250 5.9508448
1248 6.4388371
1246 6.9641247
1244 7.5266886
1242 8.1141434
1240 8.7071514
1238 9.2782278
1236 9.7951212
1234 10.221362
1232 10.52188
1230 10.667339
1228 10.6448
1226 10.475772
1224 10.189798
1222 9.8145885
1220 9.3729267
1218 8.8797188
1216 8.3532085
1214 7.8219128
1212 7.3101778
1210 6.8278646
1208 6.3730731
1206 5.9276466
1204 5.4756999
1202 5.0141277
1200 4.5416679
1198 4.0542369
1196 3.5425713
1194 2.9906015
1192 2.396513
1190 1.7926769
1188 1.2222922
1186 0.73249197
1184 0.3561053
1182 0.093002364
1180 -0.065581381
1178 -0.13084468
1176 -0.1175184
1174 -0.047689423
1172 0.0485662
1170 0.12876083
1168 0.15829915
1166 0.12806386
1164 0.046322741
1162 -0.054052763
1160 -0.14107983
1158 -0.1988741
1156 -0.22344857
1154 -0.22857523
1152 -0.2272528
1150 -0.22082654
1148 -0.20637061
1146 -0.17780358
1144 -0.13169353
1142 -0.073047034
1140 -0.012858531
1138 0.031183606
1136 0.06272012
1134 0.1377141
1132 0.30890363
1130 0.5902741
1128 0.97449988
1126 1.4253793
1124 1.9010777
1122 2.3633883
1120 2.7831039
1118 3.1507599
1116 3.4641442
1114 3.7266023
1112 3.9435649
1110 4.1220245
1108 4.2757654
1106 4.4344802
1104 4.6264277
1102 4.86625
1100 5.1554308
1098 5.4716301
1096 5.7912998
1094 6.1039348
1092 6.4116759
1090 6.7407942
1088 7.1143303
1086 7.5301075
1084 7.9712338
1082 8.3989944
1080 8.7811251
1078 9.1154528
1076 9.4096041
1074 9.6775656
1072 9.9245148
1070 10.129395
1068 10.267845
1066 10.330393
1064 10.31916
1062 10.259396
1060 10.176989
1058 10.081399
1056 9.9683914
1054 9.8155832
1052 9.6021366
1050 9.3257952
1048 8.9994354
1046 8.665678
1044 8.3663597
1042 8.120821
1040 7.9300246
1038 7.7588458
1036 7.5714202
1034 7.3556318
1032 7.1064224
1030 6.822463
1028 6.5002031
1026 6.1272502
1024 5.6972303
1022 5.2299008
1020 4.7502589
1018 4.2809472
1016 3.8396513
1014 3.4303775
1012 3.0498667
1010 2.6832786
1008 2.319736
1006 1.9694629
1004 1.6543994
1002 1.415247
1000 1.2813075
998 1.2329676
996 1.2363071
994 1.251433
992 1.2395799
990 1.1713254
988 1.0229156
986 0.78346813
984 0.4593201
982 0.10297656
980 -0.224728
978 -0.47346026
976 -0.6085397
974 -0.63833749
972 -0.57965809
970 -0.44174862
968 -0.22878061
966 0.06517911
964 0.43395036
962 0.82161194
960 1.1610886
958 1.3897631
956 1.4612814
954 1.3808823
952 1.1719323
950 0.87416852
948 0.54083681
946 0.25584397
944 0.084471993
942 -0.0016935244
940 -0.053551164
938 -0.1188324
936 -0.23179971
934 -0.38044393
932 -0.53161651
930 -0.61755663
928 -0.58734685
926 -0.48448843
924 -0.38085219
922 -0.36577624
920 -0.49927273
918 -0.71421522
916 -0.91802675
914 -1.0420785
912 -1.047383
910 -0.98467094
908 -0.91595101
906 -0.85789651
904 -0.81123734
902 -0.75824779
900 -0.68313026
898 -0.59584123
896 -0.51279002
