##TITLE=Methyl Ethyl Ketone
##JCAMP-DX=4.24
##DATA TYPE=INFRARED SPECTRUM
##XUNITS=cm-1
##YUNITS=Absorbance
##FIRSTX=900
##LASTX=2300
##XYDATA=(X++(Y..Y))
2296 0.049231999
2294 0.050256535
2292 0.05128007
2290 0.052304603
2288 0.053329136
2286 0.054352678
2284 0.055377204
2282 0.056401741
2280 0.057426274
2278 0.05844982
2276 0.059474342
2274 0.060498878
2272 0.061522428
2270 0.062546946
2268 0.063571483
2266 0.064595036
2264 0.065619543
2262 0.066643104
2260 0.067667618
2258 0.068692148
2256 0.069716685
2254 0.070740253
2252 0.071764752
2250 0.072789289
2248 0.073812857
2246 0.074837357
2244 0.013136562
2242 0.0046141632
2240 -0.023938568
2238 -0.09825892
2236 -0.17918785
2234 -0.34145236
2232 -0.50753635
2230 -0.628025
2228 -0.72587001
2226 -0.66040355
2224 -0.57419372
2222 -0.43103933
2220 -0.32783961
2218 -0.35561776
2216 -0.43535629
2214 -0.61250204
2212 -0.7594642
2210 -0.84779781
2208 -0.88145232
2206 -0.85142404
2204 -0.82741439
2202 -0.81310916
2200 -0.85071391
2198 -0.92664802
2196 -1.0329463
2194 -1.1552022
2192 -1.2028022
2190 -1.2170839
2188 -1.1303287
2186 -1.0115993
2184 -0.91285998
2182 -0.81920439
2180 -0.84568942
2178 -0.89060903
2176 -0.97887599
2174 -1.0630227
2172 -1.0551703
2170 -1.035773
2168 -1.0001649
2166 -0.98190099
2164 -1.0326579
2162 -1.0809631
2160 -1.105092
2158 -1.1007098
2156 -1.04708
2154 -0.99764627
2152 -0.96176958
2150 -0.91957891
2148 -0.86865765
2146 -0.78901821
2144 -0.68477279
2142 -0.62711143
2140 -0.6036219
2138 -0.69202936
2136 -0.83948171
2134 -0.99742687
2132 -1.1574103
2130 -1.1809597
2128 -1.16092
2126 -1.0845635
2124 -0.99593955
2122 -0.98955625
2120 -0.99780756
2118 -1.033116
2116 -1.0706043
2114 -1.0956711
2112 -1.1205881
2110 -1.153036
2108 -1.1882328
2106 -1.2282629
2104 -1.2682281
2102 -1.3064343
2100 -1.3393919
2098 -1.3637329
2096 -1.3864572
2094 -1.4085257
2092 -1.4557811
2090 -1.5291406
2088 -1.6226628
2086 -1.729905
2084 -1.806294
2082 -1.8612208
2080 -1.8883132
2078 -1.9022691
2076 -1.9058857
2074 -1.9058634
2072 -1.871276
2070 -1.8257064
2068 -1.7415178
2066 -1.6479594
2064 -1.5477365
2062 -1.4546102
2060 -1.4501917
2058 -1.4831101
2056 -1.6248714
2054 -1.7758961
2052 -1.8828503
2050 -1.9422034
2048 -1.9009235
2046 -1.8385142
2044 -1.77318
2042 -1.7268381
2040 -1.7103748
2038 -1.7159046
2036 -1.7414585
2034 -1.7912006
2032 -1.8606343
2030 -1.939929
2028 -2.0241094
2026 -2.0748651
2024 -2.1036456
2022 -2.0350883
2020 -1.9176457
2018 -1.7863696
2016 -1.65214
2014 -1.6345433
2012 -1.6565894
2010 -1.6743314
2008 -1.6868137
2006 -1.6391706
2004 -1.5847082
2002 -1.589995
2000 -1.6278931
1998 -1.7397796
1996 -1.8801929
1994 -2.0495617
1992 -2.2164798
1990 -2.362694
1988 -2.445626
1986 -2.4283786
1984 -2.3332703
1982 -2.1628432
1980 -1.9826448
1978 -1.810396
1976 -1.6423086
1974 -1.47618
1972 -1.2580005
1970 -0.99955589
1968 -0.79499167
1966 -0.62938237
1964 -0.72437513
1962 -0.95397747
1960 -1.2771
1958 -1.6336616
1956 -1.8183471
1954 -1.9367583
1952 -1.943252
1950 -1.915647
1948 -1.8937211
1946 -1.885625
1944 -1.9426143
1942 -2.027998
1940 -2.1465716
1938 -2.25822
1936 -2.3260827
1934 -2.3519888
1932 -2.3181381
1930 -2.2395103
1928 -2.1150429
1926 -1.9444849
1924 -1.7292968
1922 -1.4785037
1920 -1.202764
1918 -1.0232304
1916 -0.93766773
1914 -0.96528918
1912 -1.0632033
1910 -1.1584787
1908 -1.2430248
1906 -1.4069672
1904 -1.6155521
1902 -1.813825
1900 -2.0052612
1898 -1.978238
1896 -1.8597857
1894 -1.6690416
1892 -1.469648
1890 -1.404502
1888 -1.4290555
1886 -1.6202729
1884 -1.8816849
1882 -2.1680279
1880 -2.4115343
1878 -2.5331233
1876 -2.5204
1874 -2.3353267
1872 -2.0122046
1870 -1.5652741
1868 -1.1870749
1866 -0.94596457
1864 -0.96228284
1862 -1.2115171
1860 -1.5313103
1858 -1.8590884
1856 -2.1161056
1854 -2.3157246
1852 -2.4109452
1850 -2.442287
1848 -2.32986
1846 -2.1375108
1844 -1.9904562
1842 -1.8762984
1840 -1.9603555
1838 -2.1336951
1836 -2.2636571
1834 -2.3359129
1832 -2.2034051
1830 -1.9493052
1828 -1.589886
1826 -1.2576386
1824 -1.1271783
1822 -1.1817099
1820 -1.452264
1818 -1.7644808
1816 -1.9997286
1814 -2.0990925
1812 -2.0415707
1810 -1.9312246
1808 -1.8214383
1806 -1.72145
1804 -1.6319689
1802 -1.4942038
1800 -1.3083651
1798 -1.0706314
1796 -0.79937071
1794 -0.4959484
1792 -0.17558457
1790 0.01911376
1788 0.13027401
1786 0.10486743
1784 0.0094875563
1782 -0.0070419088
1780 0.041908439
1778 0.23985121
1776 0.52755976
1774 0.86018729
1772 1.1373672
1770 1.1611466
1768 0.99175948
1766 0.64671457
1764 0.3109954
1762 0.15756549
1760 0.049296685
1758 -0.10811327
1756 -0.18650585
1754 -0.12661557
1752 0.20940752
1750 0.82580739
1748 1.4982623
1746 2.1371465
1744 2.3908753
1742 2.2829676
1740 2.104722
1738 1.9316334
1736 2.03896
1734 2.3634458
1732 2.407593
1730 2.2204468
1728 1.5606995
1726 0.6245681
1724 -0.014670402
1722 -0.32911229
1720 0.14487126
1718 1.3020347
1716 2.9821587
1714 4.7137704
1712 5.8155775
1710 6.4968624
1708 6.993454
1706 7.7281494
1704 9.0950375
1702 11.284009
1700 14.343908
1698 17.933466
1696 21.763857
1694 25.10911
1692 27.741373
1690 30.158052
1688 32.580685
1686 35.869446
1684 40.031734
1682 44.687229
1680 49.645561
1678 53.740116
1676 57.073341
1674 60.583031
1672 64.324959
1670 68.754852
1668 73.660973
1666 78.292549
1664 82.639984
1662 86.611107
1660 90.276215
1658 93.769218
1656 97.120544
1654 100.38386
1652 103.2694
1650 105.43943
1648 106.09274
1646 104.60072
1644 101.74097
1642 98.287895
1640 94.683586
1638 91.2174
1636 87.349831
1634 82.891747
1632 78.164955
1630 73.316383
1628 68.715958
1626 64.419846
1624 60.021641
1622 55.473202
1620 50.985092
1618 46.578373
1616 42.402687
1614 38.478039
1612 34.933598
1610 31.800499
1608 29.146965
1606 26.956421
1604 25.09017
1602 23.551786
1600 22.289915
1598 21.306227
1596 20.560501
1594 20.026667
1592 19.640377
1590 19.377934
1588 19.198305
1586 19.156572
1584 19.281355
1582 19.64801
1580 20.283192
1578 21.256622
1576 22.576799
1574 24.092901
1572 25.741785
1570 27.237228
1568 28.515961
1566 29.679071
1564 30.749451
1562 32.17585
1560 34.073776
1558 36.906036
1556 40.623314
1554 43.983631
1552 46.807755
1550 48.724411
1548 49.904964
1546 51.230896
1544 52.724281
1542 54.372959
1540 55.699741
1538 55.948483
1536 55.077259
1534 53.225296
1532 51.000526
1530 49.090706
1528 47.533627
1526 46.344299
1524 45.25359
1522 44.09103
1520 42.530418
1518 40.389137
1516 38.079399
1514 35.720165
1512 33.564922
1510 31.705345
1508 29.431202
1506 26.572657
1504 23.396942
1502 19.908688
1500 16.960123
1498 14.6568
1496 12.627857
1494 10.909578
1492 9.3324308
1490 7.8792758
1488 6.4085503
1486 4.8962121
1484 3.3070619
1482 1.8079383
1480 0.67865908
1478 0.037768424
1476 0.021893993
1474 0.59132445
1472 1.5702308
1470 2.5346141
1468 3.1770184
1466 3.6105199
1464 3.8828707
1462 4.2986016
1460 5.0319815
1458 5.9101486
1456 6.9215603
1454 7.5368147
1452 7.5019851
1450 7.1748147
1448 6.4618301
1446 5.7953711
1444 5.2092304
1442 4.7402868
1440 4.4458389
1438 4.3105402
1436 4.3391471
1434 4.3353882
1432 4.2427611
1430 3.9528687
1428 3.52811
1426 3.1907387
1424 3.0203068
1422 3.1250579
1420 3.4286714
1418 3.8046408
1416 4.1269884
1414 4.2471061
1412 4.2705379
1410 4.2720704
1408 4.3492594
1406 4.5936856
1404 4.9446278
1402 5.4218082
1400 5.9138641
1398 6.396471
1396 6.7421784
1394 6.8297844
1392 6.7466526
1390 6.3798552
1388 5.9784431
1386 5.5293951
1384 5.0982785
1382 4.7000732
1380 4.3474436
1378 4.0638022
1376 3.8462884
1374 3.6980829
1372 3.5597901
1370 3.4201829
1368 3.253752
1366 3.0536628
1364 2.8189249
1362 2.520951
1360 2.1071925
1358 1.622795
1356 1.0964798
1354 0.61793029
1352 0.29376948
1350 0.069963463
1348 -0.022441477
1346 -0.05049907
1344 0.013109799
1342 0.15880899
1340 0.46163297
1338 0.75148588
1336 0.99048513
1334 1.0951951
1332 0.95743251
1330 0.80931491
1328 0.66719866
1326 0.64513016
1324 0.80961901
1322 1.0935434
1320 1.5189211
1318 1.964937
1316 2.3952301
1314 2.6971977
1312 2.8515484
1310 2.8638713
1308 2.7741003
1306 2.6669357
1304 2.5635085
1302 2.499918
1300 2.4576752
1298 2.4257176
1296 2.3963857
1294 2.3629344
1292 2.338402
1290 2.3392789
1288 2.35904
1286 2.418155
1284 2.4866295
1282 2.5716565
1280 2.6599669
1278 2.7562127
1276 2.8624001
1274 2.989651
1272 3.1267526
1270 3.2829916
1268 3.4536996
1266 3.6521378
1264 3.8933291
1262 4.186377
1260 4.501842
1258 4.8284678
1256 5.1177659
1254 5.3815331
1252 5.6561322
1250 5.961957
1248 6.3545985
1246 6.7969999
1244 7.2624965
1242 7.7066922
1240 8.0498962
1238 8.3230333
1236 8.4576683
1234 8.5398722
1232 8.5344677
1230 8.5035601
1228 8.4182329
1226 8.3061285
1224 8.118619
1222 7.8895588
1220 7.5582371
1218 7.1797843
1216 6.7060657
1214 6.1996956
1212 5.6385655
1210 5.0595884
1208 4.4602923
1206 3.8767171
1204 3.323524
1202 2.834271
1200 2.4127166
1198 2.0415277
1196 1.7069356
1194 1.3741889
1192 1.0369112
1190 0.6762439
1188 0.30722284
1186 -0.054098487
1184 -0.37607646
1182 -0.54742992
1180 -0.6251784
1178 -0.46036685
1176 -0.24495359
1174 0.040804014
1172 0.29187179
1170 0.39128897
1168 0.44981667
1166 0.38375685
1164 0.30530593
1162 0.19797769
1160 0.096717201
1158 0.011085652
1156 -0.049061198
1154 -0.064806901
1152 -0.053250588
1150 -0.0082076322
1148 0.029197039
1146 0.051979572
1144 0.037002519
1142 -0.0026662112
1140 -0.0063929744
1138 0.037520871
1136 0.21181229
1134 0.48433939
1132 0.86284918
1130 1.278975
1128 1.6800549
1126 2.0654693
1124 2.3908489
1122 2.6770771
1120 2.8122559
1118 2.8998432
1116 2.8075142
1114 2.7091289
1112 2.5990794
1110 2.5139077
1108 2.5104041
1106 2.5487401
1104 2.6939051
1102 2.8882213
1100 3.1786156
1098 3.4887004
1096 3.8342857
1094 4.2230411
1092 4.6693139
1090 5.1547699
1088 5.6635275
1086 6.0710893
1084 6.386673
1082 6.5929923
1080 6.7351208
1078 6.878181
1076 7.0113645
1074 7.0712771
1072 7.0906444
1070 6.9911404
1068 6.8701482
1066 6.7841792
1064 6.7090521
1062 6.6814175
1060 6.6512957
1058 6.5908556
1056 6.5473971
1054 6.579432
1052 6.6307802
1050 6.7403402
1048 6.8137212
1046 6.7989821
1044 6.7623706
1042 6.6890635
1040 6.6514993
1038 6.6662664
1036 6.6930304
1034 6.726047
1032 6.6861873
1030 6.5660219
1028 6.2811837
1026 5.874836
1024 5.3756514
1022 4.8368988
1020 4.392148
1018 3.9907527
1016 3.6679058
1014 3.3612814
1012 3.0000601
1010 2.6224813
1008 2.1642599
1006 1.7002578
1004 1.2468224
1002 0.81534874
1000 0.53448111
998 0.2824254
996 0.15579942
994 0.018906772
992 -0.15104412
990 -0.341443
988 -0.57627225
986 -0.77674264
984 -0.91195607
982 -0.95396179
980 -0.86708057
978 -0.69966376
976 -0.45213628
974 -0.25101635
972 -0.091008678
970 -0.0072104838
968 0.032664642
966 0.1117035
964 0.20916757
962 0.32118392
960 0.43604234
958 0.51458585
956 0.58275843
954 0.59407395
952 0.59149081
950 0.42052209
948 0.24494094
946 0.10150485
944 0.00063332508
942 0.0083118677
940 0.26609176
938 0.68166459
936 1.0498772
934 1.2790887
932 1.4832958
930 1.6346716
928 1.7898984
926 1.9499757
924 2.0403161
922 2.0458515
920 2.0376401
918 2.0178061
916 2.0697672
914 2.1707325
912 2.1492193
910 2.061636
908 1.7850094
906 1.4382637
904 1.3216795
902 1.2678525
900 1.7230369
898 2.2603772
896 2.9435
