##TITLE=Methyl Ethyl Ketone
##JCAMP-DX=4.24
##DATA TYPE=INFRARED SPECTRUM
##XUNITS=cm-1
##YUNITS=Absorbance
##FIRSTX=900
##LASTX=2300
##XYDATA=(X++(Y..Y))
2296 0.20643
2294 0.21072386
2292 0.21501772
2290 0.21931157
2288 0.22360542
2286 0.22789928
2284 0.23219314
2282 0.236487
2280 0.24078086
2278 0.24507472
2276 0.24936858
2274 0.25366244
2272 0.2579563
2270 0.26225013
2268 0.26654398
2266 0.27083784
2264 0.27514148
2262 0.27943558
2260 0.28372943
2258 0.28802329
2256 0.29231715
2254 0.29661098
2252 0.30090484
2250 0.3051987
2248 0.30949256
2246 0.31378642
2244 0.18127753
2242 0.0067947428
2240 -0.1805664
2238 -0.19786744
2236 -0.19002028
2234 -0.031240357
2232 0.13559932
2230 0.2401551
2228 0.32024607
2226 0.228919
2224 0.11410337
2222 -0.068282828
2220 -0.23234758
2218 -0.32964179
2216 -0.38130513
2214 -0.34152034
2212 -0.26274878
2210 -0.12912738
2208 -0.0028750906
2206 0.10998894
2204 0.16069099
2202 0.15228519
2200 0.1393887
2198 0.12601011
2196 0.17489713
2194 0.25968814
2192 0.34961423
2190 0.44073501
2188 0.48102972
2186 0.50479174
2184 0.456624
2182 0.39215949
2180 0.29233676
2178 0.18772326
2176 0.11199085
2174 0.043450363
2172 0.026214313
2170 0.022465261
2168 0.068142191
2166 0.10718654
2164 0.10446963
2162 0.074427091
2160 -0.014933943
2158 -0.076964699
2156 -0.075692296
2154 -0.025691649
2152 0.085425422
2150 0.16791502
2148 0.21096927
2146 0.21941142
2144 0.20089799
2142 0.20623399
2140 0.23009625
2138 0.24757238
2136 0.26055458
2134 0.22402762
2132 0.16687432
2130 0.096971929
2128 0.0236088
2126 -0.0085616782
2124 -0.031099686
2122 0.0029674685
2120 0.046227969
2118 0.09481889
2116 0.13649742
2114 0.1210227
2112 0.086443417
2110 0.0040401453
2108 -0.074181713
2106 -0.11864385
2104 -0.12096412
2102 -0.041317299
2100 0.069686621
2098 0.21296379
2096 0.3251043
2094 0.39020526
2092 0.3827132
2090 0.30713189
2088 0.198902
2086 0.071829855
2084 -0.015837654
2082 -0.075739115
2080 -0.068383224
2078 -0.027618984
2076 0.036922399
2074 0.10966392
2072 0.1254576
2070 0.12255029
2068 0.12884688
2066 0.13934435
2064 0.23407109
2062 0.34004661
2060 0.3929956
2058 0.42388308
2056 0.39095715
2054 0.36132824
2052 0.38841137
2050 0.4345156
2048 0.50027311
2046 0.53433037
2044 0.49903399
2042 0.42433044
2040 0.31073132
2038 0.20802821
2036 0.12783843
2034 0.085571893
2032 0.075966321
2030 0.085510612
2028 0.1052962
2026 0.10953107
2024 0.10251
2022 0.087403364
2020 0.068840951
2018 0.089310385
2016 0.1266066
2014 0.23817243
2012 0.37452906
2010 0.52977288
2008 0.68446404
2006 0.75249386
2004 0.78468442
2002 0.7189517
2000 0.62197125
1998 0.49595708
1996 0.38114858
1994 0.321356
1992 0.29792485
1990 0.32697874
1988 0.35802901
1986 0.37206358
1984 0.37981769
1982 0.38438651
1980 0.42813769
1978 0.51616359
1976 0.62753713
1974 0.75118017
1972 0.83258277
1970 0.87943465
1968 0.91095322
1966 0.93684012
1964 0.95905751
1962 0.98029512
1960 0.93911403
1958 0.87082589
1956 0.79983896
1954 0.72968018
1952 0.6837461
1950 0.64480793
1948 0.59209824
1946 0.54374498
1944 0.5430671
1942 0.56727368
1940 0.63263202
1938 0.68944168
1936 0.69210631
1934 0.66559637
1932 0.61095482
1930 0.56545812
1928 0.54567033
1926 0.53257853
1924 0.51770854
1922 0.49169222
1920 0.45523548
1918 0.43292478
1916 0.42764384
1914 0.46201652
1912 0.52353948
1910 0.60943139
1908 0.70707428
1906 0.7727775
1904 0.82028878
1902 0.83438373
1900 0.8344295
1898 0.86974657
1896 0.92447853
1894 1.0465679
1892 1.1949183
1890 1.345862
1888 1.4726194
1886 1.4948615
1884 1.4507623
1882 1.3236158
1880 1.1687194
1878 1.0173981
1876 0.88719499
1874 0.79034632
1872 0.73465264
1870 0.72237223
1868 0.73803228
1866 0.77576685
1864 0.80682409
1862 0.82773209
1860 0.85669649
1858 0.89380866
1856 0.90920347
1854 0.90472984
1852 0.77610892
1850 0.56536436
1848 0.26494879
1846 -0.082638927
1844 -0.22859128
1842 -0.26236537
1840 -0.052397441
1838 0.26619762
1836 0.52964085
1834 0.75123978
1832 0.87682998
1830 0.94728082
1828 0.97702497
1826 0.97290283
1824 0.93264741
1822 0.87752116
1820 0.82188517
1818 0.77232277
1816 0.72949088
1814 0.67473948
1812 0.59738624
1810 0.52627826
1808 0.47312033
1806 0.45440352
1804 0.46664706
1802 0.38347122
1800 0.20381966
1798 -0.077563182
1796 -0.4239586
1794 -0.57231838
1792 -0.56984884
1790 -0.3427307
1788 0.01699084
1786 0.29749778
1784 0.51716691
1782 0.57277578
1780 0.52618217
1778 0.39659011
1776 0.2457943
1774 0.19269499
1772 0.23054095
1770 0.40658537
1768 0.5875771
1766 0.62189424
1764 0.53852701
1762 0.34917685
1760 0.099313147
1758 -0.18053359
1756 -0.38990471
1754 -0.48325464
1752 -0.5492869
1750 -0.63404429
1748 -0.78542686
1746 -1.0004182
1744 -1.2448881
1742 -1.4975634
1740 -1.6710882
1738 -1.7770567
1736 -1.70792
1734 -1.5148301
1732 -1.2031611
1730 -0.82090902
1728 -0.56146342
1726 -0.3892045
1724 -0.28946519
1722 -0.2043356
1720 0.080776915
1718 0.59838301
1716 1.3600729
1714 2.1449678
1712 2.6781836
1710 3.0284524
1708 3.259212
1706 3.6006985
1704 4.2569828
1702 5.5261388
1700 7.5617523
1698 10.718594
1696 15.033856
1694 19.66947
1692 24.190161
1690 28.213251
1688 31.711023
1686 35.506626
1684 39.731789
1682 44.551273
1680 49.84996
1678 54.499466
1676 58.551613
1674 62.591759
1672 66.704597
1670 71.511047
1668 76.818466
1666 82.007698
1664 87.016747
1662 91.597168
1660 95.733948
1658 99.354774
1656 102.40171
1654 104.78285
1652 106.43439
1650 107.32928
1648 107.22697
1646 106.01321
1644 103.95977
1642 101.36735
1640 98.355804
1638 95.050461
1636 91.171143
1634 86.683296
1632 82.014603
1630 77.339294
1628 72.719406
1626 68.157242
1624 63.245041
1622 57.967201
1620 52.846142
1618 47.93364
1616 43.580887
1614 39.796608
1612 36.576084
1610 33.904449
1608 31.608313
1606 29.656893
1604 27.896721
1602 26.369846
1600 25.128996
1598 24.195332
1596 23.5515
1594 23.155958
1592 22.920927
1590 22.817745
1588 22.801851
1586 22.876608
1584 23.032389
1582 23.2456
1580 23.494051
1578 23.86129
1576 24.378571
1574 25.149738
1572 26.202488
1570 27.431705
1568 28.810961
1566 30.191336
1564 31.552776
1562 32.977718
1560 34.531239
1558 36.751556
1556 39.66383
1554 42.779049
1552 45.915943
1550 48.281681
1548 49.874012
1546 51.033714
1544 51.735901
1542 52.089451
1540 52.009838
1538 51.489563
1536 50.585369
1534 49.435963
1532 48.144161
1530 46.811474
1528 45.401787
1526 43.889
1524 42.216843
1522 40.354355
1520 38.43858
1518 36.541302
1516 34.724857
1514 33.015869
1512 31.09268
1510 28.846373
1508 26.13286
1506 22.867186
1504 19.938772
1502 17.490995
1500 15.551334
1498 14.15784
1496 12.687428
1494 11.127677
1492 9.5294886
1490 7.9051027
1488 6.3160315
1486 4.7919388
1484 3.369714
1482 2.1352661
1480 1.1748168
1478 0.51169401
1476 0.13567485
1474 0.1520016
1472 0.62191856
1470 1.2861388
1468 2.0478871
1466 2.7342036
1464 3.2137852
1462 3.5338392
1460 3.675375
1458 3.8282046
1456 4.0572801
1454 4.4516668
1452 5.0926943
1450 5.6322155
1448 5.9937801
1446 6.1614323
1444 6.057189
1442 5.8563051
1440 5.5256548
1438 5.1351466
1436 4.6711187
1434 4.1858592
1432 3.7048538
1430 3.3099902
1428 3.0209041
1426 2.8210385
1424 2.7153554
1422 2.6854091
1420 2.7608089
1418 2.9855063
1416 3.3254056
1414 3.757957
1412 4.1921339
1410 4.5403566
1408 4.8306184
1406 5.0560894
1404 5.2711306
1402 5.4996862
1400 5.7128839
1398 5.8967199
1396 6.0363503
1394 6.1013536
1392 6.1373372
1390 6.1291895
1388 6.0826573
1386 5.9744
1384 5.8163471
1382 5.579989
1380 5.275084
1378 4.8757815
1376 4.4111056
1374 3.8972974
1372 3.440706
1370 3.0600889
1368 2.7657492
1366 2.5051093
1364 2.1631279
1362 1.7458913
1360 1.2586285
1358 0.78581953
1356 0.43099672
1354 0.17863163
1352 0.060103986
1350 0.0060542994
1348 0.032114599
1346 0.10696007
1344 0.18836081
1342 0.24035184
1340 0.22571626
1338 0.21085313
1336 0.20808057
1334 0.26611814
1332 0.44140974
1330 0.63235551
1328 0.84260547
1326 1.0239444
1324 1.1687251
1322 1.3366359
1320 1.5437241
1318 1.8162978
1316 2.1468301
1314 2.4671991
1312 2.7547925
1310 2.9543011
1308 3.0777771
1306 3.1375852
1304 3.1562788
1302 3.1533141
1300 3.1460509
1298 3.1555624
1296 3.179143
1294 3.2293632
1292 3.279907
1290 3.3164248
1288 3.340384
1286 3.3373234
1284 3.3377678
1282 3.3545797
1280 3.3929513
1278 3.4782474
1276 3.5610456
1274 3.6356301
1272 3.6960177
1270 3.7458467
1268 3.8623841
1266 4.0862846
1264 4.3955412
1262 4.7991452
1260 5.1964722
1258 5.5859137
1256 5.9668283
1254 6.3486061
1252 6.7574024
1250 7.1846104
1248 7.6169462
1246 8.0535755
1244 8.4981346
1242 8.940032
1240 9.3640747
1238 9.7386713
1236 9.9665871
1234 10.100893
1232 10.01904
1230 9.870575
1228 9.577549
1226 9.2481575
1224 8.8239069
1222 8.3719292
1220 7.856977
1218 7.348505
1216 6.8554797
1214 6.3797221
1212 5.9296322
1210 5.4722686
1208 5.00284
1206 4.5199947
1204 4.0263281
1202 3.5482643
1200 3.0922885
1198 2.6736889
1196 2.2825358
1194 1.8956287
1192 1.5077171
1190 1.1056268
1188 0.70565057
1186 0.34028342
1184 0.0090445578
1182 -0.22856441
1180 -0.4037658
1178 -0.41188282
1176 -0.350436
1174 -0.10003004
1172 0.16833173
1170 0.462322
1168 0.71970677
1166 0.86379397
1164 0.96947449
1162 0.9780311
1160 0.9468447
1158 0.83678687
1156 0.71316057
1154 0.57241976
1152 0.45801285
1150 0.37583935
1148 0.28762639
1146 0.19328608
1144 0.099231876
1142 0.016651198
1140 -0.0057449779
1138 0.0182456
1136 0.079760373
1134 0.16302501
1132 0.32113802
1130 0.51556408
1128 0.75000089
1126 0.98644519
1124 1.1755772
1122 1.3342352
1120 1.3763239
1118 1.4034135
1116 1.4094
1114 1.4508947
1112 1.6432046
1110 1.8593121
1108 2.1467795
1106 2.40185
1104 2.5764427
1102 2.7327073
1100 2.859858
1098 3.0312409
1096 3.274843
1094 3.5576138
1092 3.8858321
1090 4.2023611
1088 4.5053344
1086 4.7919807
1084 5.0651197
1082 5.3299828
1080 5.5828137
1078 5.785439
1076 5.9469285
1074 5.9766216
1072 5.9385238
1070 5.721858
1068 5.4537873
1066 5.0969291
1064 4.7490716
1062 4.5517116
1060 4.4006791
1058 4.5005608
1056 4.6060915
1054 4.733079
1052 4.8194981
1050 4.7767611
1048 4.717032
1046 4.620482
1044 4.5601664
1042 4.5698047
1040 4.6137967
1038 4.7019734
1036 4.7396603
1034 4.7067637
1032 4.5373993
1030 4.2383447
1028 3.8461492
1026 3.3964136
1024 3.0106258
1022 2.6667249
1020 2.4129763
1018 2.1897631
1016 1.9212058
1014 1.6355429
1012 1.2951934
1010 0.94810766
1008 0.62931716
1006 0.31907141
1004 0.082117781
1002 -0.14039549
1000 -0.26875708
998 -0.39891887
996 -0.53767431
994 -0.68913758
992 -0.87630516
990 -1.010887
988 -1.0227166
986 -0.98866093
984 -0.87993234
982 -0.84198642
980 -0.90051496
978 -0.99546069
976 -1.1214572
974 -1.1382945
972 -1.0623064
970 -0.87851959
968 -0.63147879
966 -0.41789201
964 -0.22382574
962 -0.11740156
960 -0.03884891
958 0.044186428
956 0.12846842
954 0.21699585
952 0.3010484
950 0.26427516
948 0.21761224
946 0.099408217
944 0.0002255314
942 0.0084450729
940 0.071920335
938 0.3431448
936 0.63463229
934 0.9829818
932 1.2449108
930 1.3211194
928 1.3189949
926 1.1957922
924 1.246326
922 1.5112791
920 1.9921914
918 2.6722584
916 3.2917542
914 3.8660829
912 4.2363014
910 4.4973731
908 4.6440783
906 4.7467718
904 4.8967276
902 5.0586019
900 5.1755133
898 5.28476
896 5.1869001
