Image.
>Pix99999.
  .
5555
5555
2300
900
5555
2
1
0
701
5555
-5.6332000e-002
-5.7504322e-002
-5.8675647e-002
-5.9847966e-002
-6.1019298e-002
-6.2191613e-002
-6.3363932e-002
-6.4535275e-002
-6.5707579e-002
-6.6878922e-002
-6.8051226e-002
-6.9223553e-002
-7.0394889e-002
-7.1567200e-002
-7.2738536e-002
-7.3910840e-002
-7.5082183e-002
-7.6254487e-002
-7.7426814e-002
-7.8598164e-002
-7.9770461e-002
-8.0941811e-002
-8.2114108e-002
-8.3286427e-002
-8.4457785e-002
-8.5630067e-002
-3.1821027e-003
8.3313555e-002
1.6850944e-001
2.4401416e-001
3.1812128e-001
4.1342130e-001
5.0988352e-001
5.9794182e-001
6.8066800e-001
7.2421902e-001
7.5286001e-001
7.2251391e-001
6.8554056e-001
6.3804322e-001
6.1276913e-001
6.3734579e-001
6.6430241e-001
6.9033223e-001
6.7668271e-001
6.1361283e-001
5.3983915e-001
4.5878223e-001
4.1462708e-001
3.9841589e-001
4.0660286e-001
4.2779988e-001
4.5666301e-001
4.8851955e-001
5.5254149e-001
6.2695378e-001
7.2611123e-001
8.3080781e-001
8.7418473e-001
9.0733796e-001
8.5644972e-001
8.0027264e-001
7.7170199e-001
7.5208271e-001
7.6879585e-001
7.7452350e-001
7.2730660e-001
6.5580362e-001
5.3559589e-001
4.2017940e-001
3.2321900e-001
2.5871643e-001
2.3846972e-001
2.3367126e-001
2.4107134e-001
2.3340072e-001
2.1127880e-001
2.0219520e-001
2.0325600e-001
2.3624331e-001
2.8605971e-001
3.2477468e-001
3.5807186e-001
3.8320652e-001
4.0589640e-001
4.5430326e-001
5.0875759e-001
5.9624964e-001
6.9013768e-001
8.0656701e-001
9.1783142e-001
9.6635634e-001
9.7785664e-001
8.6550176e-001
7.2532976e-001
5.5594611e-001
4.1757137e-001
3.5718894e-001
3.4422660e-001
3.9153183e-001
4.5071286e-001
5.1384461e-001
5.6532860e-001
6.0416394e-001
6.1707002e-001
6.0996348e-001
5.5892342e-001
4.8068208e-001
3.8679382e-001
2.8659272e-001
2.4279971e-001
2.2278610e-001
2.6840919e-001
3.3445159e-001
4.1336599e-001
4.9474251e-001
5.5754638e-001
6.1429983e-001
6.4508772e-001
6.6561329e-001
6.5775257e-001
6.3897157e-001
6.0138673e-001
5.6321156e-001
5.3343010e-001
5.0595754e-001
4.7996321e-001
4.3868256e-001
3.7349075e-001
3.0881611e-001
2.4982886e-001
2.2062252e-001
2.1932548e-001
2.1888410e-001
2.1547465e-001
1.9643207e-001
1.6787246e-001
1.6316600e-001
1.7172548e-001
1.8050803e-001
1.8849200e-001
1.6283873e-001
1.2562278e-001
1.2559456e-001
1.3764948e-001
1.8458864e-001
2.3390532e-001
2.3804349e-001
2.2003463e-001
1.5693849e-001
8.4013782e-002
1.6441524e-002
-3.6029853e-002
-5.8545288e-002
-6.4965338e-002
-5.7430319e-002
-5.7836160e-002
-7.3873028e-002
-1.0653324e-001
-1.5333557e-001
-1.8684857e-001
-2.0486219e-001
-1.8940388e-001
-1.5047203e-001
-1.1269943e-001
-7.8459047e-002
-6.4599618e-002
-6.1558183e-002
-2.7107161e-002
2.1573229e-002
8.5459344e-002
1.5243325e-001
1.5719959e-001
1.3939416e-001
1.0179605e-001
6.6406503e-002
7.5458899e-002
1.0273530e-001
1.4115848e-001
1.7073695e-001
1.6722886e-001
1.4790826e-001
1.1814500e-001
8.8570371e-002
6.5667696e-002
2.2459676e-002
-4.8758887e-002
-1.5016367e-001
-2.7707061e-001
-3.5117120e-001
-3.7349731e-001
-2.9048991e-001
-1.3587432e-001
5.6093253e-002
2.6374587e-001
3.9431944e-001
4.8102680e-001
4.2403796e-001
3.0187649e-001
1.4828785e-001
-8.8142864e-003
-5.7096828e-002
-5.4373506e-002
4.1983500e-003
8.0307275e-002
1.3776657e-001
1.8674186e-001
2.3048845e-001
2.6122159e-001
2.6719135e-001
2.2794399e-001
1.2358299e-001
-1.4215536e-002
-1.6850625e-001
-2.6161093e-001
-2.7479950e-001
-2.1607256e-001
-1.0835656e-001
-2.1573938e-002
3.6079243e-002
2.3943745e-002
-3.5813145e-002
-1.9770125e-001
-4.2078468e-001
-7.1561319e-001
-1.0457032e+000
-1.1960694e+000
-1.2425122e+000
-1.0233502e+000
-6.8088490e-001
-3.3709699e-001
-1.1042520e-002
2.2718494e-001
3.9451554e-001
4.4580883e-001
4.2390665e-001
3.3359754e-001
2.4831040e-001
2.3389579e-001
2.6960921e-001
3.4733170e-001
3.9783591e-001
3.8846684e-001
3.2987007e-001
2.3483920e-001
1.4905000e-001
8.4245667e-002
-4.1338474e-002
-2.2638226e-001
-4.7773093e-001
-7.7130431e-001
-8.7918639e-001
-8.5162318e-001
-6.2811667e-001
-2.9359844e-001
-3.8503964e-002
1.5692137e-001
2.3000574e-001
2.1981454e-001
1.1269563e-001
-4.1584883e-002
-1.7612171e-001
-2.4148166e-001
-1.2896048e-001
5.4913133e-002
1.9821686e-001
2.6513541e-001
2.2146589e-001
7.1594290e-002
-1.7395160e-001
-4.0156245e-001
-5.5090088e-001
-7.2417605e-001
-9.5846653e-001
-1.3021934e+000
-1.7444679e+000
-2.1700983e+000
-2.5585601e+000
-2.7857189e+000
-2.8810077e+000
-2.7690799e+000
-2.5111697e+000
-2.0779889e+000
-1.5363059e+000
-1.0735103e+000
-6.8229550e-001
-4.1811278e-001
-2.2520009e-001
7.6479316e-002
5.7208669e-001
1.3645782e+000
2.2857900e+000
3.1376874e+000
3.8721063e+000
4.4299278e+000
4.9916897e+000
5.7327428e+000
6.9839172e+000
8.9307060e+000
1.2011986e+001
1.6290714e+001
2.0914610e+001
2.5439571e+001
2.9390955e+001
3.2739811e+001
3.6327507e+001
4.0305511e+001
4.5047272e+001
5.0422482e+001
5.5249878e+001
5.9546001e+001
6.3722656e+001
6.7885765e+001
7.2707413e+001
7.8002853e+001
8.3158096e+001
8.8094376e+001
9.2521454e+001
9.6462357e+001
9.9930824e+001
1.0289457e+002
1.0529617e+002
1.0692500e+002
1.0758617e+002
1.0708526e+002
1.0534178e+002
1.0286552e+002
1.0014362e+002
9.7164413e+001
9.3963600e+001
9.0131699e+001
8.5573997e+001
8.0791420e+001
7.5985466e+001
7.1330208e+001
6.6848953e+001
6.2117081e+001
5.7103844e+001
5.2217503e+001
4.7500721e+001
4.3285057e+001
3.9582661e+001
3.6438904e+001
3.3836109e+001
3.1602827e+001
2.9708279e+001
2.7997477e+001
2.6506462e+001
2.5273966e+001
2.4315775e+001
2.3614500e+001
2.3161514e+001
2.2908417e+001
2.2845905e+001
2.2940041e+001
2.3162508e+001
2.3477474e+001
2.3840260e+001
2.4220566e+001
2.4682545e+001
2.5250458e+001
2.5990467e+001
2.6914061e+001
2.7959791e+001
2.9109760e+001
3.0295944e+001
3.1510683e+001
3.2791592e+001
3.4197777e+001
3.6212616e+001
3.8896843e+001
4.1926502e+001
4.5118023e+001
4.7614841e+001
4.9361706e+001
5.0569107e+001
5.1197269e+001
5.1357250e+001
5.1053341e+001
5.0390873e+001
4.9465115e+001
4.8450386e+001
4.7341938e+001
4.6160683e+001
4.4826180e+001
4.3279751e+001
4.1483475e+001
3.9407726e+001
3.7342968e+001
3.5415527e+001
3.3710545e+001
3.2279324e+001
3.0679720e+001
2.8804590e+001
2.6416643e+001
2.3399887e+001
2.0487646e+001
1.7765226e+001
1.5538337e+001
1.3866910e+001
1.2246572e+001
1.0672039e+001
9.0665874e+000
7.4438758e+000
5.8525987e+000
4.3535237e+000
3.0440779e+000
1.9671195e+000
1.1429451e+000
5.6012648e-001
1.6823472e-001
1.1381646e-001
4.8860252e-001
1.0881950e+000
1.8406602e+000
2.5111134e+000
2.9481616e+000
3.2283490e+000
3.3526008e+000
3.5598686e+000
3.9456799e+000
4.4911880e+000
5.2415090e+000
5.8208418e+000
6.1205525e+000
6.2509890e+000
6.1476150e+000
5.9710269e+000
5.6893668e+000
5.3124685e+000
4.8225412e+000
4.2736611e+000
3.6993279e+000
3.2170236e+000
2.8400941e+000
2.5574393e+000
2.3635378e+000
2.2295065e+000
2.2060056e+000
2.3540232e+000
2.6764743e+000
3.1924548e+000
3.7540298e+000
4.2544794e+000
4.6625509e+000
4.9272614e+000
5.1296310e+000
5.2720013e+000
5.3883162e+000
5.4711180e+000
5.5290284e+000
5.5443387e+000
5.5567441e+000
5.5551009e+000
5.5203962e+000
5.4249549e+000
5.2601690e+000
4.9927778e+000
4.6546364e+000
4.2262650e+000
3.7457030e+000
3.2344413e+000
2.7763259e+000
2.3903439e+000
2.0916834e+000
1.8322914e+000
1.5204414e+000
1.1676128e+000
7.8395945e-001
4.3369222e-001
2.0055506e-001
5.2747346e-002
9.6456576e-003
2.3795761e-002
1.0386995e-001
2.0209715e-001
3.0894318e-001
3.9131203e-001
4.2005545e-001
4.5688179e-001
5.1564056e-001
6.1776036e-001
7.8878343e-001
9.6317601e-001
1.1419948e+000
1.3219442e+000
1.5123683e+000
1.7285324e+000
1.9803486e+000
2.2492690e+000
2.5280399e+000
2.7807610e+000
2.9919229e+000
3.1402612e+000
3.2377782e+000
3.3135428e+000
3.3823473e+000
3.4659319e+000
3.5480030e+000
3.6061304e+000
3.6485572e+000
3.6670094e+000
3.6886215e+000
3.7324116e+000
3.7891080e+000
3.8709557e+000
3.9631002e+000
4.0766244e+000
4.1955218e+000
4.3249531e+000
4.4474831e+000
4.5605493e+000
4.6871905e+000
4.8451209e+000
5.0510769e+000
5.3253484e+000
5.6250067e+000
5.9524455e+000
6.2827582e+000
6.6266227e+000
7.0133996e+000
7.4487562e+000
7.9428511e+000
8.4754171e+000
9.0159798e+000
9.5441504e+000
1.0015407e+001
1.0437040e+001
1.0763960e+001
1.1035949e+001
1.1214343e+001
1.1344726e+001
1.1373321e+001
1.1341910e+001
1.1149860e+001
1.0898829e+001
1.0489068e+001
1.0050079e+001
9.5374250e+000
9.0035429e+000
8.4238024e+000
7.8147717e+000
7.1613469e+000
6.5174394e+000
5.8959160e+000
5.3249550e+000
4.8116722e+000
4.3137708e+000
3.8236532e+000
3.3080008e+000
2.7761285e+000
2.2523143e+000
1.7458487e+000
1.2933092e+000
8.8633025e-001
5.6998652e-001
3.1421879e-001
1.8539767e-001
1.1327551e-001
1.5548667e-001
2.2754800e-001
3.5739368e-001
4.8666188e-001
5.9945476e-001
6.9416916e-001
7.3179334e-001
7.4661922e-001
7.0435619e-001
6.4276403e-001
5.4478133e-001
4.5193958e-001
3.6998737e-001
3.0497485e-001
2.5954950e-001
2.0226200e-001
1.3156465e-001
5.4154500e-002
-1.5900869e-002
-1.5253320e-002
5.3531542e-002
2.3829572e-001
4.9749482e-001
8.2908523e-001
1.1905611e+000
1.5637742e+000
1.9386585e+000
2.3052568e+000
2.6671896e+000
3.0119760e+000
3.3439693e+000
3.6155543e+000
3.8552933e+000
3.9647663e+000
4.0482974e+000
4.0536346e+000
4.0857201e+000
4.1894093e+000
4.3529468e+000
4.6361246e+000
4.9662309e+000
5.3709860e+000
5.8043594e+000
6.2723022e+000
6.7410564e+000
7.2009573e+000
7.5922432e+000
7.9163408e+000
8.1313753e+000
8.2780533e+000
8.3949814e+000
8.4998055e+000
8.6136503e+000
8.7218351e+000
8.7694502e+000
8.7992525e+000
8.7974834e+000
8.7922878e+000
8.7919750e+000
8.7799101e+000
8.6902142e+000
8.5809374e+000
8.3853540e+000
8.1759863e+000
7.9215751e+000
7.6492672e+000
7.3335929e+000
7.0091515e+000
6.6698480e+000
6.3429146e+000
6.0320992e+000
5.7085600e+000
5.3673511e+000
4.9929638e+000
4.5920148e+000
4.2151909e+000
3.8605220e+000
3.5626147e+000
3.2969429e+000
3.0610893e+000
2.8389282e+000
2.6416371e+000
2.4514902e+000
2.2666376e+000
2.0785563e+000
1.8434479e+000
1.6014829e+000
1.3257631e+000
1.0581546e+000
8.4843409e-001
6.4969879e-001
4.9832213e-001
3.3455202e-001
1.3166204e-001
-8.3873063e-002
-3.2699367e-001
-5.4999822e-001
-7.3435795e-001
-8.5802346e-001
-8.9515978e-001
-8.3748859e-001
-6.7785889e-001
-4.4110596e-001
-1.4179671e-001
1.8192333e-001
5.2030218e-001
8.5440147e-001
1.1830918e+000
1.4429106e+000
1.6706429e+000
1.6935788e+000
1.6635942e+000
1.4270539e+000
1.1632404e+000
8.4219003e-001
5.2287149e-001
2.6178557e-001
2.7673509e-002
-2.1277294e-003
-6.0185239e-002
8.5643962e-002
2.5168484e-001
4.7629556e-001
6.7674732e-001
8.2470578e-001
9.2855799e-001
9.6091604e-001
9.3744540e-001
8.4593529e-001
7.3240995e-001
5.9953535e-001
5.3640884e-001
5.2329475e-001
5.8313775e-001
6.8132997e-001
7.4512845e-001
7.9581672e-001
7.9248166e-001
7.7599502e-001
9.2170197e-001
1.0940238e+000
1.5301000e+000
