Image.
>Pix99999.
  .
5555
5555
2300
900
5555
2
1
0
701
5555
2.1397000e-002
2.1841364e-002
2.2286726e-002
2.2732088e-002
2.3177452e-002
2.3621822e-002
2.4067178e-002
2.4512541e-002
2.4957903e-002
2.5403265e-002
2.5847644e-002
2.6292991e-002
2.6738353e-002
2.7183717e-002
2.7628100e-002
2.8073443e-002
2.8518805e-002
2.8964169e-002
2.9408557e-002
2.9853895e-002
3.0299257e-002
3.0744622e-002
3.1189013e-002
3.1634346e-002
3.2079708e-002
3.2525070e-002
1.2086657e-003
2.3986680e-002
4.3227401e-002
7.0275903e-002
9.8512545e-002
1.1486834e-001
1.3002743e-001
1.3745670e-001
1.4170989e-001
1.2358450e-001
1.0397109e-001
8.2720503e-002
6.6719644e-002
6.6985920e-002
6.5623567e-002
5.8701288e-002
4.6610601e-002
2.6609331e-002
1.3128657e-002
8.3834911e-003
8.2493648e-003
1.2028669e-002
1.1794235e-002
8.3679873e-003
4.3422501e-003
8.9730514e-005
-7.7505130e-004
-1.5117278e-004
1.1310900e-003
2.5994414e-003
-6.4119202e-005
-3.6817384e-003
6.1511355e-003
1.8239588e-002
4.9995314e-002
8.2137637e-002
9.8109350e-002
1.0933630e-001
1.0216103e-001
9.1703422e-002
7.5840637e-002
5.1793370e-002
8.1575681e-003
-4.3329280e-002
-1.0593539e-001
-1.5405864e-001
-1.7952091e-001
-1.8284051e-001
-1.6386595e-001
-1.5469928e-001
-1.5626794e-001
-1.8732730e-001
-2.3812655e-001
-2.8623024e-001
-3.3177599e-001
-3.3599612e-001
-3.2290965e-001
-2.7769151e-001
-2.2270961e-001
-1.7063178e-001
-1.1941519e-001
-9.0095721e-002
-6.6021748e-002
-7.5274445e-002
-9.2132844e-002
-1.3033411e-001
-1.6985354e-001
-2.0157191e-001
-2.2914414e-001
-2.4762979e-001
-2.6779526e-001
-2.9463801e-001
-3.2731861e-001
-3.6813867e-001
-3.9895573e-001
-4.1511422e-001
-4.0664083e-001
-3.7485501e-001
-3.3333251e-001
-2.8652149e-001
-2.4614994e-001
-2.1050222e-001
-1.9540583e-001
-1.9078475e-001
-2.0968786e-001
-2.3784606e-001
-2.5308761e-001
-2.6385629e-001
-2.5883448e-001
-2.5047657e-001
-2.6369834e-001
-2.8087518e-001
-2.9498091e-001
-3.0392492e-001
-2.8778228e-001
-2.6705468e-001
-2.4761803e-001
-2.3319159e-001
-2.3100281e-001
-2.3611644e-001
-2.5073358e-001
-2.6791039e-001
-2.8624251e-001
-2.9718536e-001
-2.9903656e-001
-2.9895619e-001
-2.9860544e-001
-3.0946499e-001
-3.2916364e-001
-3.5110629e-001
-3.7352470e-001
-3.8237181e-001
-3.8410228e-001
-3.7784860e-001
-3.6864400e-001
-3.4838083e-001
-3.2453090e-001
-2.9370767e-001
-2.6280838e-001
-2.5940013e-001
-2.6550797e-001
-2.8902420e-001
-3.1173599e-001
-3.1166098e-001
-2.9765213e-001
-2.5883007e-001
-2.2156125e-001
-2.0183912e-001
-2.0665780e-001
-2.4707329e-001
-2.9765308e-001
-3.5060501e-001
-3.8763717e-001
-4.0601277e-001
-3.9774486e-001
-3.6851960e-001
-3.1689382e-001
-2.5134319e-001
-2.0019120e-001
-1.5981451e-001
-1.5545022e-001
-1.6923468e-001
-1.8423919e-001
-1.9877446e-001
-2.1393242e-001
-2.2983700e-001
-2.6251584e-001
-2.9774818e-001
-3.0524060e-001
-2.9742500e-001
-2.5513595e-001
-2.0666176e-001
-1.7521992e-001
-1.5655211e-001
-1.5777114e-001
-1.6294903e-001
-1.6391020e-001
-1.6541316e-001
-1.6954514e-001
-1.7833900e-001
-1.9214974e-001
-2.0483238e-001
-2.1498245e-001
-2.2433171e-001
-2.3371042e-001
-2.3213255e-001
-2.2220527e-001
-2.0015787e-001
-1.7127705e-001
-1.6313314e-001
-1.6698000e-001
-1.8262741e-001
-2.0320414e-001
-1.8973415e-001
-1.6105857e-001
-1.0977525e-001
-5.3784616e-002
-2.5711671e-002
-1.8383069e-002
-5.4489266e-002
-1.0911711e-001
-1.7093347e-001
-2.2600332e-001
-2.5918359e-001
-2.6623499e-001
-2.3873572e-001
-1.7944880e-001
-8.9298144e-002
-1.9060219e-002
1.3895422e-002
-1.8807195e-002
-1.0984561e-001
-2.0651974e-001
-2.9454109e-001
-3.5086229e-001
-3.8401374e-001
-3.8357413e-001
-3.6341581e-001
-3.0910602e-001
-2.3637500e-001
-1.7615609e-001
-1.2446587e-001
-1.1252840e-001
-1.1778804e-001
-1.0870843e-001
-8.4239982e-002
-1.2921229e-002
7.6362185e-002
1.5458328e-001
1.9674700e-001
1.5381446e-001
6.1329711e-002
-6.1897539e-002
-1.7141970e-001
-2.3610286e-001
-2.5513893e-001
-2.3173726e-001
-1.9500434e-001
-1.5948623e-001
-1.3055399e-001
-1.0819997e-001
-8.9325376e-002
-7.1868449e-002
-5.2294053e-002
-3.0711500e-002
5.8467221e-003
5.2566200e-002
6.9674768e-002
6.6880316e-002
3.5845850e-002
-8.1503205e-003
-1.8756708e-002
-3.9130100e-003
5.7411697e-002
1.4881432e-001
2.6298001e-001
3.6848933e-001
4.0947440e-001
3.8862285e-001
2.9267386e-001
1.7845620e-001
9.6679725e-002
2.7082549e-002
-4.4635594e-002
-8.0112986e-002
-6.3296847e-002
1.8278323e-002
1.5687799e-001
2.6790848e-001
3.3038858e-001
2.8074262e-001
1.3595164e-001
1.0947412e-002
-8.0220312e-002
-6.4853996e-002
2.8728954e-002
7.1045667e-002
6.7980707e-002
-3.7367284e-002
-1.9832543e-001
-2.6090097e-001
-2.2015150e-001
1.3558462e-002
3.8606638e-001
9.0741485e-001
1.4754187e+000
1.9109428e+000
2.2836196e+000
2.6751120e+000
3.2573206e+000
4.1850886e+000
5.6722107e+000
7.8142729e+000
1.0750119e+001
1.4432285e+001
1.8212770e+001
2.1785528e+001
2.5052771e+001
2.8048805e+001
3.1609486e+001
3.5807106e+001
4.0831017e+001
4.6507839e+001
5.1471550e+001
5.5761200e+001
5.9843292e+001
6.3847073e+001
6.8519455e+001
7.3672440e+001
7.8683350e+001
8.3472092e+001
8.7737350e+001
9.1535965e+001
9.4953552e+001
9.8011856e+001
1.0075376e+002
1.0289120e+002
1.0411932e+002
1.0396509e+002
1.0211572e+002
9.9392395e+001
9.6520401e+001
9.3504890e+001
9.0373718e+001
8.6583298e+001
8.1985260e+001
7.7131409e+001
7.2246529e+001
6.7664055e+001
6.3419521e+001
5.9163601e+001
5.4844067e+001
5.0582863e+001
4.6392220e+001
4.2403000e+001
3.8649864e+001
3.5355209e+001
3.2536129e+001
3.0184469e+001
2.8270800e+001
2.6624691e+001
2.5250429e+001
2.4110184e+001
2.3213842e+001
2.2536999e+001
2.2071552e+001
2.1777081e+001
2.1632864e+001
2.1597910e+001
2.1660707e+001
2.1801525e+001
2.2026690e+001
2.2332695e+001
2.2780184e+001
2.3388201e+001
2.4160795e+001
2.5091509e+001
2.6106054e+001
2.7185720e+001
2.8302835e+001
2.9456963e+001
3.0779949e+001
3.2358685e+001
3.4778824e+001
3.8097729e+001
4.1772701e+001
4.5596104e+001
4.8609039e+001
5.0873104e+001
5.2931999e+001
5.4833279e+001
5.6735481e+001
5.8326881e+001
5.9151875e+001
5.9107571e+001
5.8206406e+001
5.6842537e+001
5.5476494e+001
5.4097805e+001
5.2697502e+001
5.1103359e+001
4.9207184e+001
4.6974442e+001
4.4369095e+001
4.1825527e+001
3.9490623e+001
3.7340038e+001
3.5396996e+001
3.3005196e+001
3.0005886e+001
2.6899086e+001
2.3724546e+001
2.0997032e+001
1.8768110e+001
1.6577000e+001
1.4421945e+001
1.2257220e+001
1.0089567e+001
7.9419003e+000
5.8702564e+000
3.9685621e+000
2.3499930e+000
1.1363738e+000
3.6191949e-001
6.3429929e-002
3.1797895e-001
1.0629585e+000
1.9896340e+000
2.9149327e+000
3.7157464e+000
4.2969480e+000
4.8153005e+000
5.3275838e+000
5.8512349e+000
6.3947001e+000
6.8143325e+000
7.0339923e+000
7.0991969e+000
6.9453678e+000
6.7346821e+000
6.4495430e+000
6.1679530e+000
5.8888340e+000
5.6000056e+000
5.2726355e+000
4.8349557e+000
4.2794724e+000
3.6765270e+000
3.0774281e+000
2.6025794e+000
2.2800601e+000
2.1241231e+000
2.1152761e+000
2.2168131e+000
2.3746798e+000
2.5341630e+000
2.6960461e+000
2.8625166e+000
3.0647538e+000
3.3357685e+000
3.6582637e+000
4.0484328e+000
4.4628639e+000
4.9033904e+000
5.3270855e+000
5.7116551e+000
6.0177650e+000
6.1828470e+000
6.2314019e+000
6.0940304e+000
5.8447180e+000
5.4458151e+000
5.0065742e+000
4.5286708e+000
4.0717030e+000
3.6448581e+000
3.2503419e+000
2.8909717e+000
2.5578978e+000
2.2305286e+000
1.8693372e+000
1.4735700e+000
1.0379298e+000
6.2300241e-001
3.0511713e-001
8.6292118e-002
1.8136263e-002
2.5624085e-002
1.0669651e-001
2.2214749e-001
4.0379679e-001
6.1886585e-001
8.9068192e-001
1.1512718e+000
1.3806485e+000
1.5595822e+000
1.6490434e+000
1.7327809e+000
1.8151795e+000
1.9372964e+000
2.1227973e+000
2.3585036e+000
2.6603074e+000
3.0000877e+000
3.3681898e+000
3.7083755e+000
4.0024576e+000
4.2192407e+000
4.3700843e+000
4.4764314e+000
4.5521564e+000
4.6086650e+000
4.6470532e+000
4.6570582e+000
4.6511288e+000
4.6264839e+000
4.5980215e+000
4.5706172e+000
4.5441680e+000
4.5198584e+000
4.4994898e+000
4.4895287e+000
4.4874969e+000
4.5033751e+000
4.5245686e+000
4.5571818e+000
4.5991011e+000
4.6586657e+000
4.7341681e+000
4.8326650e+000
4.9405222e+000
5.0591974e+000
5.1797762e+000
5.3022528e+000
5.4249802e+000
5.5479016e+000
5.6704245e+000
5.7921948e+000
5.9123707e+000
6.0289001e+000
6.1355028e+000
6.2292118e+000
6.2923899e+000
6.3284988e+000
6.3032112e+000
6.2389960e+000
6.0851560e+000
5.8934698e+000
5.6081967e+000
5.2952681e+000
4.9090915e+000
4.4987020e+000
4.0312963e+000
3.5539670e+000
3.0618286e+000
2.5965049e+000
2.1824129e+000
1.8168535e+000
1.5215161e+000
1.2600121e+000
1.0383208e+000
8.3207321e-001
6.4424938e-001
4.7802496e-001
3.3373427e-001
2.1756554e-001
1.2299082e-001
5.2242786e-002
6.6040643e-004
-1.4861171e-002
-5.3173304e-003
5.8701061e-002
1.5144594e-001
3.1100532e-001
4.9273399e-001
7.2727638e-001
9.6172345e-001
1.1828351e+000
1.3836389e+000
1.5209386e+000
1.6321800e+000
1.6786211e+000
1.7058709e+000
1.6949495e+000
1.6757572e+000
1.6389930e+000
1.5725462e+000
1.4581718e+000
1.2837120e+000
1.0428874e+000
7.7658778e-001
4.9701384e-001
2.5932187e-001
6.6050500e-002
-3.6004517e-002
-6.7634970e-002
1.6552866e-002
1.6214830e-001
3.9762866e-001
6.5153188e-001
8.7332553e-001
1.0678178e+000
1.1481999e+000
1.2084906e+000
1.2180815e+000
1.2348078e+000
1.2850394e+000
1.3451794e+000
1.4358799e+000
1.5269001e+000
1.6173869e+000
1.6960695e+000
1.7488085e+000
1.7749367e+000
1.7583572e+000
1.7245922e+000
1.6741180e+000
1.6522621e+000
1.6640079e+000
1.7203279e+000
1.8080834e+000
1.8801700e+000
1.9330388e+000
1.9148999e+000
1.8595071e+000
1.7652704e+000
1.6599081e+000
1.5666274e+000
1.4764377e+000
1.3890235e+000
1.2990600e+000
1.1870540e+000
1.0731190e+000
9.5434684e-001
8.4271657e-001
7.6340652e-001
6.9844818e-001
6.8028063e-001
6.7990893e-001
7.2144675e-001
7.5881183e-001
7.8315723e-001
7.5277781e-001
6.3903821e-001
4.7490099e-001
2.5583667e-001
5.4023303e-002
-1.2819433e-001
-2.6591289e-001
-3.7089306e-001
-4.5182377e-001
-5.1811731e-001
-5.6219316e-001
-5.9660506e-001
-6.1881512e-001
-6.3944644e-001
-6.7878723e-001
-7.2212374e-001
-7.7484721e-001
-8.2673579e-001
-8.5937047e-001
-8.8603401e-001
-8.7273979e-001
-8.5143155e-001
-7.9538572e-001
-7.4379838e-001
-7.0693046e-001
-6.8560606e-001
-7.0008141e-001
-7.2108644e-001
-7.5273621e-001
-7.7453381e-001
-7.8196877e-001
-7.6863521e-001
-7.3316777e-001
-6.8426663e-001
-6.2508512e-001
-5.7280225e-001
-5.2493751e-001
-4.8209849e-001
-4.4080526e-001
-3.8517588e-001
-3.2500565e-001
-2.6638460e-001
-2.0967714e-001
-1.8859318e-001
-1.7191000e-001
-1.5783897e-001
-1.3858920e-001
-4.5629036e-002
1.8748119e-003
5.8418453e-002
1.7264695e-001
3.0724519e-001
4.2987800e-001
5.1703072e-001
5.8515102e-001
6.1280352e-001
6.4220715e-001
6.7497015e-001
7.3387480e-001
8.2424039e-001
9.0147704e-001
9.6511930e-001
9.3873501e-001
8.4816188e-001
6.9961035e-001
5.2105707e-001
3.9512220e-001
2.8981373e-001
2.4708961e-001
2.2101201e-001
2.4247332e-001
2.7172679e-001
3.9530000e-001
