Image.
>Pix99999.
  .
5555
5555
2300
900
5555
2
1
0
701
5555
-1.8720999e-002
-1.9110443e-002
-1.9499887e-002
-1.9889329e-002
-2.0278772e-002
-2.0668214e-002
-2.1057656e-002
-2.1447100e-002
-2.1836543e-002
-2.2225985e-002
-2.2615429e-002
-2.3004873e-002
-2.3394315e-002
-2.3782775e-002
-2.4173182e-002
-2.4564600e-002
-2.4952132e-002
-2.5332747e-002
-2.5730740e-002
-2.6150573e-002
-2.6510742e-002
-2.6786780e-002
-2.7285097e-002
-2.8096959e-002
-2.8082475e-002
-2.3418678e-002
-8.6342281e-004
4.9773160e-002
1.1579240e-001
1.8005781e-001
2.3365913e-001
2.7133965e-001
2.9292455e-001
2.9900637e-001
2.8733858e-001
2.5593102e-001
2.0718497e-001
1.4567035e-001
7.9649828e-002
1.8559942e-002
-2.7705600e-002
-5.0677456e-002
-4.8174661e-002
-2.2842230e-002
1.0791246e-002
3.8303278e-002
6.0228441e-002
8.2957253e-002
1.1781658e-001
1.7395890e-001
2.4573000e-001
3.2352602e-001
4.0049151e-001
4.7176033e-001
5.3658044e-001
5.9540755e-001
6.4828163e-001
6.9386160e-001
7.2589725e-001
7.3774534e-001
7.2779316e-001
6.9933951e-001
6.6908550e-001
6.5596229e-001
6.7025763e-001
7.1560591e-001
7.8063697e-001
8.4835911e-001
8.9897364e-001
9.1505998e-001
8.9226103e-001
8.3459741e-001
7.6227057e-001
6.9868100e-001
6.5813243e-001
6.4930642e-001
6.7125642e-001
7.1992403e-001
7.9169196e-001
8.8092291e-001
9.7254628e-001
1.0503873e+000
1.1076689e+000
1.1453907e+000
1.1827760e+000
1.2412443e+000
1.3250115e+000
1.4261613e+000
1.5137514e+000
1.5536534e+000
1.5339358e+000
1.4563630e+000
1.3446325e+000
1.2295918e+000
1.1384635e+000
1.0929065e+000
1.0990760e+000
1.1538779e+000
1.2391120e+000
1.3335936e+000
1.4256999e+000
1.5090542e+000
1.5815543e+000
1.6405128e+000
1.6752943e+000
1.6756500e+000
1.6456243e+000
1.5965180e+000
1.5444537e+000
1.5045705e+000
1.4804100e+000
1.4696796e+000
1.4663680e+000
1.4635681e+000
1.4560680e+000
1.4410778e+000
1.4240503e+000
1.4136209e+000
1.4178369e+000
1.4424890e+000
1.4841714e+000
1.5353904e+000
1.5866940e+000
1.6271702e+000
1.6444325e+000
1.6286285e+000
1.5846840e+000
1.5246574e+000
1.4654154e+000
1.4210925e+000
1.3872800e+000
1.3534189e+000
1.3157600e+000
1.2762620e+000
1.2454940e+000
1.2354801e+000
1.2485000e+000
1.2802912e+000
1.3194748e+000
1.3537669e+000
1.3801399e+000
1.4012312e+000
1.4252286e+000
1.4602189e+000
1.5041989e+000
1.5502300e+000
1.5908240e+000
1.6174860e+000
1.6182206e+000
1.5832529e+000
1.5180000e+000
1.4383886e+000
1.3737285e+000
1.3526512e+000
1.3747361e+000
1.4225529e+000
1.4659852e+000
1.4755654e+000
1.4477483e+000
1.3945425e+000
1.3409543e+000
1.3138310e+000
1.3262855e+000
1.3783492e+000
1.4451280e+000
1.4927651e+000
1.5003639e+000
1.4617047e+000
1.4016160e+000
1.3549193e+000
1.3352844e+000
1.3401350e+000
1.3473011e+000
1.3300538e+000
1.2800916e+000
1.2029001e+000
1.1197937e+000
1.0554910e+000
1.0170118e+000
9.9846512e-001
9.7998571e-001
9.3951577e-001
8.7346858e-001
7.9067403e-001
7.0931447e-001
6.5053219e-001
6.3022864e-001
6.5573651e-001
7.1091747e-001
7.6864851e-001
8.0828989e-001
8.1803441e-001
8.0452770e-001
7.8057826e-001
7.4333298e-001
6.8490440e-001
6.1690402e-001
5.6423014e-001
5.5869412e-001
6.2515533e-001
7.4545860e-001
8.7543428e-001
9.6464616e-001
9.6909660e-001
8.7901998e-001
7.1071988e-001
5.0838321e-001
3.2445231e-001
1.8493228e-001
9.4436854e-002
3.7028499e-002
-8.4294714e-003
-3.9941125e-002
-4.3255106e-002
-1.4773451e-002
3.7356798e-002
8.7403953e-002
1.0591140e-001
9.0205953e-002
5.3878810e-002
6.5837028e-003
-4.8256379e-002
-1.1656162e-001
-2.0706479e-001
-3.1748280e-001
-4.3509430e-001
-5.3338122e-001
-5.8207440e-001
-5.6891286e-001
-4.9705333e-001
-3.8438416e-001
-2.5356141e-001
-1.1278412e-001
3.6941107e-002
1.8183514e-001
2.9839480e-001
3.6105463e-001
3.5102400e-001
2.8126019e-001
1.8453524e-001
9.0098888e-002
1.8097771e-002
-3.1457625e-002
-6.9003716e-002
-9.4837129e-002
-1.0510550e-001
-1.1422586e-001
-1.4839920e-001
-2.2773132e-001
-3.5623550e-001
-4.9056643e-001
-5.6300849e-001
-5.3732401e-001
-4.1080880e-001
-2.1840921e-001
-1.3932172e-002
1.6616781e-001
3.0314150e-001
3.9149466e-001
4.3519929e-001
4.4795084e-001
4.4708228e-001
4.3975192e-001
4.2264798e-001
3.8084459e-001
3.0001366e-001
2.0174180e-001
1.2153219e-001
3.6484756e-002
-1.0549033e-001
-2.8105986e-001
-4.1505155e-001
-4.7349176e-001
-4.6758470e-001
-4.4016817e-001
-4.4691500e-001
-5.1965183e-001
-6.5740323e-001
-8.0034810e-001
-8.5751623e-001
-7.8363597e-001
-5.8859253e-001
-3.5237974e-001
-1.8781060e-001
-1.4070326e-001
-1.8684414e-001
-2.4487880e-001
-2.0034599e-001
5.0972685e-002
5.7552934e-001
1.3241795e+000
2.1657329e+000
2.9956298e+000
3.7693923e+000
4.5653081e+000
5.5568094e+000
6.9342813e+000
8.8816757e+000
1.1554961e+001
1.5011565e+001
1.8944427e+001
2.2797260e+001
2.6212585e+001
2.9118883e+001
3.1828835e+001
3.4916771e+001
3.8868202e+001
4.3906876e+001
4.9576603e+001
5.5000877e+001
5.9889557e+001
6.4545517e+001
6.9337967e+001
7.4494545e+001
7.9766357e+001
8.4560555e+001
8.8536819e+001
9.1660004e+001
9.4009071e+001
9.5702972e+001
9.6815140e+001
9.7367348e+001
9.7358200e+001
9.6785370e+001
9.5706474e+001
9.4243896e+001
9.2576027e+001
9.0882996e+001
8.9163559e+001
8.7244667e+001
8.4924973e+001
8.2047379e+001
7.8638130e+001
7.4869713e+001
7.0832161e+001
6.6513298e+001
6.1908081e+001
5.7059959e+001
5.2126038e+001
4.7350475e+001
4.2919430e+001
3.8936275e+001
3.5457600e+001
3.2499939e+001
3.0021069e+001
2.7935314e+001
2.6175283e+001
2.4702257e+001
2.3499439e+001
2.2564352e+001
2.1900000e+001
2.1510859e+001
2.1385994e+001
2.1498535e+001
2.1816633e+001
2.2308899e+001
2.2955793e+001
2.3760099e+001
2.4778790e+001
2.6119226e+001
2.7882830e+001
3.0129589e+001
3.2797211e+001
3.5704140e+001
3.8659760e+001
4.1501156e+001
4.4130627e+001
4.6551891e+001
4.8966827e+001
5.1683456e+001
5.4592884e+001
5.7139420e+001
5.8878090e+001
5.9645779e+001
5.9615452e+001
5.9212749e+001
5.8607319e+001
5.7630062e+001
5.6086838e+001
5.3889057e+001
5.1236256e+001
4.8586788e+001
4.6223206e+001
4.4151173e+001
4.2264626e+001
4.0402550e+001
3.8419933e+001
3.6220791e+001
3.3807255e+001
3.1288847e+001
2.8835629e+001
2.6622927e+001
2.4643599e+001
2.2686769e+001
2.0562620e+001
1.8194614e+001
1.5705919e+001
1.3396940e+001
1.1435234e+001
9.7758408e+000
8.3013287e+000
6.8806429e+000
5.4636970e+000
4.1035376e+000
2.8631349e+000
1.7896850e+000
9.2190564e-001
2.8954017e-001
-9.2932299e-002
-2.1638046e-001
-1.2225002e-002
6.3993359e-001
1.7402046e+000
3.1230299e+000
4.6023178e+000
6.0264173e+000
7.3307652e+000
8.5537519e+000
9.7512341e+000
1.0960348e+001
1.2143000e+001
1.3169539e+001
1.3911677e+001
1.4281277e+001
1.4270228e+001
1.3964001e+001
1.3457535e+001
1.2825070e+001
1.2112629e+001
1.1332381e+001
1.0475612e+001
9.5257339e+000
8.5095758e+000
7.5139585e+000
6.6236863e+000
5.8979721e+000
5.3637052e+000
5.0109115e+000
4.8234015e+000
4.7879443e+000
4.8923287e+000
5.1243119e+000
5.4674821e+000
5.8982334e+000
6.3863339e+000
6.8932900e+000
7.3714414e+000
7.7638140e+000
8.0190802e+000
8.1009493e+000
8.0004568e+000
7.7454062e+000
7.3805156e+000
6.9610777e+000
6.5292640e+000
6.1040001e+000
5.6970644e+000
5.3152966e+000
4.9540219e+000
4.5925159e+000
4.2042742e+000
3.7628658e+000
3.2617500e+000
2.7233407e+000
2.1688280e+000
1.6078272e+000
1.0499787e+000
5.1253760e-001
3.6707535e-002
-3.0642200e-001
-4.6674243e-001
-4.3789408e-001
-2.2509679e-001
1.6064140e-001
6.9041765e-001
1.3105500e+000
1.9717160e+000
2.6392651e+000
3.2749438e+000
3.8291118e+000
4.2468171e+000
4.4735703e+000
4.4851928e+000
4.3082747e+000
3.9923651e+000
3.6050372e+000
3.2140589e+000
2.8771868e+000
2.6289201e+000
2.4662619e+000
2.3652699e+000
2.2828794e+000
2.1852582e+000
2.0633366e+000
1.9233054e+000
1.7868421e+000
1.6757578e+000
1.6061460e+000
1.5935905e+000
1.6554205e+000
1.8106428e+000
2.0785184e+000
2.4680045e+000
2.9679422e+000
3.5522358e+000
4.1768279e+000
4.7966881e+000
5.3735700e+000
5.8781729e+000
6.2956820e+000
6.6236858e+000
6.8769383e+000
7.0771489e+000
7.2517014e+000
7.4262762e+000
7.6223850e+000
7.8664784e+000
8.1949263e+000
8.6404524e+000
9.2221069e+000
9.9411030e+000
1.0771631e+001
1.1684876e+001
1.2658133e+001
1.3673737e+001
1.4717751e+001
1.5770762e+001
1.6795200e+001
1.7741367e+001
1.8537344e+001
1.9108671e+001
1.9387070e+001
1.9322121e+001
1.8900669e+001
1.8133722e+001
1.7065823e+001
1.5764206e+001
1.4323508e+001
1.2852446e+001
1.1471650e+001
1.0284519e+001
9.3515835e+000
8.7048903e+000
8.3392467e+000
8.2253294e+000
8.3002062e+000
8.4736824e+000
8.6182518e+000
8.6152906e+000
8.3873186e+000
7.9029355e+000
7.2077084e+000
6.3734441e+000
5.4879489e+000
4.6322188e+000
3.8627648e+000
3.2166176e+000
2.7008257e+000
2.3106039e+000
2.0308101e+000
1.8441401e+000
1.7340851e+000
1.6831867e+000
1.6717244e+000
1.6829269e+000
1.7076979e+000
1.7390406e+000
1.7702451e+000
1.7908057e+000
1.7817353e+000
1.7244885e+000
1.6072083e+000
1.4299709e+000
1.2158790e+000
9.9181920e-001
7.8021318e-001
5.9300888e-001
4.2029172e-001
2.4535467e-001
4.9984083e-002
-1.6491371e-001
-3.5419521e-001
-4.7780031e-001
-5.3374857e-001
-5.3707826e-001
-5.2125829e-001
-5.1812810e-001
-5.4372454e-001
-5.9864360e-001
-6.5539211e-001
-6.8201548e-001
-6.5380067e-001
-5.6219953e-001
-4.3425879e-001
-3.0371633e-001
-1.9829151e-001
-1.3116199e-001
-8.1760034e-002
-1.4636904e-002
1.2102509e-001
3.6225855e-001
6.9990021e-001
1.0994101e+000
1.4918559e+000
1.8242502e+000
2.1062548e+000
2.3646426e+000
2.6282673e+000
2.9009147e+000
3.1190319e+000
3.2159414e+000
3.1621029e+000
2.9588554e+000
2.6661010e+000
2.3549228e+000
2.0870192e+000
1.9081399e+000
1.8255293e+000
1.8227988e+000
1.8451453e+000
1.8352228e+000
1.7557378e+000
1.5946589e+000
1.3970490e+000
1.2210182e+000
1.1211929e+000
1.1338365e+000
1.2461904e+000
1.4334097e+000
1.6702540e+000
1.9323400e+000
2.1981387e+000
2.4352555e+000
2.5798764e+000
2.5744290e+000
2.4044821e+000
2.0844653e+000
1.6844910e+000
1.2780077e+000
9.0808851e-001
5.9968281e-001
3.4581137e-001
1.3339561e-001
-4.5342401e-002
-1.9565520e-001
-3.1965315e-001
-4.2722937e-001
-5.5422300e-001
-7.3505342e-001
-9.7858292e-001
-1.2715929e+000
-1.5514770e+000
-1.7553291e+000
-1.8579223e+000
-1.8590289e+000
-1.8077314e+000
-1.7569085e+000
-1.7304335e+000
-1.7343119e+000
-1.7374780e+000
-1.7051657e+000
-1.6210951e+000
-1.4835740e+000
-1.3259000e+000
-1.1889646e+000
-1.1087750e+000
-1.1070257e+000
-1.1597670e+000
-1.2272172e+000
-1.2543244e+000
-1.1946213e+000
-1.0451170e+000
-8.1963122e-001
-5.5258262e-001
-2.8889871e-001
-9.0955041e-002
-3.3834167e-003
7.6758573e-003
-1.3676759e-002
-5.6524798e-002
-1.1566857e-001
-1.7670721e-001
-2.2159669e-001
-2.2745450e-001
-1.7626500e-001
-7.2588302e-002
6.7191109e-002
2.0361666e-001
3.0058601e-001
3.5647789e-001
3.8926485e-001
4.5869786e-001
6.2866843e-001
9.3846416e-001
1.3967710e+000
1.9173586e+000
2.4003124e+000
2.7863870e+000
3.0392859e+000
3.1740632e+000
3.2182000e+000
