##TITLE=Methyl Ethyl Ketone
##JCAMP-DX=4.24
##DATA TYPE=INFRARED SPECTRUM
##XUNITS=cm-1
##YUNITS=Absorbance
##FIRSTX=900
##LASTX=2300
##XYDATA=(X++(Y..Y))
2296 -0.0018374
2294 -0.0018756452
2292 -0.0019137908
2290 -0.0019520358
2288 -0.001990281
2286 -0.0020285265
2284 -0.0020667717
2282 -0.0021051161
2280 -0.0021431646
2278 -0.0021809142
2276 -0.0022196455
2274 -0.0022597683
2272 -0.002296176
2270 -0.002327126
2268 -0.002372388
2266 -0.0024374942
2264 -0.0024496485
2262 -0.002387942
2260 -0.0025227999
2258 -0.0029331516
2256 -0.0026127573
2254 -0.001265273
2252 -0.0026338494
2250 -0.0078327311
2248 -0.0029361581
2246 0.021476496
2244 0.039898001
2242 0.019672543
2240 -0.061230961
2238 -0.21060823
2236 -0.39124441
2234 -0.5568766
2232 -0.67612773
2230 -0.73269659
2228 -0.75321203
2226 -0.76984298
2224 -0.78701383
2222 -0.79794919
2220 -0.78428644
2218 -0.73251635
2216 -0.66235971
2214 -0.6015501
2212 -0.56979179
2210 -0.57840812
2208 -0.61491698
2206 -0.6627115
2204 -0.71758008
2202 -0.78052169
2200 -0.85793507
2198 -0.95476693
2196 -1.0636535
2194 -1.1721877
2192 -1.2623961
2190 -1.3176174
2188 -1.3339664
2186 -1.3142679
2184 -1.274412
2182 -1.2316933
2180 -1.1926148
2178 -1.1593646
2176 -1.13036
2174 -1.1043483
2172 -1.0868791
2170 -1.08722
2168 -1.1188365
2166 -1.1944807
2164 -1.3164729
2162 -1.4770646
2160 -1.6408685
2158 -1.7673151
2156 -1.83232
2154 -1.8247215
2152 -1.764796
2150 -1.6806207
2148 -1.5893257
2146 -1.5021893
2144 -1.4235468
2142 -1.3578731
2140 -1.320944
2138 -1.3303298
2136 -1.3941771
2134 -1.5107018
2132 -1.6487648
2130 -1.7678864
2128 -1.829924
2126 -1.8066286
2124 -1.7059265
2122 -1.5545626
2120 -1.4035949
2118 -1.3067539
2116 -1.2930472
2114 -1.370478
2112 -1.500052
2110 -1.6275069
2108 -1.7068911
2106 -1.7079571
2104 -1.6505142
2102 -1.572858
2100 -1.51149
2098 -1.4933406
2096 -1.5120144
2094 -1.5475749
2092 -1.5772617
2090 -1.5842997
2088 -1.5786697
2086 -1.5798099
2084 -1.6043843
2082 -1.6607993
2080 -1.7298229
2078 -1.7846873
2076 -1.8118485
2074 -1.8063967
2072 -1.7753
2070 -1.7298679
2068 -1.6810125
2066 -1.6394879
2064 -1.6165479
2062 -1.6201295
2060 -1.6425352
2058 -1.6719489
2056 -1.7056029
2054 -1.7448338
2052 -1.7895352
2050 -1.836159
2048 -1.8698263
2046 -1.8753
2044 -1.854308
2042 -1.8172027
2040 -1.7783766
2038 -1.7527833
2036 -1.75316
2034 -1.7894781
2032 -1.864056
2030 -1.9711109
2028 -2.0839686
2026 -2.1682341
2024 -2.1944799
2022 -2.1453235
2020 -2.0418165
2018 -1.9242903
2016 -1.8412601
2014 -1.8318303
2012 -1.8827823
2010 -1.9569883
2008 -2.0171211
2006 -2.0365286
2004 -2.0279949
2002 -2.018801
2000 -2.0216739
1998 -2.0384066
1996 -2.0586286
1994 -2.0696664
1992 -2.0697777
1990 -2.0619545
1988 -2.044534
1986 -2.0153637
1984 -1.9814886
1982 -1.9562689
1980 -1.9590203
1978 -2.0030344
1976 -2.0642858
1974 -2.1003602
1972 -2.0697548
1970 -1.9489752
1968 -1.7847629
1966 -1.6542085
1964 -1.6150861
1962 -1.6953572
1960 -1.84738
1958 -1.9924656
1956 -2.078697
1954 -2.0802588
1952 -2.0148818
1950 -1.9211942
1948 -1.8388897
1946 -1.7999001
1944 -1.807448
1942 -1.8463445
1940 -1.8857151
1938 -1.8934882
1936 -1.8630371
1934 -1.8039881
1932 -1.734978
1930 -1.6739367
1928 -1.6197314
1926 -1.5576108
1924 -1.4604831
1922 -1.305915
1920 -1.1175445
1918 -0.94292498
1916 -0.82109797
1914 -0.77498496
1912 -0.78632241
1910 -0.82089084
1908 -0.87128496
1906 -0.94341302
1904 -1.0281756
1902 -1.1044809
1900 -1.1425852
1898 -1.1183949
1896 -1.0519285
1894 -0.98713648
1892 -0.96264994
1890 -1.0043083
1888 -1.1047652
1886 -1.2373879
1884 -1.372654
1882 -1.4834145
1880 -1.5526195
1878 -1.5708834
1876 -1.53653
1874 -1.4535989
1872 -1.3327651
1870 -1.1911474
1868 -1.0584258
1866 -0.96828008
1864 -0.93945235
1862 -0.97624248
1860 -1.061408
1858 -1.1667986
1856 -1.2702942
1854 -1.3539689
1852 -1.3987954
1850 -1.3895563
1848 -1.333304
1846 -1.2529821
1844 -1.1808763
1842 -1.144937
1840 -1.1345285
1838 -1.1158094
1836 -1.0613729
1834 -0.95564634
1832 -0.80696309
1830 -0.63970542
1828 -0.48531961
1826 -0.37693951
1824 -0.34223697
1822 -0.39762577
1820 -0.52618682
1818 -0.68711531
1816 -0.82744229
1814 -0.89712888
1812 -0.88431948
1810 -0.80586261
1808 -0.69202495
1806 -0.576796
1804 -0.48427016
1802 -0.42737991
1800 -0.40149218
1798 -0.38860795
1796 -0.3596293
1794 -0.28882095
1792 -0.19383
1790 -0.1165551
1788 -0.071571775
1786 -0.048034519
1784 -0.021608502
1782 0.034461848
1780 0.12828435
1778 0.25194162
1776 0.38718942
1774 0.50632483
1772 0.56345135
1770 0.51447731
1768 0.37915125
1766 0.22178172
1764 0.096101403
1762 0.03124376
1760 0.0062968517
1758 -0.021244606
1756 -0.035893515
1754 0.020738386
1752 0.18991277
1750 0.47406012
1748 0.78319561
1746 0.97706783
1744 0.98509061
1742 0.82148314
1740 0.61249465
1738 0.53193396
1736 0.62639004
1734 0.81996411
1732 0.96035099
1730 0.88604325
1728 0.5908488
1726 0.2010546
1724 -0.11873642
1722 -0.2014734
1720 0.079002172
1718 0.78101873
1716 1.8005557
1714 2.9254529
1712 4.0043859
1710 4.9852962
1708 5.973834
1706 7.1903634
1704 8.858367
1702 11.158645
1700 14.141637
1698 17.700399
1696 21.464144
1694 24.928501
1692 27.887297
1690 30.47171
1688 33.108727
1686 36.37772
1684 40.642193
1682 45.925686
1680 51.6306
1678 56.834198
1676 61.338329
1674 65.624794
1672 70.167206
1670 75.206932
1668 80.451248
1666 85.237396
1664 89.184235
1662 92.251343
1660 94.534058
1658 96.179466
1656 97.28537
1654 97.88974
1652 97.993797
1650 97.574768
1648 96.609001
1646 95.103966
1644 93.203728
1642 91.13913
1640 88.978104
1638 86.606232
1636 83.843925
1634 80.526382
1632 76.693115
1630 72.554031
1628 68.221786
1626 63.681229
1624 58.908119
1622 53.919991
1620 48.863083
1618 43.98761
1616 39.485626
1614 35.46553
1612 31.986803
1610 29.06395
1608 26.651772
1606 24.658043
1604 23.005934
1602 21.650274
1600 20.574821
1598 19.786581
1596 19.295
1594 19.100567
1592 19.183388
1590 19.504654
1588 20.022526
1586 20.699642
1584 21.513439
1582 22.470131
1580 23.645868
1578 25.173552
1576 27.153114
1574 29.612446
1572 32.439224
1570 35.402287
1568 38.322559
1566 41.111015
1564 43.728218
1562 46.200275
1560 48.720589
1558 51.561619
1556 54.573601
1554 57.169468
1552 58.917027
1550 59.713341
1548 59.786636
1546 59.592571
1544 59.297096
1542 58.681786
1540 57.428921
1538 55.280277
1536 52.398342
1534 49.367302
1532 46.628109
1530 44.330173
1528 42.426258
1526 40.7103
1524 38.954041
1522 36.958889
1520 34.637714
1518 32.051983
1516 29.402229
1514 26.972614
1512 24.8316
1510 22.774071
1508 20.580894
1506 18.127121
1504 15.525674
1502 13.116177
1500 11.096429
1498 9.4270973
1496 7.9895859
1494 6.64294
1492 5.3229713
1490 4.0596199
1488 2.8751588
1486 1.7670314
1484 0.77654326
1482 0.0044257939
1480 -0.44849145
1478 -0.4951511
1476 -0.039907545
1474 0.99103683
1472 2.4777119
1470 4.081656
1468 5.5440135
1466 6.7858777
1464 7.8551068
1462 8.9035902
1460 10.046441
1458 11.298667
1456 12.531
1454 13.475434
1452 13.958252
1450 13.979029
1448 13.628182
1446 13.059393
1444 12.398522
1442 11.70812
1440 11.017497
1438 10.320593
1436 9.5831442
1434 8.753067
1432 7.8322263
1430 6.9026389
1428 6.0642657
1426 5.4092741
1424 4.9842653
1422 4.7720962
1420 4.7278361
1418 4.7898755
1416 4.9078598
1414 5.0562401
1412 5.2356629
1410 5.473423
1408 5.7854695
1406 6.160656
1404 6.5694695
1402 6.9633346
1400 7.2864599
1398 7.4800034
1396 7.4948215
1394 7.3031011
1392 6.9184484
1390 6.4078236
1388 5.846086
1386 5.29953
1384 4.8154945
1382 4.4124331
1380 4.0851049
1378 3.7996986
1376 3.5046515
1374 3.1375811
1372 2.6690121
1370 2.1252475
1368 1.5529748
1366 1.007354
1364 0.52235019
1362 0.098849371
1360 -0.25392035
1358 -0.50228041
1356 -0.60621256
1354 -0.52884489
1352 -0.26022708
1350 0.16792813
1348 0.71328485
1346 1.3329643
1344 1.9932719
1342 2.6710091
1340 3.3181407
1338 3.8446593
1336 4.1615658
1334 4.2069058
1332 3.9878297
1330 3.6114299
1328 3.1881876
1326 2.7949572
1324 2.4864018
1322 2.2898722
1320 2.2087567
1318 2.2144959
1316 2.2544401
1314 2.2523465
1312 2.1526136
1310 1.9478222
1308 1.6646777
1306 1.3677086
1304 1.1169049
1302 0.94796073
1300 0.88234055
1298 0.92621261
1296 1.0839
1294 1.3611643
1292 1.7554277
1290 2.2473731
1288 2.806268
1286 3.3883293
1284 3.9506304
1282 4.4587469
1280 4.8878336
1278 5.2280898
1276 5.4808173
1274 5.6624317
1272 5.7982969
1270 5.923986
1268 6.0791693
1266 6.3054385
1264 6.6367002
1262 7.0895629
1260 7.6650157
1258 8.342165
1256 9.0965719
1254 9.9077806
1252 10.76306
1250 11.662927
1248 12.611663
1246 13.611
1244 14.648751
1242 15.68612
1240 16.658279
1238 17.465191
1236 18.005701
1234 18.194994
1232 17.98316
1230 17.380817
1228 16.436811
1226 15.245914
1224 13.904126
1222 12.497672
1220 11.108894
1218 9.8224297
1216 8.7228689
1214 7.890717
1212 7.3786273
1210 7.1817369
1208 7.2510676
1206 7.4738564
1204 7.7213502
1202 7.8663325
1200 7.8070149
1198 7.497695
1196 6.9343858
1194 6.174427
1192 5.2986975
1190 4.405746
1188 3.5849605
1186 2.8943272
1184 2.3659353
1182 1.9912599
1180 1.7459663
1178 1.5930932
1176 1.49902
1174 1.4450436
1172 1.4196932
1170 1.4198165
1168 1.4429801
1166 1.4838164
1164 1.5350648
1162 1.5862839
1160 1.6251074
1158 1.6363075
1156 1.6066414
1154 1.5284382
1152 1.3994726
1150 1.2267789
1148 1.0199682
1146 0.78963995
1144 0.55249453
1142 0.33701032
1140 0.16456771
1138 0.033522125
1136 -0.06128706
1134 -0.1205145
1132 -0.14489722
1130 -0.13754791
1128 -0.099272475
1126 -0.024429969
1124 0.090080664
1122 0.23713593
1120 0.40379041
1118 0.5686034
1116 0.70542431
1114 0.78304452
1112 0.7833879
1110 0.72507823
1108 0.64698106
1106 0.61445749
1104 0.68007374
1102 0.84661043
1100 1.08935
1098 1.3461219
1096 1.5653286
1094 1.7460983
1092 1.910722
1090 2.1075375
1088 2.3738737
1086 2.7008743
1084 3.0606687
1082 3.4037294
1080 3.6767817
1078 3.830431
1076 3.8285072
1074 3.669193
1072 3.3783646
1070 3.0345194
1068 2.7202685
1066 2.4933798
1064 2.3847079
1062 2.3671048
1060 2.3985856
1058 2.4353697
1056 2.4447143
1054 2.4260259
1052 2.3900445
1050 2.356817
1048 2.3444703
1046 2.3595819
1044 2.4077549
1042 2.4996853
1040 2.6433754
1038 2.8341491
1036 3.0571001
1034 3.275809
1032 3.4511857
1030 3.5514474
1028 3.5503397
1026 3.4324729
1024 3.1956053
1022 2.868768
1020 2.4955752
1018 2.1395805
1016 1.855617
1014 1.6561778
1012 1.5299828
1010 1.4235827
1008 1.284452
1006 1.0951902
1004 0.85933107
1002 0.61863953
1000 0.41095126
998 0.23265669
996 0.066011004
994 -0.1189273
992 -0.34840122
990 -0.62678593
988 -0.94221258
986 -1.2479043
984 -1.4870937
982 -1.5987654
980 -1.5402319
978 -1.330986
976 -1.0100789
974 -0.62992191
972 -0.24118969
970 0.12312657
968 0.43162239
966 0.6445775
964 0.73724014
962 0.74304605
960 0.71369493
958 0.71327251
956 0.78232545
954 0.86936867
952 0.90380037
950 0.82890308
948 0.62109637
946 0.36104751
944 0.14053075
942 -0.0014558025
940 -0.042154394
938 0.029484048
936 0.20729971
934 0.43356922
932 0.65257257
930 0.86295277
928 1.082
926 1.345595
924 1.676756
922 2.0334115
920 2.3548765
918 2.5724134
916 2.6349571
914 2.5680461
912 2.4241033
910 2.285387
908 2.2249255
906 2.2517507
904 2.3570726
902 2.5272601
900 2.751112
898 3.0350068
896 3.3893001
