Image.
>Pix99999.
  .
5555
5555
2300
900
5555
2
1
0
701
5555
-3.1854000e-002
-3.2516055e-002
-3.3179104e-002
-3.3841159e-002
-3.4504205e-002
-3.5167258e-002
-3.5829321e-002
-3.6492363e-002
-3.7155412e-002
-3.7817478e-002
-3.8480517e-002
-3.9143566e-002
-3.9805636e-002
-4.0466707e-002
-4.1130699e-002
-4.1798666e-002
-4.2456940e-002
-4.3100361e-002
-4.3781437e-002
-4.4512104e-002
-4.5109026e-002
-4.5515940e-002
-4.6423927e-002
-4.8038147e-002
-4.7790695e-002
-3.8993429e-002
-1.4362399e-003
7.2656117e-002
1.2578765e-001
9.3207516e-002
-4.4668540e-002
-2.7589828e-001
-5.1382220e-001
-6.6867769e-001
-7.2424674e-001
-6.9275749e-001
-6.1415470e-001
-5.2761704e-001
-4.3730044e-001
-3.4008551e-001
-2.4559657e-001
-1.6642024e-001
-1.1106060e-001
-8.3660230e-002
-7.5687684e-002
-7.6840356e-002
-8.5074484e-002
-9.5763765e-002
-8.3281547e-002
-2.2253320e-002
8.5091427e-002
2.2115904e-001
3.4131593e-001
4.0384173e-001
4.1278970e-001
3.9004213e-001
3.7020358e-001
3.8565275e-001
4.4434386e-001
5.4202461e-001
6.5726459e-001
7.6341212e-001
8.3453071e-001
8.5244370e-001
8.2927942e-001
7.8932869e-001
7.6550996e-001
7.8477114e-001
8.3887208e-001
9.0572912e-001
9.5573801e-001
9.6578866e-001
9.4890368e-001
9.3036509e-001
9.3456584e-001
9.7612929e-001
1.0320822e+000
1.0710520e+000
1.0814089e+000
1.0689815e+000
1.0816486e+000
1.1685683e+000
1.3226346e+000
1.5084544e+000
1.6574440e+000
1.7100186e+000
1.6893752e+000
1.6470058e+000
1.6256754e+000
1.6505458e+000
1.6918843e+000
1.7082750e+000
1.6917468e+000
1.6510192e+000
1.6079743e+000
1.5862107e+000
1.5985411e+000
1.6499152e+000
1.7316741e+000
1.8274107e+000
1.9116572e+000
1.9604524e+000
1.9713131e+000
1.9523990e+000
1.9222652e+000
1.8992400e+000
1.8861566e+000
1.8791478e+000
1.8732949e+000
1.8648014e+000
1.8564043e+000
1.8525758e+000
1.8542000e+000
1.8607216e+000
1.8735363e+000
1.8943529e+000
1.9222777e+000
1.9541678e+000
1.9792217e+000
1.9856900e+000
1.9702914e+000
1.9359821e+000
1.8969668e+000
1.8691632e+000
1.8571297e+000
1.8584571e+000
1.8641020e+000
1.8666735e+000
1.8774594e+000
1.9125917e+000
1.9739057e+000
2.0509849e+000
2.1104474e+000
2.1168311e+000
2.0670624e+000
1.9785793e+000
1.8921171e+000
1.8501236e+000
1.8618037e+000
1.9147666e+000
1.9716001e+000
1.9927822e+000
1.9758497e+000
1.9386736e+000
1.9127669e+000
1.9260392e+000
1.9709046e+000
2.0235279e+000
2.0634828e+000
2.0774183e+000
2.0724216e+000
2.0630710e+000
2.0570858e+000
2.0568597e+000
2.0600641e+000
2.0629241e+000
2.0666087e+000
2.0742488e+000
2.0873497e+000
2.1069074e+000
2.1346886e+000
2.1739941e+000
2.2328885e+000
2.3180470e+000
2.4207189e+000
2.5211880e+000
2.5858469e+000
2.5816441e+000
2.5062280e+000
2.3781276e+000
2.2384000e+000
2.1319270e+000
2.0753868e+000
2.0652776e+000
2.0766213e+000
2.0788751e+000
2.0600600e+000
2.0215487e+000
1.9764463e+000
1.9408340e+000
1.9217542e+000
1.9191121e+000
1.9254200e+000
1.9317837e+000
1.9386075e+000
1.9546993e+000
2.0029759e+000
2.1044908e+000
2.2425153e+000
2.3796659e+000
2.4808886e+000
2.5218968e+000
2.5125971e+000
2.4757731e+000
2.4102917e+000
2.3037057e+000
2.1589720e+000
1.9948082e+000
1.8563511e+000
1.7943480e+000
1.8238572e+000
1.9311171e+000
2.0692074e+000
2.1780341e+000
2.2131400e+000
2.1510723e+000
2.0130205e+000
1.8445768e+000
1.6892772e+000
1.5820311e+000
1.5357100e+000
1.5473093e+000
1.5981469e+000
1.6594951e+000
1.6933661e+000
1.6661886e+000
1.5844772e+000
1.4806629e+000
1.3943112e+000
1.3584125e+000
1.3687029e+000
1.3991656e+000
1.4288834e+000
1.4430833e+000
1.4304360e+000
1.3823143e+000
1.2953212e+000
1.1754599e+000
1.0558571e+000
9.8137939e-001
9.7565371e-001
1.0415848e+000
1.1578805e+000
1.2905639e+000
1.4094605e+000
1.4898785e+000
1.5134234e+000
1.4691244e+000
1.3629720e+000
1.2141042e+000
1.0543383e+000
9.1966319e-001
8.3379978e-001
8.0839074e-001
8.4034473e-001
9.1509151e-001
1.0055299e+000
1.0808703e+000
1.1268355e+000
1.1451274e+000
1.1547000e+000
1.1792389e+000
1.2167280e+000
1.2476113e+000
1.2576009e+000
1.2379750e+000
1.1775331e+000
1.0679779e+000
9.2474079e-001
7.8016126e-001
6.6801316e-001
6.1045980e-001
5.8160573e-001
5.2858233e-001
4.2943832e-001
2.9465464e-001
1.6280180e-001
7.6414011e-002
1.9950302e-002
-5.1681209e-002
-1.1707956e-001
-1.1019437e-001
-8.5725412e-003
1.6027188e-001
3.1887487e-001
3.7211642e-001
2.8830138e-001
1.0105620e-001
-9.0825059e-002
-1.6732199e-001
-1.0201101e-001
4.5048922e-002
1.6538766e-001
1.4836845e-001
-6.9684535e-003
-2.0892724e-001
-3.4012306e-001
-2.8890598e-001
-2.9650182e-003
5.0809854e-001
1.1637121e+000
1.8397567e+000
2.4331572e+000
2.8933041e+000
3.3049641e+000
3.8573084e+000
4.7458458e+000
6.1498404e+000
8.2229757e+000
1.1030282e+001
1.4307714e+001
1.7566910e+001
2.0500237e+001
2.3055710e+001
2.5509851e+001
2.8339643e+001
3.1849623e+001
3.6063164e+001
4.0517200e+001
4.4500229e+001
4.7882713e+001
5.1080402e+001
5.4514744e+001
5.8441364e+001
6.2739182e+001
6.7017052e+001
7.1043526e+001
7.4782921e+001
7.8230133e+001
8.1382919e+001
8.4275574e+001
8.6972794e+001
8.9529701e+001
9.1944946e+001
9.4006744e+001
9.5369568e+001
9.5924255e+001
9.5797531e+001
9.5092110e+001
9.3828102e+001
9.1941383e+001
8.9343346e+001
8.6130653e+001
8.2559479e+001
7.8800842e+001
7.4906143e+001
7.0883682e+001
6.6737328e+001
6.2533310e+001
5.8390213e+001
5.4390942e+001
5.0576660e+001
4.7007240e+001
4.3759220e+001
4.0857006e+001
3.8270035e+001
3.5969116e+001
3.3940361e+001
3.2185879e+001
3.0716604e+001
2.9521500e+001
2.8562719e+001
2.7793961e+001
2.7172392e+001
2.6675985e+001
2.6305677e+001
2.6066965e+001
2.5966770e+001
2.6028240e+001
2.6290165e+001
2.6793858e+001
2.7567089e+001
2.8575972e+001
2.9726271e+001
3.0922520e+001
3.2092529e+001
3.3214764e+001
3.4345257e+001
3.5681133e+001
3.7489876e+001
3.9728172e+001
4.2013710e+001
4.4008183e+001
4.5542469e+001
4.6694290e+001
4.7743034e+001
4.8828217e+001
4.9877583e+001
5.0734161e+001
5.1215931e+001
5.1241798e+001
5.0858776e+001
5.0181751e+001
4.9357277e+001
4.8465527e+001
4.7497101e+001
4.6404789e+001
4.5124763e+001
4.3615246e+001
4.1880737e+001
4.0013115e+001
3.8167076e+001
3.6362881e+001
3.4449505e+001
3.2259605e+001
2.9690563e+001
2.6860559e+001
2.4104109e+001
2.1628401e+001
1.9419310e+001
1.7377430e+001
1.5369192e+001
1.3313406e+001
1.1204453e+001
9.0570068e+000
6.9041419e+000
4.8484621e+000
3.0602851e+000
1.6447942e+000
6.2461400e-001
9.8499574e-002
2.3516756e-001
9.6140933e-001
1.9060290e+000
2.7982821e+000
3.5881357e+000
4.3193178e+000
5.0792499e+000
5.8759294e+000
6.5997834e+000
7.1089201e+000
7.2789335e+000
7.1303859e+000
6.8534837e+000
6.5786834e+000
6.3096356e+000
6.0321169e+000
5.7445960e+000
5.4489284e+000
5.1429305e+000
4.7960415e+000
4.3498507e+000
3.7909212e+000
3.1782587e+000
2.5993800e+000
2.1507406e+000
1.8818932e+000
1.7724072e+000
1.7758887e+000
1.8360999e+000
1.9227371e+000
2.0458910e+000
2.2276134e+000
2.4906569e+000
2.8388474e+000
3.2495587e+000
3.6996164e+000
4.1718774e+000
4.6419640e+000
5.0731940e+000
5.4261928e+000
5.6653867e+000
5.7785110e+000
5.7848339e+000
5.7028761e+000
5.5408449e+000
5.3096995e+000
5.0283823e+000
4.7198582e+000
4.4072599e+000
4.0963740e+000
3.7695339e+000
3.4198761e+000
3.0643952e+000
2.7197616e+000
2.3913064e+000
2.0644062e+000
1.7030233e+000
1.2971697e+000
8.8500613e-001
5.1658887e-001
2.3903191e-001
7.1047433e-002
-1.0723790e-002
-2.7833117e-002
1.6349357e-002
1.2415292e-001
2.9610175e-001
5.0623882e-001
6.8883014e-001
7.8342086e-001
7.5836676e-001
6.2239176e-001
4.3795669e-001
2.6834241e-001
1.5654635e-001
1.3078640e-001
2.0042759e-001
3.5925910e-001
5.8093768e-001
8.2735896e-001
1.0506814e+000
1.2153955e+000
1.3122492e+000
1.3476063e+000
1.3430036e+000
1.3176000e+000
1.2809099e+000
1.2414402e+000
1.2104729e+000
1.1998857e+000
1.2208027e+000
1.2790318e+000
1.3712547e+000
1.4911799e+000
1.6304957e+000
1.7779135e+000
1.9176227e+000
2.0365012e+000
2.1290276e+000
2.2010200e+000
2.2754619e+000
2.3785553e+000
2.5342848e+000
2.7608628e+000
3.0659964e+000
3.4506884e+000
3.9073691e+000
4.4239020e+000
4.9843454e+000
5.5770516e+000
6.1999660e+000
6.8511224e+000
7.5237784e+000
8.2030830e+000
8.8622255e+000
9.4799652e+000
1.0052554e+001
1.0586788e+001
1.1099608e+001
1.1596629e+001
1.2050813e+001
1.2420040e+001
1.2646995e+001
1.2693131e+001
1.2568957e+001
1.2300829e+001
1.1929803e+001
1.1491683e+001
1.1001480e+001
1.0471371e+001
9.9146643e+000
9.3447914e+000
8.7710295e+000
8.1996050e+000
7.6303849e+000
7.0620761e+000
6.4928150e+000
5.9164166e+000
5.3190041e+000
4.6933999e+000
4.0520372e+000
3.4222765e+000
2.8506000e+000
2.3692932e+000
1.9701079e+000
1.6335744e+000
1.3383181e+000
1.0802921e+000
8.9131486e-001
7.9656398e-001
7.8643286e-001
8.3161986e-001
8.7956113e-001
8.8904154e-001
8.5723788e-001
7.9863960e-001
7.4468189e-001
7.1855795e-001
7.1512192e-001
7.1643811e-001
6.9213444e-001
6.1988515e-001
5.0330091e-001
3.5762879e-001
2.1045142e-001
8.8715248e-002
1.0668529e-002
-1.1430780e-002
2.5582932e-002
1.2341114e-001
2.8549069e-001
5.1639962e-001
8.2220232e-001
1.2071869e+000
1.6695721e+000
2.1984632e+000
2.7639403e+000
3.3282359e+000
3.8470802e+000
4.2865644e+000
4.6441851e+000
4.9354701e+000
5.2016888e+000
5.4818220e+000
5.7925649e+000
6.1347227e+000
6.4833078e+000
6.8151169e+000
7.1286907e+000
7.4333429e+000
7.7525849e+000
8.1100340e+000
8.5213165e+000
8.9953566e+000
9.5286894e+000
1.0103080e+001
1.0668554e+001
1.1167651e+001
1.1537340e+001
1.1732657e+001
1.1758540e+001
1.1653766e+001
1.1505335e+001
1.1397454e+001
1.1372528e+001
1.1440080e+001
1.1546790e+001
1.1631803e+001
1.1664761e+001
1.1630172e+001
1.1538539e+001
1.1394826e+001
1.1187420e+001
1.0900479e+001
1.0528000e+001
1.0075799e+001
9.5824747e+000
9.0917702e+000
8.6490383e+000
8.2837200e+000
7.9796910e+000
7.7049947e+000
7.4151678e+000
7.0716934e+000
6.6630592e+000
6.1905775e+000
5.6743302e+000
5.1448727e+000
4.6505423e+000
4.2315230e+000
3.8898702e+000
3.6054258e+000
3.3196657e+000
2.9853001e+000
2.6184587e+000
2.2579255e+000
1.9619875e+000
1.7670703e+000
1.6265503e+000
1.4783857e+000
1.2789360e+000
1.0136609e+000
7.4661160e-001
5.4593849e-001
4.2968172e-001
3.9073503e-001
3.8136300e-001
3.6140040e-001
3.4825408e-001
3.6995715e-001
4.4213018e-001
5.6653923e-001
7.0919526e-001
8.3641863e-001
9.4519895e-001
1.0402014e+000
1.1261300e+000
1.2015114e+000
1.2429110e+000
1.2269686e+000
1.1491119e+000
1.0095489e+000
8.0915159e-001
5.6181741e-001
3.2649821e-001
1.4968571e-001
-5.5837482e-003
-1.7429757e-001
-3.1049019e-001
-3.7297773e-001
-4.1049945e-001
-4.8155564e-001
-5.9802175e-001
-7.5092143e-001
-8.9703494e-001
-9.8768741e-001
-9.8605967e-001
-8.7824905e-001
-7.2554725e-001
-6.0888630e-001
-6.1237305e-001
-7.9767203e-001
-1.1369020e+000
-1.5662638e+000
-1.9688529e+000
-2.2411149e+000
-2.3830705e+000
-2.4226191e+000
-2.3943141e+000
-2.3343000e+000
