Image.
>Pix99999.
  .
5555
5555
2300
900
5555
2
1
0
701
5555
4.9761999e-002
5.0819486e-002
5.1876973e-002
5.2934464e-002
5.3990953e-002
5.5048432e-002
5.6105923e-002
5.7163410e-002
5.8219906e-002
5.9277385e-002
6.0334872e-002
6.1392359e-002
6.2448863e-002
6.3504368e-002
6.4563781e-002
6.5630108e-002
6.6679001e-002
6.7702129e-002
6.8791896e-002
6.9975756e-002
7.0911430e-002
7.1496725e-002
7.3006570e-002
7.5820066e-002
7.5198404e-002
6.5913931e-002
4.6484280e-002
1.5549528e-002
-3.1998321e-002
-9.6308991e-002
-1.5321279e-001
-1.7657970e-001
-1.6037285e-001
-1.0741919e-001
-3.2775946e-002
4.5840900e-002
1.1393214e-001
1.5975675e-001
1.7866054e-001
1.6828802e-001
1.2709600e-001
5.6677330e-002
-2.9565061e-002
-1.1365877e-001
-1.7353977e-001
-1.9233114e-001
-1.7896330e-001
-1.4956316e-001
-1.1740691e-001
-9.0472460e-002
-5.9535641e-002
-1.3102471e-002
4.7677312e-002
1.1679484e-001
1.8506500e-001
2.4368992e-001
2.8931803e-001
3.1985006e-001
3.3117297e-001
3.2112879e-001
2.9826027e-001
2.7325162e-001
2.5110883e-001
2.3324500e-001
2.1428902e-001
1.8878193e-001
1.6000277e-001
1.3067399e-001
8.9310706e-002
2.3338521e-002
-6.4139403e-002
-1.5893236e-001
-2.2377636e-001
-2.2434951e-001
-1.7042530e-001
-8.9868397e-002
-2.1323103e-002
2.8568532e-003
-1.0183516e-002
-3.9217815e-002
-6.2718146e-002
-6.3997142e-002
-4.5019377e-002
-1.6589727e-002
1.5421999e-003
-9.9699143e-003
-5.6351125e-002
-1.3326840e-001
-2.1853228e-001
-2.8503829e-001
-3.1175500e-001
-2.8434581e-001
-2.0610698e-001
-9.2133738e-002
2.0428367e-002
9.1601960e-002
1.0313800e-001
5.2503653e-002
-3.2978561e-002
-1.1753362e-001
-1.7634428e-001
-1.9484076e-001
-1.8176688e-001
-1.5466771e-001
-1.3074496e-001
-1.2219299e-001
-1.2222343e-001
-1.1839148e-001
-1.0564394e-001
-8.4316798e-002
-6.3761443e-002
-5.3942237e-002
-5.2937802e-002
-5.5836141e-002
-6.5992884e-002
-9.1280386e-002
-1.4340992e-001
-2.3065552e-001
-3.4096140e-001
-4.5430690e-001
-5.5285943e-001
-6.2323934e-001
-6.6515398e-001
-6.8334132e-001
-6.8071359e-001
-6.6038036e-001
-6.3047659e-001
-6.0209829e-001
-5.8937067e-001
-6.0389900e-001
-6.4168042e-001
-6.8955827e-001
-7.2460967e-001
-7.2310942e-001
-6.7455798e-001
-5.7939994e-001
-4.5874882e-001
-3.4347093e-001
-2.6825917e-001
-2.6259515e-001
-3.2869199e-001
-4.4991589e-001
-5.8234042e-001
-6.7702913e-001
-7.1353847e-001
-6.9113642e-001
-6.3424081e-001
-5.7493865e-001
-5.3195304e-001
-5.1427430e-001
-5.1877570e-001
-5.3780526e-001
-5.6684119e-001
-6.0337025e-001
-6.4564556e-001
-6.9217879e-001
-7.4156266e-001
-7.9254293e-001
-8.4465581e-001
-8.9592117e-001
-9.3644631e-001
-9.5270461e-001
-9.3243474e-001
-8.7243098e-001
-8.0462492e-001
-7.7403104e-001
-8.0728483e-001
-9.0959668e-001
-1.0386928e+000
-1.1380129e+000
-1.1882714e+000
-1.1956862e+000
-1.1871800e+000
-1.1916769e+000
-1.2098552e+000
-1.2277750e+000
-1.2352189e+000
-1.2279320e+000
-1.2143618e+000
-1.2073507e+000
-1.2106571e+000
-1.2222093e+000
-1.2377620e+000
-1.2502720e+000
-1.2450914e+000
-1.2040164e+000
-1.1110705e+000
-9.6295160e-001
-8.0324453e-001
-6.9207948e-001
-6.5103930e-001
-6.7103267e-001
-7.1036816e-001
-7.2495967e-001
-7.2977751e-001
-7.6833409e-001
-8.5985518e-001
-9.9537504e-001
-1.1147969e+000
-1.1433814e+000
-1.0619286e+000
-8.9400762e-001
-7.0168144e-001
-5.5851001e-001
-5.0574929e-001
-5.5794322e-001
-7.0126998e-001
-9.0530217e-001
-1.1304425e+000
-1.3306998e+000
-1.4493999e+000
-1.4337666e+000
-1.2746772e+000
-1.0061284e+000
-7.3717219e-001
-6.0020286e-001
-6.4488870e-001
-8.5011441e-001
-1.1189907e+000
-1.3307723e+000
-1.4377514e+000
-1.4447930e+000
-1.3757697e+000
-1.2612400e+000
-1.1322240e+000
-1.0189872e+000
-9.5068663e-001
-9.4727099e-001
-9.9072707e-001
-1.0389112e+000
-1.0472214e+000
-9.7928423e-001
-8.3003241e-001
-6.2362421e-001
-4.2660272e-001
-3.2224256e-001
-3.5723856e-001
-5.3767204e-001
-8.0532742e-001
-1.0675828e+000
-1.2508457e+000
-1.3105243e+000
-1.2563106e+000
-1.1305052e+000
-9.7020406e-001
-8.0225849e-001
-6.4096379e-001
-4.9242851e-001
-3.5962743e-001
-2.4175638e-001
-1.2627979e-001
-2.4101771e-003
9.7347647e-002
1.2107633e-001
6.6937342e-002
-2.5989041e-002
-1.0553342e-001
-1.2174401e-001
-5.4360673e-002
9.6431650e-002
3.3373684e-001
6.4837778e-001
9.5213646e-001
1.1141355e+000
1.0669417e+000
8.1841463e-001
4.8247960e-001
2.1537729e-001
5.0433774e-002
-6.5314978e-002
-1.3266629e-001
-1.0381552e-001
5.8322862e-002
3.5603708e-001
6.9896436e-001
9.4290936e-001
1.0001508e+000
8.5970110e-001
6.2975675e-001
4.7729549e-001
4.6322399e-001
5.4138368e-001
5.9158123e-001
4.7856838e-001
1.9674069e-001
-1.4343742e-001
-3.7886447e-001
-3.3408090e-001
1.0728440e-001
9.6772730e-001
2.0608115e+000
3.0769789e+000
3.8565629e+000
4.4193511e+000
4.9689498e+000
5.8249121e+000
7.2712712e+000
9.5054750e+000
1.2539175e+001
1.6183519e+001
1.9980286e+001
2.3356430e+001
2.6123505e+001
2.8493742e+001
3.0946251e+001
3.4072750e+001
3.8228596e+001
4.3420841e+001
4.9053440e+001
5.4221817e+001
5.8752754e+001
6.3144707e+001
6.7841660e+001
7.3017952e+001
7.8329788e+001
8.3093651e+001
8.6965706e+001
8.9984947e+001
9.2312538e+001
9.4140175e+001
9.5599686e+001
9.6737717e+001
9.7469398e+001
9.7610291e+001
9.6996078e+001
9.5565819e+001
9.3591774e+001
9.1570259e+001
8.9698395e+001
8.7826218e+001
8.5650314e+001
8.2844376e+001
7.9351021e+001
7.5363586e+001
7.1051857e+001
6.6506401e+001
6.1764679e+001
5.6846069e+001
5.1866798e+001
4.7030766e+001
4.2502258e+001
3.8385345e+001
3.4760464e+001
3.1681429e+001
2.9114416e+001
2.6949728e+001
2.5093655e+001
2.3492632e+001
2.2149052e+001
2.1109749e+001
2.0400501e+001
2.0010836e+001
1.9897474e+001
1.9994699e+001
2.0262989e+001
2.0697779e+001
2.1318777e+001
2.2173590e+001
2.3352741e+001
2.4974804e+001
2.7109600e+001
2.9744680e+001
3.2733685e+001
3.5820950e+001
3.8814163e+001
4.1626492e+001
4.4256622e+001
4.6798409e+001
4.9477818e+001
5.2538212e+001
5.5698174e+001
5.8177589e+001
5.9535366e+001
5.9860260e+001
5.9537022e+001
5.9086643e+001
5.8686211e+001
5.8085705e+001
5.6915382e+001
5.4852001e+001
5.1990799e+001
4.8860184e+001
4.5903721e+001
4.3334824e+001
4.1180298e+001
3.9305248e+001
3.7539066e+001
3.5717533e+001
3.3719303e+001
3.1499262e+001
2.9164471e+001
2.6948946e+001
2.4938560e+001
2.3003469e+001
2.0933046e+001
1.8523922e+001
1.5832411e+001
1.3201514e+001
1.0899699e+001
9.0132675e+000
7.5002713e+000
6.2201109e+000
5.0645647e+000
3.9908066e+000
2.9637308e+000
1.9536586e+000
9.9853998e-001
2.1592823e-001
-2.7909082e-001
-3.9383280e-001
-3.0051321e-002
8.9021230e-001
2.2669857e+000
3.7983351e+000
5.2473249e+000
6.5339718e+000
7.7030454e+000
8.9071646e+000
1.0266394e+001
1.1796913e+001
1.3329600e+001
1.4510597e+001
1.5102386e+001
1.5090334e+001
1.4590115e+001
1.3815750e+001
1.2948543e+001
1.2095150e+001
1.1322114e+001
1.0653391e+001
1.0046483e+001
9.3924475e+000
8.6234407e+000
7.7585349e+000
6.8824759e+000
6.1358600e+000
5.6200848e+000
5.3583379e+000
5.3204603e+000
5.4270129e+000
5.5975313e+000
5.7723846e+000
5.9383316e+000
6.1383586e+000
6.4111786e+000
6.7671742e+000
7.1850057e+000
7.6062150e+000
7.9638200e+000
8.1940651e+000
8.2560358e+000
8.1447210e+000
7.8856416e+000
7.5339384e+000
7.1299963e+000
6.6839700e+000
6.2063603e+000
5.7191954e+000
5.2519622e+000
4.8352518e+000
4.4611859e+000
4.0664449e+000
3.5948579e+000
3.0262797e+000
2.3868794e+000
1.7563978e+000
1.1969206e+000
7.2380412e-001
3.3667201e-001
3.0189902e-002
-1.8282257e-001
-2.6031655e-001
-1.5965737e-001
1.4557835e-001
6.3872129e-001
1.2444429e+000
1.8990880e+000
2.5760932e+000
3.2413123e+000
3.8330355e+000
4.2734742e+000
4.4775844e+000
4.4120402e+000
4.1319561e+000
3.7168813e+000
3.2528286e+000
2.8196037e+000
2.4804807e+000
2.2689521e+000
2.1719844e+000
2.1455300e+000
2.1155269e+000
2.0275481e+000
1.8745540e+000
1.6757588e+000
1.4750443e+000
1.3089652e+000
1.1914190e+000
1.1301192e+000
1.1322899e+000
1.2148000e+000
1.4106075e+000
1.7486029e+000
2.2397387e+000
2.8656960e+000
3.5623350e+000
4.2512717e+000
4.8513713e+000
5.3071837e+000
5.6137996e+000
5.7969570e+000
5.9158120e+000
6.0271158e+000
6.1675577e+000
6.3574643e+000
6.5965996e+000
6.8870726e+000
7.2434974e+000
7.6833940e+000
8.2229280e+000
8.8710766e+000
9.6240616e+000
1.0475960e+001
1.1421144e+001
1.2450047e+001
1.3539750e+001
1.4649942e+001
1.5712930e+001
1.6652817e+001
1.7388182e+001
1.7848158e+001
1.7987062e+001
1.7778521e+001
1.7220610e+001
1.6333298e+001
1.5170321e+001
1.3811457e+001
1.2370850e+001
1.0968888e+001
9.7243633e+000
8.7245569e+000
7.9956989e+000
7.5327902e+000
7.2959571e+000
7.2357397e+000
7.2982473e+000
7.4198141e+000
7.5189357e+000
7.5127468e+000
7.3285213e+000
6.9233360e+000
6.3143873e+000
5.5503669e+000
4.7150311e+000
3.8885298e+000
3.1245856e+000
2.4621103e+000
1.9216175e+000
1.5168903e+000
1.2558303e+000
1.1303400e+000
1.1008346e+000
1.1216846e+000
1.1520815e+000
1.1703360e+000
1.1932156e+000
1.2432971e+000
1.3332360e+000
1.4589292e+000
1.5842593e+000
1.6666372e+000
1.6684937e+000
1.5676234e+000
1.3761522e+000
1.1201853e+000
8.3923101e-001
5.7187623e-001
3.4534761e-001
1.7092896e-001
3.0648716e-002
-8.5534483e-002
-1.5363370e-001
-1.5125465e-001
-7.9718873e-002
4.8428640e-002
2.0687635e-001
3.6213025e-001
4.7288063e-001
5.1088119e-001
4.8474491e-001
4.1696230e-001
3.4086221e-001
2.7876472e-001
2.2076775e-001
1.6331154e-001
1.3742301e-001
1.7701726e-001
3.0086744e-001
5.0910473e-001
7.6536173e-001
1.0396628e+000
1.3407745e+000
1.6864220e+000
2.0922725e+000
2.5585647e+000
3.0464029e+000
3.5085065e+000
3.8995445e+000
4.1800117e+000
4.3257489e+000
4.3259497e+000
4.1974173e+000
3.9720571e+000
3.7026169e+000
3.4373860e+000
3.1978307e+000
2.9941680e+000
2.8248830e+000
2.6923070e+000
2.6175628e+000
2.6174171e+000
2.6843948e+000
2.7964039e+000
2.9089990e+000
2.9861462e+000
3.0317214e+000
3.0643580e+000
3.1156232e+000
3.2080839e+000
3.3292348e+000
3.4570100e+000
3.5670929e+000
3.6364973e+000
3.6482995e+000
3.5903180e+000
3.4602623e+000
3.2642126e+000
3.0244529e+000
2.7670181e+000
2.5172498e+000
2.2984915e+000
2.1285050e+000
2.0142305e+000
1.9331032e+000
1.8550719e+000
1.7495707e+000
1.5923772e+000
1.3794508e+000
1.1106433e+000
7.8336734e-001
4.0593100e-001
2.3352414e-002
-3.1421056e-001
-5.6973958e-001
-7.2487217e-001
-8.1042218e-001
-8.6043590e-001
-8.7991422e-001
-8.6202580e-001
-7.8526616e-001
-6.3702857e-001
-4.4593239e-001
-2.4904585e-001
-7.7289216e-002
4.7029048e-002
1.2562250e-001
1.6957341e-001
2.0161074e-001
2.4525002e-001
3.1648168e-001
4.1568786e-001
4.9602416e-001
5.0844204e-001
4.3758512e-001
2.9129860e-001
1.2995140e-001
3.1909022e-002
9.2108727e-002
3.6763102e-001
7.6488429e-001
1.1615828e+000
1.4680461e+000
1.6288915e+000
1.6858420e+000
1.7046697e+000
1.7530335e+000
1.8765680e+000
2.0395081e+000
2.1896315e+000
2.2894530e+000
2.3245173e+000
2.3545022e+000
2.4490263e+000
2.6446478e+000
2.9493544e+000
3.2932458e+000
3.5926080e+000
3.7856379e+000
3.8408551e+000
3.8252075e+000
3.8304000e+000
