Image.
>Pix99999.
  .
5555
5555
2300
900
5555
2
1
0
701
5555
2.2180000e-002
2.2641340e-002
2.3102680e-002
2.3565017e-002
2.4026360e-002
2.4487700e-002
2.4949040e-002
2.5410380e-002
2.5871720e-002
2.6333060e-002
2.6794400e-002
2.7255740e-002
2.7717080e-002
2.8178420e-002
2.8640741e-002
2.9102100e-002
2.9563440e-002
3.0024780e-002
3.0486120e-002
3.0947460e-002
3.1408802e-002
3.1870138e-002
3.2331478e-002
3.2792818e-002
3.3254161e-002
3.3716463e-002
1.9682989e-002
7.3829573e-004
-8.8297920e-003
-2.8165240e-002
-4.8942383e-002
-5.5681150e-002
-5.9098277e-002
-1.0644329e-002
4.4326447e-002
1.3181651e-001
2.1588412e-001
2.7705696e-001
3.2614443e-001
3.4227383e-001
3.5710913e-001
3.7314522e-001
3.9233539e-001
4.1653255e-001
4.3846035e-001
4.5719686e-001
4.9322015e-001
5.4606295e-001
6.1269182e-001
6.8877256e-001
7.3443145e-001
7.6221055e-001
7.5941032e-001
7.4372387e-001
7.3917538e-001
7.3851299e-001
7.6462638e-001
7.9682708e-001
8.2478398e-001
8.5177594e-001
8.5575974e-001
8.5724366e-001
8.5456282e-001
8.4958529e-001
8.3382875e-001
8.1122613e-001
7.6757014e-001
7.2225875e-001
6.7804080e-001
6.4518368e-001
6.3359100e-001
6.2748325e-001
6.2612844e-001
6.1688578e-001
5.9822047e-001
5.9525609e-001
6.0708624e-001
6.5239030e-001
7.1994781e-001
7.7746433e-001
8.2824403e-001
8.4217733e-001
8.4071618e-001
8.2007188e-001
7.9371196e-001
7.4881935e-001
6.9979054e-001
6.5247506e-001
6.0728586e-001
5.9570330e-001
5.9189457e-001
6.0984313e-001
6.3023067e-001
6.4703447e-001
6.5926826e-001
6.5934342e-001
6.5718585e-001
6.5422684e-001
6.5212297e-001
6.5173835e-001
6.4604568e-001
6.3326544e-001
6.0777718e-001
5.7020152e-001
5.2171087e-001
4.6529150e-001
4.1972867e-001
3.8193128e-001
3.7393200e-001
3.8126743e-001
4.1017714e-001
4.4736683e-001
4.7847560e-001
5.0746799e-001
5.0953484e-001
5.0511050e-001
4.8212299e-001
4.5548105e-001
4.2286783e-001
3.8804358e-001
3.4739602e-001
3.0926833e-001
2.8578204e-001
2.7435106e-001
2.8824022e-001
3.0176750e-001
3.0578399e-001
2.9574323e-001
2.6567981e-001
2.3360370e-001
2.0190643e-001
1.7699727e-001
1.5889874e-001
1.4745609e-001
1.4136393e-001
1.2987907e-001
1.1511508e-001
9.1045894e-002
6.2849142e-002
4.8269503e-002
3.8912799e-002
5.9832580e-002
8.9591466e-002
1.3334668e-001
1.7852251e-001
1.9865350e-001
2.0624274e-001
1.7423889e-001
1.2750915e-001
6.5818116e-002
3.9395001e-003
-4.3839075e-002
-7.7027068e-002
-9.0195887e-002
-9.3044959e-002
-9.2958733e-002
-1.0132952e-001
-1.2226854e-001
-1.5479742e-001
-1.9445351e-001
-2.2232513e-001
-2.3628230e-001
-2.2150946e-001
-1.8572935e-001
-1.5188588e-001
-1.2195350e-001
-1.2350009e-001
-1.4302610e-001
-1.4878359e-001
-1.4811075e-001
-1.2337914e-001
-9.2014439e-002
-9.8395191e-002
-1.2183919e-001
-1.6938360e-001
-2.1908250e-001
-2.4344891e-001
-2.4984890e-001
-2.4021475e-001
-2.3226382e-001
-2.4616429e-001
-2.7739811e-001
-3.2341519e-001
-3.6737829e-001
-3.9406326e-001
-3.9513803e-001
-3.6466724e-001
-3.0703399e-001
-2.3277126e-001
-1.6353050e-001
-1.0939588e-001
-7.9242788e-002
-6.4266481e-002
-6.4184725e-002
-6.9746420e-002
-9.9574290e-002
-1.4339720e-001
-2.0035903e-001
-2.6471609e-001
-2.9498193e-001
-3.1004429e-001
-2.8704304e-001
-2.4949257e-001
-2.2359119e-001
-2.0820858e-001
-2.2994787e-001
-2.6845923e-001
-3.1841612e-001
-3.6857450e-001
-4.0419120e-001
-4.3099999e-001
-4.3913695e-001
-4.4401690e-001
-4.4641569e-001
-4.4765615e-001
-4.6238208e-001
-4.8068246e-001
-5.1123571e-001
-5.5706429e-001
-6.0869002e-001
-6.6711748e-001
-7.2400892e-001
-7.7368963e-001
-8.1333363e-001
-8.5117960e-001
-8.8238680e-001
-9.1546047e-001
-9.4387960e-001
-9.5446461e-001
-9.5899063e-001
-9.4686586e-001
-9.3232113e-001
-9.0874714e-001
-8.6994928e-001
-8.0211300e-001
-7.1115667e-001
-6.1924517e-001
-5.5652046e-001
-5.5467743e-001
-5.9729308e-001
-6.6125602e-001
-7.1719164e-001
-7.4369997e-001
-7.4167776e-001
-7.2049987e-001
-6.9483304e-001
-6.7204976e-001
-6.8010849e-001
-7.0989984e-001
-7.5771445e-001
-8.1424212e-001
-8.0751097e-001
-7.6238680e-001
-6.5031815e-001
-5.0829130e-001
-3.8454422e-001
-2.8003070e-001
-2.0678838e-001
-1.5709931e-001
-1.2250040e-001
-9.8690517e-002
-8.4017202e-002
-6.9577217e-002
-7.5018466e-002
-7.9303309e-002
-7.5435318e-002
-5.9739500e-002
-8.5136704e-003
6.7593427e-003
-4.9602557e-002
-1.2173595e-001
-1.7595915e-001
-2.1263863e-001
-2.2707319e-001
-2.4864115e-001
-2.9110250e-001
-3.5392386e-001
-4.4557247e-001
-5.0869489e-001
-5.3768688e-001
-4.5735401e-001
-2.8707111e-001
-9.6668474e-002
9.1925703e-002
1.4518383e-001
9.4231412e-002
2.6338995e-002
-3.9319403e-002
7.9772957e-003
1.8829238e-001
5.9310800e-001
1.1623747e+000
1.7726617e+000
2.3802524e+000
2.9634039e+000
3.6559172e+000
4.6067290e+000
6.0879197e+000
8.2346201e+000
1.1317273e+001
1.5301857e+001
1.9417299e+001
2.3300394e+001
2.6745678e+001
2.9806395e+001
3.3376198e+001
3.7557789e+001
4.2616440e+001
4.8362919e+001
5.3364929e+001
5.7657860e+001
6.1675610e+001
6.5572426e+001
7.0139297e+001
7.5211906e+001
8.0255745e+001
8.5157822e+001
8.9572098e+001
9.3475609e+001
9.6799706e+001
9.9476852e+001
1.0141839e+002
1.0247100e+002
1.0250610e+002
1.0153337e+002
9.9607498e+001
9.7209442e+001
9.4787827e+001
9.2115364e+001
8.9120468e+001
8.5363716e+001
8.0747925e+001
7.5988762e+001
7.1341988e+001
6.7039772e+001
6.3100292e+001
5.9095963e+001
5.4972263e+001
5.0912361e+001
4.6932648e+001
4.3143631e+001
3.9569103e+001
3.6402168e+001
3.3660339e+001
3.1371948e+001
2.9516230e+001
2.7944195e+001
2.6660326e+001
2.5617977e+001
2.4815966e+001
2.4219000e+001
2.3822460e+001
2.3586926e+001
2.3496136e+001
2.3510151e+001
2.3610987e+001
2.3782269e+001
2.4006031e+001
2.4276129e+001
2.4634523e+001
2.5091486e+001
2.5732882e+001
2.6564671e+001
2.7570457e+001
2.8736961e+001
2.9929508e+001
3.1137434e+001
3.2470154e+001
3.4012341e+001
3.6372414e+001
3.9634228e+001
4.3265789e+001
4.7035332e+001
4.9967655e+001
5.2057140e+001
5.3765251e+001
5.5095909e+001
5.6175282e+001
5.6910900e+001
5.7140850e+001
5.6827541e+001
5.6020802e+001
5.4833153e+001
5.3495716e+001
5.2025162e+001
5.0440502e+001
4.8654716e+001
4.6593349e+001
4.4301388e+001
4.1746086e+001
3.9268402e+001
3.6994076e+001
3.4773281e+001
3.2622581e+001
3.0080156e+001
2.7034786e+001
2.4088589e+001
2.1295868e+001
1.8921677e+001
1.6994209e+001
1.5006286e+001
1.2953252e+001
1.0849481e+001
8.7361708e+000
6.7149839e+000
4.8597002e+000
3.2658660e+000
1.9693886e+000
9.9636161e-001
3.5637093e-001
6.1725959e-002
2.6608789e-001
9.6119112e-001
1.9095631e+000
2.9627080e+000
3.8922293e+000
4.5753722e+000
5.1445193e+000
5.6451416e+000
6.1608434e+000
6.7094398e+000
7.1975012e+000
7.5553575e+000
7.7696700e+000
7.7652259e+000
7.6833467e+000
7.4966092e+000
7.2697167e+000
6.9919696e+000
6.6585183e+000
6.2561417e+000
5.7547956e+000
5.1706142e+000
4.5929055e+000
4.0526419e+000
3.6460285e+000
3.3823354e+000
3.2579789e+000
3.2665608e+000
3.3649321e+000
3.5281770e+000
3.7235739e+000
3.9238591e+000
4.1443439e+000
4.3790698e+000
4.6413550e+000
4.9231052e+000
5.2127118e+000
5.5066800e+000
5.7971869e+000
6.0825710e+000
6.3468437e+000
6.5723433e+000
6.6990027e+000
6.7284265e+000
6.5940051e+000
6.3521385e+000
5.9638720e+000
5.5198874e+000
5.0169663e+000
4.5002027e+000
3.9994602e+000
3.5489039e+000
3.1592700e+000
2.8345947e+000
2.5200329e+000
2.1398060e+000
1.7048949e+000
1.2130229e+000
7.4693960e-001
4.0570754e-001
1.5898812e-001
4.8758946e-002
1.0541232e-002
4.4943750e-002
1.1608464e-001
2.5934398e-001
4.3686152e-001
6.7658806e-001
9.1046262e-001
1.1180714e+000
1.3042539e+000
1.4208174e+000
1.5400990e+000
1.6656932e+000
1.8246100e+000
2.0492625e+000
2.3078067e+000
2.6162679e+000
2.9242442e+000
3.2294600e+000
3.5096116e+000
3.7515361e+000
3.9591022e+000
4.1147537e+000
4.2124820e+000
4.2577801e+000
4.2460198e+000
4.2050333e+000
4.1402445e+000
4.0717139e+000
4.0044928e+000
3.9437289e+000
3.8948543e+000
3.8555000e+000
3.8342299e+000
3.8206565e+000
3.8192794e+000
3.8192761e+000
3.8208818e+000
3.8248458e+000
3.8402460e+000
3.8694983e+000
3.9298892e+000
4.0163279e+000
4.1394506e+000
4.2848606e+000
4.4487367e+000
4.6041760e+000
4.7465487e+000
4.8691916e+000
4.9793048e+000
5.1002216e+000
5.2314587e+000
5.3772216e+000
5.5244751e+000
5.6471610e+000
5.7465987e+000
5.7948050e+000
5.8116279e+000
5.7726812e+000
5.6982751e+000
5.5441518e+000
5.3432741e+000
5.0173807e+000
4.6480970e+000
4.1642065e+000
3.6595109e+000
3.1063366e+000
2.5592129e+000
2.0279028e+000
1.5273995e+000
1.0857797e+000
6.9605887e-001
3.8478601e-001
1.2744457e-001
-6.8317205e-002
-2.4372406e-001
-4.0198708e-001
-5.6472087e-001
-7.2711360e-001
-8.7647337e-001
-1.0092074e+000
-1.1031491e+000
-1.1656312e+000
-1.1688650e+000
-1.1342531e+000
-1.0239394e+000
-8.7441421e-001
-6.3302505e-001
-3.5885218e-001
-1.6948283e-003
3.5543600e-001
6.8992126e-001
9.8618567e-001
1.1618344e+000
1.3016180e+000
1.3530660e+000
1.3864303e+000
1.3818449e+000
1.3525829e+000
1.2796216e+000
1.1718972e+000
1.0159600e+000
8.3294117e-001
6.2359536e-001
4.2256424e-001
2.3782115e-001
1.0711785e-001
2.7959403e-002
3.4927059e-002
1.0585983e-001
2.7707267e-001
4.9792761e-001
7.7918297e-001
1.0701842e+000
1.3272748e+000
1.5629698e+000
1.7166400e+000
1.8548912e+000
1.9507743e+000
2.0538304e+000
2.1906636e+000
2.3441887e+000
2.5507271e+000
2.7652850e+000
2.9969640e+000
3.2125216e+000
3.3925943e+000
3.5360837e+000
3.6244571e+000
3.7120478e+000
3.8034940e+000
3.9309623e+000
4.0924606e+000
4.2513614e+000
4.4037962e+000
4.5227723e+000
4.6180215e+000
4.6814351e+000
4.7278557e+000
4.7528505e+000
4.7687273e+000
4.7716503e+000
4.7646408e+000
4.7096443e+000
4.6464601e+000
4.5697479e+000
4.5046411e+000
4.5174904e+000
4.5400829e+000
4.6038456e+000
4.6580749e+000
4.6818171e+000
4.6927505e+000
4.6714678e+000
4.6340008e+000
4.5647988e+000
4.4832249e+000
4.3869967e+000
4.3265100e+000
4.3099308e+000
4.3266659e+000
4.3685260e+000
4.3589044e+000
4.3074107e+000
4.1832247e+000
4.0180030e+000
3.8238630e+000
3.6181004e+000
3.4106543e+000
3.2015970e+000
2.9798234e+000
2.7519131e+000
2.4782760e+000
2.1992700e+000
1.9016426e+000
1.6080751e+000
1.3430115e+000
1.0846596e+000
8.5633576e-001
6.4683360e-001
4.9640894e-001
3.7642100e-001
3.2528204e-001
2.7192172e-001
2.1402863e-001
1.3117138e-001
1.7271765e-002
-7.1672648e-002
-1.3227886e-001
-1.4138219e-001
-1.0972264e-001
-7.8482188e-002
-4.8202489e-002
-4.2158749e-002
-4.6811555e-002
-4.9988538e-002
-5.3031754e-002
-5.3475983e-002
-5.4680802e-002
-7.7347912e-002
-1.0283680e-001
-1.3081728e-001
-1.5030040e-001
-4.7952965e-002
3.0624717e-003
9.4950363e-002
2.6490465e-001
4.0043572e-001
5.1463604e-001
5.6668317e-001
6.0970426e-001
6.3283765e-001
6.2586606e-001
5.7116568e-001
5.2027041e-001
4.7579539e-001
5.0851476e-001
6.1253011e-001
7.1995711e-001
8.2720542e-001
7.5743639e-001
5.9419334e-001
3.0353445e-001
-3.2205373e-002
-1.4613029e-001
-1.9909412e-001
4.0072322e-002
3.2658657e-001
4.8497000e-001
