Image.
>Pix99999.
  .
5555
5555
2300
900
5555
2
1
0
701
5555
-1.3485000e-002
-1.3765599e-002
-1.4046197e-002
-1.4326796e-002
-1.4607394e-002
-1.4887000e-002
-1.5167591e-002
-1.5448190e-002
-1.5728788e-002
-1.6009387e-002
-1.6289987e-002
-1.6571568e-002
-1.6851200e-002
-1.7129818e-002
-1.7412340e-002
-1.7700806e-002
-1.7973760e-002
-1.8222952e-002
-1.8533951e-002
-1.8931143e-002
-1.9098399e-002
-1.8942950e-002
-1.9642150e-002
-2.1548027e-002
-2.0274486e-002
-1.1996822e-002
-4.3427426e-004
8.6571835e-003
9.8455558e-003
-2.8459949e-004
-1.7463468e-002
-3.5311684e-002
-4.7754873e-002
-4.8918065e-002
-3.3279877e-002
1.1803999e-003
4.2749316e-002
7.8580767e-002
1.0750742e-001
1.3329037e-001
1.6556086e-001
2.1195957e-001
2.6518920e-001
3.1288892e-001
3.4054995e-001
3.3763435e-001
3.1204757e-001
2.7777860e-001
2.5038457e-001
2.4309950e-001
2.5810429e-001
2.9351085e-001
3.4487405e-001
4.0641844e-001
4.6984294e-001
5.2580637e-001
5.6395161e-001
5.7614005e-001
5.6461525e-001
5.3739297e-001
5.1226085e-001
5.0688022e-001
5.2562797e-001
5.6523591e-001
6.0931057e-001
6.3927799e-001
6.4513624e-001
6.2360442e-001
5.8683699e-001
5.5187750e-001
5.3466296e-001
5.4721063e-001
5.8748484e-001
6.4781255e-001
7.1717930e-001
7.8433317e-001
8.4124172e-001
8.8313138e-001
9.1384393e-001
9.4074690e-001
9.7327083e-001
1.0183939e+000
1.0704148e+000
1.1189086e+000
1.1525840e+000
1.1625501e+000
1.1501552e+000
1.1223789e+000
1.0936955e+000
1.0797130e+000
1.0879600e+000
1.1193280e+000
1.1602800e+000
1.1942424e+000
1.2140963e+000
1.2190928e+000
1.2181195e+000
1.2214319e+000
1.2300841e+000
1.2415311e+000
1.2539142e+000
1.2663109e+000
1.2803164e+000
1.2980926e+000
1.3202126e+000
1.3455300e+000
1.3663715e+000
1.3731275e+000
1.3578160e+000
1.3176670e+000
1.2691629e+000
1.2345585e+000
1.2293320e+000
1.2597401e+000
1.3066200e+000
1.3432649e+000
1.3522371e+000
1.3259988e+000
1.2806915e+000
1.2394830e+000
1.2172056e+000
1.2203690e+000
1.2381318e+000
1.2542115e+000
1.2576406e+000
1.2435071e+000
1.2203100e+000
1.2017387e+000
1.1984366e+000
1.2163457e+000
1.2493072e+000
1.2858132e+000
1.3135537e+000
1.3225310e+000
1.3106438e+000
1.2820135e+000
1.2501171e+000
1.2311922e+000
1.2351651e+000
1.2660720e+000
1.3154600e+000
1.3681645e+000
1.4052651e+000
1.4100107e+000
1.3822560e+000
1.3319100e+000
1.2788125e+000
1.2431520e+000
1.2287931e+000
1.2304783e+000
1.2381001e+000
1.2410765e+000
1.2347457e+000
1.2178185e+000
1.1916040e+000
1.1593179e+000
1.1266429e+000
1.1010156e+000
1.0915189e+000
1.1056799e+000
1.1422143e+000
1.1932800e+000
1.2411311e+000
1.2665292e+000
1.2631897e+000
1.2345086e+000
1.1957332e+000
1.1652607e+000
1.1517080e+000
1.1563271e+000
1.1710685e+000
1.1846976e+000
1.1906663e+000
1.1858783e+000
1.1700234e+000
1.1438750e+000
1.1086286e+000
1.0661017e+000
1.0217158e+000
9.8199064e-001
9.5063514e-001
9.2877626e-001
9.1290420e-001
8.9699960e-001
8.7425458e-001
8.3952892e-001
7.9589987e-001
7.5175881e-001
7.1930277e-001
7.1003479e-001
7.2507244e-001
7.5841510e-001
7.9847974e-001
8.3265811e-001
8.5520381e-001
8.6518204e-001
8.6521161e-001
8.5811037e-001
8.4036791e-001
8.0644000e-001
7.5783569e-001
7.0120627e-001
6.4675564e-001
6.0412788e-001
5.7339633e-001
5.4876751e-001
5.2351612e-001
4.9222827e-001
4.5538354e-001
4.1628656e-001
3.7561500e-001
3.3304775e-001
2.9208547e-001
2.5950295e-001
2.4573471e-001
2.5980902e-001
2.9588482e-001
3.3912620e-001
3.7506971e-001
3.9258802e-001
3.9041573e-001
3.7206987e-001
3.3608633e-001
2.7837175e-001
1.9938479e-001
1.0679439e-001
2.6152754e-002
-1.1069529e-002
4.9306396e-003
6.5849915e-002
1.4812085e-001
2.2322930e-001
2.7643931e-001
3.0390891e-001
3.0756703e-001
2.9249936e-001
2.6634365e-001
2.3695540e-001
2.0710999e-001
1.7573692e-001
1.3994628e-001
9.8145291e-002
5.8178596e-002
3.3388995e-002
3.3480614e-002
5.9921149e-002
9.1149628e-002
9.4085529e-002
5.1242504e-002
-3.5978656e-002
-1.3609071e-001
-2.0297490e-001
-2.0971560e-001
-1.5075544e-001
-4.7809411e-002
6.2120013e-002
1.4895292e-001
1.9266012e-001
1.8775551e-001
1.4034000e-001
6.7277089e-002
-7.6307468e-003
-5.7869237e-002
-6.3119575e-002
-3.6475040e-002
-8.8772699e-003
1.6295230e-002
4.5070756e-002
2.1696514e-002
-1.3202146e-001
-3.7887657e-001
-6.0772669e-001
-7.8159910e-001
-9.2820239e-001
-1.0676124e+000
-1.2042714e+000
-1.3382599e+000
-1.4665983e+000
-1.5768269e+000
-1.6483953e+000
-1.6546400e+000
-1.5712954e+000
-1.4011383e+000
-1.1706119e+000
-9.1809380e-001
-6.8162173e-001
-4.6910909e-001
-2.5318378e-001
4.6277940e-002
5.3055245e-001
1.2259991e+000
2.0859833e+000
3.0206234e+000
3.9359972e+000
4.8328381e+000
5.8008642e+000
6.9810472e+000
8.5627222e+000
1.0828777e+001
1.4037074e+001
1.7992428e+001
2.2140820e+001
2.6007343e+001
2.9331591e+001
3.2283997e+001
3.5352257e+001
3.8949890e+001
4.3255783e+001
4.7886841e+001
5.2124863e+001
5.5769772e+001
5.9146420e+001
6.2672215e+001
6.6672699e+001
7.1062325e+001
7.5437851e+001
7.9532761e+001
8.3270493e+001
8.6650017e+001
8.9706947e+001
9.2493317e+001
9.5048294e+001
9.7311157e+001
9.9109474e+001
1.0013738e+002
1.0007357e+002
9.8981636e+001
9.7246521e+001
9.5080704e+001
9.2466209e+001
8.9337616e+001
8.5663109e+001
8.1594574e+001
7.7414055e+001
7.3229958e+001
6.8964607e+001
6.4562477e+001
6.0044128e+001
5.5525650e+001
5.1190357e+001
4.7166344e+001
4.3512924e+001
4.0274372e+001
3.7481258e+001
3.5107754e+001
3.3078560e+001
3.1331238e+001
2.9829548e+001
2.8558189e+001
2.7514168e+001
2.6684999e+001
2.6045788e+001
2.5569149e+001
2.5229193e+001
2.5006948e+001
2.4892935e+001
2.4877726e+001
2.4955250e+001
2.5146029e+001
2.5494318e+001
2.6041086e+001
2.6810045e+001
2.7774035e+001
2.8857126e+001
2.9988640e+001
3.1115650e+001
3.2200817e+001
3.3257305e+001
3.4475052e+001
3.6176521e+001
3.8455200e+001
4.1093559e+001
4.3699875e+001
4.5821503e+001
4.7311462e+001
4.8359108e+001
4.9104477e+001
4.9560043e+001
4.9734718e+001
4.9663494e+001
4.9377514e+001
4.8897686e+001
4.8242649e+001
4.7428333e+001
4.6463001e+001
4.5344749e+001
4.4070148e+001
4.2639683e+001
4.1071812e+001
3.9404827e+001
3.7692284e+001
3.5978714e+001
3.4202839e+001
3.2194141e+001
2.9821117e+001
2.7065414e+001
2.4106777e+001
2.1298944e+001
1.8841970e+001
1.6694849e+001
1.4735572e+001
1.2819624e+001
1.0876664e+001
8.9357920e+000
7.0534754e+000
5.2939992e+000
3.7321801e+000
2.4426322e+000
1.4444860e+000
7.0149720e-001
2.4262610e-001
1.7312478e-001
5.0083685e-001
1.0900748e+000
1.7863351e+000
2.4620156e+000
3.0561559e+000
3.5846045e+000
4.0668864e+000
4.5048070e+000
4.8910198e+000
5.2111073e+000
5.4499316e+000
5.5951147e+000
5.6435246e+000
5.6034431e+000
5.4854670e+000
5.2976899e+000
5.0359497e+000
4.6816487e+000
4.2201400e+000
3.6526380e+000
3.0178149e+000
2.3966756e+000
1.8557260e+000
1.4268836e+000
1.1253438e+000
9.5495528e-001
9.2571700e-001
1.0551600e+000
1.3391458e+000
1.7399900e+000
2.2099006e+000
2.7010493e+000
3.1870961e+000
3.6704328e+000
4.1486802e+000
4.6027699e+000
5.0068440e+000
5.3335614e+000
5.5717931e+000
5.7339854e+000
5.8327341e+000
5.8719058e+000
5.8445129e+000
5.7328749e+000
5.5306568e+000
5.2517896e+000
4.9131632e+000
4.5293283e+000
4.1129026e+000
3.6762033e+000
3.2400179e+000
2.8343356e+000
2.4678953e+000
2.1138065e+000
1.7410551e+000
1.3305424e+000
8.9968598e-001
5.1504838e-001
2.3162684e-001
6.5957338e-002
5.5373693e-003
8.0085602e-003
3.8602103e-002
8.5694715e-002
1.4530641e-001
2.1667936e-001
2.9548332e-001
3.7125427e-001
4.3712914e-001
4.9438390e-001
5.4623222e-001
5.9629351e-001
6.4942837e-001
7.1234059e-001
7.9180688e-001
8.9333951e-001
1.0179269e+000
1.1590923e+000
1.3066400e+000
1.4474546e+000
1.5697892e+000
1.6662152e+000
1.7340789e+000
1.7771171e+000
1.8017462e+000
1.8161350e+000
1.8290904e+000
1.8495142e+000
1.8848143e+000
1.9397843e+000
2.0168209e+000
2.1149890e+000
2.2321320e+000
2.3650243e+000
2.5099702e+000
2.6628492e+000
2.8189611e+000
2.9732196e+000
3.1221843e+000
3.2665639e+000
3.4137492e+000
3.5816455e+000
3.7877433e+000
4.0436249e+000
4.3542895e+000
4.7152519e+000
5.1242280e+000
5.5861268e+000
6.1044517e+000
6.6764832e+000
7.2934766e+000
7.9386292e+000
8.5975771e+000
9.2629251e+000
9.9246464e+000
1.0563510e+001
1.1151491e+001
1.1647447e+001
1.2015142e+001
1.2237350e+001
1.2306200e+001
1.2228819e+001
1.2019382e+001
1.1693299e+001
1.1267732e+001
1.0760833e+001
1.0192587e+001
9.5860567e+000
8.9633064e+000
8.3468189e+000
7.7517052e+000
7.1792707e+000
6.6237726e+000
6.0727520e+000
5.5159760e+000
4.9508553e+000
4.3789644e+000
3.8054898e+000
3.2356429e+000
2.6734984e+000
2.1253793e+000
1.6039431e+000
1.1250989e+000
7.0816767e-001
3.6940128e-001
1.1626375e-001
-4.8648462e-002
-1.2926349e-001
-1.3460541e-001
-8.1948183e-002
5.8261454e-003
9.8482363e-002
1.7019847e-001
2.0975372e-001
2.1693075e-001
2.0795339e-001
1.9907999e-001
1.9731981e-001
2.0312615e-001
2.0722757e-001
2.0009212e-001
1.7703107e-001
1.3674228e-001
8.3524570e-002
2.7529024e-002
-1.1070168e-002
-1.3680383e-002
2.9376663e-002
1.2890400e-001
3.0213451e-001
5.5727935e-001
8.7706149e-001
1.2346686e+000
1.5960321e+000
1.9344001e+000
2.2451403e+000
2.5360920e+000
2.8303010e+000
3.1452470e+000
3.4747775e+000
3.8067582e+000
4.1286731e+000
4.4341860e+000
4.7325649e+000
5.0341711e+000
5.3420882e+000
5.6556273e+000
5.9686680e+000
6.2733717e+000
6.5609717e+000
6.8299398e+000
7.0979295e+000
7.3848767e+000
7.7029929e+000
8.0486374e+000
8.3821487e+000
8.6637611e+000
8.8774033e+000
9.0213289e+000
9.1163988e+000
9.1820040e+000
9.2195549e+000
9.2264347e+000
9.2007093e+000
9.1421595e+000
9.0547810e+000
8.9422445e+000
8.8052168e+000
8.6454773e+000
8.4691286e+000
8.2796116e+000
8.0693312e+000
7.8269939e+000
7.5402570e+000
7.2079744e+000
6.8610706e+000
6.5349593e+000
6.2537584e+000
6.0240498e+000
5.8107033e+000
5.5728307e+000
5.2829561e+000
4.9270744e+000
4.5217137e+000
4.0900269e+000
3.6535320e+000
3.2310915e+000
2.8336401e+000
2.4694972e+000
2.1431065e+000
1.8557223e+000
1.6013656e+000
1.3715880e+000
1.1559922e+000
9.4679713e-001
7.4576336e-001
5.5756903e-001
3.8873839e-001
2.4386001e-001
1.1990884e-001
1.2401335e-002
-8.1833094e-002
-1.6547853e-001
-2.4067836e-001
-3.0883938e-001
-3.6931065e-001
-4.1787520e-001
-4.4026506e-001
-4.1905171e-001
-3.3473668e-001
-1.7369212e-001
5.6055486e-002
3.3242255e-001
6.0403198e-001
8.1824231e-001
9.4303131e-001
9.6356285e-001
9.0611875e-001
8.0409527e-001
6.7996502e-001
5.4859197e-001
4.0800399e-001
2.5970998e-001
1.3174501e-001
4.8614059e-002
-9.2101842e-004
-2.7473647e-002
-7.7124387e-003
7.9820290e-002
2.1920028e-001
3.8732356e-001
5.6883335e-001
7.5089854e-001
9.2297643e-001
1.0750520e+000
1.1967006e+000
1.2763960e+000
1.2984165e+000
1.2543471e+000
1.1666027e+000
1.0660619e+000
9.8451054e-001
9.4486451e-001
9.3386757e-001
9.4081795e-001
1.0002533e+000
1.1480649e+000
1.3805342e+000
1.6840000e+000
