Image.
>Pix99999.
  .
5555
5555
2300
900
5555
2
1
0
701
5555
-7.8792004e-003
-8.0431653e-003
-8.2070315e-003
-8.3709955e-003
-8.5348617e-003
-8.6988276e-003
-8.8626938e-003
-9.0266578e-003
-9.1905240e-003
-9.3542915e-003
-9.5183533e-003
-9.6827140e-003
-9.8461937e-003
-1.0008973e-002
-1.0173701e-002
-1.0344336e-002
-1.0502389e-002
-1.0642599e-002
-1.0829166e-002
-1.1078187e-002
-1.1159800e-002
-1.1005830e-002
-1.1474632e-002
-1.2821755e-002
-1.1854932e-002
-6.1492897e-003
-2.2060258e-004
1.9281451e-003
6.1959960e-003
1.9682664e-002
4.3001629e-002
7.2454408e-002
9.4502904e-002
9.5697053e-002
7.4285589e-002
3.3991199e-002
-1.3172777e-002
-5.4170504e-002
-8.1486508e-002
-9.3110405e-002
-1.0259177e-001
-1.2404854e-001
-1.5513860e-001
-1.8561012e-001
-1.9340275e-001
-1.6123714e-001
-1.0536265e-001
-5.1775429e-002
-2.4103256e-002
-3.5924740e-002
-6.3732646e-002
-7.6793551e-002
-6.1979175e-002
-1.9134613e-002
2.2486592e-002
3.1629741e-002
6.4883195e-003
-4.1898377e-002
-8.9325920e-002
-1.1411837e-001
-1.2148000e-001
-1.2383397e-001
-1.2690833e-001
-1.3209489e-001
-1.3288891e-001
-1.2277814e-001
-1.0557300e-001
-8.7999895e-002
-7.4137554e-002
-6.7799732e-002
-7.5709105e-002
-1.0359806e-001
-1.4897618e-001
-2.0387356e-001
-2.4956726e-001
-2.6691392e-001
-2.5003982e-001
-2.0051430e-001
-1.3124378e-001
-5.8539215e-002
2.9544062e-003
4.2355355e-002
6.1389264e-002
6.7341112e-002
7.1877606e-002
8.6215697e-002
1.1377668e-001
1.5353699e-001
1.9793418e-001
2.3742940e-001
2.6375356e-001
2.7039871e-001
2.5586766e-001
2.2152306e-001
1.7299531e-001
1.1882393e-001
7.3300391e-002
5.0300252e-002
5.3066820e-002
7.8571953e-002
1.1494371e-001
1.4888518e-001
1.7468980e-001
1.9077289e-001
1.9992022e-001
2.0624000e-001
2.1274057e-001
2.2065268e-001
2.2587486e-001
2.2327352e-001
2.1211585e-001
1.9474344e-001
1.7851759e-001
1.7077248e-001
1.7037274e-001
1.7263779e-001
1.7283475e-001
1.6820928e-001
1.6383956e-001
1.6718210e-001
1.8217029e-001
2.0892999e-001
2.3848327e-001
2.5910062e-001
2.6325402e-001
2.4824357e-001
2.2339860e-001
2.0189747e-001
1.9196154e-001
1.9767487e-001
2.1585071e-001
2.4014652e-001
2.6363021e-001
2.7887639e-001
2.7677262e-001
2.5010780e-001
2.0301332e-001
1.4505784e-001
8.7430149e-002
4.0024400e-002
5.4960647e-003
-1.6874254e-002
-2.8143652e-002
-3.0537430e-002
-3.1389885e-002
-3.8182467e-002
-4.9027842e-002
-5.6740589e-002
-5.0624300e-002
-2.2697192e-002
1.7675143e-002
5.2143507e-002
5.9164841e-002
2.2175577e-002
-4.9938299e-002
-1.3512664e-001
-2.0723017e-001
-2.4416205e-001
-2.4620143e-001
-2.2495845e-001
-1.9382343e-001
-1.6361730e-001
-1.3351154e-001
-9.8388024e-002
-5.9449956e-002
-2.2771578e-002
-2.6031211e-004
-3.8072802e-003
-3.3777416e-002
-8.4067918e-002
-1.4649424e-001
-2.1202622e-001
-2.7056873e-001
-3.1176636e-001
-3.2622039e-001
-3.0904001e-001
-2.7251261e-001
-2.3645908e-001
-2.1513963e-001
-2.1540758e-001
-2.2769685e-001
-2.3671862e-001
-2.3854780e-001
-2.3678219e-001
-2.3849674e-001
-2.5006407e-001
-2.6898021e-001
-2.8822970e-001
-3.0241019e-001
-3.0802572e-001
-3.0437928e-001
-2.9322806e-001
-2.8081629e-001
-2.7426866e-001
-2.7423549e-001
-2.7750358e-001
-2.8056279e-001
-2.8099227e-001
-2.8040820e-001
-2.8110316e-001
-2.7851430e-001
-2.6675406e-001
-2.5202489e-001
-2.4695639e-001
-2.6069224e-001
-2.9625779e-001
-3.4160331e-001
-3.7867481e-001
-4.0016958e-001
-4.0757498e-001
-4.0990800e-001
-4.1803250e-001
-4.3440628e-001
-4.5610142e-001
-4.7990173e-001
-5.0343668e-001
-5.2635455e-001
-5.4923928e-001
-5.7161182e-001
-5.9242463e-001
-6.1140460e-001
-6.2849075e-001
-6.4209235e-001
-6.5067822e-001
-6.5744638e-001
-6.6709822e-001
-6.7764491e-001
-6.8234497e-001
-6.7329031e-001
-6.4449155e-001
-5.9962159e-001
-5.4815799e-001
-4.9808010e-001
-4.5577472e-001
-4.2771485e-001
-4.1936287e-001
-4.3065280e-001
-4.5673388e-001
-4.8728219e-001
-5.0968283e-001
-5.1507515e-001
-4.9882105e-001
-4.6263742e-001
-4.1248596e-001
-3.5608864e-001
-3.0317801e-001
-2.6935408e-001
-2.7057248e-001
-3.0723673e-001
-3.6556563e-001
-4.1689786e-001
-4.2901483e-001
-3.9325240e-001
-3.1984985e-001
-2.2726811e-001
-1.3598549e-001
-5.9483282e-002
-4.5108246e-003
2.8930046e-002
4.5830611e-002
5.5596627e-002
6.8758704e-002
8.9211106e-002
1.1412308e-001
1.3280554e-001
1.3287193e-001
1.1685420e-001
9.1503397e-002
3.0895041e-002
-1.0219010e-001
-2.8177515e-001
-4.4295594e-001
-5.6804764e-001
-6.7902631e-001
-7.9118240e-001
-9.0905821e-001
-1.0363252e+000
-1.1744711e+000
-1.3104169e+000
-1.4187930e+000
-1.4675399e+000
-1.4278333e+000
-1.3028457e+000
-1.1215720e+000
-9.1902673e-001
-7.2405022e-001
-5.3181165e-001
-3.0216849e-001
4.9233600e-002
6.1698532e-001
1.4018451e+000
2.3215141e+000
3.2670867e+000
4.1452627e+000
4.9792137e+000
5.8952742e+000
7.0672355e+000
8.7027464e+000
1.1059441e+001
1.4337717e+001
1.8299000e+001
2.2372551e+001
2.6108900e+001
2.9303669e+001
3.2172184e+001
3.5222591e+001
3.8851219e+001
4.3196995e+001
4.7852242e+001
5.2095745e+001
5.5748127e+001
5.9162540e+001
6.2759773e+001
6.6845795e+001
7.1320648e+001
7.5775650e+001
7.9930542e+001
8.3682922e+001
8.6998627e+001
8.9879585e+001
9.2345428e+001
9.4421417e+001
9.6106079e+001
9.7356033e+001
9.8046631e+001
9.8021675e+001
9.7312523e+001
9.6099136e+001
9.4419655e+001
9.2158958e+001
8.9213531e+001
8.5564445e+001
8.1427734e+001
7.7180466e+001
7.2994301e+001
6.8812836e+001
6.4537521e+001
6.0101391e+001
5.5575760e+001
5.1152443e+001
4.7006084e+001
4.3259590e+001
3.9979141e+001
3.7174217e+001
3.4787567e+001
3.2716621e+001
3.0896252e+001
2.9309683e+001
2.7962498e+001
2.6868118e+001
2.6018499e+001
2.5382269e+001
2.4926069e+001
2.4620020e+001
2.4445629e+001
2.4396406e+001
2.4460497e+001
2.4624861e+001
2.4908907e+001
2.5361877e+001
2.6022915e+001
2.6903381e+001
2.7954868e+001
2.9078903e+001
3.0207039e+001
3.1316950e+001
3.2401020e+001
3.3490944e+001
3.4790222e+001
3.6619503e+001
3.9019100e+001
4.1680653e+001
4.4179218e+001
4.6108662e+001
4.7400494e+001
4.8334145e+001
4.9112946e+001
4.9762783e+001
5.0235840e+001
5.0446259e+001
5.0327286e+001
4.9858685e+001
4.9098866e+001
4.8170033e+001
4.7137039e+001
4.5983150e+001
4.4670719e+001
4.3169758e+001
4.1501122e+001
3.9743282e+001
3.7984642e+001
3.6282581e+001
3.4545040e+001
3.2530777e+001
3.0079283e+001
2.7200592e+001
2.4125387e+001
2.1261480e+001
1.8818090e+001
1.6712049e+001
1.4779428e+001
1.2852393e+001
1.0859014e+001
8.8490286e+000
6.9002581e+000
5.0920863e+000
3.5088000e+000
2.2268944e+000
1.2549877e+000
5.3863496e-001
1.1606514e-001
1.2787011e-001
5.6525826e-001
1.2144908e+000
1.8946042e+000
2.5293508e+000
3.0961778e+000
3.6124640e+000
4.0988154e+000
4.5645895e+000
4.9940600e+000
5.3435736e+000
5.5740933e+000
5.6655245e+000
5.6259055e+000
5.4942465e+000
5.3080740e+000
5.0904536e+000
4.8423262e+000
4.5388870e+000
4.1530871e+000
3.6696723e+000
3.1142697e+000
2.5626292e+000
2.0852261e+000
1.7266665e+000
1.5070875e+000
1.4201561e+000
1.4534882e+000
1.5933697e+000
1.8192886e+000
2.1027930e+000
2.4196920e+000
2.7564149e+000
3.1120017e+000
3.4979029e+000
3.9182031e+000
4.3608513e+000
4.8020477e+000
5.2077641e+000
5.5514712e+000
5.8207388e+000
6.0059943e+000
6.0972095e+000
6.0832095e+000
5.9538550e+000
5.7167063e+000
5.4041066e+000
5.0479951e+000
4.6700058e+000
4.2790375e+000
3.8707170e+000
3.4501359e+000
3.0389903e+000
2.6475394e+000
2.2626729e+000
1.8645025e+000
1.4363817e+000
9.9296355e-001
5.9325457e-001
2.8835756e-001
9.7962908e-002
1.5979897e-002
8.3237663e-003
4.4707209e-002
1.1166825e-001
2.0436521e-001
3.2435870e-001
4.6647871e-001
6.1226642e-001
7.3948258e-001
8.2721591e-001
8.6997384e-001
8.8664901e-001
8.9910525e-001
9.2454243e-001
9.7623819e-001
1.0622538e+000
1.1867131e+000
1.3474710e+000
1.5297301e+000
1.7008512e+000
1.8288652e+000
1.8930330e+000
1.8928357e+000
1.8569558e+000
1.8171903e+000
1.7977760e+000
1.8103939e+000
1.8486452e+000
1.9038714e+000
1.9711783e+000
2.0524654e+000
2.1586294e+000
2.2967560e+000
2.4628558e+000
2.6455438e+000
2.8262370e+000
2.9939325e+000
3.1546025e+000
3.3180685e+000
3.4940190e+000
3.6878793e+000
3.8977118e+000
4.1247263e+000
4.3790436e+000
4.6725326e+000
5.0161638e+000
5.4166059e+000
5.8731909e+000
6.3837056e+000
6.9460306e+000
7.5567107e+000
8.2084608e+000
8.8876820e+000
9.5700502e+000
1.0227612e+001
1.0830681e+001
1.1356538e+001
1.1789699e+001
1.2123172e+001
1.2353214e+001
1.2473720e+001
1.2468280e+001
1.2322055e+001
1.2031479e+001
1.1602938e+001
1.1061725e+001
1.0438106e+001
9.7633905e+000
9.0673857e+000
8.3769464e+000
7.7141647e+000
7.0919113e+000
6.5150976e+000
5.9760442e+000
5.4608979e+000
4.9504704e+000
4.4296498e+000
3.8949416e+000
3.3491142e+000
2.8024654e+000
2.2661650e+000
1.7502019e+000
1.2665975e+000
8.3199620e-001
4.6340832e-001
1.7529663e-001
-2.3733512e-002
-1.3718854e-001
-1.7658800e-001
-1.6454747e-001
-1.2537301e-001
-8.0860347e-002
-4.7998767e-002
-3.4153540e-002
-4.1585393e-002
-6.6093452e-002
-1.0079075e-001
-1.3631429e-001
-1.6375314e-001
-1.7691885e-001
-1.7315327e-001
-1.5649448e-001
-1.3341060e-001
-1.1157428e-001
-9.3270279e-002
-6.7754298e-002
-2.3218440e-002
4.8018567e-002
1.5806115e-001
3.3006889e-001
5.7512748e-001
8.6949128e-001
1.1823554e+000
1.4875171e+000
1.7734351e+000
2.0604973e+000
2.3710201e+000
2.7120261e+000
3.0759871e+000
3.4296243e+000
3.7451553e+000
4.0245137e+000
4.2839923e+000
4.5569348e+000
4.8685222e+000
5.2122893e+000
5.5721221e+000
5.9263387e+000
6.2613854e+000
6.5875998e+000
6.9191618e+000
7.2641888e+000
7.6229892e+000
7.9792023e+000
8.3135691e+000
8.6101589e+000
8.8567200e+000
9.0486422e+000
9.1852798e+000
9.2722845e+000
9.3208733e+000
9.3535252e+000
9.3887053e+000
9.4262342e+000
9.4541245e+000
9.4413271e+000
9.3607311e+000
9.2091265e+000
8.9914951e+000
8.7190437e+000
8.4028111e+000
8.0492773e+000
7.6693606e+000
7.2900500e+000
6.9377780e+000
6.6256571e+000
6.3543434e+000
6.0994635e+000
5.8335900e+000
5.5401788e+000
5.2092690e+000
4.8431978e+000
4.4474659e+000
4.0271029e+000
3.5905092e+000
3.1556420e+000
2.7443323e+000
2.3832226e+000
2.0907857e+000
1.8574451e+000
1.6596634e+000
1.4530895e+000
1.2022440e+000
9.1594958e-001
6.2057275e-001
3.6240861e-001
1.7478074e-001
3.4977801e-002
-9.2650726e-002
-2.4033900e-001
-4.2723703e-001
-6.3359320e-001
-8.3307266e-001
-1.0090163e+000
-1.1479337e+000
-1.2386360e+000
-1.2708980e+000
-1.2349324e+000
-1.1262960e+000
-9.5772541e-001
-7.4533081e-001
-5.0219041e-001
-2.4336717e-001
7.0059896e-003
2.2183478e-001
3.7209994e-001
4.3781537e-001
4.3169796e-001
3.7463728e-001
2.8771427e-001
1.9150281e-001
1.0436676e-001
4.1114539e-002
5.7416414e-003
3.5858899e-004
2.9633652e-002
9.2572175e-002
1.6575029e-001
2.2865629e-001
2.9150009e-001
3.6968756e-001
4.6940058e-001
5.8433050e-001
6.7055321e-001
6.8133181e-001
5.9473944e-001
4.1246325e-001
2.0200272e-001
4.3044396e-002
-9.8945946e-004
1.0987759e-001
3.4101641e-001
6.3936079e-001
9.5265007e-001
1.2390759e+000
1.4969132e+000
1.7329123e+000
1.9468718e+000
2.1368999e+000
