##TITLE=Methyl Ethyl Ketone
##JCAMP-DX=4.24
##DATA TYPE=INFRARED SPECTRUM
##XUNITS=cm-1
##YUNITS=Absorbance
##FIRSTX=900
##LASTX=2300
##XYDATA=(X++(Y..Y))
2296 0.038334001
2294 0.039131861
2292 0.039929718
2290 0.04072658
2288 0.041524433
2286 0.042322293
2284 0.043119159
2282 0.043917008
2280 0.044713881
2278 0.045511726
2276 0.046309587
2274 0.04710646
2272 0.047904301
2270 0.048702162
2268 0.049499042
2266 0.05029688
2264 0.051094737
2262 0.051891621
2260 0.052689455
2258 0.05348634
2256 0.05428417
2254 0.055082031
2252 0.055878922
2250 0.056676749
2248 0.057474606
2246 0.058271501
2244 0.0021654286
2242 0.047918562
2240 0.11212485
2238 0.21426764
2236 0.32199886
2234 0.38542554
2232 0.44458646
2230 0.47995394
2228 0.5156787
2226 0.56364697
2224 0.61325246
2222 0.66784602
2220 0.71829104
2218 0.75546753
2216 0.78464484
2214 0.79795432
2212 0.81139821
2210 0.82657015
2208 0.85044187
2206 0.88501072
2204 0.92851007
2202 0.9799279
2200 1.0232666
2198 1.060052
2196 1.0557286
2194 1.0278493
2192 0.99223542
2190 0.95386332
2188 0.95622796
2186 0.97188276
2184 0.9876976
2182 1.0033265
2180 1.0167062
2178 1.0303453
2176 1.0870886
2174 1.1488972
2172 1.221928
2170 1.292837
2168 1.345628
2166 1.3973807
2164 1.4517425
2162 1.5097103
2160 1.5763332
2158 1.6331096
2156 1.66947
2154 1.6752363
2152 1.6396142
2150 1.5848922
2148 1.5134488
2146 1.4620392
2144 1.429968
2142 1.423229
2140 1.432752
2138 1.4548478
2136 1.4829199
2134 1.5349241
2132 1.5966551
2130 1.6761889
2128 1.76114
2126 1.8215665
2124 1.8762165
2122 1.8723915
2120 1.8574359
2118 1.8054852
2116 1.7493129
2114 1.700775
2112 1.6614206
2110 1.6574407
2108 1.670326
2106 1.7185394
2104 1.7755007
2102 1.8405128
2100 1.8966559
2098 1.9358954
2096 1.9659572
2094 1.9875566
2092 2.0184352
2090 2.0601287
2088 2.102941
2086 2.145
2084 2.1547792
2082 2.1432011
2080 2.0888193
2078 2.0137835
2076 1.9364628
2074 1.8593417
2072 1.8624719
2070 1.8916473
2068 1.9844325
2066 2.091423
2064 2.1322098
2062 2.1548729
2060 2.1181755
2058 2.075804
2056 2.0659001
2054 2.0767145
2052 2.1408634
2050 2.2195132
2048 2.310437
2046 2.3797357
2044 2.4034181
2042 2.393985
2040 2.3457851
2038 2.3004427
2036 2.2651401
2034 2.2462194
2032 2.2419207
2030 2.2407091
2028 2.2412276
2026 2.2581079
2024 2.286191
2022 2.3340642
2020 2.3919897
2018 2.4094703
2016 2.40834
2014 2.3518798
2012 2.2759418
2010 2.2043409
2008 2.1343999
2006 2.077503
2004 2.0256414
2002 1.990173
2000 1.9656206
1998 1.9766216
1996 1.9985
1994 2.030201
1992 2.0517697
1990 2.0384305
1988 2.0103559
1986 1.9628471
1984 1.9216685
1982 1.8960568
1980 1.8688006
1978 1.8389597
1976 1.8148201
1974 1.798381
1972 1.8334286
1970 1.9082125
1968 1.9778606
1966 2.0393865
1964 2.0196528
1962 1.9556477
1960 1.8828881
1958 1.8080038
1956 1.7558043
1954 1.7102883
1952 1.645244
1950 1.572365
1948 1.5139986
1946 1.468075
1944 1.4586972
1942 1.4676427
1940 1.4762419
1938 1.4763393
1936 1.44866
1934 1.4023769
1932 1.344434
1930 1.2827348
1928 1.2293479
1926 1.1900556
1924 1.1717416
1922 1.1804456
1920 1.2076205
1918 1.238776
1916 1.2606057
1914 1.2669089
1912 1.2636263
1910 1.2525671
1908 1.240298
1906 1.2082871
1904 1.164008
1902 1.1306926
1900 1.1005403
1898 1.15192
1896 1.2365143
1894 1.3551823
1892 1.4725243
1890 1.47843
1888 1.4175332
1886 1.238995
1884 1.0320337
1882 0.86916715
1880 0.7563526
1878 0.72983962
1876 0.73710698
1874 0.7663635
1872 0.80540413
1870 0.85698396
1868 0.91169727
1866 0.94765007
1864 0.94044936
1862 0.87738651
1860 0.78216094
1858 0.67750227
1856 0.56289947
1854 0.44963744
1852 0.31875783
1850 0.1828091
1848 0.060389161
1846 -0.045519289
1844 -0.073941335
1842 -0.054968402
1840 0.020072337
1838 0.11588542
1836 0.21412772
1834 0.30665299
1832 0.40999418
1830 0.51615626
1828 0.60079515
1826 0.66192752
1824 0.64948946
1822 0.58774549
1820 0.48808801
1818 0.36981899
1816 0.26341113
1814 0.15845974
1812 0.057837002
1810 -0.011430457
1808 -0.048788138
1806 -0.017951619
1804 0.072571546
1802 0.12976965
1800 0.1494036
1798 0.1058035
1796 0.020522786
1794 0.054928049
1792 0.16978359
1790 0.36113736
1788 0.58236188
1786 0.72130626
1784 0.80214894
1782 0.83911252
1780 0.84226966
1778 0.81595439
1776 0.78042912
1774 0.77594215
1772 0.80220079
1770 0.83207303
1768 0.82340252
1766 0.69299996
1764 0.4829706
1762 0.25015956
1760 0.060717314
1758 -0.12894288
1756 -0.259601
1754 -0.27161503
1752 -0.19105235
1750 -0.037317585
1748 0.064074054
1746 0.077648394
1744 -0.044072114
1742 -0.29149553
1740 -0.51531059
1738 -0.69073153
1736 -0.66056198
1734 -0.46539459
1732 -0.22826102
1730 0.012546919
1728 0.031227242
1726 -0.10823712
1724 -0.20505363
1722 -0.2298872
1720 0.051674113
1718 0.59958214
1716 1.3785622
1714 2.2157431
1712 2.7841868
1710 3.1772428
1708 3.5375018
1706 4.0946798
1704 5.091877
1702 6.7900229
1700 9.295929
1698 12.799866
1696 17.198999
1694 21.589621
1692 25.577391
1690 29.028799
1688 32.049675
1686 35.546288
1684 39.632629
1682 44.372219
1680 49.593239
1678 54.053093
1676 57.81123
1674 61.507141
1672 65.242203
1670 69.531509
1668 74.202698
1666 78.59185
1664 82.660408
1662 86.258644
1660 89.437988
1658 92.307587
1656 94.891228
1654 97.254303
1652 99.244423
1650 100.67935
1648 101.14017
1646 100.24268
1644 98.38324
1642 96.021828
1640 93.268883
1638 90.27961
1636 86.632156
1634 82.218643
1632 77.535164
1630 72.779816
1628 68.213882
1626 63.889156
1624 59.372681
1622 54.62912
1620 50.012924
1618 45.559448
1616 41.558399
1614 38.014641
1612 34.967896
1610 32.404469
1608 30.21324
1606 28.371693
1604 26.739038
1602 25.352436
1600 24.244862
1598 23.435501
1596 22.913
1594 22.649755
1592 22.567457
1590 22.634981
1588 22.797823
1586 23.056757
1584 23.40913
1582 23.86331
1580 24.425539
1578 25.190042
1576 26.184771
1574 27.46524
1572 29.018055
1570 30.639395
1568 32.274479
1566 33.766071
1564 35.099831
1562 36.481689
1560 37.979614
1558 40.05611
1556 42.741459
1554 45.41774
1552 47.91399
1550 49.744667
1548 50.943119
1546 52.008179
1544 52.952717
1542 53.829906
1540 54.488422
1538 54.607109
1536 54.133514
1534 53.107319
1532 51.748173
1530 50.415928
1528 49.139164
1526 47.936951
1524 46.678345
1522 45.257408
1520 43.629765
1518 41.711208
1516 39.691227
1514 37.630116
1512 35.463802
1510 33.212898
1508 30.478764
1506 27.135635
1504 23.818514
1502 20.57947
1500 17.897669
1498 15.84451
1496 13.884143
1494 12.034922
1492 10.218994
1490 8.4565887
1488 6.7366576
1486 5.086154
1484 3.5380299
1482 2.1629009
1480 1.095576
1478 0.37709272
1476 0.049749017
1474 0.18669949
1472 0.70863318
1470 1.3746051
1468 2.0064194
1466 2.5005808
1464 2.8213716
1462 3.1360838
1460 3.5344443
1458 4.0747776
1456 4.80234
1454 5.5006819
1452 6.0811629
1450 6.4643116
1448 6.545794
1446 6.5386572
1444 6.4115596
1442 6.2348652
1440 6.0001392
1438 5.7179275
1436 5.3866544
1434 4.9827242
1432 4.5187407
1430 4.0477824
1428 3.5903862
1426 3.2411549
1424 3.0131383
1422 2.9189751
1420 2.9669712
1418 3.1274626
1416 3.3752685
1414 3.6764889
1412 3.9732544
1410 4.2629089
1408 4.5444832
1406 4.8295226
1404 5.1265187
1402 5.4226503
1400 5.7085724
1398 5.9642234
1396 6.1823144
1394 6.3212619
1392 6.4102139
1390 6.3778272
1388 6.2672524
1386 6.02424
1384 5.7088394
1382 5.2984266
1380 4.8635941
1378 4.4053578
1376 3.9310887
1374 3.4626746
1372 3.0047979
1370 2.5692437
1368 2.1812639
1366 1.8036864
1364 1.403078
1362 0.99291813
1360 0.57569265
1358 0.2176002
1356 0.0077132732
1354 -0.097295806
1352 -0.055724997
1350 0.043966658
1348 0.18280753
1346 0.32512107
1344 0.45863241
1342 0.59973836
1340 0.76534265
1338 0.92285991
1336 1.0481943
1334 1.1362121
1332 1.1173649
1330 1.0945621
1328 1.0706983
1326 1.1009557
1324 1.2339582
1322 1.4276913
1320 1.7074445
1318 1.9982262
1316 2.29073
1314 2.5315821
1312 2.6993217
1310 2.7953796
1308 2.8123014
1306 2.7725143
1304 2.6923697
1302 2.590589
1300 2.4955175
1298 2.4328609
1296 2.4024
1294 2.4195993
1292 2.4531255
1290 2.4952924
1288 2.5403559
1286 2.5865221
1284 2.6488769
1282 2.7473197
1280 2.8560297
1278 2.984107
1276 3.1066084
1274 3.226675
1272 3.356493
1270 3.5122082
1268 3.6942236
1266 3.91064
1264 4.1406116
1262 4.3796892
1260 4.6157579
1258 4.8507419
1256 5.0933743
1254 5.347301
1252 5.6227379
1250 5.9134765
1248 6.2134137
1246 6.5160999
1244 6.8057656
1242 7.0799956
1240 7.3137469
1238 7.5125976
1236 7.6349554
1234 7.7057805
1232 7.6575561
1230 7.5499482
1228 7.2893052
1226 6.9810419
1224 6.5477567
1222 6.0887046
1220 5.5679007
1218 5.0413609
1216 4.5062828
1214 3.9933939
1212 3.5253146
1210 3.1063664
1208 2.7618041
1206 2.4691558
1204 2.237478
1202 2.0349567
1200 1.8555646
1198 1.6636277
1196 1.4586428
1194 1.2334741
1192 1.0079936
1190 0.82930273
1188 0.69220358
1186 0.64127511
1184 0.62264693
1182 0.62081963
1180 0.61950266
1178 0.60739207
1176 0.610174
1174 0.68095124
1172 0.76959974
1170 0.90905333
1168 1.0395811
1166 1.1401578
1164 1.2351588
1162 1.315037
1160 1.3813503
1158 1.4134462
1156 1.3854357
1154 1.2567931
1152 1.0832045
1150 0.85788989
1148 0.65910441
1146 0.49249786
1144 0.35403258
1142 0.23922373
1140 0.13028421
1138 0.029684596
1136 -0.048668515
1134 -0.10513535
1132 -0.077550113
1130 -0.0017216355
1128 0.16021349
1126 0.3492825
1124 0.55938053
1122 0.76114112
1120 0.89867043
1118 1.0091988
1116 1.0062062
1114 0.98398852
1112 0.89048129
1110 0.80983484
1108 0.77206618
1106 0.76182801
1104 0.81633246
1102 0.8594197
1100 0.87872428
1098 0.88285476
1096 0.87115711
1094 0.91142452
1092 1.0202552
1090 1.17356
1088 1.3638766
1086 1.51572
1084 1.6329563
1082 1.7093414
1080 1.7629623
1078 1.821543
1076 1.8767828
1074 1.8909509
1072 1.8793823
1070 1.7819586
1068 1.6705559
1066 1.5985399
1064 1.548704
1062 1.6261599
1060 1.7105788
1058 1.7978026
1056 1.8632286
1054 1.8328115
1052 1.7901077
1050 1.710546
1048 1.6425269
1046 1.6002822
1044 1.5461388
1042 1.4658893
1040 1.3531224
1038 1.193354
1036 1.0356981
1034 0.88188809
1032 0.73815924
1030 0.60225254
1028 0.44650155
1026 0.2746827
1024 0.072863966
1022 -0.1441164
1020 -0.35250419
1018 -0.55366892
1016 -0.70750058
1014 -0.84666699
1012 -0.964643
1010 -1.0788317
1008 -1.1932521
1006 -1.3043377
1004 -1.3781074
1002 -1.4408277
1000 -1.4299216
998 -1.4052925
996 -1.3202786
994 -1.236456
992 -1.1582674
990 -1.0947058
988 -1.0656923
986 -1.0469586
984 -1.0465217
982 -1.0747421
980 -1.141222
978 -1.2206705
976 -1.3097142
974 -1.32576
972 -1.2795315
970 -1.1560397
968 -0.98568463
966 -0.83059746
964 -0.68440431
962 -0.58285224
960 -0.49346933
958 -0.34522951
956 -0.18308882
954 0.01962021
952 0.21914481
950 0.22854246
948 0.22203994
946 0.099990919
944 0.0032406475
942 0.0044987947
940 0.15058547
938 0.58573914
936 1.0550029
934 1.6227547
932 2.1134138
930 2.4375014
928 2.6513731
926 2.6891692
924 2.71064
922 2.7133095
920 2.7520289
918 2.8239222
916 2.9144773
914 3.0175676
912 3.108176
910 3.1932671
908 3.2598341
906 3.3220007
904 3.3780236
902 3.4348953
900 3.5736368
898 3.7266798
896 4.132
