Image.
>Pix99999.
  .
5555
5555
2300
900
5555
2
1
0
701
5555
1.0720000e-001
1.0943680e-001
1.1166363e-001
1.1389044e-001
1.1612720e-001
1.1835407e-001
1.2058089e-001
1.2281761e-001
1.2504452e-001
1.2727132e-001
1.2950800e-001
1.3173495e-001
1.3396178e-001
1.3617876e-001
1.3842499e-001
1.4070114e-001
1.4288995e-001
1.4494021e-001
1.4733803e-001
1.5023100e-001
1.5182543e-001
1.5158871e-001
1.5619041e-001
1.6760722e-001
1.6104650e-001
1.1526643e-001
5.3213671e-002
4.4230991e-003
-2.5022756e-002
-3.7602965e-002
-4.3203358e-002
-5.2656554e-002
-7.2375834e-002
-1.0601158e-001
-1.5129106e-001
-2.0161851e-001
-2.3990166e-001
-2.5195548e-001
-2.4764958e-001
-2.4257304e-001
-2.4654229e-001
-2.6331267e-001
-2.7937999e-001
-2.7754304e-001
-2.4633120e-001
-1.7813243e-001
-7.3475681e-002
6.0547449e-002
2.0022020e-001
3.1853771e-001
3.9593571e-001
4.2202801e-001
4.1406032e-001
3.9535886e-001
3.7869054e-001
3.6861113e-001
3.5059160e-001
3.0850753e-001
2.4437858e-001
1.6852820e-001
1.0052040e-001
5.8489662e-002
4.2851314e-002
4.7125269e-002
6.0724806e-002
7.3190503e-002
7.9600543e-002
7.9346903e-002
8.1789099e-002
9.7982936e-002
1.3235439e-001
1.8303819e-001
2.3207675e-001
2.6066521e-001
2.6916027e-001
2.6583999e-001
2.6376435e-001
2.7263910e-001
2.8241467e-001
2.7913526e-001
2.6160973e-001
2.3521711e-001
2.1283902e-001
2.0483395e-001
2.0073840e-001
1.8572207e-001
1.5821145e-001
1.2329818e-001
9.2523508e-002
7.6160125e-002
7.0158213e-002
6.6759869e-002
6.5123655e-002
6.5543398e-002
6.1523858e-002
4.5870766e-002
1.9500548e-002
-1.1786957e-002
-3.5125140e-002
-3.8548429e-002
-2.4575286e-002
8.8928267e-005
3.4982376e-002
8.2665354e-002
1.4722946e-001
2.2842450e-001
3.0592269e-001
3.5377619e-001
3.5580388e-001
3.0524313e-001
2.1703528e-001
1.1366645e-001
1.3362924e-002
-6.9360748e-002
-1.2679785e-001
-1.5683085e-001
-1.6945629e-001
-1.7830923e-001
-1.9183065e-001
-2.1226610e-001
-2.2599229e-001
-2.1658926e-001
-1.8327527e-001
-1.3399430e-001
-8.4231675e-002
-4.9343966e-002
-3.2072939e-002
-2.9973485e-002
-4.2092990e-002
-6.8226628e-002
-1.0738670e-001
-1.5714285e-001
-2.1061280e-001
-2.5996971e-001
-3.0152711e-001
-3.3149943e-001
-3.3736175e-001
-3.0628371e-001
-2.4109302e-001
-1.5659259e-001
-8.7778404e-002
-6.9922760e-002
-1.0258619e-001
-1.6707119e-001
-2.3841588e-001
-2.9601806e-001
-3.4581587e-001
-4.0347689e-001
-4.7350010e-001
-5.5074370e-001
-6.1452639e-001
-6.4309275e-001
-6.3958359e-001
-6.2068743e-001
-6.0873258e-001
-6.2206453e-001
-6.5384209e-001
-6.8668574e-001
-7.1045649e-001
-7.1992487e-001
-7.1224886e-001
-6.8492228e-001
-6.3293672e-001
-5.5545890e-001
-4.7504616e-001
-4.2260092e-001
-4.1470507e-001
-4.5383555e-001
-5.1599479e-001
-5.7020611e-001
-6.1015415e-001
-6.4264339e-001
-6.7307204e-001
-7.0315349e-001
-7.2615206e-001
-7.3555249e-001
-7.4409640e-001
-7.7113080e-001
-8.2008159e-001
-8.8277006e-001
-9.4022143e-001
-9.7270226e-001
-9.7873521e-001
-9.6625113e-001
-9.4045126e-001
-9.0372723e-001
-8.5619855e-001
-8.0046487e-001
-7.5442970e-001
-7.3874432e-001
-7.4959499e-001
-7.6986176e-001
-7.8563327e-001
-7.9071271e-001
-7.9970634e-001
-8.3281273e-001
-8.8540161e-001
-9.3638599e-001
-9.5736468e-001
-9.2330635e-001
-8.3623284e-001
-7.1875453e-001
-6.1576331e-001
-5.7628059e-001
-6.1804736e-001
-7.3170185e-001
-8.7233406e-001
-9.8349988e-001
-1.0405846e+000
-1.0423994e+000
-1.0000340e+000
-9.2739421e-001
-8.2615328e-001
-6.9811982e-001
-5.8012557e-001
-5.2458578e-001
-5.5740136e-001
-6.7666531e-001
-8.3711392e-001
-9.7752911e-001
-1.0742714e+000
-1.1295559e+000
-1.1495188e+000
-1.1405751e+000
-1.1125600e+000
-1.0785214e+000
-1.0564981e+000
-1.0618411e+000
-1.0838246e+000
-1.0962390e+000
-1.0779557e+000
-1.0174417e+000
-9.2306870e-001
-8.1769270e-001
-7.3470807e-001
-7.0755500e-001
-7.4589354e-001
-8.3933109e-001
-9.5888698e-001
-1.0681767e+000
-1.1439058e+000
-1.1761193e+000
-1.1717894e+000
-1.1448251e+000
-1.0943446e+000
-1.0121400e+000
-9.0648592e-001
-7.9848462e-001
-7.1252453e-001
-6.6566294e-001
-6.3811642e-001
-5.9088707e-001
-5.1117003e-001
-4.0766847e-001
-2.9203203e-001
-1.7612892e-001
-7.5171664e-002
-3.6574826e-003
3.8080119e-002
6.4063281e-002
1.0754166e-001
2.0240203e-001
3.2978386e-001
4.3238461e-001
4.5418674e-001
3.6388186e-001
2.1631600e-001
1.0584208e-001
2.8962243e-002
-8.0717511e-002
-2.1771228e-001
-3.1777006e-001
-3.3447245e-001
-2.5433940e-001
-1.1671431e-001
6.7926086e-003
6.1228178e-002
2.4433922e-002
-5.3887006e-002
-8.6278468e-002
-4.7339801e-002
2.8014321e-002
7.4496217e-002
2.6658267e-002
-1.1061886e-001
-2.7150321e-001
-3.6564445e-001
-2.9145569e-001
5.5438131e-002
7.4478579e-001
1.6815658e+000
2.6567593e+000
3.5272880e+000
4.2557993e+000
4.9677200e+000
5.9036107e+000
7.2938833e+000
9.3213301e+000
1.2067314e+001
1.5476397e+001
1.9211000e+001
2.2767439e+001
2.5874857e+001
2.8555767e+001
3.1168772e+001
3.4278145e+001
3.8294659e+001
4.3333366e+001
4.8877998e+001
5.4052189e+001
5.8619244e+001
6.2961578e+001
6.7498253e+001
7.2471626e+001
7.7620659e+001
8.2322800e+001
8.6198288e+001
8.9176437e+001
9.1346024e+001
9.2879860e+001
9.3931854e+001
9.4609245e+001
9.4947197e+001
9.4912590e+001
9.4423645e+001
9.3405426e+001
9.1964020e+001
9.0336258e+001
8.8600365e+001
8.6652008e+001
8.4322495e+001
8.1456970e+001
7.8091255e+001
7.4415627e+001
7.0526138e+001
6.6400322e+001
6.2000080e+001
5.7317970e+001
5.2457829e+001
4.7622917e+001
4.3014771e+001
3.8806316e+001
3.5127121e+001
3.2049240e+001
2.9535559e+001
2.7456921e+001
2.5702766e+001
2.4206572e+001
2.2946737e+001
2.1936239e+001
2.1183001e+001
2.0682039e+001
2.0421909e+001
2.0387178e+001
2.0569826e+001
2.0967386e+001
2.1566526e+001
2.2356119e+001
2.3384537e+001
2.4757660e+001
2.6568113e+001
2.8858023e+001
3.1544210e+001
3.4428993e+001
3.7345398e+001
4.0188820e+001
4.2888252e+001
4.5432392e+001
4.8001560e+001
5.0889149e+001
5.3983341e+001
5.6735348e+001
5.8696457e+001
5.9686146e+001
5.9860401e+001
5.9634964e+001
5.9195934e+001
5.8414421e+001
5.7123859e+001
5.5231926e+001
5.2880226e+001
5.0430565e+001
4.8140293e+001
4.6081894e+001
4.4228424e+001
4.2478600e+001
4.0699730e+001
3.8755283e+001
3.6576954e+001
3.4198170e+001
3.1765244e+001
2.9493963e+001
2.7417320e+001
2.5341194e+001
2.3068558e+001
2.0497171e+001
1.7753794e+001
1.5180994e+001
1.2974711e+001
1.1093100e+001
9.4268999e+000
7.8604631e+000
6.3483820e+000
4.9259472e+000
3.6131914e+000
2.3996115e+000
1.3199182e+000
4.6839434e-001
-7.4840084e-002
-2.5918370e-001
-1.7552167e-002
7.1880776e-001
1.8772824e+000
3.2184150e+000
4.5451617e+000
5.7727833e+000
6.8999586e+000
7.9993763e+000
9.1431427e+000
1.0364054e+001
1.1593200e+001
1.2647743e+001
1.3369615e+001
1.3680202e+001
1.3592080e+001
1.3216000e+001
1.2671619e+001
1.2054910e+001
1.1424034e+001
1.0787292e+001
1.0111625e+001
9.3328848e+000
8.4394894e+000
7.5023279e+000
6.6172180e+000
5.8818607e+000
5.3527331e+000
5.0263643e+000
4.8745422e+000
4.8551364e+000
4.9346085e+000
5.0970807e+000
5.3391862e+000
5.6670661e+000
6.0747519e+000
6.5340376e+000
7.0025105e+000
7.4252901e+000
7.7483482e+000
7.9260983e+000
7.9324217e+000
7.7699447e+000
7.4640131e+000
7.0626550e+000
6.6086445e+000
6.1299553e+000
5.6534767e+000
5.2070761e+000
4.8068819e+000
4.4476805e+000
4.0993772e+000
3.7054350e+000
3.2273860e+000
2.6662698e+000
2.0502000e+000
1.4330850e+000
8.5965776e-001
3.5280949e-001
-6.2201962e-002
-3.5066873e-001
-4.8339900e-001
-4.4441277e-001
-2.2714664e-001
1.6097218e-001
6.8755698e-001
1.2896821e+000
1.9226240e+000
2.5783198e+000
3.2370543e+000
3.8435068e+000
4.3148770e+000
4.5471592e+000
4.4950418e+000
4.2190170e+000
3.8148139e+000
3.3928728e+000
3.0400357e+000
2.7945752e+000
2.6574502e+000
2.5855448e+000
2.5236599e+000
2.4171090e+000
2.2383668e+000
2.0065000e+000
1.7553883e+000
1.5245972e+000
1.3429172e+000
1.2197380e+000
1.1672992e+000
1.2092315e+000
1.3674858e+000
1.6540697e+000
2.0637181e+000
2.5650198e+000
3.1206920e+000
3.6935945e+000
4.2467527e+000
4.7443695e+000
5.1558814e+000
5.4631205e+000
5.6693316e+000
5.8116269e+000
5.9361749e+000
6.0888000e+000
6.3018827e+000
6.5829806e+000
6.9346724e+000
7.3609447e+000
7.8692679e+000
8.4716692e+000
9.1751823e+000
9.9751091e+000
1.0860283e+001
1.1813593e+001
1.2815721e+001
1.3846500e+001
1.4881543e+001
1.5884763e+001
1.6810190e+001
1.7593100e+001
1.8171200e+001
1.8491177e+001
1.8510479e+001
1.8209785e+001
1.7588955e+001
1.6676886e+001
1.5524069e+001
1.4212192e+001
1.2840034e+001
1.1529610e+001
1.0393034e+001
9.5092802e+000
8.9256907e+000
8.6336708e+000
8.5903969e+000
8.7075024e+000
8.8757000e+000
8.9681606e+000
8.8761606e+000
8.5431719e+000
7.9605432e+000
7.1950259e+000
6.3317089e+000
5.4543748e+000
4.6289506e+000
3.8829513e+000
3.2316961e+000
2.6833341e+000
2.2428493e+000
1.9114492e+000
1.6858600e+000
1.5550510e+000
1.5044731e+000
1.5160096e+000
1.5696634e+000
1.6427871e+000
1.7141219e+000
1.7662491e+000
1.7865971e+000
1.7711850e+000
1.7193614e+000
1.6336048e+000
1.5149920e+000
1.3604091e+000
1.1666778e+000
9.3434215e-001
6.7539674e-001
4.2449361e-001
2.1133089e-001
4.1514829e-002
-8.2690172e-002
-1.5503711e-001
-1.8259011e-001
-2.0457438e-001
-2.5246623e-001
-3.1999594e-001
-3.8575655e-001
-4.1524509e-001
-3.8582438e-001
-3.1159353e-001
-2.1726985e-001
-1.3074124e-001
-6.9304496e-002
-2.2334950e-002
2.5253434e-002
8.2273148e-002
1.4963114e-001
2.1288152e-001
2.6116580e-001
3.0321494e-001
3.6363286e-001
4.9440765e-001
7.4225414e-001
1.1211812e+000
1.6159195e+000
2.1556458e+000
2.6589165e+000
3.0533848e+000
3.2868707e+000
3.3557320e+000
3.2785685e+000
3.1025651e+000
2.8837502e+000
2.6826651e+000
2.5505991e+000
2.5104008e+000
2.5626080e+000
2.6669037e+000
2.7748902e+000
2.8443604e+000
2.8440886e+000
2.7700675e+000
2.6334252e+000
2.4686100e+000
2.3140390e+000
2.2003930e+000
2.1457527e+000
2.1373484e+000
2.1620231e+000
2.2277310e+000
2.3462601e+000
2.5238278e+000
2.7481313e+000
2.9564831e+000
3.0772479e+000
3.0499742e+000
2.8415127e+000
2.4913230e+000
2.0686500e+000
1.6768945e+000
1.4023286e+000
1.2515187e+000
1.1936797e+000
1.1431683e+000
1.0220976e+000
8.1958157e-001
5.5499148e-001
2.8974605e-001
7.6445200e-002
-9.2569768e-002
-2.4443500e-001
-4.2006201e-001
-6.4741266e-001
-9.0231788e-001
-1.1460078e+000
-1.3348500e+000
-1.4338605e+000
-1.4408815e+000
-1.3675079e+000
-1.2433478e+000
-1.1014131e+000
-9.6847093e-001
-8.5916972e-001
-7.5195384e-001
-6.2034017e-001
-4.5185548e-001
-2.4726018e-001
-4.0329173e-002
1.3360578e-001
2.6187870e-001
3.3931401e-001
3.6729729e-001
3.4885681e-001
2.8725833e-001
1.9175619e-001
9.2367500e-002
2.1498730e-002
1.3850592e-003
4.5178875e-002
1.4238910e-001
2.7561000e-001
4.2374942e-001
5.7018083e-001
7.1803397e-001
8.7665129e-001
1.0600029e+000
1.2746440e+000
1.4960679e+000
1.6923600e+000
1.8345314e+000
1.9057658e+000
1.9311234e+000
1.9406103e+000
1.9414699e+000
1.9386011e+000
1.9506536e+000
2.0004599e+000
2.1161435e+000
2.3127792e+000
2.5501201e+000
2.7739999e+000
