##TITLE=Methyl Ethyl Ketone
##JCAMP-DX=4.24
##DATA TYPE=INFRARED SPECTRUM
##XUNITS=cm-1
##YUNITS=Absorbance
##FIRSTX=900
##LASTX=2300
##XYDATA=(X++(Y..Y))
2296 0.0088272002
2294 0.0090107378
2292 0.0091944747
2290 0.0093781119
2288 0.0095617492
2286 0.0097453864
2284 0.0099290237
2282 0.010113156
2280 0.010295908
2278 0.010479635
2276 0.010663372
2274 0.010848093
2272 0.011030863
2270 0.01121262
2268 0.01139828
2266 0.011588907
2264 0.011765954
2262 0.011921235
2260 0.012131549
2258 0.012419129
2256 0.012502772
2254 0.01230033
2252 0.012854803
2250 0.014475556
2248 0.013285194
2246 0.0064772107
2244 0.00023127742
2242 0.0030307111
2240 0.022492172
2238 0.062671326
2236 0.11433299
2234 0.16547391
2232 0.20819218
2230 0.23734361
2228 0.25403655
2226 0.26196402
2224 0.26799348
2222 0.27916372
2220 0.2995638
2218 0.33109656
2216 0.37052888
2214 0.41201109
2212 0.44547001
2210 0.46040228
2208 0.44964817
2206 0.41243327
2204 0.36956885
2202 0.34781167
2200 0.37124464
2198 0.45486349
2196 0.58051783
2194 0.71917617
2192 0.83958405
2190 0.91476595
2188 0.93738359
2186 0.90939873
2184 0.84527761
2182 0.76414704
2180 0.68844253
2178 0.63877767
2176 0.62434798
2174 0.6494503
2172 0.71368021
2170 0.81343728
2168 0.93802589
2166 1.0718857
2164 1.1892817
2162 1.2663033
2160 1.3006566
2158 1.3012563
2156 1.29137
2154 1.2948828
2152 1.3177389
2150 1.3574721
2148 1.4028476
2146 1.4410928
2144 1.465068
2142 1.472751
2140 1.4732223
2138 1.4794101
2136 1.5048229
2134 1.5589349
2132 1.635434
2130 1.7222657
2128 1.806708
2126 1.8778607
2124 1.9327009
2122 1.9728274
2120 2.0080252
2118 2.0495837
2116 2.1033645
2114 2.1689641
2112 2.2294667
2110 2.2646151
2108 2.266376
2106 2.2356637
2104 2.1908634
2102 2.1546085
2100 2.1403399
2098 2.1549411
2096 2.1928284
2094 2.2436249
2092 2.2955375
2090 2.3385789
2088 2.3705833
2086 2.3932049
2084 2.4103167
2082 2.424999
2080 2.4344733
2078 2.4340272
2076 2.4220686
2074 2.3997056
2072 2.374732
2070 2.3566959
2068 2.3507352
2066 2.3585408
2064 2.3743827
2062 2.3895261
2060 2.3964896
2058 2.390511
2056 2.3759258
2054 2.361372
2052 2.3573313
2050 2.3717549
2048 2.399092
2046 2.4268072
2044 2.4382598
2042 2.418499
2040 2.366569
2038 2.2896008
2036 2.2018027
2034 2.119765
2032 2.0588541
2030 2.0324051
2028 2.0491569
2026 2.1114686
2024 2.2033541
2022 2.3007786
2020 2.3785887
2018 2.4168024
2016 2.4175
2014 2.3933609
2012 2.3588231
2010 2.3268328
2008 2.3020725
2006 2.2842181
2004 2.2671082
2002 2.242486
2000 2.2031491
1998 2.145061
1996 2.0750716
1994 2.0032883
1992 1.9326086
1990 1.8625219
1988 1.794472
1986 1.7319515
1984 1.6829623
1982 1.655967
1980 1.6524937
1978 1.6699029
1976 1.7034428
1974 1.747012
1972 1.7917782
1970 1.8283362
1968 1.8497001
1966 1.8512778
1964 1.8343275
1962 1.8019648
1960 1.753424
1958 1.6881551
1956 1.6150686
1954 1.548861
1952 1.5066737
1950 1.499581
1948 1.5080651
1946 1.49945
1944 1.4531063
1942 1.3630397
1940 1.2548494
1938 1.1652964
1936 1.1106229
1934 1.0921788
1932 1.0996419
1930 1.120604
1928 1.1566542
1926 1.21674
1924 1.3074145
1922 1.4270927
1920 1.5464578
1918 1.625688
1916 1.6439828
1914 1.596863
1912 1.5002148
1910 1.3782709
1908 1.2467709
1906 1.1173128
1904 1.0076991
1902 0.93671519
1900 0.91063201
1898 0.92502052
1896 0.9610014
1894 0.99517173
1892 1.0171057
1890 1.026134
1888 1.028196
1886 1.0293193
1884 1.0228546
1882 0.99708253
1880 0.95100981
1878 0.89307237
1876 0.841986
1874 0.81825161
1872 0.82667249
1870 0.85909593
1868 0.89331543
1866 0.90308607
1864 0.87698007
1862 0.81613231
1860 0.7347753
1858 0.65296048
1856 0.58574545
1854 0.5441944
1852 0.53823519
1850 0.57301348
1848 0.63372999
1846 0.69230962
1844 0.71620357
1842 0.67966747
1840 0.59414798
1838 0.49334165
1836 0.40588987
1834 0.35118279
1832 0.33274376
1830 0.34408972
1828 0.37624705
1826 0.41822523
1824 0.45244822
1822 0.45972735
1820 0.43257082
1818 0.374823
1816 0.30529371
1814 0.24830675
1812 0.21319258
1810 0.19715878
1808 0.19177434
1806 0.18943401
1804 0.19737194
1802 0.23186092
1800 0.30384806
1798 0.41259474
1796 0.52603358
1794 0.59736949
1792 0.60646641
1790 0.56051672
1788 0.49713716
1786 0.46229127
1784 0.45659173
1782 0.45325035
1780 0.45357567
1778 0.4766849
1776 0.51439857
1774 0.53426731
1772 0.49411198
1770 0.36326641
1768 0.18222165
1766 0.035165712
1764 -0.027279459
1762 -0.0039480925
1760 0.020032909
1758 -0.068468139
1756 -0.24436115
1754 -0.38470024
1752 -0.4130944
1750 -0.31570411
1748 -0.14304377
1746 0.018547788
1744 0.10489505
1742 0.087856643
1740 0.0041938126
1738 -0.074143976
1736 -0.1220392
1734 -0.15865172
1732 -0.21591628
1730 -0.31862772
1728 -0.44113487
1726 -0.52048856
1724 -0.50131643
1722 -0.33689511
1720 0.032732636
1718 0.66153586
1716 1.5196559
1714 2.5074916
1712 3.5118189
1710 4.4441695
1708 5.3350821
1706 6.3195095
1704 7.5822506
1702 9.3168182
1700 11.6404
1698 14.549791
1696 17.786142
1694 20.933519
1692 23.758793
1690 26.261234
1688 28.69171
1686 31.448006
1684 34.786354
1682 38.73349
1680 42.9114
1678 46.727486
1676 50.048328
1674 53.186943
1672 56.509251
1670 60.28812
1668 64.482544
1666 68.805099
1664 73.032608
1662 77.042671
1660 80.732826
1658 84.018387
1656 86.908997
1654 89.49649
1652 91.876778
1650 94.085701
1648 95.919296
1646 97.014679
1644 97.243515
1642 96.716606
1640 95.5186
1638 93.658188
1636 91.112717
1634 87.880478
1632 84.148186
1630 80.2407
1628 76.311333
1626 72.32399
1624 68.216316
1622 63.955326
1620 59.603569
1618 55.307919
1616 51.204514
1614 47.401226
1612 43.99192
1610 41.045391
1608 38.546776
1606 36.405266
1604 34.539516
1602 32.898392
1600 31.457153
1598 30.208849
1596 29.134998
1594 28.202744
1592 27.386183
1590 26.672846
1588 26.076523
1586 25.635021
1584 25.377371
1582 25.32099
1580 25.49357
1578 25.929056
1576 26.634485
1574 27.576468
1572 28.655937
1570 29.726871
1568 30.698759
1566 31.557772
1564 32.338196
1562 33.139309
1560 34.229607
1558 35.971939
1556 38.365456
1554 40.992992
1552 43.394455
1550 45.224224
1548 46.491726
1546 47.536606
1544 48.569981
1542 49.568127
1540 50.39534
1538 50.867016
1536 50.896374
1534 50.527889
1532 49.881287
1530 49.114243
1528 48.294674
1526 47.375351
1524 46.270321
1522 44.886219
1520 43.188404
1518 41.22533
1516 39.1381
1514 37.116512
1512 35.167198
1510 33.081161
1508 30.671566
1506 27.87532
1504 24.874617
1502 22.067392
1500 19.663034
1498 17.580931
1496 15.657
1494 13.719568
1492 11.690366
1490 9.6092672
1488 7.5416489
1486 5.5582237
1484 3.7612481
1482 2.2771397
1480 1.160728
1478 0.39017799
1476 0.032069616
1474 0.24218613
1472 0.9651202
1470 1.878675
1468 2.7525196
1466 3.5517879
1464 4.2996073
1462 5.0235982
1460 5.6650343
1458 6.0650225
1456 6.1185398
1454 5.8387747
1452 5.3641915
1450 4.935709
1448 4.6574159
1446 4.4318395
1444 4.1746125
1442 3.8775291
1440 3.5482047
1438 3.1909602
1436 2.7961142
1434 2.3430555
1432 1.8450189
1430 1.3624582
1428 0.95244563
1426 0.64925873
1424 0.46221426
1422 0.37401
1420 0.36679083
1418 0.43136573
1416 0.56698596
1414 0.78060049
1412 1.0720359
1410 1.427749
1408 1.8271126
1406 2.2447271
1404 2.6605165
1402 3.0624871
1400 3.433316
1398 3.7459269
1396 3.9739141
1394 4.0989151
1392 4.1256452
1390 4.088511
1388 4.0179877
1386 3.92802
1384 3.8248646
1382 3.7084987
1380 3.5792062
1378 3.4391243
1376 3.2859199
1374 3.1111066
1372 2.9114399
1370 2.6924977
1368 2.4565828
1366 2.1977036
1364 1.9053274
1362 1.5690418
1360 1.1999971
1358 0.84168738
1356 0.53494573
1354 0.30169779
1352 0.13886507
1350 0.014589582
1348 -0.085469618
1346 -0.13796857
1344 -0.11402144
1342 0.0046072602
1340 0.19826283
1338 0.39350957
1336 0.52586484
1334 0.57049727
1332 0.54344988
1330 0.50950205
1328 0.52257073
1326 0.59903938
1324 0.7379387
1322 0.92351919
1320 1.1365978
1318 1.3581526
1316 1.5708801
1314 1.7610884
1312 1.9203194
1310 2.0473318
1308 2.1421297
1306 2.2045729
1304 2.2376921
1302 2.2500279
1300 2.2549548
1298 2.2708607
1296 2.3110144
1294 2.3768389
1292 2.4624057
1290 2.5543723
1288 2.642252
1286 2.7240565
1284 2.8025715
1282 2.8849385
1280 2.9765816
1278 3.0782416
1276 3.1898544
1274 3.3120701
1272 3.4472337
1270 3.6001005
1268 3.7769506
1266 3.9858737
1264 4.2377071
1262 4.5472145
1260 4.92451
1258 5.3688431
1256 5.8721972
1254 6.417469
1252 6.9898
1250 7.5819268
1248 8.187047
1246 8.7959747
1244 9.3984537
1242 9.9828615
1240 10.536509
1238 11.044837
1236 11.490986
1234 11.853532
1232 12.116879
1230 12.279756
1228 12.341731
1226 12.2983
1224 12.146239
1222 11.8825
1220 11.513098
1218 11.06484
1216 10.565314
1214 10.033731
1212 9.4849291
1210 8.9262133
1208 8.3615503
1206 7.791945
1204 7.2152719
1202 6.6246896
1200 6.017149
1198 5.4001241
1196 4.7868218
1194 4.1967297
1192 3.646816
1190 3.1454949
1188 2.6961231
1186 2.2964766
1184 1.9472246
1182 1.6581972
1180 1.4407195
1178 1.303277
1176 1.24234
1174 1.2298729
1172 1.2325975
1170 1.2194605
1168 1.1711063
1166 1.092447
1164 0.99447984
1162 0.88832378
1160 0.78103274
1158 0.67074412
1156 0.5556097
1154 0.43855679
1152 0.32314396
1150 0.21184599
1148 0.10742878
1146 0.014660817
1144 -0.055179793
1142 -0.077824697
1140 -0.034308013
1138 0.074157014
1136 0.23717001
1134 0.4344058
1132 0.64700979
1130 0.86643219
1128 1.0969526
1126 1.3669778
1124 1.7025077
1122 2.1087122
1120 2.5749879
1118 3.0642619
1116 3.5375743
1114 3.9678805
1112 4.3395815
1110 4.6583056
1108 4.9351025
1106 5.18221
1104 5.4127297
1102 5.6420612
1100 5.888196
1098 6.1747088
1096 6.5183001
1094 6.9150238
1092 7.3497262
1090 7.7924671
1088 8.215167
1086 8.6046562
1084 8.9514828
1082 9.247057
1080 9.4844093
1078 9.660429
1076 9.7775488
1074 9.8502636
1072 9.8950844
1070 9.9254684
1068 9.9533281
1066 9.9882879
1064 10.0328
1062 10.069541
1060 10.075612
1058 10.020177
1056 9.8829231
1054 9.6653528
1052 9.3780594
1050 9.0349588
1048 8.6482372
1046 8.2237711
1044 7.7671895
1042 7.2889876
1040 6.8021846
1038 6.3237643
1036 5.8684602
1034 5.441721
1032 5.0457544
1030 4.6802583
1028 4.3465276
1026 4.0523052
1024 3.8015943
1022 3.582314
1020 3.3764722
1018 3.1605244
1016 2.9151027
1014 2.6376929
1012 2.3313556
1010 2.0045912
1008 1.66896
1006 1.3408885
1004 1.039313
1002 0.78520042
1000 0.59050775
998 0.43769151
996 0.2997486
994 0.14350557
992 -0.054780677
990 -0.28403115
988 -0.52535349
986 -0.7622152
984 -0.97746933
982 -1.1497712
980 -1.251472
978 -1.2390089
976 -1.0800074
974 -0.79385293
972 -0.42362398
970 -0.047692612
968 0.26137903
966 0.480768
964 0.608531
962 0.67174029
960 0.69747168
958 0.68814909
956 0.64008731
954 0.5498091
952 0.42021161
950 0.27624947
948 0.14722405
946 0.058061395
944 0.019863777
942 -0.0013165511
940 -0.042143628
938 -0.10878871
936 -0.19956429
934 -0.31153816
932 -0.43489289
930 -0.5358541
928 -0.58427161
926 -0.58540946
924 -0.55540335
922 -0.51790559
920 -0.49554703
918 -0.50004721
916 -0.54263055
914 -0.64285535
912 -0.81479394
910 -1.043479
908 -1.3008212
906 -1.535795
904 -1.7024463
902 -1.7976136
900 -1.8238292
898 -1.76396
896 -1.5962
