Image.
>Pix99999.
  .
5555
5555
2300
900
5555
2
1
0
701
5555
-4.5770001e-002
-4.6722636e-002
-4.7674276e-002
-4.8626911e-002
-4.9578555e-002
-5.0531186e-002
-5.1482830e-002
-5.2435458e-002
-5.3387105e-002
-5.4339733e-002
-5.5291384e-002
-5.6244008e-002
-5.7196647e-002
-5.8148302e-002
-5.9099942e-002
-6.0052555e-002
-6.1005197e-002
-6.1956856e-002
-6.2909462e-002
-6.3861132e-002
-6.4813748e-002
-6.5765411e-002
-6.6718020e-002
-6.7669682e-002
-6.8622291e-002
-6.9574930e-002
-2.5854772e-003
1.2010166e-001
2.5307041e-001
3.0252346e-001
3.3962414e-001
3.3146128e-001
3.1892872e-001
2.8075027e-001
2.3614232e-001
1.5012251e-001
7.1894072e-002
3.8948260e-002
9.6820164e-003
-1.5736895e-002
-6.1044313e-002
-1.5028349e-001
-2.2091539e-001
-2.5697264e-001
-2.6728812e-001
-2.4816193e-001
-2.4008314e-001
-2.4448884e-001
-2.6063702e-001
-2.8493842e-001
-3.3051786e-001
-3.8803515e-001
-4.5009160e-001
-5.1378262e-001
-5.3774160e-001
-5.4874778e-001
-5.4970640e-001
-5.4854423e-001
-5.7505548e-001
-6.0550833e-001
-6.1852199e-001
-6.2756050e-001
-6.0978246e-001
-5.8576691e-001
-5.4052186e-001
-4.8024648e-001
-3.7264526e-001
-2.7020979e-001
-1.9312784e-001
-1.6934779e-001
-2.4182600e-001
-3.6429742e-001
-5.4479426e-001
-7.2837359e-001
-9.0860659e-001
-1.0093018e+000
-1.0400486e+000
-9.9367672e-001
-8.9872843e-001
-8.7846017e-001
-9.0156853e-001
-9.9153686e-001
-1.1078717e+000
-1.1497413e+000
-1.1671400e+000
-1.1508136e+000
-1.1271609e+000
-1.1322565e+000
-1.1424925e+000
-1.1605588e+000
-1.1854829e+000
-1.2530930e+000
-1.3263663e+000
-1.3978273e+000
-1.4356954e+000
-1.3732907e+000
-1.2780675e+000
-1.1427940e+000
-1.0388340e+000
-9.9706763e-001
-1.0041500e+000
-1.0630906e+000
-1.1117408e+000
-1.1418536e+000
-1.1123537e+000
-1.0357801e+000
-9.6351814e-001
-8.9837027e-001
-8.7504238e-001
-8.7317944e-001
-8.5749483e-001
-8.3497840e-001
-8.3834600e-001
-8.5027277e-001
-9.1036588e-001
-9.8194844e-001
-1.0535349e+000
-1.1231170e+000
-1.1738603e+000
-1.2159960e+000
-1.2314514e+000
-1.2452762e+000
-1.2718283e+000
-1.2980841e+000
-1.3165885e+000
-1.3047321e+000
-1.2367200e+000
-1.1567687e+000
-1.0756029e+000
-1.0318238e+000
-1.0339314e+000
-1.0543518e+000
-1.0844034e+000
-1.1092731e+000
-1.1284969e+000
-1.1518557e+000
-1.1784348e+000
-1.1650406e+000
-1.1304731e+000
-1.0593864e+000
-9.7421598e-001
-9.8244023e-001
-1.0229360e+000
-1.1585164e+000
-1.3140554e+000
-1.3897450e+000
-1.4293748e+000
-1.3577210e+000
-1.2599720e+000
-1.1702889e+000
-1.1057143e+000
-1.1099837e+000
-1.1509246e+000
-1.2371111e+000
-1.3195519e+000
-1.3779086e+000
-1.3910766e+000
-1.3493012e+000
-1.3029540e+000
-1.2649453e+000
-1.2465172e+000
-1.2441159e+000
-1.1719005e+000
-1.0434672e+000
-9.0518641e-001
-7.6730096e-001
-8.2795298e-001
-9.9380964e-001
-1.2349840e+000
-1.5034004e+000
-1.5998671e+000
-1.6304309e+000
-1.5547320e+000
-1.4535178e+000
-1.4214355e+000
-1.4251250e+000
-1.5030303e+000
-1.5872254e+000
-1.6158994e+000
-1.6072147e+000
-1.5466685e+000
-1.4955152e+000
-1.4927140e+000
-1.5386587e+000
-1.6385239e+000
-1.7183607e+000
-1.7513996e+000
-1.6674181e+000
-1.4712526e+000
-1.2548341e+000
-1.0465719e+000
-9.4652331e-001
-9.2728132e-001
-9.8343235e-001
-1.0776303e+000
-1.2302071e+000
-1.4117440e+000
-1.5590264e+000
-1.6892700e+000
-1.6663525e+000
-1.5795571e+000
-1.4398152e+000
-1.2959497e+000
-1.2653171e+000
-1.3047829e+000
-1.4614943e+000
-1.6603843e+000
-1.8554314e+000
-2.0284903e+000
-2.1520319e+000
-2.2402201e+000
-2.2917840e+000
-2.2879839e+000
-2.2170551e+000
-2.0811081e+000
-1.8936429e+000
-1.7460703e+000
-1.6594620e+000
-1.6596655e+000
-1.7223039e+000
-1.7870314e+000
-1.8409407e+000
-1.8100829e+000
-1.7224422e+000
-1.5929639e+000
-1.4422035e+000
-1.4352568e+000
-1.5057731e+000
-1.7040679e+000
-1.9574908e+000
-2.1633427e+000
-2.3274491e+000
-2.3788342e+000
-2.3302987e+000
-2.1070180e+000
-1.8151214e+000
-1.5484086e+000
-1.4029683e+000
-1.4924240e+000
-1.6906219e+000
-1.9146458e+000
-2.0508604e+000
-2.0451341e+000
-1.9376462e+000
-1.7648046e+000
-1.5766350e+000
-1.3934600e+000
-1.2190328e+000
-1.0498487e+000
-9.0399343e-001
-7.7544427e-001
-6.9144398e-001
-6.3894284e-001
-5.9947968e-001
-5.6816250e-001
-5.0973147e-001
-4.3469074e-001
-3.2976359e-001
-1.9779757e-001
9.6784011e-003
2.5488544e-001
4.9009186e-001
6.5010697e-001
5.8166146e-001
3.9177489e-001
1.7134583e-001
3.2234885e-002
8.7297320e-002
5.3634457e-002
-5.7518180e-002
-1.3736483e-001
-1.9660795e-001
-9.4841339e-002
1.9722871e-001
6.0524952e-001
1.0733786e+000
1.3027291e+000
1.2861418e+000
1.1187974e+000
8.6786270e-001
8.4892803e-001
1.0205797e+000
1.1937774e+000
1.3386470e+000
1.1195188e+000
6.6158032e-001
2.4226482e-001
-7.3511317e-002
8.6389259e-002
7.4704814e-001
2.0061142e+000
3.5187731e+000
4.8301773e+000
5.9193010e+000
6.7550602e+000
7.6653032e+000
8.9621315e+000
1.0951061e+001
1.3778634e+001
1.7391212e+001
2.1623142e+001
2.5602810e+001
2.8993526e+001
3.1938374e+001
3.4589939e+001
3.7829636e+001
4.1736816e+001
4.6306335e+001
5.1368679e+001
5.5727463e+001
5.9438171e+001
6.3102024e+001
6.6813110e+001
7.1159851e+001
7.5970718e+001
8.0685051e+001
8.5243828e+001
8.9434212e+001
9.3226860e+001
9.6531120e+001
9.9263031e+001
1.0130336e+002
1.0255680e+002
1.0294769e+002
1.0236674e+002
1.0078964e+002
9.8544098e+001
9.5977684e+001
9.3064384e+001
8.9845161e+001
8.5954224e+001
8.1323936e+001
7.6547470e+001
7.1845528e+001
6.7435822e+001
6.3330437e+001
5.9042881e+001
5.4524132e+001
5.0046059e+001
4.5642498e+001
4.1565826e+001
3.7843864e+001
3.4647480e+001
3.1983690e+001
2.9795942e+001
2.8044392e+001
2.6526285e+001
2.5236208e+001
2.4120138e+001
2.3179739e+001
2.2389999e+001
2.1770771e+001
2.1323017e+001
2.1079557e+001
2.1045633e+001
2.1224871e+001
2.1599108e+001
2.2134291e+001
2.2796909e+001
2.3653450e+001
2.4720913e+001
2.6009478e+001
2.7509083e+001
2.8976149e+001
3.0354160e+001
3.1518208e+001
3.2453835e+001
3.3465569e+001
3.4654087e+001
3.6762592e+001
3.9841400e+001
4.3189121e+001
4.6587868e+001
4.9118118e+001
5.0827923e+001
5.2273430e+001
5.3421982e+001
5.4301540e+001
5.4664661e+001
5.4193180e+001
5.3063915e+001
5.1627842e+001
5.0099102e+001
4.8730457e+001
4.7460068e+001
4.6233299e+001
4.4930786e+001
4.3473392e+001
4.1715916e+001
3.9562912e+001
3.7287670e+001
3.4966942e+001
3.2676720e+001
3.0448177e+001
2.7865276e+001
2.4824736e+001
2.1878931e+001
1.9101391e+001
1.6772898e+001
1.4929630e+001
1.3041572e+001
1.1120730e+001
9.2425156e+000
7.4688544e+000
5.9047232e+000
4.5473776e+000
3.2972200e+000
2.1885920e+000
1.2546408e+000
5.5734760e-001
1.4794557e-001
1.3799337e-001
5.7492983e-001
1.1743724e+000
1.7975109e+000
2.3458993e+000
2.7566588e+000
3.1570261e+000
3.6055214e+000
4.1275349e+000
4.7500200e+000
5.2834439e+000
5.6492515e+000
5.8319654e+000
5.7464743e+000
5.5691571e+000
5.2671528e+000
4.9369221e+000
4.5817437e+000
4.2565608e+000
3.9750955e+000
3.7235274e+000
3.5078440e+000
3.3107543e+000
3.1444759e+000
3.0335672e+000
2.9921319e+000
3.0327790e+000
3.1438241e+000
3.2975500e+000
3.4786885e+000
3.6702440e+000
3.8865654e+000
4.1556559e+000
4.4728847e+000
4.8560429e+000
5.2562714e+000
5.6555581e+000
5.9963679e+000
6.2267861e+000
6.3798714e+000
6.4043708e+000
6.4057074e+000
6.3578048e+000
6.2629414e+000
6.0856400e+000
5.8303242e+000
5.4708076e+000
5.0822186e+000
4.6673808e+000
4.2676573e+000
3.8959465e+000
3.5573800e+000
3.2491269e+000
2.9516833e+000
2.6409743e+000
2.2810309e+000
1.8795385e+000
1.4403383e+000
1.0110691e+000
6.4880127e-001
3.5429379e-001
1.6749015e-001
4.1484803e-002
-1.2826469e-002
-2.0739287e-002
4.1715361e-002
1.5478697e-001
3.6218572e-001
5.6294507e-001
7.3484516e-001
8.3089787e-001
7.8430325e-001
7.2261131e-001
6.4713007e-001
6.2499762e-001
6.9114232e-001
8.2377130e-001
1.0445490e+000
1.3070233e+000
1.5964200e+000
1.8366560e+000
2.0019217e+000
2.0567899e+000
2.0127480e+000
1.8975000e+000
1.7474794e+000
1.6090751e+000
1.4993882e+000
1.4541808e+000
1.4423286e+000
1.4623032e+000
1.4879702e+000
1.5081723e+000
1.5297641e+000
1.5563886e+000
1.5891317e+000
1.6358619e+000
1.6891046e+000
1.7575003e+000
1.8393414e+000
1.9497170e+000
2.0763452e+000
2.2298071e+000
2.3852766e+000
2.5450299e+000
2.7150195e+000
2.9048345e+000
3.1350279e+000
3.4171839e+000
3.7566657e+000
4.1540098e+000
4.6036434e+000
5.0852246e+000
5.5654616e+000
6.0348501e+000
6.4680243e+000
6.8757639e+000
7.2428479e+000
7.5618010e+000
7.7598429e+000
7.8750653e+000
7.7942801e+000
7.6375489e+000
7.2982659e+000
6.9159937e+000
6.4253020e+000
5.9334426e+000
5.4420137e+000
4.9755921e+000
4.5563402e+000
4.1356277e+000
3.7104399e+000
3.2720134e+000
2.8196201e+000
2.3844979e+000
1.9664961e+000
1.5424143e+000
1.1080539e+000
6.5145713e-001
1.8968002e-001
-2.2648519e-001
-6.0249269e-001
-9.1828167e-001
-1.2023672e+000
-1.4646457e+000
-1.7053777e+000
-1.8867812e+000
-2.0247369e+000
-2.0403986e+000
-2.0094600e+000
-1.8569102e+000
-1.6734477e+000
-1.3972021e+000
-1.1073672e+000
-7.7804339e-001
-4.5660096e-001
-1.5590650e-001
1.3054915e-001
3.8638741e-001
6.1987156e-001
8.0580288e-001
9.1301227e-001
9.0202034e-001
7.8377962e-001
5.5587107e-001
3.3096838e-001
1.2739748e-001
2.7056182e-002
6.9575012e-003
5.3684853e-002
1.4931861e-001
3.3676445e-001
5.8248389e-001
9.5020926e-001
1.3600979e+000
1.8169913e+000
2.2725108e+000
2.6762359e+000
3.0448511e+000
3.2505159e+000
3.4228227e+000
3.4686606e+000
3.5246665e+000
3.6167748e+000
3.7493351e+000
3.9846742e+000
4.2606888e+000
4.6174760e+000
5.0001464e+000
5.4221001e+000
5.8452072e+000
6.2663102e+000
6.6635504e+000
7.0382166e+000
7.4150629e+000
7.7991467e+000
8.2216549e+000
8.6563978e+000
9.0160847e+000
9.3182583e+000
9.4487972e+000
9.5123777e+000
9.4970102e+000
9.4550295e+000
9.3467932e+000
9.2156200e+000
8.9787817e+000
8.7371035e+000
8.4984951e+000
8.2902565e+000
8.2192154e+000
8.2176361e+000
8.4390707e+000
8.7087889e+000
9.0892181e+000
9.4279394e+000
9.6868048e+000
9.9132452e+000
1.0096502e+001
1.0312500e+001
1.0559250e+001
1.0726423e+001
1.0795623e+001
1.0583814e+001
1.0157339e+001
9.5037622e+000
8.7360811e+000
8.0199127e+000
7.3444061e+000
6.8952570e+000
6.5190172e+000
6.2772293e+000
6.0474372e+000
5.6950603e+000
5.3141146e+000
4.7169147e+000
4.1205769e+000
3.5450399e+000
3.0157466e+000
2.6902857e+000
2.3896711e+000
2.1644762e+000
1.9260252e+000
1.6580247e+000
1.4031471e+000
1.1709549e+000
9.3999416e-001
7.1171641e-001
5.0055128e-001
3.1300056e-001
2.3093081e-001
2.3855218e-001
3.5409194e-001
5.3576761e-001
7.2979599e-001
9.2416328e-001
1.0138305e+000
1.0661589e+000
1.0470721e+000
1.0114852e+000
9.5042825e-001
8.7904161e-001
6.3418317e-001
3.8413101e-001
1.6173573e-001
6.7641528e-004
1.2954593e-002
4.1870981e-001
1.1938181e+000
1.9190857e+000
2.4955509e+000
2.9504478e+000
3.1441140e+000
3.2397103e+000
3.1772399e+000
3.0326080e+000
2.7898786e+000
2.6287308e+000
2.5464330e+000
2.6713758e+000
2.9422498e+000
3.2101536e+000
3.4752009e+000
3.5645962e+000
3.5872242e+000
3.5765915e+000
3.5580857e+000
3.6480079e+000
3.7557633e+000
4.0098000e+000
