Image.
>Pix99999.
  .
5555
5555
2300
900
5555
2
1
0
701
5555
-2.6032001e-002
-2.6573226e-002
-2.7114453e-002
-2.7656674e-002
-2.8197903e-002
-2.8739130e-002
-2.9281346e-002
-2.9822581e-002
-3.0363806e-002
-3.0906020e-002
-3.1447258e-002
-3.1988483e-002
-3.2530691e-002
-3.3071935e-002
-3.3613160e-002
-3.4155365e-002
-3.4696609e-002
-3.5237838e-002
-3.5780039e-002
-3.6321290e-002
-3.6862515e-002
-3.7404709e-002
-3.7945963e-002
-3.8487192e-002
-3.9029382e-002
-3.9570644e-002
-1.4704857e-003
2.4711598e-002
4.8552919e-002
4.8491791e-002
4.4959214e-002
2.7650796e-002
9.5364777e-003
-4.5047551e-003
-1.6583726e-002
-1.4311300e-002
-1.0889377e-002
-5.3557176e-003
3.1627810e-003
2.0526361e-002
4.3152142e-002
7.6171257e-002
1.0853044e-001
1.3877732e-001
1.6760097e-001
1.9478658e-001
2.2130726e-001
2.4723899e-001
2.6514959e-001
2.7706289e-001
2.7641216e-001
2.6877162e-001
2.6247761e-001
2.5700113e-001
2.5036994e-001
2.4333550e-001
2.1747079e-001
1.8727194e-001
1.7066599e-001
1.5640518e-001
1.6660200e-001
1.7749235e-001
1.7095628e-001
1.6083880e-001
1.3976698e-001
1.1849043e-001
1.0048252e-001
8.0154873e-002
5.3019177e-002
3.0082140e-002
1.6354499e-002
1.8612675e-002
4.2653508e-002
7.1186550e-002
1.0223512e-001
1.1971965e-001
1.2500355e-001
1.1704730e-001
1.0080654e-001
8.4156573e-002
6.7725174e-002
6.4952098e-002
6.7819051e-002
8.3893850e-002
1.0399636e-001
1.2275629e-001
1.4118452e-001
1.6217276e-001
1.8334737e-001
2.0008045e-001
2.1202943e-001
1.9260131e-001
1.6575062e-001
1.2577468e-001
8.9146830e-002
6.8485916e-002
5.7448812e-002
6.2581725e-002
7.5593762e-002
9.7888425e-002
1.1727714e-001
1.3121121e-001
1.3034211e-001
1.1496206e-001
9.5121324e-002
7.3054403e-002
6.3634902e-002
6.2673442e-002
6.6367090e-002
7.2073169e-002
6.3264474e-002
4.8384137e-002
2.5923280e-002
1.3083718e-003
-8.7048905e-003
-1.4814693e-002
-2.2643829e-002
-3.2865103e-002
-6.8164535e-002
-1.0884907e-001
-1.5208143e-001
-1.8935888e-001
-2.0228481e-001
-2.0153213e-001
-1.7665583e-001
-1.4504857e-001
-1.0888980e-001
-7.8978941e-002
-6.1014749e-002
-5.1649019e-002
-5.1268071e-002
-5.4627616e-002
-5.9780080e-002
-7.1055070e-002
-8.6104862e-002
-1.0710716e-001
-1.3094856e-001
-1.4868139e-001
-1.6265646e-001
-1.7490309e-001
-1.8719199e-001
-2.1242130e-001
-2.4291925e-001
-2.7654484e-001
-3.1103435e-001
-3.4006459e-001
-3.6736435e-001
-3.8937140e-001
-4.0816450e-001
-4.1488945e-001
-4.1678357e-001
-4.1079217e-001
-4.0275800e-001
-3.9826718e-001
-3.9469200e-001
-3.9617345e-001
-4.0030161e-001
-4.0631112e-001
-4.1164690e-001
-4.1367653e-001
-4.0922657e-001
-3.9825889e-001
-3.8639233e-001
-3.7396029e-001
-3.8153091e-001
-4.0203050e-001
-4.4867632e-001
-5.0932246e-001
-5.5586278e-001
-5.9589976e-001
-5.9817868e-001
-5.8736843e-001
-5.6762087e-001
-5.4824245e-001
-5.4141569e-001
-5.4091501e-001
-5.5590403e-001
-5.7267749e-001
-5.9351313e-001
-6.0983628e-001
-6.1458433e-001
-6.1445099e-001
-6.0617441e-001
-6.0388392e-001
-6.0957170e-001
-6.1890918e-001
-6.2682480e-001
-6.1400694e-001
-5.8208913e-001
-5.3816867e-001
-4.9286813e-001
-4.5581716e-001
-4.2486823e-001
-4.0206218e-001
-3.8217020e-001
-3.8439929e-001
-3.9939681e-001
-4.1165811e-001
-4.2347237e-001
-3.8783905e-001
-3.3382857e-001
-2.7384365e-001
-2.1865806e-001
-2.1898121e-001
-2.4677806e-001
-3.0979422e-001
-3.7846839e-001
-4.2618904e-001
-4.5873776e-001
-4.6949816e-001
-4.7717398e-001
-4.8426747e-001
-4.8443869e-001
-4.6928695e-001
-4.3088013e-001
-3.7991077e-001
-3.4619749e-001
-3.4399450e-001
-3.7950701e-001
-4.3773687e-001
-5.0602597e-001
-5.7373339e-001
-6.3944763e-001
-6.9980735e-001
-7.5297636e-001
-7.9752535e-001
-8.0841488e-001
-7.9727674e-001
-7.4987841e-001
-6.8877727e-001
-6.2729031e-001
-5.7070690e-001
-5.1295614e-001
-4.4995251e-001
-3.7841150e-001
-3.0682328e-001
-2.6593661e-001
-2.5820783e-001
-2.9258519e-001
-3.4699854e-001
-3.9669773e-001
-4.3630442e-001
-4.5880291e-001
-4.6553019e-001
-4.6274927e-001
-4.3922150e-001
-3.9802110e-001
-3.7283352e-001
-3.6218646e-001
-3.9169085e-001
-4.4942501e-001
-4.6082020e-001
-4.4156998e-001
-3.5429135e-001
-2.3361857e-001
-1.4735964e-001
-8.9123480e-002
-7.2328657e-002
-8.1333727e-002
-8.9770183e-002
-9.3414031e-002
-7.5916126e-002
-4.0562533e-002
-8.6564254e-003
1.9402497e-002
2.8318150e-002
2.7316419e-002
3.8735632e-002
1.7513417e-002
-5.7160452e-002
-1.4013845e-001
-2.0471157e-001
-2.4251485e-001
-2.4905080e-001
-2.5109217e-001
-2.6308680e-001
-3.0488589e-001
-3.8366133e-001
-4.4397372e-001
-4.7843632e-001
-4.0434000e-001
-2.4231513e-001
-6.9704399e-002
9.5125198e-002
1.1459409e-001
2.9450711e-002
-4.7144592e-002
-9.4425738e-002
1.2716793e-002
2.6836246e-001
7.2967142e-001
1.3153991e+000
1.8701720e+000
2.3897822e+000
2.8906460e+000
3.5135880e+000
4.4071212e+000
5.8207870e+000
7.8760004e+000
1.0833928e+001
1.4669286e+001
1.8661301e+001
2.2462730e+001
2.5867903e+001
2.8914738e+001
3.2475685e+001
3.6646469e+001
4.1694386e+001
4.7434681e+001
5.2461185e+001
5.6805500e+001
6.0933189e+001
6.4997093e+001
6.9898720e+001
7.5450317e+001
8.1099106e+001
8.6673042e+001
9.1651291e+001
9.5989349e+001
9.9557739e+001
1.0232714e+002
1.0426590e+002
1.0531260e+002
1.0544688e+002
1.0453800e+002
1.0252928e+002
9.9863617e+001
9.6972626e+001
9.3763954e+001
9.0252579e+001
8.6028488e+001
8.1003754e+001
7.5887375e+001
7.0926605e+001
6.6318741e+001
6.2069088e+001
5.7728802e+001
5.3243465e+001
4.8887383e+001
4.4682705e+001
4.0815399e+001
3.7299923e+001
3.4236790e+001
3.1628601e+001
2.9425343e+001
2.7608458e+001
2.6046631e+001
2.4753798e+001
2.3710995e+001
2.2924000e+001
2.2361500e+001
2.2016378e+001
2.1845222e+001
2.1826820e+001
2.1917694e+001
2.2094965e+001
2.2335703e+001
2.2627821e+001
2.2965397e+001
2.3405237e+001
2.3965458e+001
2.4698689e+001
2.5602989e+001
2.6612202e+001
2.7705561e+001
2.8820135e+001
2.9955990e+001
3.1303104e+001
3.2963421e+001
3.5569790e+001
3.9201244e+001
4.3211029e+001
4.7348114e+001
5.0546207e+001
5.2815971e+001
5.4691284e+001
5.6165005e+001
5.7348969e+001
5.8119762e+001
5.8300827e+001
5.7897144e+001
5.7021107e+001
5.5790619e+001
5.4423492e+001
5.2922810e+001
5.1296997e+001
4.9483269e+001
4.7426716e+001
4.5186852e+001
4.2749397e+001
4.0401543e+001
3.8251900e+001
3.6135082e+001
3.4051208e+001
3.1476837e+001
2.8268536e+001
2.5082012e+001
2.1975010e+001
1.9374592e+001
1.7334080e+001
1.5316572e+001
1.3319735e+001
1.1287326e+001
9.2365417e+000
7.2103539e+000
5.2744627e+000
3.5385060e+000
2.0815160e+000
9.9961519e-001
3.1675863e-001
5.1747344e-002
3.1123248e-001
1.0558864e+000
2.0137701e+000
3.0062406e+000
3.8445613e+000
4.4166250e+000
4.8736458e+000
5.2665644e+000
5.6788306e+000
6.1324201e+000
6.5367289e+000
6.8333921e+000
6.9910841e+000
6.9380517e+000
6.8112893e+000
6.5851483e+000
6.3280082e+000
6.0288644e+000
5.6741619e+000
5.2453485e+000
4.7118926e+000
4.0861669e+000
3.4597528e+000
2.8639259e+000
2.3889029e+000
2.0500059e+000
1.8527633e+000
1.8017111e+000
1.8753221e+000
2.0439827e+000
2.2758060e+000
2.5266292e+000
2.7918148e+000
3.0675645e+000
3.3641472e+000
3.6837740e+000
4.0253057e+000
4.3888402e+000
4.7800589e+000
5.1834712e+000
5.5943060e+000
5.9488583e+000
6.1786065e+000
6.2814474e+000
6.1780100e+000
5.9573970e+000
5.5773878e+000
5.1391296e+000
4.6378713e+000
4.1230602e+000
3.6213531e+000
3.1709521e+000
2.7850385e+000
2.4705937e+000
2.1794515e+000
1.8391520e+000
1.4506079e+000
1.0003176e+000
5.6958270e-001
2.5483984e-001
4.5263223e-002
-8.2964107e-005
3.7276641e-002
1.5783188e-001
3.0885750e-001
5.0041842e-001
7.0475543e-001
9.3109918e-001
1.1575629e+000
1.3763171e+000
1.5938245e+000
1.7847943e+000
1.9772950e+000
2.1709309e+000
2.3750501e+000
2.6080129e+000
2.8592870e+000
3.1444824e+000
3.4468791e+000
3.7676401e+000
4.0830851e+000
4.3765311e+000
4.6308346e+000
4.8336682e+000
4.9822621e+000
5.0839186e+000
5.1375270e+000
5.1587696e+000
5.1388998e+000
5.0967288e+000
5.0225000e+000
4.9419622e+000
4.8606167e+000
4.7924242e+000
4.7571969e+000
4.7349820e+000
4.7372165e+000
4.7401423e+000
4.7433910e+000
4.7467899e+000
4.7554779e+000
4.7730389e+000
4.8113971e+000
4.8691759e+000
4.9548059e+000
5.0594792e+000
5.1833324e+000
5.3122101e+000
5.4444332e+000
5.5722885e+000
5.6952834e+000
5.8136444e+000
5.9282222e+000
6.0410118e+000
6.1492000e+000
6.2404523e+000
6.3131557e+000
6.3420787e+000
6.3404069e+000
6.2787232e+000
6.1777906e+000
5.9866319e+000
5.7528424e+000
5.4109035e+000
5.0422869e+000
4.6054440e+000
4.1581588e+000
3.6865056e+000
3.2197909e+000
2.7662144e+000
2.3385866e+000
1.9589491e+000
1.6145834e+000
1.3222274e+000
1.0598433e+000
8.3371282e-001
6.2911910e-001
4.4791085e-001
2.8581172e-001
1.4422643e-001
3.0728333e-002
-5.8925267e-002
-1.1529700e-001
-1.5017763e-001
-1.5705356e-001
-1.4573422e-001
-9.7602218e-002
-2.3230843e-002
1.2550104e-001
3.0964801e-001
5.9713489e-001
9.0151650e-001
1.2448579e+000
1.5601662e+000
1.7840679e+000
1.9531360e+000
1.9854100e+000
1.9755965e+000
1.8827056e+000
1.7742928e+000
1.6404157e+000
1.4969840e+000
1.3374155e+000
1.1523012e+000
9.3722391e-001
7.0127165e-001
4.5353526e-001
2.3739839e-001
6.0240515e-002
-1.9311970e-002
-2.8571915e-002
6.4985678e-002
2.0756803e-001
4.0192303e-001
6.0987145e-001
8.1613398e-001
1.0141708e+000
1.1699359e+000
1.3126692e+000
1.4067929e+000
1.5003306e+000
1.5950731e+000
1.6932920e+000
1.8006248e+000
1.8912450e+000
1.9384423e+000
1.9598241e+000
1.9308960e+000
1.8920807e+000
1.8379858e+000
1.7788506e+000
1.7137120e+000
1.6497700e+000
1.5899868e+000
1.5525585e+000
1.5359460e+000
1.5445752e+000
1.5670217e+000
1.5794530e+000
1.5805601e+000
1.5320485e+000
1.4638468e+000
1.3712827e+000
1.2751012e+000
1.1932614e+000
1.1144960e+000
1.0455347e+000
9.8063076e-001
9.3879050e-001
9.0302342e-001
8.9348602e-001
8.8233387e-001
8.6604011e-001
8.4440887e-001
8.0909932e-001
7.6509845e-001
7.0322317e-001
6.2783384e-001
5.3389335e-001
4.5175201e-001
3.8523421e-001
3.3960143e-001
3.1023070e-001
2.5388062e-001
1.7603207e-001
6.4240627e-002
-6.3834406e-002
-1.7522720e-001
-2.7962518e-001
-3.7467143e-001
-4.6913439e-001
-5.8501643e-001
-7.0377374e-001
-8.1535476e-001
-9.2617053e-001
-1.0359548e+000
-1.1451181e+000
-1.2499309e+000
-1.3369849e+000
-1.3449429e+000
-1.3288001e+000
-1.2385857e+000
-1.1428285e+000
-1.0351044e+000
-9.3411398e-001
-8.4515637e-001
-7.7367043e-001
-7.2727060e-001
-7.2034025e-001
-7.5608087e-001
-8.2309902e-001
-9.1232902e-001
-9.5294982e-001
-9.5968086e-001
-8.9031249e-001
-7.8775007e-001
-7.0983273e-001
-6.4179230e-001
-6.0723633e-001
-5.7659286e-001
-4.6744323e-001
-3.4781921e-001
-2.0159294e-001
-6.1273161e-002
-2.0193107e-002
4.5020599e-004
1.2570113e-002
-1.2959689e-003
8.3099112e-002
1.8173228e-001
3.2202536e-001
4.5147884e-001
5.5763316e-001
6.5530866e-001
7.3918051e-001
8.0493242e-001
8.4812039e-001
8.4469563e-001
7.9764265e-001
7.3794514e-001
6.6979730e-001
6.5516478e-001
6.6995573e-001
7.2359103e-001
7.9343832e-001
8.3930314e-001
8.7987739e-001
8.8157809e-001
8.7735868e-001
8.3449000e-001
