Image.
>Pix99999.
  .
5555
5555
2300
900
5555
2
1
0
701
5555
-1.8681999e-002
-1.9079432e-002
-1.9475866e-002
-1.9873293e-002
-2.0269731e-002
-2.0667158e-002
-2.1063598e-002
-2.1461019e-002
-2.1857463e-002
-2.2254884e-002
-2.2651328e-002
-2.3047762e-002
-2.3445178e-002
-2.3843590e-002
-2.4239080e-002
-2.4630599e-002
-2.5032789e-002
-2.5449848e-002
-2.5827305e-002
-2.6151232e-002
-2.6618514e-002
-2.7289661e-002
-2.7423324e-002
-2.6801258e-002
-2.8172560e-002
-2.8867109e-002
-1.0730943e-003
8.0228329e-002
2.0048347e-001
3.3438373e-001
4.5858827e-001
5.5484575e-001
6.2286353e-001
6.6808397e-001
6.9821811e-001
7.1988499e-001
7.3280716e-001
7.3530638e-001
7.2818470e-001
7.1404958e-001
6.9955915e-001
6.9161278e-001
6.9314402e-001
7.0739549e-001
7.4364090e-001
8.1115443e-001
9.1174001e-001
1.0394915e+000
1.1663983e+000
1.2618690e+000
1.3102787e+000
1.3092351e+000
1.2896452e+000
1.2891166e+000
1.3304517e+000
1.4245685e+000
1.5524520e+000
1.6854374e+000
1.7937006e+000
1.8524064e+000
1.8561771e+000
1.8122828e+000
1.7523205e+000
1.7114100e+000
1.7074457e+000
1.7455000e+000
1.8036523e+000
1.8550569e+000
1.8891525e+000
1.9033875e+000
1.9055899e+000
1.9060595e+000
1.9119315e+000
1.9281853e+000
1.9579911e+000
2.0020144e+000
2.0537891e+000
2.1056910e+000
2.1554732e+000
2.2033167e+000
2.2517457e+000
2.3029292e+000
2.3545437e+000
2.4039664e+000
2.4527440e+000
2.5029678e+000
2.5522554e+000
2.5966561e+000
2.6308639e+000
2.6524570e+000
2.6715572e+000
2.7000132e+000
2.7392509e+000
2.7831011e+000
2.8122878e+000
2.8086400e+000
2.7774727e+000
2.7352278e+000
2.7043459e+000
2.7044213e+000
2.7338998e+000
2.7828548e+000
2.8413863e+000
2.9001627e+000
2.9528189e+000
2.9933951e+000
3.0153229e+000
3.0137103e+000
2.9937024e+000
2.9658847e+000
2.9472401e+000
2.9549494e+000
2.9973879e+000
3.0747855e+000
3.1696539e+000
3.2590427e+000
3.3268108e+000
3.3652174e+000
3.3875117e+000
3.4127290e+000
3.4465315e+000
3.4858510e+000
3.5155897e+000
3.5194933e+000
3.4949434e+000
3.4482179e+000
3.3953300e+000
3.3551674e+000
3.3410459e+000
3.3597114e+000
3.4020829e+000
3.4539442e+000
3.5082850e+000
3.5633929e+000
3.6265380e+000
3.7051051e+000
3.7915611e+000
3.8709321e+000
3.9257610e+000
3.9429531e+000
3.9299200e+000
3.9032810e+000
3.8790860e+000
3.8677158e+000
3.8586130e+000
3.8354514e+000
3.7962644e+000
3.7475841e+000
3.6997006e+000
3.6615989e+000
3.6311357e+000
3.6019988e+000
3.5734670e+000
3.5484676e+000
3.5327480e+000
3.5320580e+000
3.5472326e+000
3.5754471e+000
3.6079514e+000
3.6342578e+000
3.6471286e+000
3.6422930e+000
3.6223693e+000
3.5936022e+000
3.5636053e+000
3.5403206e+000
3.5298836e+000
3.5348244e+000
3.5460961e+000
3.5498345e+000
3.5357144e+000
3.4997377e+000
3.4537714e+000
3.4146209e+000
3.3838837e+000
3.3532250e+000
3.3073726e+000
3.2331848e+000
3.1398420e+000
3.0477421e+000
2.9729714e+000
2.9254429e+000
2.9025941e+000
2.8964276e+000
2.9044983e+000
2.9280529e+000
2.9697645e+000
3.0298357e+000
3.0954742e+000
3.1477289e+000
3.1714284e+000
3.1579759e+000
3.1156223e+000
3.0621917e+000
3.0176520e+000
2.9982479e+000
3.0021560e+000
3.0158942e+000
3.0190525e+000
2.9924765e+000
2.9360285e+000
2.8603575e+000
2.7751923e+000
2.6878040e+000
2.6020296e+000
2.5212650e+000
2.4549103e+000
2.4152784e+000
2.4099252e+000
2.4382946e+000
2.4781201e+000
2.4962378e+000
2.4671497e+000
2.3797238e+000
2.2626584e+000
2.1633587e+000
2.1096256e+000
2.1071460e+000
2.1265173e+000
2.1239860e+000
2.0812314e+000
1.9994825e+000
1.8904837e+000
1.7693073e+000
1.6451041e+000
1.5256037e+000
1.4307492e+000
1.3842422e+000
1.3916548e+000
1.4423591e+000
1.5086900e+000
1.5577329e+000
1.5757136e+000
1.5642234e+000
1.5338002e+000
1.4987500e+000
1.4716216e+000
1.4614849e+000
1.4698039e+000
1.4904399e+000
1.5058943e+000
1.4944218e+000
1.4445912e+000
1.3566920e+000
1.2480235e+000
1.1420400e+000
1.0439372e+000
9.4591284e-001
8.4220123e-001
7.3294342e-001
6.3121068e-001
5.5629772e-001
5.1786160e-001
5.1673335e-001
5.4803741e-001
6.0150558e-001
6.5590882e-001
6.8550450e-001
6.7678094e-001
6.2901044e-001
5.5681372e-001
4.8267367e-001
4.2133301e-001
3.7708321e-001
3.3699536e-001
2.8163180e-001
2.1396080e-001
1.4540416e-001
4.5778230e-002
-1.3286498e-001
-3.7178171e-001
-6.0750031e-001
-8.1304932e-001
-9.9336928e-001
-1.1446655e+000
-1.2546571e+000
-1.3236297e+000
-1.3620409e+000
-1.3776611e+000
-1.3714583e+000
-1.3293400e+000
-1.2313764e+000
-1.0809426e+000
-9.0122741e-001
-7.1851015e-001
-5.5348670e-001
-4.0328494e-001
-2.4361750e-001
-3.3957422e-002
2.7477056e-001
7.2539580e-001
1.3356124e+000
2.0348840e+000
2.7071679e+000
3.3429499e+000
4.0405035e+000
4.9620237e+000
6.3217402e+000
8.4084978e+000
1.1464796e+001
1.5259001e+001
1.9193741e+001
2.2790457e+001
2.5819448e+001
2.8489252e+001
3.1322887e+001
3.4744339e+001
3.8922588e+001
4.3452080e+001
4.7581390e+001
5.1087414e+001
5.4283165e+001
5.7585079e+001
6.1335064e+001
6.5496834e+001
6.9728050e+001
7.3755074e+001
7.7431450e+001
8.0680428e+001
8.3481140e+001
8.5888512e+001
8.8011688e+001
8.9941322e+001
9.1702957e+001
9.3134781e+001
9.3960426e+001
9.4125023e+001
9.3785393e+001
9.3046616e+001
9.1910034e+001
9.0283943e+001
8.8039879e+001
8.5193085e+001
8.1886620e+001
7.8212044e+001
7.4190170e+001
6.9848160e+001
6.5249527e+001
6.0544704e+001
5.5950863e+001
5.1641254e+001
4.7724300e+001
4.4256390e+001
4.1243530e+001
3.8629032e+001
3.6314327e+001
3.4240788e+001
3.2402618e+001
3.0816336e+001
2.9504826e+001
2.8459999e+001
2.7638035e+001
2.6990633e+001
2.6475964e+001
2.6076944e+001
2.5800514e+001
2.5648771e+001
2.5617210e+001
2.5717989e+001
2.5982885e+001
2.6449686e+001
2.7150957e+001
2.8077309e+001
2.9173790e+001
3.0375681e+001
3.1620649e+001
3.2862316e+001
3.4110683e+001
3.5574223e+001
3.7597168e+001
4.0202499e+001
4.3021702e+001
4.5591061e+001
4.7500832e+001
4.8705803e+001
4.9524429e+001
5.0182938e+001
5.0715641e+001
5.1101620e+001
5.1300064e+001
5.1255402e+001
5.0914761e+001
5.0299282e+001
4.9503372e+001
4.8576218e+001
4.7497700e+001
4.6231178e+001
4.4749439e+001
4.3090805e+001
4.1363941e+001
3.9670399e+001
3.8061813e+001
3.6449162e+001
3.4602421e+001
3.2341026e+001
2.9618572e+001
2.6603743e+001
2.3658463e+001
2.1011961e+001
1.8672310e+001
1.6557999e+001
1.4542006e+001
1.2538314e+001
1.0529234e+001
8.5296907e+000
6.5841079e+000
4.7798500e+000
3.2347429e+000
1.9981995e+000
1.0412071e+000
4.0275228e-001
2.0668595e-001
4.7652856e-001
1.0837562e+000
1.8673174e+000
2.6781452e+000
3.4325161e+000
4.1284413e+000
4.7827797e+000
5.4111023e+000
6.0132999e+000
6.5649323e+000
7.0162573e+000
7.3003263e+000
7.3954582e+000
7.3442569e+000
7.1975765e+000
6.9932561e+000
6.7367840e+000
6.3943295e+000
5.9265471e+000
5.3079896e+000
4.5682650e+000
3.8044479e+000
3.1064699e+000
2.5300550e+000
2.1018424e+000
1.8199121e+000
1.6844409e+000
1.7045666e+000
1.8758428e+000
2.1719730e+000
2.5609655e+000
3.0116715e+000
3.5048423e+000
4.0353312e+000
4.5850916e+000
5.1136107e+000
5.5793324e+000
5.9508605e+000
6.2231998e+000
6.4249716e+000
6.5795650e+000
6.6895404e+000
6.7403893e+000
6.7015700e+000
6.5547342e+000
6.3054609e+000
5.9666219e+000
5.5546384e+000
5.0886054e+000
4.5911517e+000
4.0892563e+000
3.6107841e+000
3.1577475e+000
2.6944692e+000
2.1876814e+000
1.6283150e+000
1.0526538e+000
5.5361176e-001
2.0276093e-001
1.4944181e-002
-2.6117111e-002
3.5904914e-002
1.6217053e-001
3.3118677e-001
5.2466679e-001
7.2371221e-001
9.1231227e-001
1.0800256e+000
1.2217286e+000
1.3384796e+000
1.4290442e+000
1.4874090e+000
1.5133920e+000
1.5189543e+000
1.5234748e+000
1.5527093e+000
1.6247274e+000
1.7408262e+000
1.8891300e+000
2.0423164e+000
2.1746182e+000
2.2704327e+000
2.3238573e+000
2.3424656e+000
2.3365669e+000
2.3163791e+000
2.2938521e+000
2.2836802e+000
2.3004143e+000
2.3571837e+000
2.4625111e+000
2.6166649e+000
2.8145640e+000
3.0438943e+000
3.2884278e+000
3.5280218e+000
3.7466376e+000
3.9378040e+000
4.1046686e+000
4.2632098e+000
4.4336581e+000
4.6380210e+000
4.8930106e+000
5.2045422e+000
5.5715628e+000
5.9843946e+000
6.4331980e+000
6.9117012e+000
7.4169860e+000
7.9505329e+000
8.5160189e+000
9.1190376e+000
9.7620344e+000
1.0440001e+001
1.1140988e+001
1.1844271e+001
1.2526206e+001
1.3160174e+001
1.3716086e+001
1.4159120e+001
1.4452160e+001
1.4562741e+001
1.4472611e+001
1.4187821e+001
1.3728051e+001
1.3127027e+001
1.2426661e+001
1.1676430e+001
1.0923314e+001
1.0196817e+001
9.5180168e+000
8.8936777e+000
8.3259563e+000
7.8152838e+000
7.3529019e+000
6.9116483e+000
6.4573302e+000
5.9524508e+000
5.3749928e+000
4.7385116e+000
4.0736222e+000
3.4289420e+000
2.8463717e+000
2.3439622e+000
1.9268039e+000
1.5846184e+000
1.3096945e+000
1.1065005e+000
9.7862601e-001
9.2005575e-001
9.1384369e-001
9.2519712e-001
9.2384863e-001
8.9972955e-001
8.5325235e-001
7.9678512e-001
7.3929626e-001
6.7584932e-001
5.9961826e-001
5.0738364e-001
4.0052933e-001
2.8880498e-001
1.8278740e-001
9.0545177e-002
2.1158144e-002
-1.3478669e-002
-8.5847434e-003
2.3132987e-002
7.1212709e-002
1.4015140e-001
2.3653503e-001
3.6360389e-001
5.2531993e-001
7.2856498e-001
9.7532392e-001
1.2535341e+000
1.5437640e+000
1.8177377e+000
2.0533957e+000
2.2497470e+000
2.4179337e+000
2.5854454e+000
2.7782562e+000
3.0091500e+000
3.2794681e+000
3.5716281e+000
3.8668737e+000
4.1561909e+000
4.4411860e+000
4.7434506e+000
5.0838342e+000
5.4662852e+000
5.8775864e+000
6.2713094e+000
6.6028442e+000
6.8544812e+000
7.0255504e+000
7.1421432e+000
7.2305284e+000
7.2997231e+000
7.3574042e+000
7.4181466e+000
7.4947753e+000
7.5894985e+000
7.6915679e+000
7.7621975e+000
7.7611780e+000
7.6643333e+000
7.4652543e+000
7.1955442e+000
6.8988776e+000
6.6248116e+000
6.4107113e+000
6.2534857e+000
6.1349339e+000
6.0212693e+000
5.8825684e+000
5.7107491e+000
5.5040102e+000
5.2631083e+000
4.9882479e+000
4.6783242e+000
4.3390751e+000
3.9978671e+000
3.6810961e+000
3.3964078e+000
3.1376412e+000
2.8727062e+000
2.5787058e+000
2.2789507e+000
2.0028164e+000
1.7608662e+000
1.5455761e+000
1.3081586e+000
1.0097163e+000
6.7458379e-001
3.4078497e-001
3.9880931e-002
-2.0856142e-001
-4.1794029e-001
-6.0731870e-001
-7.8772879e-001
-9.6295893e-001
-1.1196814e+000
-1.2381023e+000
-1.2915739e+000
-1.2582520e+000
-1.1380213e+000
-9.4100142e-001
-6.9282711e-001
-4.2351893e-001
-1.6463163e-001
5.6469738e-002
2.2785899e-001
3.4362635e-001
4.0524703e-001
4.1504440e-001
3.7205407e-001
2.7953801e-001
1.5823682e-001
3.6193520e-002
-4.8712805e-002
-6.8042830e-002
-3.5152640e-002
3.0821137e-002
1.2687418e-001
2.4645731e-001
3.5603151e-001
4.2491657e-001
4.5703468e-001
4.6714947e-001
4.7815683e-001
5.1164842e-001
5.7695472e-001
6.7535383e-001
7.8924525e-001
8.9540458e-001
9.6713573e-001
9.9088758e-001
1.0065725e+000
1.0593989e+000
1.1646221e+000
1.3165257e+000
1.4588764e+000
1.5391731e+000
1.5693194e+000
1.5737728e+000
1.5642782e+000
1.5491000e+000
