Image.
>Pix99999.
  .
5555
5555
2300
900
5555
2
1
0
701
5555
-1.3735000e-002
-1.4020591e-002
-1.4306183e-002
-1.4591774e-002
-1.4877366e-002
-1.5163951e-002
-1.5449549e-002
-1.5735140e-002
-1.6020730e-002
-1.6306324e-002
-1.6591914e-002
-1.6877506e-002
-1.7164081e-002
-1.7449688e-002
-1.7735280e-002
-1.8020872e-002
-1.8306462e-002
-1.8592054e-002
-1.8877646e-002
-1.9164210e-002
-1.9449828e-002
-1.9735420e-002
-2.0021010e-002
-2.0306602e-002
-2.0592196e-002
-2.0877786e-002
-7.7584002e-004
2.0175578e-002
3.6925800e-002
2.6992993e-002
1.3183814e-002
1.1209771e-002
1.0051625e-002
7.8766150e-003
3.5624802e-003
-1.7261321e-002
-3.5823427e-002
-4.0079370e-002
-3.6863212e-002
-1.3154341e-002
1.5647516e-002
5.3039983e-002
8.7512523e-002
1.1637566e-001
1.2934759e-001
1.2291371e-001
1.0821886e-001
8.6743787e-002
7.6743707e-002
7.5640768e-002
7.7071212e-002
7.9633512e-002
6.3965738e-002
4.0280920e-002
2.0860881e-002
2.9918752e-003
2.2777880e-002
5.1194273e-002
8.2988448e-002
1.1473291e-001
1.0726143e-001
9.5574796e-002
7.7160850e-002
6.1550729e-002
6.5765344e-002
7.0346646e-002
6.9297083e-002
6.3783489e-002
4.8254754e-002
3.5461880e-002
2.9744400e-002
2.2737546e-002
1.2801902e-002
5.4105381e-003
1.2423380e-003
2.0099480e-002
5.9035342e-002
1.0762576e-001
1.6150714e-001
2.0803373e-001
2.5024715e-001
2.9407123e-001
3.3865255e-001
3.5564828e-001
3.6380360e-001
3.1307516e-001
2.4883801e-001
1.8882257e-001
1.3335429e-001
1.4824396e-001
1.7758900e-001
2.3952250e-001
2.9968894e-001
3.3085817e-001
3.4710541e-001
3.3113608e-001
3.0856919e-001
2.8203359e-001
2.5999498e-001
2.4655402e-001
2.4087000e-001
2.4380399e-001
2.5475541e-001
2.7273282e-001
3.0045131e-001
3.3517900e-001
3.6348537e-001
3.8683555e-001
3.8058427e-001
3.5921413e-001
3.4635386e-001
3.3783126e-001
3.6827680e-001
4.1123390e-001
4.3296489e-001
4.4857973e-001
4.1780201e-001
3.7886679e-001
3.4613180e-001
3.1962010e-001
3.2058287e-001
3.3085302e-001
3.5596430e-001
3.8186279e-001
4.0328261e-001
4.1486502e-001
4.0956259e-001
3.9908120e-001
3.8481015e-001
3.7894395e-001
3.8299543e-001
3.9233050e-001
4.0520862e-001
4.1453159e-001
4.2119783e-001
4.3198887e-001
4.4614011e-001
4.7247711e-001
5.0516599e-001
5.2978206e-001
5.5021602e-001
5.4942656e-001
5.4091817e-001
5.3442895e-001
5.2937186e-001
5.4258591e-001
5.6004709e-001
5.7683933e-001
5.8667225e-001
5.7021064e-001
5.4225498e-001
5.0157124e-001
4.6912530e-001
4.5941329e-001
4.7269940e-001
5.1256317e-001
5.5693871e-001
5.9893215e-001
6.2148029e-001
6.2430435e-001
6.2095284e-001
6.1677754e-001
6.3474530e-001
6.7047596e-001
7.0392442e-001
7.3371005e-001
7.1975875e-001
6.8203855e-001
6.3393080e-001
5.8224773e-001
5.6597787e-001
5.6281251e-001
5.8249050e-001
6.0754746e-001
6.2863612e-001
6.4763498e-001
6.5983313e-001
6.7570400e-001
7.0054072e-001
7.3043120e-001
7.6360685e-001
7.8984290e-001
8.0425757e-001
8.0299968e-001
7.8631276e-001
7.5770026e-001
7.2165805e-001
6.9198209e-001
6.6901380e-001
6.6077906e-001
6.6024429e-001
6.6653162e-001
6.7703331e-001
6.8260705e-001
6.8573302e-001
6.7662871e-001
6.6033399e-001
6.5395945e-001
6.5141654e-001
6.6438454e-001
6.8216139e-001
6.9188040e-001
6.9770151e-001
6.9258469e-001
6.8236750e-001
6.6154778e-001
6.3540679e-001
6.0358202e-001
5.6816494e-001
5.3238094e-001
4.8680800e-001
4.3036184e-001
3.6356938e-001
2.9068017e-001
2.3405612e-001
1.9183378e-001
1.7199525e-001
1.6393460e-001
1.5921211e-001
1.5777637e-001
1.4912599e-001
1.3775130e-001
1.0431413e-001
5.9668288e-002
-1.5552398e-003
-6.7665249e-002
-1.0812781e-001
-1.3136944e-001
-1.3223439e-001
-1.2659727e-001
-1.3308243e-001
-1.4833340e-001
-1.5848960e-001
-1.5839833e-001
-1.3631991e-001
-9.6995316e-002
-5.3129718e-002
-1.5308707e-002
6.8424880e-003
8.7569123e-003
-5.1422743e-003
-3.4061160e-002
-7.2375536e-002
-1.0384657e-001
-1.2527309e-001
-1.2772350e-001
-1.1430377e-001
-1.2412971e-001
-1.5562308e-001
-2.1642922e-001
-2.9578501e-001
-3.1425834e-001
-2.9172719e-001
-2.0442295e-001
-8.5080333e-002
-5.2943993e-003
4.4620335e-002
5.5076662e-002
4.1333534e-002
2.7273159e-002
1.5307942e-002
1.4546067e-002
2.7205454e-002
4.3907508e-002
6.1677840e-002
6.6409670e-002
5.9409160e-002
5.2526165e-002
1.9299828e-002
-5.0364200e-002
-1.1995251e-001
-1.6879199e-001
-2.0559205e-001
-2.3152550e-001
-2.6695004e-001
-3.1964856e-001
-3.9391658e-001
-4.9313959e-001
-5.8226061e-001
-6.5554988e-001
-6.5391397e-001
-5.9064716e-001
-4.6379423e-001
-3.0142513e-001
-1.9496298e-001
-1.3700444e-001
-1.0743480e-001
-8.6308993e-002
-9.1446079e-003
1.3521442e-001
4.6193984e-001
9.2798293e-001
1.4338931e+000
1.9434772e+000
2.4315939e+000
3.0276015e+000
3.8652325e+000
5.2143712e+000
7.2132759e+000
1.0114916e+001
1.3897285e+001
1.7815290e+001
2.1514757e+001
2.4802010e+001
2.7716669e+001
3.1136429e+001
3.5160606e+001
4.0080505e+001
4.5714001e+001
5.0663902e+001
5.4954529e+001
5.8971943e+001
6.2871864e+001
6.7533524e+001
7.2787437e+001
7.8139297e+001
8.3426437e+001
8.8153542e+001
9.2322861e+001
9.5909134e+001
9.8971489e+001
1.0162567e+002
1.0365260e+002
1.0480700e+002
1.0464657e+002
1.0284250e+002
1.0015682e+002
9.7294731e+001
9.4204079e+001
9.0907486e+001
8.6862915e+001
8.1929016e+001
7.6816040e+001
7.1786560e+001
6.7148148e+001
6.2924294e+001
5.8679359e+001
5.4350437e+001
5.0144817e+001
4.6079357e+001
4.2327770e+001
3.8903030e+001
3.5889462e+001
3.3285030e+001
3.1025959e+001
2.9100136e+001
2.7406281e+001
2.5974241e+001
2.4821234e+001
2.3949389e+001
2.3317001e+001
2.2903486e+001
2.2647989e+001
2.2540684e+001
2.2549644e+001
2.2650000e+001
2.2816338e+001
2.3014471e+001
2.3226463e+001
2.3524628e+001
2.3935143e+001
2.4549490e+001
2.5379602e+001
2.6344130e+001
2.7418360e+001
2.8490679e+001
2.9552248e+001
3.0764914e+001
3.2226566e+001
3.4617142e+001
3.8038502e+001
4.2004139e+001
4.6261559e+001
4.9617901e+001
5.2078922e+001
5.4133823e+001
5.5829845e+001
5.7390839e+001
5.8617260e+001
5.9197498e+001
5.9057686e+001
5.8226574e+001
5.6994598e+001
5.5749191e+001
5.4425617e+001
5.2974499e+001
5.1226456e+001
4.9064171e+001
4.6660526e+001
4.4056091e+001
4.1626286e+001
3.9515827e+001
3.7450241e+001
3.5403561e+001
3.2823483e+001
2.9555086e+001
2.6309996e+001
2.3148771e+001
2.0482941e+001
1.8361099e+001
1.6239285e+001
1.4115342e+001
1.1961943e+001
9.8036413e+000
7.6986551e+000
5.7097650e+000
3.9295859e+000
2.4252625e+000
1.2653098e+000
4.7174338e-001
8.2363613e-002
2.5007746e-001
9.5030975e-001
1.8968079e+000
2.9249797e+000
3.8064179e+000
4.3988862e+000
4.8501959e+000
5.2017994e+000
5.5781908e+000
6.0176401e+000
6.4476051e+000
6.8314390e+000
7.0625472e+000
7.0587626e+000
6.9593716e+000
6.7313089e+000
6.4730554e+000
6.1712542e+000
5.8088450e+000
5.3649101e+000
4.8182964e+000
4.1859026e+000
3.5723295e+000
3.0063381e+000
2.5571237e+000
2.2364395e+000
2.0427332e+000
1.9916903e+000
2.0821300e+000
2.2841656e+000
2.5692339e+000
2.8740451e+000
3.1717603e+000
3.4618070e+000
3.7481992e+000
4.0424953e+000
4.3432221e+000
4.6434560e+000
4.9356546e+000
5.2251215e+000
5.5037274e+000
5.7660971e+000
5.9774661e+000
6.1057897e+000
6.0906701e+000
5.9548478e+000
5.6505284e+000
5.2676539e+000
4.7968493e+000
4.3061800e+000
3.8183990e+000
3.3753359e+000
2.9834189e+000
2.6382840e+000
2.2972822e+000
1.8965211e+000
1.4514911e+000
9.7291964e-001
5.3425759e-001
2.3007619e-001
3.5717383e-002
-2.9468308e-003
3.3219829e-002
1.3586864e-001
2.5450286e-001
4.0673840e-001
5.6275731e-001
7.2222072e-001
8.8445228e-001
1.0474206e+000
1.2159756e+000
1.3757203e+000
1.5410160e+000
1.7156332e+000
1.9076686e+000
2.1349926e+000
2.3796353e+000
2.6554172e+000
2.9490266e+000
3.2645400e+000
3.5881760e+000
3.9001806e+000
4.1680832e+000
4.3773379e+000
4.5152926e+000
4.5978603e+000
4.6337647e+000
4.6405230e+000
4.6151519e+000
4.5743999e+000
4.5144048e+000
4.4584646e+000
4.4223537e+000
4.4040122e+000
4.4233074e+000
4.4481311e+000
4.4773750e+000
4.4989519e+000
4.5023274e+000
4.5027113e+000
4.5016971e+000
4.5077372e+000
4.5322046e+000
4.5815105e+000
4.6685729e+000
4.7863235e+000
4.9345593e+000
5.0779400e+000
5.2131472e+000
5.3342113e+000
5.4515953e+000
5.5963182e+000
5.7631221e+000
5.9492064e+000
6.1316252e+000
6.2657084e+000
6.3571072e+000
6.3644686e+000
6.3306828e+000
6.2382917e+000
6.1229787e+000
5.9698000e+000
5.7873082e+000
5.5220180e+000
5.2111888e+000
4.7758894e+000
4.3102555e+000
3.7748561e+000
3.2457600e+000
2.7328429e+000
2.2474802e+000
1.8125800e+000
1.4137617e+000
1.0703962e+000
7.6970941e-001
5.2272999e-001
3.1404781e-001
1.4474419e-001
-9.7155571e-006
-1.2318957e-001
-2.3018724e-001
-3.2047525e-001
-3.7906650e-001
-4.1299054e-001
-4.0275356e-001
-3.6838326e-001
-2.9438126e-001
-1.9559102e-001
-3.1275555e-002
1.6317999e-001
4.4423014e-001
7.3403227e-001
1.0352120e+000
1.3041229e+000
1.4702307e+000
1.5915756e+000
1.6031860e+000
1.5928943e+000
1.5389848e+000
1.4718314e+000
1.3810395e+000
1.2699034e+000
1.1302963e+000
9.7264260e-001
7.9436827e-001
6.0430235e-001
4.0643018e-001
2.2070169e-001
5.4347113e-002
-5.1672317e-002
-1.0872857e-001
-6.1205607e-002
3.8251847e-002
2.0105840e-001
3.7719750e-001
5.3345042e-001
6.7632234e-001
7.6679599e-001
8.4478188e-001
8.8150758e-001
9.1470069e-001
9.3649679e-001
9.6373934e-001
1.0086806e+000
1.0611451e+000
1.1304086e+000
1.1916833e+000
1.2348176e+000
1.2552233e+000
1.2420000e+000
1.2322222e+000
1.2298380e+000
1.2499646e+000
1.2894892e+000
1.3146544e+000
1.3253678e+000
1.3102010e+000
1.2782514e+000
1.2329440e+000
1.1762629e+000
1.0800893e+000
9.6629727e-001
8.1993997e-001
6.7031008e-001
5.5079126e-001
4.4382200e-001
4.0130633e-001
3.6921099e-001
3.8366315e-001
4.0025115e-001
4.2528787e-001
4.3952826e-001
4.1820160e-001
3.7564027e-001
2.8132394e-001
1.7471743e-001
4.4948459e-002
-8.6363897e-002
-2.2033054e-001
-3.5576800e-001
-4.9299324e-001
-6.3361025e-001
-7.7659488e-001
-9.1741586e-001
-1.0529692e+000
-1.1518052e+000
-1.2275051e+000
-1.2603880e+000
-1.2767022e+000
-1.2880743e+000
-1.2977118e+000
-1.3013072e+000
-1.3037953e+000
-1.3061841e+000
-1.3098478e+000
-1.3295583e+000
-1.3501761e+000
-1.3763057e+000
-1.4037626e+000
-1.4370071e+000
-1.4617440e+000
-1.4600263e+000
-1.4434025e+000
-1.3927499e+000
-1.3400358e+000
-1.2825011e+000
-1.2148813e+000
-1.1331420e+000
-1.0488143e+000
-9.6387112e-001
-9.0940410e-001
-8.7930888e-001
-8.5138392e-001
-8.2314128e-001
-7.7034795e-001
-7.0658702e-001
-6.4656603e-001
-5.8752191e-001
-5.1800734e-001
-4.4605443e-001
-3.6479503e-001
-2.8332520e-001
-2.2201934e-001
-1.5837103e-001
-5.1251784e-002
1.6975552e-003
5.2353419e-002
1.3679142e-001
1.6153410e-001
1.6081625e-001
8.6460739e-002
3.3655591e-002
2.8460249e-002
9.7100362e-002
2.8364986e-001
4.7577780e-001
6.7315006e-001
7.7757078e-001
7.9512787e-001
7.7811545e-001
7.3682040e-001
7.1601313e-001
7.0648372e-001
6.7784196e-001
6.4312083e-001
6.0829580e-001
5.7452726e-001
5.7857984e-001
5.8907521e-001
6.3463998e-001
