##TITLE=Methyl Ethyl Ketone
##JCAMP-DX=4.24
##DATA TYPE=INFRARED SPECTRUM
##XUNITS=cm-1
##YUNITS=Absorbance
##FIRSTX=900
##LASTX=2300
##XYDATA=(X++(Y..Y))
2296 0.044048999
2294 0.044965688
2292 0.045881379
2290 0.046798065
2288 0.047714755
2286 0.04863045
2284 0.049547132
2282 0.050463822
2280 0.05137952
2278 0.052296199
2276 0.053212889
2274 0.054129574
2272 0.055045281
2270 0.055961952
2268 0.056878641
2266 0.057794347
2264 0.058711015
2262 0.059627704
2260 0.060543418
2258 0.061460081
2256 0.062376771
2254 0.063292496
2252 0.064209148
2250 0.065125838
2248 0.066041559
2246 0.066958219
2244 0.037725918
2242 0.0014115985
2240 -0.03515232
2238 -0.041915026
2236 -0.044275559
2234 -0.049931344
2232 -0.056598935
2230 -0.080464438
2228 -0.1032084
2226 -0.11038049
2224 -0.10717132
2222 -0.060066119
2220 -0.0077738841
2218 0.053151544
2216 0.09465152
2214 0.092636898
2212 0.069942422
2210 0.017692989
2208 -0.038765252
2206 -0.098210789
2204 -0.1617602
2202 -0.22908644
2200 -0.28922698
2198 -0.34380969
2196 -0.37518859
2194 -0.39339593
2192 -0.40771258
2190 -0.42072025
2188 -0.42833534
2186 -0.43423429
2184 -0.39423761
2182 -0.34371668
2180 -0.27325892
2178 -0.20053273
2176 -0.17897515
2174 -0.16554418
2172 -0.19088611
2170 -0.2171928
2168 -0.22796245
2166 -0.23223901
2164 -0.21835217
2162 -0.21341562
2160 -0.23602772
2158 -0.27279934
2156 -0.331099
2154 -0.36730707
2152 -0.36828771
2150 -0.33167088
2148 -0.25682721
2146 -0.18814965
2144 -0.12844943
2142 -0.1191764
2140 -0.14430422
2138 -0.21162269
2136 -0.29999027
2134 -0.37905782
2132 -0.4533461
2130 -0.48512104
2128 -0.50347161
2126 -0.49614051
2124 -0.4830775
2122 -0.45843375
2120 -0.43125829
2118 -0.39018241
2116 -0.34959015
2114 -0.32748848
2112 -0.31861073
2110 -0.3564373
2108 -0.40220284
2106 -0.45123991
2104 -0.48533982
2102 -0.48540869
2100 -0.47543198
2098 -0.45704907
2096 -0.44002429
2094 -0.42640591
2092 -0.41043139
2090 -0.39151016
2088 -0.37251693
2086 -0.3538135
2084 -0.34088653
2082 -0.33174375
2080 -0.34664926
2078 -0.37393388
2076 -0.41843885
2074 -0.469486
2072 -0.4837732
2070 -0.48596981
2068 -0.4640778
2066 -0.43756673
2064 -0.46285051
2062 -0.49907264
2060 -0.54318953
2058 -0.57946026
2056 -0.56395769
2054 -0.53684324
2052 -0.50471932
2050 -0.48381436
2048 -0.49429879
2046 -0.52382326
2044 -0.57837361
2042 -0.64334309
2040 -0.7168355
2038 -0.79058576
2036 -0.86276859
2034 -0.92907321
2032 -0.98989701
2030 -1.0199109
2028 -1.0264024
2026 -0.99216062
2024 -0.93430859
2022 -0.85742199
2020 -0.77245384
2018 -0.70925963
2016 -0.65570599
2014 -0.6717245
2012 -0.71091151
2010 -0.78805703
2008 -0.87377852
2006 -0.94110423
2004 -1.001821
2002 -1.049081
2000 -1.0877926
1998 -1.1038862
1996 -1.1089286
1994 -1.0975436
1992 -1.0981143
1990 -1.1353801
1988 -1.1962
1986 -1.282985
1984 -1.3649166
1982 -1.4312924
1980 -1.4795461
1978 -1.51114
1976 -1.4887258
1974 -1.4194469
1972 -1.2535806
1970 -1.0210426
1968 -0.79982913
1966 -0.5936116
1964 -0.55365497
1962 -0.60024625
1960 -0.73005641
1958 -0.89144468
1956 -0.99554497
1954 -1.0762037
1952 -1.0988435
1950 -1.1020833
1948 -1.0952106
1946 -1.096375
1944 -1.1580846
1942 -1.2504245
1940 -1.3856877
1938 -1.5119956
1936 -1.5807314
1934 -1.6112012
1932 -1.598922
1930 -1.5876254
1928 -1.5975468
1926 -1.583675
1924 -1.5307932
1922 -1.3780551
1920 -1.1287469
1918 -0.88084972
1916 -0.65567642
1914 -0.54308575
1912 -0.51230991
1910 -0.56352437
1908 -0.65739173
1906 -0.83188707
1904 -1.0469692
1902 -1.2431884
1900 -1.4284281
1898 -1.4479203
1896 -1.3951143
1894 -1.2469649
1892 -1.0729706
1890 -0.97513068
1888 -0.9385469
1886 -1.040108
1884 -1.209982
1882 -1.431692
1880 -1.648532
1878 -1.8104744
1876 -1.8877801
1874 -1.843431
1872 -1.6837697
1870 -1.4108026
1868 -1.1588806
1866 -0.97795093
1864 -0.97423118
1862 -1.136464
1860 -1.3463837
1858 -1.5602357
1856 -1.6835915
1854 -1.7359871
1852 -1.6758488
1850 -1.5489805
1848 -1.35818
1846 -1.1354072
1844 -1.0541003
1842 -1.0520947
1840 -1.2160749
1838 -1.448548
1836 -1.5999771
1834 -1.681452
1832 -1.5911812
1830 -1.3982686
1828 -1.1128768
1826 -0.84108394
1824 -0.7147429
1822 -0.74453348
1820 -0.97851956
1818 -1.2901157
1816 -1.5977143
1814 -1.8187958
1812 -1.9168633
1810 -1.9038571
1808 -1.8055925
1806 -1.6289201
1804 -1.3969028
1802 -1.1275409
1800 -0.83713979
1798 -0.56318545
1796 -0.30610427
1794 -0.09656997
1792 0.080946758
1790 0.13698657
1788 0.11799583
1786 0.039422438
1784 -0.064849839
1782 -0.093397692
1780 -0.06268283
1778 0.0829501
1776 0.29856059
1774 0.55165935
1772 0.76371229
1770 0.78569663
1768 0.67283088
1766 0.45510951
1764 0.26397741
1762 0.22157763
1760 0.08789634
1758 -0.093816385
1756 -0.17961358
1754 -0.17145802
1752 0.069285601
1750 0.55458176
1748 1.128305
1746 1.71605
1744 1.9772897
1742 1.9236274
1740 1.7352314
1738 1.4880937
1736 1.4504
1734 1.580971
1732 1.5925257
1730 1.4961841
1728 1.0840676
1726 0.4841938
1724 0.05116386
1722 -0.18592107
1720 0.11587685
1718 0.92415428
1716 2.1646872
1714 3.5031617
1712 4.4993625
1710 5.2607684
1708 5.9052081
1706 6.7512841
1704 8.0914907
1702 10.169512
1700 13.083448
1698 16.643993
1696 20.638142
1694 24.268791
1692 27.253021
1690 29.908184
1688 32.414577
1686 35.677299
1684 39.741695
1682 44.479603
1680 49.701279
1678 54.153366
1676 57.903343
1674 61.641819
1672 65.452324
1670 69.855675
1668 74.673859
1666 79.294304
1664 83.690514
1662 87.727783
1660 91.434761
1658 94.845039
1656 97.953712
1654 100.75488
1652 103.0022
1650 104.4178
1648 104.44028
1646 102.68786
1644 99.872711
1642 96.663536
1640 93.316879
1638 90.007469
1636 86.243401
1634 81.868332
1632 77.280991
1630 72.648071
1628 68.251503
1626 64.12484
1624 59.84988
1622 55.382614
1620 50.952812
1618 46.587517
1616 42.479
1614 38.653912
1612 35.267975
1610 32.34309
1608 29.893171
1606 27.890694
1604 26.173866
1602 24.750753
1600 23.586664
1598 22.693361
1596 22.046501
1594 21.630478
1592 21.390417
1590 21.307085
1588 21.340004
1586 21.519537
1584 21.854097
1582 22.380381
1580 23.103971
1578 24.070164
1576 25.28323
1574 26.665491
1572 28.182531
1570 29.657408
1568 31.0508
1566 32.374477
1564 33.635109
1562 35.111851
1560 36.891273
1558 39.416553
1556 42.652573
1554 45.6506
1552 48.239201
1550 49.984226
1548 51.002373
1546 51.994678
1544 52.961342
1542 53.910282
1540 54.511219
1538 54.283199
1536 53.289543
1534 51.745209
1532 50.009602
1530 48.481152
1528 47.115463
1526 45.868649
1524 44.56599
1522 43.099236
1520 41.299038
1518 39.066593
1516 36.736702
1514 34.408146
1512 32.183201
1510 30.099964
1508 27.560623
1506 24.415014
1504 21.220703
1502 18.051264
1500 15.508268
1498 13.68201
1496 12.0
1494 10.462627
1492 8.9260807
1490 7.3847446
1488 5.8257613
1486 4.2724833
1484 2.7756941
1482 1.4664145
1480 0.52543986
1478 0.020406455
1476 0.015626281
1474 0.4995563
1472 1.3617022
1470 2.2837329
1468 3.0437257
1466 3.665148
1464 4.1431546
1462 4.6717305
1460 5.3511076
1458 6.0882149
1456 6.8717198
1454 7.4013224
1452 7.5229039
1450 7.4255657
1448 7.0283718
1446 6.5856533
1444 6.0857382
1442 5.6033373
1440 5.1590829
1438 4.7963099
1436 4.5224171
1434 4.2556319
1432 3.9824722
1430 3.6655362
1428 3.3481941
1426 3.1348379
1424 3.0660782
1422 3.1815374
1420 3.4384058
1418 3.7661455
1416 4.080471
1414 4.2854629
1412 4.4273696
1410 4.5320444
1408 4.6624703
1406 4.8681273
1404 5.1247363
1402 5.444952
1400 5.7768521
1398 6.112431
1396 6.3719358
1394 6.4866896
1392 6.4898915
1390 6.3056283
1388 6.0598526
1386 5.7155252
1384 5.3112159
1382 4.8336115
1380 4.3650866
1378 3.92963
1376 3.5807998
1374 3.3224182
1372 3.08793
1370 2.8589242
1368 2.5878863
1366 2.2787228
1364 1.9461033
1362 1.5910447
1360 1.2121373
1358 0.83943999
1356 0.50940776
1354 0.24388611
1352 0.094912156
1350 0.012980532
1348 0.00951932
1346 0.053051069
1344 0.17519039
1342 0.35146731
1340 0.62561697
1338 0.86339498
1336 1.0120789
1334 1.0590968
1332 0.92913777
1330 0.80758834
1328 0.71408111
1326 0.70308113
1324 0.81566703
1322 0.99711519
1320 1.2616338
1318 1.5481099
1316 1.84018
1314 2.0776632
1312 2.247504
1310 2.3395581
1308 2.367594
1306 2.3585486
1304 2.3229206
1302 2.2683749
1300 2.2037711
1298 2.1330247
1296 2.0680857
1294 2.0241845
1292 1.9992548
1290 2.0121782
1288 2.0436559
1286 2.10971
1284 2.1799302
1282 2.2539892
1280 2.3182943
1278 2.3618603
1276 2.4112484
1274 2.476541
1272 2.5722938
1270 2.720891
1268 2.8962126
1266 3.1113894
1264 3.3479743
1262 3.6132522
1260 3.9001241
1258 4.2105498
1256 4.5345173
1254 4.8746667
1252 5.2359319
1250 5.614974
1248 6.0105524
1246 6.4119
1244 6.8051419
1242 7.1850281
1240 7.5302844
1238 7.8366389
1236 8.0469713
1234 8.1913376
1232 8.1791039
1230 8.0997601
1228 7.8533964
1226 7.5604973
1224 7.1465998
1222 6.7143459
1220 6.2390614
1218 5.7577262
1216 5.2623
1214 4.7522283
1212 4.2220254
1210 3.708015
1208 3.2264743
1206 2.801445
1204 2.4390039
1202 2.0847902
1200 1.7271292
1198 1.3208773
1196 0.87563145
1194 0.41116124
1192 -0.051684767
1190 -0.4617708
1188 -0.82398993
1186 -1.0839214
1184 -1.2942224
1182 -1.4375507
1180 -1.5512006
1178 -1.6052455
1176 -1.61558
1174 -1.4817256
1172 -1.3118703
1170 -1.0357124
1168 -0.76048744
1166 -0.48882627
1164 -0.22199321
1162 0.031706497
1160 0.27324778
1158 0.48616067
1156 0.66402739
1154 0.7800203
1152 0.85235679
1150 0.85941285
1148 0.80881
1146 0.69002426
1144 0.52127331
1142 0.31829992
1140 0.15362713
1138 0.037887882
1136 0.048853144
1134 0.1456764
1132 0.37021655
1130 0.65479887
1128 0.99809897
1126 1.3637843
1124 1.7629548
1122 2.1667001
1120 2.56372
1118 2.9443116
1116 3.2399657
1114 3.5163853
1112 3.7171392
1110 3.9034445
1108 4.0435548
1106 4.1711698
1104 4.2700191
1102 4.3790517
1100 4.5109468
1098 4.6686387
1096 4.8714428
1094 5.11904
1092 5.4325819
1090 5.8315363
1088 6.3192911
1086 6.8558545
1084 7.4198728
1082 7.9162292
1080 8.3496761
1078 8.6204786
1076 8.7956619
1074 8.8086395
1072 8.7575951
1070 8.6255569
1068 8.4743462
1066 8.3127947
1064 8.1732922
1062 8.2068748
1060 8.2937756
1058 8.6688242
1056 9.0470457
1054 9.4350023
1052 9.7725229
1050 9.9492865
1048 10.105834
1046 10.213821
1044 10.312563
1042 10.38865
1040 10.415783
1038 10.373116
1036 10.313
1034 10.234889
1032 10.174628
1030 10.121653
1028 9.9868498
1026 9.7820339
1024 9.4475727
1022 9.0438814
1020 8.6248045
1018 8.1986446
1016 7.759963
1014 7.3094993
1012 6.7654419
1010 6.2034912
1008 5.6182518
1006 5.0392971
1004 4.5582266
1002 4.0933442
1000 3.732553
998 3.3715892
996 3.0083287
994 2.6234601
992 2.1727159
990 1.7319142
988 1.3169034
986 0.94527233
984 0.64977586
982 0.37058064
980 0.11509311
978 -0.10706492
976 -0.28880885
974 -0.36455089
972 -0.35270065
970 -0.2788738
968 -0.17089027
966 -0.1271815
964 -0.11512248
962 -0.15652917
960 -0.2127391
958 -0.21745233
956 -0.20827699
954 -0.13377273
952 -0.053236239
950 -0.016719017
948 0.015077207
946 0.0049699289
944 0.0019773617
942 0.062437847
940 0.21178481
938 0.50081259
936 0.79200459
934 1.089556
932 1.38586
930 1.6791631
928 1.960923
926 2.2231636
924 2.4441199
922 2.6146269
920 2.7717822
918 2.916003
916 3.0366902
914 3.1391706
912 3.1128235
910 3.0170121
908 2.7480235
906 2.4130714
904 2.1015539
902 1.7978097
900 1.8235252
898 1.9025569
896 2.2219
