Image.
>Pix99999.
  .
5555
5555
2300
900
5555
2
1
0
701
5555
1.6554000e-002
1.6898507e-002
1.7243015e-002
1.7587520e-002
1.7932029e-002
1.8276535e-002
1.8621042e-002
1.8965550e-002
1.9309068e-002
1.9653564e-002
1.9998072e-002
2.0342577e-002
2.0687087e-002
2.1031592e-002
2.1376101e-002
2.1720607e-002
2.2064138e-002
2.2408621e-002
2.2753129e-002
2.3097636e-002
2.3442144e-002
2.3786649e-002
2.4131158e-002
2.4475664e-002
2.4819206e-002
2.5163678e-002
9.3510858e-004
1.0746849e-002
1.7121360e-002
-1.5246344e-003
-2.3943722e-002
-6.3570596e-002
-1.0221460e-001
-9.1107853e-002
-7.0852548e-002
2.7745049e-003
7.8603052e-002
1.5162285e-001
2.1353740e-001
2.4180858e-001
2.6183543e-001
2.6805314e-001
2.6919720e-001
2.6344961e-001
2.4780394e-001
2.2037414e-001
2.1654195e-001
2.3624188e-001
2.8668177e-001
3.5899842e-001
3.8635358e-001
3.8688254e-001
3.3869913e-001
2.6989043e-001
2.1478185e-001
1.6458543e-001
1.1722680e-001
7.0466369e-002
3.2959253e-002
-2.4120037e-003
2.3277642e-002
5.7838321e-002
1.2923722e-001
2.0247380e-001
2.6593658e-001
3.2182500e-001
3.5332537e-001
3.7476158e-001
3.7668583e-001
3.7553519e-001
3.7245801e-001
3.6622638e-001
3.5571834e-001
3.3351383e-001
2.9861531e-001
2.7189606e-001
2.5354108e-001
2.6527479e-001
2.9722473e-001
3.3008280e-001
3.6236200e-001
3.7168291e-001
3.7162545e-001
3.7668517e-001
3.8371599e-001
3.9066851e-001
3.9743072e-001
3.7725160e-001
3.5256150e-001
3.2441518e-001
2.9623929e-001
2.7247080e-001
2.4924834e-001
2.2645383e-001
2.0541449e-001
1.8939643e-001
1.7038211e-001
1.4279471e-001
1.0457318e-001
5.0431900e-002
-2.0015710e-003
-4.9498070e-002
-7.4526049e-002
-7.7049270e-002
-6.0969092e-002
-3.1519901e-002
-2.5650351e-003
2.5083058e-002
4.0604118e-002
4.9472097e-002
4.1303858e-002
2.6240649e-002
5.6151240e-003
-1.6800277e-002
-2.2904666e-002
-2.5198843e-002
2.5247224e-003
3.6062747e-002
7.9332724e-002
1.1529756e-001
1.0078095e-001
6.7353219e-002
-1.0318486e-003
-5.2195530e-002
-4.4517599e-002
-3.5759495e-003
7.7944808e-002
1.4084736e-001
1.6656594e-001
1.6583987e-001
1.4519429e-001
1.2804382e-001
1.1725914e-001
9.4731264e-002
6.0069632e-002
1.3051761e-002
-4.2014927e-002
-8.0431618e-002
-1.1042477e-001
-1.3836560e-001
-1.6448601e-001
-1.9761395e-001
-2.3089600e-001
-2.1626873e-001
-1.8439795e-001
-9.7627312e-002
2.9140785e-003
9.4693370e-002
1.7666668e-001
2.1585253e-001
2.3716000e-001
2.3080489e-001
1.9804400e-001
1.3072307e-001
3.7992302e-002
-7.1900107e-002
-1.6018285e-001
-2.1306527e-001
-2.2146304e-001
-1.9396092e-001
-1.3727343e-001
-6.3750207e-002
3.2673266e-002
1.4177392e-001
2.2221652e-001
2.8341201e-001
2.6474145e-001
2.0878631e-001
1.5337761e-001
1.0149315e-001
1.0138940e-001
1.2118489e-001
1.3400371e-001
1.4659075e-001
1.3794477e-001
1.2212500e-001
1.1162749e-001
9.7619914e-002
1.0283034e-001
1.1125443e-001
1.2141229e-001
1.2910445e-001
1.1745260e-001
1.0706084e-001
9.4085321e-002
1.2299260e-001
1.9927232e-001
3.1892210e-001
4.7929448e-001
5.7137489e-001
6.0613155e-001
5.6119013e-001
4.6415502e-001
3.8763174e-001
3.2679290e-001
2.7111149e-001
2.1915360e-001
1.6209936e-001
1.0629293e-001
1.0333457e-001
1.2517285e-001
1.6919105e-001
2.1467048e-001
2.3070779e-001
2.2484085e-001
1.9462036e-001
1.4571014e-001
7.2115600e-002
-5.2067041e-003
-8.0745898e-002
-1.0938700e-001
-7.4891225e-002
3.5859477e-002
2.1692179e-001
3.6566639e-001
4.7337407e-001
4.6212941e-001
3.6179611e-001
2.3849083e-001
1.0556654e-001
4.5471732e-003
-8.1141531e-002
-7.0864797e-002
-8.5865660e-003
1.6489425e-001
3.8653606e-001
4.7563681e-001
4.7824940e-001
2.9544708e-001
4.0224105e-002
-1.6076204e-001
-2.9666939e-001
-2.9319119e-001
-2.0236993e-001
-3.2697618e-004
1.9820672e-001
3.1079593e-001
3.1435525e-001
1.5795055e-001
-4.0008843e-002
-2.2961544e-001
-3.5214651e-001
-3.9503559e-001
-4.1118279e-001
-4.2030263e-001
-4.1811651e-001
-4.0339771e-001
-2.9800779e-001
-1.2371844e-001
1.0570678e-001
3.6353713e-001
4.9969420e-001
5.6043118e-001
4.8757675e-001
3.5402319e-001
2.5628293e-001
1.9443806e-001
1.7365336e-001
1.9598436e-001
3.0227658e-001
4.6376514e-001
6.6499871e-001
8.0874175e-001
7.7313805e-001
6.0548782e-001
3.6272994e-001
1.5683044e-001
5.5090986e-002
1.2085269e-002
-1.1002814e-001
-2.4287444e-001
-3.2312217e-001
-2.1260452e-001
9.2501402e-002
4.7397026e-001
8.8449788e-001
1.0452994e+000
9.8914158e-001
8.4900749e-001
6.6673166e-001
6.1179799e-001
6.4071268e-001
5.4165608e-001
3.4963581e-001
1.7587945e-002
-3.5577542e-001
-5.1564163e-001
-4.3903279e-001
4.4636995e-002
8.5310274e-001
2.0714729e+000
3.4139843e+000
4.5331221e+000
5.5103269e+000
6.3760557e+000
7.4213572e+000
8.8599100e+000
1.0884256e+001
1.3583777e+001
1.6764635e+001
2.0319286e+001
2.3645090e+001
2.6512297e+001
2.9142080e+001
3.1611200e+001
3.4600014e+001
3.8150738e+001
4.2097946e+001
4.6344559e+001
5.0021076e+001
5.3196030e+001
5.6411739e+001
5.9706772e+001
6.3509132e+001
6.7669121e+001
7.1758247e+001
7.5747665e+001
7.9448929e+001
8.2879791e+001
8.6009933e+001
8.8900116e+001
9.1621132e+001
9.4079979e+001
9.6202522e+001
9.7433029e+001
9.7439819e+001
9.6566010e+001
9.5142113e+001
9.3342903e+001
9.1274483e+001
8.8485214e+001
8.4898788e+001
8.0855087e+001
7.6553215e+001
7.2389053e+001
6.8413055e+001
6.4335121e+001
6.0116516e+001
5.5915615e+001
5.1751892e+001
4.7752571e+001
4.3954605e+001
4.0532501e+001
3.7520191e+001
3.4936661e+001
3.2749306e+001
3.0799311e+001
2.9102064e+001
2.7653828e+001
2.6482985e+001
2.5583500e+001
2.4926321e+001
2.4445108e+001
2.4091372e+001
2.3807417e+001
2.3636658e+001
2.3587542e+001
2.3748659e+001
2.4138857e+001
2.4834221e+001
2.5853914e+001
2.7065395e+001
2.8444622e+001
2.9729792e+001
3.0872561e+001
3.1918379e+001
3.2868919e+001
3.4000038e+001
3.5382931e+001
3.7426296e+001
4.0060513e+001
4.2544708e+001
4.4784348e+001
4.6393784e+001
4.7510899e+001
4.8636856e+001
4.9782669e+001
5.0992096e+001
5.1911041e+001
5.2184315e+001
5.1776657e+001
5.0744736e+001
4.9500668e+001
4.8353821e+001
4.7294857e+001
4.6314049e+001
4.5250900e+001
4.4040764e+001
4.2460182e+001
4.0463882e+001
3.8409386e+001
3.6392151e+001
3.4594841e+001
3.3012058e+001
3.0974440e+001
2.8303936e+001
2.5387749e+001
2.2284307e+001
1.9635546e+001
1.7506721e+001
1.5459572e+001
1.3473413e+001
1.1469800e+001
9.4404087e+000
7.4302435e+000
5.4744549e+000
3.6222339e+000
2.0404398e+000
8.6045331e-001
1.6358903e-001
5.9709877e-002
5.4627532e-001
1.5249308e+000
2.5554149e+000
3.3990963e+000
4.1674418e+000
4.8436227e+000
5.6067858e+000
6.5358601e+000
7.3337011e+000
7.8931999e+000
8.0205326e+000
7.5712771e+000
7.0598521e+000
6.5144958e+000
6.0114145e+000
5.5581985e+000
5.1110950e+000
4.6648808e+000
4.2654729e+000
3.8809872e+000
3.4790087e+000
3.0358005e+000
2.5610368e+000
2.1363840e+000
1.8510321e+000
1.7527268e+000
1.8549700e+000
2.0728011e+000
2.3285306e+000
2.5298371e+000
2.5904560e+000
2.6317806e+000
2.6812968e+000
2.8117394e+000
3.0758135e+000
3.4198792e+000
3.8912954e+000
4.3970680e+000
4.9488888e+000
5.4227571e+000
5.7586861e+000
5.9341693e+000
5.8896351e+000
5.7651987e+000
5.5340500e+000
5.2738600e+000
4.9773626e+000
4.6915402e+000
4.4129333e+000
4.1610031e+000
3.8976784e+000
3.6016321e+000
3.2735426e+000
2.9202583e+000
2.5720863e+000
2.2269635e+000
1.8562272e+000
1.4392691e+000
1.0080755e+000
6.0422742e-001
2.8604189e-001
1.0618283e-001
7.2082067e-003
-1.2705822e-002
-1.7466750e-002
7.1334995e-002
2.3395723e-001
5.2423263e-001
7.8609455e-001
9.8560399e-001
1.0430107e+000
9.1435057e-001
7.7826488e-001
6.5805417e-001
6.4045483e-001
7.4984586e-001
9.5307106e-001
1.2442012e+000
1.5598470e+000
1.8642000e+000
2.0778418e+000
2.2009349e+000
2.2161543e+000
2.1767626e+000
2.1279886e+000
2.0849428e+000
2.0629971e+000
2.0424132e+000
2.0186827e+000
2.0006571e+000
2.0194807e+000
2.0652080e+000
2.1695979e+000
2.2792120e+000
2.3855650e+000
2.4854081e+000
2.5783377e+000
2.6854000e+000
2.8283651e+000
2.9860187e+000
3.1613600e+000
3.3356411e+000
3.4996238e+000
3.6631854e+000
3.8372912e+000
4.0394325e+000
4.2978325e+000
4.6277981e+000
5.0435095e+000
5.5333886e+000
6.0850320e+000
6.6535621e+000
7.2252197e+000
7.7679014e+000
8.2830505e+000
8.7634354e+000
9.2196703e+000
9.6471701e+000
1.0054013e+001
1.0416457e+001
1.0729698e+001
1.0906119e+001
1.1002325e+001
1.0882934e+001
1.0708750e+001
1.0391154e+001
1.0040594e+001
9.6094437e+000
9.1412067e+000
8.5994482e+000
8.0352821e+000
7.4341068e+000
6.8324227e+000
6.2347517e+000
5.6586714e+000
5.1128278e+000
4.5920582e+000
4.0918646e+000
3.5863700e+000
3.0747073e+000
2.5569887e+000
2.0476589e+000
1.5884991e+000
1.1731439e+000
8.4935266e-001
5.7328689e-001
3.7106776e-001
2.0640647e-001
1.2282981e-001
7.9537198e-002
1.5243232e-001
2.4724817e-001
4.0319502e-001
5.4369080e-001
6.3852054e-001
7.0199984e-001
6.8864506e-001
6.6147214e-001
6.0835159e-001
5.6793183e-001
5.4504001e-001
5.1418072e-001
4.6436301e-001
3.6968058e-001
2.3027501e-001
9.7955242e-002
-9.4051361e-003
-1.8204279e-002
4.5490421e-002
1.5844400e-001
3.2414722e-001
5.2266848e-001
7.4042195e-001
9.9104357e-001
1.2580307e+000
1.5609043e+000
1.8697846e+000
2.1776960e+000
2.4858158e+000
2.7964342e+000
3.1083083e+000
3.4247229e+000
3.7357776e+000
4.0291662e+000
4.3121200e+000
4.5696888e+000
4.8200316e+000
5.0604439e+000
5.3271523e+000
5.6400714e+000
6.0028515e+000
6.4263978e+000
6.8518500e+000
7.2702537e+000
7.6223722e+000
7.9145885e+000
8.1411438e+000
8.3218441e+000
8.4598179e+000
8.5717039e+000
8.6372223e+000
8.6847410e+000
8.7058134e+000
8.7144346e+000
8.6682644e+000
8.6052847e+000
8.4682646e+000
8.3318310e+000
8.2235889e+000
8.1259480e+000
8.0736141e+000
8.0054283e+000
7.8830891e+000
7.7220531e+000
7.4667749e+000
7.1815734e+000
6.8415203e+000
6.4848042e+000
6.1079855e+000
5.7587900e+000
5.4464054e+000
5.1969991e+000
4.9985771e+000
4.7685738e+000
4.5075531e+000
4.1572123e+000
3.7649381e+000
3.4152968e+000
3.0945067e+000
2.9006858e+000
2.7402315e+000
2.5722389e+000
2.3922448e+000
2.0926921e+000
1.7803242e+000
1.4363401e+000
1.0962241e+000
7.8545010e-001
4.7776234e-001
1.8456185e-001
-9.5676124e-002
-3.3318993e-001
-5.4696864e-001
-7.0517802e-001
-8.4655887e-001
-9.5987439e-001
-1.0621672e+000
-1.1486400e+000
-1.1949694e+000
-1.1946086e+000
-1.1086055e+000
-9.5166808e-001
-7.4262428e-001
-5.0478977e-001
-2.9777548e-001
-1.0730676e-001
3.6589056e-002
1.6352257e-001
2.3051351e-001
2.8326356e-001
2.8846800e-001
2.8785402e-001
2.7935609e-001
2.6498580e-001
1.6926515e-001
6.9989182e-002
-5.2535236e-003
-1.6137563e-001
-2.0772700e-001
-2.2403972e-001
-1.5409519e-001
-1.0934886e-001
-1.1927873e-001
-1.7266396e-001
-2.9451355e-001
-3.6566761e-001
-3.7386605e-001
-2.6583695e-001
-4.9568892e-002
1.6572872e-001
3.7963215e-001
4.9333256e-001
5.5217379e-001
6.1844981e-001
6.8405747e-001
8.0400091e-001
9.3500692e-001
1.0158054e+000
1.0875316e+000
1.1095999e+000
