##TITLE=Methyl Ethyl Ketone
##JCAMP-DX=4.24
##DATA TYPE=INFRARED SPECTRUM
##XUNITS=cm-1
##YUNITS=Absorbance
##FIRSTX=900
##LASTX=2300
##XYDATA=(X++(Y..Y))
2296 -0.0078792004
2294 -0.0080431653
2292 -0.0082070315
2290 -0.0083709955
2288 -0.0085348617
2286 -0.0086988276
2284 -0.0088626938
2282 -0.0090266578
2280 -0.009190524
2278 -0.0093542915
2276 -0.0095183533
2274 -0.009682714
2272 -0.0098461937
2270 -0.010008973
2268 -0.010173701
2266 -0.010344336
2264 -0.010502389
2262 -0.010642599
2260 -0.010829166
2258 -0.011078187
2256 -0.0111598
2254 -0.01100583
2252 -0.011474632
2250 -0.012821755
2248 -0.011854932
2246 -0.0061492897
2244 -0.00022060258
2242 0.0019281451
2240 0.006195996
2238 0.019682664
2236 0.043001629
2234 0.072454408
2232 0.094502904
2230 0.095697053
2228 0.074285589
2226 0.033991199
2224 -0.013172777
2222 -0.054170504
2220 -0.081486508
2218 -0.093110405
2216 -0.10259177
2214 -0.12404854
2212 -0.1551386
2210 -0.18561012
2208 -0.19340275
2206 -0.16123714
2204 -0.10536265
2202 -0.051775429
2200 -0.024103256
2198 -0.03592474
2196 -0.063732646
2194 -0.076793551
2192 -0.061979175
2190 -0.019134613
2188 0.022486592
2186 0.031629741
2184 0.0064883195
2182 -0.041898377
2180 -0.08932592
2178 -0.11411837
2176 -0.12148
2174 -0.12383397
2172 -0.12690833
2170 -0.13209489
2168 -0.13288891
2166 -0.12277814
2164 -0.105573
2162 -0.087999895
2160 -0.074137554
2158 -0.067799732
2156 -0.075709105
2154 -0.10359806
2152 -0.14897618
2150 -0.20387356
2148 -0.24956726
2146 -0.26691392
2144 -0.25003982
2142 -0.2005143
2140 -0.13124378
2138 -0.058539215
2136 0.0029544062
2134 0.042355355
2132 0.061389264
2130 0.067341112
2128 0.071877606
2126 0.086215697
2124 0.11377668
2122 0.15353699
2120 0.19793418
2118 0.2374294
2116 0.26375356
2114 0.27039871
2112 0.25586766
2110 0.22152306
2108 0.17299531
2106 0.11882393
2104 0.073300391
2102 0.050300252
2100 0.05306682
2098 0.078571953
2096 0.11494371
2094 0.14888518
2092 0.1746898
2090 0.19077289
2088 0.19992022
2086 0.20624
2084 0.21274057
2082 0.22065268
2080 0.22587486
2078 0.22327352
2076 0.21211585
2074 0.19474344
2072 0.17851759
2070 0.17077248
2068 0.17037274
2066 0.17263779
2064 0.17283475
2062 0.16820928
2060 0.16383956
2058 0.1671821
2056 0.18217029
2054 0.20892999
2052 0.23848327
2050 0.25910062
2048 0.26325402
2046 0.24824357
2044 0.2233986
2042 0.20189747
2040 0.19196154
2038 0.19767487
2036 0.21585071
2034 0.24014652
2032 0.26363021
2030 0.27887639
2028 0.27677262
2026 0.2501078
2024 0.20301332
2022 0.14505784
2020 0.087430149
2018 0.0400244
2016 0.0054960647
2014 -0.016874254
2012 -0.028143652
2010 -0.03053743
2008 -0.031389885
2006 -0.038182467
2004 -0.049027842
2002 -0.056740589
2000 -0.0506243
1998 -0.022697192
1996 0.017675143
1994 0.052143507
1992 0.059164841
1990 0.022175577
1988 -0.049938299
1986 -0.13512664
1984 -0.20723017
1982 -0.24416205
1980 -0.24620143
1978 -0.22495845
1976 -0.19382343
1974 -0.1636173
1972 -0.13351154
1970 -0.098388024
1968 -0.059449956
1966 -0.022771578
1964 -0.00026031211
1962 -0.0038072802
1960 -0.033777416
1958 -0.084067918
1956 -0.14649424
1954 -0.21202622
1952 -0.27056873
1950 -0.31176636
1948 -0.32622039
1946 -0.30904001
1944 -0.27251261
1942 -0.23645908
1940 -0.21513963
1938 -0.21540758
1936 -0.22769685
1934 -0.23671862
1932 -0.2385478
1930 -0.23678219
1928 -0.23849674
1926 -0.25006407
1924 -0.26898021
1922 -0.2882297
1920 -0.30241019
1918 -0.30802572
1916 -0.30437928
1914 -0.29322806
1912 -0.28081629
1910 -0.27426866
1908 -0.27423549
1906 -0.27750358
1904 -0.28056279
1902 -0.28099227
1900 -0.2804082
1898 -0.28110316
1896 -0.2785143
1894 -0.26675406
1892 -0.25202489
1890 -0.24695639
1888 -0.26069224
1886 -0.29625779
1884 -0.34160331
1882 -0.37867481
1880 -0.40016958
1878 -0.40757498
1876 -0.409908
1874 -0.4180325
1872 -0.43440628
1870 -0.45610142
1868 -0.47990173
1866 -0.50343668
1864 -0.52635455
1862 -0.54923928
1860 -0.57161182
1858 -0.59242463
1856 -0.6114046
1854 -0.62849075
1852 -0.64209235
1850 -0.65067822
1848 -0.65744638
1846 -0.66709822
1844 -0.67764491
1842 -0.68234497
1840 -0.67329031
1838 -0.64449155
1836 -0.59962159
1834 -0.54815799
1832 -0.4980801
1830 -0.45577472
1828 -0.42771485
1826 -0.41936287
1824 -0.4306528
1822 -0.45673388
1820 -0.48728219
1818 -0.50968283
1816 -0.51507515
1814 -0.49882105
1812 -0.46263742
1810 -0.41248596
1808 -0.35608864
1806 -0.30317801
1804 -0.26935408
1802 -0.27057248
1800 -0.30723673
1798 -0.36556563
1796 -0.41689786
1794 -0.42901483
1792 -0.3932524
1790 -0.31984985
1788 -0.22726811
1786 -0.13598549
1784 -0.059483282
1782 -0.0045108246
1780 0.028930046
1778 0.045830611
1776 0.055596627
1774 0.068758704
1772 0.089211106
1770 0.11412308
1768 0.13280554
1766 0.13287193
1764 0.1168542
1762 0.091503397
1760 0.030895041
1758 -0.1021901
1756 -0.28177515
1754 -0.44295594
1752 -0.56804764
1750 -0.67902631
1748 -0.7911824
1746 -0.90905821
1744 -1.0363252
1742 -1.1744711
1740 -1.3104169
1738 -1.418793
1736 -1.4675399
1734 -1.4278333
1732 -1.3028457
1730 -1.121572
1728 -0.91902673
1726 -0.72405022
1724 -0.53181165
1722 -0.30216849
1720 0.0492336
1718 0.61698532
1716 1.4018451
1714 2.3215141
1712 3.2670867
1710 4.1452627
1708 4.9792137
1706 5.8952742
1704 7.0672355
1702 8.7027464
1700 11.059441
1698 14.337717
1696 18.299
1694 22.372551
1692 26.1089
1690 29.303669
1688 32.172184
1686 35.222591
1684 38.851219
1682 43.196995
1680 47.852242
1678 52.095745
1676 55.748127
1674 59.16254
1672 62.759773
1670 66.845795
1668 71.320648
1666 75.77565
1664 79.930542
1662 83.682922
1660 86.998627
1658 89.879585
1656 92.345428
1654 94.421417
1652 96.106079
1650 97.356033
1648 98.046631
1646 98.021675
1644 97.312523
1642 96.099136
1640 94.419655
1638 92.158958
1636 89.213531
1634 85.564445
1632 81.427734
1630 77.180466
1628 72.994301
1626 68.812836
1624 64.537521
1622 60.101391
1620 55.57576
1618 51.152443
1616 47.006084
1614 43.25959
1612 39.979141
1610 37.174217
1608 34.787567
1606 32.716621
1604 30.896252
1602 29.309683
1600 27.962498
1598 26.868118
1596 26.018499
1594 25.382269
1592 24.926069
1590 24.62002
1588 24.445629
1586 24.396406
1584 24.460497
1582 24.624861
1580 24.908907
1578 25.361877
1576 26.022915
1574 26.903381
1572 27.954868
1570 29.078903
1568 30.207039
1566 31.31695
1564 32.40102
1562 33.490944
1560 34.790222
1558 36.619503
1556 39.0191
1554 41.680653
1552 44.179218
1550 46.108662
1548 47.400494
1546 48.334145
1544 49.112946
1542 49.762783
1540 50.23584
1538 50.446259
1536 50.327286
1534 49.858685
1532 49.098866
1530 48.170033
1528 47.137039
1526 45.98315
1524 44.670719
1522 43.169758
1520 41.501122
1518 39.743282
1516 37.984642
1514 36.282581
1512 34.54504
1510 32.530777
1508 30.079283
1506 27.200592
1504 24.125387
1502 21.26148
1500 18.81809
1498 16.712049
1496 14.779428
1494 12.852393
1492 10.859014
1490 8.8490286
1488 6.9002581
1486 5.0920863
1484 3.5088
1482 2.2268944
1480 1.2549877
1478 0.53863496
1476 0.11606514
1474 0.12787011
1472 0.56525826
1470 1.2144908
1468 1.8946042
1466 2.5293508
1464 3.0961778
1462 3.612464
1460 4.0988154
1458 4.5645895
1456 4.99406
1454 5.3435736
1452 5.5740933
1450 5.6655245
1448 5.6259055
1446 5.4942465
1444 5.308074
1442 5.0904536
1440 4.8423262
1438 4.538887
1436 4.1530871
1434 3.6696723
1432 3.1142697
1430 2.5626292
1428 2.0852261
1426 1.7266665
1424 1.5070875
1422 1.4201561
1420 1.4534882
1418 1.5933697
1416 1.8192886
1414 2.102793
1412 2.419692
1410 2.7564149
1408 3.1120017
1406 3.4979029
1404 3.9182031
1402 4.3608513
1400 4.8020477
1398 5.2077641
1396 5.5514712
1394 5.8207388
1392 6.0059943
1390 6.0972095
1388 6.0832095
1386 5.953855
1384 5.7167063
1382 5.4041066
1380 5.0479951
1378 4.6700058
1376 4.2790375
1374 3.870717
1372 3.4501359
1370 3.0389903
1368 2.6475394
1366 2.2626729
1364 1.8645025
1362 1.4363817
1360 0.99296355
1358 0.59325457
1356 0.28835756
1354 0.097962908
1352 0.015979897
1350 0.0083237663
1348 0.044707209
1346 0.11166825
1344 0.20436521
1342 0.3243587
1340 0.46647871
1338 0.61226642
1336 0.73948258
1334 0.82721591
1332 0.86997384
1330 0.88664901
1328 0.89910525
1326 0.92454243
1324 0.97623819
1322 1.0622538
1320 1.1867131
1318 1.347471
1316 1.5297301
1314 1.7008512
1312 1.8288652
1310 1.893033
1308 1.8928357
1306 1.8569558
1304 1.8171903
1302 1.797776
1300 1.8103939
1298 1.8486452
1296 1.9038714
1294 1.9711783
1292 2.0524654
1290 2.1586294
1288 2.296756
1286 2.4628558
1284 2.6455438
1282 2.826237
1280 2.9939325
1278 3.1546025
1276 3.3180685
1274 3.494019
1272 3.6878793
1270 3.8977118
1268 4.1247263
1266 4.3790436
1264 4.6725326
1262 5.0161638
1260 5.4166059
1258 5.8731909
1256 6.3837056
1254 6.9460306
1252 7.5567107
1250 8.2084608
1248 8.887682
1246 9.5700502
1244 10.227612
1242 10.830681
1240 11.356538
1238 11.789699
1236 12.123172
1234 12.353214
1232 12.47372
1230 12.46828
1228 12.322055
1226 12.031479
1224 11.602938
1222 11.061725
1220 10.438106
1218 9.7633905
1216 9.0673857
1214 8.3769464
1212 7.7141647
1210 7.0919113
1208 6.5150976
1206 5.9760442
1204 5.4608979
1202 4.9504704
1200 4.4296498
1198 3.8949416
1196 3.3491142
1194 2.8024654
1192 2.266165
1190 1.7502019
1188 1.2665975
1186 0.8319962
1184 0.46340832
1182 0.17529663
1180 -0.023733512
1178 -0.13718854
1176 -0.176588
1174 -0.16454747
1172 -0.12537301
1170 -0.080860347
1168 -0.047998767
1166 -0.03415354
1164 -0.041585393
1162 -0.066093452
1160 -0.10079075
1158 -0.13631429
1156 -0.16375314
1154 -0.17691885
1152 -0.17315327
1150 -0.15649448
1148 -0.1334106
1146 -0.11157428
1144 -0.093270279
1142 -0.067754298
1140 -0.02321844
1138 0.048018567
1136 0.15806115
1134 0.33006889
1132 0.57512748
1130 0.86949128
1128 1.1823554
1126 1.4875171
1124 1.7734351
1122 2.0604973
1120 2.3710201
1118 2.7120261
1116 3.0759871
1114 3.4296243
1112 3.7451553
1110 4.0245137
1108 4.2839923
1106 4.5569348
1104 4.8685222
1102 5.2122893
1100 5.5721221
1098 5.9263387
1096 6.2613854
1094 6.5875998
1092 6.9191618
1090 7.2641888
1088 7.6229892
1086 7.9792023
1084 8.3135691
1082 8.6101589
1080 8.85672
1078 9.0486422
1076 9.1852798
1074 9.2722845
1072 9.3208733
1070 9.3535252
1068 9.3887053
1066 9.4262342
1064 9.4541245
1062 9.4413271
1060 9.3607311
1058 9.2091265
1056 8.9914951
1054 8.7190437
1052 8.4028111
1050 8.0492773
1048 7.6693606
1046 7.29005
1044 6.937778
1042 6.6256571
1040 6.3543434
1038 6.0994635
1036 5.83359
1034 5.5401788
1032 5.209269
1030 4.8431978
1028 4.4474659
1026 4.0271029
1024 3.5905092
1022 3.155642
1020 2.7443323
1018 2.3832226
1016 2.0907857
1014 1.8574451
1012 1.6596634
1010 1.4530895
1008 1.202244
1006 0.91594958
1004 0.62057275
1002 0.36240861
1000 0.17478074
998 0.034977801
996 -0.092650726
994 -0.240339
992 -0.42723703
990 -0.6335932
988 -0.83307266
986 -1.0090163
984 -1.1479337
982 -1.238636
980 -1.270898
978 -1.2349324
976 -1.126296
974 -0.95772541
972 -0.74533081
970 -0.50219041
968 -0.24336717
966 0.0070059896
964 0.22183478
962 0.37209994
960 0.43781537
958 0.43169796
956 0.37463728
954 0.28771427
952 0.19150281
950 0.10436676
948 0.041114539
946 0.0057416414
944 0.00035858899
942 0.029633652
940 0.092572175
938 0.16575029
936 0.22865629
934 0.29150009
932 0.36968756
930 0.46940058
928 0.5843305
926 0.67055321
924 0.68133181
922 0.59473944
920 0.41246325
918 0.20200272
916 0.043044396
914 -0.00098945946
912 0.10987759
910 0.34101641
908 0.63936079
906 0.95265007
904 1.2390759
902 1.4969132
900 1.7329123
898 1.9468718
896 2.1368999
