##TITLE=Methyl Ethyl Ketone
##JCAMP-DX=4.24
##DATA TYPE=INFRARED SPECTRUM
##XUNITS=cm-1
##YUNITS=Absorbance
##FIRSTX=900
##LASTX=2300
##XYDATA=(X++(Y..Y))
2296 -0.0072041
2294 -0.0073539857
2292 -0.0075038713
2290 -0.007653757
2288 -0.0078035425
2286 -0.007953329
2284 -0.0081032142
2282 -0.0082532968
2280 -0.0084030852
2278 -0.0085521806
2276 -0.0087027457
2274 -0.0088552991
2272 -0.0090025729
2270 -0.0091426959
2268 -0.0093020014
2266 -0.0094882911
2264 -0.0096027171
2262 -0.0096167158
2260 -0.0098980814
2258 -0.010553909
2256 -0.010216457
2254 -0.0084815342
2252 -0.010440698
2250 -0.017608698
2248 -0.011047509
2246 0.021595929
2244 0.04332893
2242 0.013794659
2240 -0.065201201
2238 -0.17776516
2236 -0.29961556
2234 -0.41212937
2232 -0.52870369
2230 -0.66373384
2228 -0.79833597
2226 -0.90696698
2224 -0.9765678
2222 -1.0030183
2220 -1.0031651
2218 -0.99569678
2216 -0.981664
2214 -0.95599574
2212 -0.910317
2210 -0.83951926
2208 -0.75542223
2206 -0.67683232
2204 -0.62986922
2202 -0.6391871
2200 -0.71468669
2198 -0.8553741
2196 -1.0347821
2194 -1.2179307
2192 -1.3678429
2190 -1.4535747
2188 -1.47262
2186 -1.4346315
2184 -1.36368
2182 -1.2878048
2180 -1.231524
2178 -1.2149125
2176 -1.2426001
2174 -1.3090174
2172 -1.3873763
2170 -1.4486361
2168 -1.4831651
2166 -1.4927222
2164 -1.4981097
2162 -1.5214784
2160 -1.5653411
2158 -1.6236153
2156 -1.6836801
2154 -1.7331909
2152 -1.7693206
2150 -1.7939492
2148 -1.8154483
2146 -1.8413607
2144 -1.8676445
2142 -1.883672
2140 -1.8695723
2138 -1.808605
2136 -1.7096944
2134 -1.5931121
2132 -1.4867001
2130 -1.4186056
2128 -1.4091641
2126 -1.4711028
2124 -1.5981143
2122 -1.7694386
2120 -1.9318103
2118 -2.0310807
2116 -2.0568914
2114 -2.02333
2112 -1.977872
2110 -1.9695455
2108 -2.0052135
2106 -2.070868
2104 -2.1340561
2102 -2.1629298
2100 -2.155364
2098 -2.1244943
2096 -2.0965571
2094 -2.0997169
2092 -2.1484838
2090 -2.2452118
2088 -2.3635228
2086 -2.4658201
2084 -2.5141339
2082 -2.480962
2080 -2.3805332
2078 -2.2453001
2076 -2.1146028
2074 -2.0234516
2072 -1.979692
2070 -1.9785961
2068 -2.007628
2066 -2.0519607
2064 -2.0974767
2062 -2.1330674
2060 -2.1578228
2058 -2.1777191
2056 -2.2091713
2054 -2.2679372
2052 -2.3495986
2050 -2.4398396
2048 -2.5195892
2046 -2.5729749
2044 -2.60374
2042 -2.6216972
2040 -2.6256623
2038 -2.6077912
2036 -2.5531328
2034 -2.4515355
2032 -2.3249085
2030 -2.2089319
2028 -2.1372879
2026 -2.1308079
2024 -2.16312
2022 -2.1908681
2020 -2.187129
2018 -2.1445279
2016 -2.10202
2014 -2.11075
2012 -2.1882572
2010 -2.3276098
2008 -2.4897366
2006 -2.6278021
2004 -2.7210844
2002 -2.7637799
2000 -2.7591445
1998 -2.7139878
1996 -2.6369929
1994 -2.5415342
1992 -2.4581976
1990 -2.4209173
1988 -2.443224
1986 -2.5226507
1984 -2.6315165
1982 -2.7329199
1980 -2.7986472
1978 -2.8086178
1976 -2.75596
1974 -2.6445811
1972 -2.4991541
1970 -2.3551424
1968 -2.2529562
1966 -2.2260678
1964 -2.2706056
1962 -2.3606858
1960 -2.4560678
1958 -2.5178423
1956 -2.5374928
1954 -2.5241566
1952 -2.4944348
1950 -2.4661481
1948 -2.450032
1946 -2.4517
1944 -2.4695439
1942 -2.4976385
1940 -2.5267019
1938 -2.5467272
1936 -2.5525858
1934 -2.5441287
1932 -2.5306399
1930 -2.5237503
1928 -2.525696
1926 -2.5282714
1924 -2.5035405
1922 -2.4228733
1920 -2.2993007
1918 -2.1664829
1916 -2.0457215
1914 -1.9452395
1912 -1.8561177
1910 -1.7696942
1908 -1.7172025
1906 -1.7424879
1904 -1.844556
1902 -1.9896755
1900 -2.1181531
1898 -2.1685908
1896 -2.1257999
1894 -2.0086238
1892 -1.8654603
1890 -1.7552819
1888 -1.7203434
1886 -1.7796285
1884 -1.8994011
1882 -2.020438
1880 -2.1016805
1878 -2.1237447
1876 -2.10377
1874 -2.0718868
1872 -2.0274217
1870 -1.9527076
1868 -1.84398
1866 -1.7146878
1864 -1.6075376
1862 -1.572028
1860 -1.6138506
1858 -1.7096545
1856 -1.8330371
1854 -1.9616622
1852 -2.086601
1850 -2.2062085
1848 -2.314384
1846 -2.4003928
1844 -2.4479489
1842 -2.4411991
1840 -2.379936
1838 -2.2743299
1836 -2.1356258
1834 -1.9715601
1832 -1.7756703
1830 -1.5420492
1828 -1.307518
1826 -1.1336157
1824 -1.0650445
1822 -1.1194909
1820 -1.255294
1818 -1.3971413
1816 -1.4841399
1814 -1.480714
1812 -1.4042343
1810 -1.3039126
1808 -1.2218879
1806 -1.187185
1804 -1.2080375
1802 -1.2755893
1800 -1.3614583
1798 -1.4241055
1796 -1.4155929
1794 -1.2994695
1792 -1.1050639
1790 -0.89883626
1788 -0.71181321
1786 -0.54301512
1784 -0.38186938
1782 -0.21920563
1780 -0.065161258
1778 0.063022107
1776 0.17860143
1774 0.31172365
1772 0.46419275
1770 0.60695553
1768 0.67474133
1766 0.601596
1764 0.4226048
1762 0.23351851
1760 0.063286282
1758 -0.10323066
1756 -0.21672913
1754 -0.18827671
1752 0.0023833886
1750 0.305659
1748 0.61482638
1746 0.80209786
1744 0.80005455
1742 0.6151222
1740 0.36714503
1738 0.22980522
1736 0.26657
1734 0.429382
1732 0.58701301
1730 0.58540183
1728 0.39445582
1726 0.097746879
1724 -0.16399318
1722 -0.222418
1720 0.08452034
1718 0.86113846
1716 1.9842899
1714 3.1733029
1712 4.231873
1710 5.0968027
1708 5.897222
1706 6.8983722
1704 8.3590851
1702 10.490185
1700 13.396854
1698 17.037056
1696 21.045715
1694 24.863091
1692 28.183886
1690 31.024466
1688 33.762394
1686 36.992111
1684 41.127949
1682 46.266209
1680 51.88036
1678 57.104324
1676 61.749184
1674 66.260391
1672 71.05378
1670 76.301682
1668 81.638039
1666 86.339699
1664 90.032692
1662 92.740318
1660 94.619675
1658 95.861931
1656 96.590317
1654 96.857651
1652 96.69854
1650 96.136765
1648 95.15863
1646 93.744675
1644 91.996552
1642 90.100647
1640 88.115349
1638 85.950066
1636 83.439758
1634 80.414787
1632 76.883728
1630 73.005089
1628 68.854462
1626 64.405777
1624 59.658722
1622 54.679733
1620 49.647182
1618 44.820068
1616 40.386715
1614 36.441994
1612 33.033047
1610 30.16643
1608 27.785908
1606 25.78787
1604 24.098143
1602 22.683994
1600 21.538109
1598 20.668957
1596 20.07
1594 19.716839
1592 19.585571
1590 19.657766
1588 19.930346
1586 20.412279
1584 21.098755
1582 21.981649
1580 23.115234
1578 24.615347
1576 26.573887
1574 29.015213
1572 31.820669
1570 34.747662
1568 37.614281
1566 40.335121
1564 42.854053
1562 45.171844
1560 47.52055
1558 50.284874
1556 53.434071
1554 56.454361
1552 58.806355
1550 60.111454
1548 60.413116
1546 60.130787
1544 59.463356
1542 58.285625
1540 56.471657
1538 54.022007
1536 51.208374
1534 48.530945
1532 46.277977
1530 44.428711
1528 42.843407
1526 41.319801
1524 39.66061
1522 37.713879
1520 35.462742
1518 33.045502
1516 30.656887
1514 28.475782
1512 26.451561
1510 24.290743
1508 21.796715
1506 18.988157
1504 16.11212
1502 13.586849
1500 11.599826
1498 10.017389
1496 8.6502714
1494 7.3409433
1492 6.0327039
1490 4.7750688
1488 3.5971658
1486 2.484025
1484 1.4618578
1482 0.61738849
1480 0.03574115
1478 -0.21066342
1476 -0.022997141
1474 0.7020573
1472 1.900032
1470 3.305882
1468 4.6952248
1466 5.9651656
1464 7.1097307
1462 8.2113037
1460 9.34867
1458 10.554384
1456 11.7596
1454 12.784388
1452 13.474508
1450 13.753727
1448 13.64256
1446 13.2635
1444 12.74406
1442 12.17865
1440 11.614068
1438 11.036101
1436 10.395991
1434 9.6277552
1432 8.7315855
1430 7.8021297
1428 6.9532399
1426 6.2859449
1424 5.8423886
1422 5.5868745
1420 5.4678879
1418 5.4400063
1416 5.484014
1414 5.6144357
1412 5.844223
1410 6.1710763
1408 6.5736856
1406 7.008975
1404 7.4300656
1402 7.7910829
1400 8.044836
1398 8.1449423
1396 8.0627146
1394 7.7998476
1392 7.3923898
1390 6.9145708
1388 6.4321017
1386 5.9834499
1384 5.5887718
1382 5.2473388
1380 4.9403439
1378 4.6282301
1376 4.2653232
1374 3.8094649
1372 3.253222
1370 2.6399739
1368 2.0192509
1366 1.4298779
1364 0.89295793
1362 0.40944961
1360 -0.0034981221
1358 -0.29915839
1356 -0.43952057
1354 -0.41143131
1352 -0.21185383
1350 0.15241754
1348 0.65723169
1346 1.2562572
1344 1.9099159
1342 2.5940337
1340 3.2671514
1338 3.8545103
1336 4.2768145
1334 4.4670777
1332 4.4076476
1330 4.1570368
1328 3.7896821
1326 3.3772335
1324 2.9852166
1322 2.6667936
1320 2.4513555
1318 2.3294616
1316 2.2626801
1314 2.1817384
1312 2.0326319
1310 1.8026918
1308 1.5113482
1306 1.2160364
1304 0.97429496
1302 0.8263641
1300 0.79356718
1298 0.87111157
1296 1.0486071
1294 1.3171701
1292 1.6738183
1290 2.1234643
1288 2.660008
1286 3.2532935
1284 3.859278
1282 4.4209881
1280 4.8905048
1278 5.2440343
1276 5.478683
1274 5.6204829
1272 5.7082548
1270 5.7902493
1268 5.909996
1266 6.0978208
1264 6.3748946
1262 6.7516022
1260 7.2350121
1258 7.830061
1256 8.5387373
1254 9.3573332
1252 10.278505
1250 11.290063
1248 12.375868
1246 13.51675
1244 14.6821
1242 15.815679
1240 16.847126
1238 17.686563
1236 18.254385
1234 18.498964
1232 18.3876
1230 17.920843
1228 17.122402
1226 16.047121
1224 14.765343
1222 13.367549
1220 11.951712
1218 10.619515
1216 9.461463
1214 8.5369434
1212 7.8868942
1210 7.5230908
1208 7.4290733
1206 7.540947
1204 7.760242
1202 7.9435539
1200 7.9599938
1198 7.7323093
1196 7.2346644
1194 6.5228624
1192 5.6775141
1190 4.7891788
1188 3.9349012
1186 3.1566622
1184 2.4811046
1182 1.919462
1180 1.4813745
1178 1.179812
1176 1.016202
1174 0.96398461
1172 0.98697281
1170 1.0434624
1168 1.1043897
1166 1.1708329
1164 1.2428237
1162 1.301304
1160 1.3211675
1158 1.2760266
1156 1.1587787
1154 1.006725
1152 0.86076993
1150 0.74470085
1148 0.66281217
1146 0.58529145
1144 0.48571557
1142 0.36368099
1140 0.21899757
1138 0.039519116
1136 -0.17208201
1134 -0.37231803
1132 -0.51633954
1130 -0.5804112
1128 -0.55675602
1126 -0.46392208
1124 -0.32766074
1122 -0.17472315
1120 -0.021395281
1118 0.14170654
1116 0.32550943
1114 0.5290271
1112 0.74266273
1110 0.94288111
1108 1.1071285
1106 1.22409
1104 1.2900937
1102 1.3146559
1100 1.3137006
1098 1.3123991
1096 1.3403
1094 1.4327369
1092 1.624146
1090 1.9419774
1088 2.3941314
1086 2.9411385
1084 3.5161479
1082 4.0124464
1080 4.3358779
1078 4.452486
1076 4.3652272
1074 4.1350121
1072 3.8261251
1070 3.475234
1068 3.1176732
1066 2.8034005
1064 2.5867958
1062 2.5217998
1060 2.6314309
1058 2.854269
1056 3.1028628
1054 3.2769272
1052 3.3011096
1050 3.1787322
1048 2.9447868
1046 2.6681392
1044 2.4154246
1042 2.2222109
1040 2.1141233
1038 2.1093791
1036 2.2167299
1034 2.4214792
1032 2.685765
1030 2.9217467
1028 3.0464098
1026 3.027307
1024 2.864044
1022 2.613925
1020 2.3363342
1018 2.05427
1016 1.7783142
1014 1.5084704
1012 1.2413601
1010 0.97139239
1008 0.69180322
1006 0.39536852
1004 0.087959573
1002 -0.18402717
1000 -0.37528223
998 -0.47569644
996 -0.49396715
994 -0.47062099
992 -0.44727764
990 -0.44406709
988 -0.47424981
986 -0.54561234
984 -0.6569351
982 -0.78196597
980 -0.88489217
978 -0.91968733
976 -0.8529954
974 -0.7022807
972 -0.50487971
970 -0.32226804
968 -0.21114646
966 -0.19168049
964 -0.26367977
962 -0.38865849
960 -0.52013093
958 -0.61716461
956 -0.65125316
954 -0.63195086
952 -0.57218915
950 -0.46397001
948 -0.30232716
946 -0.11104675
944 0.089916676
942 0.31936717
940 0.59444797
938 0.8921755
936 1.1935829
934 1.5302218
932 1.9290491
930 2.3536482
928 2.7528224
926 3.0791099
924 3.296438
922 3.4065013
920 3.4272611
918 3.4017308
916 3.3789899
914 3.4073155
912 3.5178137
910 3.6762781
908 3.8334651
906 3.9454751
904 3.9981167
902 4.089004
900 4.3234487
898 4.7252183
896 5.2972999
