Image.
>Pix99999.
  .
5555
5555
2300
900
5555
2
1
0
701
5555
5.7381999e-002
5.8576290e-002
5.9769586e-002
6.0963873e-002
6.2157173e-002
6.3351452e-002
6.4544752e-002
6.5739043e-002
6.6932343e-002
6.8126619e-002
6.9319934e-002
7.0513226e-002
7.1707495e-002
7.2900802e-002
7.4095085e-002
7.5288393e-002
7.6482661e-002
7.7675983e-002
7.8870244e-002
8.0063567e-002
8.1257835e-002
8.2451150e-002
8.3645411e-002
8.4838733e-002
8.6032994e-002
8.7226324e-002
3.2432359e-002
1.1693700e-003
-1.8566400e-002
1.8095089e-002
6.3022755e-002
1.1093950e-001
1.5699577e-001
1.5675597e-001
1.5280575e-001
1.3703950e-001
1.2443875e-001
1.2899981e-001
1.3890791e-001
1.6226450e-001
2.0045686e-001
2.6939020e-001
3.2880259e-001
3.6975086e-001
3.7104732e-001
3.2432464e-001
3.2402560e-001
3.7141392e-001
4.7220948e-001
6.1058438e-001
6.4700782e-001
6.2319195e-001
5.1074082e-001
3.6117598e-001
2.5727201e-001
1.6900793e-001
1.2685800e-001
9.5081888e-002
9.3145065e-002
9.6123874e-002
1.4366798e-001
1.9561422e-001
2.5094390e-001
3.0400079e-001
3.4221360e-001
3.7050828e-001
3.6790648e-001
3.5371530e-001
3.1771767e-001
3.0425555e-001
3.3775899e-001
3.9997122e-001
4.9674082e-001
5.7340765e-001
6.2338501e-001
6.3813895e-001
6.2420923e-001
5.7992589e-001
5.1659411e-001
4.3786839e-001
3.5182914e-001
2.9046994e-001
2.3982668e-001
2.1767594e-001
2.0430399e-001
2.1174143e-001
2.2385657e-001
2.4813983e-001
2.7457353e-001
3.0559704e-001
3.4026071e-001
3.9719751e-001
4.4883206e-001
4.6270934e-001
4.4693857e-001
3.5834950e-001
2.5536308e-001
1.4428958e-001
4.9335442e-002
-1.6552988e-002
-4.3512002e-002
-2.5133327e-002
3.8899064e-002
1.4336470e-001
2.3206657e-001
3.0296901e-001
3.0943990e-001
2.7500984e-001
2.5868684e-001
2.5469241e-001
3.2043898e-001
4.1454002e-001
4.7586438e-001
5.2565807e-001
5.1230496e-001
4.8378384e-001
4.5729858e-001
4.3388423e-001
4.3712547e-001
4.4383049e-001
4.4064286e-001
4.1522697e-001
3.1696770e-001
1.9504088e-001
4.9127638e-002
-7.8059927e-002
-1.5972738e-001
-2.1425515e-001
-2.4100675e-001
-2.4157926e-001
-2.1696143e-001
-1.5359579e-001
-5.7172149e-002
5.0473168e-002
1.6234910e-001
2.6376450e-001
3.5802925e-001
4.2987019e-001
4.9058959e-001
4.6306008e-001
3.9900398e-001
2.6500341e-001
1.0871252e-001
-2.0605642e-003
-9.8744452e-002
-1.6925322e-001
-2.3848565e-001
-3.4575689e-001
-4.5729789e-001
-5.4556507e-001
-6.0636002e-001
-6.0192311e-001
-5.8678967e-001
-5.8399409e-001
-6.0148859e-001
-6.4906013e-001
-6.9036394e-001
-7.1301091e-001
-7.1937770e-001
-7.1221644e-001
-6.7340833e-001
-6.0805088e-001
-4.4903630e-001
-2.2247505e-001
-2.2398310e-002
1.5298998e-001
7.9058893e-002
-1.2433504e-001
-4.0072480e-001
-7.0175540e-001
-8.6128587e-001
-9.6731508e-001
-1.0196157e+000
-1.0538465e+000
-1.0742228e+000
-1.0920000e+000
-1.1192816e+000
-1.1608950e+000
-1.2428700e+000
-1.3350021e+000
-1.4210229e+000
-1.4771023e+000
-1.4765940e+000
-1.4226419e+000
-1.3092715e+000
-1.1348728e+000
-9.0235311e-001
-6.3562250e-001
-3.4829429e-001
-1.7082800e-001
-9.6920513e-002
-1.4287458e-001
-2.6271632e-001
-3.8073415e-001
-4.8850420e-001
-6.4153630e-001
-8.2024682e-001
-9.9500704e-001
-1.1664183e+000
-1.1629392e+000
-1.0825857e+000
-8.9654636e-001
-6.8146718e-001
-5.4784560e-001
-4.8401898e-001
-5.8534497e-001
-7.7236152e-001
-1.0331023e+000
-1.2883617e+000
-1.4690214e+000
-1.5400800e+000
-1.4568120e+000
-1.2341366e+000
-8.7859964e-001
-5.5506885e-001
-3.2286200e-001
-3.2157028e-001
-5.3594571e-001
-8.1810480e-001
-1.1111224e+000
-1.3004543e+000
-1.4078227e+000
-1.3878709e+000
-1.2930731e+000
-1.0932080e+000
-8.3855784e-001
-7.2037804e-001
-6.8316936e-001
-8.8892055e-001
-1.1991994e+000
-1.4281129e+000
-1.5719020e+000
-1.4678234e+000
-1.2205744e+000
-8.5686141e-001
-5.2143228e-001
-3.9689064e-001
-4.6602163e-001
-7.6194417e-001
-1.1186900e+000
-1.4279486e+000
-1.6135085e+000
-1.6458031e+000
-1.5827279e+000
-1.4658645e+000
-1.3196900e+000
-1.1597641e+000
-9.6408677e-001
-7.3907757e-001
-5.0523651e-001
-2.6957929e-001
-7.0113868e-002
1.0357536e-001
2.0970060e-001
2.7516648e-001
3.1668371e-001
3.4716508e-001
3.9175805e-001
4.5334992e-001
5.7449776e-001
7.4551743e-001
9.9403447e-001
1.2244903e+000
1.2751511e+000
1.1590645e+000
8.4918106e-001
5.0888878e-001
2.8361934e-001
8.2789034e-002
-1.5935302e-001
-2.8267500e-001
-2.1535328e-001
2.0684777e-001
9.8116475e-001
1.8313403e+000
2.6469500e+000
2.9883468e+000
2.8872521e+000
2.6089635e+000
2.2579823e+000
2.1312602e+000
2.1851795e+000
2.0839992e+000
1.8486055e+000
1.2834399e+000
5.3049964e-001
1.2080655e-002
-2.4814780e-001
1.0471410e-001
9.8941767e-001
2.3125644e+000
3.7044094e+000
4.6394119e+000
5.2846737e+000
5.8250360e+000
6.6282802e+000
8.0290871e+000
1.0205968e+001
1.3205392e+001
1.6699171e+001
2.0422144e+001
2.3696030e+001
2.6307669e+001
2.8703203e+001
3.1079571e+001
3.4280678e+001
3.8320000e+001
4.2945740e+001
4.7969803e+001
5.2167820e+001
5.5626659e+001
5.9088558e+001
6.2637764e+001
6.6821732e+001
7.1481415e+001
7.6130402e+001
8.0726776e+001
8.5127037e+001
8.9306435e+001
9.3191666e+001
9.6777740e+001
1.0006155e+002
1.0280220e+002
1.0473863e+002
1.0515532e+002
1.0351714e+002
1.0060563e+002
9.7175606e+001
9.3656700e+001
9.0318604e+001
8.6624657e+001
8.2384521e+001
7.7854752e+001
7.3166130e+001
6.8682350e+001
6.4460777e+001
6.0206440e+001
5.5877361e+001
5.1691021e+001
4.7655155e+001
4.3791912e+001
4.0117123e+001
3.6734604e+001
3.3684792e+001
3.1083189e+001
2.8912521e+001
2.7044065e+001
2.5483170e+001
2.4188805e+001
2.3180210e+001
2.2441500e+001
2.1947090e+001
2.1628641e+001
2.1439661e+001
2.1316031e+001
2.1315329e+001
2.1468166e+001
2.1848949e+001
2.2482794e+001
2.3403881e+001
2.4608229e+001
2.5977417e+001
2.7465080e+001
2.8848785e+001
3.0079720e+001
3.1217808e+001
3.2278633e+001
3.3677536e+001
3.5525589e+001
3.8281387e+001
4.1886742e+001
4.5113129e+001
4.7775753e+001
4.9487297e+001
5.0409103e+001
5.1396393e+001
5.2463531e+001
5.3614326e+001
5.4466560e+001
5.4444283e+001
5.3583656e+001
5.2078106e+001
5.0368492e+001
4.8931946e+001
4.7727264e+001
4.6711300e+001
4.5651817e+001
4.4405476e+001
4.2727497e+001
4.0481487e+001
3.8094486e+001
3.5690159e+001
3.3465759e+001
3.1487961e+001
2.9101362e+001
2.6152800e+001
2.3062229e+001
1.9875710e+001
1.7242926e+001
1.5246910e+001
1.3397715e+001
1.1707682e+001
1.0065857e+001
8.4582148e+000
6.8182321e+000
5.1429911e+000
3.4411821e+000
1.8817677e+000
7.2228956e-001
6.5589391e-002
2.6111290e-002
5.7140452e-001
1.5410851e+000
2.5038929e+000
3.1543231e+000
3.5926492e+000
3.8482206e+000
4.2289343e+000
4.9035692e+000
5.7206740e+000
6.6774802e+000
7.3080935e+000
7.4034376e+000
7.2475247e+000
6.7580519e+000
6.2791071e+000
5.8223886e+000
5.4197121e+000
5.0980549e+000
4.8573766e+000
4.6936202e+000
4.4963603e+000
4.2416677e+000
3.9026864e+000
3.5386221e+000
3.3004928e+000
3.2433515e+000
3.4233308e+000
3.7826743e+000
4.2291727e+000
4.6423259e+000
4.8845210e+000
5.0159616e+000
5.0603046e+000
5.1230044e+000
5.2769499e+000
5.5118251e+000
5.8616529e+000
6.2405958e+000
6.6419477e+000
6.9457712e+000
7.0637875e+000
7.0621519e+000
6.8649583e+000
6.6337352e+000
6.3462901e+000
6.0136571e+000
5.6232424e+000
5.2283759e+000
4.8415623e+000
4.5038915e+000
4.2032795e+000
3.8706381e+000
3.4997644e+000
3.0926857e+000
2.6698341e+000
2.2720675e+000
1.8828912e+000
1.4785514e+000
1.0809274e+000
7.1747589e-001
4.1068617e-001
2.0786387e-001
6.0909562e-002
-3.1004615e-002
-8.2533926e-002
-3.5620078e-002
9.7175434e-002
3.9246893e-001
6.7387593e-001
9.0581715e-001
1.0187666e+000
9.2510194e-001
8.2899165e-001
7.4786687e-001
7.6539296e-001
9.3213969e-001
1.1923034e+000
1.5640628e+000
1.9650335e+000
2.3632202e+000
2.6535475e+000
2.8133051e+000
2.8267965e+000
2.7323265e+000
2.6028109e+000
2.4645481e+000
2.3557439e+000
2.2747183e+000
2.2367225e+000
2.2344570e+000
2.2925401e+000
2.3809412e+000
2.5138593e+000
2.6543360e+000
2.7978866e+000
2.9366755e+000
3.0627227e+000
3.1888149e+000
3.3144798e+000
3.4370842e+000
3.5523160e+000
3.6567538e+000
3.7461984e+000
3.8455193e+000
3.9671028e+000
4.1308365e+000
4.3481278e+000
4.5934162e+000
4.8639040e+000
5.1315484e+000
5.4056888e+000
5.7119498e+000
6.0606380e+000
6.4890189e+000
6.9665999e+000
7.4785738e+000
7.9866681e+000
8.4385023e+000
8.8386278e+000
9.1194973e+000
9.3273916e+000
9.3696918e+000
9.3413954e+000
9.1378231e+000
8.8881283e+000
8.5186100e+000
8.1235199e+000
7.6682892e+000
7.2039709e+000
6.7234573e+000
6.2499557e+000
5.7879653e+000
5.3272958e+000
4.8654666e+000
4.3896899e+000
3.8999820e+000
3.4148922e+000
2.9431176e+000
2.5131202e+000
2.1192214e+000
1.7531085e+000
1.4020965e+000
1.0485122e+000
7.0827693e-001
4.2782527e-001
1.9763966e-001
9.3406767e-002
3.8220853e-002
6.6713929e-002
1.1840960e-001
2.1794449e-001
3.3538729e-001
5.1092935e-001
6.8415630e-001
8.4793776e-001
9.8735207e-001
1.0688840e+000
1.1539675e+000
1.2484810e+000
1.3601586e+000
1.4908466e+000
1.5732583e+000
1.5751330e+000
1.4653360e+000
1.2278607e+000
9.1781867e-001
5.6092393e-001
2.7418274e-001
7.1108982e-002
7.0037574e-002
2.0899490e-001
5.3182006e-001
9.2906570e-001
1.3475120e+000
1.7480493e+000
2.0236332e+000
2.2652378e+000
2.4443760e+000
2.6223106e+000
2.8244901e+000
3.0244765e+000
3.2130435e+000
3.3956380e+000
3.5587952e+000
3.7178950e+000
3.8673086e+000
4.0194602e+000
4.1813712e+000
4.3804936e+000
4.6458569e+000
4.9861698e+000
5.4210501e+000
5.8877945e+000
6.3697333e+000
6.7429199e+000
7.0185432e+000
7.1868901e+000
7.3027773e+000
7.4946060e+000
7.7234015e+000
7.9729505e+000
8.1972132e+000
8.1908913e+000
8.1110687e+000
7.8664637e+000
7.6155682e+000
7.4758906e+000
7.3665743e+000
7.4186125e+000
7.4898686e+000
7.6447783e+000
7.8064804e+000
7.9871058e+000
8.1448154e+000
8.2452898e+000
8.3172827e+000
8.3354626e+000
8.3383455e+000
8.3184795e+000
8.2896099e+000
8.2469406e+000
8.1656704e+000
8.0386829e+000
7.7943664e+000
7.4646935e+000
7.0811224e+000
6.6794748e+000
6.3812690e+000
6.1280193e+000
5.9314427e+000
5.7388067e+000
5.4206371e+000
5.0650673e+000
4.5262079e+000
3.9704113e+000
3.3956990e+000
2.8445411e+000
2.4560361e+000
2.0929837e+000
1.8422714e+000
1.5971611e+000
1.3704515e+000
1.1545300e+000
9.6298456e-001
7.6918954e-001
5.7000113e-001
3.4730810e-001
9.5406801e-002
-1.2230451e-001
-2.9974288e-001
-3.8970381e-001
-4.1026747e-001
-4.3196505e-001
-4.5641378e-001
-5.1973903e-001
-5.9322673e-001
-5.2009743e-001
-3.9469004e-001
-1.6318882e-001
8.2012862e-002
1.2670219e-001
1.4170228e-001
2.3929738e-002
-8.7200880e-002
-2.8739572e-002
8.6204559e-003
2.6031294e-001
5.3319770e-001
8.9524996e-001
1.2319057e+000
1.4926643e+000
1.6940312e+000
1.7679650e+000
1.7977766e+000
1.7585057e+000
1.7693360e+000
1.8424839e+000
1.9934331e+000
2.2155776e+000
2.3659272e+000
2.4654274e+000
2.5450909e+000
2.6161141e+000
2.8777716e+000
3.2112107e+000
3.3942218e+000
3.5350587e+000
3.0358768e+000
2.4336610e+000
1.8473001e+000
