Image.
>Pix99999.
  .
5555
5555
2300
900
5555
2
1
0
701
5555
1.1587000e-001
1.1827656e-001
1.2069309e-001
1.2309967e-001
1.2551618e-001
1.2792279e-001
1.3032934e-001
1.3274580e-001
1.3515246e-001
1.3755903e-001
1.3997543e-001
1.4238212e-001
1.4479852e-001
1.4720523e-001
1.4961180e-001
1.5203793e-001
1.5443514e-001
1.5681219e-001
1.5925699e-001
1.6182025e-001
1.6408543e-001
1.6593480e-001
1.6888604e-001
1.7339016e-001
1.7379110e-001
1.6006857e-001
1.1138826e-001
1.4569700e-002
-1.0064800e-001
-2.0044738e-001
-2.8337115e-001
-3.5681048e-001
-4.2612475e-001
-4.9284557e-001
-5.4574019e-001
-5.7149798e-001
-5.6316793e-001
-5.1916671e-001
-4.5161811e-001
-3.7375358e-001
-2.8664428e-001
-1.8992545e-001
-9.2095301e-002
-6.7058923e-003
4.3317787e-002
4.0327944e-002
-4.9363216e-004
-5.2465845e-002
-8.3217412e-002
-6.7274794e-002
-1.3670036e-002
5.6146510e-002
1.1410400e-001
1.3567960e-001
1.1845829e-001
7.0724450e-002
1.5546679e-002
-2.1752521e-002
-2.5359193e-002
1.1892442e-002
7.4804030e-002
1.4226258e-001
1.9846262e-001
2.3363480e-001
2.5483778e-001
2.7272645e-001
2.9022908e-001
3.0612251e-001
3.1341732e-001
3.0477330e-001
2.7908200e-001
2.3910320e-001
1.9463623e-001
1.5840128e-001
1.4546415e-001
1.6756643e-001
2.2000258e-001
2.8931120e-001
3.4973344e-001
3.7538582e-001
3.5678315e-001
2.9422155e-001
2.0365746e-001
1.0611314e-001
2.1047840e-002
-3.2974280e-002
-3.7978992e-002
1.6933918e-002
1.1422762e-001
2.2476397e-001
3.1456029e-001
3.5650799e-001
3.5791367e-001
3.3848292e-001
3.1588501e-001
3.0256227e-001
2.9427150e-001
2.8210616e-001
2.6373920e-001
2.4100095e-001
2.2149999e-001
2.1347745e-001
2.1886756e-001
2.3638308e-001
2.6162109e-001
2.8932151e-001
3.1526038e-001
3.3484605e-001
3.4031862e-001
3.2475856e-001
2.9030243e-001
2.4467249e-001
2.0354639e-001
1.8226373e-001
1.8202862e-001
1.9575264e-001
2.0627572e-001
1.9533215e-001
1.5633692e-001
8.9443937e-002
2.0651426e-003
-9.5278233e-002
-1.9074680e-001
-2.7223548e-001
-3.2830903e-001
-3.5043606e-001
-3.4101099e-001
-3.0838484e-001
-2.6630235e-001
-2.2875957e-001
-2.0195714e-001
-1.8709548e-001
-1.7923662e-001
-1.7136660e-001
-1.5848383e-001
-1.3484657e-001
-8.7247528e-002
-3.2304348e-003
1.1226615e-001
2.3954016e-001
3.3030000e-001
3.3552980e-001
2.5617445e-001
1.2318772e-001
-4.8501007e-003
-7.0133820e-002
-6.6185012e-002
-1.5033698e-002
4.3979429e-002
7.2307177e-002
6.2760860e-002
2.5909536e-002
-1.6537715e-002
-4.3651458e-002
-5.6224141e-002
-6.6883244e-002
-9.3361899e-002
-1.5115461e-001
-2.3871481e-001
-3.4190378e-001
-4.2849886e-001
-4.6309760e-001
-4.3196160e-001
-3.4280702e-001
-2.4719834e-001
-2.0882607e-001
-2.5364560e-001
-3.7613833e-001
-5.2281642e-001
-6.2830067e-001
-6.7357773e-001
-6.6916066e-001
-6.4459711e-001
-6.3043189e-001
-6.2762427e-001
-6.2159002e-001
-5.9880972e-001
-5.5107087e-001
-4.8563182e-001
-4.1782537e-001
-3.6363029e-001
-3.3677509e-001
-3.4226701e-001
-3.7775981e-001
-4.2886519e-001
-4.7392586e-001
-4.8603067e-001
-4.4168106e-001
-3.4226775e-001
-2.0454220e-001
-5.2576341e-002
8.7920383e-002
1.9651720e-001
2.5648877e-001
2.5353640e-001
1.8293835e-001
7.7082321e-002
-1.2382835e-002
-3.9741196e-002
2.5263829e-002
1.6771743e-001
3.4452572e-001
4.9902484e-001
5.7565993e-001
5.4778951e-001
4.1510743e-001
2.1799557e-001
1.5250780e-002
-1.4964908e-001
-2.4775259e-001
-2.6572502e-001
-2.0031862e-001
-5.7108201e-002
1.4449769e-001
3.4340742e-001
4.6347579e-001
4.6979824e-001
3.6542389e-001
2.0144126e-001
4.5095325e-002
-8.1153676e-002
-1.8563902e-001
-2.8071934e-001
-3.7355933e-001
-4.5098880e-001
-4.8990074e-001
-4.7851041e-001
-4.1711348e-001
-3.2274714e-001
-2.1842813e-001
-1.1105010e-001
5.0812103e-003
1.4202461e-001
3.0630615e-001
4.6695966e-001
5.7242692e-001
5.8753961e-001
5.0054681e-001
3.4548500e-001
1.8067268e-001
4.7075227e-002
-3.4998350e-002
-7.2803393e-002
-8.4934033e-002
-6.7004681e-002
-3.5133511e-003
9.3891218e-002
1.9162489e-001
2.4785382e-001
2.3234297e-001
1.8162642e-001
1.6867258e-001
2.2537960e-001
3.4412831e-001
4.8992586e-001
6.1900914e-001
7.1431983e-001
7.8053629e-001
8.2913494e-001
8.7698752e-001
9.5567775e-001
1.0917273e+000
1.2429168e+000
1.3198870e+000
1.2459754e+000
9.8625749e-001
6.2665880e-001
3.1316635e-001
7.9687886e-002
-1.2048914e-001
-2.8219372e-001
-3.5718781e-001
-3.2889298e-001
-2.2108351e-001
-1.0593025e-001
-7.6739319e-002
-1.7906323e-001
-3.9833057e-001
-6.2525082e-001
-7.0723498e-001
-5.9253800e-001
-3.3302644e-001
-6.7833483e-002
3.8210794e-002
-4.8809268e-002
-2.4167714e-001
-3.8887155e-001
-3.1693241e-001
9.3066573e-002
8.7352121e-001
1.8714472e+000
2.8237548e+000
3.5931566e+000
4.1937785e+000
4.7926340e+000
5.6505179e+000
6.9876690e+000
8.9588175e+000
1.1635732e+001
1.4973868e+001
1.8656141e+001
2.2205130e+001
2.5373302e+001
2.8198555e+001
3.1036726e+001
3.4424606e+001
3.8683918e+001
4.3814171e+001
4.9285400e+001
5.4311932e+001
5.8801998e+001
6.3283066e+001
6.8163620e+001
7.3539551e+001
7.9011787e+001
8.3872948e+001
8.7779640e+001
9.0785439e+001
9.3043961e+001
9.4718948e+001
9.5919312e+001
9.6693275e+001
9.7035980e+001
9.6899185e+001
9.6220398e+001
9.4967644e+001
9.3293945e+001
9.1481735e+001
8.9638763e+001
8.7666428e+001
8.5351959e+001
8.2457596e+001
7.8953056e+001
7.5000748e+001
7.0730675e+001
6.6201881e+001
6.1453960e+001
5.6537849e+001
5.1595276e+001
4.6843494e+001
4.2447456e+001
3.8500221e+001
3.5060589e+001
3.2152500e+001
2.9730566e+001
2.7693600e+001
2.5962385e+001
2.4498257e+001
2.3298456e+001
2.2384905e+001
2.1761501e+001
2.1404331e+001
2.1274576e+001
2.1327921e+001
2.1542803e+001
2.1922672e+001
2.2477446e+001
2.3227421e+001
2.4238585e+001
2.5618916e+001
2.7450771e+001
2.9757866e+001
3.2444382e+001
3.5309067e+001
3.8185398e+001
4.0975540e+001
4.3639526e+001
4.6212597e+001
4.8869411e+001
5.1829121e+001
5.4865086e+001
5.7319260e+001
5.8797455e+001
5.9332035e+001
5.9215984e+001
5.8872643e+001
5.8432129e+001
5.7664345e+001
5.6281380e+001
5.4083405e+001
5.1235600e+001
4.8260723e+001
4.5543022e+001
4.3197601e+001
4.1172737e+001
3.9295799e+001
3.7408810e+001
3.5414837e+001
3.3294342e+001
3.1110348e+001
2.8967972e+001
2.6975908e+001
2.5104160e+001
2.3165560e+001
2.0995523e+001
1.8530022e+001
1.5906777e+001
1.3449310e+001
1.1356777e+001
9.6179848e+000
8.1406717e+000
6.8012724e+000
5.5307684e+000
4.3329835e+000
3.2043264e+000
2.1235757e+000
1.1220247e+000
2.9999638e-001
-2.3475869e-001
-3.8194352e-001
-3.3618420e-002
8.9370561e-001
2.2905850e+000
3.8300369e+000
5.2597570e+000
6.5004177e+000
7.5963225e+000
8.6938305e+000
9.9061165e+000
1.1249817e+001
1.2597000e+001
1.3677626e+001
1.4299086e+001
1.4427103e+001
1.4132040e+001
1.3571321e+001
1.2884257e+001
1.2153740e+001
1.1429338e+001
1.0724549e+001
1.0010605e+001
9.2253351e+000
8.3500319e+000
7.4413185e+000
6.5878558e+000
5.8930755e+000
5.4232697e+000
5.1839905e+000
5.1432700e+000
5.2363539e+000
5.3991256e+000
5.5848269e+000
5.7854443e+000
6.0396924e+000
6.3790812e+000
6.8051643e+000
7.2864175e+000
7.7531857e+000
8.1300726e+000
8.3506174e+000
8.3792210e+000
8.2264700e+000
7.9337931e+000
7.5683680e+000
7.1768284e+000
6.7675800e+000
6.3424501e+000
5.9068570e+000
5.4705973e+000
5.0454807e+000
4.6236200e+000
4.1694150e+000
3.6570439e+000
3.0871675e+000
2.4784727e+000
1.8671777e+000
1.2844235e+000
7.4895287e-001
2.8668851e-001
-6.3115537e-002
-2.6798442e-001
-3.1067875e-001
-1.7635268e-001
1.4707330e-001
6.4584637e-001
1.2679964e+000
1.9647801e+000
2.7038162e+000
3.4405222e+000
4.1039672e+000
4.6103086e+000
4.8726530e+000
4.8526192e+000
4.5947447e+000
4.1747479e+000
3.6871457e+000
3.2214508e+000
2.8468177e+000
2.5982468e+000
2.4583843e+000
2.3813400e+000
2.2974730e+000
2.1596491e+000
1.9697568e+000
1.7512043e+000
1.5430000e+000
1.3746657e+000
1.2533600e+000
1.1862111e+000
1.1895198e+000
1.2861143e+000
1.5049851e+000
1.8648386e+000
2.3603795e+000
2.9623480e+000
3.6091278e+000
4.2323260e+000
4.7689066e+000
5.1802359e+000
5.4711275e+000
5.6667972e+000
5.8105187e+000
5.9422092e+000
6.0879602e+000
6.2686410e+000
6.5008621e+000
6.8007236e+000
7.1844363e+000
7.6622620e+000
8.2342253e+000
8.8993092e+000
9.6591587e+000
1.0515995e+001
1.1470685e+001
1.2512309e+001
1.3607750e+001
1.4713203e+001
1.5771919e+001
1.6725874e+001
1.7522541e+001
1.8109657e+001
1.8433693e+001
1.8443079e+001
1.8093121e+001
1.7365093e+001
1.6297987e+001
1.4961320e+001
1.3464071e+001
1.1932716e+001
1.0503118e+001
9.3011599e+000
8.4187174e+000
7.9053798e+000
7.7355661e+000
7.8417158e+000
8.1058435e+000
8.3983107e+000
8.5921631e+000
8.5861359e+000
8.3348188e+000
7.8325500e+000
7.1305995e+000
6.2955852e+000
5.3977818e+000
4.5026827e+000
3.6622694e+000
2.9207313e+000
2.3105979e+000
1.8508620e+000
1.5361028e+000
1.3493800e+000
1.2611414e+000
1.2428877e+000
1.2756083e+000
1.3440857e+000
1.4365799e+000
1.5381178e+000
1.6248960e+000
1.6725205e+000
1.6608187e+000
1.5793557e+000
1.4382391e+000
1.2546704e+000
1.0506554e+000
8.4384525e-001
6.4021075e-001
4.4794255e-001
2.8459990e-001
1.5349475e-001
2.1483265e-002
-1.3382657e-001
-2.8971261e-001
-4.1897047e-001
-5.0998324e-001
-5.6049198e-001
-5.8176374e-001
-5.8800930e-001
-5.9190357e-001
-5.9722239e-001
-5.8793569e-001
-5.5220675e-001
-5.0022382e-001
-4.4839853e-001
-4.1453370e-001
-4.0798324e-001
-4.1599551e-001
-4.1961566e-001
-3.9731362e-001
-3.2423663e-001
-1.6973329e-001
8.8230550e-002
4.4523147e-001
8.8181299e-001
1.3568816e+000
1.8311388e+000
2.2836356e+000
2.6959906e+000
3.0453084e+000
3.3063359e+000
3.4515491e+000
3.4615815e+000
3.3401453e+000
3.1082926e+000
2.8175740e+000
2.5292287e+000
2.3086865e+000
2.2041121e+000
2.2127662e+000
2.3072436e+000
2.4268498e+000
2.5122344e+000
2.5313187e+000
2.4722321e+000
2.3618979e+000
2.2350538e+000
2.1215498e+000
2.0429583e+000
2.0008945e+000
1.9945577e+000
2.0299911e+000
2.1119599e+000
2.2356701e+000
2.3904867e+000
2.5546730e+000
2.7045577e+000
2.8184109e+000
2.8711281e+000
2.8258669e+000
2.6496377e+000
2.3303912e+000
1.8814172e+000
1.3767265e+000
9.0019321e-001
5.2001500e-001
2.7167121e-001
1.0250811e-001
-5.5030689e-002
-2.4641921e-001
-4.9350560e-001
-7.6149482e-001
-1.0102342e+000
-1.2268800e+000
-1.4087315e+000
-1.5637255e+000
-1.6994834e+000
-1.8129572e+000
-1.8987761e+000
-1.9516259e+000
-1.9655480e+000
-1.9333967e+000
-1.8505429e+000
-1.7217298e+000
-1.5587497e+000
-1.3896768e+000
-1.2417085e+000
-1.1271100e+000
-1.0457989e+000
-9.7072816e-001
-8.7317890e-001
-7.4175096e-001
-5.7969403e-001
-4.2545116e-001
-3.1354079e-001
-2.3428303e-001
-1.6280884e-001
-5.9537463e-002
1.1176938e-001
3.6185288e-001
6.7779845e-001
9.8492438e-001
1.2163743e+000
1.3894167e+000
1.5325747e+000
1.6391352e+000
1.6970377e+000
1.7066751e+000
1.6826060e+000
1.6792443e+000
1.7473503e+000
1.8849866e+000
2.0682843e+000
2.2411618e+000
2.3540983e+000
2.4149301e+000
2.4584343e+000
2.5683513e+000
2.8282344e+000
3.2718854e+000
3.8978472e+000
4.6132860e+000
5.3027000e+000
