Image.
>Pix99999.
  .
5555
5555
2300
900
5555
2
1
0
701
5555
9.2363000e-002
9.4284251e-002
9.6205503e-002
9.8126754e-002
1.0004900e-001
1.0196628e-001
1.0389346e-001
1.0581080e-001
1.0773794e-001
1.0965531e-001
1.1157257e-001
1.1349967e-001
1.1541709e-001
1.1734416e-001
1.1926160e-001
1.2118864e-001
1.2310611e-001
1.2502338e-001
1.2695037e-001
1.2886789e-001
1.3079485e-001
1.3271241e-001
1.3463934e-001
1.3655691e-001
1.3847417e-001
1.4040107e-001
1.5267904e-001
5.9072147e-003
-1.6973759e-001
-3.9161628e-001
-6.2034410e-001
-6.7084521e-001
-7.0328623e-001
-6.1864984e-001
-5.2285308e-001
-3.8341302e-001
-2.4023794e-001
-9.0747848e-002
2.9821353e-002
6.0896974e-002
4.9689256e-002
-4.2851280e-002
-1.5213865e-001
-2.8083938e-001
-4.2580280e-001
-5.8951390e-001
-7.1977466e-001
-8.1654090e-001
-7.8985292e-001
-6.7248130e-001
-5.2662432e-001
-3.6789402e-001
-3.2458130e-001
-3.3233654e-001
-4.0726697e-001
-5.0290304e-001
-6.1917281e-001
-7.3986816e-001
-8.2858592e-001
-9.1085356e-001
-8.5992312e-001
-7.9449791e-001
-7.0389777e-001
-6.2265891e-001
-6.0913450e-001
-5.9990937e-001
-5.8260036e-001
-5.4834473e-001
-4.7265336e-001
-3.9778668e-001
-3.3226499e-001
-3.0391079e-001
-3.2801336e-001
-4.0707031e-001
-5.4189801e-001
-6.7957574e-001
-8.1464392e-001
-8.3727437e-001
-7.8204012e-001
-6.2360793e-001
-4.1323057e-001
-2.8054565e-001
-1.8238848e-001
-2.4270622e-001
-3.5249922e-001
-5.1562256e-001
-6.9042909e-001
-8.0677229e-001
-9.1186261e-001
-9.8100758e-001
-1.0494106e+000
-1.1492150e+000
-1.2552160e+000
-1.3671004e+000
-1.4635637e+000
-1.5112036e+000
-1.5140251e+000
-1.4345208e+000
-1.3007120e+000
-1.0966648e+000
-8.9547139e-001
-7.1213281e-001
-6.0345328e-001
-5.6941313e-001
-5.8543366e-001
-6.3311499e-001
-6.9122487e-001
-7.5301087e-001
-8.6636835e-001
-1.0070475e+000
-1.1596371e+000
-1.3159202e+000
-1.3731400e+000
-1.3985033e+000
-1.3558222e+000
-1.2984122e+000
-1.2543606e+000
-1.2168509e+000
-1.2053789e+000
-1.2044660e+000
-1.2325885e+000
-1.2656957e+000
-1.2998871e+000
-1.3196656e+000
-1.3061429e+000
-1.2873214e+000
-1.2732580e+000
-1.3001230e+000
-1.3838201e+000
-1.4972727e+000
-1.6290914e+000
-1.7290641e+000
-1.7955537e+000
-1.8350259e+000
-1.8603588e+000
-1.8806200e+000
-1.9009171e+000
-1.9081172e+000
-1.9096227e+000
-1.9311180e+000
-1.9594400e+000
-1.9961845e+000
-2.0325377e+000
-2.0041521e+000
-1.9549680e+000
-1.8712608e+000
-1.7871237e+000
-1.7710270e+000
-1.7938532e+000
-1.9235601e+000
-2.0809858e+000
-2.2489128e+000
-2.3921902e+000
-2.4616311e+000
-2.5004900e+000
-2.5010593e+000
-2.4976013e+000
-2.5016215e+000
-2.4977896e+000
-2.4897306e+000
-2.4137428e+000
-2.2796109e+000
-2.0352039e+000
-1.7183127e+000
-1.4698035e+000
-1.2726208e+000
-1.3395298e+000
-1.5372218e+000
-1.7825559e+000
-2.0398390e+000
-2.1108315e+000
-2.1092923e+000
-2.0086360e+000
-1.8770734e+000
-1.8012177e+000
-1.7680750e+000
-1.8581411e+000
-2.0053358e+000
-2.1694055e+000
-2.3016376e+000
-2.3256400e+000
-2.2890460e+000
-2.2129419e+000
-2.1491876e+000
-2.1413078e+000
-2.1113286e+000
-2.0428662e+000
-1.8464875e+000
-1.5134537e+000
-1.2065040e+000
-9.3585300e-001
-8.3178842e-001
-8.4972394e-001
-9.2319542e-001
-1.0225720e+000
-1.1428607e+000
-1.2694679e+000
-1.3418627e+000
-1.3834797e+000
-1.2769660e+000
-1.1116143e+000
-9.7792274e-001
-8.8351405e-001
-9.4593424e-001
-1.0860326e+000
-1.2745593e+000
-1.4726260e+000
-1.6387008e+000
-1.7726490e+000
-1.8722167e+000
-1.9337699e+000
-1.9761840e+000
-1.9460320e+000
-1.8333220e+000
-1.6455057e+000
-1.3610871e+000
-1.1645184e+000
-1.0586140e+000
-1.0949372e+000
-1.2506092e+000
-1.4284371e+000
-1.6169357e+000
-1.6687351e+000
-1.6411676e+000
-1.4748160e+000
-1.2502108e+000
-1.1858131e+000
-1.2272075e+000
-1.5004823e+000
-1.8672071e+000
-2.1954885e+000
-2.4556501e+000
-2.5433621e+000
-2.4998987e+000
-2.2347114e+000
-1.9092993e+000
-1.6103246e+000
-1.4367200e+000
-1.5109340e+000
-1.6740056e+000
-1.8596343e+000
-1.9293770e+000
-1.8366026e+000
-1.6538213e+000
-1.4184794e+000
-1.2104450e+000
-1.0440391e+000
-8.7502229e-001
-7.0793688e-001
-5.0207984e-001
-2.6942214e-001
-5.2575000e-002
1.6861996e-001
3.2174936e-001
4.5433331e-001
5.2587265e-001
5.7358980e-001
5.8104676e-001
5.8522815e-001
6.4882690e-001
7.3866832e-001
7.9888880e-001
7.5580019e-001
5.2028662e-001
1.9927606e-001
-5.7029717e-002
-1.4958259e-001
-2.4240579e-002
2.1810988e-002
-2.0913351e-002
1.1250693e-003
8.6835466e-002
4.1876644e-001
1.0034865e+000
1.6578403e+000
2.3183107e+000
2.5153337e+000
2.3060524e+000
1.9529662e+000
1.5375943e+000
1.4845800e+000
1.6926879e+000
1.7872672e+000
1.7768880e+000
1.3296030e+000
6.4734876e-001
1.3470954e-001
-1.5328106e-001
9.5304444e-002
8.1607533e-001
1.9651686e+000
3.1814055e+000
4.1025572e+000
4.8593917e+000
5.5227141e+000
6.4097281e+000
7.7411284e+000
9.7648897e+000
1.2602614e+001
1.6064417e+001
2.0046715e+001
2.3729149e+001
2.6797131e+001
2.9487707e+001
3.1898588e+001
3.4952538e+001
3.8719826e+001
4.3169998e+001
4.8167721e+001
5.2458191e+001
5.6108002e+001
5.9734467e+001
6.3404724e+001
6.7759499e+001
7.2584999e+001
7.7236946e+001
8.1690582e+001
8.5725525e+001
8.9397667e+001
9.2738808e+001
9.5763428e+001
9.8457451e+001
1.0067862e+002
1.0231630e+002
1.0279034e+002
1.0179678e+002
9.9786034e+001
9.7176491e+001
9.4248459e+001
9.1149361e+001
8.7491257e+001
8.3209724e+001
7.8703423e+001
7.4161118e+001
6.9833328e+001
6.5717056e+001
6.1436401e+001
5.6945763e+001
5.2471573e+001
4.8040649e+001
4.3796913e+001
3.9786469e+001
3.6223587e+001
3.3155361e+001
3.0626862e+001
2.8596550e+001
2.6864304e+001
2.5409531e+001
2.4147755e+001
2.3090597e+001
2.2214500e+001
2.1515396e+001
2.0971321e+001
2.0565500e+001
2.0271854e+001
2.0154959e+001
2.0229258e+001
2.0556820e+001
2.1132219e+001
2.2020163e+001
2.3233715e+001
2.4637316e+001
2.6215643e+001
2.7657785e+001
2.8908880e+001
3.0014729e+001
3.0974646e+001
3.2174358e+001
3.3727428e+001
3.6356155e+001
3.9995544e+001
4.3594280e+001
4.6951641e+001
4.9193893e+001
5.0472351e+001
5.1508892e+001
5.2336056e+001
5.3132534e+001
5.3639381e+001
5.3715012e+001
5.3320717e+001
5.2470890e+001
5.1497784e+001
5.0573769e+001
4.9730911e+001
4.8994400e+001
4.8099442e+001
4.6928185e+001
4.5152416e+001
4.2689186e+001
4.0133930e+001
3.7651714e+001
3.5376598e+001
3.3267422e+001
3.0652292e+001
2.7359585e+001
2.4131018e+001
2.1118519e+001
1.8702507e+001
1.6951099e+001
1.5214571e+001
1.3467781e+001
1.1703269e+001
9.8996973e+000
8.0894260e+000
6.2744865e+000
4.4555140e+000
2.8167174e+000
1.5189221e+000
6.3168621e-001
1.9403791e-001
1.6548505e-001
6.1666667e-001
1.2114949e+000
1.7028532e+000
2.1492579e+000
2.4825070e+000
2.9075015e+000
3.5090818e+000
4.1811657e+000
4.9435000e+000
5.4447656e+000
5.5887136e+000
5.5681081e+000
5.3542018e+000
5.1538215e+000
4.9651151e+000
4.7945700e+000
4.6266828e+000
4.4689074e+000
4.2590470e+000
3.9588826e+000
3.5294898e+000
3.0195193e+000
2.5319002e+000
2.1957729e+000
2.0760756e+000
2.2020020e+000
2.5016234e+000
2.9278677e+000
3.3438628e+000
3.6251731e+000
3.8368320e+000
3.9247992e+000
4.0252576e+000
4.1989412e+000
4.4507527e+000
4.8627987e+000
5.2944436e+000
5.7410984e+000
6.0731430e+000
6.2128453e+000
6.2221842e+000
6.0780959e+000
5.8858457e+000
5.6352949e+000
5.3524861e+000
5.0256724e+000
4.6959419e+000
4.3531337e+000
4.0301256e+000
3.6988258e+000
3.3937101e+000
3.1260855e+000
2.8946412e+000
2.7011485e+000
2.4654069e+000
2.1480274e+000
1.7138314e+000
1.2253815e+000
7.4972099e-001
3.6745775e-001
1.4217839e-001
1.2208806e-002
-1.3853155e-002
-2.1196466e-002
5.1144920e-002
1.8913579e-001
4.3818998e-001
6.7968589e-001
9.0643883e-001
9.9028265e-001
9.0299791e-001
7.9110569e-001
6.7583472e-001
6.8600780e-001
8.5155118e-001
1.1422317e+000
1.5440291e+000
1.9521624e+000
2.3157401e+000
2.5415001e+000
2.6380062e+000
2.6082432e+000
2.5207675e+000
2.4334123e+000
2.3707693e+000
2.3664451e+000
2.3915606e+000
2.4536495e+000
2.5190430e+000
2.5847130e+000
2.6462331e+000
2.7083042e+000
2.7684519e+000
2.8301179e+000
2.8954897e+000
2.9823110e+000
3.0855663e+000
3.2300925e+000
3.3844388e+000
3.5459139e+000
3.7140617e+000
3.8841629e+000
4.0672483e+000
4.2753563e+000
4.4900928e+000
4.7260895e+000
4.9771342e+000
5.2515235e+000
5.5607572e+000
5.9112120e+000
6.3133159e+000
6.7622290e+000
7.2593641e+000
7.7751999e+000
8.2873993e+000
8.7664795e+000
9.1501360e+000
9.4601345e+000
9.6112900e+000
9.6913872e+000
9.6305161e+000
9.5234079e+000
9.3090582e+000
9.0662079e+000
8.7474632e+000
8.4111643e+000
8.0358095e+000
7.6485300e+000
7.2378287e+000
6.8117952e+000
6.3540635e+000
5.8647938e+000
5.3290238e+000
4.7644491e+000
4.1772480e+000
3.6183424e+000
3.1003578e+000
2.6551714e+000
2.2668500e+000
1.9053173e+000
1.5606794e+000
1.2242187e+000
9.0632844e-001
6.5197784e-001
4.2903489e-001
2.5071937e-001
9.5622979e-002
-1.1013888e-002
-7.4636400e-002
6.5869913e-003
1.2691620e-001
3.6888576e-001
5.9314919e-001
7.6358378e-001
8.7741834e-001
8.5204619e-001
7.9769248e-001
6.9077557e-001
6.1684924e-001
5.9849960e-001
6.1283839e-001
6.5730006e-001
6.4409876e-001
5.5857819e-001
3.9917955e-001
1.9439286e-001
6.7449175e-002
1.1755433e-002
6.2589742e-002
1.6448849e-001
3.1308201e-001
4.9331051e-001
7.4295479e-001
1.0398006e+000
1.4813520e+000
1.9519322e+000
2.4417200e+000
2.8945954e+000
3.1407800e+000
3.3251286e+000
3.2644765e+000
3.1807544e+000
3.0284600e+000
2.9105301e+000
2.8842959e+000
2.9222608e+000
3.0913405e+000
3.3272820e+000
3.6706572e+000
4.0624127e+000
4.5185261e+000
5.0151129e+000
5.5535674e+000
6.1077824e+000
6.6616693e+000
7.1318002e+000
7.5211554e+000
7.6979947e+000
7.7426200e+000
7.5262680e+000
7.2142057e+000
6.8177710e+000
6.4217253e+000
6.1560640e+000
5.9192882e+000
5.7703271e+000
5.6446185e+000
5.6455894e+000
5.7051888e+000
6.0206203e+000
6.3485274e+000
6.7081561e+000
6.9968371e+000
7.1157680e+000
7.2148504e+000
7.2817683e+000
7.3715749e+000
7.4920373e+000
7.5764103e+000
7.6159592e+000
7.6201315e+000
7.5883031e+000
7.5221958e+000
7.4193096e+000
7.1845970e+000
6.8629861e+000
6.3417521e+000
5.7327714e+000
4.9946656e+000
4.2311678e+000
3.5700407e+000
2.9496942e+000
2.6008401e+000
2.2861006e+000
2.1088440e+000
1.9139427e+000
1.5906149e+000
1.2276874e+000
6.9213283e-001
1.6553050e-001
-3.2747960e-001
-7.5345278e-001
-1.0231843e+000
-1.2436585e+000
-1.3797531e+000
-1.4913573e+000
-1.5680480e+000
-1.5795908e+000
-1.5164456e+000
-1.3370235e+000
-1.0629411e+000
-7.5164336e-001
-4.2341474e-001
-1.7454866e-001
3.5465002e-002
1.9169179e-001
3.3006462e-001
4.3317845e-001
5.2320856e-001
4.6884578e-001
3.9192361e-001
1.8387146e-001
-1.4629512e-002
-4.8208502e-003
1.4089704e-002
4.2481604e-001
8.4784269e-001
1.3193729e+000
1.7437629e+000
2.0291009e+000
2.3161881e+000
2.6072659e+000
2.9105759e+000
3.2306442e+000
3.4491940e+000
3.5413871e+000
3.5063858e+000
3.3523796e+000
3.0894530e+000
2.7511275e+000
2.4505553e+000
2.1697969e+000
2.1603646e+000
2.2504194e+000
2.4769790e+000
2.7356207e+000
3.0433993e+000
3.3579786e+000
3.8322999e+000
