##TITLE=Methyl Ethyl Ketone
##JCAMP-DX=4.24
##DATA TYPE=INFRARED SPECTRUM
##XUNITS=cm-1
##YUNITS=Absorbance
##FIRSTX=900
##LASTX=2300
##XYDATA=(X++(Y..Y))
2296 0.14470001
2294 0.14771567
2292 0.1507214
2290 0.15373705
2288 0.15674281
2286 0.15974849
2284 0.16276412
2282 0.1657699
2280 0.16878548
2278 0.1717913
2276 0.17480686
2274 0.17781271
2272 0.18082823
2270 0.18383411
2268 0.18684961
2266 0.18984571
2264 0.19286098
2262 0.19589616
2260 0.19888312
2258 0.20182021
2256 0.20490171
2254 0.20821039
2252 0.21093482
2250 0.2128479
2248 0.21690805
2246 0.21680893
2244 0.16518123
2242 0.028371757
2240 -0.12562868
2238 -0.21617427
2236 -0.22735271
2234 -0.16637138
2232 -0.058194987
2230 0.067305483
2228 0.18020082
2226 0.255371
2224 0.286928
2222 0.28175318
2220 0.27555442
2218 0.30693856
2216 0.39189458
2214 0.53016096
2212 0.68335104
2210 0.80597943
2208 0.86970359
2206 0.86050165
2204 0.80049771
2202 0.72234577
2200 0.65675658
2198 0.6293211
2196 0.64797217
2194 0.7141248
2192 0.82501841
2190 0.97423249
2188 1.1454512
2186 1.3165486
2184 1.4539239
2182 1.5251421
2180 1.5172932
2178 1.4308469
2176 1.2935371
2174 1.1397245
2172 0.99370563
2170 0.87407792
2168 0.78952593
2166 0.74550402
2164 0.74714899
2162 0.79655951
2160 0.88329411
2158 0.99341762
2156 1.1159199
2154 1.2422389
2152 1.3681401
2150 1.4893918
2148 1.5931277
2146 1.6654178
2144 1.698384
2142 1.6901079
2140 1.6539569
2138 1.6065736
2136 1.5569915
2134 1.511065
2132 1.4730461
2130 1.4476339
2128 1.44216
2126 1.4606014
2124 1.4892511
2122 1.5108521
2120 1.5203068
2118 1.5192925
2116 1.5188258
2114 1.5302839
2112 1.5525851
2110 1.5810206
2108 1.6149403
2106 1.6550357
2104 1.7013268
2102 1.7506992
2100 1.789076
2098 1.8008969
2096 1.7798858
2094 1.7275954
2092 1.6606251
2090 1.6007931
2088 1.5670829
2086 1.573495
2084 1.6182529
2082 1.6909606
2080 1.7723023
2078 1.843087
2076 1.8987243
2074 1.9419352
2072 1.979748
2070 2.017482
2068 2.0466216
2066 2.0554457
2064 2.0413661
2062 2.0076675
2060 1.9651666
2058 1.923687
2056 1.87726
2054 1.8161628
2052 1.7442448
2050 1.6747717
2048 1.6357102
2046 1.6526536
2044 1.714426
2042 1.7936954
2040 1.8625948
2038 1.9010475
2036 1.9193771
2034 1.9362624
2032 1.9514281
2030 1.9553341
2028 1.9382966
2026 1.89578
2024 1.8444612
2022 1.8080803
2020 1.7998534
2018 1.8255266
2016 1.87896
2014 1.9472389
2012 2.0080533
2010 2.037724
2008 2.023952
2006 1.9651271
2004 1.8830163
2002 1.807193
2000 1.7555257
1998 1.7354884
1996 1.7351358
1994 1.7364274
1992 1.7313548
1990 1.7191162
1988 1.706194
1986 1.6994293
1984 1.6927823
1982 1.6754529
1980 1.6433355
1978 1.5987439
1976 1.55506
1974 1.5288991
1972 1.5273817
1970 1.5501101
1968 1.5852611
1966 1.6171578
1964 1.6363531
1962 1.6394908
1960 1.632992
1958 1.6259176
1956 1.6176372
1954 1.6027285
1952 1.5786868
1950 1.5456994
1948 1.5082954
1946 1.4708999
1944 1.4294114
1942 1.37676
1940 1.3138303
1938 1.2468119
1936 1.18634
1934 1.1422619
1932 1.1118979
1930 1.0868527
1928 1.0627348
1926 1.0435985
1924 1.0580915
1922 1.1392385
1920 1.2829628
1918 1.457419
1916 1.6027814
1914 1.6582874
1912 1.6179205
1910 1.5100886
1908 1.3764349
1906 1.2582935
1904 1.1740481
1902 1.127144
1900 1.1123103
1898 1.1213073
1896 1.1472429
1894 1.1846994
1892 1.2292391
1890 1.276183
1888 1.3178177
1886 1.3443621
1884 1.3438957
1882 1.3054632
1880 1.2269617
1878 1.1138945
1876 0.98213303
1874 0.85385901
1872 0.7537027
1870 0.70554072
1868 0.72598988
1866 0.82028055
1864 0.9628461
1862 1.1101739
1860 1.2197945
1858 1.25872
1856 1.2262772
1854 1.1431612
1852 1.0391929
1850 0.94411898
1848 0.8711108
1846 0.82148677
1844 0.7909376
1842 0.77273458
1840 0.75995713
1838 0.74576128
1836 0.72304124
1834 0.6892516
1832 0.6631977
1830 0.67481315
1828 0.74319863
1826 0.87024122
1824 1.0183051
1822 1.1311051
1820 1.178346
1818 1.1545886
1816 1.0786629
1814 0.98153681
1812 0.8879512
1810 0.81600684
1808 0.77887416
1806 0.78022051
1804 0.79262805
1802 0.77207506
1800 0.69179523
1798 0.55034781
1796 0.39759928
1794 0.30909392
1792 0.32716078
1790 0.45552433
1788 0.64328468
1786 0.81142133
1784 0.90829045
1782 0.91475934
1780 0.85453558
1778 0.77319187
1776 0.69361454
1774 0.61587435
1772 0.52392441
1770 0.40093768
1768 0.26716602
1766 0.16431186
1764 0.10637455
1762 0.076793753
1760 0.026132679
1758 -0.1001213
1756 -0.28520915
1754 -0.46351981
1752 -0.59505618
1750 -0.67126381
1748 -0.70841545
1746 -0.73628783
1744 -0.77928376
1742 -0.8502214
1740 -0.93619907
1738 -1.0063437
1736 -1.0315599
1734 -0.99342
1732 -0.90473402
1730 -0.798365
1728 -0.69301504
1726 -0.58912241
1724 -0.46791762
1722 -0.29836741
1720 -0.051221013
1718 0.30134952
1716 0.79568988
1714 1.4552128
1712 2.2092988
1710 2.9350696
1708 3.6146641
1706 4.3356514
1704 5.2393222
1702 6.5084639
1700 8.3890991
1698 11.093342
1696 14.452429
1694 18.00037
1692 21.346977
1690 24.288942
1688 26.991852
1686 29.887486
1684 33.313072
1682 37.383514
1680 41.728519
1678 45.697338
1676 49.120228
1674 52.305168
1672 55.632263
1670 59.394405
1668 63.54105
1666 67.753349
1664 71.805344
1662 75.606491
1660 79.104965
1658 82.271019
1656 85.121025
1654 87.710533
1652 90.101639
1650 92.314156
1648 94.182213
1646 95.417503
1644 95.913551
1642 95.752411
1640 95.013039
1638 93.726738
1636 91.876671
1634 89.435486
1632 86.496315
1630 83.243256
1628 79.752914
1626 75.988129
1624 71.931519
1622 67.622879
1620 63.193233
1618 58.839806
1616 54.712372
1614 50.896019
1612 47.44363
1610 44.378731
1608 41.668583
1606 39.237457
1604 37.043102
1602 35.086113
1600 33.378983
1598 31.932617
1596 30.7265
1594 29.711832
1592 28.852749
1590 28.136272
1588 27.57126
1586 27.178156
1584 26.94932
1582 26.85042
1580 26.865643
1578 27.010683
1576 27.337685
1574 27.917076
1572 28.748783
1570 29.75024
1568 30.812719
1566 31.827343
1564 32.740345
1562 33.592453
1560 34.600876
1558 36.098003
1556 38.162243
1554 40.550781
1552 42.883484
1550 44.760468
1548 46.07785
1546 47.04689
1544 47.835552
1542 48.48378
1540 48.985817
1538 49.313721
1536 49.424484
1534 49.27483
1532 48.87886
1530 48.302925
1528 47.567059
1526 46.625252
1524 45.41811
1522 43.905777
1520 42.130936
1518 40.226639
1516 38.338585
1514 36.570633
1512 34.85384
1510 32.941933
1508 30.666143
1506 28.03203
1504 25.246109
1502 22.671085
1500 20.474123
1498 18.540081
1496 16.694429
1494 14.781996
1492 12.748257
1490 10.659885
1488 8.5988102
1486 6.6374135
1484 4.855978
1482 3.3353076
1480 2.0995007
1478 1.1185127
1476 0.44407386
1474 0.22010507
1472 0.47038028
1470 1.0430478
1468 1.7674174
1466 2.5093222
1464 3.207509
1462 3.8773756
1460 4.5083799
1458 5.0374131
1456 5.4049802
1454 5.5813975
1452 5.5956469
1450 5.5363855
1448 5.4538321
1446 5.3329749
1444 5.1640019
1442 4.959888
1440 4.7220731
1438 4.4290233
1436 4.0493159
1434 3.5540276
1432 2.964992
1430 2.369427
1428 1.8486601
1426 1.4505186
1424 1.1847211
1422 1.0208235
1420 0.93532348
1418 0.92872345
1416 1.0161692
1414 1.221068
1412 1.5411518
1410 1.9356281
1408 2.3585188
1406 2.7707729
1404 3.1464469
1402 3.4759333
1400 3.75178
1398 3.9670291
1396 4.129457
1394 4.2662969
1392 4.3982596
1390 4.5264192
1388 4.6286592
1386 4.6591501
1384 4.590075
1382 4.4293156
1380 4.1969066
1378 3.9181931
1376 3.6133428
1374 3.2940431
1372 2.9767301
1370 2.6832795
1368 2.4121971
1366 2.1257806
1364 1.7869663
1362 1.3791164
1360 0.93020397
1358 0.52548599
1356 0.23259085
1354 0.067207254
1352 0.0084090168
1350 -0.00050877186
1348 -0.0022405398
1346 -0.0033940822
1344 0.0034448197
1342 0.033394255
1340 0.092471831
1338 0.16853085
1336 0.24140772
1334 0.2866852
1332 0.29188138
1330 0.2666105
1328 0.23151097
1326 0.21594964
1324 0.24374712
1322 0.3246378
1320 0.45575565
1318 0.6183272
1316 0.78906703
1314 0.94429457
1312 1.0673308
1310 1.1543343
1308 1.2092122
1306 1.2440656
1304 1.2701194
1302 1.293776
1300 1.3188626
1298 1.3471024
1296 1.3827857
1294 1.435059
1292 1.5108037
1290 1.6105613
1288 1.7277479
1286 1.8461657
1284 1.9520406
1282 2.0405717
1280 2.1145725
1278 2.18661
1276 2.2696199
1274 2.373426
1272 2.5057509
1270 2.6713982
1268 2.873594
1266 3.1141894
1264 3.3968148
1262 3.7289696
1260 4.1183381
1258 4.5708995
1256 5.0849485
1254 5.6457043
1252 6.2373838
1250 6.8487792
1248 7.4761958
1246 8.1271753
1244 8.804163
1242 9.4935608
1240 10.167028
1238 10.77596
1236 11.274172
1234 11.632184
1232 11.83756
1230 11.901128
1228 11.843038
1226 11.684908
1224 11.446651
1222 11.134774
1220 10.754949
1218 10.315024
1216 9.8233852
1214 9.2921629
1212 8.7362909
1210 8.1721516
1208 7.6132941
1206 7.0653276
1204 6.5277681
1202 5.9915342
1200 5.4484844
1198 4.8970804
1196 4.3373141
1194 3.76932
1192 3.1971126
1190 2.632957
1188 2.0961399
1186 1.6161522
1184 1.2155097
1182 0.89700037
1180 0.6569103
1178 0.48789558
1176 0.38533002
1174 0.35091704
1172 0.37676063
1170 0.43051887
1168 0.47398812
1166 0.47084472
1164 0.40273511
1162 0.29082891
1160 0.1682267
1158 0.072368838
1156 0.029719658
1154 0.038627956
1152 0.083843686
1150 0.13486739
1148 0.1627022
1146 0.15158251
1144 0.10085531
1142 0.037822388
1140 -0.0026841494
1138 0.015545391
1136 0.12326594
1134 0.33543777
1132 0.6449995
1130 1.0023127
1128 1.3552897
1126 1.6728699
1124 1.951072
1122 2.2379911
1120 2.582068
1118 3.0003302
1116 3.4822428
1114 3.9711499
1112 4.4191895
1110 4.8287392
1108 5.2155666
1106 5.5986152
1104 5.9819412
1102 6.332181
1100 6.6239948
1098 6.8748708
1096 7.1196141
1094 7.4081779
1092 7.7696238
1090 8.1703176
1088 8.5625839
1086 8.9047146
1084 9.1760817
1082 9.4069929
1080 9.6326704
1078 9.8659382
1076 10.102257
1074 10.30569
1072 10.443429
1070 10.510367
1068 10.516684
1066 10.488264
1064 10.448601
1062 10.403427
1060 10.355675
1058 10.300478
1056 10.232715
1054 10.138329
1052 10.002241
1050 9.8084965
1048 9.5454378
1046 9.2191286
1044 8.8421001
1042 8.4336481
1040 8.0143557
1038 7.6026096
1036 7.2140703
1034 6.8577251
1032 6.5344605
1030 6.2261071
1028 5.9091773
1026 5.5591493
1024 5.1621423
1022 4.736165
1020 4.3070617
1018 3.8996654
1016 3.5307829
1014 3.1932707
1012 2.8753293
1010 2.5702913
1008 2.274344
1006 1.9903485
1004 1.7235466
1002 1.483088
1000 1.2713274
998 1.0677155
996 0.84959
994 0.60653049
992 0.3405191
990 0.083203778
988 -0.13757586
986 -0.32951629
984 -0.50342762
982 -0.65149403
980 -0.7537356
978 -0.76594037
976 -0.65010166
974 -0.40885836
972 -0.061372876
970 0.35136482
968 0.7809242
966 1.172425
964 1.4772502
962 1.6743014
960 1.7566925
958 1.7421408
956 1.6495857
954 1.4806495
952 1.2358637
950 0.92902863
948 0.5897885
946 0.29298252
944 0.10178629
942 -0.0015136972
940 -0.045517117
938 -0.025973793
936 0.059334055
934 0.17580053
932 0.28732777
930 0.38586041
928 0.46739504
926 0.51731825
924 0.5219112
922 0.48083496
920 0.40303481
918 0.31991181
916 0.26755145
914 0.2785047
912 0.3719101
910 0.51877105
908 0.6710676
906 0.75373483
904 0.70626891
902 0.5520494
900 0.33990729
898 0.13635261
896 0.012359
