##TITLE=Methyl Ethyl Ketone
##JCAMP-DX=4.24
##DATA TYPE=INFRARED SPECTRUM
##XUNITS=cm-1
##YUNITS=Absorbance
##FIRSTX=900
##LASTX=2300
##XYDATA=(X++(Y..Y))
2296 -0.021159999
2294 -0.021600371
2292 -0.022040742
2290 -0.02248111
2288 -0.02292148
2286 -0.023361851
2284 -0.023801228
2282 -0.024241589
2280 -0.024681959
2278 -0.02512233
2276 -0.0255627
2274 -0.026003068
2272 -0.026442457
2270 -0.026882811
2268 -0.027323181
2266 -0.027763551
2264 -0.02820392
2262 -0.02864429
2260 -0.029083686
2258 -0.02952403
2256 -0.029964399
2254 -0.030404769
2252 -0.030845139
2250 -0.031285509
2248 -0.03172588
2246 -0.032165285
2244 0.045602448
2242 0.001874687
2240 -0.056245439
2238 -0.17332137
2236 -0.29918629
2234 -0.36393073
2232 -0.42178047
2230 -0.42408651
2228 -0.41963634
2226 -0.3830725
2224 -0.34197453
2222 -0.28809813
2220 -0.24878109
2218 -0.25618008
2216 -0.27846342
2214 -0.32748219
2212 -0.3667528
2210 -0.38750353
2208 -0.42574587
2206 -0.48717999
2204 -0.57446551
2202 -0.6851452
2200 -0.75516093
2198 -0.79358411
2196 -0.78531212
2194 -0.75138098
2192 -0.72099936
2190 -0.69296396
2188 -0.6619646
2186 -0.6299445
2184 -0.56798804
2182 -0.49914461
2180 -0.44853246
2178 -0.40154132
2176 -0.42440599
2174 -0.45380363
2172 -0.4846243
2170 -0.51000172
2168 -0.50372672
2166 -0.49474201
2164 -0.48737076
2162 -0.47840676
2160 -0.464899
2158 -0.45037013
2156 -0.43462899
2154 -0.41485292
2152 -0.38942945
2150 -0.35492527
2148 -0.31089666
2146 -0.29304069
2144 -0.29925215
2142 -0.3486605
2140 -0.42647323
2138 -0.50709015
2136 -0.58757973
2134 -0.62123168
2132 -0.63483888
2130 -0.62400341
2128 -0.6058864
2126 -0.63943297
2124 -0.6852724
2122 -0.73181701
2120 -0.77463597
2118 -0.74650341
2116 -0.70769656
2114 -0.66383576
2112 -0.62871569
2110 -0.63463366
2108 -0.64755219
2106 -0.66363126
2104 -0.66258389
2102 -0.6230976
2100 -0.56468821
2098 -0.4842689
2096 -0.40872571
2094 -0.34421712
2092 -0.28457338
2090 -0.22830087
2088 -0.16660178
2086 -0.099297449
2084 -0.058971565
2082 -0.036706433
2080 -0.072108395
2078 -0.13700469
2076 -0.218952
2074 -0.30668119
2072 -0.32386842
2070 -0.31833166
2068 -0.20076203
2066 -0.057557348
2064 0.066033691
2062 0.16893168
2060 0.11020855
2058 -0.0034544114
2056 -0.24378525
2054 -0.51857436
2052 -0.83034521
2050 -1.1170543
2048 -1.3242062
2046 -1.4361535
2044 -1.3953719
2042 -1.291593
2040 -1.1339566
2038 -1.0151517
2036 -0.95154101
2034 -0.92230529
2032 -0.91718841
2030 -0.88260502
2028 -0.82369512
2026 -0.74653971
2024 -0.66184163
2022 -0.59281099
2020 -0.53349626
2018 -0.51973581
2016 -0.523072
2014 -0.62533277
2012 -0.75786453
2010 -0.91207802
2008 -1.0639181
2006 -1.1127979
2004 -1.1272346
2002 -1.091722
2000 -1.046272
1998 -1.0236547
1996 -1.01185
1994 -1.0225408
1992 -1.0578057
1990 -1.1253635
1988 -1.21551
1986 -1.3178164
1984 -1.4027052
1982 -1.4598063
1980 -1.4876922
1978 -1.4955142
1976 -1.4698628
1974 -1.4206511
1972 -1.2781039
1970 -1.0702053
1968 -0.86408836
1966 -0.66618687
1964 -0.67443633
1962 -0.78723294
1960 -0.962524
1958 -1.1579144
1956 -1.2703872
1954 -1.3502969
1952 -1.4203898
1950 -1.4789342
1948 -1.5004398
1946 -1.5115499
1944 -1.5212868
1942 -1.552888
1940 -1.6227555
1938 -1.6987982
1936 -1.7503629
1934 -1.7804322
1932 -1.796546
1930 -1.8028543
1928 -1.8148834
1926 -1.7553813
1924 -1.6096805
1922 -1.3433641
1920 -0.96321404
1918 -0.64234269
1916 -0.38535827
1914 -0.30467066
1912 -0.34855539
1910 -0.48683995
1908 -0.67495745
1906 -0.91046494
1904 -1.1651961
1902 -1.3517121
1900 -1.5010877
1898 -1.4783866
1896 -1.3799286
1894 -1.1984338
1892 -1.0001428
1890 -0.88538307
1888 -0.84585941
1886 -0.96828538
1884 -1.1744577
1882 -1.4466685
1880 -1.712796
1878 -1.9205192
1876 -2.01173
1874 -1.9497174
1872 -1.7107731
1870 -1.2961535
1868 -0.93499172
1866 -0.67946458
1864 -0.73039019
1862 -1.046248
1860 -1.4149909
1858 -1.7803004
1856 -2.0007741
1854 -2.1219711
1852 -2.0782688
1850 -1.9480221
1848 -1.6605281
1846 -1.3022572
1844 -1.1196275
1842 -1.050706
1840 -1.2545704
1838 -1.5642645
1836 -1.7587471
1834 -1.847106
1832 -1.7356577
1830 -1.5254632
1828 -1.2580125
1826 -1.0542457
1824 -1.0305623
1822 -1.1703131
1820 -1.50371
1818 -1.8557796
1816 -2.1399829
1814 -2.2591236
1812 -2.1898935
1810 -2.0062761
1808 -1.7523755
1806 -1.492365
1804 -1.2451054
1802 -1.0126652
1800 -0.80280566
1798 -0.61491668
1796 -0.44460571
1794 -0.28983286
1792 -0.12796888
1790 -0.062760368
1788 -0.040210497
1786 -0.12281956
1784 -0.24961846
1782 -0.33836752
1780 -0.36780629
1778 -0.2017538
1776 0.099762
1774 0.52959466
1772 0.91801816
1770 1.0422601
1768 0.93146664
1766 0.59811842
1764 0.26305521
1762 0.085600264
1760 0.041083694
1758 -0.06858968
1756 -0.14511515
1754 -0.092346974
1752 0.28579992
1750 0.9886806
1748 1.7487909
1746 2.4756498
1744 2.6987526
1742 2.4812753
1740 2.21047
1738 1.9623116
1736 2.0840399
1734 2.4666152
1732 2.4882557
1730 2.2284043
1728 1.4779634
1726 0.47777554
1724 -0.15986955
1722 -0.40597621
1720 0.11455598
1718 1.2447643
1716 2.8560872
1714 4.4694309
1712 5.4738908
1710 6.1150503
1708 6.6032362
1706 7.361887
1704 8.7202311
1702 10.837958
1700 13.763003
1698 17.079821
1696 20.576429
1694 23.67296
1692 26.181574
1690 28.632708
1688 31.161823
1686 34.515324
1684 38.678539
1682 43.093166
1680 47.635681
1678 51.278797
1676 54.16333
1674 57.324093
1672 60.779324
1670 64.981339
1668 69.693375
1666 74.171501
1664 78.430038
1662 82.37458
1660 86.068771
1658 89.577324
1656 92.913147
1654 96.064529
1652 98.817497
1650 100.95974
1648 101.73554
1646 100.6841
1644 98.424377
1642 95.532234
1640 92.465462
1638 89.462296
1636 86.061577
1634 82.13826
1632 77.950005
1630 73.640274
1628 69.567047
1626 65.75531
1624 61.805321
1622 57.664852
1620 53.442249
1618 49.165039
1616 45.003143
1614 41.001495
1612 37.38282
1610 34.19865
1608 31.535595
1606 29.355465
1604 27.469412
1602 25.865417
1600 24.47543
1598 23.32399
1596 22.4035
1594 21.6964
1592 21.158281
1590 20.754543
1588 20.440037
1586 20.27985
1584 20.292839
1582 20.5819
1580 21.168854
1578 22.113596
1576 23.423143
1574 24.882347
1572 26.444191
1570 27.81105
1568 28.92976
1566 29.942064
1564 30.8659
1562 32.157772
1560 33.933399
1558 36.723858
1556 40.426029
1554 43.78894
1552 46.661594
1550 48.573997
1548 49.740692
1546 50.996143
1544 52.378284
1542 53.955967
1540 55.207058
1538 55.514362
1536 54.800457
1534 53.124596
1532 51.184719
1530 49.578053
1528 48.369999
1526 47.59705
1524 46.953259
1522 46.29034
1520 45.090233
1518 43.169769
1516 40.908813
1514 38.379158
1512 36.058441
1510 33.993103
1508 31.550798
1506 28.574043
1504 25.405405
1502 22.127186
1500 19.382233
1498 17.25503
1496 15.267285
1494 13.405077
1492 11.554578
1490 9.6874027
1488 7.7896814
1486 5.8669834
1484 3.9378159
1482 2.2136791
1480 0.91417289
1478 0.14791071
1476 -0.0026728362
1474 0.38483289
1472 1.2323551
1470 1.998806
1468 2.3836865
1466 2.6199422
1464 2.7479007
1462 3.1103442
1460 3.8924284
1458 4.852375
1456 5.9964199
1454 6.7037082
1452 6.7510386
1450 6.4867463
1448 5.8317161
1446 5.2195034
1444 4.6756735
1442 4.2582169
1440 4.0082936
1438 3.9266255
1436 3.9815872
1434 4.0034966
1432 3.9125326
1430 3.6092539
1428 3.1840019
1426 2.8222558
1424 2.6155446
1422 2.6627147
1420 2.8787374
1418 3.1876693
1416 3.4561057
1414 3.5558369
1412 3.6052337
1410 3.6145673
1408 3.6832228
1406 3.8706329
1404 4.1309195
1402 4.5146389
1400 4.9433403
1398 5.4403672
1396 5.8692784
1394 6.1756563
1392 6.3053966
1390 6.1916356
1388 5.9819551
1386 5.6430001
1384 5.2707238
1382 4.8624139
1380 4.4909816
1378 4.1632919
1376 3.8954971
1374 3.6482508
1372 3.3780642
1370 3.0945773
1368 2.8171713
1366 2.5834966
1364 2.3938334
1362 2.1856313
1360 1.8903068
1358 1.519608
1356 1.0733649
1354 0.65719783
1352 0.33307052
1350 0.088086121
1348 -0.044867456
1346 -0.127855
1344 -0.086304881
1342 0.038953915
1340 0.30592567
1338 0.56606495
1336 0.80816001
1334 0.91308868
1332 0.84323907
1330 0.7417717
1328 0.62294149
1326 0.6197347
1324 0.77333897
1322 1.0902697
1320 1.5751474
1318 2.103055
1316 2.6048801
1314 2.9048624
1312 2.9925313
1310 2.8595424
1308 2.5996199
1306 2.3315115
1304 2.101511
1302 1.984899
1300 1.9292901
1298 1.9299586
1296 1.9202572
1294 1.8519799
1292 1.7595555
1290 1.6481729
1288 1.570848
1286 1.5961671
1284 1.6475905
1282 1.7562159
1280 1.8354274
1278 1.8540391
1276 1.8682429
1274 1.8729969
1272 1.9324673
1270 2.0784416
1268 2.2777231
1266 2.5572522
1264 2.856832
1262 3.1878772
1260 3.5209339
1258 3.853303
1256 4.1741629
1254 4.4827704
1252 4.7760458
1250 5.0650907
1248 5.3686891
1246 5.68115
1244 6.0114465
1242 6.3239961
1240 6.5638027
1238 6.7600098
1236 6.8763628
1234 6.9802608
1232 7.0871682
1230 7.1635075
1228 7.1348825
1226 7.0242887
1224 6.6852098
1222 6.3007822
1220 5.8160381
1218 5.3483343
1216 4.9163771
1214 4.4939532
1212 4.0816813
1210 3.6494651
1208 3.1885893
1206 2.7132001
1204 2.2260342
1202 1.7487152
1200 1.2903197
1198 0.87960374
1196 0.51261926
1194 0.19263683
1192 -0.098242998
1190 -0.37856612
1188 -0.65312749
1186 -0.92170405
1184 -1.1732645
1182 -1.3623866
1180 -1.4991134
1178 -1.4844285
1176 -1.4222801
1174 -1.2547464
1172 -1.0856452
1170 -0.9296602
1168 -0.77429175
1166 -0.61565959
1164 -0.45030126
1162 -0.27077511
1160 -0.10645755
1158 0.023488544
1156 0.12823656
1154 0.18723616
1152 0.21417166
1150 0.19382006
1148 0.14242968
1146 0.062919922
1144 0.003776636
1142 -0.028852254
1140 -0.015267575
1138 0.026170794
1136 0.067715257
1134 0.10681249
1132 0.18483156
1130 0.28506058
1128 0.42120022
1126 0.57817453
1124 0.789931
1122 1.0080247
1120 1.209516
1118 1.393584
1116 1.4944285
1114 1.6039284
1112 1.7558
1110 1.9203358
1108 2.1231501
1106 2.307725
1104 2.4491267
1102 2.5914769
1100 2.7393672
1098 2.9146955
1096 3.1378
1094 3.4096975
1092 3.7514219
1090 4.1701264
1088 4.6666908
1086 5.1879268
1084 5.7152748
1082 6.1562743
1080 6.5200129
1078 6.7040677
1076 6.7838755
1074 6.6958585
1072 6.5550284
1070 6.420557
1068 6.3010263
1066 6.2728329
1064 6.2548084
1062 6.2229333
1060 6.1796856
1058 6.0691724
1056 5.9660053
1054 5.8978953
1052 5.8748708
1050 5.9966969
1048 6.1618056
1046 6.4324465
1044 6.7248716
1042 7.0558548
1040 7.3547359
1038 7.5938263
1036 7.6847401
1034 7.5955634
1032 7.3782387
1030 7.0490541
1028 6.7445984
1026 6.4614229
1024 6.2288752
1022 6.0091748
1020 5.6417365
1018 5.1974502
1016 4.530066
1014 3.8113961
1012 3.1884313
1010 2.5987113
1008 2.2053759
1006 1.8236214
1004 1.3894665
1002 0.96213222
1000 0.58744055
998 0.25222999
996 0.088793635
994 -0.094082475
992 -0.33932987
990 -0.64895856
988 -1.1032237
986 -1.53743
984 -1.9320183
982 -2.2184579
980 -2.3557501
978 -2.380976
976 -2.28792
974 -2.1553349
972 -1.9908583
970 -1.8226354
968 -1.6494874
966 -1.404855
964 -1.1236062
962 -0.74800932
960 -0.34170192
958 0.051787883
956 0.43184757
954 0.55535245
952 0.63575923
950 0.41746622
948 0.19514324
946 0.085016251
944 0.0021161847
942 0.065537959
940 0.18030483
938 0.25897282
936 0.37255341
934 0.58974254
932 0.90083593
930 1.4117246
928 1.9225892
926 2.4327979
924 2.921448
922 3.3826766
920 3.8165252
918 4.2225637
916 4.4279256
914 4.489821
912 4.3347917
910 4.0634818
908 3.8220909
906 3.5894208
904 3.5506508
902 3.5600836
900 3.6961441
898 3.8514872
896 4.0521002
