Image.
>Pix99999.
  .
5555
5555
2300
900
5555
2
1
0
701
5555
1.4753000e-002
1.5065553e-002
1.5379103e-002
1.5692655e-002
1.6006207e-002
1.6319757e-002
1.6633308e-002
1.6946860e-002
1.7260410e-002
1.7573964e-002
1.7886527e-002
1.8200066e-002
1.8513616e-002
1.8827168e-002
1.9140719e-002
1.9454272e-002
1.9767823e-002
2.0081375e-002
2.0393951e-002
2.0707477e-002
2.1021029e-002
2.1334581e-002
2.1648131e-002
2.1961683e-002
2.2275234e-002
2.2588786e-002
3.0999003e-002
1.2081729e-003
3.5493121e-002
6.9516458e-002
1.0313756e-001
1.6345200e-001
2.2665308e-001
3.1148618e-001
4.0603039e-001
5.6994599e-001
7.4796301e-001
9.7441566e-001
1.1835891e+000
1.3321991e+000
1.4434485e+000
1.4804846e+000
1.4928340e+000
1.4721006e+000
1.4443663e+000
1.4103179e+000
1.3963280e+000
1.4021233e+000
1.4426515e+000
1.5081890e+000
1.6320356e+000
1.7885230e+000
1.9773743e+000
2.1794147e+000
2.2999134e+000
2.3937478e+000
2.4251041e+000
2.4426320e+000
2.4950850e+000
2.5528114e+000
2.6115515e+000
2.6659856e+000
2.6700621e+000
2.6636300e+000
2.6244767e+000
2.5943837e+000
2.6093614e+000
2.6461055e+000
2.7266331e+000
2.7904279e+000
2.8137801e+000
2.8203726e+000
2.8089681e+000
2.8436077e+000
2.9323995e+000
3.0690072e+000
3.2429633e+000
3.3757751e+000
3.4773245e+000
3.4859934e+000
3.4458430e+000
3.4078929e+000
3.3727882e+000
3.4533172e+000
3.5707400e+000
3.7194457e+000
3.8749220e+000
3.8838542e+000
3.8639526e+000
3.7410202e+000
3.6127415e+000
3.5535960e+000
3.5315657e+000
3.6293550e+000
3.7603595e+000
3.9388843e+000
4.1075068e+000
4.2389264e+000
4.3313918e+000
4.3678975e+000
4.3729286e+000
4.3477712e+000
4.2945495e+000
4.2168627e+000
4.1349974e+000
4.0525050e+000
4.0300021e+000
4.0471759e+000
4.1199484e+000
4.2193928e+000
4.2987828e+000
4.3685741e+000
4.3814321e+000
4.3761816e+000
4.3520784e+000
4.3246179e+000
4.3305287e+000
4.3467584e+000
4.3994026e+000
4.4628692e+000
4.5467973e+000
4.6227779e+000
4.6558952e+000
4.6514626e+000
4.5726628e+000
4.4925218e+000
4.4385200e+000
4.4418149e+000
4.5235991e+000
4.6075358e+000
4.6752658e+000
4.6705551e+000
4.5986209e+000
4.4997749e+000
4.3896589e+000
4.3441472e+000
4.3416228e+000
4.4247589e+000
4.5494123e+000
4.6988406e+000
4.8561401e+000
4.9587927e+000
5.0422249e+000
5.0202284e+000
4.9675674e+000
4.8697615e+000
4.7658997e+000
4.7024717e+000
4.6532121e+000
4.6230855e+000
4.5914574e+000
4.5421839e+000
4.4792447e+000
4.3935776e+000
4.3002019e+000
4.2002416e+000
4.1174717e+000
4.0610261e+000
4.0445123e+000
4.0674224e+000
4.1203461e+000
4.1938829e+000
4.2561464e+000
4.3071666e+000
4.3485394e+000
4.3849850e+000
4.4044614e+000
4.4146004e+000
4.3652477e+000
4.2901349e+000
4.1974268e+000
4.0992622e+000
4.0181761e+000
3.9444156e+000
3.8966937e+000
3.8615501e+000
3.8472612e+000
3.8302824e+000
3.7726271e+000
3.6973155e+000
3.6065829e+000
3.5332880e+000
3.5075679e+000
3.4841893e+000
3.4453764e+000
3.3405170e+000
3.1565917e+000
2.9690399e+000
2.7983515e+000
2.7609460e+000
2.8372858e+000
2.9840243e+000
3.1654520e+000
3.2876456e+000
3.3682082e+000
3.4149878e+000
3.4463401e+000
3.4633665e+000
3.4736845e+000
3.4451950e+000
3.4025857e+000
3.3838706e+000
3.3752952e+000
3.3684978e+000
3.3500485e+000
3.2747486e+000
3.1774518e+000
3.0767219e+000
2.9722784e+000
2.8643041e+000
2.7447600e+000
2.6109574e+000
2.4963789e+000
2.4206614e+000
2.3736980e+000
2.3419616e+000
2.3023932e+000
2.2449231e+000
2.2210996e+000
2.2337675e+000
2.2388229e+000
2.2340627e+000
2.0489893e+000
1.7466606e+000
1.3073440e+000
8.0062532e-001
5.6255543e-001
4.7837096e-001
7.2049278e-001
1.1102247e+000
1.4753214e+000
1.8071380e+000
2.0391588e+000
2.1789887e+000
2.1431732e+000
1.9955950e+000
1.7395846e+000
1.4865636e+000
1.3356100e+000
1.2519293e+000
1.2215629e+000
1.1977073e+000
1.1580151e+000
1.1503384e+000
1.1867760e+000
1.2690350e+000
1.3849417e+000
1.3812997e+000
1.2624172e+000
1.0130244e+000
6.8013287e-001
5.2511674e-001
5.0367004e-001
6.3189232e-001
8.4002322e-001
9.2509025e-001
9.2695373e-001
8.2268250e-001
6.4876729e-001
4.1344762e-001
1.7236567e-001
4.7525626e-002
5.1298667e-002
2.5830913e-001
4.9736145e-001
5.6619662e-001
4.8172879e-001
2.5536630e-001
5.7374008e-002
-1.5099776e-001
-3.3832985e-001
-4.3668792e-001
-5.7169783e-001
-7.8623295e-001
-1.0906042e+000
-1.4675535e+000
-1.7992388e+000
-2.0758903e+000
-2.2269526e+000
-2.2787528e+000
-2.1923401e+000
-2.0072210e+000
-1.6858003e+000
-1.2795060e+000
-9.2414123e-001
-6.1928278e-001
-4.0149954e-001
-2.2721669e-001
3.8366958e-002
4.3029976e-001
1.0364429e+000
1.7266355e+000
2.2985759e+000
2.7511580e+000
3.0885859e+000
3.4796965e+000
4.0920959e+000
5.2097778e+000
6.9831362e+000
9.8286562e+000
1.3797428e+001
1.8112589e+001
2.2364468e+001
2.6168493e+001
2.9504257e+001
3.3218880e+001
3.7433292e+001
4.2288273e+001
4.7642200e+001
5.2242851e+001
5.6151814e+001
6.0008724e+001
6.3917080e+001
6.8530212e+001
7.3657967e+001
7.8668053e+001
8.3498199e+001
8.7927498e+001
9.1962929e+001
9.5599937e+001
9.8826515e+001
1.0164230e+002
1.0392080e+002
1.0555014e+002
1.0609629e+002
1.0523035e+002
1.0335526e+002
1.0090448e+002
9.8149498e+001
9.5307838e+001
9.2064659e+001
8.8332268e+001
8.4315186e+001
8.0122559e+001
7.5836800e+001
7.1496223e+001
6.6753723e+001
6.1613838e+001
5.6475296e+001
5.1394455e+001
4.6778374e+001
4.2655903e+001
3.9178909e+001
3.6325710e+001
3.3904137e+001
3.1864700e+001
2.9986425e+001
2.8307638e+001
2.6877382e+001
2.5717989e+001
2.4823500e+001
2.4164335e+001
2.3665680e+001
2.3332584e+001
2.3147663e+001
2.3118080e+001
2.3234491e+001
2.3441599e+001
2.3700800e+001
2.4076366e+001
2.4589113e+001
2.5331617e+001
2.6319275e+001
2.7443750e+001
2.8674681e+001
2.9900507e+001
3.1110821e+001
3.2444725e+001
3.3975857e+001
3.6195854e+001
3.9142101e+001
4.2259838e+001
4.5365978e+001
4.7739967e+001
4.9377159e+001
5.0647892e+001
5.1525902e+001
5.2085114e+001
5.2221859e+001
5.1826866e+001
5.0940857e+001
4.9704227e+001
4.8247749e+001
4.6761524e+001
4.5236965e+001
4.3667999e+001
4.2033737e+001
4.0313629e+001
3.8630173e+001
3.7025032e+001
3.5504601e+001
3.4082615e+001
3.2495800e+001
3.0680660e+001
2.8316402e+001
2.5266457e+001
2.2181383e+001
1.9119518e+001
1.6600363e+001
1.4709351e+001
1.2987286e+001
1.1442773e+001
9.9178104e+000
8.3919907e+000
6.7957916e+000
5.1734595e+000
3.6390781e+000
2.2895877e+000
1.2629409e+000
5.6334317e-001
1.4944500e-001
1.0914704e-001
4.4826210e-001
9.0947068e-001
1.3907552e+000
1.8110929e+000
2.1263835e+000
2.4174943e+000
2.7203317e+000
3.1364374e+000
3.7262399e+000
4.3744259e+000
5.0660152e+000
5.5684485e+000
5.7764101e+000
5.8560929e+000
5.7587509e+000
5.6021709e+000
5.3647947e+000
5.0611086e+000
4.6807971e+000
4.2517948e+000
3.7859211e+000
3.3380477e+000
2.9222078e+000
2.5725143e+000
2.3158650e+000
2.1848011e+000
2.2119622e+000
2.4247942e+000
2.7779741e+000
3.2310531e+000
3.6819115e+000
4.0581813e+000
4.3639975e+000
4.5811129e+000
4.7555194e+000
4.8800521e+000
4.9879241e+000
5.0750637e+000
5.1809926e+000
5.3197141e+000
5.4612765e+000
5.5873265e+000
5.6316891e+000
5.5382099e+000
5.3377123e+000
4.9842243e+000
4.5455136e+000
4.0084658e+000
3.4446971e+000
2.8952510e+000
2.4592979e+000
2.1527159e+000
1.9582057e+000
1.8044114e+000
1.5603863e+000
1.2370223e+000
8.3700836e-001
4.5512873e-001
2.0484753e-001
4.7996886e-002
6.5056435e-003
8.0740657e-003
3.2559723e-002
6.4165577e-002
1.1316500e-001
1.6782247e-001
2.3381695e-001
3.3014715e-001
4.8610970e-001
6.7588478e-001
9.0688175e-001
1.1077120e+000
1.2559634e+000
1.3758428e+000
1.4690160e+000
1.5813261e+000
1.7327960e+000
1.9341778e+000
2.1938200e+000
2.4848037e+000
2.7852390e+000
3.0452073e+000
3.2511077e+000
3.3856850e+000
3.4624178e+000
3.4840422e+000
3.4712317e+000
3.4234893e+000
3.3645000e+000
3.3015332e+000
3.2479274e+000
3.2200303e+000
3.2080400e+000
3.2271006e+000
3.2564523e+000
3.3059165e+000
3.3645313e+000
3.4439015e+000
3.5342984e+000
3.6502609e+000
3.7868183e+000
3.9659369e+000
4.1902499e+000
4.4813180e+000
4.8093786e+000
5.1758170e+000
5.5387259e+000
5.9020867e+000
6.2800317e+000
6.6828375e+000
7.1370101e+000
7.6193004e+000
8.0894156e+000
8.5331497e+000
8.9051809e+000
9.2501917e+000
9.5938034e+000
9.9394016e+000
1.0293457e+001
1.0601387e+001
1.0755360e+001
1.0824499e+001
1.0668160e+001
1.0468814e+001
1.0165676e+001
9.8462172e+000
9.4864321e+000
9.0995150e+000
8.6560936e+000
8.1841755e+000
7.6646485e+000
7.1293626e+000
6.5771456e+000
6.0427766e+000
5.5363441e+000
5.0728450e+000
4.6513577e+000
4.2483068e+000
3.8618000e+000
3.4892857e+000
3.1357651e+000
2.8288932e+000
2.5544286e+000
2.3289416e+000
2.1269703e+000
1.9557338e+000
1.8043752e+000
1.7066305e+000
1.6454999e+000
1.7038852e+000
1.7846802e+000
1.9225211e+000
2.0319657e+000
2.0526357e+000
2.0463469e+000
1.9755340e+000
1.9039909e+000
1.8283818e+000
1.7325400e+000
1.5979322e+000
1.4177617e+000
1.1756911e+000
9.0850103e-001
6.2284178e-001
3.7886584e-001
1.8359520e-001
6.7196317e-002
1.6909292e-002
4.3482199e-002
1.3374615e-001
3.5927543e-001
6.6157037e-001
1.0958349e+000
1.5601479e+000
1.9933679e+000
2.3921957e+000
2.6381521e+000
2.8554952e+000
2.9954700e+000
3.1298096e+000
3.2433667e+000
3.3245580e+000
3.3028240e+000
3.2628551e+000
3.1861932e+000
3.1736121e+000
3.2882743e+000
3.4447718e+000
3.6597285e+000
3.8378232e+000
3.9783900e+000
4.1694431e+000
4.4249229e+000
4.7939587e+000
5.2461667e+000
5.6775999e+000
6.0745916e+000
6.3131528e+000
6.4560189e+000
6.4213014e+000
6.3288980e+000
6.2383647e+000
6.1655149e+000
6.2191000e+000
6.2806721e+000
6.2806191e+000
6.2647729e+000
6.1674047e+000
6.0856004e+000
6.0709319e+000
6.0474396e+000
5.9920478e+000
5.8835859e+000
5.6459537e+000
5.3767467e+000
5.0527525e+000
4.7629805e+000
4.5275836e+000
4.3484101e+000
4.2258940e+000
4.0350170e+000
3.7699418e+000
3.3582785e+000
2.8483400e+000
2.3572223e+000
1.8864850e+000
1.5276760e+000
1.2163727e+000
9.5490515e-001
7.1458280e-001
5.5978107e-001
4.2581022e-001
3.6330280e-001
3.0481756e-001
2.2313648e-001
1.4009191e-001
4.8308033e-002
-5.3793639e-002
-2.0382285e-001
-4.0015250e-001
-7.4040663e-001
-1.0967274e+000
-1.4832660e+000
-1.7650735e+000
-1.8598971e+000
-1.8612075e+000
-1.7414080e+000
-1.6822051e+000
-1.6847686e+000
-1.6712403e+000
-1.6337374e+000
-1.3920490e+000
-1.0242780e+000
-6.1511898e-001
-1.9731301e-001
2.1683335e-002
1.7242330e-001
2.3849173e-001
2.8816071e-001
3.7879223e-001
4.6780121e-001
4.0079698e-001
3.2048982e-001
1.4159524e-001
1.0303205e-003
4.4570714e-003
1.4621782e-001
4.8027837e-001
7.5396341e-001
8.5093099e-001
9.3602055e-001
9.9936879e-001
1.2095714e+000
1.6543365e+000
2.1178379e+000
2.6011212e+000
2.9277079e+000
3.1101601e+000
3.3817801e+000
3.7178166e+000
4.2015295e+000
4.7602468e+000
5.0135794e+000
5.1481328e+000
4.8865123e+000
4.5219002e+000
4.1956849e+000
3.8762724e+000
3.8569000e+000
