Image.
>Pix99999.
  .
5555
5555
2300
900
5555
2
1
0
701
5555
-2.1236001e-002
-2.1677369e-002
-2.2119733e-002
-2.2561105e-002
-2.3003468e-002
-2.3444843e-002
-2.3887202e-002
-2.4328580e-002
-2.4769949e-002
-2.5212305e-002
-2.5653686e-002
-2.6096039e-002
-2.6537422e-002
-2.6978791e-002
-2.7421139e-002
-2.7863508e-002
-2.8304897e-002
-2.8744314e-002
-2.9188558e-002
-2.9635841e-002
-3.0071544e-002
-3.0490430e-002
-3.0954354e-002
-3.1483520e-002
-3.1841896e-002
-2.8011320e-002
-1.0351343e-003
5.7678983e-002
9.8153003e-002
7.2678700e-002
9.4543658e-003
-4.4350550e-002
-5.2821476e-002
3.5615617e-003
9.2089690e-002
1.7056981e-001
2.1950817e-001
2.3109940e-001
2.1711220e-001
1.9078429e-001
1.4812429e-001
8.1787966e-002
-8.0877794e-003
-1.1620285e-001
-2.2580892e-001
-3.1669971e-001
-3.6870781e-001
-3.6411467e-001
-2.9501548e-001
-1.6192760e-001
1.2802572e-002
2.0146258e-001
3.8217777e-001
5.3619081e-001
6.4952880e-001
7.0980585e-001
7.0510280e-001
6.3148564e-001
5.1697224e-001
3.9970514e-001
3.1679514e-001
2.9577333e-001
3.2705826e-001
3.8906151e-001
4.6081501e-001
5.2647775e-001
5.8926302e-001
6.5602839e-001
7.2252810e-001
7.8026325e-001
8.1933200e-001
8.3337462e-001
8.3236891e-001
8.2962990e-001
8.2933998e-001
8.3088464e-001
8.2753104e-001
8.1336731e-001
7.9426289e-001
7.8031647e-001
7.8177828e-001
8.0338281e-001
8.2755160e-001
8.3074254e-001
7.9791319e-001
7.2795010e-001
6.6336811e-001
6.5133405e-001
6.9287932e-001
7.6377583e-001
8.0763268e-001
7.7348173e-001
6.7957288e-001
5.7169676e-001
5.0075680e-001
5.0590640e-001
5.7335651e-001
6.7055339e-001
7.7060598e-001
8.5390675e-001
9.1900289e-001
9.6782631e-001
9.8785120e-001
9.6379226e-001
8.9340901e-001
7.8636301e-001
6.7943263e-001
6.1217564e-001
5.9198803e-001
6.0757649e-001
6.2522447e-001
6.1138433e-001
5.6870598e-001
5.1481378e-001
4.6731445e-001
4.3825695e-001
4.1940331e-001
3.9821878e-001
3.7895241e-001
3.7336639e-001
3.9392400e-001
4.4816500e-001
5.2311957e-001
5.9687990e-001
6.4625955e-001
6.5242964e-001
6.1546338e-001
5.4609448e-001
4.6596822e-001
3.9780569e-001
3.5074756e-001
3.2552743e-001
3.1308869e-001
3.0284989e-001
2.9444143e-001
2.9476643e-001
3.2160521e-001
3.9188659e-001
4.9964011e-001
6.2194568e-001
7.0882398e-001
7.1002764e-001
6.2358683e-001
4.7558561e-001
3.1500086e-001
1.9170214e-001
1.2061679e-001
1.0061897e-001
1.3346972e-001
2.1799001e-001
3.3028784e-001
4.3393973e-001
4.8524377e-001
4.5025137e-001
3.4837419e-001
2.2263764e-001
1.0742080e-001
2.6031133e-002
-2.0729214e-002
-3.8208492e-002
-1.3092926e-002
7.3000625e-002
2.1811162e-001
4.0053412e-001
5.5963480e-001
6.2823278e-001
5.9046710e-001
4.6747327e-001
3.2345039e-001
2.2817910e-001
1.9038758e-001
1.8498412e-001
1.8048343e-001
1.5232392e-001
1.0941254e-001
7.2575502e-002
3.9421029e-002
-5.6393370e-003
-7.7563934e-002
-1.8214652e-001
-2.9140544e-001
-3.6334467e-001
-3.7179139e-001
-3.0702934e-001
-1.8822737e-001
-4.8060089e-002
8.5679963e-002
1.9010067e-001
2.4691559e-001
2.4730021e-001
2.1408814e-001
1.8308634e-001
1.7229056e-001
1.8260787e-001
1.8945771e-001
1.6583537e-001
1.3166121e-001
1.3176072e-001
2.0048295e-001
3.5052407e-001
5.3609288e-001
6.8203098e-001
7.2621483e-001
6.3016629e-001
4.1388798e-001
1.3262837e-001
-1.4670908e-001
-3.6205113e-001
-4.8883405e-001
-5.2893126e-001
-5.0292999e-001
-4.3818572e-001
-3.5303256e-001
-2.6274002e-001
-1.9650440e-001
-1.8752100e-001
-2.4737228e-001
-3.6656460e-001
-5.0350857e-001
-6.0598773e-001
-6.5447575e-001
-6.5424573e-001
-6.2443942e-001
-5.8969408e-001
-5.7134479e-001
-5.8464926e-001
-6.2969327e-001
-6.9434243e-001
-7.5266087e-001
-7.7303517e-001
-7.3268312e-001
-6.1854070e-001
-4.3240446e-001
-1.9630769e-001
1.6051173e-002
1.1175749e-001
5.5317923e-002
-1.3457757e-001
-3.7779239e-001
-5.7034642e-001
-6.5957254e-001
-6.4031935e-001
-5.5260861e-001
-4.5381793e-001
-3.6523324e-001
-2.8062099e-001
-1.9073771e-001
-9.0930164e-002
7.8783855e-003
8.7235302e-002
1.4133143e-001
1.7031291e-001
1.5688120e-001
8.1601217e-002
-2.5336057e-002
-1.0403539e-001
-1.2154097e-001
-7.2018959e-002
3.1738039e-002
1.7093261e-001
3.4521857e-001
5.5897182e-001
7.7330852e-001
9.1815752e-001
9.2859173e-001
7.6970392e-001
5.0823319e-001
2.6365292e-001
6.8646282e-002
-1.0255952e-001
-2.1340314e-001
-1.8571010e-001
-2.4312288e-003
2.8947449e-001
5.8770633e-001
7.7032536e-001
7.7952909e-001
6.2900412e-001
4.2225730e-001
3.0028465e-001
3.0132800e-001
3.6889672e-001
4.0359363e-001
3.0771622e-001
8.5518986e-002
-1.7170557e-001
-3.4198013e-001
-2.9549152e-001
7.9240739e-002
8.3781862e-001
1.8481672e+000
2.8603325e+000
3.7432749e+000
4.5105362e+000
5.3176165e+000
6.4032888e+000
7.9537129e+000
1.0082344e+001
1.2824303e+001
1.6116447e+001
1.9688429e+001
2.3145229e+001
2.6260559e+001
2.9039063e+001
3.1813993e+001
3.5123772e+001
3.9326656e+001
4.4470367e+001
5.0011440e+001
5.5092808e+001
5.9551872e+001
6.3867027e+001
6.8459038e+001
7.3485863e+001
7.8604446e+001
8.3146049e+001
8.6785889e+001
8.9581223e+001
9.1695938e+001
9.3312782e+001
9.4565483e+001
9.5522469e+001
9.6163742e+001
9.6387695e+001
9.6033333e+001
9.4957787e+001
9.3296623e+001
9.1399521e+001
8.9428825e+001
8.7311989e+001
8.4864525e+001
8.1883553e+001
7.8383598e+001
7.4567757e+001
7.0545219e+001
6.6297836e+001
6.1789040e+001
5.7015961e+001
5.2111141e+001
4.7321972e+001
4.2845085e+001
3.8796345e+001
3.5244240e+001
3.2210670e+001
2.9648296e+001
2.7456442e+001
2.5558908e+001
2.3923016e+001
2.2557503e+001
2.1499720e+001
2.0765499e+001
2.0335409e+001
2.0163662e+001
2.0192007e+001
2.0396309e+001
2.0791935e+001
2.1401777e+001
2.2257080e+001
2.3422571e+001
2.4984499e+001
2.6972029e+001
2.9332664e+001
3.1926331e+001
3.4555233e+001
3.7111641e+001
3.9593021e+001
4.1985561e+001
4.4282639e+001
4.6675480e+001
4.9476128e+001
5.2562183e+001
5.5339512e+001
5.7307491e+001
5.8248440e+001
5.8338749e+001
5.8067108e+001
5.7665737e+001
5.6998249e+001
5.5831020e+001
5.3967079e+001
5.1509056e+001
4.8868130e+001
4.6386696e+001
4.4231739e+001
4.2432526e+001
4.0894249e+001
3.9460403e+001
3.7938263e+001
3.6172207e+001
3.4091248e+001
3.1800144e+001
2.9556902e+001
2.7464720e+001
2.5401245e+001
2.3181786e+001
2.0648529e+001
1.7886475e+001
1.5232648e+001
1.2909509e+001
1.0926377e+001
9.2139282e+000
7.6733494e+000
6.2534451e+000
4.9611750e+000
3.7717309e+000
2.6224906e+000
1.5293515e+000
6.1221230e-001
-1.0548398e-002
-2.4964327e-001
-1.7302722e-002
7.4990898e-001
1.9534045e+000
3.3136659e+000
4.6186552e+000
5.8034921e+000
6.8872952e+000
7.9551077e+000
9.0921831e+000
1.0342568e+001
1.1619599e+001
1.2688778e+001
1.3354709e+001
1.3535536e+001
1.3277052e+001
1.2756750e+001
1.2134528e+001
1.1502930e+001
1.0896634e+001
1.0288223e+001
9.6234856e+000
8.8411112e+000
7.9414530e+000
7.0114002e+000
6.1537724e+000
5.4594240e+000
4.9742470e+000
4.6833949e+000
4.5482664e+000
4.5189233e+000
4.5605597e+000
4.6654348e+000
4.8437142e+000
5.1190209e+000
5.4984951e+000
5.9599986e+000
6.4652181e+000
6.9609146e+000
7.3856120e+000
7.6734500e+000
7.7757359e+000
7.6759501e+000
7.3995547e+000
7.0193524e+000
6.5975990e+000
6.1643300e+000
5.7379413e+000
5.3297424e+000
4.9486008e+000
4.5982628e+000
4.2610140e+000
3.8922875e+000
3.4626260e+000
2.9765232e+000
2.4575024e+000
1.9428486e+000
1.4515755e+000
9.7379231e-001
5.1506305e-001
1.1658200e-001
-1.6619056e-001
-2.7249807e-001
-1.6702732e-001
1.4087296e-001
6.1696637e-001
1.2053554e+000
1.8575360e+000
2.5416009e+000
3.2108679e+000
3.7891431e+000
4.1956573e+000
4.3621364e+000
4.2770238e+000
4.0165129e+000
3.6687422e+000
3.3067722e+000
2.9852810e+000
2.7317080e+000
2.5520296e+000
2.4253609e+000
2.3163800e+000
2.1783571e+000
1.9790028e+000
1.7170900e+000
1.4122823e+000
1.1063588e+000
8.4043163e-001
6.4408702e-001
5.3731114e-001
5.2759832e-001
6.1860853e-001
8.1254381e-001
1.1129272e+000
1.5244317e+000
2.0408280e+000
2.6338606e+000
3.2571957e+000
3.8431120e+000
4.3344150e+000
4.7043719e+000
4.9530954e+000
5.1166420e+000
5.2367401e+000
5.3498135e+000
5.4871259e+000
5.6726580e+000
5.9276519e+000
6.2701283e+000
6.7109919e+000
7.2488146e+000
7.8797455e+000
8.6009302e+000
9.4113684e+000
1.0312272e+001
1.1298988e+001
1.2350250e+001
1.3429723e+001
1.4476683e+001
1.5422452e+001
1.6192350e+001
1.6715343e+001
1.6935551e+001
1.6817560e+001
1.6357183e+001
1.5577466e+001
1.4543443e+001
1.3331023e+001
1.2018273e+001
1.0692096e+001
9.4536171e+000
8.4000425e+000
7.6088719e+000
7.1266870e+000
6.9426336e+000
7.0098987e+000
7.2334123e+000
7.4974360e+000
7.6692705e+000
7.6376090e+000
7.3489914e+000
6.7982287e+000
6.0533934e+000
5.2027197e+000
4.3386593e+000
3.5388198e+000
2.8457372e+000
2.2817750e+000
1.8438053e+000
1.5219026e+000
1.3040152e+000
1.1763600e+000
1.1225888e+000
1.1237326e+000
1.1575965e+000
1.2075542e+000
1.2702628e+000
1.3433442e+000
1.4181200e+000
1.4796491e+000
1.5031332e+000
1.4694271e+000
1.3780214e+000
1.2360463e+000
1.0576121e+000
8.5610801e-001
6.4075607e-001
4.2655674e-001
2.4303469e-001
1.0974415e-001
1.5396979e-002
-5.2878715e-002
-9.5516756e-002
-1.1916289e-001
-1.5081313e-001
-2.0923868e-001
-2.8189456e-001
-3.4932658e-001
-3.9385074e-001
-4.0242201e-001
-3.7220305e-001
-3.0303559e-001
-1.9576496e-001
-5.5500031e-002
1.0279073e-001
2.6257938e-001
4.1001749e-001
5.3789830e-001
6.5448308e-001
7.7462405e-001
9.1993380e-001
1.1078571e+000
1.3410120e+000
1.6181040e+000
1.9366879e+000
2.2936058e+000
2.6821728e+000
3.0834184e+000
3.4476020e+000
3.7187064e+000
3.8463891e+000
3.8027084e+000
3.6179714e+000
3.3461194e+000
3.0661879e+000
2.8510725e+000
2.7383585e+000
2.7383080e+000
2.8087802e+000
2.8880701e+000
2.8975847e+000
2.7790916e+000
2.5430772e+000
2.2307992e+000
1.9213850e+000
1.6855406e+000
1.5449357e+000
1.5032058e+000
1.5463291e+000
1.6562972e+000
1.8153832e+000
1.9969200e+000
2.1493998e+000
2.2235029e+000
2.1948261e+000
2.0656903e+000
1.8982501e+000
1.7558211e+000
1.6608570e+000
1.6069038e+000
1.5323203e+000
1.3763658e+000
1.1234785e+000
7.8189814e-001
4.0067896e-001
3.4765184e-002
-2.7324766e-001
-4.9472278e-001
-6.3508147e-001
-7.1087754e-001
-7.4746156e-001
-7.7712286e-001
-8.4659261e-001
-9.9539459e-001
-1.2279422e+000
-1.5267254e+000
-1.8322344e+000
-2.0838308e+000
-2.2509463e+000
-2.3105681e+000
-2.2397883e+000
-2.0214429e+000
-1.6570457e+000
-1.1742935e+000
-6.7071438e-001
-2.5051028e-001
2.0377301e-002
1.1297350e-001
9.1806389e-002
3.7023049e-002
2.2127675e-003
1.5106242e-002
3.7158489e-002
2.7717700e-002
-3.6961604e-003
-3.1836100e-002
-2.0212103e-002
5.8859706e-002
1.9178416e-001
3.5618982e-001
5.3522921e-001
7.2022146e-001
9.2701638e-001
1.1656355e+000
1.4032291e+000
1.6144978e+000
1.8429250e+000
2.1341019e+000
2.4789448e+000
2.8343961e+000
3.0814745e+000
3.1290557e+000
3.0632558e+000
3.0149267e+000
3.1157970e+000
3.4564810e+000
3.9673200e+000
4.5431747e+000
5.0975838e+000
5.5593691e+000
5.8977785e+000
6.0925002e+000
