Image.
>Pix99999.
  .
5555
5555
2300
900
5555
2
1
0
701
5555
1.8530000e-004
1.8915448e-004
1.9298903e-004
1.9686337e-004
2.0070800e-004
2.0457235e-004
2.0841700e-004
2.1227139e-004
2.1612587e-004
2.1998037e-004
2.2382499e-004
2.2768919e-004
2.3155365e-004
2.3540831e-004
2.3926281e-004
2.4310751e-004
2.4696178e-004
2.5081626e-004
2.5467077e-004
2.5852522e-004
2.6238943e-004
2.6623448e-004
2.7008870e-004
2.7395284e-004
2.7779801e-004
2.8165214e-004
3.7839036e-003
1.5116142e-004
-3.9646082e-004
1.3554346e-002
2.9684771e-002
7.1380138e-002
1.1389440e-001
1.3344881e-001
1.4951432e-001
1.4684150e-001
1.4512332e-001
1.5231407e-001
1.5999255e-001
1.6783209e-001
1.7510572e-001
1.8110266e-001
1.9115080e-001
2.0793219e-001
2.3731045e-001
2.8189728e-001
3.4644616e-001
4.2926127e-001
5.1464957e-001
6.0105801e-001
6.7287213e-001
7.3626578e-001
7.9103297e-001
8.4227252e-001
8.9413780e-001
9.4627625e-001
1.0055984e+000
1.0665246e+000
1.1179074e+000
1.1676110e+000
1.1992285e+000
1.2300986e+000
1.2708977e+000
1.3118191e+000
1.3482085e+000
1.3719107e+000
1.3507231e+000
1.3175542e+000
1.2652749e+000
1.2283598e+000
1.2240900e+000
1.2405337e+000
1.2822331e+000
1.3249574e+000
1.3658869e+000
1.4053786e+000
1.4436526e+000
1.4782380e+000
1.5103455e+000
1.5225053e+000
1.5238657e+000
1.5173563e+000
1.5078480e+000
1.5114597e+000
1.5193161e+000
1.5189822e+000
1.5167825e+000
1.4933811e+000
1.4671062e+000
1.4500089e+000
1.4370199e+000
1.4450569e+000
1.4581388e+000
1.4795841e+000
1.5079653e+000
1.5539043e+000
1.6099417e+000
1.6825794e+000
1.7452880e+000
1.7873701e+000
1.8135571e+000
1.8232467e+000
1.8385665e+000
1.8621509e+000
1.8815514e+000
1.8960301e+000
1.8935177e+000
1.8800776e+000
1.8620697e+000
1.8425676e+000
1.8193557e+000
1.7947326e+000
1.7733279e+000
1.7530608e+000
1.7729889e+000
1.8039922e+000
1.8710206e+000
1.9436822e+000
1.9967064e+000
2.0414369e+000
2.0614114e+000
2.0746701e+000
2.0826800e+000
2.0822513e+000
2.0643733e+000
2.0288930e+000
1.9664041e+000
1.9014840e+000
1.8393005e+000
1.8026313e+000
1.7942942e+000
1.7994713e+000
1.8129714e+000
1.8185540e+000
1.8177446e+000
1.8320900e+000
1.8575155e+000
1.9126657e+000
1.9830072e+000
2.0328033e+000
2.0724800e+000
2.0559235e+000
2.0195882e+000
1.9644754e+000
1.9041663e+000
1.8450007e+000
1.7857101e+000
1.7262950e+000
1.6735040e+000
1.6545137e+000
1.6528500e+000
1.6806853e+000
1.7070103e+000
1.7087617e+000
1.6903280e+000
1.6407878e+000
1.5839583e+000
1.5274721e+000
1.4865385e+000
1.4655478e+000
1.4844800e+000
1.5377079e+000
1.6225392e+000
1.7273651e+000
1.7862383e+000
1.8133143e+000
1.7519789e+000
1.6450301e+000
1.5444319e+000
1.4486047e+000
1.4120228e+000
1.3961376e+000
1.3850834e+000
1.3723105e+000
1.3515420e+000
1.3278750e+000
1.2982452e+000
1.2680351e+000
1.2238854e+000
1.1788747e+000
1.1382086e+000
1.1055347e+000
1.0928900e+000
1.0837405e+000
1.0775617e+000
1.0693843e+000
1.0617601e+000
1.0770489e+000
1.1132885e+000
1.1616760e+000
1.2098157e+000
1.2386699e+000
1.2534086e+000
1.2480810e+000
1.2335957e+000
1.1852928e+000
1.1181160e+000
1.0554857e+000
9.9407256e-001
9.9675751e-001
1.0254428e+000
1.0784675e+000
1.1353440e+000
1.1451360e+000
1.1260486e+000
1.0496172e+000
9.5103312e-001
8.4752518e-001
7.5473785e-001
6.9622278e-001
6.6652101e-001
6.7916125e-001
7.2498655e-001
8.0620188e-001
8.9543635e-001
9.6768528e-001
9.8821336e-001
9.4739401e-001
8.5828435e-001
7.4485606e-001
6.3705915e-001
5.4337221e-001
4.9800125e-001
4.8830873e-001
5.2265960e-001
5.8578038e-001
6.0312712e-001
5.9853530e-001
5.3093219e-001
4.3556470e-001
3.9093828e-001
3.7733608e-001
4.3816954e-001
5.3856564e-001
6.5088159e-001
7.4930781e-001
7.7028143e-001
7.2478759e-001
6.0772079e-001
4.6442944e-001
3.3782026e-001
2.4134183e-001
1.8585895e-001
1.5866908e-001
1.4579834e-001
1.4709750e-001
1.5731420e-001
1.5674879e-001
1.4965811e-001
1.5001264e-001
1.5930000e-001
2.3193139e-001
3.4120840e-001
4.4050691e-001
5.2152163e-001
5.3785998e-001
5.1369458e-001
4.9946120e-001
4.9354613e-001
5.3065157e-001
5.9305227e-001
6.6802675e-001
7.3121703e-001
7.0534056e-001
6.1501324e-001
4.5551094e-001
2.7933478e-001
1.5128556e-001
4.2489484e-002
-5.6999750e-002
-1.0037950e-001
-6.8632364e-002
2.4300955e-002
1.6790271e-001
2.8097075e-001
3.3896893e-001
3.1930727e-001
2.2545308e-001
1.4987929e-001
1.0749699e-001
1.7873481e-001
3.4283775e-001
4.5336896e-001
5.0877512e-001
3.8502538e-001
1.4032762e-001
-3.0624535e-002
-1.1885805e-001
3.5721734e-003
2.9173487e-001
7.7214569e-001
1.3533170e+000
1.8295709e+000
2.2332644e+000
2.6289201e+000
3.1989951e+000
4.1342707e+000
5.7048264e+000
8.0333757e+000
1.1221389e+001
1.5151428e+001
1.9008970e+001
2.2450245e+001
2.5512236e+001
2.8315411e+001
3.1814413e+001
3.6083076e+001
4.1243530e+001
4.7079201e+001
5.2138920e+001
5.6465797e+001
6.0654766e+001
6.4838280e+001
6.9760864e+001
7.5219940e+001
8.0512802e+001
8.5531647e+001
8.9913872e+001
9.3733055e+001
9.7128143e+001
1.0021028e+002
1.0318097e+002
1.0575120e+002
1.0758093e+002
1.0780954e+002
1.0571571e+002
1.0230123e+002
9.8512016e+001
9.4627563e+001
9.0855629e+001
8.6592285e+001
8.1626617e+001
7.6522987e+001
7.1485222e+001
6.6808250e+001
6.2522442e+001
5.8191719e+001
5.3757507e+001
4.9442345e+001
4.5262566e+001
4.1346226e+001
3.7708279e+001
3.4471298e+001
3.1651030e+001
2.9267006e+001
2.7304485e+001
2.5636690e+001
2.4270496e+001
2.3162823e+001
2.2313408e+001
2.1683498e+001
2.1268974e+001
2.1029417e+001
2.0947573e+001
2.0982496e+001
2.1110786e+001
2.1310520e+001
2.1584799e+001
2.1936588e+001
2.2441387e+001
2.3121513e+001
2.3992487e+001
2.5036589e+001
2.6134569e+001
2.7253241e+001
2.8393364e+001
2.9566120e+001
3.1045372e+001
3.2937084e+001
3.5740814e+001
3.9486588e+001
4.3266182e+001
4.6861240e+001
4.9567062e+001
5.1463245e+001
5.3245716e+001
5.4953247e+001
5.6684731e+001
5.8145382e+001
5.8811623e+001
5.8563572e+001
5.7406677e+001
5.5729984e+001
5.4064240e+001
5.2466347e+001
5.0977501e+001
4.9457588e+001
4.7801670e+001
4.5861240e+001
4.3512836e+001
4.1120445e+001
3.8804146e+001
3.6661037e+001
3.4774940e+001
3.2489262e+001
2.9652086e+001
2.6590143e+001
2.3296871e+001
2.0436907e+001
1.8074511e+001
1.5833000e+001
1.3721593e+001
1.1618129e+001
9.5287943e+000
7.4362278e+000
5.4111190e+000
3.5851619e+000
2.0499647e+000
9.2970139e-001
2.5443187e-001
5.5636868e-002
4.4171974e-001
1.3381808e+000
2.4149611e+000
3.4513154e+000
4.3075366e+000
4.9056883e+000
5.4577136e+000
6.0602555e+000
6.7305098e+000
7.4826002e+000
8.0557642e+000
8.3061771e+000
8.3318577e+000
8.0361176e+000
7.7034216e+000
7.3299446e+000
6.9861450e+000
6.6837115e+000
6.3721504e+000
6.0324430e+000
5.5634556e+000
4.9705114e+000
4.3439717e+000
3.7354920e+000
3.2974222e+000
3.0448422e+000
2.9734719e+000
3.0509593e+000
3.1975634e+000
3.3678257e+000
3.5026100e+000
3.6087432e+000
3.7202997e+000
3.8650036e+000
4.0836787e+000
4.3661394e+000
4.7218637e+000
5.1097360e+000
5.5282364e+000
5.9293928e+000
6.2821860e+000
6.5732722e+000
6.7291474e+000
6.7822142e+000
6.6622353e+000
6.4264007e+000
6.0343084e+000
5.5897517e+000
5.0924950e+000
4.5926256e+000
4.1110287e+000
3.6540899e+000
3.2323163e+000
2.8605778e+000
2.5014179e+000
2.1106477e+000
1.6859885e+000
1.2082754e+000
7.4968302e-001
3.9487702e-001
1.3672712e-001
3.7339248e-002
2.4178419e-002
9.4773412e-002
1.8030894e-001
3.1656402e-001
4.7936851e-001
6.9263256e-001
9.0776694e-001
1.1130401e+000
1.2951272e+000
1.4050654e+000
1.5078651e+000
1.6024742e+000
1.7312343e+000
1.9296125e+000
2.1785021e+000
2.5007241e+000
2.8438830e+000
3.2018800e+000
3.5267663e+000
3.7992828e+000
4.0113649e+000
4.1570296e+000
4.2517872e+000
4.3028550e+000
4.3116050e+000
4.2926369e+000
4.2372375e+000
4.1704712e+000
4.0955787e+000
4.0303030e+000
3.9913313e+000
3.9693642e+000
3.9796000e+000
3.9959357e+000
4.0185690e+000
4.0414710e+000
4.0640483e+000
4.0938101e+000
4.1429324e+000
4.2010655e+000
4.2799883e+000
4.3716593e+000
4.4829760e+000
4.6189785e+000
4.7829728e+000
4.9658041e+000
5.1657624e+000
5.3649940e+000
5.5602908e+000
5.7439814e+000
5.9159560e+000
6.0735178e+000
6.2181001e+000
6.3371167e+000
6.4332008e+000
6.4808540e+000
6.4951649e+000
6.4447999e+000
6.3591957e+000
6.1999717e+000
6.0052409e+000
5.7197933e+000
5.3955030e+000
4.9661951e+000
4.5060873e+000
3.9747972e+000
3.4503789e+000
2.9442399e+000
2.4752715e+000
2.0713420e+000
1.6975194e+000
1.3681469e+000
1.0653362e+000
7.9580176e-001
5.5170178e-001
3.3313268e-001
1.2755865e-001
-6.1613500e-002
-2.2202891e-001
-3.5412595e-001
-4.3572980e-001
-4.8723274e-001
-5.0645798e-001
-5.0759441e-001
-4.7804755e-001
-4.1646048e-001
-2.5093323e-001
-3.7602007e-002
3.1293443e-001
6.7407358e-001
1.0417809e+000
1.3745475e+000
1.5965478e+000
1.7809708e+000
1.8705240e+000
1.9239395e+000
1.9017119e+000
1.8355215e+000
1.6955744e+000
1.5210555e+000
1.3005276e+000
1.0629333e+000
8.0995321e-001
5.6816369e-001
3.4439316e-001
1.7089921e-001
4.3843724e-002
-1.1056826e-002
-1.4228851e-002
5.2679189e-002
1.5896434e-001
3.3243400e-001
5.2544677e-001
7.2629809e-001
9.1540116e-001
1.0346800e+000
1.1434909e+000
1.2315315e+000
1.3341707e+000
1.4998354e+000
1.6704466e+000
1.8542215e+000
2.0176852e+000
2.1289263e+000
2.2188690e+000
2.2672949e+000
2.3086729e+000
2.3383143e+000
2.3580749e+000
2.3628778e+000
2.3474362e+000
2.3131542e+000
2.2843885e+000
2.2646830e+000
2.2780375e+000
2.3128355e+000
2.3578739e+000
2.4015472e+000
2.4021327e+000
2.3786104e+000
2.2859275e+000
2.1768837e+000
2.0620387e+000
1.9564480e+000
1.9250104e+000
1.9028697e+000
1.9158919e+000
1.9226571e+000
1.9013513e+000
1.8693683e+000
1.8029990e+000
1.7188766e+000
1.5921750e+000
1.4602462e+000
1.3206360e+000
1.2074931e+000
1.1329999e+000
1.0716701e+000
1.0246061e+000
9.6925128e-001
9.0636873e-001
8.3426213e-001
7.5440609e-001
6.5683794e-001
5.5028963e-001
4.4903767e-001
3.5128227e-001
2.7308029e-001
2.0057184e-001
1.3267210e-001
6.4832136e-002
-1.2731008e-002
-9.6082404e-002
-2.3913434e-001
-3.8732022e-001
-5.6668741e-001
-7.2851688e-001
-8.1203002e-001
-8.6694586e-001
-8.3370626e-001
-7.8983963e-001
-7.2222304e-001
-6.5786600e-001
-5.9911954e-001
-5.5351150e-001
-5.2566320e-001
-5.1288921e-001
-5.1626658e-001
-5.2521104e-001
-5.3939545e-001
-5.6657678e-001
-6.0088420e-001
-6.3135153e-001
-6.5748435e-001
-6.3481808e-001
-5.9531903e-001
-5.2334559e-001
-4.4551000e-001
-3.8408834e-001
-3.2429799e-001
-2.5352201e-001
-1.7892666e-001
-5.7465643e-002
9.4717741e-004
2.9485058e-002
8.6223528e-002
1.5050119e-001
2.2098827e-001
3.0990782e-001
3.9340299e-001
4.6558589e-001
5.4718417e-001
6.4433318e-001
7.6100779e-001
9.0084279e-001
9.9488115e-001
1.0450213e+000
1.0201838e+000
9.4270378e-001
9.0676123e-001
8.9524412e-001
1.0309654e+000
1.2254364e+000
1.4822726e+000
1.7567053e+000
1.9442983e+000
2.1181986e+000
2.1171999e+000
