##TITLE=Methyl Ethyl Ketone
##JCAMP-DX=4.24
##DATA TYPE=INFRARED SPECTRUM
##XUNITS=cm-1
##YUNITS=Absorbance
##FIRSTX=900
##LASTX=2300
##XYDATA=(X++(Y..Y))
2296 0.014753
2294 0.015065553
2292 0.015379103
2290 0.015692655
2288 0.016006207
2286 0.016319757
2284 0.016633308
2282 0.01694686
2280 0.01726041
2278 0.017573964
2276 0.017886527
2274 0.018200066
2272 0.018513616
2270 0.018827168
2268 0.019140719
2266 0.019454272
2264 0.019767823
2262 0.020081375
2260 0.020393951
2258 0.020707477
2256 0.021021029
2254 0.021334581
2252 0.021648131
2250 0.021961683
2248 0.022275234
2246 0.022588786
2244 0.030999003
2242 0.0012081729
2240 0.035493121
2238 0.069516458
2236 0.10313756
2234 0.163452
2232 0.22665308
2230 0.31148618
2228 0.40603039
2226 0.56994599
2224 0.74796301
2222 0.97441566
2220 1.1835891
2218 1.3321991
2216 1.4434485
2214 1.4804846
2212 1.492834
2210 1.4721006
2208 1.4443663
2206 1.4103179
2204 1.396328
2202 1.4021233
2200 1.4426515
2198 1.508189
2196 1.6320356
2194 1.788523
2192 1.9773743
2190 2.1794147
2188 2.2999134
2186 2.3937478
2184 2.4251041
2182 2.442632
2180 2.495085
2178 2.5528114
2176 2.6115515
2174 2.6659856
2172 2.6700621
2170 2.66363
2168 2.6244767
2166 2.5943837
2164 2.6093614
2162 2.6461055
2160 2.7266331
2158 2.7904279
2156 2.8137801
2154 2.8203726
2152 2.8089681
2150 2.8436077
2148 2.9323995
2146 3.0690072
2144 3.2429633
2142 3.3757751
2140 3.4773245
2138 3.4859934
2136 3.445843
2134 3.4078929
2132 3.3727882
2130 3.4533172
2128 3.57074
2126 3.7194457
2124 3.874922
2122 3.8838542
2120 3.8639526
2118 3.7410202
2116 3.6127415
2114 3.553596
2112 3.5315657
2110 3.629355
2108 3.7603595
2106 3.9388843
2104 4.1075068
2102 4.2389264
2100 4.3313918
2098 4.3678975
2096 4.3729286
2094 4.3477712
2092 4.2945495
2090 4.2168627
2088 4.1349974
2086 4.052505
2084 4.0300021
2082 4.0471759
2080 4.1199484
2078 4.2193928
2076 4.2987828
2074 4.3685741
2072 4.3814321
2070 4.3761816
2068 4.3520784
2066 4.3246179
2064 4.3305287
2062 4.3467584
2060 4.3994026
2058 4.4628692
2056 4.5467973
2054 4.6227779
2052 4.6558952
2050 4.6514626
2048 4.5726628
2046 4.4925218
2044 4.43852
2042 4.4418149
2040 4.5235991
2038 4.6075358
2036 4.6752658
2034 4.6705551
2032 4.5986209
2030 4.4997749
2028 4.3896589
2026 4.3441472
2024 4.3416228
2022 4.4247589
2020 4.5494123
2018 4.6988406
2016 4.8561401
2014 4.9587927
2012 5.0422249
2010 5.0202284
2008 4.9675674
2006 4.8697615
2004 4.7658997
2002 4.7024717
2000 4.6532121
1998 4.6230855
1996 4.5914574
1994 4.5421839
1992 4.4792447
1990 4.3935776
1988 4.3002019
1986 4.2002416
1984 4.1174717
1982 4.0610261
1980 4.0445123
1978 4.0674224
1976 4.1203461
1974 4.1938829
1972 4.2561464
1970 4.3071666
1968 4.3485394
1966 4.384985
1964 4.4044614
1962 4.4146004
1960 4.3652477
1958 4.2901349
1956 4.1974268
1954 4.0992622
1952 4.0181761
1950 3.9444156
1948 3.8966937
1946 3.8615501
1944 3.8472612
1942 3.8302824
1940 3.7726271
1938 3.6973155
1936 3.6065829
1934 3.533288
1932 3.5075679
1930 3.4841893
1928 3.4453764
1926 3.340517
1924 3.1565917
1922 2.9690399
1920 2.7983515
1918 2.760946
1916 2.8372858
1914 2.9840243
1912 3.165452
1910 3.2876456
1908 3.3682082
1906 3.4149878
1904 3.4463401
1902 3.4633665
1900 3.4736845
1898 3.445195
1896 3.4025857
1894 3.3838706
1892 3.3752952
1890 3.3684978
1888 3.3500485
1886 3.2747486
1884 3.1774518
1882 3.0767219
1880 2.9722784
1878 2.8643041
1876 2.74476
1874 2.6109574
1872 2.4963789
1870 2.4206614
1868 2.373698
1866 2.3419616
1864 2.3023932
1862 2.2449231
1860 2.2210996
1858 2.2337675
1856 2.2388229
1854 2.2340627
1852 2.0489893
1850 1.7466606
1848 1.307344
1846 0.80062532
1844 0.56255543
1842 0.47837096
1840 0.72049278
1838 1.1102247
1836 1.4753214
1834 1.807138
1832 2.0391588
1830 2.1789887
1828 2.1431732
1826 1.995595
1824 1.7395846
1822 1.4865636
1820 1.33561
1818 1.2519293
1816 1.2215629
1814 1.1977073
1812 1.1580151
1810 1.1503384
1808 1.186776
1806 1.269035
1804 1.3849417
1802 1.3812997
1800 1.2624172
1798 1.0130244
1796 0.68013287
1794 0.52511674
1792 0.50367004
1790 0.63189232
1788 0.84002322
1786 0.92509025
1784 0.92695373
1782 0.8226825
1780 0.64876729
1778 0.41344762
1776 0.17236567
1774 0.047525626
1772 0.051298667
1770 0.25830913
1768 0.49736145
1766 0.56619662
1764 0.48172879
1762 0.2553663
1760 0.057374008
1758 -0.15099776
1756 -0.33832985
1754 -0.43668792
1752 -0.57169783
1750 -0.78623295
1748 -1.0906042
1746 -1.4675535
1744 -1.7992388
1742 -2.0758903
1740 -2.2269526
1738 -2.2787528
1736 -2.1923401
1734 -2.007221
1732 -1.6858003
1730 -1.279506
1728 -0.92414123
1726 -0.61928278
1724 -0.40149954
1722 -0.22721669
1720 0.038366958
1718 0.43029976
1716 1.0364429
1714 1.7266355
1712 2.2985759
1710 2.751158
1708 3.0885859
1706 3.4796965
1704 4.0920959
1702 5.2097778
1700 6.9831362
1698 9.8286562
1696 13.797428
1694 18.112589
1692 22.364468
1690 26.168493
1688 29.504257
1686 33.21888
1684 37.433292
1682 42.288273
1680 47.6422
1678 52.242851
1676 56.151814
1674 60.008724
1672 63.91708
1670 68.530212
1668 73.657967
1666 78.668053
1664 83.498199
1662 87.927498
1660 91.962929
1658 95.599937
1656 98.826515
1654 101.6423
1652 103.9208
1650 105.55014
1648 106.09629
1646 105.23035
1644 103.35526
1642 100.90448
1640 98.149498
1638 95.307838
1636 92.064659
1634 88.332268
1632 84.315186
1630 80.122559
1628 75.8368
1626 71.496223
1624 66.753723
1622 61.613838
1620 56.475296
1618 51.394455
1616 46.778374
1614 42.655903
1612 39.178909
1610 36.32571
1608 33.904137
1606 31.8647
1604 29.986425
1602 28.307638
1600 26.877382
1598 25.717989
1596 24.8235
1594 24.164335
1592 23.66568
1590 23.332584
1588 23.147663
1586 23.11808
1584 23.234491
1582 23.441599
1580 23.7008
1578 24.076366
1576 24.589113
1574 25.331617
1572 26.319275
1570 27.44375
1568 28.674681
1566 29.900507
1564 31.110821
1562 32.444725
1560 33.975857
1558 36.195854
1556 39.142101
1554 42.259838
1552 45.365978
1550 47.739967
1548 49.377159
1546 50.647892
1544 51.525902
1542 52.085114
1540 52.221859
1538 51.826866
1536 50.940857
1534 49.704227
1532 48.247749
1530 46.761524
1528 45.236965
1526 43.667999
1524 42.033737
1522 40.313629
1520 38.630173
1518 37.025032
1516 35.504601
1514 34.082615
1512 32.4958
1510 30.68066
1508 28.316402
1506 25.266457
1504 22.181383
1502 19.119518
1500 16.600363
1498 14.709351
1496 12.987286
1494 11.442773
1492 9.9178104
1490 8.3919907
1488 6.7957916
1486 5.1734595
1484 3.6390781
1482 2.2895877
1480 1.2629409
1478 0.56334317
1476 0.149445
1474 0.10914704
1472 0.4482621
1470 0.90947068
1468 1.3907552
1466 1.8110929
1464 2.1263835
1462 2.4174943
1460 2.7203317
1458 3.1364374
1456 3.7262399
1454 4.3744259
1452 5.0660152
1450 5.5684485
1448 5.7764101
1446 5.8560929
1444 5.7587509
1442 5.6021709
1440 5.3647947
1438 5.0611086
1436 4.6807971
1434 4.2517948
1432 3.7859211
1430 3.3380477
1428 2.9222078
1426 2.5725143
1424 2.315865
1422 2.1848011
1420 2.2119622
1418 2.4247942
1416 2.7779741
1414 3.2310531
1412 3.6819115
1410 4.0581813
1408 4.3639975
1406 4.5811129
1404 4.7555194
1402 4.8800521
1400 4.9879241
1398 5.0750637
1396 5.1809926
1394 5.3197141
1392 5.4612765
1390 5.5873265
1388 5.6316891
1386 5.5382099
1384 5.3377123
1382 4.9842243
1380 4.5455136
1378 4.0084658
1376 3.4446971
1374 2.895251
1372 2.4592979
1370 2.1527159
1368 1.9582057
1366 1.8044114
1364 1.5603863
1362 1.2370223
1360 0.83700836
1358 0.45512873
1356 0.20484753
1354 0.047996886
1352 0.0065056435
1350 0.0080740657
1348 0.032559723
1346 0.064165577
1344 0.113165
1342 0.16782247
1340 0.23381695
1338 0.33014715
1336 0.4861097
1334 0.67588478
1332 0.90688175
1330 1.107712
1328 1.2559634
1326 1.3758428
1324 1.469016
1322 1.5813261
1320 1.732796
1318 1.9341778
1316 2.19382
1314 2.4848037
1312 2.785239
1310 3.0452073
1308 3.2511077
1306 3.385685
1304 3.4624178
1302 3.4840422
1300 3.4712317
1298 3.4234893
1296 3.3645
1294 3.3015332
1292 3.2479274
1290 3.2200303
1288 3.20804
1286 3.2271006
1284 3.2564523
1282 3.3059165
1280 3.3645313
1278 3.4439015
1276 3.5342984
1274 3.6502609
1272 3.7868183
1270 3.9659369
1268 4.1902499
1266 4.481318
1264 4.8093786
1262 5.175817
1260 5.5387259
1258 5.9020867
1256 6.2800317
1254 6.6828375
1252 7.1370101
1250 7.6193004
1248 8.0894156
1246 8.5331497
1244 8.9051809
1242 9.2501917
1240 9.5938034
1238 9.9394016
1236 10.293457
1234 10.601387
1232 10.75536
1230 10.824499
1228 10.66816
1226 10.468814
1224 10.165676
1222 9.8462172
1220 9.4864321
1218 9.099515
1216 8.6560936
1214 8.1841755
1212 7.6646485
1210 7.1293626
1208 6.5771456
1206 6.0427766
1204 5.5363441
1202 5.072845
1200 4.6513577
1198 4.2483068
1196 3.8618
1194 3.4892857
1192 3.1357651
1190 2.8288932
1188 2.5544286
1186 2.3289416
1184 2.1269703
1182 1.9557338
1180 1.8043752
1178 1.7066305
1176 1.6454999
1174 1.7038852
1172 1.7846802
1170 1.9225211
1168 2.0319657
1166 2.0526357
1164 2.0463469
1162 1.975534
1160 1.9039909
1158 1.8283818
1156 1.73254
1154 1.5979322
1152 1.4177617
1150 1.1756911
1148 0.90850103
1146 0.62284178
1144 0.37886584
1142 0.1835952
1140 0.067196317
1138 0.016909292
1136 0.043482199
1134 0.13374615
1132 0.35927543
1130 0.66157037
1128 1.0958349
1126 1.5601479
1124 1.9933679
1122 2.3921957
1120 2.6381521
1118 2.8554952
1116 2.99547
1114 3.1298096
1112 3.2433667
1110 3.324558
1108 3.302824
1106 3.2628551
1104 3.1861932
1102 3.1736121
1100 3.2882743
1098 3.4447718
1096 3.6597285
1094 3.8378232
1092 3.97839
1090 4.1694431
1088 4.4249229
1086 4.7939587
1084 5.2461667
1082 5.6775999
1080 6.0745916
1078 6.3131528
1076 6.4560189
1074 6.4213014
1072 6.328898
1070 6.2383647
1068 6.1655149
1066 6.2191
1064 6.2806721
1062 6.2806191
1060 6.2647729
1058 6.1674047
1056 6.0856004
1054 6.0709319
1052 6.0474396
1050 5.9920478
1048 5.8835859
1046 5.6459537
1044 5.3767467
1042 5.0527525
1040 4.7629805
1038 4.5275836
1036 4.3484101
1034 4.225894
1032 4.035017
1030 3.7699418
1028 3.3582785
1026 2.84834
1024 2.3572223
1022 1.886485
1020 1.527676
1018 1.2163727
1016 0.95490515
1014 0.7145828
1012 0.55978107
1010 0.42581022
1008 0.3633028
1006 0.30481756
1004 0.22313648
1002 0.14009191
1000 0.048308033
998 -0.053793639
996 -0.20382285
994 -0.4001525
992 -0.74040663
990 -1.0967274
988 -1.483266
986 -1.7650735
984 -1.8598971
982 -1.8612075
980 -1.741408
978 -1.6822051
976 -1.6847686
974 -1.6712403
972 -1.6337374
970 -1.392049
968 -1.024278
966 -0.61511898
964 -0.19731301
962 0.021683335
960 0.1724233
958 0.23849173
956 0.28816071
954 0.37879223
952 0.46780121
950 0.40079698
948 0.32048982
946 0.14159524
944 0.0010303205
942 0.0044570714
940 0.14621782
938 0.48027837
936 0.75396341
934 0.85093099
932 0.93602055
930 0.99936879
928 1.2095714
926 1.6543365
924 2.1178379
922 2.6011212
920 2.9277079
918 3.1101601
916 3.3817801
914 3.7178166
912 4.2015295
910 4.7602468
908 5.0135794
906 5.1481328
904 4.8865123
902 4.5219002
900 4.1956849
898 3.8762724
896 3.8569
