##TITLE=Methyl Ethyl Ketone
##JCAMP-DX=4.24
##DATA TYPE=INFRARED SPECTRUM
##XUNITS=cm-1
##YUNITS=Absorbance
##FIRSTX=900
##LASTX=2300
##XYDATA=(X++(Y..Y))
2296 0.043577
2294 0.044483703
2292 0.045390408
2290 0.046297107
2288 0.047203809
2286 0.04810952
2284 0.049016219
2282 0.049922921
2280 0.050829623
2278 0.051736325
2276 0.052643027
2274 0.053547762
2272 0.054455418
2270 0.055369008
2268 0.056268983
2266 0.057151079
2264 0.058081672
2262 0.059078716
2260 0.059898015
2258 0.060464773
2256 0.061698169
2254 0.063868001
2252 0.063562073
2250 0.05976557
2248 0.06516958
2246 0.085967004
2244 0.086902358
2242 0.02898966
2240 -0.094990961
2238 -0.27040774
2236 -0.43097988
2234 -0.51004422
2232 -0.4984268
2230 -0.41520211
2228 -0.32636672
2226 -0.29412898
2224 -0.3110528
2222 -0.34815508
2220 -0.37233752
2218 -0.36282626
2216 -0.35265771
2214 -0.37993687
2212 -0.4383238
2210 -0.50239336
2208 -0.5244931
2206 -0.46471077
2204 -0.34089407
2202 -0.19083497
2200 -0.060897402
2198 0.01099246
2196 0.030927712
2194 0.018568058
2192 -0.0072247162
2190 -0.033253383
2188 -0.067344882
2186 -0.12057957
2184 -0.19012721
2182 -0.26949698
2180 -0.35600483
2178 -0.44819912
2176 -0.54434001
2174 -0.63776219
2172 -0.70218897
2170 -0.71253765
2168 -0.6748873
2166 -0.60944593
2164 -0.55125159
2162 -0.52944624
2160 -0.52956086
2158 -0.52701962
2156 -0.51661301
2154 -0.50512946
2152 -0.51998299
2150 -0.58133125
2148 -0.6512177
2146 -0.6801154
2144 -0.65461892
2142 -0.58702213
2140 -0.54120135
2138 -0.5819338
2136 -0.70453686
2134 -0.87487286
2132 -1.0414883
2130 -1.1575046
2128 -1.2184601
2126 -1.2358065
2124 -1.2253709
2122 -1.2011067
2120 -1.1667755
2118 -1.1229341
2116 -1.0733671
2114 -1.0239221
2112 -0.9838863
2110 -0.96098018
2108 -0.95246702
2106 -0.95184654
2104 -0.95365882
2102 -0.95409507
2100 -0.95393938
2098 -0.95433933
2096 -0.95079285
2094 -0.93619907
2092 -0.90202641
2090 -0.84327084
2088 -0.77142191
2086 -0.70524001
2084 -0.66662163
2082 -0.67209315
2080 -0.71169502
2078 -0.76530123
2076 -0.81456256
2074 -0.84538025
2072 -0.85648841
2070 -0.85148907
2068 -0.83288419
2066 -0.80703598
2064 -0.79939967
2062 -0.8400864
2060 -0.94566548
2058 -1.1180353
2056 -1.3226371
2054 -1.5126793
2052 -1.6536466
2050 -1.7223479
2048 -1.7197572
2046 -1.6608322
2044 -1.576358
2042 -1.5019721
2040 -1.4671823
2038 -1.490279
2036 -1.5567757
2034 -1.6394303
2032 -1.7168063
2030 -1.77565
2028 -1.8209494
2026 -1.8620507
2024 -1.8911709
2022 -1.8954153
2020 -1.8735228
2018 -1.8351811
2016 -1.813
2014 -1.8377694
2012 -1.8909748
2010 -1.9353242
2008 -1.9504515
2006 -1.9315858
2004 -1.9011909
2002 -1.8820391
2000 -1.8474725
1998 -1.7552693
1996 -1.5971428
1994 -1.391657
1992 -1.1983577
1990 -1.0834424
1988 -1.065742
1986 -1.1351922
1984 -1.261324
1982 -1.407016
1980 -1.5419637
1978 -1.6398432
1976 -1.6754056
1974 -1.630335
1972 -1.5141255
1970 -1.3571749
1968 -1.2208651
1966 -1.1714107
1964 -1.2349726
1962 -1.4046979
1960 -1.62324
1958 -1.8177841
1956 -1.9520458
1954 -2.0170743
1952 -2.0342309
1950 -2.036
1948 -2.0426877
1946 -2.0641751
1944 -2.0989709
1942 -2.1392076
1940 -2.1737611
1938 -2.1930897
1936 -2.2008371
1934 -2.2075381
1932 -2.2224979
1930 -2.2477062
1928 -2.2564006
1926 -2.210403
1924 -2.0873754
1922 -1.8882576
1920 -1.67354
1918 -1.523052
1916 -1.4643385
1914 -1.4855491
1912 -1.5401525
1910 -1.5776491
1908 -1.6031208
1906 -1.6489015
1904 -1.7252719
1902 -1.8200948
1900 -1.8887771
1898 -1.880852
1896 -1.7946572
1894 -1.6616337
1892 -1.5321116
1890 -1.457392
1888 -1.4580097
1886 -1.5319079
1884 -1.6587822
1882 -1.8103207
1880 -1.9611149
1878 -2.086736
1876 -2.15675
1874 -2.1397657
1872 -2.0177035
1870 -1.7944061
1868 -1.5333142
1866 -1.3250914
1864 -1.2277673
1862 -1.261319
1860 -1.3803803
1858 -1.51028
1856 -1.6105914
1854 -1.6669662
1852 -1.6710863
1850 -1.6196089
1848 -1.5271879
1846 -1.4240036
1844 -1.35999
1842 -1.3829373
1840 -1.4810377
1838 -1.6004429
1836 -1.6708543
1834 -1.625934
1832 -1.4449354
1830 -1.1487422
1828 -0.81295586
1826 -0.53850794
1824 -0.39785999
1822 -0.42538702
1820 -0.58224678
1818 -0.7858175
1816 -0.95877659
1814 -1.0457315
1812 -1.051234
1810 -1.0151647
1808 -0.96395063
1806 -0.9053455
1804 -0.82367688
1802 -0.69513816
1800 -0.52240908
1798 -0.32812935
1796 -0.13723636
1794 0.024740238
1792 0.12587193
1790 0.13999388
1788 0.087411746
1786 0.017646831
1784 -0.034283329
1782 -0.048235137
1780 -0.0078170542
1778 0.10490306
1776 0.31873086
1774 0.6480611
1772 1.0060235
1770 1.2427163
1768 1.2505296
1766 0.99609286
1764 0.60653901
1762 0.2843976
1760 0.07595133
1758 -0.080720916
1756 -0.16125958
1754 -0.073476069
1752 0.22057168
1750 0.68714368
1748 1.194171
1746 1.5596358
1744 1.673468
1742 1.5202194
1740 1.2353314
1738 1.0300452
1736 0.98537999
1734 1.0508658
1732 1.0867143
1730 0.93335879
1728 0.57825685
1726 0.14054149
1724 -0.20285165
1722 -0.2598328
1720 0.10719039
1718 0.94090772
1716 2.0548613
1714 3.1248991
1712 3.9839783
1710 4.6523781
1708 5.3319178
1706 6.3368273
1704 7.94345
1702 10.337032
1700 13.502069
1698 17.222017
1696 21.051285
1694 24.46208
1692 27.288305
1690 29.736382
1688 32.272205
1686 35.471992
1684 39.670105
1682 44.856003
1680 50.440159
1678 55.540604
1676 59.989059
1674 64.275139
1672 68.851486
1670 73.919327
1668 79.157463
1666 83.891151
1664 87.744438
1662 90.700516
1660 92.907494
1658 94.593971
1656 95.960915
1654 97.131577
1652 98.044777
1650 98.470558
1648 98.103531
1646 96.693932
1644 94.447998
1642 91.927002
1640 89.435432
1638 86.94075
1636 84.240173
1634 81.077682
1632 77.416962
1630 73.423569
1628 69.192093
1626 64.716866
1624 59.992519
1622 55.05555
1620 50.056076
1618 45.227692
1616 40.733341
1614 36.649166
1612 33.033394
1610 29.932049
1608 27.33065
1606 25.157829
1604 23.344561
1602 21.840658
1600 20.630463
1598 19.726431
1596 19.131001
1594 18.828232
1592 18.779812
1590 18.934946
1588 19.259186
1586 19.739508
1584 20.381742
1582 21.216539
1580 22.333166
1578 23.865576
1576 25.896172
1574 28.415113
1572 31.27212
1570 34.206032
1568 37.04068
1566 39.72472
1564 42.264362
1562 44.733112
1560 47.356373
1558 50.411289
1556 53.685814
1554 56.47757
1552 58.312305
1550 59.134014
1548 59.230801
1546 59.108177
1544 58.951172
1542 58.525688
1540 57.480221
1538 55.513813
1536 52.757942
1534 49.790428
1532 47.08083
1530 44.8344
1528 43.049194
1526 41.543549
1524 40.086899
1522 38.450356
1520 36.47332
1518 34.110077
1516 31.513729
1514 29.00458
1512 26.728201
1510 24.57095
1508 22.33684
1506 19.843544
1504 17.160772
1502 14.628279
1500 12.469617
1498 10.686256
1496 9.1784859
1494 7.7956858
1492 6.4592547
1490 5.1852741
1488 3.9714012
1486 2.7806058
1484 1.6378139
1482 0.65498257
1480 -0.038124055
1478 -0.31195498
1476 -0.034180254
1474 0.88959253
1472 2.3309662
1470 3.9132359
1468 5.3489265
1466 6.5536742
1464 7.5867524
1462 8.6237993
1460 9.7915697
1458 11.094351
1456 12.3792
1454 13.348637
1452 13.823103
1450 13.829864
1448 13.474183
1446 12.903429
1444 12.239132
1442 11.55514
1440 10.903086
1438 10.308826
1436 9.7463369
1434 9.1321468
1432 8.4147291
1430 7.6102271
1428 6.7924557
1426 6.0868864
1424 5.5862827
1422 5.3143067
1420 5.2366805
1418 5.2631717
1416 5.3149657
1414 5.3545609
1412 5.3972955
1410 5.514389
1408 5.7528486
1406 6.1029205
1404 6.5180411
1402 6.9182491
1400 7.22474
1398 7.3757648
1396 7.3385568
1394 7.1213131
1392 6.7629914
1390 6.3313966
1388 5.8815627
1386 5.4402747
1384 5.0290365
1382 4.6692348
1380 4.3754244
1378 4.1473827
1376 3.9531715
1374 3.7217345
1372 3.3959661
1370 2.9586868
1368 2.4311292
1366 1.876605
1364 1.3468535
1362 0.86161095
1360 0.43735617
1358 0.097181439
1356 -0.13048249
1354 -0.21329635
1352 -0.13114183
1350 0.11344163
1348 0.50157577
1346 0.99939072
1344 1.587296
1342 2.2663057
1340 2.9969404
1338 3.666815
1336 4.1464772
1334 4.3199162
1332 4.1599178
1330 3.7784889
1328 3.3100085
1326 2.8686986
1324 2.5327523
1322 2.3239553
1320 2.2268322
1318 2.1855624
1316 2.13977
1314 2.0411901
1312 1.8698382
1310 1.6496426
1308 1.4129431
1306 1.189055
1304 0.99898386
1302 0.85239303
1300 0.76249951
1298 0.75365794
1296 0.85167718
1294 1.0780694
1292 1.437628
1290 1.9059727
1288 2.4432042
1286 2.9950194
1284 3.5145335
1282 3.9749844
1280 4.3648329
1278 4.6916556
1276 4.9685316
1274 5.2104421
1272 5.4314718
1270 5.6434278
1268 5.8578076
1266 6.0875864
1264 6.3492789
1262 6.666182
1260 7.0661778
1258 7.5811386
1256 8.2337971
1254 9.0262318
1252 9.9438038
1250 10.949753
1248 12.007046
1246 13.089001
1244 14.167491
1242 15.2032
1240 16.145189
1238 16.920525
1236 17.461113
1234 17.720518
1232 17.675959
1230 17.3395
1228 16.734472
1226 15.888986
1224 14.831686
1222 13.595574
1220 12.248026
1218 10.9191
1216 9.7477484
1214 8.8440971
1212 8.2675858
1210 7.9816666
1208 7.9232364
1206 8.0189772
1204 8.1881523
1202 8.3394413
1200 8.3782835
1198 8.2142038
1196 7.7980785
1194 7.1672878
1192 6.3923988
1190 5.5687513
1188 4.7747254
1186 4.0399089
1184 3.3763874
1182 2.7846522
1180 2.2723265
1178 1.8681139
1176 1.60048
1174 1.4838723
1172 1.5093336
1170 1.6240917
1168 1.7673542
1166 1.8860385
1164 1.9440209
1162 1.940195
1160 1.8811486
1158 1.7719591
1156 1.6155372
1154 1.411595
1152 1.1659948
1150 0.9009763
1148 0.6433838
1146 0.42091
1144 0.25348771
1142 0.14150269
1140 0.07212764
1138 0.013294231
1136 -0.064540908
1134 -0.1734999
1132 -0.31604707
1130 -0.48031992
1128 -0.64012021
1126 -0.74476951
1124 -0.75264388
1122 -0.66002595
1120 -0.4890056
1118 -0.30073017
1116 -0.15022993
1114 -0.053263646
1112 -0.0045412108
1110 0.0299704
1108 0.090378046
1106 0.213438
1104 0.42271161
1102 0.70943832
1100 1.0468237
1098 1.3835156
1096 1.6769857
1094 1.923293
1092 2.1389079
1090 2.3679547
1088 2.6503913
1086 2.9968328
1084 3.3943501
1082 3.7888482
1080 4.12181
1078 4.3513532
1076 4.4551415
1074 4.4525881
1072 4.3681202
1070 4.2138481
1068 4.0021896
1066 3.7553415
1064 3.5032001
1062 3.2895432
1060 3.1468313
1058 3.0669327
1056 3.0263743
1054 2.9869967
1052 2.918103
1050 2.8198638
1048 2.7015743
1046 2.5767894
1044 2.4574127
1042 2.3482413
1040 2.2649839
1038 2.2572691
1036 2.3649702
1034 2.5735707
1032 2.8341453
1030 3.0382521
1028 3.0929821
1026 2.9950359
1024 2.7743359
1022 2.493578
1020 2.2088151
1018 1.9312975
1016 1.6635942
1014 1.4157246
1012 1.2011464
1010 1.0389805
1008 0.93134201
1006 0.82532156
1004 0.66160512
1002 0.40475765
1000 0.054442376
998 -0.29919171
996 -0.56198996
994 -0.69877696
992 -0.71223956
990 -0.67841321
988 -0.67049974
986 -0.69418651
984 -0.73162979
982 -0.7435081
980 -0.70236725
978 -0.63657755
976 -0.57949919
974 -0.53527951
972 -0.49618158
970 -0.4395172
968 -0.35260943
966 -0.2684615
964 -0.22194164
962 -0.21548229
960 -0.23495355
958 -0.23757356
956 -0.19030114
954 -0.11826974
952 -0.056813121
950 -0.025866628
948 -0.026760012
946 -0.0088047162
944 0.08533144
942 0.28990269
940 0.6089325
938 0.95849818
936 1.24242
934 1.3994728
932 1.3950568
930 1.2595098
928 1.0507671
926 0.86840558
924 0.80601525
922 0.89606827
920 1.1419532
918 1.4951568
916 1.8854871
914 2.211092
912 2.379231
910 2.3628039
908 2.1833062
906 1.9869958
904 1.9317422
902 2.0975072
900 2.51915
898 3.1309173
896 3.842
