##TITLE=Methyl Ethyl Ketone
##JCAMP-DX=4.24
##DATA TYPE=INFRARED SPECTRUM
##XUNITS=cm-1
##YUNITS=Absorbance
##FIRSTX=900
##LASTX=2300
##XYDATA=(X++(Y..Y))
2296 0.1072
2294 0.1094368
2292 0.11166363
2290 0.11389044
2288 0.1161272
2286 0.11835407
2284 0.12058089
2282 0.12281761
2280 0.12504452
2278 0.12727132
2276 0.129508
2274 0.13173495
2272 0.13396178
2270 0.13617876
2268 0.13842499
2266 0.14070114
2264 0.14288995
2262 0.14494021
2260 0.14733803
2258 0.150231
2256 0.15182543
2254 0.15158871
2252 0.15619041
2250 0.16760722
2248 0.1610465
2246 0.11526643
2244 0.053213671
2242 0.0044230991
2240 -0.025022756
2238 -0.037602965
2236 -0.043203358
2234 -0.052656554
2232 -0.072375834
2230 -0.10601158
2228 -0.15129106
2226 -0.20161851
2224 -0.23990166
2222 -0.25195548
2220 -0.24764958
2218 -0.24257304
2216 -0.24654229
2214 -0.26331267
2212 -0.27937999
2210 -0.27754304
2208 -0.2463312
2206 -0.17813243
2204 -0.073475681
2202 0.060547449
2200 0.2002202
2198 0.31853771
2196 0.39593571
2194 0.42202801
2192 0.41406032
2190 0.39535886
2188 0.37869054
2186 0.36861113
2184 0.3505916
2182 0.30850753
2180 0.24437858
2178 0.1685282
2176 0.1005204
2174 0.058489662
2172 0.042851314
2170 0.047125269
2168 0.060724806
2166 0.073190503
2164 0.079600543
2162 0.079346903
2160 0.081789099
2158 0.097982936
2156 0.13235439
2154 0.18303819
2152 0.23207675
2150 0.26066521
2148 0.26916027
2146 0.26583999
2144 0.26376435
2142 0.2726391
2140 0.28241467
2138 0.27913526
2136 0.26160973
2134 0.23521711
2132 0.21283902
2130 0.20483395
2128 0.2007384
2126 0.18572207
2124 0.15821145
2122 0.12329818
2120 0.092523508
2118 0.076160125
2116 0.070158213
2114 0.066759869
2112 0.065123655
2110 0.065543398
2108 0.061523858
2106 0.045870766
2104 0.019500548
2102 -0.011786957
2100 -0.03512514
2098 -0.038548429
2096 -0.024575286
2094 8.8928267e-05
2092 0.034982376
2090 0.082665354
2088 0.14722946
2086 0.2284245
2084 0.30592269
2082 0.35377619
2080 0.35580388
2078 0.30524313
2076 0.21703528
2074 0.11366645
2072 0.013362924
2070 -0.069360748
2068 -0.12679785
2066 -0.15683085
2064 -0.16945629
2062 -0.17830923
2060 -0.19183065
2058 -0.2122661
2056 -0.22599229
2054 -0.21658926
2052 -0.18327527
2050 -0.1339943
2048 -0.084231675
2046 -0.049343966
2044 -0.032072939
2042 -0.029973485
2040 -0.04209299
2038 -0.068226628
2036 -0.1073867
2034 -0.15714285
2032 -0.2106128
2030 -0.25996971
2028 -0.30152711
2026 -0.33149943
2024 -0.33736175
2022 -0.30628371
2020 -0.24109302
2018 -0.15659259
2016 -0.087778404
2014 -0.06992276
2012 -0.10258619
2010 -0.16707119
2008 -0.23841588
2006 -0.29601806
2004 -0.34581587
2002 -0.40347689
2000 -0.4735001
1998 -0.5507437
1996 -0.61452639
1994 -0.64309275
1992 -0.63958359
1990 -0.62068743
1988 -0.60873258
1986 -0.62206453
1984 -0.65384209
1982 -0.68668574
1980 -0.71045649
1978 -0.71992487
1976 -0.71224886
1974 -0.68492228
1972 -0.63293672
1970 -0.5554589
1968 -0.47504616
1966 -0.42260092
1964 -0.41470507
1962 -0.45383555
1960 -0.51599479
1958 -0.57020611
1956 -0.61015415
1954 -0.64264339
1952 -0.67307204
1950 -0.70315349
1948 -0.72615206
1946 -0.73555249
1944 -0.7440964
1942 -0.7711308
1940 -0.82008159
1938 -0.88277006
1936 -0.94022143
1934 -0.97270226
1932 -0.97873521
1930 -0.96625113
1928 -0.94045126
1926 -0.90372723
1924 -0.85619855
1922 -0.80046487
1920 -0.7544297
1918 -0.73874432
1916 -0.74959499
1914 -0.76986176
1912 -0.78563327
1910 -0.79071271
1908 -0.79970634
1906 -0.83281273
1904 -0.88540161
1902 -0.93638599
1900 -0.95736468
1898 -0.92330635
1896 -0.83623284
1894 -0.71875453
1892 -0.61576331
1890 -0.57628059
1888 -0.61804736
1886 -0.73170185
1884 -0.87233406
1882 -0.98349988
1880 -1.0405846
1878 -1.0423994
1876 -1.000034
1874 -0.92739421
1872 -0.82615328
1870 -0.69811982
1868 -0.58012557
1866 -0.52458578
1864 -0.55740136
1862 -0.67666531
1860 -0.83711392
1858 -0.97752911
1856 -1.0742714
1854 -1.1295559
1852 -1.1495188
1850 -1.1405751
1848 -1.11256
1846 -1.0785214
1844 -1.0564981
1842 -1.0618411
1840 -1.0838246
1838 -1.096239
1836 -1.0779557
1834 -1.0174417
1832 -0.9230687
1830 -0.8176927
1828 -0.73470807
1826 -0.707555
1824 -0.74589354
1822 -0.83933109
1820 -0.95888698
1818 -1.0681767
1816 -1.1439058
1814 -1.1761193
1812 -1.1717894
1810 -1.1448251
1808 -1.0943446
1806 -1.01214
1804 -0.90648592
1802 -0.79848462
1800 -0.71252453
1798 -0.66566294
1796 -0.63811642
1794 -0.59088707
1792 -0.51117003
1790 -0.40766847
1788 -0.29203203
1786 -0.17612892
1784 -0.075171664
1782 -0.0036574826
1780 0.038080119
1778 0.064063281
1776 0.10754166
1774 0.20240203
1772 0.32978386
1770 0.43238461
1768 0.45418674
1766 0.36388186
1764 0.216316
1762 0.10584208
1760 0.028962243
1758 -0.080717511
1756 -0.21771228
1754 -0.31777006
1752 -0.33447245
1750 -0.2543394
1748 -0.11671431
1746 0.0067926086
1744 0.061228178
1742 0.024433922
1740 -0.053887006
1738 -0.086278468
1736 -0.047339801
1734 0.028014321
1732 0.074496217
1730 0.026658267
1728 -0.11061886
1726 -0.27150321
1724 -0.36564445
1722 -0.29145569
1720 0.055438131
1718 0.74478579
1716 1.6815658
1714 2.6567593
1712 3.527288
1710 4.2557993
1708 4.96772
1706 5.9036107
1704 7.2938833
1702 9.3213301
1700 12.067314
1698 15.476397
1696 19.211
1694 22.767439
1692 25.874857
1690 28.555767
1688 31.168772
1686 34.278145
1684 38.294659
1682 43.333366
1680 48.877998
1678 54.052189
1676 58.619244
1674 62.961578
1672 67.498253
1670 72.471626
1668 77.620659
1666 82.3228
1664 86.198288
1662 89.176437
1660 91.346024
1658 92.87986
1656 93.931854
1654 94.609245
1652 94.947197
1650 94.91259
1648 94.423645
1646 93.405426
1644 91.96402
1642 90.336258
1640 88.600365
1638 86.652008
1636 84.322495
1634 81.45697
1632 78.091255
1630 74.415627
1628 70.526138
1626 66.400322
1624 62.00008
1622 57.31797
1620 52.457829
1618 47.622917
1616 43.014771
1614 38.806316
1612 35.127121
1610 32.04924
1608 29.535559
1606 27.456921
1604 25.702766
1602 24.206572
1600 22.946737
1598 21.936239
1596 21.183001
1594 20.682039
1592 20.421909
1590 20.387178
1588 20.569826
1586 20.967386
1584 21.566526
1582 22.356119
1580 23.384537
1578 24.75766
1576 26.568113
1574 28.858023
1572 31.54421
1570 34.428993
1568 37.345398
1566 40.18882
1564 42.888252
1562 45.432392
1560 48.00156
1558 50.889149
1556 53.983341
1554 56.735348
1552 58.696457
1550 59.686146
1548 59.860401
1546 59.634964
1544 59.195934
1542 58.414421
1540 57.123859
1538 55.231926
1536 52.880226
1534 50.430565
1532 48.140293
1530 46.081894
1528 44.228424
1526 42.4786
1524 40.69973
1522 38.755283
1520 36.576954
1518 34.19817
1516 31.765244
1514 29.493963
1512 27.41732
1510 25.341194
1508 23.068558
1506 20.497171
1504 17.753794
1502 15.180994
1500 12.974711
1498 11.0931
1496 9.4268999
1494 7.8604631
1492 6.348382
1490 4.9259472
1488 3.6131914
1486 2.3996115
1484 1.3199182
1482 0.46839434
1480 -0.074840084
1478 -0.2591837
1476 -0.017552167
1474 0.71880776
1472 1.8772824
1470 3.218415
1468 4.5451617
1466 5.7727833
1464 6.8999586
1462 7.9993763
1460 9.1431427
1458 10.364054
1456 11.5932
1454 12.647743
1452 13.369615
1450 13.680202
1448 13.59208
1446 13.216
1444 12.671619
1442 12.05491
1440 11.424034
1438 10.787292
1436 10.111625
1434 9.3328848
1432 8.4394894
1430 7.5023279
1428 6.617218
1426 5.8818607
1424 5.3527331
1422 5.0263643
1420 4.8745422
1418 4.8551364
1416 4.9346085
1414 5.0970807
1412 5.3391862
1410 5.6670661
1408 6.0747519
1406 6.5340376
1404 7.0025105
1402 7.4252901
1400 7.7483482
1398 7.9260983
1396 7.9324217
1394 7.7699447
1392 7.4640131
1390 7.062655
1388 6.6086445
1386 6.1299553
1384 5.6534767
1382 5.2070761
1380 4.8068819
1378 4.4476805
1376 4.0993772
1374 3.705435
1372 3.227386
1370 2.6662698
1368 2.0502
1366 1.433085
1364 0.85965776
1362 0.35280949
1360 -0.062201962
1358 -0.35066873
1356 -0.483399
1354 -0.44441277
1352 -0.22714664
1350 0.16097218
1348 0.68755698
1346 1.2896821
1344 1.922624
1342 2.5783198
1340 3.2370543
1338 3.8435068
1336 4.314877
1334 4.5471592
1332 4.4950418
1330 4.219017
1328 3.8148139
1326 3.3928728
1324 3.0400357
1322 2.7945752
1320 2.6574502
1318 2.5855448
1316 2.5236599
1314 2.417109
1312 2.2383668
1310 2.0065
1308 1.7553883
1306 1.5245972
1304 1.3429172
1302 1.219738
1300 1.1672992
1298 1.2092315
1296 1.3674858
1294 1.6540697
1292 2.0637181
1290 2.5650198
1288 3.120692
1286 3.6935945
1284 4.2467527
1282 4.7443695
1280 5.1558814
1278 5.4631205
1276 5.6693316
1274 5.8116269
1272 5.9361749
1270 6.0888
1268 6.3018827
1266 6.5829806
1264 6.9346724
1262 7.3609447
1260 7.8692679
1258 8.4716692
1256 9.1751823
1254 9.9751091
1252 10.860283
1250 11.813593
1248 12.815721
1246 13.8465
1244 14.881543
1242 15.884763
1240 16.81019
1238 17.5931
1236 18.1712
1234 18.491177
1232 18.510479
1230 18.209785
1228 17.588955
1226 16.676886
1224 15.524069
1222 14.212192
1220 12.840034
1218 11.52961
1216 10.393034
1214 9.5092802
1212 8.9256907
1210 8.6336708
1208 8.5903969
1206 8.7075024
1204 8.8757
1202 8.9681606
1200 8.8761606
1198 8.5431719
1196 7.9605432
1194 7.1950259
1192 6.3317089
1190 5.4543748
1188 4.6289506
1186 3.8829513
1184 3.2316961
1182 2.6833341
1180 2.2428493
1178 1.9114492
1176 1.68586
1174 1.555051
1172 1.5044731
1170 1.5160096
1168 1.5696634
1166 1.6427871
1164 1.7141219
1162 1.7662491
1160 1.7865971
1158 1.771185
1156 1.7193614
1154 1.6336048
1152 1.514992
1150 1.3604091
1148 1.1666778
1146 0.93434215
1144 0.67539674
1142 0.42449361
1140 0.21133089
1138 0.041514829
1136 -0.082690172
1134 -0.15503711
1132 -0.18259011
1130 -0.20457438
1128 -0.25246623
1126 -0.31999594
1124 -0.38575655
1122 -0.41524509
1120 -0.38582438
1118 -0.31159353
1116 -0.21726985
1114 -0.13074124
1112 -0.069304496
1110 -0.02233495
1108 0.025253434
1106 0.082273148
1104 0.14963114
1102 0.21288152
1100 0.2611658
1098 0.30321494
1096 0.36363286
1094 0.49440765
1092 0.74225414
1090 1.1211812
1088 1.6159195
1086 2.1556458
1084 2.6589165
1082 3.0533848
1080 3.2868707
1078 3.355732
1076 3.2785685
1074 3.1025651
1072 2.8837502
1070 2.6826651
1068 2.5505991
1066 2.5104008
1064 2.562608
1062 2.6669037
1060 2.7748902
1058 2.8443604
1056 2.8440886
1054 2.7700675
1052 2.6334252
1050 2.46861
1048 2.314039
1046 2.200393
1044 2.1457527
1042 2.1373484
1040 2.1620231
1038 2.227731
1036 2.3462601
1034 2.5238278
1032 2.7481313
1030 2.9564831
1028 3.0772479
1026 3.0499742
1024 2.8415127
1022 2.491323
1020 2.06865
1018 1.6768945
1016 1.4023286
1014 1.2515187
1012 1.1936797
1010 1.1431683
1008 1.0220976
1006 0.81958157
1004 0.55499148
1002 0.28974605
1000 0.0764452
998 -0.092569768
996 -0.244435
994 -0.42006201
992 -0.64741266
990 -0.90231788
988 -1.1460078
986 -1.33485
984 -1.4338605
982 -1.4408815
980 -1.3675079
978 -1.2433478
976 -1.1014131
974 -0.96847093
972 -0.85916972
970 -0.75195384
968 -0.62034017
966 -0.45185548
964 -0.24726018
962 -0.040329173
960 0.13360578
958 0.2618787
956 0.33931401
954 0.36729729
952 0.34885681
950 0.28725833
948 0.19175619
946 0.0923675
944 0.02149873
942 0.0013850592
940 0.045178875
938 0.1423891
936 0.27561
934 0.42374942
932 0.57018083
930 0.71803397
928 0.87665129
926 1.0600029
924 1.274644
922 1.4960679
920 1.69236
918 1.8345314
916 1.9057658
914 1.9311234
912 1.9406103
910 1.9414699
908 1.9386011
906 1.9506536
904 2.0004599
902 2.1161435
900 2.3127792
898 2.5501201
896 2.7739999
