Image.
>Pix99999.
  .
5555
5555
2300
900
5555
2
1
0
701
5555
-5.3183001e-002
-5.4289415e-002
-5.5395834e-002
-5.6502249e-002
-5.7608668e-002
-5.8715086e-002
-5.9821505e-002
-6.0927920e-002
-6.2034339e-002
-6.3140757e-002
-6.4247176e-002
-6.5353587e-002
-6.6460006e-002
-6.7566425e-002
-6.8672843e-002
-6.9779254e-002
-7.0885673e-002
-7.1992092e-002
-7.3098511e-002
-7.4204929e-002
-7.5311340e-002
-7.6417767e-002
-7.7524178e-002
-7.8630596e-002
-7.9737008e-002
-8.0843426e-002
-3.0042257e-003
6.0881499e-002
1.1856816e-001
3.4241982e-002
-7.1008913e-002
-3.0338290e-001
-5.3982896e-001
-6.6270602e-001
-7.5642842e-001
-6.6108501e-001
-5.4432541e-001
-3.7366655e-001
-2.2338888e-001
-1.4399643e-001
-1.1421029e-001
-1.8403912e-001
-2.7728182e-001
-3.9911699e-001
-4.7711819e-001
-4.9827114e-001
-4.5288190e-001
-3.4684646e-001
-2.3658302e-001
-1.2612410e-001
-6.3138358e-002
-2.7521903e-002
4.6485034e-004
2.5906663e-002
6.6707589e-002
1.1254828e-001
1.1202160e-001
1.0074737e-001
4.1876186e-002
-2.3817783e-002
-7.2881058e-002
-1.1789242e-001
-1.3439594e-001
-1.3717610e-001
-7.6736465e-002
3.6034966e-004
1.1578115e-001
2.1858084e-001
2.7930850e-001
3.3459491e-001
3.8768601e-001
4.4497135e-001
5.0866085e-001
5.2065533e-001
4.7364140e-001
3.8754570e-001
2.7234486e-001
1.9683400e-001
1.5104137e-001
1.5439624e-001
1.8286057e-001
2.2526436e-001
2.7249759e-001
3.3870584e-001
4.1082719e-001
4.7705251e-001
5.4180378e-001
5.0708646e-001
4.5231479e-001
3.1756735e-001
1.7271614e-001
3.7438661e-002
-8.8179514e-002
-1.7714721e-001
-2.4414320e-001
-2.6100343e-001
-2.4729355e-001
-1.8244781e-001
-9.1486901e-002
3.0617969e-002
1.6631457e-001
3.1379229e-001
4.2944103e-001
5.1035833e-001
5.3037083e-001
5.0416601e-001
4.8013473e-001
4.6175098e-001
4.8969871e-001
5.4163283e-001
5.8938128e-001
6.3419247e-001
6.2248600e-001
5.9262079e-001
5.4392815e-001
4.9199122e-001
4.8970714e-001
5.0088596e-001
5.5032128e-001
6.0386360e-001
6.3848770e-001
6.5416235e-001
6.1520118e-001
5.5683202e-001
4.7626421e-001
4.0790570e-001
3.7172002e-001
3.7270486e-001
4.2052552e-001
4.9067739e-001
5.7698530e-001
6.4870173e-001
7.0337331e-001
7.4266261e-001
7.7222192e-001
8.1745285e-001
8.7374365e-001
9.5906252e-001
1.0586663e+000
1.1372844e+000
1.2062000e+000
1.2029501e+000
1.1756626e+000
1.1143388e+000
1.0444206e+000
9.7358030e-001
9.0614671e-001
8.6418337e-001
8.4302253e-001
8.8398099e-001
9.4955713e-001
1.0422256e+000
1.1313388e+000
1.1971420e+000
1.2510160e+000
1.2937986e+000
1.3208852e+000
1.3297459e+000
1.2904598e+000
1.2014916e+000
1.1045114e+000
1.0099968e+000
9.9968415e-001
1.0533479e+000
1.1637018e+000
1.3024750e+000
1.4032789e+000
1.4816639e+000
1.5047920e+000
1.5049587e+000
1.4697472e+000
1.4221746e+000
1.3652937e+000
1.3067085e+000
1.2597631e+000
1.2226750e+000
1.2178674e+000
1.2333957e+000
1.2849562e+000
1.3360302e+000
1.3570143e+000
1.3437145e+000
1.2793180e+000
1.1914161e+000
1.0894629e+000
9.9484128e-001
9.1478997e-001
8.6067861e-001
8.3044463e-001
7.9821050e-001
7.5888503e-001
7.1528125e-001
6.6961282e-001
6.7906517e-001
7.2433126e-001
7.8976083e-001
8.6315238e-001
8.9462483e-001
9.0607613e-001
9.4784188e-001
1.0040829e+000
1.0877650e+000
1.1679014e+000
1.1516279e+000
1.0817108e+000
9.3961602e-001
7.8895640e-001
6.9433069e-001
6.4156407e-001
6.3918263e-001
6.3522303e-001
5.9615147e-001
5.4156208e-001
4.8110527e-001
4.7611293e-001
5.4266638e-001
6.4780653e-001
7.7192801e-001
8.6466265e-001
9.2481238e-001
9.0507573e-001
8.2931405e-001
6.1481106e-001
3.1454560e-001
-8.5889608e-002
-5.3743249e-001
-8.2022643e-001
-1.0037360e+000
-8.8695681e-001
-6.2366647e-001
-3.0664343e-001
2.6122704e-002
3.1216913e-001
5.4881275e-001
6.8292421e-001
7.3031467e-001
6.6286784e-001
5.5735540e-001
4.7144261e-001
4.1809151e-001
4.0792999e-001
3.9556855e-001
3.5737744e-001
3.0220401e-001
2.3681502e-001
1.7642550e-001
1.2453952e-001
-3.1315029e-002
-2.8434145e-001
-5.8919775e-001
-9.1829288e-001
-9.7433853e-001
-8.3352602e-001
-5.0801706e-001
-8.1757292e-002
1.9451304e-001
3.6968103e-001
3.8716251e-001
3.0471987e-001
1.3871907e-001
-4.8482083e-002
-1.3596343e-001
-1.1580391e-001
8.1791304e-002
3.1033349e-001
4.0384763e-001
3.6955741e-001
2.0430107e-001
4.5908399e-002
-1.9401774e-001
-4.4310257e-001
-5.9956235e-001
-7.2513467e-001
-8.5257369e-001
-1.0126749e+000
-1.2072357e+000
-1.4318234e+000
-1.6766089e+000
-1.8512599e+000
-1.9625856e+000
-1.9112201e+000
-1.7420973e+000
-1.4632483e+000
-1.1180985e+000
-8.3493376e-001
-6.0001999e-001
-4.1704279e-001
-2.4646589e-001
7.1471199e-002
5.7551819e-001
1.2996993e+000
2.0611193e+000
2.6196520e+000
3.0156188e+000
3.2882600e+000
3.6529315e+000
4.3084307e+000
5.5485229e+000
7.5248356e+000
1.0574215e+001
1.4718714e+001
1.9122410e+001
2.3365000e+001
2.7079763e+001
3.0259691e+001
3.3755116e+001
3.7701691e+001
4.2342197e+001
4.7545242e+001
5.2167641e+001
5.6240314e+001
6.0320320e+001
6.4489746e+001
6.9357430e+001
7.4728760e+001
7.9966499e+001
8.5013145e+001
8.9641808e+001
9.3858521e+001
9.7642883e+001
1.0095320e+002
1.0372733e+002
1.0581040e+002
1.0704547e+002
1.0710920e+002
1.0581071e+002
1.0357429e+002
1.0085299e+002
9.7795403e+001
9.4535980e+001
9.0750061e+001
8.6367760e+001
8.1803177e+001
7.7224579e+001
7.2750313e+001
6.8393394e+001
6.3747803e+001
5.8791328e+001
5.3954807e+001
4.9281864e+001
4.5085541e+001
4.1375481e+001
3.8172741e+001
3.5469620e+001
3.3140022e+001
3.1157694e+001
2.9379675e+001
2.7831196e+001
2.6526228e+001
2.5481646e+001
2.4683500e+001
2.4135138e+001
2.3804611e+001
2.3677668e+001
2.3712866e+001
2.3866585e+001
2.4092806e+001
2.4349421e+001
2.4607540e+001
2.4934370e+001
2.5355629e+001
2.5933201e+001
2.6681112e+001
2.7560169e+001
2.8559200e+001
2.9617735e+001
3.0729923e+001
3.1987185e+001
3.3466938e+001
3.5716393e+001
3.8773373e+001
4.2058472e+001
4.5360950e+001
4.7793339e+001
4.9340549e+001
5.0383644e+001
5.0912201e+001
5.1082546e+001
5.0902462e+001
5.0473656e+001
4.9811028e+001
4.8974728e+001
4.7951931e+001
4.6748718e+001
4.5364601e+001
4.3808201e+001
4.2108471e+001
4.0282185e+001
3.8494068e+001
3.6821373e+001
3.5276585e+001
3.3877270e+001
3.2326439e+001
3.0540062e+001
2.8226250e+001
2.5257315e+001
2.2318136e+001
1.9482315e+001
1.7137840e+001
1.5347750e+001
1.3629286e+001
1.1986913e+001
1.0361919e+001
8.7555065e+000
7.1583271e+000
5.5897255e+000
4.0813241e+000
2.7187569e+000
1.6125646e+000
8.0204332e-001
2.9910076e-001
1.6795591e-001
4.8482531e-001
1.0291458e+000
1.5982177e+000
2.0672064e+000
2.3427989e+000
2.5322788e+000
2.6644874e+000
2.8954234e+000
3.3027401e+000
3.8343353e+000
4.5226507e+000
5.0659761e+000
5.3750091e+000
5.5413570e+000
5.5083113e+000
5.4036388e+000
5.1951256e+000
4.8965721e+000
4.4823084e+000
3.9899790e+000
3.4416018e+000
2.9490106e+000
2.5449760e+000
2.2638435e+000
2.1111183e+000
2.0654011e+000
2.1299741e+000
2.3032486e+000
2.5711744e+000
2.9280579e+000
3.3190899e+000
3.7063742e+000
4.0626793e+000
4.3595476e+000
4.6093144e+000
4.7949200e+000
4.9456959e+000
5.0497437e+000
5.1687570e+000
5.3222694e+000
5.4986339e+000
5.7015786e+000
5.8240414e+000
5.8117752e+000
5.6855555e+000
5.4014916e+000
5.0517702e+000
4.6193357e+000
4.1466603e+000
3.6482215e+000
3.1915462e+000
2.7935970e+000
2.4695926e+000
2.1739879e+000
1.8150563e+000
1.4033120e+000
9.4878197e-001
5.3133702e-001
2.5506055e-001
7.9668179e-002
2.0475848e-002
2.6908023e-003
1.7370153e-003
-4.5691929e-003
-8.5559599e-003
-2.5577832e-002
-7.0822947e-002
-1.0249663e-001
-9.9866517e-002
-4.0246964e-002
1.1955047e-001
2.8863850e-001
4.6914074e-001
6.3605016e-001
7.9111785e-001
9.7176439e-001
1.1878629e+000
1.4304130e+000
1.6947401e+000
1.9470230e+000
2.1816125e+000
2.3900702e+000
2.5706203e+000
2.7188935e+000
2.8322039e+000
2.8937840e+000
2.9166191e+000
2.8921716e+000
2.8490858e+000
2.7968349e+000
2.7550433e+000
2.7468433e+000
2.7642801e+000
2.8366549e+000
2.9256501e+000
3.0476992e+000
3.1659262e+000
3.2747409e+000
3.3729885e+000
3.4531879e+000
3.5429463e+000
3.6568666e+000
3.8194170e+000
4.0563998e+000
4.3407879e+000
4.6766605e+000
5.0081282e+000
5.3295383e+000
5.6278830e+000
5.9127493e+000
6.2129540e+000
6.5370493e+000
6.9121475e+000
7.3153248e+000
7.7289772e+000
8.1201363e+000
8.4226809e+000
8.6650476e+000
8.7895384e+000
8.8641720e+000
8.8471117e+000
8.7896967e+000
8.6302309e+000
8.4265890e+000
8.1013260e+000
7.7265468e+000
7.2332344e+000
6.7074223e+000
6.1206226e+000
5.5398970e+000
4.9748631e+000
4.4430795e+000
3.9604619e+000
3.5074015e+000
3.0848398e+000
2.6558995e+000
2.2204006e+000
1.7803012e+000
1.3533572e+000
9.9784577e-001
7.0628554e-001
5.1370442e-001
3.6961144e-001
2.4644786e-001
1.2895159e-001
6.6983104e-003
-1.0011347e-001
-1.3983372e-001
-1.5031400e-001
-7.9385072e-002
3.0192584e-003
1.1089817e-001
2.0790783e-001
2.6924109e-001
3.0153164e-001
2.6172990e-001
2.0211753e-001
1.0622955e-001
2.3373488e-002
-3.5732828e-002
-7.3986530e-002
-8.5406907e-002
-9.4723061e-002
-1.0070536e-001
-1.0012715e-001
-8.6077459e-002
-3.3834215e-002
2.4643257e-002
1.0799482e-001
2.2172800e-001
3.5766387e-001
5.1434040e-001
7.3536247e-001
9.9367023e-001
1.3557485e+000
1.7283912e+000
2.0597799e+000
2.3523939e+000
2.4582801e+000
2.5337205e+000
2.4954834e+000
2.4585710e+000
2.4283681e+000
2.4241350e+000
2.4861007e+000
2.5749295e+000
2.7158470e+000
2.8639848e+000
3.0253999e+000
3.2043707e+000
3.4076521e+000
3.6324749e+000
3.8741560e+000
4.0882335e+000
4.2747850e+000
4.4155192e+000
4.5263309e+000
4.6171470e+000
4.7009354e+000
4.7989702e+000
4.9049926e+000
5.0351658e+000
5.1658802e+000
5.2618351e+000
5.3415480e+000
5.3336635e+000
5.3101134e+000
5.2131333e+000
5.1175714e+000
5.0289440e+000
4.9499512e+000
4.9005599e+000
4.8448348e+000
4.7738214e+000
4.6973557e+000
4.6094255e+000
4.5055785e+000
4.3750210e+000
4.2026200e+000
3.9797628e+000
3.7229199e+000
3.4353154e+000
3.1374145e+000
2.8332748e+000
2.5365932e+000
2.2431641e+000
1.9429363e+000
1.6389716e+000
1.3232315e+000
1.0067719e+000
7.1657872e-001
4.3566668e-001
2.0976862e-001
-7.5982511e-003
-1.7831139e-001
-3.4140748e-001
-4.5438033e-001
-5.4943597e-001
-5.6498927e-001
-5.6172901e-001
-5.0027722e-001
-4.3494129e-001
-3.6258414e-001
-3.1981549e-001
-3.2978234e-001
-3.6663711e-001
-4.3585661e-001
-4.4830281e-001
-3.9907113e-001
-2.9370391e-001
-1.4448215e-001
-8.2893297e-003
1.2103736e-001
2.6959351e-001
4.2788282e-001
6.0692906e-001
7.8689682e-001
8.4525752e-001
8.6736703e-001
6.5849018e-001
4.2066640e-001
1.5604797e-001
-8.8278100e-002
-2.9083822e-002
5.5714250e-003
1.7312205e-001
4.9567467e-001
8.0923170e-001
1.0937058e+000
1.2929358e+000
1.4851745e+000
1.6635271e+000
1.8713377e+000
2.1265099e+000
2.3880939e+000
2.6560214e+000
2.8495393e+000
2.9715242e+000
2.9268813e+000
2.7625659e+000
2.4248891e+000
1.9977009e+000
1.7587677e+000
1.5959378e+000
1.9935164e+000
2.5388768e+000
3.2558305e+000
3.9998140e+000
4.2891998e+000
