Image.
>Pix99999.
  .
5555
5555
2300
900
5555
2
1
0
701
5555
5.4205000e-002
5.5332389e-002
5.6459773e-002
5.7588156e-002
5.8715548e-002
5.9842933e-002
6.0971316e-002
6.2098708e-002
6.3226096e-002
6.4353488e-002
6.5481856e-002
6.6609263e-002
6.7736641e-002
6.8865009e-002
6.9992416e-002
7.1119808e-002
7.2247192e-002
7.3375560e-002
7.4502967e-002
7.5630359e-002
7.6757744e-002
7.7886097e-002
7.9013519e-002
8.0140904e-002
8.1268296e-002
8.2396641e-002
4.3692589e-002
1.6276371e-003
-2.8013760e-002
-2.4723642e-002
-1.6621171e-002
2.7563969e-002
7.4789971e-002
1.3213019e-001
1.8918657e-001
2.4027699e-001
2.9169989e-001
3.4611136e-001
4.0211132e-001
4.6253482e-001
5.1113945e-001
5.3336757e-001
5.3689241e-001
5.1242131e-001
4.8991174e-001
4.7197592e-001
4.7366154e-001
4.9394441e-001
5.3641939e-001
5.9455180e-001
6.6551071e-001
7.4328238e-001
8.1549329e-001
8.8507706e-001
9.3727654e-001
9.8386216e-001
9.9198961e-001
9.9133283e-001
9.3891698e-001
8.7881672e-001
8.1665945e-001
7.5681239e-001
7.2522414e-001
6.9978261e-001
6.9425821e-001
6.9722295e-001
7.2410649e-001
7.5203627e-001
7.7654010e-001
7.9571068e-001
8.0539799e-001
8.2602960e-001
8.6394835e-001
9.0505987e-001
9.4774377e-001
9.6216393e-001
9.5146728e-001
9.0986323e-001
8.4862679e-001
7.8592843e-001
7.2350168e-001
6.8208510e-001
6.4944565e-001
6.5611964e-001
6.7507601e-001
7.4346828e-001
8.2317370e-001
8.9696085e-001
9.6716005e-001
9.8917377e-001
1.0035614e+000
1.0124470e+000
1.0230542e+000
1.0451380e+000
1.0629306e+000
1.0628664e+000
1.0587034e+000
1.0516393e+000
1.0635860e+000
1.1081134e+000
1.1726142e+000
1.2570751e+000
1.3256557e+000
1.3746020e+000
1.3721194e+000
1.3293600e+000
1.2568449e+000
1.1684489e+000
1.1308354e+000
1.1210121e+000
1.1896200e+000
1.2894354e+000
1.3907241e+000
1.4915957e+000
1.5210432e+000
1.5319571e+000
1.4757841e+000
1.4061666e+000
1.3304800e+000
1.2613920e+000
1.2355657e+000
1.2249075e+000
1.2389060e+000
1.2543994e+000
1.2618549e+000
1.2637215e+000
1.2583240e+000
1.2564452e+000
1.2612028e+000
1.2858741e+000
1.3321586e+000
1.3925474e+000
1.4630474e+000
1.5039160e+000
1.5207306e+000
1.4997928e+000
1.4577011e+000
1.4341011e+000
1.4220700e+000
1.4229653e+000
1.4281800e+000
1.3894513e+000
1.3351586e+000
1.2724173e+000
1.2096366e+000
1.1837971e+000
1.1706654e+000
1.1823990e+000
1.2038641e+000
1.2426045e+000
1.2851928e+000
1.3277889e+000
1.3575108e+000
1.3554639e+000
1.3382460e+000
1.3046479e+000
1.2840989e+000
1.2871161e+000
1.3091315e+000
1.3476919e+000
1.3842229e+000
1.4162240e+000
1.4437672e+000
1.4690785e+000
1.4798006e+000
1.4813764e+000
1.4471477e+000
1.3939362e+000
1.3406999e+000
1.2881992e+000
1.2543000e+000
1.2262645e+000
1.1807052e+000
1.1292526e+000
1.0862174e+000
1.0534750e+000
1.0591496e+000
1.0788417e+000
1.0960807e+000
1.1029538e+000
1.0825800e+000
1.0498432e+000
1.0119920e+000
9.7643745e-001
9.5044672e-001
9.4100308e-001
9.5179558e-001
9.8548359e-001
1.0363500e+000
1.0860670e+000
1.1277057e+000
1.1620321e+000
1.1923811e+000
1.2141891e+000
1.2320499e+000
1.2113614e+000
1.1693161e+000
1.1197218e+000
1.0668329e+000
1.0639387e+000
1.0830144e+000
1.1377447e+000
1.2017509e+000
1.2298529e+000
1.2308823e+000
1.1694928e+000
1.0898366e+000
1.0245316e+000
9.8055375e-001
9.7668964e-001
9.9012399e-001
1.0154084e+000
1.0522857e+000
1.1040556e+000
1.1466720e+000
1.1654214e+000
1.1391377e+000
1.0666289e+000
9.7934377e-001
8.9201176e-001
8.0186689e-001
7.1232653e-001
6.0672379e-001
4.9289128e-001
3.7354642e-001
2.5478142e-001
1.7486109e-001
1.1982557e-001
1.3645062e-001
1.8953331e-001
2.8698370e-001
4.0981090e-001
5.7585192e-001
7.5829613e-001
9.2486781e-001
1.0460538e+000
1.0500737e+000
9.7593874e-001
8.3935583e-001
6.9481891e-001
5.8557940e-001
5.1421845e-001
4.8211050e-001
4.7490683e-001
4.8030844e-001
5.0147504e-001
5.3449261e-001
5.4197228e-001
5.2599388e-001
4.7486836e-001
4.0059644e-001
3.9038798e-001
4.2487919e-001
5.0758797e-001
6.1261535e-001
6.7159998e-001
6.9849837e-001
6.9271702e-001
6.6740513e-001
6.4481223e-001
6.3727689e-001
6.8915623e-001
7.7113581e-001
8.3612937e-001
8.3879340e-001
7.0052928e-001
4.8476198e-001
2.5238845e-001
6.1766341e-002
-1.0545339e-001
-2.2771671e-001
-2.7816886e-001
-2.6713046e-001
-2.0760190e-001
-1.4684287e-001
-1.0358696e-001
-1.1349162e-001
-1.7669696e-001
-2.3054148e-001
-2.6469898e-001
-2.1283400e-001
-9.2389964e-002
4.5558289e-003
7.3166065e-002
1.5516460e-002
-1.2402539e-001
-2.0224898e-001
-2.0104530e-001
-1.2450449e-002
2.9502040e-001
7.6419526e-001
1.2863673e+000
1.6183674e+000
1.8356884e+000
2.0381539e+000
2.4124315e+000
3.1404462e+000
4.4432154e+000
6.4170852e+000
9.2911644e+000
1.3034286e+001
1.6928589e+001
2.0628874e+001
2.3931353e+001
2.6867115e+001
3.0264828e+001
3.4221264e+001
3.8879570e+001
4.4082439e+001
4.8546238e+001
5.2322601e+001
5.5917999e+001
5.9458332e+001
6.3635422e+001
6.8283035e+001
7.2852898e+001
7.7253639e+001
8.1183205e+001
8.4665329e+001
8.7725716e+001
9.0418686e+001
9.2847710e+001
9.5005699e+001
9.6897270e+001
9.8095284e+001
9.8229179e+001
9.7431419e+001
9.5934784e+001
9.3872932e+001
9.1418831e+001
8.8306541e+001
8.4507423e+001
8.0412209e+001
7.6193687e+001
7.2019485e+001
6.7930611e+001
6.3639000e+001
5.9129871e+001
5.4718563e+001
5.0432869e+001
4.6444172e+001
4.2765224e+001
3.9475082e+001
3.6578640e+001
3.4043697e+001
3.1858814e+001
2.9922461e+001
2.8266811e+001
2.6909184e+001
2.5856646e+001
2.5072500e+001
2.4534149e+001
2.4174753e+001
2.3978052e+001
2.3905586e+001
2.3957636e+001
2.4124165e+001
2.4398130e+001
2.4768848e+001
2.5292181e+001
2.5982458e+001
2.6857424e+001
2.7907452e+001
2.9016790e+001
3.0155720e+001
3.1256243e+001
3.2313862e+001
3.3489662e+001
3.4860443e+001
3.6938690e+001
3.9768715e+001
4.2802052e+001
4.5858768e+001
4.8214706e+001
4.9894348e+001
5.1330536e+001
5.2554874e+001
5.3705647e+001
5.4683960e+001
5.5319847e+001
5.5489143e+001
5.5110924e+001
5.4326778e+001
5.3363480e+001
5.2260056e+001
5.1051998e+001
4.9711048e+001
4.8209717e+001
4.6613331e+001
4.4927273e+001
4.3218258e+001
4.1508980e+001
3.9625961e+001
3.7526985e+001
3.4836979e+001
3.1408936e+001
2.8013931e+001
2.4725559e+001
2.1999550e+001
1.9897141e+001
1.7823429e+001
1.5771814e+001
1.3677952e+001
1.1545877e+001
9.4010363e+000
7.2884068e+000
5.2959218e+000
3.5236082e+000
2.1085246e+000
1.0785029e+000
4.1629672e-001
2.0673372e-001
5.3031969e-001
1.1519163e+000
1.8408666e+000
2.4551821e+000
2.9133422e+000
3.3455350e+000
3.8105507e+000
4.3898826e+000
5.1373200e+000
5.8459706e+000
6.4454007e+000
6.8084846e+000
6.8199286e+000
6.7387605e+000
6.5379920e+000
6.3429317e+000
6.1504116e+000
5.9181876e+000
5.6174088e+000
5.1853600e+000
4.6254716e+000
4.0377483e+000
3.4646060e+000
3.0184987e+000
2.7159555e+000
2.5590167e+000
2.5456491e+000
2.6522808e+000
2.8495572e+000
3.1087461e+000
3.3901229e+000
3.6832845e+000
3.9910834e+000
4.3263984e+000
4.6879258e+000
5.0791078e+000
5.4599881e+000
5.8091531e+000
6.1010714e+000
6.2855935e+000
6.4083323e+000
6.4109130e+000
6.3388915e+000
6.1439400e+000
5.8714166e+000
5.4937620e+000
5.0788717e+000
4.6201119e+000
4.1393399e+000
3.6482558e+000
3.1703682e+000
2.7225692e+000
2.3352640e+000
1.9807006e+000
1.6156816e+000
1.2373329e+000
8.3370268e-001
4.6191829e-001
1.9576719e-001
2.3968035e-002
-6.1114556e-003
2.9857635e-002
1.2354992e-001
2.2837928e-001
3.4960601e-001
4.7748065e-001
6.1799514e-001
7.4906534e-001
8.5455513e-001
9.4124496e-001
9.8219907e-001
1.0410050e+000
1.1324617e+000
1.2648472e+000
1.4649757e+000
1.6978220e+000
1.9798607e+000
2.2887101e+000
2.6224999e+000
2.9468334e+000
3.2396727e+000
3.4663076e+000
3.6214406e+000
3.7068815e+000
3.7415366e+000
3.7398920e+000
3.7252619e+000
3.7129860e+000
3.7122285e+000
3.7366412e+000
3.7729297e+000
3.8235564e+000
3.8805921e+000
3.9475379e+000
4.0237613e+000
4.1204023e+000
4.2249532e+000
4.3466249e+000
4.4734559e+000
4.6130862e+000
4.7589002e+000
4.9184194e+000
5.0886521e+000
5.2741075e+000
5.4703798e+000
5.6753039e+000
5.8747959e+000
6.0656528e+000
6.2429686e+000
6.4161458e+000
6.6125035e+000
6.8313718e+000
7.0801783e+000
7.3341751e+000
7.5527058e+000
7.7415071e+000
7.8737750e+000
7.9746008e+000
8.0237684e+000
8.0284920e+000
7.9210401e+000
7.7582173e+000
7.4529505e+000
7.1146522e+000
6.6917381e+000
6.2507205e+000
5.7654057e+000
5.2636108e+000
4.7310343e+000
4.2046900e+000
3.6962929e+000
3.2306306e+000
2.8307679e+000
2.4811907e+000
2.1905940e+000
1.9248030e+000
1.6793102e+000
1.4269751e+000
1.1709329e+000
9.1916531e-001
6.8492341e-001
5.1444769e-001
3.8610837e-001
3.1610742e-001
2.6082653e-001
1.8782850e-001
1.1704066e-001
7.2432123e-002
6.6363201e-002
2.0278901e-001
3.7045521e-001
6.2464267e-001
8.5958815e-001
1.0318629e+000
1.1668291e+000
1.2095330e+000
1.2305343e+000
1.2091839e+000
1.1819586e+000
1.1435543e+000
1.0918926e+000
1.0180912e+000
9.1228259e-001
7.6916176e-001
6.0145682e-001
4.1406479e-001
2.3129800e-001
5.9560992e-002
-6.8793744e-002
-1.6121590e-001
-2.0138201e-001
-2.0966552e-001
-1.5492465e-001
-7.2783068e-002
6.3756429e-002
2.0962384e-001
3.5375682e-001
4.9085435e-001
5.9096527e-001
6.8627727e-001
7.6368672e-001
8.3490717e-001
8.8657498e-001
9.3703604e-001
9.8494309e-001
1.0373904e+000
1.0966545e+000
1.1421927e+000
1.1660142e+000
1.1820334e+000
1.1956381e+000
1.2601001e+000
1.3820703e+000
1.5670485e+000
1.7976729e+000
2.0124686e+000
2.2072263e+000
2.3246031e+000
2.3956399e+000
2.3817854e+000
2.3325274e+000
2.2293699e+000
2.1142468e+000
1.9992236e+000
1.8899161e+000
1.8222522e+000
1.7645215e+000
1.7570206e+000
1.7492257e+000
1.7389927e+000
1.7177489e+000
1.6610140e+000
1.5961366e+000
1.5114501e+000
1.4223824e+000
1.3254640e+000
1.2340703e+000
1.1526129e+000
1.0946600e+000
1.0629402e+000
1.0275968e+000
9.8431778e-001
8.8810658e-001
7.5429392e-001
6.0397911e-001
4.4803271e-001
3.2443428e-001
2.1434756e-001
1.1771657e-001
2.4433509e-002
-7.1885183e-002
-1.7024317e-001
-2.8666320e-001
-4.0583730e-001
-5.4013920e-001
-6.7094415e-001
-7.7684790e-001
-8.7167931e-001
-9.1738284e-001
-9.5043868e-001
-9.4457418e-001
-9.3413746e-001
-9.1341394e-001
-8.9244604e-001
-8.7062460e-001
-8.4857494e-001
-8.2565200e-001
-7.9863608e-001
-7.6635313e-001
-7.1354795e-001
-6.4354694e-001
-5.5625045e-001
-4.5852649e-001
-3.6675549e-001
-2.7846298e-001
-2.0747250e-001
-1.4312994e-001
-9.6567079e-002
-5.5054456e-002
-3.7742004e-002
-2.4836600e-002
-4.6323344e-002
-6.4825982e-002
-2.1364715e-002
1.5881136e-003
4.9613267e-002
1.5039968e-001
2.7275127e-001
3.9640313e-001
5.2471858e-001
6.7723292e-001
8.8027537e-001
1.0439109e+000
1.1434329e+000
1.1759280e+000
1.1279211e+000
1.1080029e+000
1.1139487e+000
1.1170143e+000
1.1168660e+000
1.0282600e+000
8.9469415e-001
8.6050123e-001
8.6715877e-001
1.1316040e+000
1.4639783e+000
1.7151819e+000
1.9529710e+000
1.7929000e+000
