Image.
>Pix99999.
  .
5555
5555
2300
900
5555
2
1
0
701
5555
1.6370000e-002
1.6710512e-002
1.7051026e-002
1.7391538e-002
1.7732052e-002
1.8072564e-002
1.8413078e-002
1.8753590e-002
1.9094104e-002
1.9434616e-002
1.9775130e-002
2.0116625e-002
2.0457154e-002
2.0794723e-002
2.1138119e-002
2.1488478e-002
2.1819433e-002
2.2120690e-002
2.2499202e-002
2.2986673e-002
2.3185542e-002
2.2978570e-002
2.3844682e-002
2.6224123e-002
2.4614966e-002
1.4398179e-002
1.1356303e-003
-8.0727143e-003
-1.1452728e-002
-1.2091835e-002
-2.6537186e-002
-6.7218825e-002
-1.1456098e-001
-1.4510657e-001
-1.5711842e-001
-1.5721349e-001
-1.6010211e-001
-1.7611517e-001
-1.8866065e-001
-1.7824408e-001
-1.4604200e-001
-1.0257440e-001
-7.0950516e-002
-7.1796335e-002
-1.0074047e-001
-1.4428121e-001
-1.8289511e-001
-1.9927226e-001
-1.9204548e-001
-1.6559531e-001
-1.2742643e-001
-8.5586883e-002
-4.6751175e-002
-1.9466916e-002
-2.1685380e-002
-7.0457228e-002
-1.6696687e-001
-3.0092695e-001
-4.3617943e-001
-5.3334808e-001
-5.7356173e-001
-5.5050051e-001
-4.8110202e-001
-3.8915098e-001
-2.9583034e-001
-2.2116835e-001
-1.8470164e-001
-1.9848397e-001
-2.4435651e-001
-2.9201701e-001
-3.0335200e-001
-2.5089458e-001
-1.6089949e-001
-7.4879006e-002
-2.1029256e-002
-1.2741785e-002
-2.3578668e-002
-1.8597191e-002
1.5486214e-002
8.0922760e-002
1.6761011e-001
2.5940958e-001
3.3251682e-001
3.6417550e-001
3.4700081e-001
2.8533056e-001
2.0879917e-001
1.5021503e-001
1.1830789e-001
1.1249422e-001
1.3157672e-001
1.7413810e-001
2.3737834e-001
3.1416407e-001
3.8152072e-001
4.1535378e-001
4.1151428e-001
3.7604681e-001
3.2488260e-001
2.7313054e-001
2.1795000e-001
1.5381804e-001
9.3284220e-002
5.6832265e-002
6.7536891e-002
1.3869050e-001
2.3985302e-001
3.2784185e-001
3.7860268e-001
3.8447687e-001
3.7133530e-001
3.7163782e-001
3.9033601e-001
4.1875589e-001
4.4003496e-001
4.4034842e-001
4.3029416e-001
4.2945939e-001
4.5230979e-001
5.0441754e-001
5.6512374e-001
6.0587728e-001
6.1053854e-001
5.7540512e-001
5.2470767e-001
4.8907962e-001
4.7739860e-001
4.8335892e-001
4.7852275e-001
4.3445078e-001
3.6077642e-001
2.8592917e-001
2.4574538e-001
2.6682979e-001
3.2704467e-001
3.8695136e-001
4.2567068e-001
4.4081542e-001
4.6818000e-001
5.4941970e-001
6.8070602e-001
8.3082986e-001
9.4368774e-001
9.6610779e-001
9.0029627e-001
7.8026885e-001
6.6475004e-001
6.1306846e-001
6.4514202e-001
7.5238967e-001
8.8579357e-001
9.8512596e-001
1.0185697e+000
9.7821647e-001
8.9719778e-001
8.2427430e-001
7.9564983e-001
8.3367532e-001
9.3226773e-001
1.0701780e+000
1.2180885e+000
1.3471180e+000
1.4424425e+000
1.4978118e+000
1.5119457e+000
1.4873201e+000
1.4343915e+000
1.3683183e+000
1.3071600e+000
1.2663741e+000
1.2451800e+000
1.2355833e+000
1.2361382e+000
1.2481928e+000
1.2684314e+000
1.2901751e+000
1.3030109e+000
1.2989252e+000
1.2874532e+000
1.2847465e+000
1.2957457e+000
1.3164046e+000
1.3345840e+000
1.3383090e+000
1.3347092e+000
1.3425493e+000
1.3860388e+000
1.4824601e+000
1.6103114e+000
1.7284250e+000
1.8015672e+000
1.8073927e+000
1.7584605e+000
1.6826605e+000
1.5948092e+000
1.5010921e+000
1.4087920e+000
1.3280137e+000
1.2754911e+000
1.2693120e+000
1.3170571e+000
1.4161805e+000
1.5467638e+000
1.6761730e+000
1.7568731e+000
1.7429664e+000
1.6289240e+000
1.4397043e+000
1.2288240e+000
1.0580605e+000
9.6242297e-001
9.5423013e-001
1.0206212e+000
1.1332686e+000
1.2546614e+000
1.3474829e+000
1.3956012e+000
1.3994451e+000
1.3743969e+000
1.3405561e+000
1.3046714e+000
1.2646652e+000
1.2205666e+000
1.1743091e+000
1.1263521e+000
1.0764643e+000
1.0270200e+000
9.8344165e-001
9.5705235e-001
9.6015996e-001
9.9385315e-001
1.0523200e+000
1.1323994e+000
1.2300824e+000
1.3272434e+000
1.3945386e+000
1.3933772e+000
1.2902724e+000
1.0955180e+000
8.5217381e-001
6.2119800e-001
4.6480668e-001
4.1351688e-001
4.6976364e-001
6.0747510e-001
7.8106797e-001
9.3070590e-001
9.9798143e-001
9.6510750e-001
8.5278016e-001
7.2832930e-001
6.7403358e-001
7.1262443e-001
8.1703359e-001
9.3369263e-001
1.0048364e+000
1.0115074e+000
9.6759945e-001
9.0775269e-001
8.7125599e-001
8.6948287e-001
8.8623255e-001
8.7465310e-001
7.8174442e-001
6.1296457e-001
4.1809314e-001
2.4875581e-001
1.3629612e-001
3.9350055e-002
-1.1333453e-001
-2.9251599e-001
-3.9765111e-001
-3.6712199e-001
-1.9513030e-001
4.7478884e-002
2.4603643e-001
3.1882143e-001
2.3454042e-001
5.0030958e-002
-1.2716269e-001
-2.3842999e-001
-2.7971894e-001
-2.8970656e-001
-3.2236677e-001
-3.8283777e-001
-4.3267593e-001
-4.2076373e-001
-2.9534599e-001
-1.9119821e-002
4.2579812e-001
1.0211147e+000
1.7155666e+000
2.4273067e+000
3.0792251e+000
3.7101080e+000
4.4572058e+000
5.4769983e+000
6.9258189e+000
8.9567986e+000
1.1658528e+001
1.4828571e+001
1.8053610e+001
2.1027056e+001
2.3634665e+001
2.6077869e+001
2.8778557e+001
3.2074913e+001
3.6089600e+001
4.0436279e+001
4.4428299e+001
4.7868359e+001
5.1054279e+001
5.4378262e+001
5.8153671e+001
6.2309395e+001
6.6476349e+001
7.0416092e+001
7.4070229e+001
7.7455849e+001
8.0630112e+001
8.3665230e+001
8.6621552e+001
8.9468742e+001
9.2063728e+001
9.4100922e+001
9.5216072e+001
9.5389198e+001
9.4905807e+001
9.3948822e+001
9.2535446e+001
9.0604668e+001
8.8089363e+001
8.5097534e+001
8.1880585e+001
7.8577087e+001
7.5182030e+001
7.1637199e+001
6.7875870e+001
6.3906914e+001
5.9819160e+001
5.5733002e+001
5.1783936e+001
4.8116512e+001
4.4859661e+001
4.2035965e+001
3.9566414e+001
3.7370113e+001
3.5394951e+001
3.3629761e+001
3.2097984e+001
3.0810501e+001
2.9754353e+001
2.8899685e+001
2.8205675e+001
2.7645834e+001
2.7212643e+001
2.6905582e+001
2.6731039e+001
2.6710735e+001
2.6877991e+001
2.7262800e+001
2.7877949e+001
2.8688190e+001
2.9612171e+001
3.0572720e+001
3.1514286e+001
3.2412453e+001
3.3300095e+001
3.4354946e+001
3.5848305e+001
3.7803329e+001
3.9949730e+001
4.1967888e+001
4.3599453e+001
4.4841354e+001
4.5935467e+001
4.7044491e+001
4.8165569e+001
4.9168880e+001
4.9839725e+001
5.0045029e+001
4.9786510e+001
4.9199818e+001
4.8513870e+001
4.7828903e+001
4.7072498e+001
4.6130646e+001
4.4904423e+001
4.3394585e+001
4.1716385e+001
4.0016758e+001
3.8411732e+001
3.6822079e+001
3.4966122e+001
3.2651176e+001
2.9882858e+001
2.6902344e+001
2.4136797e+001
2.1800255e+001
1.9792891e+001
1.7938286e+001
1.6063770e+001
1.4083265e+001
1.2015606e+001
9.8921385e+000
7.7435541e+000
5.6615982e+000
3.8033209e+000
2.2742097e+000
1.1094506e+000
3.9446545e-001
2.6136124e-001
6.6282386e-001
1.3278490e+000
2.0384085e+000
2.7162180e+000
3.3631332e+000
4.0320168e+000
4.7117057e+000
5.2966337e+000
5.6810999e+000
5.8039441e+000
5.7095256e+000
5.5527682e+000
5.4239054e+000
5.2977324e+000
5.1402645e+000
4.9393439e+000
4.6891837e+000
4.3828259e+000
3.9945514e+000
3.4829750e+000
2.8537993e+000
2.1828036e+000
1.5655200e+000
1.0955260e+000
8.2188272e-001
7.2916782e-001
7.7375501e-001
8.9526677e-001
1.0481400e+000
1.2158500e+000
1.4042740e+000
1.6392010e+000
1.9340954e+000
2.2772200e+000
2.6458182e+000
3.0100276e+000
3.3448920e+000
3.6372609e+000
3.8887358e+000
4.1163507e+000
4.3292890e+000
4.5171628e+000
4.6487894e+000
4.6738701e+000
4.5671825e+000
4.3492804e+000
4.0611830e+000
3.7552750e+000
3.4617658e+000
3.1738126e+000
2.8803000e+000
2.5770383e+000
2.2646945e+000
1.9479078e+000
1.6252840e+000
1.2878335e+000
9.4213742e-001
6.2048560e-001
3.5502774e-001
1.6569322e-001
5.2417994e-002
-1.0112606e-002
-4.0854432e-002
-3.9400894e-002
4.3075904e-004
8.4041193e-002
1.9844182e-001
3.0223855e-001
3.5378429e-001
3.2584223e-001
2.2076257e-001
8.3323948e-002
-3.6741793e-002
-9.9299386e-002
-7.8691125e-002
2.8335251e-002
2.0827502e-001
4.2791742e-001
6.4880097e-001
8.3332855e-001
9.5762700e-001
1.0215929e+000
1.0356685e+000
1.0187892e+000
9.8969346e-001
9.6298534e-001
9.5041943e-001
9.5925760e-001
9.9024284e-001
1.0350143e+000
1.0868945e+000
1.1467527e+000
1.2214680e+000
1.3247421e+000
1.4618620e+000
1.6201102e+000
1.7807623e+000
1.9228883e+000
2.0363286e+000
2.1312461e+000
2.2245972e+000
2.3371923e+000
2.4889123e+000
2.6961572e+000
2.9702439e+000
3.3133891e+000
3.7164178e+000
4.1537433e+000
4.6015029e+000
5.0478301e+000
5.4923878e+000
5.9508448e+000
6.4388371e+000
6.9641247e+000
7.5266886e+000
8.1141434e+000
8.7071514e+000
9.2782278e+000
9.7951212e+000
1.0221362e+001
1.0521880e+001
1.0667339e+001
1.0644800e+001
1.0475772e+001
1.0189798e+001
9.8145885e+000
9.3729267e+000
8.8797188e+000
8.3532085e+000
7.8219128e+000
7.3101778e+000
6.8278646e+000
6.3730731e+000
5.9276466e+000
5.4756999e+000
5.0141277e+000
4.5416679e+000
4.0542369e+000
3.5425713e+000
2.9906015e+000
2.3965130e+000
1.7926769e+000
1.2222922e+000
7.3249197e-001
3.5610530e-001
9.3002364e-002
-6.5581381e-002
-1.3084468e-001
-1.1751840e-001
-4.7689423e-002
4.8566200e-002
1.2876083e-001
1.5829915e-001
1.2806386e-001
4.6322741e-002
-5.4052763e-002
-1.4107983e-001
-1.9887410e-001
-2.2344857e-001
-2.2857523e-001
-2.2725280e-001
-2.2082654e-001
-2.0637061e-001
-1.7780358e-001
-1.3169353e-001
-7.3047034e-002
-1.2858531e-002
3.1183606e-002
6.2720120e-002
1.3771410e-001
3.0890363e-001
5.9027410e-001
9.7449988e-001
1.4253793e+000
1.9010777e+000
2.3633883e+000
2.7831039e+000
3.1507599e+000
3.4641442e+000
3.7266023e+000
3.9435649e+000
4.1220245e+000
4.2757654e+000
4.4344802e+000
4.6264277e+000
4.8662500e+000
5.1554308e+000
5.4716301e+000
5.7912998e+000
6.1039348e+000
6.4116759e+000
6.7407942e+000
7.1143303e+000
7.5301075e+000
7.9712338e+000
8.3989944e+000
8.7811251e+000
9.1154528e+000
9.4096041e+000
9.6775656e+000
9.9245148e+000
1.0129395e+001
1.0267845e+001
1.0330393e+001
1.0319160e+001
1.0259396e+001
1.0176989e+001
1.0081399e+001
9.9683914e+000
9.8155832e+000
9.6021366e+000
9.3257952e+000
8.9994354e+000
8.6656780e+000
8.3663597e+000
8.1208210e+000
7.9300246e+000
7.7588458e+000
7.5714202e+000
7.3556318e+000
7.1064224e+000
6.8224630e+000
6.5002031e+000
6.1272502e+000
5.6972303e+000
5.2299008e+000
4.7502589e+000
4.2809472e+000
3.8396513e+000
3.4303775e+000
3.0498667e+000
2.6832786e+000
2.3197360e+000
1.9694629e+000
1.6543994e+000
1.4152470e+000
1.2813075e+000
1.2329676e+000
1.2363071e+000
1.2514330e+000
1.2395799e+000
1.1713254e+000
1.0229156e+000
7.8346813e-001
4.5932010e-001
1.0297656e-001
-2.2472800e-001
-4.7346026e-001
-6.0853970e-001
-6.3833749e-001
-5.7965809e-001
-4.4174862e-001
-2.2878061e-001
6.5179110e-002
4.3395036e-001
8.2161194e-001
1.1610886e+000
1.3897631e+000
1.4612814e+000
1.3808823e+000
1.1719323e+000
8.7416852e-001
5.4083681e-001
2.5584397e-001
8.4471993e-002
-1.6935244e-003
-5.3551164e-002
-1.1883240e-001
-2.3179971e-001
-3.8044393e-001
-5.3161651e-001
-6.1755663e-001
-5.8734685e-001
-4.8448843e-001
-3.8085219e-001
-3.6577624e-001
-4.9927273e-001
-7.1421522e-001
-9.1802675e-001
-1.0420785e+000
-1.0473830e+000
-9.8467094e-001
-9.1595101e-001
-8.5789651e-001
-8.1123734e-001
-7.5824779e-001
-6.8313026e-001
-5.9584123e-001
-5.1279002e-001
