##TITLE=Methyl Ethyl Ketone
##JCAMP-DX=4.24
##DATA TYPE=INFRARED SPECTRUM
##XUNITS=cm-1
##YUNITS=Absorbance
##FIRSTX=900
##LASTX=2300
##XYDATA=(X++(Y..Y))
2296 0.054205
2294 0.055332389
2292 0.056459773
2290 0.057588156
2288 0.058715548
2286 0.059842933
2284 0.060971316
2282 0.062098708
2280 0.063226096
2278 0.064353488
2276 0.065481856
2274 0.066609263
2272 0.067736641
2270 0.068865009
2268 0.069992416
2266 0.071119808
2264 0.072247192
2262 0.07337556
2260 0.074502967
2258 0.075630359
2256 0.076757744
2254 0.077886097
2252 0.079013519
2250 0.080140904
2248 0.081268296
2246 0.082396641
2244 0.043692589
2242 0.0016276371
2240 -0.02801376
2238 -0.024723642
2236 -0.016621171
2234 0.027563969
2232 0.074789971
2230 0.13213019
2228 0.18918657
2226 0.24027699
2224 0.29169989
2222 0.34611136
2220 0.40211132
2218 0.46253482
2216 0.51113945
2214 0.53336757
2212 0.53689241
2210 0.51242131
2208 0.48991174
2206 0.47197592
2204 0.47366154
2202 0.49394441
2200 0.53641939
2198 0.5945518
2196 0.66551071
2194 0.74328238
2192 0.81549329
2190 0.88507706
2188 0.93727654
2186 0.98386216
2184 0.99198961
2182 0.99133283
2180 0.93891698
2178 0.87881672
2176 0.81665945
2174 0.75681239
2172 0.72522414
2170 0.69978261
2168 0.69425821
2166 0.69722295
2164 0.72410649
2162 0.75203627
2160 0.7765401
2158 0.79571068
2156 0.80539799
2154 0.8260296
2152 0.86394835
2150 0.90505987
2148 0.94774377
2146 0.96216393
2144 0.95146728
2142 0.90986323
2140 0.84862679
2138 0.78592843
2136 0.72350168
2134 0.6820851
2132 0.64944565
2130 0.65611964
2128 0.67507601
2126 0.74346828
2124 0.8231737
2122 0.89696085
2120 0.96716005
2118 0.98917377
2116 1.0035614
2114 1.012447
2112 1.0230542
2110 1.045138
2108 1.0629306
2106 1.0628664
2104 1.0587034
2102 1.0516393
2100 1.063586
2098 1.1081134
2096 1.1726142
2094 1.2570751
2092 1.3256557
2090 1.374602
2088 1.3721194
2086 1.32936
2084 1.2568449
2082 1.1684489
2080 1.1308354
2078 1.1210121
2076 1.18962
2074 1.2894354
2072 1.3907241
2070 1.4915957
2068 1.5210432
2066 1.5319571
2064 1.4757841
2062 1.4061666
2060 1.33048
2058 1.261392
2056 1.2355657
2054 1.2249075
2052 1.238906
2050 1.2543994
2048 1.2618549
2046 1.2637215
2044 1.258324
2042 1.2564452
2040 1.2612028
2038 1.2858741
2036 1.3321586
2034 1.3925474
2032 1.4630474
2030 1.503916
2028 1.5207306
2026 1.4997928
2024 1.4577011
2022 1.4341011
2020 1.42207
2018 1.4229653
2016 1.42818
2014 1.3894513
2012 1.3351586
2010 1.2724173
2008 1.2096366
2006 1.1837971
2004 1.1706654
2002 1.182399
2000 1.2038641
1998 1.2426045
1996 1.2851928
1994 1.3277889
1992 1.3575108
1990 1.3554639
1988 1.338246
1986 1.3046479
1984 1.2840989
1982 1.2871161
1980 1.3091315
1978 1.3476919
1976 1.3842229
1974 1.416224
1972 1.4437672
1970 1.4690785
1968 1.4798006
1966 1.4813764
1964 1.4471477
1962 1.3939362
1960 1.3406999
1958 1.2881992
1956 1.2543
1954 1.2262645
1952 1.1807052
1950 1.1292526
1948 1.0862174
1946 1.053475
1944 1.0591496
1942 1.0788417
1940 1.0960807
1938 1.1029538
1936 1.08258
1934 1.0498432
1932 1.011992
1930 0.97643745
1928 0.95044672
1926 0.94100308
1924 0.95179558
1922 0.98548359
1920 1.03635
1918 1.086067
1916 1.1277057
1914 1.1620321
1912 1.1923811
1910 1.2141891
1908 1.2320499
1906 1.2113614
1904 1.1693161
1902 1.1197218
1900 1.0668329
1898 1.0639387
1896 1.0830144
1894 1.1377447
1892 1.2017509
1890 1.2298529
1888 1.2308823
1886 1.1694928
1884 1.0898366
1882 1.0245316
1880 0.98055375
1878 0.97668964
1876 0.99012399
1874 1.0154084
1872 1.0522857
1870 1.1040556
1868 1.146672
1866 1.1654214
1864 1.1391377
1862 1.0666289
1860 0.97934377
1858 0.89201176
1856 0.80186689
1854 0.71232653
1852 0.60672379
1850 0.49289128
1848 0.37354642
1846 0.25478142
1844 0.17486109
1842 0.11982557
1840 0.13645062
1838 0.18953331
1836 0.2869837
1834 0.4098109
1832 0.57585192
1830 0.75829613
1828 0.92486781
1826 1.0460538
1824 1.0500737
1822 0.97593874
1820 0.83935583
1818 0.69481891
1816 0.5855794
1814 0.51421845
1812 0.4821105
1810 0.47490683
1808 0.48030844
1806 0.50147504
1804 0.53449261
1802 0.54197228
1800 0.52599388
1798 0.47486836
1796 0.40059644
1794 0.39038798
1792 0.42487919
1790 0.50758797
1788 0.61261535
1786 0.67159998
1784 0.69849837
1782 0.69271702
1780 0.66740513
1778 0.64481223
1776 0.63727689
1774 0.68915623
1772 0.77113581
1770 0.83612937
1768 0.8387934
1766 0.70052928
1764 0.48476198
1762 0.25238845
1760 0.061766341
1758 -0.10545339
1756 -0.22771671
1754 -0.27816886
1752 -0.26713046
1750 -0.2076019
1748 -0.14684287
1746 -0.10358696
1744 -0.11349162
1742 -0.17669696
1740 -0.23054148
1738 -0.26469898
1736 -0.212834
1734 -0.092389964
1732 0.0045558289
1730 0.073166065
1728 0.01551646
1726 -0.12402539
1724 -0.20224898
1722 -0.2010453
1720 -0.012450449
1718 0.2950204
1716 0.76419526
1714 1.2863673
1712 1.6183674
1710 1.8356884
1708 2.0381539
1706 2.4124315
1704 3.1404462
1702 4.4432154
1700 6.4170852
1698 9.2911644
1696 13.034286
1694 16.928589
1692 20.628874
1690 23.931353
1688 26.867115
1686 30.264828
1684 34.221264
1682 38.87957
1680 44.082439
1678 48.546238
1676 52.322601
1674 55.917999
1672 59.458332
1670 63.635422
1668 68.283035
1666 72.852898
1664 77.253639
1662 81.183205
1660 84.665329
1658 87.725716
1656 90.418686
1654 92.84771
1652 95.005699
1650 96.89727
1648 98.095284
1646 98.229179
1644 97.431419
1642 95.934784
1640 93.872932
1638 91.418831
1636 88.306541
1634 84.507423
1632 80.412209
1630 76.193687
1628 72.019485
1626 67.930611
1624 63.639
1622 59.129871
1620 54.718563
1618 50.432869
1616 46.444172
1614 42.765224
1612 39.475082
1610 36.57864
1608 34.043697
1606 31.858814
1604 29.922461
1602 28.266811
1600 26.909184
1598 25.856646
1596 25.0725
1594 24.534149
1592 24.174753
1590 23.978052
1588 23.905586
1586 23.957636
1584 24.124165
1582 24.39813
1580 24.768848
1578 25.292181
1576 25.982458
1574 26.857424
1572 27.907452
1570 29.01679
1568 30.15572
1566 31.256243
1564 32.313862
1562 33.489662
1560 34.860443
1558 36.93869
1556 39.768715
1554 42.802052
1552 45.858768
1550 48.214706
1548 49.894348
1546 51.330536
1544 52.554874
1542 53.705647
1540 54.68396
1538 55.319847
1536 55.489143
1534 55.110924
1532 54.326778
1530 53.36348
1528 52.260056
1526 51.051998
1524 49.711048
1522 48.209717
1520 46.613331
1518 44.927273
1516 43.218258
1514 41.50898
1512 39.625961
1510 37.526985
1508 34.836979
1506 31.408936
1504 28.013931
1502 24.725559
1500 21.99955
1498 19.897141
1496 17.823429
1494 15.771814
1492 13.677952
1490 11.545877
1488 9.4010363
1486 7.2884068
1484 5.2959218
1482 3.5236082
1480 2.1085246
1478 1.0785029
1476 0.41629672
1474 0.20673372
1472 0.53031969
1470 1.1519163
1468 1.8408666
1466 2.4551821
1464 2.9133422
1462 3.345535
1460 3.8105507
1458 4.3898826
1456 5.13732
1454 5.8459706
1452 6.4454007
1450 6.8084846
1448 6.8199286
1446 6.7387605
1444 6.537992
1442 6.3429317
1440 6.1504116
1438 5.9181876
1436 5.6174088
1434 5.18536
1432 4.6254716
1430 4.0377483
1428 3.464606
1426 3.0184987
1424 2.7159555
1422 2.5590167
1420 2.5456491
1418 2.6522808
1416 2.8495572
1414 3.1087461
1412 3.3901229
1410 3.6832845
1408 3.9910834
1406 4.3263984
1404 4.6879258
1402 5.0791078
1400 5.4599881
1398 5.8091531
1396 6.1010714
1394 6.2855935
1392 6.4083323
1390 6.410913
1388 6.3388915
1386 6.14394
1384 5.8714166
1382 5.493762
1380 5.0788717
1378 4.6201119
1376 4.1393399
1374 3.6482558
1372 3.1703682
1370 2.7225692
1368 2.335264
1366 1.9807006
1364 1.6156816
1362 1.2373329
1360 0.83370268
1358 0.46191829
1356 0.19576719
1354 0.023968035
1352 -0.0061114556
1350 0.029857635
1348 0.12354992
1346 0.22837928
1344 0.34960601
1342 0.47748065
1340 0.61799514
1338 0.74906534
1336 0.85455513
1334 0.94124496
1332 0.98219907
1330 1.041005
1328 1.1324617
1326 1.2648472
1324 1.4649757
1322 1.697822
1320 1.9798607
1318 2.2887101
1316 2.6224999
1314 2.9468334
1312 3.2396727
1310 3.4663076
1308 3.6214406
1306 3.7068815
1304 3.7415366
1302 3.739892
1300 3.7252619
1298 3.712986
1296 3.7122285
1294 3.7366412
1292 3.7729297
1290 3.8235564
1288 3.8805921
1286 3.9475379
1284 4.0237613
1282 4.1204023
1280 4.2249532
1278 4.3466249
1276 4.4734559
1274 4.6130862
1272 4.7589002
1270 4.9184194
1268 5.0886521
1266 5.2741075
1264 5.4703798
1262 5.6753039
1260 5.8747959
1258 6.0656528
1256 6.2429686
1254 6.4161458
1252 6.6125035
1250 6.8313718
1248 7.0801783
1246 7.3341751
1244 7.5527058
1242 7.7415071
1240 7.873775
1238 7.9746008
1236 8.0237684
1234 8.028492
1232 7.9210401
1230 7.7582173
1228 7.4529505
1226 7.1146522
1224 6.6917381
1222 6.2507205
1220 5.7654057
1218 5.2636108
1216 4.7310343
1214 4.20469
1212 3.6962929
1210 3.2306306
1208 2.8307679
1206 2.4811907
1204 2.190594
1202 1.924803
1200 1.6793102
1198 1.4269751
1196 1.1709329
1194 0.91916531
1192 0.68492341
1190 0.51444769
1188 0.38610837
1186 0.31610742
1184 0.26082653
1182 0.1878285
1180 0.11704066
1178 0.072432123
1176 0.066363201
1174 0.20278901
1172 0.37045521
1170 0.62464267
1168 0.85958815
1166 1.0318629
1164 1.1668291
1162 1.209533
1160 1.2305343
1158 1.2091839
1156 1.1819586
1154 1.1435543
1152 1.0918926
1150 1.0180912
1148 0.91228259
1146 0.76916176
1144 0.60145682
1142 0.41406479
1140 0.231298
1138 0.059560992
1136 -0.068793744
1134 -0.1612159
1132 -0.20138201
1130 -0.20966552
1128 -0.15492465
1126 -0.072783068
1124 0.063756429
1122 0.20962384
1120 0.35375682
1118 0.49085435
1116 0.59096527
1114 0.68627727
1112 0.76368672
1110 0.83490717
1108 0.88657498
1106 0.93703604
1104 0.98494309
1102 1.0373904
1100 1.0966545
1098 1.1421927
1096 1.1660142
1094 1.1820334
1092 1.1956381
1090 1.2601001
1088 1.3820703
1086 1.5670485
1084 1.7976729
1082 2.0124686
1080 2.2072263
1078 2.3246031
1076 2.3956399
1074 2.3817854
1072 2.3325274
1070 2.2293699
1068 2.1142468
1066 1.9992236
1064 1.8899161
1062 1.8222522
1060 1.7645215
1058 1.7570206
1056 1.7492257
1054 1.7389927
1052 1.7177489
1050 1.661014
1048 1.5961366
1046 1.5114501
1044 1.4223824
1042 1.325464
1040 1.2340703
1038 1.1526129
1036 1.09466
1034 1.0629402
1032 1.0275968
1030 0.98431778
1028 0.88810658
1026 0.75429392
1024 0.60397911
1022 0.44803271
1020 0.32443428
1018 0.21434756
1016 0.11771657
1014 0.024433509
1012 -0.071885183
1010 -0.17024317
1008 -0.2866632
1006 -0.4058373
1004 -0.5401392
1002 -0.67094415
1000 -0.7768479
998 -0.87167931
996 -0.91738284
994 -0.95043868
992 -0.94457418
990 -0.93413746
988 -0.91341394
986 -0.89244604
984 -0.8706246
982 -0.84857494
980 -0.825652
978 -0.79863608
976 -0.76635313
974 -0.71354795
972 -0.64354694
970 -0.55625045
968 -0.45852649
966 -0.36675549
964 -0.27846298
962 -0.2074725
960 -0.14312994
958 -0.096567079
956 -0.055054456
954 -0.037742004
952 -0.0248366
950 -0.046323344
948 -0.064825982
946 -0.021364715
944 0.0015881136
942 0.049613267
940 0.15039968
938 0.27275127
936 0.39640313
934 0.52471858
932 0.67723292
930 0.88027537
928 1.0439109
926 1.1434329
924 1.175928
922 1.1279211
920 1.1080029
918 1.1139487
916 1.1170143
914 1.116866
912 1.02826
910 0.89469415
908 0.86050123
906 0.86715877
904 1.131604
902 1.4639783
900 1.7151819
898 1.952971
896 1.7929
