Image.
>Pix99999.
  .
5555
5555
2300
900
5555
2
1
0
701
5555
2.2859000e-002
2.3334321e-002
2.3809640e-002
2.4285955e-002
2.4761280e-002
2.5236601e-002
2.5711920e-002
2.6188230e-002
2.6663559e-002
2.7138880e-002
2.7614199e-002
2.8090505e-002
2.8565839e-002
2.9041160e-002
2.9516481e-002
2.9991800e-002
3.0468099e-002
3.0943440e-002
3.1418759e-002
3.1894080e-002
3.2370374e-002
3.2845721e-002
3.3321038e-002
3.3796363e-002
3.4272645e-002
3.4748003e-002
1.8972218e-002
7.0828717e-004
-7.0567681e-003
-4.0451422e-002
-7.7650428e-002
-1.1146722e-001
-1.4301045e-001
-1.2923287e-001
-1.0964172e-001
-6.0891200e-002
-1.2600789e-002
2.6950277e-002
5.6709517e-002
5.8156412e-002
5.7979230e-002
5.7734586e-002
6.6629320e-002
9.0421073e-002
1.0819012e-001
1.1729907e-001
1.2339031e-001
1.2707298e-001
1.4172852e-001
1.6469149e-001
1.8657358e-001
2.0753510e-001
2.2809269e-001
2.4852164e-001
2.5941855e-001
2.6722127e-001
2.4271320e-001
2.1080503e-001
1.7999537e-001
1.4983207e-001
1.5441228e-001
1.6253804e-001
1.7470665e-001
1.8342760e-001
1.7030612e-001
1.5121163e-001
1.1816192e-001
8.6940445e-002
6.3921221e-002
5.3025451e-002
6.3500002e-002
8.6082317e-002
1.2301184e-001
1.6049658e-001
1.9693412e-001
2.1712822e-001
2.2306578e-001
2.0857130e-001
1.8093365e-001
1.5551256e-001
1.3199970e-001
1.1897501e-001
1.1020400e-001
8.8851072e-002
6.3333958e-002
3.2003894e-002
-5.6246715e-004
-7.2153267e-003
-8.3147446e-003
1.7119054e-002
4.6923473e-002
8.0799177e-002
1.0777679e-001
1.0132839e-001
7.9709321e-002
2.7115693e-002
-2.0806920e-002
-4.8228532e-002
-6.1320677e-002
-5.5388499e-002
-5.8356144e-002
-7.6524697e-002
-1.0370608e-001
-1.3791174e-001
-1.6962200e-001
-1.9864500e-001
-2.3253968e-001
-2.6997754e-001
-3.0450889e-001
-3.3713862e-001
-3.5517845e-001
-3.6720070e-001
-3.7238681e-001
-3.7549540e-001
-3.8227370e-001
-3.9011049e-001
-4.1714770e-001
-4.4846168e-001
-4.8844880e-001
-5.2697194e-001
-5.4812711e-001
-5.6456971e-001
-5.7553631e-001
-5.9142125e-001
-6.2171769e-001
-6.5753925e-001
-6.9808823e-001
-7.3054278e-001
-7.5028193e-001
-7.6572019e-001
-7.7997959e-001
-8.0570948e-001
-8.4259456e-001
-8.7031770e-001
-8.8864356e-001
-8.7705511e-001
-8.4685087e-001
-8.0925393e-001
-7.6898569e-001
-7.5357884e-001
-7.4923003e-001
-7.8931916e-001
-8.4473222e-001
-9.2325890e-001
-1.0064195e+000
-1.0636979e+000
-1.1115555e+000
-1.1372000e+000
-1.1597737e+000
-1.1902821e+000
-1.2220286e+000
-1.2493483e+000
-1.2636898e+000
-1.2543786e+000
-1.2323020e+000
-1.2020079e+000
-1.1732178e+000
-1.1491586e+000
-1.1365669e+000
-1.1340137e+000
-1.1418457e+000
-1.1563660e+000
-1.1497011e+000
-1.1250433e+000
-1.0785297e+000
-1.0202900e+000
-9.9950892e-001
-1.0005362e+000
-1.0343320e+000
-1.0817183e+000
-1.1148515e+000
-1.1427845e+000
-1.1661943e+000
-1.1906472e+000
-1.2242520e+000
-1.2598500e+000
-1.2932531e+000
-1.3206269e+000
-1.3412685e+000
-1.3611345e+000
-1.3873972e+000
-1.4187964e+000
-1.4525080e+000
-1.4813415e+000
-1.4969509e+000
-1.4952178e+000
-1.4728665e+000
-1.4281709e+000
-1.3675691e+000
-1.3079600e+000
-1.2569643e+000
-1.2286028e+000
-1.2156429e+000
-1.2224605e+000
-1.2389668e+000
-1.2735506e+000
-1.3179040e+000
-1.3493110e+000
-1.3753175e+000
-1.3562186e+000
-1.3193429e+000
-1.2721592e+000
-1.2275200e+000
-1.2334340e+000
-1.2686468e+000
-1.3534307e+000
-1.4504900e+000
-1.5303466e+000
-1.5860777e+000
-1.5971032e+000
-1.5821900e+000
-1.5409824e+000
-1.4844989e+000
-1.4137256e+000
-1.3447077e+000
-1.2919357e+000
-1.2728674e+000
-1.2921211e+000
-1.3361286e+000
-1.3903861e+000
-1.4459885e+000
-1.4973406e+000
-1.5415435e+000
-1.5781730e+000
-1.6052840e+000
-1.6235536e+000
-1.6347619e+000
-1.6389163e+000
-1.6253400e+000
-1.6027552e+000
-1.5515915e+000
-1.4870180e+000
-1.3991103e+000
-1.3011203e+000
-1.2110492e+000
-1.1350685e+000
-1.1047378e+000
-1.1072867e+000
-1.1385480e+000
-1.1783891e+000
-1.2047743e+000
-1.2169456e+000
-1.2115868e+000
-1.1896075e+000
-1.1566834e+000
-1.1029550e+000
-1.0317681e+000
-9.6670794e-001
-9.0799093e-001
-8.6548090e-001
-8.3369786e-001
-7.6824707e-001
-6.8221241e-001
-5.7861263e-001
-4.7134981e-001
-3.9574865e-001
-3.4232399e-001
-2.9848421e-001
-2.6016191e-001
-2.0751861e-001
-1.4245144e-001
-5.5311225e-002
4.1000728e-002
1.1010853e-001
1.5033995e-001
1.4112258e-001
1.0888458e-001
8.7709606e-002
3.1365957e-002
-8.3780244e-002
-1.8931013e-001
-2.4822259e-001
-2.4380657e-001
-1.7675450e-001
-1.0267381e-001
-4.5309573e-002
-5.5294905e-002
-1.3418323e-001
-2.1014509e-001
-2.6852420e-001
-2.2488199e-001
-9.8830990e-002
2.4268854e-002
1.3180241e-001
1.0960780e-001
-2.5372878e-003
-8.6352967e-002
-1.2278350e-001
2.1444961e-002
3.3875832e-001
8.8151526e-001
1.5424644e+000
2.1368532e+000
2.6698685e+000
3.1633639e+000
3.7831850e+000
4.6968312e+000
6.1733770e+000
8.3448219e+000
1.1421822e+001
1.5356000e+001
1.9375191e+001
2.3122383e+001
2.6458174e+001
2.9441532e+001
3.2969044e+001
3.7134907e+001
4.2190247e+001
4.7947319e+001
5.3026310e+001
5.7452301e+001
6.1646641e+001
6.5747391e+001
7.0502708e+001
7.5742592e+001
8.0905052e+001
8.5879837e+001
9.0304588e+001
9.4166321e+001
9.7405113e+001
1.0001194e+002
1.0199794e+002
1.0328460e+002
1.0381001e+002
1.0333823e+002
1.0171214e+002
9.9327415e+001
9.6594772e+001
9.3456024e+001
8.9952629e+001
8.5707741e+001
8.0653358e+001
7.5500877e+001
7.0501160e+001
6.5887810e+001
6.1667816e+001
5.7434280e+001
5.3127884e+001
4.8935368e+001
4.4869812e+001
4.1049915e+001
3.7499462e+001
3.4388618e+001
3.1727631e+001
2.9497784e+001
2.7675428e+001
2.6111631e+001
2.4826361e+001
2.3812618e+001
2.3079594e+001
2.2598499e+001
2.2338774e+001
2.2226593e+001
2.2231316e+001
2.2304899e+001
2.2448685e+001
2.2659451e+001
2.2939760e+001
2.3290169e+001
2.3755339e+001
2.4347000e+001
2.5085548e+001
2.5962538e+001
2.6921501e+001
2.7944481e+001
2.9011608e+001
3.0127878e+001
3.1481327e+001
3.3173126e+001
3.5800991e+001
3.9430229e+001
4.3366638e+001
4.7365044e+001
5.0417671e+001
5.2560867e+001
5.4386070e+001
5.5913460e+001
5.7282860e+001
5.8281342e+001
5.8583340e+001
5.8154541e+001
5.7077492e+001
5.5613205e+001
5.4118355e+001
5.2602154e+001
5.1073650e+001
4.9412422e+001
4.7531204e+001
4.5387287e+001
4.2921848e+001
4.0490959e+001
3.8217842e+001
3.6052082e+001
3.4023403e+001
3.1544163e+001
2.8468435e+001
2.5345196e+001
2.2216324e+001
1.9558743e+001
1.7425671e+001
1.5333714e+001
1.3281950e+001
1.1203723e+001
9.1122980e+000
7.0407610e+000
5.0630665e+000
3.3073821e+000
1.8623011e+000
8.2535815e-001
2.1615925e-001
4.8817515e-002
4.1608560e-001
1.2560985e+000
2.2713299e+000
3.2693999e+000
4.1028943e+000
4.6782160e+000
5.1621776e+000
5.6165724e+000
6.0841479e+000
6.5742998e+000
6.9596047e+000
7.1583834e+000
7.2119656e+000
7.0544233e+000
6.8490963e+000
6.5830140e+000
6.3172650e+000
6.0511837e+000
5.7572145e+000
5.4131212e+000
4.9527798e+000
4.3781075e+000
3.7703404e+000
3.1696720e+000
2.6927164e+000
2.3600023e+000
2.1827323e+000
2.1541376e+000
2.2400441e+000
2.4001343e+000
2.5902810e+000
2.7846618e+000
2.9851427e+000
3.2057476e+000
3.4698830e+000
3.7798915e+000
4.1480742e+000
4.5509958e+000
4.9965577e+000
5.4344573e+000
5.8425937e+000
6.1802039e+000
6.3758030e+000
6.4608269e+000
6.3637900e+000
6.1498976e+000
5.7752643e+000
5.3352265e+000
4.8251534e+000
4.3078427e+000
3.8060579e+000
3.3502581e+000
2.9523797e+000
2.6184046e+000
2.3064470e+000
1.9519749e+000
1.5519805e+000
1.0890229e+000
6.4268410e-001
3.0727771e-001
7.7114791e-002
1.2631395e-002
2.9428281e-002
1.2491661e-001
2.5229642e-001
4.2759678e-001
6.2906379e-001
8.7920618e-001
1.1325077e+000
1.3816285e+000
1.6085477e+000
1.7757235e+000
1.9344600e+000
2.0825658e+000
2.2539065e+000
2.4725370e+000
2.7271986e+000
3.0345206e+000
3.3616877e+000
3.7037899e+000
4.0219011e+000
4.2986283e+000
4.5183277e+000
4.6778736e+000
4.7882657e+000
4.8601561e+000
4.9003682e+000
4.9170022e+000
4.8992620e+000
4.8632717e+000
4.8019090e+000
4.7381659e+000
4.6808243e+000
4.6317000e+000
4.6001658e+000
4.5757465e+000
4.5642705e+000
4.5605283e+000
4.5734472e+000
4.5941501e+000
4.6332970e+000
4.6790385e+000
4.7393179e+000
4.8073740e+000
4.8861551e+000
4.9752865e+000
5.0757036e+000
5.1862998e+000
5.3076544e+000
5.4349170e+000
5.5670123e+000
5.7004757e+000
5.8336220e+000
5.9634600e+000
6.0880499e+000
6.1967521e+000
6.2904172e+000
6.3512545e+000
6.3857760e+000
6.3647013e+000
6.3005023e+000
6.1308322e+000
5.9082346e+000
5.5490923e+000
5.1580844e+000
4.6869359e+000
4.2105002e+000
3.7227273e+000
3.2465961e+000
2.7965600e+000
2.3726723e+000
1.9956203e+000
1.6466882e+000
1.3401731e+000
1.0617931e+000
8.2111502e-001
6.1733866e-001
4.5267612e-001
3.1676325e-001
2.0342286e-001
9.7550079e-002
-1.4740303e-003
-8.9557469e-002
-1.6330406e-001
-1.9794643e-001
-2.0333949e-001
-1.4140287e-001
-4.1712560e-002
1.5082537e-001
3.7774599e-001
6.9326293e-001
1.0143867e+000
1.3342650e+000
1.6210343e+000
1.8026199e+000
1.9392705e+000
1.9635600e+000
1.9511485e+000
1.8635886e+000
1.7445443e+000
1.5741996e+000
1.3898079e+000
1.1877062e+000
9.8502320e-001
7.8059536e-001
5.7072073e-001
3.6182934e-001
1.8458977e-001
4.5576267e-002
-6.5000972e-004
1.8929556e-002
1.4705837e-001
3.2475245e-001
5.4536361e-001
7.6746529e-001
9.3679762e-001
1.0796041e+000
1.1312600e+000
1.1704956e+000
1.1877072e+000
1.2118642e+000
1.2673103e+000
1.3292342e+000
1.4114654e+000
1.4970701e+000
1.5887302e+000
1.6632358e+000
1.7006068e+000
1.7043897e+000
1.6572715e+000
1.6102387e+000
1.5663841e+000
1.5455385e+000
1.5458239e+000
1.5410328e+000
1.5303502e+000
1.5048828e+000
1.4708132e+000
1.4359241e+000
1.3991286e+000
1.3506123e+000
1.2948440e+000
1.2157979e+000
1.1302023e+000
1.0357672e+000
9.4022280e-001
8.4556365e-001
7.5110912e-001
6.5772790e-001
5.7120633e-001
5.1521909e-001
4.6906194e-001
4.5305368e-001
4.2394686e-001
3.6175537e-001
2.8006619e-001
1.6354305e-001
6.1326668e-002
-1.8759057e-002
-7.9074904e-002
-1.1798888e-001
-1.6723526e-001
-2.2767010e-001
-3.1355312e-001
-4.1817245e-001
-5.3863072e-001
-6.6622663e-001
-7.8032178e-001
-8.8605088e-001
-9.5502913e-001
-1.0123872e+000
-1.0510415e+000
-1.0888277e+000
-1.1531199e+000
-1.2220551e+000
-1.3204751e+000
-1.4149879e+000
-1.4812675e+000
-1.5319542e+000
-1.5139215e+000
-1.4797550e+000
-1.3964428e+000
-1.3142420e+000
-1.2356929e+000
-1.1754100e+000
-1.1472211e+000
-1.1380644e+000
-1.1534660e+000
-1.1642690e+000
-1.1688399e+000
-1.1436812e+000
-1.0941745e+000
-1.0306795e+000
-9.5870948e-001
-8.9063501e-001
-8.2415473e-001
-7.5619203e-001
-6.8802863e-001
-6.1985636e-001
-5.5162072e-001
-4.7704753e-001
-4.0087038e-001
-3.0269092e-001
-2.0110512e-001
-6.5314934e-002
2.0517595e-003
6.3940518e-002
1.8926586e-001
3.3914709e-001
4.9064714e-001
6.4673460e-001
7.8808117e-001
8.9720005e-001
9.7199082e-001
9.9160147e-001
9.8687840e-001
9.5292157e-001
9.2295587e-001
8.9659822e-001
8.7620556e-001
8.5979033e-001
8.4117126e-001
8.2216668e-001
8.1389499e-001
8.1115669e-001
8.3310807e-001
8.6264116e-001
9.3050259e-001
1.0049002e+000
1.1449000e+000
