##TITLE=Methyl Ethyl Ketone
##JCAMP-DX=4.24
##DATA TYPE=INFRARED SPECTRUM
##XUNITS=cm-1
##YUNITS=Absorbance
##FIRSTX=900
##LASTX=2300
##XYDATA=(X++(Y..Y))
2296 -0.045770001
2294 -0.046722636
2292 -0.047674276
2290 -0.048626911
2288 -0.049578555
2286 -0.050531186
2284 -0.05148283
2282 -0.052435458
2280 -0.053387105
2278 -0.054339733
2276 -0.055291384
2274 -0.056244008
2272 -0.057196647
2270 -0.058148302
2268 -0.059099942
2266 -0.060052555
2264 -0.061005197
2262 -0.061956856
2260 -0.062909462
2258 -0.063861132
2256 -0.064813748
2254 -0.065765411
2252 -0.06671802
2250 -0.067669682
2248 -0.068622291
2246 -0.06957493
2244 -0.0025854772
2242 0.12010166
2240 0.25307041
2238 0.30252346
2236 0.33962414
2234 0.33146128
2232 0.31892872
2230 0.28075027
2228 0.23614232
2226 0.15012251
2224 0.071894072
2222 0.03894826
2220 0.0096820164
2218 -0.015736895
2216 -0.061044313
2214 -0.15028349
2212 -0.22091539
2210 -0.25697264
2208 -0.26728812
2206 -0.24816193
2204 -0.24008314
2202 -0.24448884
2200 -0.26063702
2198 -0.28493842
2196 -0.33051786
2194 -0.38803515
2192 -0.4500916
2190 -0.51378262
2188 -0.5377416
2186 -0.54874778
2184 -0.5497064
2182 -0.54854423
2180 -0.57505548
2178 -0.60550833
2176 -0.61852199
2174 -0.6275605
2172 -0.60978246
2170 -0.58576691
2168 -0.54052186
2166 -0.48024648
2164 -0.37264526
2162 -0.27020979
2160 -0.19312784
2158 -0.16934779
2156 -0.241826
2154 -0.36429742
2152 -0.54479426
2150 -0.72837359
2148 -0.90860659
2146 -1.0093018
2144 -1.0400486
2142 -0.99367672
2140 -0.89872843
2138 -0.87846017
2136 -0.90156853
2134 -0.99153686
2132 -1.1078717
2130 -1.1497413
2128 -1.16714
2126 -1.1508136
2124 -1.1271609
2122 -1.1322565
2120 -1.1424925
2118 -1.1605588
2116 -1.1854829
2114 -1.253093
2112 -1.3263663
2110 -1.3978273
2108 -1.4356954
2106 -1.3732907
2104 -1.2780675
2102 -1.142794
2100 -1.038834
2098 -0.99706763
2096 -1.00415
2094 -1.0630906
2092 -1.1117408
2090 -1.1418536
2088 -1.1123537
2086 -1.0357801
2084 -0.96351814
2082 -0.89837027
2080 -0.87504238
2078 -0.87317944
2076 -0.85749483
2074 -0.8349784
2072 -0.838346
2070 -0.85027277
2068 -0.91036588
2066 -0.98194844
2064 -1.0535349
2062 -1.123117
2060 -1.1738603
2058 -1.215996
2056 -1.2314514
2054 -1.2452762
2052 -1.2718283
2050 -1.2980841
2048 -1.3165885
2046 -1.3047321
2044 -1.23672
2042 -1.1567687
2040 -1.0756029
2038 -1.0318238
2036 -1.0339314
2034 -1.0543518
2032 -1.0844034
2030 -1.1092731
2028 -1.1284969
2026 -1.1518557
2024 -1.1784348
2022 -1.1650406
2020 -1.1304731
2018 -1.0593864
2016 -0.97421598
2014 -0.98244023
2012 -1.022936
2010 -1.1585164
2008 -1.3140554
2006 -1.389745
2004 -1.4293748
2002 -1.357721
2000 -1.259972
1998 -1.1702889
1996 -1.1057143
1994 -1.1099837
1992 -1.1509246
1990 -1.2371111
1988 -1.3195519
1986 -1.3779086
1984 -1.3910766
1982 -1.3493012
1980 -1.302954
1978 -1.2649453
1976 -1.2465172
1974 -1.2441159
1972 -1.1719005
1970 -1.0434672
1968 -0.90518641
1966 -0.76730096
1964 -0.82795298
1962 -0.99380964
1960 -1.234984
1958 -1.5034004
1956 -1.5998671
1954 -1.6304309
1952 -1.554732
1950 -1.4535178
1948 -1.4214355
1946 -1.425125
1944 -1.5030303
1942 -1.5872254
1940 -1.6158994
1938 -1.6072147
1936 -1.5466685
1934 -1.4955152
1932 -1.492714
1930 -1.5386587
1928 -1.6385239
1926 -1.7183607
1924 -1.7513996
1922 -1.6674181
1920 -1.4712526
1918 -1.2548341
1916 -1.0465719
1914 -0.94652331
1912 -0.92728132
1910 -0.98343235
1908 -1.0776303
1906 -1.2302071
1904 -1.411744
1902 -1.5590264
1900 -1.68927
1898 -1.6663525
1896 -1.5795571
1894 -1.4398152
1892 -1.2959497
1890 -1.2653171
1888 -1.3047829
1886 -1.4614943
1884 -1.6603843
1882 -1.8554314
1880 -2.0284903
1878 -2.1520319
1876 -2.2402201
1874 -2.291784
1872 -2.2879839
1870 -2.2170551
1868 -2.0811081
1866 -1.8936429
1864 -1.7460703
1862 -1.659462
1860 -1.6596655
1858 -1.7223039
1856 -1.7870314
1854 -1.8409407
1852 -1.8100829
1850 -1.7224422
1848 -1.5929639
1846 -1.4422035
1844 -1.4352568
1842 -1.5057731
1840 -1.7040679
1838 -1.9574908
1836 -2.1633427
1834 -2.3274491
1832 -2.3788342
1830 -2.3302987
1828 -2.107018
1826 -1.8151214
1824 -1.5484086
1822 -1.4029683
1820 -1.492424
1818 -1.6906219
1816 -1.9146458
1814 -2.0508604
1812 -2.0451341
1810 -1.9376462
1808 -1.7648046
1806 -1.576635
1804 -1.39346
1802 -1.2190328
1800 -1.0498487
1798 -0.90399343
1796 -0.77544427
1794 -0.69144398
1792 -0.63894284
1790 -0.59947968
1788 -0.5681625
1786 -0.50973147
1784 -0.43469074
1782 -0.32976359
1780 -0.19779757
1778 0.0096784011
1776 0.25488544
1774 0.49009186
1772 0.65010697
1770 0.58166146
1768 0.39177489
1766 0.17134583
1764 0.032234885
1762 0.08729732
1760 0.053634457
1758 -0.05751818
1756 -0.13736483
1754 -0.19660795
1752 -0.094841339
1750 0.19722871
1748 0.60524952
1746 1.0733786
1744 1.3027291
1742 1.2861418
1740 1.1187974
1738 0.8678627
1736 0.84892803
1734 1.0205797
1732 1.1937774
1730 1.338647
1728 1.1195188
1726 0.66158032
1724 0.24226482
1722 -0.073511317
1720 0.086389259
1718 0.74704814
1716 2.0061142
1714 3.5187731
1712 4.8301773
1710 5.919301
1708 6.7550602
1706 7.6653032
1704 8.9621315
1702 10.951061
1700 13.778634
1698 17.391212
1696 21.623142
1694 25.60281
1692 28.993526
1690 31.938374
1688 34.589939
1686 37.829636
1684 41.736816
1682 46.306335
1680 51.368679
1678 55.727463
1676 59.438171
1674 63.102024
1672 66.81311
1670 71.159851
1668 75.970718
1666 80.685051
1664 85.243828
1662 89.434212
1660 93.22686
1658 96.53112
1656 99.263031
1654 101.30336
1652 102.5568
1650 102.94769
1648 102.36674
1646 100.78964
1644 98.544098
1642 95.977684
1640 93.064384
1638 89.845161
1636 85.954224
1634 81.323936
1632 76.54747
1630 71.845528
1628 67.435822
1626 63.330437
1624 59.042881
1622 54.524132
1620 50.046059
1618 45.642498
1616 41.565826
1614 37.843864
1612 34.64748
1610 31.98369
1608 29.795942
1606 28.044392
1604 26.526285
1602 25.236208
1600 24.120138
1598 23.179739
1596 22.389999
1594 21.770771
1592 21.323017
1590 21.079557
1588 21.045633
1586 21.224871
1584 21.599108
1582 22.134291
1580 22.796909
1578 23.65345
1576 24.720913
1574 26.009478
1572 27.509083
1570 28.976149
1568 30.35416
1566 31.518208
1564 32.453835
1562 33.465569
1560 34.654087
1558 36.762592
1556 39.8414
1554 43.189121
1552 46.587868
1550 49.118118
1548 50.827923
1546 52.27343
1544 53.421982
1542 54.30154
1540 54.664661
1538 54.19318
1536 53.063915
1534 51.627842
1532 50.099102
1530 48.730457
1528 47.460068
1526 46.233299
1524 44.930786
1522 43.473392
1520 41.715916
1518 39.562912
1516 37.28767
1514 34.966942
1512 32.67672
1510 30.448177
1508 27.865276
1506 24.824736
1504 21.878931
1502 19.101391
1500 16.772898
1498 14.92963
1496 13.041572
1494 11.12073
1492 9.2425156
1490 7.4688544
1488 5.9047232
1486 4.5473776
1484 3.29722
1482 2.188592
1480 1.2546408
1478 0.5573476
1476 0.14794557
1474 0.13799337
1472 0.57492983
1470 1.1743724
1468 1.7975109
1466 2.3458993
1464 2.7566588
1462 3.1570261
1460 3.6055214
1458 4.1275349
1456 4.75002
1454 5.2834439
1452 5.6492515
1450 5.8319654
1448 5.7464743
1446 5.5691571
1444 5.2671528
1442 4.9369221
1440 4.5817437
1438 4.2565608
1436 3.9750955
1434 3.7235274
1432 3.507844
1430 3.3107543
1428 3.1444759
1426 3.0335672
1424 2.9921319
1422 3.032779
1420 3.1438241
1418 3.29755
1416 3.4786885
1414 3.670244
1412 3.8865654
1410 4.1556559
1408 4.4728847
1406 4.8560429
1404 5.2562714
1402 5.6555581
1400 5.9963679
1398 6.2267861
1396 6.3798714
1394 6.4043708
1392 6.4057074
1390 6.3578048
1388 6.2629414
1386 6.08564
1384 5.8303242
1382 5.4708076
1380 5.0822186
1378 4.6673808
1376 4.2676573
1374 3.8959465
1372 3.55738
1370 3.2491269
1368 2.9516833
1366 2.6409743
1364 2.2810309
1362 1.8795385
1360 1.4403383
1358 1.0110691
1356 0.64880127
1354 0.35429379
1352 0.16749015
1350 0.041484803
1348 -0.012826469
1346 -0.020739287
1344 0.041715361
1342 0.15478697
1340 0.36218572
1338 0.56294507
1336 0.73484516
1334 0.83089787
1332 0.78430325
1330 0.72261131
1328 0.64713007
1326 0.62499762
1324 0.69114232
1322 0.8237713
1320 1.044549
1318 1.3070233
1316 1.59642
1314 1.836656
1312 2.0019217
1310 2.0567899
1308 2.012748
1306 1.8975
1304 1.7474794
1302 1.6090751
1300 1.4993882
1298 1.4541808
1296 1.4423286
1294 1.4623032
1292 1.4879702
1290 1.5081723
1288 1.5297641
1286 1.5563886
1284 1.5891317
1282 1.6358619
1280 1.6891046
1278 1.7575003
1276 1.8393414
1274 1.949717
1272 2.0763452
1270 2.2298071
1268 2.3852766
1266 2.5450299
1264 2.7150195
1262 2.9048345
1260 3.1350279
1258 3.4171839
1256 3.7566657
1254 4.1540098
1252 4.6036434
1250 5.0852246
1248 5.5654616
1246 6.0348501
1244 6.4680243
1242 6.8757639
1240 7.2428479
1238 7.561801
1236 7.7598429
1234 7.8750653
1232 7.7942801
1230 7.6375489
1228 7.2982659
1226 6.9159937
1224 6.425302
1222 5.9334426
1220 5.4420137
1218 4.9755921
1216 4.5563402
1214 4.1356277
1212 3.7104399
1210 3.2720134
1208 2.8196201
1206 2.3844979
1204 1.9664961
1202 1.5424143
1200 1.1080539
1198 0.65145713
1196 0.18968002
1194 -0.22648519
1192 -0.60249269
1190 -0.91828167
1188 -1.2023672
1186 -1.4646457
1184 -1.7053777
1182 -1.8867812
1180 -2.0247369
1178 -2.0403986
1176 -2.00946
1174 -1.8569102
1172 -1.6734477
1170 -1.3972021
1168 -1.1073672
1166 -0.77804339
1164 -0.45660096
1162 -0.1559065
1160 0.13054915
1158 0.38638741
1156 0.61987156
1154 0.80580288
1152 0.91301227
1150 0.90202034
1148 0.78377962
1146 0.55587107
1144 0.33096838
1142 0.12739748
1140 0.027056182
1138 0.0069575012
1136 0.053684853
1134 0.14931861
1132 0.33676445
1130 0.58248389
1128 0.95020926
1126 1.3600979
1124 1.8169913
1122 2.2725108
1120 2.6762359
1118 3.0448511
1116 3.2505159
1114 3.4228227
1112 3.4686606
1110 3.5246665
1108 3.6167748
1106 3.7493351
1104 3.9846742
1102 4.2606888
1100 4.617476
1098 5.0001464
1096 5.4221001
1094 5.8452072
1092 6.2663102
1090 6.6635504
1088 7.0382166
1086 7.4150629
1084 7.7991467
1082 8.2216549
1080 8.6563978
1078 9.0160847
1076 9.3182583
1074 9.4487972
1072 9.5123777
1070 9.4970102
1068 9.4550295
1066 9.3467932
1064 9.21562
1062 8.9787817
1060 8.7371035
1058 8.4984951
1056 8.2902565
1054 8.2192154
1052 8.2176361
1050 8.4390707
1048 8.7087889
1046 9.0892181
1044 9.4279394
1042 9.6868048
1040 9.9132452
1038 10.096502
1036 10.3125
1034 10.55925
1032 10.726423
1030 10.795623
1028 10.583814
1026 10.157339
1024 9.5037622
1022 8.7360811
1020 8.0199127
1018 7.3444061
1016 6.895257
1014 6.5190172
1012 6.2772293
1010 6.0474372
1008 5.6950603
1006 5.3141146
1004 4.7169147
1002 4.1205769
1000 3.5450399
998 3.0157466
996 2.6902857
994 2.3896711
992 2.1644762
990 1.9260252
988 1.6580247
986 1.4031471
984 1.1709549
982 0.93999416
980 0.71171641
978 0.50055128
976 0.31300056
974 0.23093081
972 0.23855218
970 0.35409194
968 0.53576761
966 0.72979599
964 0.92416328
962 1.0138305
960 1.0661589
958 1.0470721
956 1.0114852
954 0.95042825
952 0.87904161
950 0.63418317
948 0.38413101
946 0.16173573
944 0.00067641528
942 0.012954593
940 0.41870981
938 1.1938181
936 1.9190857
934 2.4955509
932 2.9504478
930 3.144114
928 3.2397103
926 3.1772399
924 3.032608
922 2.7898786
920 2.6287308
918 2.546433
916 2.6713758
914 2.9422498
912 3.2101536
910 3.4752009
908 3.5645962
906 3.5872242
904 3.5765915
902 3.5580857
900 3.6480079
898 3.7557633
896 4.0098
