Image.
>Pix99999.
  .
5555
5555
2300
900
5555
2
1
0
701
5555
1.1344000e-001
1.1585654e-001
1.1826312e-001
1.2066967e-001
1.2308617e-001
1.2549280e-001
1.2789935e-001
1.3031580e-001
1.3272247e-001
1.3512902e-001
1.3754544e-001
1.3995212e-001
1.4236851e-001
1.4477524e-001
1.4718179e-001
1.4959814e-001
1.5200491e-001
1.5441146e-001
1.5682778e-001
1.5923458e-001
1.6164114e-001
1.6405740e-001
1.6646425e-001
1.6888049e-001
1.7128737e-001
1.7369393e-001
7.5075589e-002
2.7489085e-003
-4.1659202e-002
-8.8831291e-002
-1.3666607e-001
-2.2805062e-001
-3.1946898e-001
-3.4123975e-001
-3.5392675e-001
-3.2130849e-001
-2.9682276e-001
-3.2031992e-001
-3.4211797e-001
-3.5107091e-001
-3.3572772e-001
-2.6887000e-001
-2.1212059e-001
-1.7681104e-001
-1.5583657e-001
-1.5107043e-001
-1.0205375e-001
-9.3268361e-003
9.9799335e-002
2.1907160e-001
2.6878285e-001
2.7793080e-001
2.4601851e-001
1.9724269e-001
2.1501794e-001
2.5480130e-001
3.4927642e-001
4.5602989e-001
5.0335586e-001
5.4109687e-001
5.2767402e-001
5.1357734e-001
5.4500002e-001
5.9229589e-001
7.0557046e-001
8.1560814e-001
8.9018250e-001
9.1493952e-001
8.2121032e-001
6.9731295e-001
5.3917098e-001
3.9532894e-001
2.7733591e-001
1.6069725e-001
4.2509258e-002
-4.2723570e-002
-9.8713323e-002
-7.2774433e-002
7.9244571e-003
1.0460567e-001
2.0698829e-001
2.4202672e-001
2.4869855e-001
2.2608657e-001
1.9502240e-001
2.1251535e-001
2.4135326e-001
3.0275089e-001
3.6826816e-001
4.1631228e-001
4.6054000e-001
4.9585959e-001
5.2668589e-001
5.4401666e-001
5.5161786e-001
5.3567827e-001
5.2218527e-001
5.2146786e-001
5.4464358e-001
6.0459208e-001
6.7678142e-001
7.5758404e-001
7.9464996e-001
7.8509963e-001
7.1760124e-001
6.0832000e-001
5.1718032e-001
4.4203150e-001
4.3192405e-001
4.5462021e-001
5.3123045e-001
6.2847894e-001
7.4998242e-001
8.7842989e-001
9.6925676e-001
1.0480808e+000
1.0305320e+000
9.8709637e-001
8.7854648e-001
7.5683320e-001
6.3357258e-001
5.2212697e-001
4.5181149e-001
4.1275120e-001
4.3047118e-001
4.6421501e-001
5.0601161e-001
5.3931034e-001
5.5987287e-001
5.7713425e-001
5.9627253e-001
5.8738577e-001
5.5047679e-001
4.7012359e-001
3.5774282e-001
2.6217008e-001
1.7952354e-001
1.8241116e-001
2.2804628e-001
3.1018844e-001
4.0656000e-001
4.2462480e-001
4.1774923e-001
3.5448784e-001
2.7904296e-001
2.2582828e-001
1.8227680e-001
1.6043611e-001
1.4696726e-001
1.3725081e-001
1.2100286e-001
7.6792620e-002
6.5570194e-003
-9.8487467e-002
-1.9921300e-001
-2.6676816e-001
-2.9460910e-001
-2.7840546e-001
-2.3952317e-001
-1.9086525e-001
-1.1034251e-001
-4.8475098e-003
1.5148452e-001
3.4091711e-001
4.8741710e-001
6.0317630e-001
5.6558275e-001
4.5244691e-001
3.1340522e-001
1.6829717e-001
1.0922428e-001
8.2682081e-002
5.3830724e-002
2.3640554e-002
-4.5361720e-002
-1.2993349e-001
-2.2524646e-001
-3.2380554e-001
-3.8940144e-001
-4.4270715e-001
-4.8280972e-001
-5.2945697e-001
-6.0876483e-001
-6.9015819e-001
-7.7144843e-001
-7.5164253e-001
-6.0697234e-001
-2.9489160e-001
1.6895640e-001
5.7413822e-001
9.0454799e-001
1.0303174e+000
1.0120405e+000
8.9202946e-001
7.2079164e-001
4.6143979e-001
1.6013896e-001
-6.2385008e-002
-2.4254289e-001
-1.4604631e-001
6.7146860e-002
3.6357594e-001
6.5784031e-001
7.3549199e-001
6.6961294e-001
3.6214215e-001
-4.2720109e-002
-4.6599960e-001
-8.3218145e-001
-1.0588990e+000
-1.1303201e+000
-1.0236858e+000
-7.5510859e-001
-3.4259343e-001
2.3381934e-002
2.9830715e-001
3.1075966e-001
9.4618917e-002
-2.2095868e-001
-5.8110845e-001
-8.7186944e-001
-1.1107006e+000
-1.1548420e+000
-1.0840600e+000
-7.6291442e-001
-3.1614572e-001
-2.8420769e-002
1.4979821e-001
-5.5486284e-002
-4.3125552e-001
-7.8529561e-001
-1.0774353e+000
-1.1590486e+000
-1.0925882e+000
-8.1375372e-001
-4.8570412e-001
-2.2615942e-001
-1.3655920e-001
-3.5098898e-001
-6.9697404e-001
-1.0893662e+000
-1.3751603e+000
-1.4937866e+000
-1.5099062e+000
-1.4632102e+000
-1.3842649e+000
-1.2888888e+000
-1.1044630e+000
-8.5195661e-001
-5.4349154e-001
-2.0534749e-001
5.0417580e-002
2.5653279e-001
2.8170061e-001
2.1140593e-001
9.0562046e-002
-4.0080115e-002
-8.2274340e-002
-4.2812072e-002
1.6804475e-001
4.9114513e-001
8.9936817e-001
1.2352166e+000
1.2636199e+000
1.0527701e+000
6.5198785e-001
2.7529100e-001
8.6625971e-002
2.2918921e-002
-1.4010960e-001
-2.7951515e-001
-2.8217357e-001
1.1122571e-001
9.1638422e-001
1.8764083e+000
2.8765786e+000
3.3343627e+000
3.2901106e+000
3.0552647e+000
2.7391315e+000
2.7539601e+000
3.0162656e+000
2.9661701e+000
2.6664948e+000
1.8552731e+000
7.7217174e-001
3.4943312e-002
-3.2178390e-001
9.7462833e-002
1.1357170e+000
2.6918159e+000
4.2958274e+000
5.3234153e+000
5.9967608e+000
6.5124741e+000
7.3147764e+000
8.7642841e+000
1.1060088e+001
1.4267220e+001
1.7871763e+001
2.1584572e+001
2.4705240e+001
2.7030432e+001
2.9208103e+001
3.1446199e+001
3.4603912e+001
3.8673012e+001
4.3163399e+001
4.7913441e+001
5.1744286e+001
5.4781116e+001
5.7951080e+001
6.1301353e+001
6.5306725e+001
6.9765930e+001
7.4055748e+001
7.8187599e+001
8.2094162e+001
8.5820053e+001
8.9405647e+001
9.2879082e+001
9.6261002e+001
9.9325775e+001
1.0183563e+002
1.0296206e+002
1.0213393e+002
9.9988251e+001
9.7140556e+001
9.4047112e+001
9.0973892e+001
8.7408188e+001
8.3208900e+001
7.8679970e+001
7.3986656e+001
6.9600609e+001
6.5569458e+001
6.1550400e+001
5.7482006e+001
5.3413952e+001
4.9352432e+001
4.5321373e+001
4.1365524e+001
3.7740738e+001
3.4507679e+001
3.1818542e+001
2.9628870e+001
2.7722250e+001
2.6086262e+001
2.4651777e+001
2.3459949e+001
2.2531500e+001
2.1842863e+001
2.1335178e+001
2.0955492e+001
2.0641106e+001
2.0458586e+001
2.0434200e+001
2.0680340e+001
2.1227755e+001
2.2166775e+001
2.3515858e+001
2.5062916e+001
2.6752895e+001
2.8213604e+001
2.9374121e+001
3.0414549e+001
3.1360443e+001
3.2727947e+001
3.4631840e+001
3.7475872e+001
4.1140217e+001
4.4293808e+001
4.6799721e+001
4.8387123e+001
4.9281731e+001
5.0360500e+001
5.1655720e+001
5.3185894e+001
5.4431061e+001
5.4725983e+001
5.4018028e+001
5.2399860e+001
5.0524250e+001
4.8973774e+001
4.7784458e+001
4.6970749e+001
4.6233562e+001
4.5419010e+001
4.4061825e+001
4.1984573e+001
3.9654285e+001
3.7184616e+001
3.4990440e+001
3.3132275e+001
3.0853329e+001
2.7971001e+001
2.4798080e+001
2.1394541e+001
1.8582367e+001
1.6466070e+001
1.4572286e+001
1.2892672e+001
1.1232294e+001
9.5554352e+000
7.8144150e+000
6.0009842e+000
4.1241198e+000
2.3874640e+000
1.0355928e+000
2.0076557e-001
-1.5910976e-003
3.9726579e-001
1.3446983e+000
2.2765388e+000
2.8780150e+000
3.2988458e+000
3.5400999e+000
3.9253714e+000
4.6155238e+000
5.4296217e+000
6.3704200e+000
6.9749432e+000
7.0758100e+000
6.9706731e+000
6.6101112e+000
6.2389321e+000
5.8478971e+000
5.4578843e+000
5.0750842e+000
4.7874579e+000
4.5727243e+000
4.3503695e+000
4.0722556e+000
3.6784120e+000
3.2603319e+000
2.9776430e+000
2.9035034e+000
3.0965157e+000
3.4466209e+000
3.8307598e+000
4.1123772e+000
4.1477089e+000
4.1006684e+000
4.0292706e+000
4.0481162e+000
4.2427588e+000
4.5474772e+000
5.0139627e+000
5.5294042e+000
6.1058364e+000
6.5685000e+000
6.8221326e+000
6.8803563e+000
6.6599140e+000
6.3900204e+000
6.0576701e+000
5.7119031e+000
5.3533101e+000
5.0213518e+000
4.7319646e+000
4.5304742e+000
4.3828011e+000
4.2125201e+000
3.9879508e+000
3.6473234e+000
3.2208800e+000
2.7277520e+000
2.1813669e+000
1.6175903e+000
1.0810838e+000
6.3997686e-001
3.0901831e-001
1.2070238e-001
1.3006148e-002
-1.0871568e-003
5.7356119e-002
2.5353718e-001
5.3904152e-001
9.7568280e-001
1.3534687e+000
1.6008571e+000
1.6692700e+000
1.4806023e+000
1.2938080e+000
1.1412640e+000
1.1203557e+000
1.2753391e+000
1.5569054e+000
1.9742246e+000
2.4476869e+000
2.9360201e+000
3.3156183e+000
3.5720794e+000
3.6676517e+000
3.6591749e+000
3.6053843e+000
3.5296721e+000
3.4518049e+000
3.3651862e+000
3.2721550e+000
3.1873429e+000
3.1465342e+000
3.1399634e+000
3.2059381e+000
3.2875400e+000
3.3870606e+000
3.4614463e+000
3.4745641e+000
3.4698899e+000
3.4344883e+000
3.4408486e+000
3.5263579e+000
3.6761315e+000
3.9228549e+000
4.1893625e+000
4.4834042e+000
4.7639074e+000
5.0333376e+000
5.2905679e+000
5.5360847e+000
5.7782173e+000
6.0317755e+000
6.3352876e+000
6.6999445e+000
7.1685395e+000
7.6916504e+000
8.2353888e+000
8.7492151e+000
9.1440678e+000
9.4725761e+000
9.6890154e+000
9.8662853e+000
9.9798441e+000
1.0037284e+001
9.9296579e+000
9.7445641e+000
9.3496418e+000
8.9293642e+000
8.4549379e+000
8.0013409e+000
7.5840144e+000
7.1369596e+000
6.6291280e+000
6.0517750e+000
5.3889565e+000
4.7524600e+000
4.1632619e+000
3.6563559e+000
3.2211349e+000
2.7832053e+000
2.3385286e+000
1.8765037e+000
1.4158480e+000
1.0025839e+000
6.2401891e-001
3.0456945e-001
1.9127503e-002
-2.0536086e-001
-3.8979793e-001
-4.7066882e-001
-5.0796402e-001
-4.2796952e-001
-3.3333910e-001
-2.0544758e-001
-8.0711372e-002
4.0145651e-002
1.8163583e-001
3.7320480e-001
5.6990176e-001
7.6651037e-001
9.0262181e-001
9.3020749e-001
8.7741613e-001
7.1783352e-001
5.3609300e-001
3.3978534e-001
1.8867248e-001
8.4063925e-002
2.4783023e-002
4.0012674e-004
1.7986342e-003
2.9807463e-002
1.9177417e-001
4.2271286e-001
7.4476874e-001
1.0894443e+000
1.4198334e+000
1.7402488e+000
2.0225401e+000
2.2828581e+000
2.4447684e+000
2.5761285e+000
2.5881228e+000
2.6115491e+000
2.6775243e+000
2.8106751e+000
3.1124268e+000
3.4625254e+000
3.8989558e+000
4.2917957e+000
4.6051574e+000
4.8192935e+000
4.9147120e+000
5.0163794e+000
5.1415915e+000
5.3898873e+000
5.7320046e+000
6.0796933e+000
6.4141335e+000
6.6371160e+000
6.8023157e+000
6.9125242e+000
6.9940648e+000
6.9944997e+000
6.9533839e+000
6.7363815e+000
6.4916201e+000
6.2085834e+000
5.9648366e+000
5.9878635e+000
6.0501513e+000
6.2792826e+000
6.4597530e+000
6.4819694e+000
6.4559674e+000
6.3217821e+000
6.2506948e+000
6.3045831e+000
6.4371543e+000
6.6753502e+000
6.8331099e+000
6.8799167e+000
6.7228365e+000
6.3772001e+000
5.9520769e+000
5.4767246e+000
5.0494094e+000
4.6467924e+000
4.2359228e+000
3.8200352e+000
3.3786228e+000
2.9311142e+000
2.4918423e+000
2.0609815e+000
1.7130719e+000
1.3871243e+000
1.2390066e+000
1.0965345e+000
9.8203355e-001
8.3845413e-001
5.6613863e-001
2.6785177e-001
-1.0856274e-001
-4.7301865e-001
-8.0726695e-001
-1.0998971e+000
-1.3198234e+000
-1.5046692e+000
-1.6406699e+000
-1.7214764e+000
-1.7384114e+000
-1.6424371e+000
-1.4547865e+000
-1.2326927e+000
-9.9796563e-001
-8.9958149e-001
-8.6591965e-001
-8.9295340e-001
-9.2734152e-001
-7.2094196e-001
-4.5624083e-001
-4.9392372e-002
3.5957921e-001
4.0360856e-001
4.1633117e-001
1.9076465e-001
8.4490329e-004
2.7321421e-002
1.1363906e-001
3.5123581e-001
5.8763289e-001
8.2115811e-001
1.1061571e+000
1.5008454e+000
1.9060502e+000
2.3254957e+000
2.6443319e+000
2.8400011e+000
3.0008166e+000
3.1315110e+000
3.3620114e+000
3.6641490e+000
4.0255742e+000
4.4149990e+000
4.6540294e+000
4.8306260e+000
4.7919407e+000
4.6942978e+000
4.6239085e+000
4.5573506e+000
4.8021998e+000
