Image.
>Pix99999.
  .
5555
5555
2300
900
5555
2
1
0
701
5555
-1.8374000e-003
-1.8756452e-003
-1.9137908e-003
-1.9520358e-003
-1.9902810e-003
-2.0285265e-003
-2.0667717e-003
-2.1051161e-003
-2.1431646e-003
-2.1809142e-003
-2.2196455e-003
-2.2597683e-003
-2.2961760e-003
-2.3271260e-003
-2.3723880e-003
-2.4374942e-003
-2.4496485e-003
-2.3879420e-003
-2.5227999e-003
-2.9331516e-003
-2.6127573e-003
-1.2652730e-003
-2.6338494e-003
-7.8327311e-003
-2.9361581e-003
2.1476496e-002
3.9898001e-002
1.9672543e-002
-6.1230961e-002
-2.1060823e-001
-3.9124441e-001
-5.5687660e-001
-6.7612773e-001
-7.3269659e-001
-7.5321203e-001
-7.6984298e-001
-7.8701383e-001
-7.9794919e-001
-7.8428644e-001
-7.3251635e-001
-6.6235971e-001
-6.0155010e-001
-5.6979179e-001
-5.7840812e-001
-6.1491698e-001
-6.6271150e-001
-7.1758008e-001
-7.8052169e-001
-8.5793507e-001
-9.5476693e-001
-1.0636535e+000
-1.1721877e+000
-1.2623961e+000
-1.3176174e+000
-1.3339664e+000
-1.3142679e+000
-1.2744120e+000
-1.2316933e+000
-1.1926148e+000
-1.1593646e+000
-1.1303600e+000
-1.1043483e+000
-1.0868791e+000
-1.0872200e+000
-1.1188365e+000
-1.1944807e+000
-1.3164729e+000
-1.4770646e+000
-1.6408685e+000
-1.7673151e+000
-1.8323200e+000
-1.8247215e+000
-1.7647960e+000
-1.6806207e+000
-1.5893257e+000
-1.5021893e+000
-1.4235468e+000
-1.3578731e+000
-1.3209440e+000
-1.3303298e+000
-1.3941771e+000
-1.5107018e+000
-1.6487648e+000
-1.7678864e+000
-1.8299240e+000
-1.8066286e+000
-1.7059265e+000
-1.5545626e+000
-1.4035949e+000
-1.3067539e+000
-1.2930472e+000
-1.3704780e+000
-1.5000520e+000
-1.6275069e+000
-1.7068911e+000
-1.7079571e+000
-1.6505142e+000
-1.5728580e+000
-1.5114900e+000
-1.4933406e+000
-1.5120144e+000
-1.5475749e+000
-1.5772617e+000
-1.5842997e+000
-1.5786697e+000
-1.5798099e+000
-1.6043843e+000
-1.6607993e+000
-1.7298229e+000
-1.7846873e+000
-1.8118485e+000
-1.8063967e+000
-1.7753000e+000
-1.7298679e+000
-1.6810125e+000
-1.6394879e+000
-1.6165479e+000
-1.6201295e+000
-1.6425352e+000
-1.6719489e+000
-1.7056029e+000
-1.7448338e+000
-1.7895352e+000
-1.8361590e+000
-1.8698263e+000
-1.8753000e+000
-1.8543080e+000
-1.8172027e+000
-1.7783766e+000
-1.7527833e+000
-1.7531600e+000
-1.7894781e+000
-1.8640560e+000
-1.9711109e+000
-2.0839686e+000
-2.1682341e+000
-2.1944799e+000
-2.1453235e+000
-2.0418165e+000
-1.9242903e+000
-1.8412601e+000
-1.8318303e+000
-1.8827823e+000
-1.9569883e+000
-2.0171211e+000
-2.0365286e+000
-2.0279949e+000
-2.0188010e+000
-2.0216739e+000
-2.0384066e+000
-2.0586286e+000
-2.0696664e+000
-2.0697777e+000
-2.0619545e+000
-2.0445340e+000
-2.0153637e+000
-1.9814886e+000
-1.9562689e+000
-1.9590203e+000
-2.0030344e+000
-2.0642858e+000
-2.1003602e+000
-2.0697548e+000
-1.9489752e+000
-1.7847629e+000
-1.6542085e+000
-1.6150861e+000
-1.6953572e+000
-1.8473800e+000
-1.9924656e+000
-2.0786970e+000
-2.0802588e+000
-2.0148818e+000
-1.9211942e+000
-1.8388897e+000
-1.7999001e+000
-1.8074480e+000
-1.8463445e+000
-1.8857151e+000
-1.8934882e+000
-1.8630371e+000
-1.8039881e+000
-1.7349780e+000
-1.6739367e+000
-1.6197314e+000
-1.5576108e+000
-1.4604831e+000
-1.3059150e+000
-1.1175445e+000
-9.4292498e-001
-8.2109797e-001
-7.7498496e-001
-7.8632241e-001
-8.2089084e-001
-8.7128496e-001
-9.4341302e-001
-1.0281756e+000
-1.1044809e+000
-1.1425852e+000
-1.1183949e+000
-1.0519285e+000
-9.8713648e-001
-9.6264994e-001
-1.0043083e+000
-1.1047652e+000
-1.2373879e+000
-1.3726540e+000
-1.4834145e+000
-1.5526195e+000
-1.5708834e+000
-1.5365300e+000
-1.4535989e+000
-1.3327651e+000
-1.1911474e+000
-1.0584258e+000
-9.6828008e-001
-9.3945235e-001
-9.7624248e-001
-1.0614080e+000
-1.1667986e+000
-1.2702942e+000
-1.3539689e+000
-1.3987954e+000
-1.3895563e+000
-1.3333040e+000
-1.2529821e+000
-1.1808763e+000
-1.1449370e+000
-1.1345285e+000
-1.1158094e+000
-1.0613729e+000
-9.5564634e-001
-8.0696309e-001
-6.3970542e-001
-4.8531961e-001
-3.7693951e-001
-3.4223697e-001
-3.9762577e-001
-5.2618682e-001
-6.8711531e-001
-8.2744229e-001
-8.9712888e-001
-8.8431948e-001
-8.0586261e-001
-6.9202495e-001
-5.7679600e-001
-4.8427016e-001
-4.2737991e-001
-4.0149218e-001
-3.8860795e-001
-3.5962930e-001
-2.8882095e-001
-1.9383000e-001
-1.1655510e-001
-7.1571775e-002
-4.8034519e-002
-2.1608502e-002
3.4461848e-002
1.2828435e-001
2.5194162e-001
3.8718942e-001
5.0632483e-001
5.6345135e-001
5.1447731e-001
3.7915125e-001
2.2178172e-001
9.6101403e-002
3.1243760e-002
6.2968517e-003
-2.1244606e-002
-3.5893515e-002
2.0738386e-002
1.8991277e-001
4.7406012e-001
7.8319561e-001
9.7706783e-001
9.8509061e-001
8.2148314e-001
6.1249465e-001
5.3193396e-001
6.2639004e-001
8.1996411e-001
9.6035099e-001
8.8604325e-001
5.9084880e-001
2.0105460e-001
-1.1873642e-001
-2.0147340e-001
7.9002172e-002
7.8101873e-001
1.8005557e+000
2.9254529e+000
4.0043859e+000
4.9852962e+000
5.9738340e+000
7.1903634e+000
8.8583670e+000
1.1158645e+001
1.4141637e+001
1.7700399e+001
2.1464144e+001
2.4928501e+001
2.7887297e+001
3.0471710e+001
3.3108727e+001
3.6377720e+001
4.0642193e+001
4.5925686e+001
5.1630600e+001
5.6834198e+001
6.1338329e+001
6.5624794e+001
7.0167206e+001
7.5206932e+001
8.0451248e+001
8.5237396e+001
8.9184235e+001
9.2251343e+001
9.4534058e+001
9.6179466e+001
9.7285370e+001
9.7889740e+001
9.7993797e+001
9.7574768e+001
9.6609001e+001
9.5103966e+001
9.3203728e+001
9.1139130e+001
8.8978104e+001
8.6606232e+001
8.3843925e+001
8.0526382e+001
7.6693115e+001
7.2554031e+001
6.8221786e+001
6.3681229e+001
5.8908119e+001
5.3919991e+001
4.8863083e+001
4.3987610e+001
3.9485626e+001
3.5465530e+001
3.1986803e+001
2.9063950e+001
2.6651772e+001
2.4658043e+001
2.3005934e+001
2.1650274e+001
2.0574821e+001
1.9786581e+001
1.9295000e+001
1.9100567e+001
1.9183388e+001
1.9504654e+001
2.0022526e+001
2.0699642e+001
2.1513439e+001
2.2470131e+001
2.3645868e+001
2.5173552e+001
2.7153114e+001
2.9612446e+001
3.2439224e+001
3.5402287e+001
3.8322559e+001
4.1111015e+001
4.3728218e+001
4.6200275e+001
4.8720589e+001
5.1561619e+001
5.4573601e+001
5.7169468e+001
5.8917027e+001
5.9713341e+001
5.9786636e+001
5.9592571e+001
5.9297096e+001
5.8681786e+001
5.7428921e+001
5.5280277e+001
5.2398342e+001
4.9367302e+001
4.6628109e+001
4.4330173e+001
4.2426258e+001
4.0710300e+001
3.8954041e+001
3.6958889e+001
3.4637714e+001
3.2051983e+001
2.9402229e+001
2.6972614e+001
2.4831600e+001
2.2774071e+001
2.0580894e+001
1.8127121e+001
1.5525674e+001
1.3116177e+001
1.1096429e+001
9.4270973e+000
7.9895859e+000
6.6429400e+000
5.3229713e+000
4.0596199e+000
2.8751588e+000
1.7670314e+000
7.7654326e-001
4.4257939e-003
-4.4849145e-001
-4.9515110e-001
-3.9907545e-002
9.9103683e-001
2.4777119e+000
4.0816560e+000
5.5440135e+000
6.7858777e+000
7.8551068e+000
8.9035902e+000
1.0046441e+001
1.1298667e+001
1.2531000e+001
1.3475434e+001
1.3958252e+001
1.3979029e+001
1.3628182e+001
1.3059393e+001
1.2398522e+001
1.1708120e+001
1.1017497e+001
1.0320593e+001
9.5831442e+000
8.7530670e+000
7.8322263e+000
6.9026389e+000
6.0642657e+000
5.4092741e+000
4.9842653e+000
4.7720962e+000
4.7278361e+000
4.7898755e+000
4.9078598e+000
5.0562401e+000
5.2356629e+000
5.4734230e+000
5.7854695e+000
6.1606560e+000
6.5694695e+000
6.9633346e+000
7.2864599e+000
7.4800034e+000
7.4948215e+000
7.3031011e+000
6.9184484e+000
6.4078236e+000
5.8460860e+000
5.2995300e+000
4.8154945e+000
4.4124331e+000
4.0851049e+000
3.7996986e+000
3.5046515e+000
3.1375811e+000
2.6690121e+000
2.1252475e+000
1.5529748e+000
1.0073540e+000
5.2235019e-001
9.8849371e-002
-2.5392035e-001
-5.0228041e-001
-6.0621256e-001
-5.2884489e-001
-2.6022708e-001
1.6792813e-001
7.1328485e-001
1.3329643e+000
1.9932719e+000
2.6710091e+000
3.3181407e+000
3.8446593e+000
4.1615658e+000
4.2069058e+000
3.9878297e+000
3.6114299e+000
3.1881876e+000
2.7949572e+000
2.4864018e+000
2.2898722e+000
2.2087567e+000
2.2144959e+000
2.2544401e+000
2.2523465e+000
2.1526136e+000
1.9478222e+000
1.6646777e+000
1.3677086e+000
1.1169049e+000
9.4796073e-001
8.8234055e-001
9.2621261e-001
1.0839000e+000
1.3611643e+000
1.7554277e+000
2.2473731e+000
2.8062680e+000
3.3883293e+000
3.9506304e+000
4.4587469e+000
4.8878336e+000
5.2280898e+000
5.4808173e+000
5.6624317e+000
5.7982969e+000
5.9239860e+000
6.0791693e+000
6.3054385e+000
6.6367002e+000
7.0895629e+000
7.6650157e+000
8.3421650e+000
9.0965719e+000
9.9077806e+000
1.0763060e+001
1.1662927e+001
1.2611663e+001
1.3611000e+001
1.4648751e+001
1.5686120e+001
1.6658279e+001
1.7465191e+001
1.8005701e+001
1.8194994e+001
1.7983160e+001
1.7380817e+001
1.6436811e+001
1.5245914e+001
1.3904126e+001
1.2497672e+001
1.1108894e+001
9.8224297e+000
8.7228689e+000
7.8907170e+000
7.3786273e+000
7.1817369e+000
7.2510676e+000
7.4738564e+000
7.7213502e+000
7.8663325e+000
7.8070149e+000
7.4976950e+000
6.9343858e+000
6.1744270e+000
5.2986975e+000
4.4057460e+000
3.5849605e+000
2.8943272e+000
2.3659353e+000
1.9912599e+000
1.7459663e+000
1.5930932e+000
1.4990200e+000
1.4450436e+000
1.4196932e+000
1.4198165e+000
1.4429801e+000
1.4838164e+000
1.5350648e+000
1.5862839e+000
1.6251074e+000
1.6363075e+000
1.6066414e+000
1.5284382e+000
1.3994726e+000
1.2267789e+000
1.0199682e+000
7.8963995e-001
5.5249453e-001
3.3701032e-001
1.6456771e-001
3.3522125e-002
-6.1287060e-002
-1.2051450e-001
-1.4489722e-001
-1.3754791e-001
-9.9272475e-002
-2.4429969e-002
9.0080664e-002
2.3713593e-001
4.0379041e-001
5.6860340e-001
7.0542431e-001
7.8304452e-001
7.8338790e-001
7.2507823e-001
6.4698106e-001
6.1445749e-001
6.8007374e-001
8.4661043e-001
1.0893500e+000
1.3461219e+000
1.5653286e+000
1.7460983e+000
1.9107220e+000
2.1075375e+000
2.3738737e+000
2.7008743e+000
3.0606687e+000
3.4037294e+000
3.6767817e+000
3.8304310e+000
3.8285072e+000
3.6691930e+000
3.3783646e+000
3.0345194e+000
2.7202685e+000
2.4933798e+000
2.3847079e+000
2.3671048e+000
2.3985856e+000
2.4353697e+000
2.4447143e+000
2.4260259e+000
2.3900445e+000
2.3568170e+000
2.3444703e+000
2.3595819e+000
2.4077549e+000
2.4996853e+000
2.6433754e+000
2.8341491e+000
3.0571001e+000
3.2758090e+000
3.4511857e+000
3.5514474e+000
3.5503397e+000
3.4324729e+000
3.1956053e+000
2.8687680e+000
2.4955752e+000
2.1395805e+000
1.8556170e+000
1.6561778e+000
1.5299828e+000
1.4235827e+000
1.2844520e+000
1.0951902e+000
8.5933107e-001
6.1863953e-001
4.1095126e-001
2.3265669e-001
6.6011004e-002
-1.1892730e-001
-3.4840122e-001
-6.2678593e-001
-9.4221258e-001
-1.2479043e+000
-1.4870937e+000
-1.5987654e+000
-1.5402319e+000
-1.3309860e+000
-1.0100789e+000
-6.2992191e-001
-2.4118969e-001
1.2312657e-001
4.3162239e-001
6.4457750e-001
7.3724014e-001
7.4304605e-001
7.1369493e-001
7.1327251e-001
7.8232545e-001
8.6936867e-001
9.0380037e-001
8.2890308e-001
6.2109637e-001
3.6104751e-001
1.4053075e-001
-1.4558025e-003
-4.2154394e-002
2.9484048e-002
2.0729971e-001
4.3356922e-001
6.5257257e-001
8.6295277e-001
1.0820000e+000
1.3455950e+000
1.6767560e+000
2.0334115e+000
2.3548765e+000
2.5724134e+000
2.6349571e+000
2.5680461e+000
2.4241033e+000
2.2853870e+000
2.2249255e+000
2.2517507e+000
2.3570726e+000
2.5272601e+000
2.7511120e+000
3.0350068e+000
3.3893001e+000
