Image.
>Pix99999.
  .
5555
5555
2300
900
5555
2
1
0
701
5555
3.0121000e-003
3.0747103e-003
3.1374204e-003
3.2001308e-003
3.2627417e-003
3.3254514e-003
3.3880626e-003
3.4506731e-003
3.5133823e-003
3.5760927e-003
3.6387043e-003
3.7014131e-003
3.7641234e-003
3.8266375e-003
3.8894420e-003
3.9519584e-003
4.0147626e-003
4.0773773e-003
4.1400851e-003
4.2026979e-003
4.2653084e-003
4.3280157e-003
4.3906295e-003
4.4533368e-003
4.5160470e-003
4.5786607e-003
1.7014772e-004
3.0306149e-002
7.1280397e-002
1.1678493e-001
1.6289999e-001
1.9086587e-001
2.1711046e-001
2.3428942e-001
2.4889474e-001
2.4652201e-001
2.3685531e-001
1.9788601e-001
1.5290861e-001
9.4435915e-002
4.9170084e-002
3.4433618e-002
4.3055259e-002
8.6858317e-002
1.2643513e-001
1.5806621e-001
1.7099179e-001
1.6637741e-001
1.7417726e-001
1.9210589e-001
2.2243714e-001
2.5952128e-001
2.6305610e-001
2.5166810e-001
2.0598990e-001
1.4948900e-001
1.0974479e-001
7.4002743e-002
8.5014477e-002
1.0312839e-001
1.3430285e-001
1.6382672e-001
1.6108459e-001
1.5365399e-001
1.3691553e-001
1.2875949e-001
1.5526143e-001
1.9177464e-001
2.4508743e-001
2.9401505e-001
3.3136001e-001
3.6395893e-001
3.9141700e-001
4.0535060e-001
4.0465572e-001
3.7546465e-001
3.2241765e-001
2.6588142e-001
2.0865378e-001
1.8258317e-001
1.7352572e-001
1.9171867e-001
2.2069570e-001
2.5773072e-001
2.9701757e-001
3.2999730e-001
3.6147738e-001
3.7010387e-001
3.7437332e-001
3.6465141e-001
3.5301659e-001
3.4187168e-001
3.2925150e-001
3.0975756e-001
2.8810549e-001
2.6299244e-001
2.3963840e-001
2.2131024e-001
2.0228919e-001
1.8089031e-001
1.5734142e-001
1.3147606e-001
1.1340635e-001
1.0376336e-001
1.0158343e-001
1.0454800e-001
1.0443811e-001
1.0182093e-001
9.4956107e-002
8.6040519e-002
7.1455002e-002
5.4621983e-002
3.7017122e-002
1.9244205e-002
4.5587560e-003
-9.6637746e-003
-3.9588653e-002
-7.3691465e-002
-1.1943936e-001
-1.6405340e-001
-1.8979999e-001
-2.0498630e-001
-1.9550449e-001
-1.7919321e-001
-1.5768634e-001
-1.4130285e-001
-1.3678961e-001
-1.4329875e-001
-1.6307680e-001
-1.8395555e-001
-2.0322143e-001
-2.0792051e-001
-1.9876930e-001
-1.7654060e-001
-1.4588486e-001
-1.1600193e-001
-8.7444492e-002
-7.3550969e-002
-6.7154288e-002
-9.7737223e-002
-1.4350800e-001
-2.0843482e-001
-2.7935991e-001
-3.1157851e-001
-3.3207926e-001
-3.3027941e-001
-3.2492325e-001
-3.3433220e-001
-3.4677577e-001
-3.5581672e-001
-3.5729286e-001
-3.3827952e-001
-3.1100908e-001
-2.7689922e-001
-2.4490559e-001
-2.1988700e-001
-2.0409423e-001
-1.9883922e-001
-2.0646937e-001
-2.2578238e-001
-2.4054714e-001
-2.4864750e-001
-2.2618215e-001
-1.8129095e-001
-1.3780721e-001
-9.7851217e-002
-1.1316811e-001
-1.5745233e-001
-2.3950361e-001
-3.3648655e-001
-4.1914302e-001
-4.9519977e-001
-5.3677624e-001
-5.6561339e-001
-5.7635963e-001
-5.8063000e-001
-5.8122826e-001
-5.8049232e-001
-5.8023781e-001
-5.8231890e-001
-5.9039426e-001
-6.0171854e-001
-6.1553961e-001
-6.2175727e-001
-6.1419445e-001
-5.7810491e-001
-5.0948906e-001
-4.1817331e-001
-3.1176656e-001
-2.4091040e-001
-2.0586200e-001
-2.2099507e-001
-2.6828748e-001
-3.1989411e-001
-3.7019408e-001
-4.1809815e-001
-4.6488279e-001
-5.0325650e-001
-5.3788710e-001
-5.2475864e-001
-4.9101287e-001
-4.3147099e-001
-3.6696726e-001
-3.3736119e-001
-3.3318558e-001
-3.8137549e-001
-4.5537534e-001
-5.4874480e-001
-6.3784033e-001
-7.0039630e-001
-7.2405398e-001
-6.9220090e-001
-6.1233515e-001
-4.8740047e-001
-3.7746823e-001
-3.0460736e-001
-3.1512079e-001
-4.0309459e-001
-5.2561587e-001
-6.6087186e-001
-7.7415830e-001
-8.6787677e-001
-9.1293758e-001
-9.2757648e-001
-8.7904161e-001
-7.9588175e-001
-7.1072340e-001
-6.2833601e-001
-6.1327171e-001
-6.2984872e-001
-6.4273983e-001
-6.4153910e-001
-5.7357317e-001
-4.7245434e-001
-3.6013171e-001
-2.7625343e-001
-2.8363451e-001
-3.5517079e-001
-4.8299658e-001
-6.0740435e-001
-6.8710315e-001
-7.0130897e-001
-6.4419276e-001
-5.5083388e-001
-4.4261628e-001
-3.5288548e-001
-2.8743240e-001
-2.4174853e-001
-2.0792978e-001
-1.8074219e-001
-1.5665643e-001
-1.5438695e-001
-1.6767040e-001
-2.0868541e-001
-2.6645064e-001
-2.9896507e-001
-3.1377405e-001
-2.8894734e-001
-2.3855369e-001
-1.6261341e-001
-6.7474514e-002
5.1690679e-002
1.6832960e-001
2.3662309e-001
2.5012133e-001
1.8601820e-001
1.0318412e-001
5.4720555e-002
1.6019508e-002
-2.9181778e-002
-4.8567671e-002
-2.8138980e-002
4.9922589e-002
1.8189755e-001
3.0801004e-001
4.0971178e-001
4.0147859e-001
2.9378736e-001
1.6321300e-001
3.1030500e-002
-8.3222585e-003
2.4436353e-002
4.4888940e-002
4.7658842e-002
-4.5864195e-002
-1.9365901e-001
-2.5813046e-001
-2.2599941e-001
3.5424113e-002
4.8931518e-001
1.1406466e+000
1.8540963e+000
2.4217999e+000
2.9077277e+000
3.3865380e+000
4.0376120e+000
5.0242581e+000
6.5752711e+000
8.7964172e+000
1.1825047e+001
1.5609858e+001
1.9434629e+001
2.2973551e+001
2.6160191e+001
2.9050446e+001
3.2530319e+001
3.6680027e+001
4.1699490e+001
4.7404762e+001
5.2456841e+001
5.6883202e+001
6.1184006e+001
6.5482689e+001
7.0600510e+001
7.6338715e+001
8.2100304e+001
8.7728828e+001
9.2708595e+001
9.6997604e+001
1.0045111e+002
1.0307658e+002
1.0491800e+002
1.0597040e+002
1.0628230e+002
1.0552486e+002
1.0348035e+002
1.0053654e+002
9.7107132e+001
9.3290665e+001
8.9202888e+001
8.4526604e+001
7.9204338e+001
7.3900085e+001
6.8835083e+001
6.4197144e+001
5.9969643e+001
5.5752041e+001
5.1480476e+001
4.7350426e+001
4.3370583e+001
3.9606884e+001
3.6082718e+001
3.2950420e+001
3.0233110e+001
2.7962017e+001
2.6115301e+001
2.4551735e+001
2.3282421e+001
2.2278131e+001
2.1548595e+001
2.1063999e+001
2.0794788e+001
2.0672623e+001
2.0661409e+001
2.0709072e+001
2.0828814e+001
2.1023079e+001
2.1308990e+001
2.1690269e+001
2.2213285e+001
2.2888771e+001
2.3736927e+001
2.4755964e+001
2.5876751e+001
2.7081200e+001
2.8316000e+001
2.9578495e+001
3.1041201e+001
3.2802750e+001
3.5505402e+001
3.9207756e+001
4.3261009e+001
4.7424549e+001
5.0628471e+001
5.2900959e+001
5.4778717e+001
5.6284885e+001
5.7599792e+001
5.8563221e+001
5.8983521e+001
5.8754715e+001
5.7847965e+001
5.6499374e+001
5.5006092e+001
5.3468990e+001
5.1971199e+001
5.0415306e+001
4.8740044e+001
4.6753593e+001
4.4347176e+001
4.1849514e+001
3.9358192e+001
3.6989841e+001
3.4789967e+001
3.2145969e+001
2.8907928e+001
2.5625223e+001
2.2360649e+001
1.9629723e+001
1.7499121e+001
1.5440143e+001
1.3449142e+001
1.1443206e+001
9.4246454e+000
7.4067059e+000
5.4425359e+000
3.6297300e+000
2.0866206e+000
9.4936484e-001
2.5760421e-001
4.9155299e-002
3.8071814e-001
1.1801541e+000
2.1261549e+000
3.0156937e+000
3.7572672e+000
4.2731652e+000
4.7466874e+000
5.2517853e+000
5.7817965e+000
6.3414598e+000
6.7365189e+000
6.8657198e+000
6.8272090e+000
6.5568900e+000
6.2611713e+000
5.9345942e+000
5.6242270e+000
5.3303671e+000
5.0212946e+000
4.6744170e+000
4.2406855e+000
3.7194583e+000
3.1769898e+000
2.6518359e+000
2.2288835e+000
1.9328200e+000
1.7785012e+000
1.7639089e+000
1.8770821e+000
2.0661027e+000
2.2804799e+000
2.4973047e+000
2.6996944e+000
2.9185131e+000
3.1798584e+000
3.4803355e+000
3.8360214e+000
4.2193637e+000
4.6379247e+000
5.0496573e+000
5.4390826e+000
5.7530460e+000
5.9312515e+000
6.0031505e+000
5.9047899e+000
5.7023168e+000
5.3567309e+000
4.9558148e+000
4.4941611e+000
4.0317569e+000
3.5775447e+000
3.1502600e+000
2.7606175e+000
2.4180822e+000
2.1017849e+000
1.7694746e+000
1.4104216e+000
1.0048354e+000
6.1141992e-001
3.0173600e-001
8.5271738e-002
1.7891498e-002
2.9210035e-002
1.2318239e-001
2.5622106e-001
4.5722598e-001
6.9355375e-001
9.9072969e-001
1.2838262e+000
1.5599287e+000
1.7904409e+000
1.9382572e+000
2.0766330e+000
2.2060320e+000
2.3644915e+000
2.5702775e+000
2.8142431e+000
3.1106176e+000
3.4425433e+000
3.8031101e+000
4.1445642e+000
4.4483285e+000
4.6801820e+000
4.8453674e+000
4.9536257e+000
5.0186710e+000
5.0472860e+000
5.0502782e+000
5.0239778e+000
4.9860573e+000
4.9416795e+000
4.9025073e+000
4.8809528e+000
4.8670759e+000
4.8666668e+000
4.8666840e+000
4.8652415e+000
4.8649306e+000
4.8681555e+000
4.8796015e+000
4.9086771e+000
4.9519720e+000
5.0208836e+000
5.1065440e+000
5.2164364e+000
5.3364606e+000
5.4664583e+000
5.5926800e+000
5.7133584e+000
5.8256826e+000
5.9321938e+000
6.0407462e+000
6.1512222e+000
6.2642884e+000
6.3718748e+000
6.4564161e+000
6.5173073e+000
6.5277157e+000
6.5062876e+000
6.4263487e+000
6.3140225e+000
6.1315479e+000
5.9131756e+000
5.6010938e+000
5.2603788e+000
4.8447766e+000
4.4160323e+000
3.9570050e+000
3.4989362e+000
3.0459430e+000
2.6128886e+000
2.2162931e+000
1.8463745e+000
1.5160446e+000
1.2087468e+000
9.3240720e-001
6.8525928e-001
4.7118458e-001
2.8972948e-001
1.4005807e-001
2.6984908e-002
-5.4721907e-002
-9.1743454e-002
-9.8977536e-002
-6.4109802e-002
-7.8090355e-003
8.0018952e-002
1.8655327e-001
3.4030318e-001
5.2108198e-001
7.8535050e-001
1.0610386e+000
1.3600528e+000
1.6283720e+000
1.8000071e+000
1.9281708e+000
1.9482991e+000
1.9357064e+000
1.8554295e+000
1.7442229e+000
1.5810944e+000
1.3959600e+000
1.1816946e+000
9.6119678e-001
7.3594570e-001
5.1998448e-001
3.1915846e-001
1.5907893e-001
4.2397425e-002
1.5921086e-002
5.5250064e-002
1.7728314e-001
3.3876550e-001
5.4128450e-001
7.5051528e-001
9.3621582e-001
1.1053823e+000
1.2092800e+000
1.2974195e+000
1.3339415e+000
1.3700548e+000
1.4084498e+000
1.4573274e+000
1.5390109e+000
1.6255901e+000
1.7221029e+000
1.8019629e+000
1.8460183e+000
1.8596251e+000
1.8252000e+000
1.7752556e+000
1.7081060e+000
1.6529583e+000
1.6122868e+000
1.5920757e+000
1.5903560e+000
1.6089920e+000
1.6416537e+000
1.6877990e+000
1.7354857e+000
1.7509103e+000
1.7463880e+000
1.6750865e+000
1.5823509e+000
1.4412893e+000
1.2929080e+000
1.1366751e+000
9.8945302e-001
9.0299702e-001
8.3356774e-001
8.3787912e-001
8.3943772e-001
8.3075386e-001
8.0405235e-001
7.3353463e-001
6.5230650e-001
5.4938233e-001
4.2584097e-001
2.7217591e-001
1.1270970e-001
-4.9721487e-002
-1.7649519e-001
-2.6976180e-001
-3.4193158e-001
-4.0082508e-001
-4.7162005e-001
-5.4941189e-001
-6.3551182e-001
-7.2266293e-001
-7.8662682e-001
-8.3980262e-001
-8.4261525e-001
-8.3509791e-001
-8.0720961e-001
-7.7971119e-001
-7.7678812e-001
-7.7666104e-001
-7.9422927e-001
-8.1205285e-001
-8.3065140e-001
-8.4326541e-001
-8.3647263e-001
-8.1311619e-001
-7.5176024e-001
-6.8519229e-001
-6.1101234e-001
-5.6018001e-001
-5.4169422e-001
-5.4570431e-001
-5.7280600e-001
-5.9853446e-001
-6.2290430e-001
-6.4250219e-001
-6.5942395e-001
-6.8116754e-001
-7.0407933e-001
-7.0703781e-001
-7.0054996e-001
-6.2979472e-001
-5.4382068e-001
-4.2366421e-001
-3.0135077e-001
-2.2601990e-001
-1.5065113e-001
-4.9559463e-002
3.3319890e-003
1.0398071e-001
3.1250763e-001
5.7969260e-001
8.1502914e-001
9.5628208e-001
1.0609891e+000
1.0871874e+000
1.0899000e+000
1.0543396e+000
9.9024260e-001
8.9107686e-001
7.6847202e-001
6.2408543e-001
4.7697785e-001
3.2888478e-001
2.5358817e-001
2.1804559e-001
3.1290320e-001
4.5783257e-001
6.1618674e-001
7.7741402e-001
7.7128553e-001
7.3804754e-001
5.5460000e-001
