Image.
>Pix99999.
  .
5555
5555
2300
900
5555
2
1
0
701
5555
1.8502000e-001
1.8887448e-001
1.9271900e-001
1.9657347e-001
2.0041801e-001
2.0427243e-001
2.0811699e-001
2.1197140e-001
2.1581599e-001
2.1967037e-001
2.2351500e-001
2.2735950e-001
2.3121382e-001
2.3505850e-001
2.3891279e-001
2.4275750e-001
2.4661177e-001
2.5045651e-001
2.5431073e-001
2.5815552e-001
2.6200971e-001
2.6585448e-001
2.6970866e-001
2.7355349e-001
2.7740765e-001
2.8125250e-001
1.3235897e-001
4.8835282e-003
-1.1422080e-001
-1.4737289e-001
-1.6786729e-001
-1.2357251e-001
-7.4813515e-002
-3.0219689e-002
1.0805603e-002
2.5057500e-002
2.6511183e-002
-2.4239324e-002
-8.8000700e-002
-1.8283120e-001
-2.6461971e-001
-3.1409022e-001
-3.4152681e-001
-3.3614519e-001
-3.2849273e-001
-3.2052431e-001
-2.9760584e-001
-2.6031089e-001
-1.8870252e-001
-9.2153564e-002
-3.3151999e-002
3.2477558e-003
-7.5139418e-002
-2.0321085e-001
-3.4872848e-001
-4.9886400e-001
-5.3817123e-001
-5.5192274e-001
-5.1093400e-001
-4.6223336e-001
-4.3450227e-001
-4.0957811e-001
-3.9419428e-001
-3.8561180e-001
-4.1080245e-001
-4.5351478e-001
-5.4810989e-001
-6.4744312e-001
-7.4569285e-001
-8.1486052e-001
-8.2910198e-001
-8.1113493e-001
-7.5474185e-001
-7.0805162e-001
-6.7679757e-001
-7.0062429e-001
-7.7170664e-001
-8.6760831e-001
-9.7733802e-001
-1.0230610e+000
-1.0332344e+000
-9.6720105e-001
-8.7057161e-001
-7.5249511e-001
-6.2847042e-001
-5.5874866e-001
-5.0176179e-001
-5.4838991e-001
-6.1260873e-001
-7.0002294e-001
-7.8654772e-001
-8.4198868e-001
-8.9752924e-001
-9.7352099e-001
-1.0547329e+000
-1.1427079e+000
-1.2047595e+000
-1.2077037e+000
-1.1786920e+000
-1.1109091e+000
-1.0397286e+000
-9.7154832e-001
-9.3077505e-001
-9.1791666e-001
-9.5778507e-001
-1.0380105e+000
-1.1199738e+000
-1.1993937e+000
-1.2173355e+000
-1.2029495e+000
-1.1518886e+000
-1.0871974e+000
-1.0170600e+000
-9.4552410e-001
-8.7343967e-001
-8.0213374e-001
-7.7863318e-001
-7.6947719e-001
-8.1297386e-001
-8.6215073e-001
-8.8550627e-001
-8.9949208e-001
-8.9786261e-001
-9.1092920e-001
-9.6943283e-001
-1.0507268e+000
-1.1587881e+000
-1.2634310e+000
-1.3554794e+000
-1.4189667e+000
-1.4514229e+000
-1.4507912e+000
-1.4236155e+000
-1.3951629e+000
-1.3692814e+000
-1.3662565e+000
-1.3774966e+000
-1.3987595e+000
-1.4240137e+000
-1.4381561e+000
-1.4475200e+000
-1.4454669e+000
-1.4398766e+000
-1.4662317e+000
-1.5034034e+000
-1.5755007e+000
-1.6531608e+000
-1.7070410e+000
-1.7420977e+000
-1.7213287e+000
-1.6776786e+000
-1.6067826e+000
-1.5464731e+000
-1.5263512e+000
-1.5438340e+000
-1.6112186e+000
-1.6968000e+000
-1.7910789e+000
-1.8902060e+000
-1.9921725e+000
-2.0527601e+000
-2.0741951e+000
-1.9517924e+000
-1.7251294e+000
-1.4711646e+000
-1.2120564e+000
-1.1951746e+000
-1.3069197e+000
-1.5169600e+000
-1.7627877e+000
-1.8473043e+000
-1.8700632e+000
-1.8091264e+000
-1.7271702e+000
-1.6892657e+000
-1.6830000e+000
-1.7714560e+000
-1.8925755e+000
-2.0279746e+000
-2.1331162e+000
-2.1482344e+000
-2.1307421e+000
-2.1003180e+000
-2.0888150e+000
-2.1123731e+000
-2.0745294e+000
-1.9430312e+000
-1.6763663e+000
-1.2909034e+000
-9.7415096e-001
-7.4676645e-001
-6.8773228e-001
-7.4173009e-001
-8.1301445e-001
-8.8109070e-001
-9.5566583e-001
-1.0343044e+000
-1.1052910e+000
-1.1728072e+000
-1.1435893e+000
-1.0739714e+000
-9.7333980e-001
-8.7173647e-001
-8.4691471e-001
-8.7814879e-001
-1.0257617e+000
-1.2400917e+000
-1.5261189e+000
-1.8083417e+000
-2.0204687e+000
-2.0973902e+000
-1.9672843e+000
-1.6575835e+000
-1.1793280e+000
-7.5311190e-001
-4.6010306e-001
-4.4009286e-001
-6.7006087e-001
-9.7219628e-001
-1.2801394e+000
-1.4734114e+000
-1.5759012e+000
-1.5304171e+000
-1.3963574e+000
-1.1299640e+000
-7.9273534e-001
-6.1905760e-001
-5.4201972e-001
-7.6878762e-001
-1.1307689e+000
-1.4227043e+000
-1.6375440e+000
-1.6120458e+000
-1.4339712e+000
-1.0959214e+000
-7.4631149e-001
-5.5643481e-001
-5.6892067e-001
-8.7098581e-001
-1.2755969e+000
-1.6597114e+000
-1.8843720e+000
-1.8887653e+000
-1.7397084e+000
-1.4940920e+000
-1.2364800e+000
-9.9722570e-001
-7.7692211e-001
-5.6841356e-001
-3.7626976e-001
-1.9480142e-001
-7.9725683e-002
-1.1903401e-002
-5.2246384e-002
-1.5887895e-001
-2.3232915e-001
-2.7545682e-001
-1.8729788e-001
-9.0278126e-003
2.8899586e-001
6.4579457e-001
9.8156416e-001
1.2077446e+000
1.1181991e+000
8.3958089e-001
4.7016850e-001
1.6884091e-001
8.8550985e-002
3.5967130e-002
-1.2361080e-001
-2.4861287e-001
-2.6590031e-001
4.9427316e-002
7.2696602e-001
1.5525248e+000
2.4165106e+000
2.8547914e+000
2.8757524e+000
2.7017412e+000
2.4363804e+000
2.4201801e+000
2.6079633e+000
2.5842323e+000
2.3790367e+000
1.7198309e+000
7.9261738e-001
1.3077253e-001
-2.3610285e-001
1.0511634e-001
1.0550869e+000
2.5246615e+000
4.1048932e+000
5.1991611e+000
5.9561348e+000
6.5417018e+000
7.3376670e+000
8.6993904e+000
1.0852987e+001
1.3876660e+001
1.7513481e+001
2.1511999e+001
2.5101440e+001
2.8019947e+001
3.0657364e+001
3.3211914e+001
3.6527000e+001
4.0631645e+001
4.5222664e+001
5.0123638e+001
5.4191998e+001
5.7524899e+001
6.0957787e+001
6.4553154e+001
6.8746231e+001
7.3354401e+001
7.7735199e+001
8.1883499e+001
8.5732811e+001
8.9304001e+001
9.2626564e+001
9.5686371e+001
9.8466248e+001
1.0077160e+002
1.0238322e+002
1.0274514e+002
1.0143500e+002
9.9026512e+001
9.6111824e+001
9.2958336e+001
8.9761047e+001
8.6047440e+001
8.1677643e+001
7.7075432e+001
7.2417397e+001
6.8025276e+001
6.3939342e+001
5.9706638e+001
5.5278358e+001
5.0863674e+001
4.6492455e+001
4.2413372e+001
3.8652786e+001
3.5366974e+001
3.2567291e+001
3.0217875e+001
2.8283587e+001
2.6583246e+001
2.5129078e+001
2.3903933e+001
2.2927740e+001
2.2192501e+001
2.1679123e+001
2.1329250e+001
2.1124626e+001
2.1027769e+001
2.1078915e+001
2.1295074e+001
2.1721729e+001
2.2369238e+001
2.3318701e+001
2.4586172e+001
2.6098989e+001
2.7819311e+001
2.9447809e+001
3.0917000e+001
3.2225185e+001
3.3378666e+001
3.4775444e+001
3.6512302e+001
3.9029793e+001
4.2287170e+001
4.5247478e+001
4.7748180e+001
4.9438610e+001
5.0447029e+001
5.1494358e+001
5.2573425e+001
5.3657803e+001
5.4390980e+001
5.4234875e+001
5.3261288e+001
5.1707447e+001
4.9954784e+001
4.8434113e+001
4.7123798e+001
4.5995350e+001
4.4887379e+001
4.3696724e+001
4.2131790e+001
4.0029800e+001
3.7695702e+001
3.5204834e+001
3.2853401e+001
3.0731808e+001
2.8332119e+001
2.5548357e+001
2.2731075e+001
1.9929434e+001
1.7582289e+001
1.5734640e+001
1.3887428e+001
1.2040077e+001
1.0180935e+001
8.3407974e+000
6.5957561e+000
4.9461999e+000
3.3506861e+000
1.9201789e+000
8.1300986e-001
1.3939273e-001
3.3081263e-002
5.1573575e-001
1.4775383e+000
2.5082259e+000
3.3192024e+000
3.9197757e+000
4.2907090e+000
4.7161393e+000
5.3400817e+000
6.0669317e+000
6.8963599e+000
7.4327564e+000
7.4870625e+000
7.3249722e+000
6.8730607e+000
6.4120502e+000
5.9418240e+000
5.4852800e+000
5.0613503e+000
4.7078099e+000
4.4333000e+000
4.1639953e+000
3.8904779e+000
3.5824287e+000
3.2821639e+000
3.0934570e+000
3.0499160e+000
3.1800570e+000
3.4490569e+000
3.7941279e+000
4.1413374e+000
4.4063454e+000
4.6156478e+000
4.7852416e+000
4.9770160e+000
5.2400284e+000
5.5513077e+000
5.9202986e+000
6.2891679e+000
6.6402888e+000
6.9111285e+000
7.0311289e+000
7.0424447e+000
6.8680921e+000
6.6389489e+000
6.3222499e+000
5.9582152e+000
5.5364614e+000
5.1216745e+000
4.7318130e+000
4.4032145e+000
4.1331048e+000
3.8539820e+000
3.5523376e+000
3.2059870e+000
2.8223307e+000
2.4268506e+000
2.0193336e+000
1.5956892e+000
1.1824052e+000
8.1237984e-001
4.9442017e-001
2.6596844e-001
8.6721174e-002
-2.9816829e-002
-7.3031604e-002
-7.5824782e-003
1.4907183e-001
4.7787523e-001
7.7790964e-001
9.9389029e-001
1.0651677e+000
8.7733465e-001
6.8011653e-001
4.9041602e-001
4.1995236e-001
5.3822666e-001
7.9298061e-001
1.2121931e+000
1.6695770e+000
2.1236300e+000
2.4348304e+000
2.5852337e+000
2.5872018e+000
2.4844103e+000
2.3674927e+000
2.2529588e+000
2.1689839e+000
2.1097081e+000
2.0819473e+000
2.0786142e+000
2.1126528e+000
2.1619141e+000
2.2279623e+000
2.2935560e+000
2.3510621e+000
2.4000213e+000
2.4268203e+000
2.4434915e+000
2.4391453e+000
2.4458272e+000
2.4786661e+000
2.5425830e+000
2.6573634e+000
2.7792554e+000
2.9110050e+000
3.0474367e+000
3.1979389e+000
3.3893960e+000
3.6301744e+000
3.9156857e+000
4.2481675e+000
4.6283083e+000
5.0469236e+000
5.4974675e+000
5.9502497e+000
6.3560944e+000
6.7228642e+000
7.0172224e+000
7.2738457e+000
7.4720597e+000
7.6196771e+000
7.6386638e+000
7.5902181e+000
7.3651900e+000
7.0995569e+000
6.7311692e+000
6.3526983e+000
5.9516368e+000
5.5563731e+000
5.1719546e+000
4.7872367e+000
4.3985400e+000
3.9892097e+000
3.5497246e+000
3.0940206e+000
2.6225779e+000
2.1604373e+000
1.7103519e+000
1.2775843e+000
8.6024785e-001
4.5614743e-001
6.8975076e-002
-2.7839562e-001
-5.8390379e-001
-7.8845578e-001
-9.3629086e-001
-9.8673463e-001
-1.0048282e+000
-9.8037881e-001
-9.3091798e-001
-8.0310714e-001
-6.4915156e-001
-4.1265190e-001
-1.8082605e-001
3.5087585e-002
2.3635137e-001
4.0120268e-001
5.5567759e-001
6.8656397e-001
7.9246026e-001
8.5072649e-001
8.5542881e-001
7.8253275e-001
6.5315044e-001
4.6697003e-001
2.8786445e-001
1.2737340e-001
3.6897868e-002
7.7403709e-003
5.9751742e-002
1.7353711e-001
4.2772394e-001
7.6579118e-001
1.2626514e+000
1.8078564e+000
2.3792686e+000
2.9213505e+000
3.2834921e+000
3.5976577e+000
3.7438357e+000
3.8781109e+000
3.9744196e+000
4.0712261e+000
4.1692491e+000
4.2659101e+000
4.3567553e+000
4.4269614e+000
4.4595785e+000
4.5052361e+000
4.5815144e+000
4.7398462e+000
5.0074959e+000
5.3499794e+000
5.7663813e+000
6.1984253e+000
6.6340451e+000
7.0113101e+000
7.3377042e+000
7.5480180e+000
7.6896515e+000
7.7123528e+000
7.6912851e+000
7.6344213e+000
7.5776348e+000
7.5797901e+000
7.5935478e+000
7.6365051e+000
7.6774960e+000
7.6972995e+000
7.7212000e+000
7.7654195e+000
7.8392644e+000
8.0095387e+000
8.2140617e+000
8.4958105e+000
8.7356529e+000
8.8881083e+000
8.9326553e+000
8.8205957e+000
8.6891603e+000
8.5435686e+000
8.4745836e+000
8.4734144e+000
8.4725533e+000
8.4622107e+000
8.3505230e+000
8.1674633e+000
7.7914543e+000
7.3160014e+000
6.5712686e+000
5.7573476e+000
4.9776859e+000
4.2427239e+000
3.9494481e+000
3.7133358e+000
3.7155368e+000
3.6937633e+000
3.4933298e+000
3.2526748e+000
2.8346715e+000
2.3997331e+000
1.9112263e+000
1.4048071e+000
8.5849971e-001
3.2653826e-001
-1.7228594e-001
-5.3721082e-001
-7.1438378e-001
-7.3077059e-001
-5.7977831e-001
-3.9429340e-001
-1.8290485e-001
1.8990487e-003
1.6937840e-001
3.1165600e-001
4.4007802e-001
5.1859355e-001
5.7996202e-001
6.2064534e-001
6.5482587e-001
6.4377481e-001
6.2074357e-001
4.4137967e-001
2.5807858e-001
1.0960899e-001
4.8449883e-004
7.4276924e-003
2.3893756e-001
6.4711905e-001
1.0209143e+000
1.2928456e+000
1.5200994e+000
1.6519673e+000
1.7778583e+000
1.8936728e+000
1.9945561e+000
2.0782721e+000
2.2174742e+000
2.4091475e+000
2.6605999e+000
2.9527466e+000
3.1343138e+000
3.2572038e+000
3.3173127e+000
3.3533278e+000
3.3291731e+000
3.2895694e+000
3.2591176e+000
3.2308710e+000
3.6300001e+000
