Image.
>Pix99999.
  .
5555
5555
2300
900
5555
2
1
0
701
5555
6.7822002e-002
6.9232978e-002
7.0643961e-002
7.2054945e-002
7.3465921e-002
7.4876904e-002
7.6287888e-002
7.7698871e-002
7.9109855e-002
8.0520838e-002
8.1931815e-002
8.3342798e-002
8.4753782e-002
8.6164758e-002
8.7575741e-002
8.8986717e-002
9.0397701e-002
9.1808684e-002
9.3219660e-002
9.4629675e-002
9.6040629e-002
9.7451612e-002
9.8862596e-002
1.0027357e-001
1.0168166e-001
1.0309929e-001
2.1686509e-002
7.1526854e-004
-2.3521921e-002
-8.7767318e-003
1.1831667e-002
2.5589826e-002
4.0386725e-002
8.9926660e-002
1.4010189e-001
1.8248750e-001
2.1664223e-001
2.1534914e-001
2.2085430e-001
2.5306851e-001
2.8899658e-001
3.2971507e-001
3.6117539e-001
3.7702408e-001
4.0045953e-001
4.3453285e-001
4.5689452e-001
4.6727476e-001
4.5983520e-001
4.3963560e-001
4.5593286e-001
4.9381089e-001
5.3109807e-001
5.6752253e-001
5.1433641e-001
4.3202043e-001
3.4267360e-001
2.5211045e-001
2.5594583e-001
2.7402890e-001
3.0480230e-001
3.3162117e-001
3.0088982e-001
2.6107979e-001
2.0058343e-001
1.4796978e-001
1.3156781e-001
1.3352501e-001
1.7321554e-001
2.0807153e-001
2.2638699e-001
2.1212731e-001
1.5317303e-001
8.5295819e-002
1.2655742e-002
-2.2164689e-002
-2.3074891e-002
-4.7540609e-003
2.4558667e-002
1.2585251e-002
-2.2517856e-002
-9.8753750e-002
-1.9153820e-001
-2.6452917e-001
-3.3076400e-001
-3.6245170e-001
-3.8614234e-001
-3.9740688e-001
-4.0516588e-001
-3.8309276e-001
-3.5513085e-001
-3.1555161e-001
-2.8394914e-001
-2.9559723e-001
-3.2880944e-001
-4.0796179e-001
-4.9243063e-001
-5.7350010e-001
-6.2737042e-001
-6.3631189e-001
-6.1912858e-001
-5.7620531e-001
-5.6174576e-001
-5.8065122e-001
-6.5971279e-001
-7.8494698e-001
-9.1065568e-001
-1.0326065e+000
-1.0923862e+000
-1.1193186e+000
-1.0968558e+000
-1.0553979e+000
-9.8702043e-001
-9.1044652e-001
-8.4227324e-001
-7.7726901e-001
-7.8479075e-001
-8.1076217e-001
-8.8723511e-001
-9.7163302e-001
-1.0450652e+000
-1.1091619e+000
-1.1457623e+000
-1.1716423e+000
-1.1815954e+000
-1.1873178e+000
-1.1897759e+000
-1.1795404e+000
-1.1529309e+000
-1.1120164e+000
-1.0599471e+000
-1.0294161e+000
-1.0215354e+000
-1.0436420e+000
-1.0849006e+000
-1.1076057e+000
-1.1156731e+000
-1.0813310e+000
-1.0255723e+000
-9.8901147e-001
-9.6261197e-001
-9.9496508e-001
-1.0481631e+000
-1.1184216e+000
-1.1930920e+000
-1.2593222e+000
-1.3191360e+000
-1.3441980e+000
-1.3565108e+000
-1.3460696e+000
-1.3501428e+000
-1.4119626e+000
-1.4994051e+000
-1.6181070e+000
-1.7002439e+000
-1.7130307e+000
-1.6810588e+000
-1.6094998e+000
-1.5497434e+000
-1.5102409e+000
-1.4656343e+000
-1.4102939e+000
-1.2847117e+000
-1.1056031e+000
-9.3946046e-001
-7.8808093e-001
-8.1660855e-001
-9.4087034e-001
-1.1362400e+000
-1.3580509e+000
-1.4741585e+000
-1.5499984e+000
-1.5506005e+000
-1.5290147e+000
-1.4944943e+000
-1.4612501e+000
-1.4622331e+000
-1.4728209e+000
-1.5028423e+000
-1.5251505e+000
-1.5172685e+000
-1.4986905e+000
-1.4682441e+000
-1.4501418e+000
-1.4488903e+000
-1.4278964e+000
-1.3698748e+000
-1.2224240e+000
-9.9337912e-001
-7.8527391e-001
-6.2221617e-001
-5.9920585e-001
-6.7455292e-001
-7.8860730e-001
-9.1298252e-001
-1.0325679e+000
-1.1499720e+000
-1.2408168e+000
-1.3217319e+000
-1.2691921e+000
-1.1607000e+000
-9.8625094e-001
-8.0068672e-001
-7.2492689e-001
-7.1593815e-001
-8.2642287e-001
-9.8076528e-001
-1.1361095e+000
-1.2753583e+000
-1.3696920e+000
-1.4220099e+000
-1.4114869e+000
-1.3273543e+000
-1.1554701e+000
-9.5205754e-001
-7.5991273e-001
-6.6187090e-001
-6.7466962e-001
-7.5041062e-001
-8.5086668e-001
-9.3022430e-001
-9.8204392e-001
-9.9764550e-001
-9.8602659e-001
-9.5574921e-001
-9.0920925e-001
-9.4120145e-001
-1.0100653e+000
-1.1459543e+000
-1.3105412e+000
-1.4085171e+000
-1.4631630e+000
-1.4084314e+000
-1.2640220e+000
-9.8635924e-001
-6.6238296e-001
-4.0130493e-001
-2.8076440e-001
-4.0130740e-001
-6.4727008e-001
-9.3026972e-001
-1.1487041e+000
-1.2466475e+000
-1.2456267e+000
-1.1773137e+000
-1.0547200e+000
-8.9820141e-001
-7.2647995e-001
-5.4214650e-001
-4.0021843e-001
-2.9235214e-001
-2.1102163e-001
-1.5339801e-001
-9.6141897e-002
-4.8503499e-002
-1.8186444e-002
-9.9531026e-004
5.2508533e-002
1.3262320e-001
2.8640670e-001
4.6544001e-001
5.8769399e-001
6.2710595e-001
4.5755810e-001
2.1459098e-001
1.8315293e-002
-7.0973784e-002
3.2883778e-002
4.0169373e-002
-4.5651518e-002
-1.0354125e-001
-1.3126028e-001
1.3026282e-002
3.6483520e-001
8.0880022e-001
1.2762079e+000
1.4691263e+000
1.3776186e+000
1.1252823e+000
7.9193056e-001
7.0612001e-001
8.3178544e-001
9.8552752e-001
1.1251067e+000
9.1803688e-001
4.7636485e-001
1.1530530e-001
-1.2731327e-001
8.3786517e-002
7.3136997e-001
1.7924072e+000
3.0031254e+000
3.9544930e+000
4.6904764e+000
5.2889881e+000
6.0306902e+000
7.2064080e+000
9.1119432e+000
1.1876198e+001
1.5449027e+001
1.9622999e+001
2.3506680e+001
2.6765808e+001
2.9602137e+001
3.2209190e+001
3.5494244e+001
3.9522739e+001
4.4239674e+001
4.9445400e+001
5.3902447e+001
5.7668800e+001
6.1391369e+001
6.5173576e+001
6.9589340e+001
7.4480446e+001
7.9310303e+001
8.4008820e+001
8.8373642e+001
9.2378014e+001
9.5964371e+001
9.9078743e+001
1.0165987e+002
1.0352540e+002
1.0448929e+002
1.0431178e+002
1.0279750e+002
1.0043345e+002
9.7737686e+001
9.4737000e+001
9.1520477e+001
8.7696213e+001
8.3161758e+001
7.8476006e+001
7.3841934e+001
6.9456688e+001
6.5346352e+001
6.1079239e+001
5.6615875e+001
5.2247112e+001
4.7998013e+001
4.4030716e+001
4.0363483e+001
3.7143429e+001
3.4376041e+001
3.2038364e+001
3.0101557e+001
2.8399246e+001
2.6956676e+001
2.5780647e+001
2.4878845e+001
2.4223499e+001
2.3785532e+001
2.3490623e+001
2.3332420e+001
2.3282011e+001
2.3368729e+001
2.3609377e+001
2.3998730e+001
2.4529768e+001
2.5242636e+001
2.6140343e+001
2.7251886e+001
2.8559029e+001
2.9908188e+001
3.1257721e+001
3.2499573e+001
3.3627926e+001
3.4926098e+001
3.6485085e+001
3.8795563e+001
4.1868942e+001
4.4826221e+001
4.7481838e+001
4.9364914e+001
5.0534737e+001
5.1598072e+001
5.2531353e+001
5.3312462e+001
5.3719898e+001
5.3358337e+001
5.2308056e+001
5.0802639e+001
4.9077251e+001
4.7488731e+001
4.6002914e+001
4.4586399e+001
4.3072773e+001
4.1336617e+001
3.9330326e+001
3.6966839e+001
3.4628784e+001
3.2452038e+001
3.0363321e+001
2.8408611e+001
2.6059717e+001
2.3191729e+001
2.0311319e+001
1.7456657e+001
1.5104723e+001
1.3315451e+001
1.1593000e+001
9.9478302e+000
8.3035879e+000
6.6964016e+000
5.1769133e+000
3.7794631e+000
2.5300641e+000
1.4663063e+000
6.5734655e-001
1.5752229e-001
2.7078196e-002
3.6475512e-001
1.1369934e+000
2.0757360e+000
2.9766746e+000
3.7279286e+000
4.2834206e+000
4.8318782e+000
5.4714146e+000
6.1466842e+000
6.8368001e+000
7.3010545e+000
7.3773503e+000
7.3050699e+000
7.0250473e+000
6.7190895e+000
6.3769202e+000
5.9942517e+000
5.5762410e+000
5.1707344e+000
4.7996016e+000
4.4372315e+000
4.0987897e+000
3.7805429e+000
3.5005581e+000
3.3319092e+000
3.2838891e+000
3.3612685e+000
3.5520711e+000
3.8013425e+000
4.0936518e+000
4.4021950e+000
4.7013202e+000
5.0112915e+000
5.3074450e+000
5.5834765e+000
5.8386512e+000
6.0421100e+000
6.2302437e+000
6.3934402e+000
6.5304928e+000
6.6090074e+000
6.6343474e+000
6.5381498e+000
6.3886685e+000
6.1484604e+000
5.8671551e+000
5.5314698e+000
5.1778131e+000
4.8115239e+000
4.4446087e+000
4.0976682e+000
3.7633021e+000
3.4371541e+000
3.1108422e+000
2.7504034e+000
2.3329093e+000
1.8730674e+000
1.3730235e+000
8.9791548e-001
5.2505958e-001
2.3910972e-001
9.5463246e-002
2.0268787e-002
1.5128238e-002
5.5356964e-002
1.4786839e-001
2.8860661e-001
5.2747381e-001
7.6455951e-001
9.7635484e-001
1.1339024e+000
1.1573892e+000
1.1746010e+000
1.1863502e+000
1.2443621e+000
1.3924186e+000
1.5949653e+000
1.8774040e+000
2.1776586e+000
2.4801400e+000
2.7113073e+000
2.8483801e+000
2.8946340e+000
2.8604794e+000
2.8020921e+000
2.7293880e+000
2.6599429e+000
2.5977724e+000
2.5406845e+000
2.4980857e+000
2.4790876e+000
2.4824839e+000
2.5258684e+000
2.5828519e+000
2.6573172e+000
2.7179561e+000
2.7339876e+000
2.7366571e+000
2.7114339e+000
2.7128987e+000
2.7759919e+000
2.8818252e+000
3.0623703e+000
3.2564483e+000
3.4666178e+000
3.6837287e+000
3.9078324e+000
4.1502438e+000
4.4141345e+000
4.6968226e+000
5.0060005e+000
5.3607421e+000
5.7588191e+000
6.2122908e+000
6.6886997e+000
7.1434093e+000
7.5613160e+000
7.8786836e+000
8.1404390e+000
8.3116007e+000
8.4348392e+000
8.4590359e+000
8.4196424e+000
8.2072697e+000
7.9448118e+000
7.5536380e+000
7.1544394e+000
6.7346668e+000
6.3068419e+000
5.8599515e+000
5.3950052e+000
4.9028645e+000
4.4141765e+000
3.9306948e+000
3.4519548e+000
2.9777739e+000
2.5057402e+000
2.0406332e+000
1.5973389e+000
1.1744521e+000
7.6977402e-001
3.8130325e-001
1.7195106e-002
-3.2455862e-001
-6.1880356e-001
-8.8553429e-001
-1.1034505e+000
-1.2890248e+000
-1.3856013e+000
-1.4361401e+000
-1.3476400e+000
-1.2359997e+000
-1.0689560e+000
-9.1334748e-001
-7.9213107e-001
-6.4697403e-001
-4.3800712e-001
-1.7860332e-001
1.7150372e-001
4.7212273e-001
6.7612398e-001
7.5739324e-001
6.7493737e-001
5.4217780e-001
3.6282322e-001
2.1219531e-001
9.4360009e-002
2.9282290e-002
9.1738570e-003
4.4874087e-002
1.2225479e-001
2.5581858e-001
4.2768750e-001
6.8937904e-001
9.8822194e-001
1.3553531e+000
1.7348044e+000
2.1153080e+000
2.4856610e+000
2.7997630e+000
3.0904381e+000
3.2851493e+000
3.4493859e+000
3.5137994e+000
3.5381498e+000
3.4628029e+000
3.3665297e+000
3.2397668e+000
3.1872861e+000
3.2658572e+000
3.4824519e+000
3.8789999e+000
4.3734188e+000
4.9673505e+000
5.6025028e+000
6.2581644e+000
6.8362188e+000
7.3391724e+000
7.6294413e+000
7.8064628e+000
7.8527198e+000
7.8569326e+000
7.8676543e+000
7.8720155e+000
7.8231997e+000
7.7572479e+000
7.6175866e+000
7.4853721e+000
7.4252648e+000
7.3912969e+000
7.4719458e+000
7.5678015e+000
7.7136459e+000
7.8771224e+000
8.0836391e+000
8.3028727e+000
8.5370855e+000
8.6958733e+000
8.7330074e+000
8.6378098e+000
8.3917351e+000
8.1203079e+000
7.8297148e+000
7.5623965e+000
7.3022466e+000
6.9482718e+000
6.5318627e+000
5.9781666e+000
5.3651867e+000
4.6873260e+000
4.0008688e+000
3.4108152e+000
2.8584175e+000
2.5452120e+000
2.2577357e+000
2.0364575e+000
1.7983170e+000
1.4406823e+000
1.0745015e+000
6.7022645e-001
2.6630759e-001
-1.3671207e-001
-5.2803338e-001
-8.8869631e-001
-1.1791322e+000
-1.3412691e+000
-1.4035263e+000
-1.3291939e+000
-1.2008345e+000
-1.0182840e+000
-8.5279977e-001
-7.0327675e-001
-5.9493887e-001
-5.1027626e-001
-4.1479498e-001
-3.1339470e-001
-1.9524322e-001
-7.5295657e-002
-1.9587077e-002
1.9455191e-002
1.6587563e-003
-2.2855802e-002
-4.0775731e-002
-5.4781377e-002
-1.6163357e-002
1.3904572e-003
4.3432139e-002
1.3191313e-001
2.5270790e-001
3.8331485e-001
5.4306746e-001
6.9756025e-001
8.4018207e-001
9.5433801e-001
1.0237350e+000
1.1144440e+000
1.2309232e+000
1.3177148e+000
1.3756800e+000
1.3609514e+000
1.2960567e+000
1.3399737e+000
1.4435149e+000
1.6450734e+000
1.8861507e+000
2.0609114e+000
2.2205732e+000
2.4706590e+000
2.7362835e+000
3.2140999e+000
