##TITLE=Methyl Ethyl Ketone
##JCAMP-DX=4.24
##DATA TYPE=INFRARED SPECTRUM
##XUNITS=cm-1
##YUNITS=Absorbance
##FIRSTX=900
##LASTX=2300
##XYDATA=(X++(Y..Y))
2296 0.001945
2294 0.0019854424
2292 0.002025984
2290 0.0020664264
2288 0.0021068687
2286 0.0021473109
2284 0.0021878518
2282 0.0022282952
2280 0.0022688359
2278 0.0023091806
2276 0.0023497201
2274 0.0023901637
2272 0.0024306057
2270 0.0024710479
2268 0.0025114899
2266 0.0025520299
2264 0.0025924742
2262 0.002633014
2260 0.0026733612
2258 0.002713898
2256 0.0027542457
2254 0.002794879
2252 0.0028353271
2250 0.0028757693
2248 0.0029162115
2246 0.0029566537
2244 0.033138759
2242 0.0013231157
2240 -0.035656322
2238 -0.077620551
2236 -0.12026872
2234 -0.17020109
2232 -0.21942857
2230 -0.24086101
2228 -0.25621462
2226 -0.2336275
2224 -0.21561977
2222 -0.22723122
2220 -0.2521781
2218 -0.31276727
2216 -0.37101173
2214 -0.4197351
2212 -0.44841939
2210 -0.4453302
2208 -0.43235919
2206 -0.40953007
2204 -0.41804487
2202 -0.45741695
2200 -0.50575614
2198 -0.55930209
2196 -0.538445
2194 -0.47448707
2192 -0.35609889
2190 -0.21510367
2188 -0.12663235
2186 -0.055731222
2184 -0.07969556
2182 -0.12523971
2180 -0.19991763
2178 -0.27818525
2176 -0.30816001
2174 -0.32940134
2172 -0.30196315
2170 -0.26584131
2168 -0.20624582
2166 -0.15023357
2164 -0.11558995
2162 -0.10280797
2160 -0.14059383
2158 -0.18800251
2156 -0.243958
2154 -0.27640045
2152 -0.2735168
2150 -0.25414643
2148 -0.22034806
2146 -0.19244036
2144 -0.17106068
2142 -0.1441125
2140 -0.11278566
2138 -0.071225047
2136 -0.024349457
2134 0.037801042
2132 0.10607582
2130 0.18800491
2128 0.27408639
2126 0.34471366
2124 0.41172084
2122 0.48589003
2120 0.5615471
2118 0.64304709
2116 0.71574998
2114 0.71615171
2112 0.68800986
2110 0.57947665
2108 0.45422551
2106 0.31407607
2104 0.17829606
2102 0.057128388
2100 -0.048908561
2098 -0.13310184
2096 -0.18840429
2094 -0.20995764
2092 -0.21713546
2090 -0.21452151
2088 -0.2253051
2086 -0.24854849
2084 -0.2748805
2082 -0.30219796
2080 -0.30804071
2078 -0.30237934
2076 -0.24101572
2074 -0.15703008
2072 -0.011409759
2070 0.15343374
2068 0.29443258
2066 0.42747915
2064 0.46080816
2062 0.47002104
2060 0.4279263
2058 0.37707049
2056 0.33356056
2054 0.29925933
2052 0.29381469
2050 0.31004074
2048 0.36850622
2046 0.43743107
2044 0.51117605
2042 0.55514812
2040 0.55163032
2038 0.49584362
2036 0.38677856
2034 0.24264202
2032 0.074211806
2030 -0.087660186
2028 -0.24030878
2026 -0.33918473
2024 -0.40412006
2022 -0.39151686
2020 -0.34090889
2018 -0.30139914
2016 -0.26912999
2014 -0.34101012
2012 -0.44853529
2010 -0.54562938
2008 -0.63479656
2006 -0.64331853
2004 -0.63163733
2002 -0.62018245
2000 -0.60722107
1998 -0.58404237
1996 -0.54788929
1994 -0.47815964
1992 -0.411138
1990 -0.3722868
1988 -0.35814962
1986 -0.379565
1984 -0.4073061
1982 -0.43199041
1980 -0.4572714
1978 -0.48222911
1976 -0.48645601
1974 -0.4705168
1972 -0.36902463
1970 -0.20441325
1968 -0.027686641
1966 0.14922544
1964 0.16250491
1962 0.088293537
1960 -0.084325358
1958 -0.29550835
1956 -0.46347728
1954 -0.61367929
1952 -0.71440476
1950 -0.79757375
1948 -0.84771395
1946 -0.88489252
1944 -0.91152656
1942 -0.93458682
1940 -0.96979606
1938 -1.0132235
1936 -1.0715001
1934 -1.1309994
1932 -1.1793261
1930 -1.2190657
1928 -1.2454382
1926 -1.2334957
1924 -1.1734238
1922 -1.0140096
1920 -0.76338047
1918 -0.50223911
1916 -0.25619799
1914 -0.10113922
1912 -0.012409925
1910 0.015450992
1908 0.013640852
1906 -0.076640621
1904 -0.2136416
1902 -0.35580805
1900 -0.49919182
1898 -0.47689128
1896 -0.38213286
1894 -0.18220192
1892 0.041572489
1890 0.14352851
1888 0.1495112
1886 -0.063307852
1884 -0.36767572
1882 -0.704243
1880 -1.0019509
1878 -1.1785421
1876 -1.24761
1874 -1.1879773
1872 -1.0052854
1870 -0.69678962
1868 -0.36765155
1866 -0.070773914
1864 0.045084059
1862 -0.028519668
1860 -0.2132057
1858 -0.45031047
1856 -0.6568917
1854 -0.82687116
1852 -0.91409385
1850 -0.94696301
1848 -0.88150519
1846 -0.75907147
1844 -0.69562048
1842 -0.66641432
1840 -0.77509356
1838 -0.94543064
1836 -1.0636472
1834 -1.137447
1832 -1.0806446
1830 -0.93755883
1828 -0.70161963
1826 -0.45790601
1824 -0.31935984
1822 -0.31738248
1820 -0.51211262
1818 -0.77975076
1816 -1.0312508
1814 -1.1938514
1812 -1.2323211
1810 -1.1894742
1808 -1.100468
1806 -0.96446097
1804 -0.79465324
1802 -0.60935581
1800 -0.41424364
1798 -0.25613981
1796 -0.12825772
1794 0.014666714
1792 0.16697656
1790 0.30630291
1788 0.43008912
1786 0.46767935
1784 0.45087728
1782 0.4041003
1780 0.34732443
1778 0.35047841
1776 0.40210372
1774 0.5261119
1772 0.65362787
1770 0.65399551
1768 0.55813116
1766 0.36585107
1764 0.18450299
1762 0.12514764
1760 0.047030173
1758 -0.13953318
1756 -0.28457171
1754 -0.31078658
1752 -0.063533574
1750 0.47282374
1748 1.1120069
1746 1.7622678
1744 2.0328102
1742 1.9295841
1740 1.6669234
1738 1.3378142
1736 1.31294
1734 1.5362232
1732 1.693766
1730 1.7679641
1728 1.4145503
1726 0.78547585
1724 0.27441454
1722 -0.078061551
1720 0.10481764
1718 0.78980738
1716 1.8863671
1714 3.0767336
1712 3.9093807
1710 4.5011301
1708 5.0000997
1706 5.7228489
1704 6.9760451
1702 8.9867449
1700 11.83412
1698 15.328038
1696 19.230286
1694 22.759069
1692 25.641752
1690 28.217155
1688 30.684566
1686 33.957615
1684 38.072029
1682 42.859623
1680 48.114399
1678 52.544849
1676 56.226559
1674 59.949047
1672 63.801594
1670 68.354279
1668 73.409958
1666 78.283844
1664 82.93026
1662 87.175819
1660 91.049896
1658 94.605614
1656 97.842941
1654 100.77838
1652 103.211
1650 104.9163
1648 105.34737
1646 104.08108
1644 101.72017
1642 98.877449
1640 95.778343
1638 92.608246
1636 88.848358
1634 84.342255
1632 79.565651
1630 74.714531
1628 70.168198
1626 65.981934
1624 61.69416
1622 57.25021
1620 52.823917
1618 48.439781
1616 44.298798
1614 40.42786
1612 37.017906
1610 34.085499
1608 31.634731
1606 29.629606
1604 27.876017
1602 26.379385
1600 25.102766
1598 24.069159
1596 23.280499
1594 22.736141
1592 22.397154
1590 22.228958
1588 22.172527
1586 22.225693
1584 22.37883
1582 22.6838
1580 23.164272
1578 23.936964
1576 25.035
1574 26.386021
1572 27.943157
1570 29.37845
1568 30.61632
1566 31.682894
1564 32.590382
1562 33.779854
1560 35.366852
1558 37.878468
1556 41.305401
1554 44.565182
1552 47.448589
1550 49.391075
1548 50.500973
1546 51.550644
1544 52.533863
1542 53.451748
1540 53.969101
1538 53.552299
1536 52.322113
1534 50.583076
1532 48.727791
1530 47.225342
1528 45.991302
1526 44.944199
1524 43.819645
1522 42.441982
1520 40.737644
1518 38.62624
1516 36.506283
1514 34.510906
1512 32.554718
1510 30.652029
1508 28.245409
1506 25.181664
1504 22.06476
1502 18.946144
1500 16.389891
1498 14.466701
1496 12.630571
1494 10.895342
1492 9.1932888
1490 7.5460448
1488 5.9610119
1486 4.4406695
1484 2.9632339
1482 1.6357262
1480 0.63544118
1478 0.060088083
1476 0.019718915
1474 0.52598083
1472 1.4572428
1470 2.445755
1468 3.2171822
1466 3.7991579
1464 4.2056975
1462 4.6748853
1460 5.3372507
1458 6.0899887
1456 6.92098
1454 7.4945002
1452 7.632195
1450 7.5472231
1448 7.1551828
1446 6.7446251
1444 6.3160596
1442 5.914166
1440 5.556335
1438 5.2305741
1436 4.9311299
1434 4.5617433
1432 4.1198554
1430 3.6382883
1428 3.1705301
1426 2.8633542
1424 2.7535012
1422 2.8695731
1420 3.1792059
1418 3.6079407
1416 4.0493517
1414 4.3783183
1412 4.5973616
1410 4.7066483
1408 4.8038611
1406 4.9539013
1404 5.1763635
1402 5.5025964
1400 5.8615522
1398 6.2464051
1396 6.5497141
1394 6.6895194
1392 6.7177382
1390 6.5441804
1388 6.3182902
1386 6.0099201
1384 5.6810589
1382 5.3319526
1380 5.0048227
1378 4.7144098
1376 4.4564171
1374 4.237381
1372 4.013628
1370 3.7702243
1368 3.4825938
1366 3.1306672
1364 2.7060249
1362 2.2299395
1360 1.7203023
1358 1.2307019
1356 0.82615829
1354 0.49024832
1352 0.25699532
1350 0.080247827
1348 -0.025476981
1346 -0.053138051
1344 0.032420464
1342 0.1899458
1340 0.4791621
1338 0.73702359
1336 0.90852058
1334 0.98014331
1332 0.8578946
1330 0.74498051
1328 0.65946883
1326 0.65898395
1324 0.79537284
1322 1.0051683
1320 1.3150001
1318 1.663905
1316 2.03637
1314 2.3500078
1312 2.5719039
1310 2.6642818
1308 2.6455483
1306 2.5698764
1304 2.4735417
1302 2.4102859
1300 2.3739967
1298 2.3678803
1296 2.3710713
1294 2.3665786
1292 2.365489
1290 2.3751771
1288 2.3966241
1286 2.4433892
1284 2.48298
1282 2.4960225
1280 2.4942098
1278 2.460505
1276 2.4381428
1274 2.4461341
1272 2.4943366
1270 2.6159687
1268 2.7785754
1266 2.9976935
1264 3.2365224
1262 3.498004
1260 3.77387
1258 4.0678954
1256 4.3809657
1254 4.7158947
1252 5.0791082
1250 5.4705114
1248 5.9007444
1246 6.3515
1244 6.8032517
1242 7.236927
1240 7.6061177
1238 7.9213562
1236 8.1184731
1234 8.2437878
1232 8.2079964
1230 8.1119776
1228 7.8736577
1226 7.6060863
1224 7.2647266
1222 6.9057479
1220 6.5019026
1218 6.0706878
1216 5.5836887
1214 5.0761523
1212 4.5394359
1210 4.0186329
1208 3.5194407
1206 3.0254886
1204 2.533596
1202 2.0277052
1200 1.5181366
1198 1.0466979
1196 0.61551785
1194 0.23955192
1192 -0.093900844
1190 -0.38028002
1188 -0.63086826
1186 -0.81919968
1184 -0.98379892
1182 -1.1345751
1180 -1.2761329
1178 -1.3916204
1176 -1.46912
1174 -1.4057852
1172 -1.303744
1170 -1.0855503
1168 -0.86701828
1166 -0.65037692
1164 -0.44818872
1162 -0.28337529
1160 -0.139992
1158 -0.039360974
1156 0.049089346
1154 0.11889184
1152 0.18897188
1150 0.25339341
1148 0.28046161
1146 0.26120856
1144 0.19779018
1142 0.103007
1140 0.037825145
1138 0.0086537488
1136 0.067008197
1134 0.1854838
1132 0.40840453
1130 0.67984009
1128 0.99694419
1126 1.3324914
1124 1.7007064
1122 2.0857806
1120 2.5289719
1118 2.9678416
1116 3.3537371
1114 3.7045598
1112 3.9120188
1110 4.1025486
1108 4.2420659
1106 4.4012203
1104 4.6074424
1102 4.8112698
1100 5.0050182
1098 5.1550055
1096 5.2440286
1094 5.3722348
1092 5.5671697
1090 5.9041829
1088 6.3856382
1086 6.9250841
1084 7.4979887
1082 7.9969225
1080 8.4382582
1078 8.7784147
1076 9.049758
1074 9.1524782
1072 9.1726398
1070 8.9951706
1068 8.7755356
1066 8.5671158
1064 8.3868198
1062 8.4045286
1060 8.4531717
1058 8.6374788
1056 8.8142691
1054 8.9557705
1052 9.0662041
1050 9.0802488
1048 9.1109543
1046 9.187665
1044 9.3313513
1042 9.5940275
1040 9.8233995
1038 9.9910135
1036 10.0178
1034 9.8780241
1032 9.6579313
1030 9.3673658
1028 9.0770102
1026 8.7890234
1024 8.5226212
1022 8.2646322
1020 7.9787855
1018 7.6673217
1016 7.1971941
1014 6.6708145
1012 5.9933767
1010 5.2946758
1008 4.6435523
1006 4.0122333
1004 3.5672269
1002 3.1379569
1000 2.8043718
998 2.4581749
996 2.0550642
994 1.631873
992 1.1478293
990 0.68586826
988 0.27810523
986 -0.063922331
984 -0.28799134
982 -0.44862676
980 -0.52374423
978 -0.58643973
976 -0.63827002
974 -0.7196967
972 -0.82250267
970 -0.88633007
968 -0.92133504
966 -0.86469001
964 -0.76949936
962 -0.73135072
960 -0.71574187
958 -0.78147566
956 -0.85764974
954 -0.77339631
952 -0.66409755
950 -0.41558325
948 -0.17054971
946 -0.056213036
944 -0.00065053627
942 -0.021538042
940 -0.099584319
938 -0.18090031
936 -0.24535514
934 -0.25875169
932 -0.21669844
930 -0.054779902
928 0.1848425
926 0.54832047
924 0.90657359
922 1.2572589
920 1.5279738
918 1.723985
916 1.8879186
914 2.0300968
912 2.2555914
910 2.5271649
908 2.943562
906 3.4165542
904 3.8574812
902 4.2900448
900 4.486856
898 4.6459289
896 4.6662998
