##TITLE=Methyl Ethyl Ketone
##JCAMP-DX=4.24
##DATA TYPE=INFRARED SPECTRUM
##XUNITS=cm-1
##YUNITS=Absorbance
##FIRSTX=900
##LASTX=2300
##XYDATA=(X++(Y..Y))
2296 -0.050716002
2294 -0.051793456
2292 -0.052870914
2290 -0.053948376
2288 -0.055025835
2286 -0.056104284
2284 -0.057181749
2282 -0.058259211
2280 -0.05933667
2278 -0.060413137
2276 -0.061491571
2274 -0.062571011
2272 -0.06364654
2270 -0.064715132
2268 -0.065801241
2266 -0.066912152
2264 -0.067957111
2262 -0.068909883
2260 -0.070107989
2258 -0.071650825
2256 -0.072280712
2254 -0.071624815
2252 -0.074366361
2250 -0.081897192
2248 -0.076803803
2246 -0.044354785
2244 -0.0016030857
2242 0.0285227
2240 0.035370361
2238 0.020249769
2236 0.018446999
2234 0.064866647
2232 0.15399361
2230 0.26646176
2228 0.37434593
2226 0.45175147
2224 0.49063766
2222 0.48978382
2220 0.45436433
2218 0.39239672
2216 0.31608087
2214 0.24065804
2212 0.1886666
2210 0.18248579
2208 0.23501304
2206 0.34809408
2204 0.49062428
2202 0.62241757
2200 0.7072618
2198 0.72047675
2196 0.67859572
2194 0.61262733
2192 0.5602386
2190 0.55244631
2188 0.5858689
2186 0.64764303
2184 0.73111844
2182 0.83177203
2180 0.94469935
2178 1.0592282
2176 1.1420429
2174 1.1622276
2172 1.130324
2170 1.07341
2168 1.0297583
2166 1.0330664
2164 1.0837048
2162 1.1688389
2160 1.2674954
2158 1.3565258
2156 1.41497
2154 1.4278682
2152 1.4007989
2150 1.34744
2148 1.2861543
2146 1.2318321
2144 1.1788542
2142 1.11703
2140 1.0443457
2138 0.9663617
2136 0.90644634
2134 0.88939887
2132 0.92047501
2130 0.99372536
2128 1.086952
2126 1.1770321
2124 1.2621063
2122 1.3489498
2120 1.4481902
2118 1.5665157
2116 1.6883014
2114 1.7906519
2112 1.8548456
2110 1.8676294
2108 1.8321266
2106 1.7598636
2104 1.6721742
2102 1.5937423
2100 1.548184
2098 1.5507423
2096 1.5857857
2094 1.6245161
2092 1.6324919
2090 1.582752
2088 1.4867435
2086 1.3718801
2084 1.2707157
2082 1.2112403
2080 1.1980412
2078 1.2250459
2076 1.2805185
2074 1.351745
2072 1.42808
2070 1.4996871
2068 1.554464
2066 1.5814528
2064 1.5768405
2062 1.5426353
2060 1.4931152
2058 1.445971
2056 1.4148171
2054 1.41
2052 1.4378265
2050 1.5005757
2048 1.5915297
2046 1.6972964
2044 1.7925321
2042 1.8525025
2040 1.8760731
2038 1.8731637
2036 1.8566543
2034 1.8380809
2032 1.8197509
2030 1.8047171
2028 1.8170395
2026 1.8833151
2024 2.0004647
2022 2.1445365
2020 2.2618339
2018 2.2980058
2016 2.2502401
2014 2.1477203
2012 2.053118
2010 2.0296278
2008 2.0843766
2006 2.1919816
2004 2.3010621
2002 2.359977
2000 2.3592119
1998 2.313658
1996 2.2537
1994 2.2105403
1992 2.1917315
1990 2.1924727
1988 2.2048099
1986 2.2227929
1984 2.2531898
1982 2.3073981
1980 2.3895791
1978 2.4953873
1976 2.6022942
1974 2.6824789
1972 2.7231026
1970 2.722245
1968 2.6916983
1966 2.6471021
1964 2.594348
1962 2.535562
1960 2.4794002
1958 2.4374502
1956 2.4192142
1954 2.4298275
1952 2.4618824
1950 2.50124
1948 2.5326157
1946 2.5421751
1944 2.5239115
1942 2.4790969
1940 2.4240417
1938 2.3805983
1936 2.3619087
1934 2.372839
1932 2.404562
1930 2.443543
1928 2.4848125
1926 2.52773
1924 2.5670295
1922 2.5933695
1920 2.5912542
1918 2.5483692
1916 2.4799042
1914 2.4145989
1912 2.3736513
1910 2.3673522
1908 2.3814116
1906 2.390945
1904 2.3822601
1902 2.3527625
1900 2.3166959
1898 2.2951632
1896 2.3009143
1894 2.3353677
1892 2.3738518
1890 2.3815889
1888 2.3418536
1886 2.2569122
1884 2.1610453
1882 2.0989125
1880 2.0835457
1878 2.1030207
1876 2.12515
1874 2.1143041
1872 2.0635285
1870 1.9874818
1868 1.9165382
1866 1.8826507
1864 1.8920881
1862 1.9320511
1860 1.9769217
1858 1.9990892
1856 1.9893544
1854 1.9526492
1852 1.9033645
1850 1.8576304
1848 1.817788
1846 1.7777464
1844 1.7345349
1842 1.6899955
1840 1.6557434
1838 1.6456617
1836 1.6580229
1834 1.679677
1832 1.6933841
1830 1.6848584
1828 1.6589955
1826 1.6336215
1824 1.6275572
1822 1.6537327
1820 1.7029999
1818 1.7509406
1816 1.7692543
1814 1.7341144
1812 1.6466234
1810 1.5276872
1808 1.4123337
1806 1.335395
1804 1.29634
1802 1.2705803
1800 1.2354902
1798 1.1789925
1796 1.1172286
1794 1.0807264
1792 1.07934
1790 1.104756
1788 1.1391363
1786 1.16248
1784 1.1656189
1782 1.1485217
1780 1.1167423
1778 1.07757
1776 1.0341142
1774 0.98495793
1772 0.92380971
1770 0.84186631
1768 0.73245984
1766 0.59302109
1764 0.4309766
1762 0.25794184
1760 0.073072113
1758 -0.12579043
1756 -0.30124041
1754 -0.39679772
1752 -0.40634692
1750 -0.36749589
1748 -0.33124858
1746 -0.34454679
1744 -0.4160125
1742 -0.52208763
1740 -0.62423605
1738 -0.68412572
1736 -0.69742203
1734 -0.68636566
1732 -0.67354751
1730 -0.67162991
1728 -0.66336805
1726 -0.61213678
1724 -0.4946059
1722 -0.30879149
1720 -0.089850403
1718 0.11476369
1716 0.32493401
1714 0.60105491
1712 0.92954248
1710 1.2488265
1708 1.58347
1706 2.0431986
1704 2.7727304
1702 3.9425611
1700 5.7705154
1698 8.4291849
1696 11.710029
1694 15.11847
1692 18.275419
1690 21.022886
1688 23.569611
1686 26.366293
1684 29.707729
1682 33.623543
1680 37.695843
1678 41.277359
1676 44.259743
1674 47.041557
1672 50.037979
1670 53.522663
1668 57.427326
1666 61.427349
1664 65.296638
1662 68.945435
1660 72.317665
1658 75.377686
1656 78.150459
1654 80.717407
1652 83.184456
1650 85.625648
1648 87.900414
1646 89.706963
1644 90.887848
1642 91.457191
1640 91.482872
1638 91.03791
1636 90.12896
1634 88.711143
1632 86.79229
1630 84.430252
1628 81.647659
1626 78.43354
1624 74.813362
1622 70.865044
1620 66.722969
1618 62.557396
1616 58.502602
1614 54.64735
1612 51.062153
1610 47.794922
1608 44.828674
1606 42.097679
1604 39.571125
1602 37.26762
1600 35.22757
1598 33.491749
1596 32.0495
1594 30.837593
1592 29.788811
1590 28.852814
1588 28.023893
1586 27.336329
1584 26.817194
1582 26.477951
1580 26.338343
1578 26.425787
1576 26.760344
1574 27.342875
1572 28.115049
1570 28.967436
1568 29.818239
1566 30.634943
1564 31.432192
1562 32.296268
1560 33.491314
1558 35.381321
1556 37.954498
1554 40.764301
1552 43.308064
1550 45.195225
1548 46.427799
1546 47.39082
1544 48.372742
1542 49.446953
1540 50.5518
1538 51.522491
1536 52.171085
1534 52.341034
1532 52.054489
1530 51.509418
1528 50.827171
1526 49.999451
1524 49.004158
1522 47.84486
1520 46.571224
1518 45.272205
1516 44.004314
1514 42.754124
1512 41.395077
1510 39.696766
1508 37.487026
1506 34.729713
1504 31.61372
1502 28.530968
1500 25.733089
1498 23.234789
1496 20.942572
1494 18.704229
1492 16.412403
1490 14.039532
1488 11.603771
1486 9.1684418
1484 6.857718
1482 4.8379183
1480 3.1788521
1478 1.8334999
1476 0.82009137
1474 0.25167555
1472 0.15858552
1470 0.4395529
1468 0.96875095
1466 1.6299585
1464 2.3354092
1462 3.0357783
1460 3.7116568
1458 4.3690286
1456 5.0050998
1454 5.5938578
1452 6.0797138
1450 6.3845315
1448 6.4761992
1446 6.3921609
1444 6.1937919
1442 5.9488492
1440 5.6960149
1438 5.4278512
1436 5.0990801
1434 4.636734
1432 4.0189338
1430 3.3049314
1428 2.5869179
1426 1.9710357
1424 1.525864
1422 1.2613025
1420 1.1644638
1418 1.2082175
1416 1.3616371
1414 1.5947471
1412 1.8887603
1410 2.2412529
1408 2.6579525
1406 3.1479592
1404 3.7024908
1402 4.2852745
1400 4.8499718
1398 5.3480978
1396 5.7524786
1394 6.0677528
1392 6.3047266
1390 6.4706721
1388 6.5608621
1386 6.5559149
1384 6.4446359
1382 6.2332687
1380 5.9345765
1378 5.5656657
1376 5.1448059
1374 4.6924453
1372 4.236414
1370 3.8098903
1368 3.4174616
1366 3.0182514
1364 2.5639794
1362 2.0195251
1360 1.406233
1358 0.82476974
1356 0.37009513
1354 0.093548737
1352 -0.002008023
1350 0.026903067
1348 0.1219715
1346 0.24498107
1344 0.37257361
1342 0.49841329
1340 0.62215227
1338 0.74621743
1336 0.86903542
1334 0.98140323
1332 1.0720934
1330 1.130885
1328 1.1570549
1326 1.1658658
1324 1.1796243
1322 1.2243212
1320 1.3144732
1318 1.4426908
1316 1.58849
1314 1.7194201
1312 1.8096697
1310 1.8510221
1308 1.8487431
1306 1.8231336
1304 1.79182
1302 1.761641
1300 1.73735
1298 1.7252733
1296 1.7393143
1294 1.8043664
1292 1.9360334
1290 2.1281784
1288 2.360368
1286 2.5972707
1284 2.8090208
1282 2.9832683
1280 3.1203659
1278 3.2362599
1276 3.3505299
1274 3.4824069
1272 3.6459553
1270 3.8462558
1268 4.0869198
1266 4.3728585
1264 4.7097964
1262 5.1035271
1260 5.5517297
1258 6.0381889
1256 6.5497084
1254 7.0864258
1252 7.66083
1250 8.301115
1248 9.0255976
1246 9.825675
1244 10.674772
1242 11.524646
1240 12.328057
1238 13.0439
1236 13.639486
1234 14.093362
1232 14.390759
1230 14.523716
1228 14.485211
1226 14.272443
1224 13.890155
1222 13.357835
1220 12.710074
1218 12.00386
1216 11.292601
1214 10.612175
1212 9.984725
1210 9.4172783
1208 8.907546
1206 8.4472971
1204 8.0193157
1202 7.5922332
1200 7.1349106
1198 6.6249824
1196 6.0500784
1194 5.4157853
1192 4.7362771
1190 4.0356579
1188 3.3457813
1186 2.7093842
1184 2.1668961
1182 1.7471101
1180 1.4618601
1178 1.2922053
1176 1.2108999
1174 1.1880914
1172 1.1975722
1170 1.2214537
1168 1.2424492
1166 1.2407249
1164 1.2019191
1162 1.1254691
1160 1.0154804
1158 0.87925076
1156 0.72437596
1154 0.55817831
1152 0.39209977
1150 0.24648967
1148 0.13820742
1146 0.070558459
1144 0.038875729
1142 0.027425764
1140 0.018147485
1138 -0.004400257
1136 -0.038713086
1134 -0.046255838
1132 0.0071253031
1130 0.12398072
1128 0.29791337
1126 0.51924115
1124 0.77829528
1122 1.0667971
1120 1.371384
1118 1.6663363
1116 1.9340957
1114 2.1829584
1112 2.421268
1110 2.6412294
1108 2.8300264
1106 2.9740999
1104 3.0783229
1102 3.1938083
1100 3.3778026
1098 3.6726139
1096 4.0960288
1094 4.6118183
1092 5.1654382
1090 5.6901054
1088 6.1314421
1086 6.4756522
1084 6.729866
1082 6.9289279
1080 7.1083632
1078 7.286046
1076 7.4698801
1074 7.6514926
1072 7.8202333
1070 7.9693952
1068 8.0966578
1066 8.208046
1064 8.3088522
1062 8.3955965
1060 8.4556704
1058 8.4572515
1056 8.3704109
1054 8.1847687
1052 7.9065065
1050 7.5765443
1048 7.2400894
1046 6.9308391
1044 6.6722155
1042 6.4669309
1040 6.3103409
1038 6.1903729
1036 6.0851898
1034 5.9499393
1032 5.7364793
1030 5.4052916
1028 4.9389486
1026 4.3798223
1024 3.788481
1022 3.236398
1020 2.7769542
1018 2.4017096
1016 2.0827601
1014 1.781945
1012 1.4706829
1010 1.1582023
1008 0.85906279
1006 0.5759089
1004 0.30924606
1002 0.062439457
1000 -0.16074474
998 -0.35791463
996 -0.53349572
994 -0.71181667
992 -0.91356176
990 -1.1320922
988 -1.3524451
986 -1.5543807
984 -1.7188052
982 -1.834392
980 -1.889774
978 -1.8672044
976 -1.7509428
974 -1.538491
972 -1.2327527
970 -0.84607506
968 -0.4018108
966 0.047041386
964 0.43720832
962 0.6963653
960 0.77293676
958 0.69468588
956 0.51723713
954 0.32418603
952 0.18575519
950 0.10119224
948 0.053188145
946 0.028044071
944 0.01349972
942 -0.00050662458
940 -0.01502877
938 -0.00103686
936 0.065281659
934 0.16192037
932 0.26587766
930 0.39215359
928 0.55644965
926 0.74205774
924 0.92509842
922 1.0851289
920 1.2100137
918 1.3156343
916 1.4194
914 1.517017
912 1.5955024
910 1.630023
908 1.6019949
906 1.531437
904 1.4530177
902 1.421555
900 1.4811726
898 1.6114353
896 1.7759
