Image.
>Pix99999.
  .
5555
5555
2300
900
5555
2
1
0
701
5555
2.1545000e-002
2.1993360e-002
2.2441717e-002
2.2889080e-002
2.3337435e-002
2.3785792e-002
2.4234151e-002
2.4682509e-002
2.5130868e-002
2.5579227e-002
2.6026599e-002
2.6474943e-002
2.6923304e-002
2.7371662e-002
2.7820021e-002
2.8268380e-002
2.8716737e-002
2.9164121e-002
2.9612454e-002
3.0060813e-002
3.0509172e-002
3.0957529e-002
3.1405888e-002
3.1854250e-002
3.2301642e-002
3.2749962e-002
2.6661485e-002
1.0192886e-003
-4.9775042e-002
-8.2492612e-002
-1.1238101e-001
-9.6718051e-002
-7.8028686e-002
-6.4871520e-002
-5.4319620e-002
-6.2305000e-002
-6.9709770e-002
-7.0080370e-002
-7.1638532e-002
-7.7923462e-002
-9.3682081e-002
-1.2956554e-001
-1.7063721e-001
-2.1824652e-001
-2.5832960e-001
-2.8851715e-001
-3.0830222e-001
-3.1869268e-001
-3.1807393e-001
-3.0968440e-001
-2.8292069e-001
-2.4584547e-001
-2.0707045e-001
-1.6783708e-001
-1.7896126e-001
-2.0646521e-001
-2.8730562e-001
-3.8017341e-001
-4.4955122e-001
-5.1470637e-001
-5.2947915e-001
-5.3852010e-001
-5.3500718e-001
-5.2948493e-001
-5.1921290e-001
-5.0824231e-001
-4.9639672e-001
-4.8865062e-001
-4.9165171e-001
-4.9900001e-001
-5.1251304e-001
-5.1925856e-001
-5.1525766e-001
-5.0523543e-001
-4.8967835e-001
-4.9008608e-001
-5.0510204e-001
-5.2826893e-001
-5.5602103e-001
-5.7866049e-001
-5.9826088e-001
-6.2882906e-001
-6.6419041e-001
-6.8671489e-001
-7.0502001e-001
-6.8416148e-001
-6.5425348e-001
-6.0991186e-001
-5.6420386e-001
-5.3474444e-001
-5.1160443e-001
-5.1846141e-001
-5.3089875e-001
-5.4895765e-001
-5.6052536e-001
-5.4996824e-001
-5.3520751e-001
-5.1828313e-001
-5.1452261e-001
-5.3336024e-001
-5.5849427e-001
-5.8743781e-001
-6.0295945e-001
-6.0400158e-001
-6.0800499e-001
-6.1626101e-001
-6.4328474e-001
-6.8234873e-001
-7.2007287e-001
-7.5620586e-001
-7.8013372e-001
-7.9904914e-001
-8.0232280e-001
-8.0067092e-001
-7.6939082e-001
-7.3071867e-001
-6.8690735e-001
-6.4622402e-001
-6.4976823e-001
-6.6682982e-001
-7.1030945e-001
-7.5157374e-001
-7.6560897e-001
-7.6304799e-001
-7.3103487e-001
-6.9225323e-001
-6.5125823e-001
-6.2172949e-001
-6.1071146e-001
-6.2390047e-001
-6.6257071e-001
-7.0339000e-001
-7.4163443e-001
-7.4992830e-001
-7.3467541e-001
-6.9945687e-001
-6.5370500e-001
-5.9943390e-001
-5.4140651e-001
-4.9003503e-001
-4.4189802e-001
-4.3990844e-001
-4.5374525e-001
-4.8647606e-001
-5.2222568e-001
-5.2664781e-001
-5.2117521e-001
-5.0111222e-001
-4.7672692e-001
-4.4794720e-001
-4.1728356e-001
-3.8321784e-001
-3.5281840e-001
-3.3418033e-001
-3.2283080e-001
-3.2135522e-001
-3.3182052e-001
-3.5558018e-001
-3.9485556e-001
-4.4733536e-001
-4.9250287e-001
-5.2771634e-001
-5.3843969e-001
-5.3158349e-001
-5.2209115e-001
-5.1305437e-001
-5.1304549e-001
-5.1831424e-001
-5.0778240e-001
-4.9023193e-001
-4.7552258e-001
-4.6302807e-001
-4.7558320e-001
-4.9624673e-001
-5.1047730e-001
-5.2037501e-001
-5.1940620e-001
-5.1432770e-001
-5.1322609e-001
-5.1528233e-001
-5.2393085e-001
-5.3610617e-001
-5.4909885e-001
-5.6132859e-001
-5.6961000e-001
-5.6307757e-001
-5.3721172e-001
-4.8746029e-001
-4.1863850e-001
-3.7069088e-001
-3.4803185e-001
-3.5648859e-001
-3.8421550e-001
-4.0289587e-001
-4.1267633e-001
-4.2809001e-001
-4.4774720e-001
-4.6242371e-001
-4.7520831e-001
-4.3462884e-001
-3.7133858e-001
-2.8037423e-001
-1.8459566e-001
-1.3222329e-001
-1.1218508e-001
-1.6319035e-001
-2.4526116e-001
-3.4213704e-001
-4.2901701e-001
-4.7841588e-001
-4.9375400e-001
-4.6640289e-001
-3.9525184e-001
-2.7716783e-001
-1.3724397e-001
7.2041489e-003
9.0413563e-002
1.0355210e-001
4.4433612e-002
-6.1671760e-002
-1.8251070e-001
-3.0461550e-001
-3.8954747e-001
-4.4767547e-001
-4.6041799e-001
-4.4686145e-001
-4.3149662e-001
-4.1514772e-001
-4.1033870e-001
-4.0909514e-001
-3.7843144e-001
-3.2637709e-001
-2.2154051e-001
-9.2387050e-002
3.5674412e-002
1.3399158e-001
1.4437194e-001
9.3174011e-002
-1.1247639e-002
-1.2419581e-001
-2.1124972e-001
-2.6400658e-001
-2.7874947e-001
-2.7326289e-001
-2.5983652e-001
-2.3910750e-001
-2.1371286e-001
-1.9148304e-001
-1.7138366e-001
-1.6385277e-001
-1.6543071e-001
-1.4358515e-001
-1.0648017e-001
-6.0804874e-002
-1.4071732e-002
6.6375649e-003
1.1089338e-002
2.0123739e-002
3.4238156e-002
7.3466241e-002
1.3361388e-001
2.2682573e-001
3.2887942e-001
3.9468884e-001
4.0910509e-001
3.3494350e-001
2.1824780e-001
1.0386978e-001
2.3288816e-002
-8.9444816e-002
-1.8639643e-001
-2.1339668e-001
-1.6216245e-001
-4.2457540e-002
7.0638835e-002
1.5213428e-001
1.2832277e-001
7.3086880e-003
-1.1692214e-001
-2.2513360e-001
-2.0144801e-001
-7.5020552e-002
5.4654878e-002
1.7204252e-001
1.3903135e-001
6.9714300e-003
-8.8491067e-002
-1.2720330e-001
1.6619027e-002
3.1774342e-001
8.0741012e-001
1.3834831e+000
1.8731817e+000
2.3050213e+000
2.7203720e+000
3.2781544e+000
4.1309290e+000
5.5185275e+000
7.5564432e+000
1.0446674e+001
1.4156857e+001
1.7998671e+001
2.1642466e+001
2.4949844e+001
2.7956764e+001
3.1515408e+001
3.5705727e+001
4.0732632e+001
4.6417202e+001
5.1414833e+001
5.5760399e+001
5.9953983e+001
6.4127396e+001
6.9113762e+001
7.4711311e+001
8.0292801e+001
8.5700653e+001
9.0419014e+001
9.4452095e+001
9.7760834e+001
1.0037646e+002
1.0236253e+002
1.0368780e+002
1.0435234e+002
1.0403806e+002
1.0252571e+002
1.0019063e+002
9.7431999e+001
9.4301498e+001
9.0891228e+001
8.6729172e+001
8.1709435e+001
7.6517982e+001
7.1410194e+001
6.6774887e+001
6.2639439e+001
5.8537521e+001
5.4392891e+001
5.0276817e+001
4.6202591e+001
4.2339912e+001
3.8718536e+001
3.5540909e+001
3.2815971e+001
3.0508520e+001
2.8596785e+001
2.6937555e+001
2.5552942e+001
2.4443348e+001
2.3609940e+001
2.3011501e+001
2.2620466e+001
2.2369007e+001
2.2243317e+001
2.2211931e+001
2.2280592e+001
2.2445251e+001
2.2697470e+001
2.3027397e+001
2.3480877e+001
2.4070028e+001
2.4828373e+001
2.5755060e+001
2.6759871e+001
2.7817760e+001
2.8877764e+001
2.9939634e+001
3.1217707e+001
3.2812595e+001
3.5337032e+001
3.8848770e+001
4.2668411e+001
4.6561722e+001
4.9531708e+001
5.1615788e+001
5.3374393e+001
5.4836777e+001
5.6168785e+001
5.7212757e+001
5.7741089e+001
5.7641632e+001
5.6875309e+001
5.5648258e+001
5.4249035e+001
5.2727840e+001
5.1129650e+001
4.9357800e+001
4.7344707e+001
4.5112034e+001
4.2644070e+001
4.0302128e+001
3.8218864e+001
3.6283398e+001
3.4506920e+001
3.2257027e+001
2.9372864e+001
2.6343811e+001
2.3197531e+001
2.0514212e+001
1.8349491e+001
1.6241428e+001
1.4184106e+001
1.2087526e+001
9.9585686e+000
7.8304501e+000
5.7656250e+000
3.8807459e+000
2.2806318e+000
1.0857762e+000
3.3267358e-001
5.9280626e-002
3.5191017e-001
1.1474392e+000
2.1272039e+000
3.0914278e+000
3.9107671e+000
4.4947391e+000
5.0197606e+000
5.5562768e+000
6.1249461e+000
6.7377601e+000
7.2197561e+000
7.4780440e+000
7.5605173e+000
7.3911500e+000
7.1632786e+000
6.8591228e+000
6.5528622e+000
6.2431126e+000
5.9153357e+000
5.5456514e+000
5.0683289e+000
4.4825239e+000
3.8637228e+000
3.2576039e+000
2.7789843e+000
2.4486730e+000
2.2732313e+000
2.2423277e+000
2.3245525e+000
2.4803514e+000
2.6696639e+000
2.8700838e+000
3.0773697e+000
3.3027377e+000
3.5636227e+000
3.8607078e+000
4.2058878e+000
4.5833802e+000
5.0043688e+000
5.4191499e+000
5.8094749e+000
6.1311197e+000
6.3218327e+000
6.4113793e+000
6.3343401e+000
6.1418362e+000
5.7891626e+000
5.3665800e+000
4.8687406e+000
4.3695002e+000
3.8865941e+000
3.4470260e+000
3.0550151e+000
2.7010708e+000
2.3521163e+000
1.9541283e+000
1.5143242e+000
1.0350331e+000
5.8816963e-001
2.6577067e-001
5.4261908e-002
3.9830734e-003
2.8812785e-002
1.1905006e-001
2.3890036e-001
4.1729760e-001
6.2949324e-001
9.0265298e-001
1.1681135e+000
1.4068743e+000
1.5980287e+000
1.6944809e+000
1.7817850e+000
1.8603640e+000
1.9724650e+000
2.1418521e+000
2.3499668e+000
2.6122246e+000
2.9013515e+000
3.2129700e+000
3.5086596e+000
3.7699771e+000
3.9688287e+000
4.1029849e+000
4.1755509e+000
4.2038994e+000
4.2014818e+000
4.1858883e+000
4.1668444e+000
4.1463284e+000
4.1218500e+000
4.0946245e+000
4.0610032e+000
4.0315437e+000
4.0144544e+000
4.0018973e+000
3.9971766e+000
3.9911766e+000
3.9830265e+000
3.9860756e+000
4.0149789e+000
4.0655971e+000
4.1535044e+000
4.2513285e+000
4.3615413e+000
4.4726248e+000
4.5837369e+000
4.6967740e+000
4.8104496e+000
4.9200115e+000
5.0270214e+000
5.1360221e+000
5.2483659e+000
5.3690543e+000
5.4903750e+000
5.5981526e+000
5.6901827e+000
5.7453079e+000
5.7700124e+000
5.7289557e+000
5.6454086e+000
5.4635959e+000
5.2459807e+000
4.9449530e+000
4.6277032e+000
4.2700291e+000
3.9012980e+000
3.5051658e+000
3.0966558e+000
2.6650000e+000
2.2368641e+000
1.8217781e+000
1.4458399e+000
1.1311201e+000
8.6712545e-001
6.6428864e-001
4.9299535e-001
3.5585982e-001
2.4678144e-001
1.6084000e-001
8.7580562e-002
1.8892698e-002
-6.0898557e-002
-1.3757819e-001
-1.8139678e-001
-1.9370377e-001
-1.2096696e-001
-8.9007020e-003
1.8562429e-001
4.0995398e-001
7.0985001e-001
1.0208415e+000
1.3554356e+000
1.6628503e+000
1.8833679e+000
2.0570304e+000
2.1136122e+000
2.1306176e+000
2.0661063e+000
1.9659286e+000
1.8065947e+000
1.6252913e+000
1.4142039e+000
1.1921160e+000
9.5681781e-001
7.1123946e-001
4.6241865e-001
2.4304168e-001
6.3138954e-002
-8.1932573e-003
2.8760657e-003
1.3680334e-001
3.3031058e-001
5.9026325e-001
8.6002314e-001
1.0864983e+000
1.2833501e+000
1.3639160e+000
1.4250993e+000
1.4401914e+000
1.4715829e+000
1.5742857e+000
1.6876395e+000
1.8321401e+000
1.9561300e+000
2.0267920e+000
2.0681665e+000
2.0519094e+000
2.0216403e+000
1.9715428e+000
1.9328219e+000
1.9092801e+000
1.8981971e+000
1.8974560e+000
1.8864486e+000
1.8668295e+000
1.8412604e+000
1.8120074e+000
1.7799710e+000
1.7410743e+000
1.6620647e+000
1.5647172e+000
1.4302396e+000
1.2931213e+000
1.1964893e+000
1.1151999e+000
1.1082325e+000
1.1066480e+000
1.1162026e+000
1.1218657e+000
1.1110473e+000
1.0998405e+000
1.0873390e+000
1.0712291e+000
1.0460428e+000
1.0142264e+000
9.6779984e-001
8.9795887e-001
7.9194456e-001
6.6054499e-001
5.0278676e-001
3.6586469e-001
2.4828750e-001
1.3878061e-001
3.1214304e-002
-1.1420140e-001
-2.7785259e-001
-4.2518401e-001
-5.6106889e-001
-6.3994575e-001
-7.0403409e-001
-7.7394789e-001
-8.4529626e-001
-9.2242360e-001
-9.9423432e-001
-9.9853736e-001
-9.9814600e-001
-9.7001439e-001
-9.4715601e-001
-9.4733286e-001
-9.4680917e-001
-9.4438708e-001
-9.4220656e-001
-9.4108671e-001
-9.4667900e-001
-9.6282923e-001
-9.6647972e-001
-9.5220459e-001
-9.1948426e-001
-8.6816144e-001
-8.2139486e-001
-7.7902746e-001
-7.4998999e-001
-7.2923857e-001
-7.1618795e-001
-7.0554906e-001
-6.7478961e-001
-6.3484633e-001
-5.3456730e-001
-4.2041656e-001
-2.8110644e-001
-1.4184469e-001
-7.5488120e-002
-1.5548231e-002
-5.1247929e-003
1.5027076e-003
4.4113051e-002
5.4944791e-002
1.3360161e-001
2.1767372e-001
3.1807375e-001
4.3035239e-001
5.6808829e-001
7.1302170e-001
8.6911559e-001
1.0073340e+000
1.1229647e+000
1.1901805e+000
1.2114642e+000
1.1768399e+000
1.1033696e+000
1.0780057e+000
1.0794350e+000
1.1731135e+000
1.3022901e+000
1.3567017e+000
1.3914332e+000
1.3059000e+000
1.2010908e+000
1.1248000e+000
