##TITLE=Methyl Ethyl Ketone
##JCAMP-DX=4.24
##DATA TYPE=INFRARED SPECTRUM
##XUNITS=cm-1
##YUNITS=Absorbance
##FIRSTX=900
##LASTX=2300
##XYDATA=(X++(Y..Y))
2296 0.048833001
2294 0.049848545
2292 0.050864093
2290 0.051880639
2288 0.052896187
2286 0.053912729
2284 0.054928284
2282 0.055943832
2280 0.056960367
2278 0.057975926
2276 0.058991473
2274 0.060008004
2272 0.061023567
2270 0.062039115
2268 0.063055634
2266 0.064071208
2264 0.065086752
2262 0.06610328
2260 0.067118846
2258 0.068134397
2256 0.06915091
2254 0.070166491
2252 0.071182035
2250 0.072198555
2248 0.073214129
2246 0.074230641
2244 0.030138293
2242 0.0010968171
2240 -0.029648639
2238 -0.045294207
2236 -0.058697727
2234 -0.07551714
2232 -0.093077831
2230 -0.1215797
2228 -0.14933312
2226 -0.166868
2224 -0.17959613
2222 -0.17275758
2220 -0.16989061
2218 -0.18229011
2216 -0.20127429
2214 -0.23274107
2212 -0.24720719
2210 -0.23274882
2208 -0.21542497
2206 -0.19674793
2204 -0.22046675
2202 -0.2851319
2200 -0.3731626
2198 -0.47666243
2196 -0.56979924
2194 -0.65635675
2192 -0.72353351
2190 -0.78240752
2188 -0.76075929
2186 -0.71311671
2184 -0.58158082
2182 -0.43111435
2180 -0.32821965
2178 -0.23361488
2176 -0.22395943
2174 -0.22339834
2172 -0.23757829
2170 -0.25412059
2168 -0.27621731
2166 -0.30197549
2164 -0.33908886
2162 -0.37571546
2160 -0.40817365
2158 -0.42893097
2156 -0.42830402
2154 -0.42127171
2152 -0.40816531
2150 -0.4021281
2148 -0.40475577
2146 -0.39659429
2144 -0.37808907
2142 -0.33339131
2140 -0.2712259
2138 -0.21365593
2136 -0.15957086
2134 -0.16522521
2132 -0.19590428
2130 -0.30302054
2128 -0.4338004
2126 -0.5936588
2124 -0.75984865
2122 -0.86343652
2120 -0.95185238
2118 -0.94315219
2116 -0.91610658
2114 -0.85547668
2112 -0.78960687
2110 -0.722103
2108 -0.65271509
2106 -0.57834703
2104 -0.50889623
2102 -0.45193776
2100 -0.4069058
2098 -0.37881482
2096 -0.35438713
2094 -0.33148673
2092 -0.31449017
2090 -0.30338261
2088 -0.32938817
2086 -0.3853685
2084 -0.48267689
2082 -0.60453463
2080 -0.70678836
2078 -0.79704076
2076 -0.82292598
2074 -0.82267094
2072 -0.75526875
2070 -0.66704857
2068 -0.54911608
2066 -0.42644116
2064 -0.40790686
2062 -0.41967347
2060 -0.53353935
2058 -0.66160321
2056 -0.75695115
2054 -0.8365038
2052 -0.8824814
2050 -0.9220494
2048 -0.96213996
2046 -1.001084
2044 -1.037438
2042 -1.0826185
2040 -1.1418629
2038 -1.2103
2036 -1.2866329
2034 -1.3558866
2032 -1.41678
2030 -1.4663939
2028 -1.5082281
2026 -1.5215693
2024 -1.5173405
2022 -1.4626758
2020 -1.3831431
2018 -1.3244044
2016 -1.27582
2014 -1.3035933
2012 -1.3567631
2010 -1.4099933
2008 -1.4611497
2006 -1.4857129
2004 -1.501588
2002 -1.503536
2000 -1.5017806
1998 -1.4987237
1996 -1.5056214
1994 -1.5436203
1992 -1.5873977
1990 -1.6267288
1988 -1.642042
1986 -1.6173729
1984 -1.5840765
1982 -1.5520322
1980 -1.5328985
1978 -1.5280861
1976 -1.4770172
1974 -1.380226
1972 -1.176646
1970 -0.89847183
1968 -0.66608769
1966 -0.47148991
1964 -0.49977183
1962 -0.64252299
1960 -0.81718796
1958 -0.99938476
1956 -1.0540485
1954 -1.0614809
1952 -1.0350423
1950 -0.9995898
1948 -0.97556829
1946 -0.96608746
1944 -1.0148342
1942 -1.0981957
1940 -1.2404617
1938 -1.3809599
1936 -1.4696515
1934 -1.5022165
1932 -1.452536
1930 -1.3631618
1928 -1.2482948
1926 -1.0887743
1924 -0.8801648
1922 -0.60928303
1920 -0.28511897
1918 -0.046558786
1916 0.10292105
1914 0.13487059
1912 0.092305243
1910 0.013468203
1908 -0.079509974
1906 -0.30513805
1904 -0.60227919
1902 -0.89057869
1900 -1.1709293
1898 -1.1716146
1896 -1.0540429
1894 -0.83335876
1892 -0.59767544
1890 -0.53158122
1888 -0.56789982
1886 -0.76527727
1884 -1.0271703
1882 -1.3027339
1880 -1.5436617
1878 -1.692397
1876 -1.72751
1874 -1.6114974
1872 -1.3602743
1870 -0.98057479
1868 -0.63822043
1866 -0.39272022
1864 -0.37792829
1862 -0.57741529
1860 -0.8352505
1858 -1.0955691
1856 -1.2275628
1854 -1.259701
1852 -1.1299918
1850 -0.9045161
1848 -0.54835999
1846 -0.12397551
1844 0.1062481
1842 0.22146139
1840 -0.022841826
1838 -0.42859471
1836 -0.77188301
1834 -1.0303577
1832 -0.9961049
1830 -0.78305376
1828 -0.39813441
1826 -0.019848496
1824 0.14047109
1822 0.077507108
1820 -0.26885828
1818 -0.69614971
1816 -1.0720702
1814 -1.3016469
1812 -1.3472005
1810 -1.2887838
1808 -1.1786851
1806 -1.0338939
1804 -0.86904991
1802 -0.63512093
1800 -0.34270892
1798 -0.020251587
1796 0.3159357
1794 0.561041
1792 0.73961437
1790 0.74426907
1788 0.64376098
1786 0.50710803
1784 0.36141565
1782 0.31921816
1780 0.35852775
1778 0.55718261
1776 0.85206711
1774 1.1953723
1772 1.4607586
1770 1.4040149
1768 1.1257937
1766 0.68819463
1764 0.2923688
1762 0.12433659
1760 0.037202995
1758 -0.074470639
1756 -0.10141879
1754 0.0042370744
1752 0.38605934
1750 1.0489517
1748 1.7282863
1746 2.3325429
1744 2.4784663
1742 2.2064593
1740 1.8477139
1738 1.489127
1736 1.48718
1734 1.7594349
1732 1.8616426
1730 1.8071681
1728 1.2891158
1726 0.49579012
1724 -0.054839209
1722 -0.32366601
1720 0.1254864
1718 1.1917623
1716 2.7508099
1714 4.3704853
1712 5.4293461
1710 6.1186142
1708 6.6486602
1706 7.4266181
1704 8.8256388
1702 11.063709
1700 14.208189
1698 17.903625
1696 21.858999
1694 25.30714
1692 28.00692
1690 30.451889
1688 32.864239
1686 36.14175
1684 40.301609
1682 45.07357
1680 50.259083
1678 54.57909
1676 58.123898
1674 61.632557
1672 65.197525
1670 69.361755
1668 73.954651
1666 78.411301
1664 82.695908
1662 86.654053
1660 90.310204
1658 93.693512
1656 96.824402
1654 99.738747
1652 102.181
1650 103.85399
1648 104.08012
1646 102.345
1644 99.40136
1642 95.981461
1640 92.453445
1638 89.054726
1636 85.233269
1634 80.801819
1632 76.09021
1630 71.252678
1628 66.698212
1626 62.483685
1624 58.253517
1622 53.954956
1620 49.749889
1618 45.649151
1616 41.74823
1614 38.069172
1612 34.758156
1610 31.84976
1608 29.424446
1606 27.463556
1604 25.825472
1602 24.498121
1600 23.399794
1598 22.527857
1596 21.8405
1594 21.334124
1592 20.977291
1590 20.759182
1588 20.650826
1586 20.699871
1584 20.925955
1582 21.40089
1580 22.145958
1578 23.2209
1576 24.632057
1574 26.211304
1572 27.89427
1570 29.385969
1568 30.622839
1566 31.708992
1564 32.665581
1562 33.933376
1560 35.623653
1558 38.222149
1556 41.684402
1554 44.852062
1552 47.540688
1550 49.309071
1548 50.31329
1546 51.383392
1544 52.523304
1542 53.716942
1540 54.52774
1538 54.304253
1536 53.131172
1534 51.284504
1532 49.255928
1530 47.57811
1528 46.245464
1526 45.238201
1524 44.347836
1522 43.445442
1520 42.138149
1518 40.221218
1516 38.022556
1514 35.619797
1512 33.39164
1510 31.443436
1508 29.147055
1506 26.359207
1504 23.365046
1502 20.193039
1500 17.54867
1498 15.5183
1496 13.664429
1494 11.996798
1492 10.365389
1490 8.7523623
1488 7.0916815
1486 5.3797541
1484 3.631896
1482 2.0175419
1480 0.79936069
1478 0.092482425
1476 0.016163573
1474 0.52634811
1472 1.4752171
1470 2.4261539
1468 3.0560131
1466 3.462383
1464 3.6726811
1462 4.013742
1460 4.6646719
1458 5.4641943
1456 6.4079599
1454 7.0091338
1452 7.0477033
1450 6.8299561
1448 6.2730346
1446 5.7316642
1444 5.2249441
1442 4.8093357
1440 4.530036
1438 4.3846383
1436 4.3669858
1434 4.2930341
1432 4.1184201
1430 3.7869852
1428 3.3638361
1426 3.0480428
1424 2.8963733
1422 2.972753
1420 3.2223666
1418 3.5565045
1416 3.8722258
1414 4.0526237
1412 4.1524348
1410 4.199461
1408 4.2856989
1406 4.4835
1404 4.7757597
1402 5.1993742
1400 5.6754284
1398 6.2120819
1396 6.6551218
1394 6.9089055
1392 6.9647293
1390 6.6897016
1388 6.3116188
1386 5.7845049
1384 5.2456169
1382 4.7083635
1380 4.2453752
1378 3.88694
1376 3.6145201
1374 3.4199874
1372 3.210654
1370 2.9766793
1368 2.705164
1366 2.4106801
1364 2.1253996
1362 1.8370456
1360 1.5266783
1358 1.2013807
1356 0.86444813
1354 0.55015981
1352 0.30008698
1350 0.096708231
1348 -0.03136234
1346 -0.082329214
1344 -0.03116408
1342 0.11214788
1340 0.43059832
1338 0.72780854
1336 0.95659429
1334 1.0337706
1332 0.84488183
1330 0.64381582
1328 0.44663188
1326 0.36819637
1324 0.47249717
1322 0.70031679
1320 1.0807807
1318 1.5176919
1316 1.98303
1314 2.3590045
1312 2.6155589
1310 2.715606
1308 2.6884565
1306 2.5890393
1304 2.4609082
1302 2.3627341
1300 2.3010323
1298 2.3060954
1296 2.3408859
1294 2.3977826
1292 2.4480138
1290 2.46644
1288 2.4737
1286 2.4633522
1284 2.4614358
1282 2.4844275
1280 2.5152931
1278 2.5640066
1276 2.6185243
1274 2.6870251
1272 2.7764461
1270 2.9028459
1268 3.0516832
1266 3.2331407
1264 3.428489
1262 3.6443069
1260 3.8810899
1258 4.1457562
1256 4.4435601
1254 4.7750645
1252 5.1381421
1250 5.5289116
1248 5.9483953
1246 6.3901501
1244 6.8595386
1242 7.331172
1240 7.7754512
1238 8.1738462
1236 8.4466629
1234 8.6381035
1232 8.64044
1230 8.5649176
1228 8.2979031
1226 7.9787507
1224 7.5234976
1222 7.0398521
1220 6.4911771
1218 5.9459381
1216 5.4101658
1214 4.892468
1212 4.4010072
1210 3.8959417
1208 3.3709395
1206 2.8356121
1204 2.2979598
1202 1.8020227
1200 1.3519257
1198 0.94187558
1196 0.56592929
1194 0.21422976
1192 -0.11038156
1190 -0.3787179
1188 -0.60857278
1186 -0.78134084
1184 -0.93015343
1182 -1.0570432
1180 -1.1623751
1178 -1.2003012
1176 -1.1926399
1174 -1.0372279
1172 -0.85798085
1170 -0.62156743
1168 -0.40829647
1166 -0.26498285
1164 -0.12564506
1162 0.0069692656
1160 0.1612592
1158 0.35453531
1156 0.52850473
1154 0.66121131
1152 0.72538358
1150 0.69042408
1148 0.58475924
1146 0.40662393
1144 0.22943594
1142 0.070176758
1140 0.0041308831
1138 0.013280787
1136 0.095418826
1134 0.2196323
1132 0.4280808
1130 0.68126875
1128 1.0002203
1126 1.3422065
1124 1.7108922
1122 2.0747499
1120 2.3884201
1118 2.6726298
1116 2.8238599
1114 2.9514263
1112 2.9910121
1110 3.0426111
1108 3.1353478
1106 3.2590649
1104 3.4599457
1102 3.678483
1100 3.932425
1098 4.1990232
1096 4.4875426
1094 4.795013
1092 5.1328616
1090 5.5238042
1088 5.9773526
1086 6.5148997
1084 7.1151943
1082 7.7095113
1080 8.2800474
1078 8.7069035
1076 9.0359402
1074 9.1266651
1072 9.1075382
1070 8.8575535
1068 8.5563393
1066 8.2526255
1064 7.9764481
1062 7.906384
1060 7.8754158
1058 8.0317926
1056 8.2073917
1054 8.4651613
1052 8.7013979
1050 8.8654461
1048 8.9793253
1046 8.9724894
1044 8.9492865
1042 8.8936968
1040 8.8117666
1038 8.6903753
1036 8.5521498
1034 8.4018345
1032 8.3217316
1030 8.3028975
1028 8.2773714
1026 8.2357702
1024 8.0743113
1022 7.8426199
1020 7.5279746
1018 7.1717057
1016 6.7096057
1014 6.2098265
1012 5.6067042
1010 4.9912057
1008 4.4337282
1006 3.8957329
1004 3.5294595
1002 3.1775508
1000 2.9120522
998 2.6260767
996 2.2477
994 1.8267829
992 1.2762876
990 0.7552073
988 0.30633652
986 -0.053621948
984 -0.26061267
982 -0.47688162
980 -0.70676422
978 -0.958372
976 -1.2228371
974 -1.3223506
972 -1.2803229
970 -1.046145
968 -0.69729078
966 -0.3802107
964 -0.08832252
962 -0.01238237
960 -0.012262747
958 -0.14368421
956 -0.29945585
954 -0.37138569
952 -0.42749801
950 -0.34599054
948 -0.25332373
946 -0.083387569
944 0.0042925701
942 0.13369226
940 0.39302695
938 0.6898936
936 0.96034801
934 1.1517662
932 1.2754729
930 1.2539846
928 1.1900942
926 1.0587316
924 0.92500734
922 0.78951561
920 0.70460665
918 0.66784632
916 0.71292973
914 0.81648701
912 0.98362678
910 1.186522
908 1.6088467
906 2.1169391
904 2.8637328
902 3.672039
900 4.1935606
898 4.6682854
896 4.6578999
