Image.
>Pix99999.
  .
5555
5555
2300
900
5555
2
1
0
701
5555
2.4421001e-003
2.4929272e-003
2.5436550e-003
2.5944819e-003
2.6453091e-003
2.6960373e-003
2.7468638e-003
2.7977901e-003
2.8486184e-003
2.8991494e-003
2.9500714e-003
3.0014906e-003
3.0517378e-003
3.1003957e-003
3.1532398e-003
3.2117423e-003
3.2551149e-003
3.2772732e-003
3.3558405e-003
3.5136545e-003
3.4612685e-003
3.1136009e-003
3.5468931e-003
5.0817453e-003
3.7135105e-003
-2.2157643e-003
-9.0387141e-005
2.2260917e-002
5.9112720e-002
1.0143560e-001
1.4731471e-001
1.9577594e-001
2.4100646e-001
2.7581018e-001
2.9282412e-001
2.8457549e-001
2.4320708e-001
1.6681924e-001
7.7976152e-002
3.9752130e-003
-3.8031377e-002
-4.0758349e-002
-2.4238179e-002
-1.3491251e-002
-2.0623103e-002
-4.7783788e-002
-7.3103808e-002
-7.2325908e-002
-4.1097168e-002
1.5778141e-002
8.1774428e-002
1.3949803e-001
1.8241966e-001
2.0696418e-001
2.0727111e-001
1.7993100e-001
1.3478400e-001
8.6610332e-002
5.3149007e-002
4.7646035e-002
6.1528999e-002
7.9060040e-002
8.4381223e-002
6.5769039e-002
2.7910754e-002
-2.0544630e-002
-7.7004261e-002
-1.4203803e-001
-2.2029868e-001
-3.1281936e-001
-4.0033600e-001
-4.5866707e-001
-4.7185084e-001
-4.3441927e-001
-3.7149161e-001
-3.1493714e-001
-2.8114960e-001
-2.7476960e-001
-2.7561736e-001
-2.6006755e-001
-2.2585657e-001
-1.8010320e-001
-1.3633516e-001
-1.0555635e-001
-7.9828963e-002
-4.6863467e-002
-4.8771896e-003
3.9916996e-002
6.5027311e-002
4.7005631e-002
-1.7380057e-002
-1.1974646e-001
-2.3546052e-001
-3.3942130e-001
-4.2854956e-001
-5.1009566e-001
-5.9878618e-001
-7.0631063e-001
-8.2118219e-001
-9.2291230e-001
-9.9081999e-001
-1.0103239e+000
-9.9134940e-001
-9.5343131e-001
-9.1757226e-001
-9.0015250e-001
-8.9783031e-001
-8.9902836e-001
-8.9045453e-001
-8.6162180e-001
-8.1506401e-001
-7.5884533e-001
-7.0198119e-001
-6.5338492e-001
-6.2081641e-001
-6.1132175e-001
-6.3105857e-001
-6.8230808e-001
-7.5262225e-001
-8.2384020e-001
-8.7950772e-001
-9.0812504e-001
-9.1485399e-001
-9.1275579e-001
-9.1889632e-001
-9.4771004e-001
-9.9690682e-001
-1.0551869e+000
-1.1029348e+000
-1.1219674e+000
-1.1121857e+000
-1.0818442e+000
-1.0397972e+000
-9.9342185e-001
-9.4420695e-001
-8.9183491e-001
-8.3966261e-001
-7.9357433e-001
-7.6250058e-001
-7.5572973e-001
-7.7878600e-001
-8.3180958e-001
-8.9974916e-001
-9.6342385e-001
-1.0151014e+000
-1.0553286e+000
-1.0950946e+000
-1.1464760e+000
-1.2061605e+000
-1.2629439e+000
-1.3038714e+000
-1.3190938e+000
-1.3133497e+000
-1.2986971e+000
-1.2867759e+000
-1.2876700e+000
-1.3069406e+000
-1.3454782e+000
-1.3936594e+000
-1.4341913e+000
-1.4390199e+000
-1.3818440e+000
-1.2644941e+000
-1.1109968e+000
-9.8011398e-001
-9.3555176e-001
-9.9361914e-001
-1.1354854e+000
-1.2972240e+000
-1.4072024e+000
-1.4502429e+000
-1.4456154e+000
-1.4306858e+000
-1.4405515e+000
-1.4706988e+000
-1.4971250e+000
-1.5026509e+000
-1.4798616e+000
-1.4413275e+000
-1.4076527e+000
-1.3910086e+000
-1.3977869e+000
-1.4314661e+000
-1.4921013e+000
-1.5694349e+000
-1.6450694e+000
-1.6889783e+000
-1.6717103e+000
-1.5911052e+000
-1.4614130e+000
-1.3009186e+000
-1.1299679e+000
-9.7243905e-001
-8.5550916e-001
-8.1189793e-001
-8.6584818e-001
-9.9193197e-001
-1.1366240e+000
-1.2460154e+000
-1.2787257e+000
-1.2380714e+000
-1.1547469e+000
-1.0693361e+000
-1.0215731e+000
-1.0339074e+000
-1.1127243e+000
-1.2379301e+000
-1.3776860e+000
-1.5108714e+000
-1.6273586e+000
-1.7316900e+000
-1.8302408e+000
-1.9028926e+000
-1.9164821e+000
-1.8517143e+000
-1.7088393e+000
-1.5303389e+000
-1.3768311e+000
-1.2813439e+000
-1.2545017e+000
-1.2924972e+000
-1.3836133e+000
-1.5103052e+000
-1.6507399e+000
-1.7771879e+000
-1.8611035e+000
-1.8859149e+000
-1.8481411e+000
-1.7662543e+000
-1.6699272e+000
-1.5802243e+000
-1.5048320e+000
-1.4226989e+000
-1.3023683e+000
-1.1452597e+000
-9.8048961e-001
-8.5741490e-001
-8.2471120e-001
-8.8052964e-001
-9.8597437e-001
-1.0879686e+000
-1.1347914e+000
-1.1049094e+000
-1.0005877e+000
-8.3972830e-001
-6.5292597e-001
-4.9166471e-001
-4.1378829e-001
-4.4727093e-001
-5.8235526e-001
-7.3608500e-001
-7.9257947e-001
-6.9924200e-001
-4.6675432e-001
-1.7173709e-001
8.0334060e-002
2.3100136e-001
2.6592222e-001
2.0176351e-001
7.6411635e-002
-5.2156601e-002
-1.2182239e-001
-1.0604516e-001
-1.5732190e-002
8.8571094e-002
1.3131142e-001
1.1381480e-001
8.4455378e-002
3.6091812e-002
-7.1029663e-002
-2.0663899e-001
-2.9454765e-001
-3.1045887e-001
-2.8028691e-001
-2.5108734e-001
-2.7429998e-001
-3.7877062e-001
-5.6085652e-001
-7.4972618e-001
-8.3774990e-001
-7.6717401e-001
-5.4290146e-001
-2.5590473e-001
-4.0932260e-002
3.6861427e-002
-1.2161829e-002
-1.1185689e-001
-1.4046960e-001
4.3485656e-002
5.5974138e-001
1.3835388e+000
2.3735919e+000
3.3743916e+000
4.2706952e+000
5.1082940e+000
6.0661016e+000
7.3576508e+000
9.1951389e+000
1.1747389e+001
1.5074375e+001
1.8890429e+001
2.2675461e+001
2.6086662e+001
2.9048254e+001
3.1866943e+001
3.5111652e+001
3.9255024e+001
4.4500214e+001
5.0348400e+001
5.5875511e+001
6.0804371e+001
6.5496635e+001
7.0366508e+001
7.5657562e+001
8.1089584e+001
8.6007797e+001
9.0026276e+001
9.3088272e+001
9.5272469e+001
9.6716400e+001
9.7532486e+001
9.7798157e+001
9.7586357e+001
9.6966293e+001
9.5985046e+001
9.4682426e+001
9.3152870e+001
9.1516792e+001
8.9762238e+001
8.7742416e+001
8.5276222e+001
8.2216003e+001
7.8608513e+001
7.4653435e+001
7.0444847e+001
6.5952965e+001
6.1160679e+001
5.6115765e+001
5.0999676e+001
4.6095512e+001
4.1618401e+001
3.7679916e+001
3.4318756e+001
3.1510481e+001
2.9166573e+001
2.7161137e+001
2.5418226e+001
2.3925632e+001
2.2702909e+001
2.1782911e+001
2.1172001e+001
2.0842781e+001
2.0758417e+001
2.0882057e+001
2.1195164e+001
2.1696236e+001
2.2374943e+001
2.3221661e+001
2.4282331e+001
2.5658327e+001
2.7450457e+001
2.9720274e+001
3.2401108e+001
3.5305363e+001
3.8255722e+001
4.1117302e+001
4.3782421e+001
4.6206093e+001
4.8570255e+001
5.1219559e+001
5.4163887e+001
5.7008610e+001
5.9292011e+001
6.0638363e+001
6.1035755e+001
6.0807640e+001
6.0080795e+001
5.8707043e+001
5.6608742e+001
5.3895576e+001
5.0919487e+001
4.8199059e+001
4.5963337e+001
4.4071445e+001
4.2326092e+001
4.0559849e+001
3.8634529e+001
3.6457134e+001
3.4046597e+001
3.1543177e+001
2.9120358e+001
2.6921396e+001
2.4884800e+001
2.2739723e+001
2.0316799e+001
1.7650328e+001
1.4966714e+001
1.2626538e+001
1.0776730e+001
9.2764606e+000
7.9439425e+000
6.6404781e+000
5.3238993e+000
4.0547929e+000
2.8873692e+000
1.8445793e+000
9.6149385e-001
2.9298005e-001
-1.2005080e-001
-2.4898969e-001
-1.1943877e-002
7.1580791e-001
1.9206731e+000
3.4046640e+000
4.9550066e+000
6.4064212e+000
7.6862178e+000
8.8295879e+000
9.8988209e+000
1.0951916e+001
1.1994600e+001
1.2959134e+001
1.3731080e+001
1.4171164e+001
1.4222365e+001
1.3945571e+001
1.3432922e+001
1.2777320e+001
1.2039914e+001
1.1235089e+001
1.0359021e+001
9.4068289e+000
8.4181633e+000
7.4902701e+000
6.7044477e+000
6.0976677e+000
5.6694541e+000
5.3831973e+000
5.2071185e+000
5.1297240e+000
5.1549911e+000
5.2990017e+000
5.5620546e+000
5.9174142e+000
6.3264651e+000
6.7422876e+000
7.1177235e+000
7.4081526e+000
7.5742798e+000
7.5877604e+000
7.4451571e+000
7.1775808e+000
6.8325248e+000
6.4665065e+000
6.1172528e+000
5.7913351e+000
5.4840984e+000
5.1835113e+000
4.8696165e+000
4.5138941e+000
4.0905571e+000
3.5851831e+000
3.0118499e+000
2.4211962e+000
1.8528109e+000
1.3163030e+000
8.1002957e-001
3.3016902e-001
-9.7804040e-002
-4.0625569e-001
-5.4179800e-001
-4.8917559e-001
-2.4734822e-001
1.7262053e-001
7.3903221e-001
1.3927786e+000
2.0756159e+000
2.7406831e+000
3.3446672e+000
3.8456533e+000
4.2006431e+000
4.3687339e+000
4.3347058e+000
4.1260209e+000
3.7880714e+000
3.3803806e+000
2.9640262e+000
2.5948672e+000
2.3095446e+000
2.1124508e+000
1.9864701e+000
1.8924314e+000
1.7946200e+000
1.6733466e+000
1.5242963e+000
1.3631307e+000
1.2107698e+000
1.0889740e+000
1.0184588e+000
1.0185870e+000
1.1119429e+000
1.3261225e+000
1.6806052e+000
2.1753554e+000
2.7862761e+000
3.4547257e+000
4.1145840e+000
4.7032113e+000
5.1770434e+000
5.5270157e+000
5.7640414e+000
5.9205871e+000
6.0350270e+000
6.1465750e+000
6.2902727e+000
6.4929237e+000
6.7748747e+000
7.1480494e+000
7.6206260e+000
8.1981506e+000
8.8863916e+000
9.6924076e+000
1.0618846e+001
1.1656936e+001
1.2784423e+001
1.3954750e+001
1.5113903e+001
1.6201391e+001
1.7158697e+001
1.7932037e+001
1.8472570e+001
1.8737724e+001
1.8689999e+001
1.8309315e+001
1.7597425e+001
1.6591671e+001
1.5352732e+001
1.3972781e+001
1.2555397e+001
1.1213170e+001
1.0048657e+001
9.1364756e+000
8.5218515e+000
8.1958961e+000
8.1160717e+000
8.1948872e+000
8.3307686e+000
8.4167652e+000
8.3603163e+000
8.1047716e+000
7.6289787e+000
6.9698510e+000
6.1871433e+000
5.3586569e+000
4.5535398e+000
3.8121343e+000
3.1605790e+000
2.6085470e+000
2.1615686e+000
1.8232415e+000
1.5924200e+000
1.4573773e+000
1.4014988e+000
1.4027760e+000
1.4419041e+000
1.5076250e+000
1.5882589e+000
1.6663700e+000
1.7206622e+000
1.7251931e+000
1.6620042e+000
1.5338974e+000
1.3542777e+000
1.1483439e+000
9.3865103e-001
7.3480785e-001
5.4215604e-001
3.6317083e-001
1.9741452e-001
4.0521033e-002
-1.0255057e-001
-2.0408189e-001
-2.4401772e-001
-2.3340088e-001
-1.9029891e-001
-1.3122040e-001
-6.7100830e-002
3.2180026e-003
7.9438955e-002
1.5106758e-001
2.0906857e-001
2.5446236e-001
2.9443684e-001
3.4540412e-001
4.2368993e-001
5.3940302e-001
6.9637018e-001
8.8618231e-001
1.0959431e+000
1.3101876e+000
1.5240287e+000
1.7622243e+000
2.0567198e+000
2.4389105e+000
2.9233909e+000
3.4809201e+000
4.0574822e+000
4.5639405e+000
4.9131222e+000
5.0485363e+000
4.9536486e+000
4.6985040e+000
4.3771853e+000
4.0905733e+000
3.9157457e+000
3.8602166e+000
3.8978601e+000
3.9578357e+000
3.9657817e+000
3.8703959e+000
3.6496716e+000
3.3474844e+000
3.0252197e+000
2.7482469e+000
2.5678606e+000
2.4938643e+000
2.5194955e+000
2.6200736e+000
2.7682562e+000
2.9427948e+000
3.1292100e+000
3.3290606e+000
3.5354662e+000
3.7073140e+000
3.7937398e+000
3.7412136e+000
3.5228295e+000
3.1909709e+000
2.8142967e+000
2.4513588e+000
2.1402941e+000
1.8665857e+000
1.6074212e+000
1.3534497e+000
1.1001848e+000
8.4685349e-001
5.9801793e-001
3.7154594e-001
1.8623893e-001
5.3039744e-002
-2.8587643e-002
-8.8782400e-002
-1.5377319e-001
-2.1412861e-001
-2.5206757e-001
-2.5189012e-001
-2.1215342e-001
-1.7557216e-001
-1.8409160e-001
-2.4094197e-001
-3.3033028e-001
-4.0560058e-001
-4.2319104e-001
-3.7554705e-001
-2.6990661e-001
-1.3331099e-001
2.3654625e-003
1.0586368e-001
1.5230566e-001
1.3854502e-001
7.4382581e-002
-4.2590424e-003
-6.0787641e-002
-7.9091683e-002
-5.6866728e-002
-2.2127325e-002
4.6540201e-003
5.6512363e-002
1.7387781e-001
3.7552851e-001
6.5870857e-001
9.6204674e-001
1.2133311e+000
1.3547291e+000
1.3537332e+000
1.2584879e+000
1.1376300e+000
1.0609972e+000
1.0781177e+000
1.1610405e+000
1.2651172e+000
1.3567971e+000
1.4187611e+000
1.4857309e+000
1.5992223e+000
1.7770529e+000
2.0223057e+000
2.3028951e+000
2.5812163e+000
2.8315859e+000
3.0314000e+000
