Image.
>Pix99999.
  .
5555
5555
2300
900
5555
2
1
0
701
5555
-2.2599000e-002
-2.3079313e-002
-2.3559626e-002
-2.4038944e-002
-2.4519252e-002
-2.4999563e-002
-2.5479877e-002
-2.5960190e-002
-2.6440503e-002
-2.6919829e-002
-2.7400129e-002
-2.7881427e-002
-2.8360771e-002
-2.8838122e-002
-2.9321320e-002
-2.9812457e-002
-3.0281281e-002
-3.0718386e-002
-3.1240501e-002
-3.1882465e-002
-3.2206971e-002
-3.2082140e-002
-3.3142459e-002
-3.5872430e-002
-3.4201570e-002
-2.2070965e-002
-8.0317719e-004
2.3680946e-002
3.5273559e-002
2.4164297e-002
1.7430171e-002
4.2533815e-002
8.6025894e-002
1.1994227e-001
1.0557406e-001
1.6713999e-002
-1.1033314e-001
-2.2086211e-001
-2.5981674e-001
-1.9341038e-001
-7.3301084e-002
2.8576339e-002
6.1271701e-002
-1.8067406e-003
-1.1559244e-001
-2.1836415e-001
-2.6876602e-001
-2.4256761e-001
-1.5858743e-001
-4.8383258e-002
5.8224570e-002
1.3699691e-001
1.8328440e-001
2.0074703e-001
2.0190078e-001
2.0146692e-001
2.1207440e-001
2.4249533e-001
2.8862843e-001
3.3948120e-001
3.7283769e-001
3.6681482e-001
3.1544128e-001
2.2454411e-001
1.2629132e-001
5.7493798e-002
3.8591843e-002
7.6520562e-002
1.4620897e-001
2.1421461e-001
2.5658301e-001
2.6087350e-001
2.4763229e-001
2.4810743e-001
2.9121205e-001
3.9367288e-001
5.2661210e-001
6.4801085e-001
7.2702426e-001
7.4935895e-001
7.5064516e-001
7.7556992e-001
8.3358598e-001
9.1239560e-001
9.6425116e-001
9.4348592e-001
8.6420149e-001
7.6285100e-001
6.7649502e-001
6.3034362e-001
6.0265970e-001
5.6239110e-001
5.1187795e-001
4.6600521e-001
4.3752876e-001
4.3263984e-001
4.3564707e-001
4.2775247e-001
4.1168538e-001
3.9859220e-001
3.9911857e-001
4.2035377e-001
4.5684543e-001
4.9806824e-001
5.3269029e-001
5.5103052e-001
5.5075091e-001
5.3426898e-001
5.1174253e-001
4.9487939e-001
4.8938727e-001
4.9791583e-001
5.2092403e-001
5.5759203e-001
6.0499048e-001
6.5877044e-001
7.1200383e-001
7.5724417e-001
7.8912038e-001
8.0418450e-001
8.0316770e-001
7.9107410e-001
7.8384960e-001
7.9838425e-001
8.3650684e-001
8.8995075e-001
9.3579859e-001
9.4967008e-001
9.2617524e-001
8.7170160e-001
8.0640227e-001
7.5255799e-001
7.1792877e-001
7.0002288e-001
6.8107516e-001
6.4353758e-001
5.9767586e-001
5.6450385e-001
5.5667496e-001
5.7440650e-001
5.8424801e-001
5.4799920e-001
4.7094619e-001
3.8040903e-001
3.0942720e-001
2.8470108e-001
3.0013907e-001
3.3462080e-001
3.6821532e-001
3.8537434e-001
3.8297215e-001
3.6419591e-001
3.3462691e-001
3.0015776e-001
2.6464081e-001
2.3066336e-001
1.9981469e-001
1.7255908e-001
1.4640340e-001
1.2105718e-001
1.1169115e-001
1.3921550e-001
2.1632427e-001
3.4268996e-001
4.8156655e-001
5.8348429e-001
6.2050146e-001
5.8410054e-001
4.9768561e-001
3.9659747e-001
3.0211499e-001
2.2573398e-001
1.7226040e-001
1.4249907e-001
1.3194369e-001
1.3338000e-001
1.3874166e-001
1.4089738e-001
1.3790852e-001
1.3046125e-001
1.1863771e-001
1.0434169e-001
9.9545419e-002
1.2188970e-001
1.9019617e-001
3.1786829e-001
4.9379870e-001
6.8812078e-001
8.4670544e-001
9.1612130e-001
8.9857316e-001
8.3006579e-001
7.5721991e-001
7.1738994e-001
6.9370157e-001
6.4607733e-001
5.6549925e-001
4.6832010e-001
3.9452991e-001
3.8559946e-001
4.3908998e-001
5.2494651e-001
6.0551590e-001
6.4625919e-001
6.3498151e-001
5.7415134e-001
4.7338289e-001
3.4708944e-001
2.1797159e-001
1.1501000e-001
7.4696705e-002
1.2961958e-001
2.7755544e-001
4.8668393e-001
6.8699455e-001
7.9978645e-001
7.9941207e-001
7.0142788e-001
5.5404836e-001
4.1655225e-001
3.2486942e-001
2.9963666e-001
3.6380655e-001
5.3300869e-001
7.7666640e-001
1.0298808e+000
1.2031748e+000
1.2144901e+000
1.0690697e+000
8.3136201e-001
5.7986355e-001
3.8729361e-001
2.8745154e-001
2.8233230e-001
3.4364125e-001
4.2460799e-001
4.6990794e-001
4.3220344e-001
3.1635520e-001
1.6496547e-001
3.6506779e-002
-1.6697733e-002
9.3535986e-004
4.8305795e-002
9.0336382e-002
1.1171649e-001
1.4841186e-001
2.6198781e-001
4.7954267e-001
7.8417462e-001
1.0821893e+000
1.2452166e+000
1.2087561e+000
9.8116452e-001
6.7721701e-001
4.5506993e-001
3.6555606e-001
3.7776482e-001
4.6407905e-001
6.0766029e-001
7.8285313e-001
9.4605553e-001
1.0074555e+000
8.7386239e-001
5.8217728e-001
2.6362520e-001
3.9539941e-002
-1.7507534e-002
3.1616531e-002
5.6719374e-002
3.8435057e-002
5.0999962e-002
1.7209575e-001
4.4630259e-001
8.1192541e-001
1.1378229e+000
1.3263663e+000
1.3392055e+000
1.2475169e+000
1.1774603e+000
1.1549801e+000
1.1147667e+000
9.6728110e-001
6.4440930e-001
2.0538726e-001
-1.9557039e-001
-4.1690177e-001
-3.5655290e-001
1.4809191e-002
6.5647858e-001
1.4458061e+000
2.2188625e+000
2.8797028e+000
3.4231815e+000
3.9807639e+000
4.7805443e+000
6.0421863e+000
7.9273272e+000
1.0426713e+001
1.3362265e+001
1.6385715e+001
1.9092850e+001
2.1367411e+001
2.3383062e+001
2.5498028e+001
2.8134256e+001
3.1479309e+001
3.5431141e+001
3.9512039e+001
4.3085213e+001
4.6068871e+001
4.8881676e+001
5.1915051e+001
5.5389442e+001
5.9231209e+001
6.3161800e+001
6.7018997e+001
7.0778915e+001
7.4416016e+001
7.7897560e+001
8.1280884e+001
8.4685677e+001
8.8124756e+001
9.1439430e+001
9.4160645e+001
9.5679070e+001
9.5932693e+001
9.5366470e+001
9.4334625e+001
9.2971817e+001
9.1196289e+001
8.8809647e+001
8.5823364e+001
8.2456047e+001
7.8880959e+001
7.5174347e+001
7.1330963e+001
6.7303261e+001
6.3120281e+001
5.8893623e+001
5.4748684e+001
5.0804321e+001
4.7171970e+001
4.3939758e+001
4.1111305e+001
3.8613144e+001
3.6375862e+001
3.4355755e+001
3.2542618e+001
3.0951387e+001
2.9586500e+001
2.8436497e+001
2.7478983e+001
2.6687565e+001
2.6050694e+001
2.5573320e+001
2.5268816e+001
2.5159039e+001
2.5283052e+001
2.5686827e+001
2.6370314e+001
2.7275286e+001
2.8288826e+001
2.9268766e+001
3.0153679e+001
3.0978642e+001
3.1810387e+001
3.2755169e+001
3.4054214e+001
3.6004890e+001
3.8511070e+001
4.1064751e+001
4.3242161e+001
4.4864090e+001
4.6079273e+001
4.7299927e+001
4.8751389e+001
5.0353436e+001
5.1799801e+001
5.2652931e+001
5.2715542e+001
5.2117592e+001
5.1157181e+001
5.0204430e+001
4.9432224e+001
4.8761349e+001
4.8040695e+001
4.7104458e+001
4.5819080e+001
4.4123085e+001
4.2129299e+001
4.0103153e+001
3.8158001e+001
3.6178299e+001
3.3966114e+001
3.1334330e+001
2.8364126e+001
2.5424566e+001
2.2762606e+001
2.0393829e+001
1.8229429e+001
1.6124458e+001
1.3990883e+001
1.1820118e+001
9.6077280e+000
7.3528447e+000
5.1495323e+000
3.1975205e+000
1.6423874e+000
5.4911768e-001
4.7261283e-002
3.1024149e-001
1.2088557e+000
2.2598341e+000
3.1455269e+000
3.8677936e+000
4.5384421e+000
5.2990327e+000
6.1682043e+000
6.9889288e+000
7.5325398e+000
7.5716057e+000
7.1205945e+000
6.4881573e+000
5.9030304e+000
5.4011073e+000
4.9715428e+000
4.5986791e+000
4.2769136e+000
4.0089860e+000
3.7639387e+000
3.4697850e+000
3.0867953e+000
2.6379843e+000
2.1927540e+000
1.8586349e+000
1.7108537e+000
1.7594304e+000
1.9539754e+000
2.1843052e+000
2.3560257e+000
2.4261892e+000
2.4208033e+000
2.4415653e+000
2.5696099e+000
2.8293343e+000
3.2145009e+000
3.6909561e+000
4.2098279e+000
4.7100110e+000
5.1288714e+000
5.4115257e+000
5.5385022e+000
5.5384879e+000
5.4407392e+000
5.2611499e+000
5.0181608e+000
4.7399268e+000
4.4649110e+000
4.2370682e+000
4.0632286e+000
3.8940847e+000
3.6816721e+000
3.4032550e+000
3.0664365e+000
2.7116330e+000
2.3567519e+000
1.9770949e+000
1.5588681e+000
1.1226668e+000
7.1210557e-001
3.8760313e-001
1.7094730e-001
2.0254016e-002
-1.0186894e-001
-1.9899072e-001
-2.4385400e-001
-1.8083543e-001
-7.2778761e-004
2.1989787e-001
3.8233057e-001
3.9482120e-001
2.3630388e-001
-3.9057434e-003
-2.2908080e-001
-3.7470356e-001
-4.0374622e-001
-3.1453386e-001
-1.2338647e-001
1.3445596e-001
4.0690702e-001
6.2438834e-001
7.3608977e-001
7.3323566e-001
6.3748503e-001
5.0381184e-001
3.7922502e-001
2.8241700e-001
2.1612325e-001
1.6799198e-001
1.3127285e-001
1.1440894e-001
1.2536769e-001
1.6387527e-001
2.1970840e-001
2.6991594e-001
2.9921257e-001
3.1219342e-001
3.2444075e-001
3.6184716e-001
4.4434026e-001
5.7530850e-001
7.4518824e-001
9.2899942e-001
1.1071763e+000
1.2784078e+000
1.4567971e+000
1.6750047e+000
1.9555080e+000
2.2934351e+000
2.6759114e+000
3.0889640e+000
3.5300500e+000
4.0166922e+000
4.5589008e+000
5.1424999e+000
5.7409091e+000
6.3163853e+000
6.8409028e+000
7.3108382e+000
7.7302885e+000
8.1065102e+000
8.4367962e+000
8.6975584e+000
8.8616943e+000
8.9061346e+000
8.8157673e+000
8.5910168e+000
8.2461243e+000
7.8153801e+000
7.3394055e+000
6.8599510e+000
6.4041567e+000
5.9683833e+000
5.5391121e+000
5.0981655e+000
4.6317101e+000
4.1370077e+000
3.6174893e+000
3.0839555e+000
2.5536358e+000
2.0521195e+000
1.6024594e+000
1.2168207e+000
8.9881414e-001
6.3986558e-001
4.2873526e-001
2.5548324e-001
1.1472824e-001
1.0352001e-002
-5.1194999e-002
-6.3813947e-002
-3.0612839e-002
2.5725037e-002
8.1957936e-002
1.2496857e-001
1.5275690e-001
1.8168309e-001
2.2325988e-001
2.6812148e-001
3.0112714e-001
3.0613512e-001
2.7417389e-001
2.1321000e-001
1.3465139e-001
4.9390540e-002
-2.5317460e-002
-5.8574468e-002
-2.7819335e-002
6.3416079e-002
2.1448028e-001
4.4416362e-001
7.5832194e-001
1.1223140e+000
1.5026469e+000
1.8919363e+000
2.2920647e+000
2.7111056e+000
3.1480160e+000
3.5771980e+000
3.9690843e+000
4.3007503e+000
4.5704637e+000
4.8233814e+000
5.1051784e+000
5.4325848e+000
5.8010883e+000
6.1713290e+000
6.5098963e+000
6.8208261e+000
7.1193428e+000
7.4258165e+000
7.7582803e+000
8.1246958e+000
8.5245810e+000
8.9420166e+000
9.3513889e+000
9.7135725e+000
9.9993534e+000
1.0216101e+001
1.0382643e+001
1.0527435e+001
1.0671851e+001
1.0812406e+001
1.0942620e+001
1.1059628e+001
1.1161200e+001
1.1243114e+001
1.1297288e+001
1.1299942e+001
1.1230228e+001
1.1083848e+001
1.0863803e+001
1.0589010e+001
1.0276956e+001
9.9325361e+000
9.5526323e+000
9.1286201e+000
8.6608200e+000
8.1811876e+000
7.7332897e+000
7.3692207e+000
7.1165805e+000
6.9234667e+000
6.7153478e+000
6.4118543e+000
5.9647670e+000
5.4277658e+000
4.8825006e+000
4.4170332e+000
4.0933113e+000
3.8873906e+000
3.7454305e+000
3.5873842e+000
3.3492401e+000
3.0363557e+000
2.6791458e+000
2.3318129e+000
2.0391448e+000
1.7977238e+000
1.5906571e+000
1.3952529e+000
1.1928595e+000
9.8229849e-001
7.6836199e-001
5.6108403e-001
3.6991882e-001
1.9869703e-001
5.5759024e-002
-3.1297520e-002
-3.0775994e-002
8.6100101e-002
3.3241779e-001
6.7117977e-001
1.0516903e+000
1.4194601e+000
1.7288369e+000
1.9687945e+000
2.1368344e+000
2.2300067e+000
2.2388098e+000
2.1329246e+000
1.8843679e+000
1.4948378e+000
9.9939370e-001
5.2566504e-001
1.9123074e-001
-2.6739165e-003
-8.0709316e-002
-5.6734420e-002
5.5120692e-002
2.3003356e-001
4.4302005e-001
6.7793965e-001
9.1041732e-001
1.0775129e+000
1.1170080e+000
1.0047722e+000
7.4379241e-001
4.0317357e-001
6.3702345e-002
-2.1209483e-001
-3.8484800e-001
-4.8663598e-001
-5.6210864e-001
-6.3534892e-001
-7.0894349e-001
-7.2125465e-001
-6.1014831e-001
-3.7523833e-001
-3.1560000e-002
