Image.
>Pix99999.
  .
5555
5555
2300
900
5555
2
1
0
701
5555
-3.4191001e-003
-3.4902983e-003
-3.5613966e-003
-3.6325946e-003
-3.7036932e-003
-3.7747915e-003
-3.8458898e-003
-3.9170869e-003
-3.9881864e-003
-4.0592845e-003
-4.1304817e-003
-4.2015812e-003
-4.2726793e-003
-4.3438757e-003
-4.4149761e-003
-4.4860747e-003
-4.5572701e-003
-4.6283710e-003
-4.6994691e-003
-4.7706645e-003
-4.8417654e-003
-4.9128640e-003
-4.9840594e-003
-5.0551607e-003
-5.1262588e-003
-5.1974538e-003
-1.9314286e-004
9.8440669e-002
2.1311641e-001
2.7535930e-001
3.2979414e-001
3.5518137e-001
3.7874252e-001
4.0786257e-001
4.3318796e-001
4.2613551e-001
4.1826320e-001
4.1412824e-001
4.2315018e-001
4.7162136e-001
5.2232826e-001
5.7306403e-001
6.1640358e-001
6.4768147e-001
7.0708185e-001
8.0247158e-001
9.2731148e-001
1.0783305e+000
1.1706588e+000
1.2177130e+000
1.1797571e+000
1.0943625e+000
1.0205081e+000
9.5301569e-001
9.5925349e-001
9.8930794e-001
1.0319113e+000
1.0771031e+000
1.0950158e+000
1.1094863e+000
1.1755228e+000
1.2503381e+000
1.3713754e+000
1.4892430e+000
1.5631274e+000
1.6148572e+000
1.6017480e+000
1.5749416e+000
1.5300463e+000
1.5008008e+000
1.5050300e+000
1.5376095e+000
1.6063327e+000
1.6829492e+000
1.7642419e+000
1.8212036e+000
1.8562388e+000
1.8656740e+000
1.8588471e+000
1.8697877e+000
1.8912286e+000
1.9317359e+000
1.9797834e+000
2.0153804e+000
2.0467680e+000
2.0907385e+000
2.1377888e+000
2.1980696e+000
2.2574704e+000
2.2600119e+000
2.2485814e+000
2.1935821e+000
2.1439955e+000
2.1464581e+000
2.1754162e+000
2.2612021e+000
2.3404400e+000
2.3867493e+000
2.3937039e+000
2.3429010e+000
2.2793858e+000
2.2104712e+000
2.1581128e+000
2.1236086e+000
2.1110668e+000
2.1145451e+000
2.1433179e+000
2.1873534e+000
2.2252686e+000
2.2590146e+000
2.2545915e+000
2.2346251e+000
2.2079320e+000
2.1796846e+000
2.1848946e+000
2.1985836e+000
2.2231755e+000
2.2475052e+000
2.2465115e+000
2.2367849e+000
2.2060001e+000
2.1732833e+000
2.1491215e+000
2.1358855e+000
2.1469011e+000
2.1639109e+000
2.1835642e+000
2.1996422e+000
2.2094274e+000
2.2134471e+000
2.2118013e+000
2.1881335e+000
2.1442571e+000
2.0846748e+000
2.0156341e+000
1.9644064e+000
1.9255886e+000
1.9007057e+000
1.8821894e+000
1.8319768e+000
1.7680000e+000
1.6928509e+000
1.6143054e+000
1.5965494e+000
1.5961794e+000
1.6169729e+000
1.6403655e+000
1.6455740e+000
1.6479080e+000
1.6588902e+000
1.6757643e+000
1.7044618e+000
1.7378389e+000
1.7743473e+000
1.8069140e+000
1.8304614e+000
1.8419611e+000
1.8396336e+000
1.8308121e+000
1.8186302e+000
1.8062886e+000
1.7946451e+000
1.7975338e+000
1.8117045e+000
1.8245354e+000
1.8350956e+000
1.7996622e+000
1.7399300e+000
1.6778560e+000
1.6159686e+000
1.5832071e+000
1.5605720e+000
1.5288509e+000
1.4941759e+000
1.4636583e+000
1.4372000e+000
1.4241377e+000
1.4128597e+000
1.3900385e+000
1.3608969e+000
1.3237828e+000
1.2895036e+000
1.2666700e+000
1.2513338e+000
1.2436457e+000
1.2405814e+000
1.2413217e+000
1.2460505e+000
1.2533783e+000
1.2464480e+000
1.2251043e+000
1.1985490e+000
1.1706349e+000
1.1542085e+000
1.1456954e+000
1.1120293e+000
1.0637280e+000
1.0051558e+000
9.4223601e-001
9.5342958e-001
9.9757141e-001
1.0928638e+000
1.1941549e+000
1.2001450e+000
1.1387949e+000
9.4327819e-001
6.9936621e-001
4.5999253e-001
2.5519371e-001
1.2787661e-001
5.3737998e-002
2.9912248e-002
4.7769327e-002
1.0439106e-001
1.7148140e-001
2.3450464e-001
2.4703737e-001
2.0565039e-001
1.3186337e-001
4.2278972e-002
-4.7326084e-002
-1.3330409e-001
-2.0687695e-001
-2.7177620e-001
-3.0052760e-001
-3.0797678e-001
-3.0701330e-001
-3.0317852e-001
-3.3245492e-001
-3.7655675e-001
-4.0709874e-001
-4.2045352e-001
-3.7123555e-001
-2.8633109e-001
-1.7545637e-001
-7.5417489e-002
-3.8934086e-002
-5.3106304e-002
-1.1894914e-001
-1.9860438e-001
-2.6511115e-001
-3.1220874e-001
-3.3720878e-001
-3.4750885e-001
-3.4943521e-001
-3.3272350e-001
-2.9928806e-001
-2.7216056e-001
-2.5397217e-001
-2.5376105e-001
-2.6610145e-001
-2.3668267e-001
-1.7721000e-001
-1.0577248e-001
-3.0694174e-002
5.8982139e-003
1.9747252e-002
3.4987625e-002
5.5462409e-002
1.0901505e-001
1.8654743e-001
2.9164356e-001
3.9193863e-001
4.2795819e-001
4.0152273e-001
2.9595536e-001
1.6872460e-001
7.3235087e-002
3.0690040e-002
-3.1106621e-002
-7.4312456e-002
-5.2204411e-002
3.8904972e-002
1.8769234e-001
3.1149280e-001
3.8857570e-001
3.3479199e-001
1.6577998e-001
-1.4521554e-002
-1.8331832e-001
-1.9537000e-001
-8.6798549e-002
3.7146218e-002
1.5620187e-001
1.1046221e-001
-4.0091507e-002
-1.4045520e-001
-1.6721959e-001
1.1981726e-003
3.1494975e-001
8.1963998e-001
1.4035876e+000
1.8633715e+000
2.2435658e+000
2.5984559e+000
3.1117287e+000
3.9539337e+000
5.3595080e+000
7.4378982e+000
1.0348845e+001
1.4046286e+001
1.7863279e+001
2.1481819e+001
2.4777710e+001
2.7784332e+001
3.1312370e+001
3.5439327e+001
4.0312675e+001
4.5769600e+001
5.0504082e+001
5.4564613e+001
5.8459160e+001
6.2314255e+001
6.6896477e+001
7.2021278e+001
7.7109947e+001
8.2048828e+001
8.6455757e+001
9.0321968e+001
9.3590515e+001
9.6261459e+001
9.8346130e+001
9.9895203e+001
1.0100394e+002
1.0138852e+002
1.0082893e+002
9.9390808e+001
9.7246361e+001
9.4481895e+001
9.1242760e+001
8.7325333e+001
8.2736565e+001
7.8031586e+001
7.3414665e+001
6.9009178e+001
6.4816254e+001
6.0498081e+001
5.6019985e+001
5.1690758e+001
4.7528755e+001
4.3621315e+001
3.9982689e+001
3.6703945e+001
3.3807762e+001
3.1327520e+001
2.9249149e+001
2.7457443e+001
2.5963461e+001
2.4738005e+001
2.3781759e+001
2.3052000e+001
2.2533134e+001
2.2174776e+001
2.1968601e+001
2.1885149e+001
2.1922272e+001
2.2065407e+001
2.2302101e+001
2.2618069e+001
2.3064365e+001
2.3655001e+001
2.4412920e+001
2.5336128e+001
2.6347536e+001
2.7427240e+001
2.8520386e+001
2.9624151e+001
3.0909960e+001
3.2473892e+001
3.4953663e+001
3.8413029e+001
4.2249359e+001
4.6245823e+001
4.9408302e+001
5.1764854e+001
5.3794357e+001
5.5499752e+001
5.6998543e+001
5.8115559e+001
5.8633034e+001
5.8488827e+001
5.7716423e+001
5.6561131e+001
5.5329231e+001
5.4035149e+001
5.2693451e+001
5.1120178e+001
4.9197746e+001
4.6981770e+001
4.4475185e+001
4.2110672e+001
4.0043781e+001
3.8057838e+001
3.6125996e+001
3.3668186e+001
3.0522886e+001
2.7338823e+001
2.4169142e+001
2.1454523e+001
1.9238970e+001
1.7018572e+001
1.4789200e+001
1.2537074e+001
1.0275612e+001
8.0500612e+000
5.9219713e+000
3.9870338e+000
2.3534398e+000
1.1350377e+000
3.6173260e-001
7.1542412e-002
3.4501588e-001
1.0975239e+000
2.0027030e+000
2.8676546e+000
3.5914116e+000
4.0949025e+000
4.5459590e+000
5.0103431e+000
5.5140338e+000
6.0751200e+000
6.5297790e+000
6.8009038e+000
6.8993359e+000
6.7498479e+000
6.5433249e+000
6.2646308e+000
6.0024662e+000
5.7596064e+000
5.5091367e+000
5.2185817e+000
4.7956653e+000
4.2287092e+000
3.5931308e+000
2.9441440e+000
2.4247580e+000
2.0575256e+000
1.8483697e+000
1.7811569e+000
1.8209622e+000
1.9454914e+000
2.1369939e+000
2.3678861e+000
2.6298895e+000
2.9134064e+000
3.2222056e+000
3.5553896e+000
3.9215405e+000
4.3102961e+000
4.7304134e+000
5.1672354e+000
5.6251078e+000
6.0304503e+000
6.3298597e+000
6.4853177e+000
6.4099398e+000
6.1943994e+000
5.7932224e+000
5.3483047e+000
4.8607016e+000
4.3904600e+000
3.9510949e+000
3.5518501e+000
3.1976728e+000
2.8809183e+000
2.5650022e+000
2.1839015e+000
1.7386718e+000
1.2222288e+000
7.2255576e-001
3.4587729e-001
8.9952096e-002
1.6110709e-002
2.9528160e-002
1.2373689e-001
2.4767822e-001
4.2229080e-001
6.1621505e-001
8.4072483e-001
1.0591443e+000
1.2604200e+000
1.4437525e+000
1.5917699e+000
1.7467051e+000
1.9178932e+000
2.1232150e+000
2.3858566e+000
2.6959167e+000
3.0656190e+000
3.4541020e+000
3.8504798e+000
4.2090225e+000
4.5182343e+000
4.7689071e+000
4.9613843e+000
5.0985823e+000
5.1929016e+000
5.2492609e+000
5.2866397e+000
5.3144646e+000
5.3376713e+000
5.3554044e+000
5.3635683e+000
5.3484778e+000
5.3231921e+000
5.2794037e+000
5.2455540e+000
5.2406144e+000
5.2548504e+000
5.3109984e+000
5.3735113e+000
5.4485497e+000
5.5238190e+000
5.6012583e+000
5.6844735e+000
5.7771907e+000
5.8799868e+000
5.9971323e+000
6.1293378e+000
6.2801347e+000
6.4491830e+000
6.6316886e+000
6.8129497e+000
6.9815068e+000
7.1081519e+000
7.2004251e+000
7.2449121e+000
7.2683849e+000
7.2815061e+000
7.2821646e+000
7.2515354e+000
7.1823258e+000
7.0070119e+000
6.7807832e+000
6.4238663e+000
6.0310373e+000
5.5448422e+000
5.0445938e+000
4.5129280e+000
3.9886701e+000
3.4808228e+000
2.9882927e+000
2.5254121e+000
2.0920398e+000
1.7066200e+000
1.3679514e+000
1.0850728e+000
8.2813090e-001
5.9631664e-001
3.7411845e-001
1.6976467e-001
1.2584150e-002
-1.0187208e-001
-1.4901809e-001
-1.5862925e-001
-1.3522157e-001
-9.1322020e-002
-7.6374263e-003
1.0978428e-001
3.2809001e-001
5.7701600e-001
8.9404213e-001
1.1975636e+000
1.4316553e+000
1.6316234e+000
1.7266665e+000
1.8001540e+000
1.8177570e+000
1.8039514e+000
1.7233821e+000
1.6012529e+000
1.4125036e+000
1.2119943e+000
9.9681664e-001
7.8172058e-001
5.6958032e-001
3.7351805e-001
2.0131257e-001
8.7119564e-002
1.9634496e-002
-2.3663659e-003
4.2939335e-003
6.4743683e-002
1.5453532e-001
2.9053497e-001
4.4137615e-001
6.0417908e-001
7.6405722e-001
8.9724398e-001
1.0177292e+000
1.0833114e+000
1.1354468e+000
1.1353297e+000
1.1300135e+000
1.1099980e+000
1.1041900e+000
1.1334623e+000
1.1688452e+000
1.2126263e+000
1.2300535e+000
1.2059715e+000
1.1697872e+000
1.1228501e+000
1.1048580e+000
1.1195537e+000
1.1692686e+000
1.2436123e+000
1.3041750e+000
1.3453497e+000
1.3069930e+000
1.2236328e+000
1.0723217e+000
8.9830625e-001
7.1988332e-001
5.4464519e-001
4.0006799e-001
2.7179641e-001
2.3501776e-001
2.2017205e-001
3.1701085e-001
4.0615600e-001
4.5907196e-001
4.7570452e-001
3.7883970e-001
2.9079074e-001
2.2770464e-001
2.0761542e-001
2.6259094e-001
2.8019509e-001
2.3776555e-001
1.3002390e-001
-4.8524827e-002
-2.0130509e-001
-3.2442835e-001
-3.7786591e-001
-3.7920162e-001
-3.3477542e-001
-2.7116120e-001
-2.5567102e-001
-2.7066696e-001
-4.1377741e-001
-5.9453088e-001
-8.1094313e-001
-1.0236849e+000
-1.1269361e+000
-1.2103236e+000
-1.1684672e+000
-1.1220168e+000
-1.0511773e+000
-9.8338819e-001
-9.2891783e-001
-8.6925447e-001
-7.9334438e-001
-7.1146518e-001
-6.1694360e-001
-5.3662068e-001
-4.8134738e-001
-4.3644974e-001
-4.0276721e-001
-3.2785079e-001
-2.0957994e-001
-7.4220508e-002
6.9609880e-002
1.2192090e-001
1.1449178e-001
2.3616597e-002
-1.0209959e-001
-1.7319874e-001
-2.2178063e-001
-1.6549401e-001
-8.7626405e-002
-2.6257116e-002
2.9499982e-002
-1.2554936e-003
-3.1829882e-002
-1.0492393e-002
2.3012906e-003
7.2031140e-002
2.2345261e-001
4.4240397e-001
6.5975630e-001
8.7238485e-001
1.0817097e+000
1.2827938e+000
1.4327657e+000
1.4993228e+000
1.4796100e+000
1.3549665e+000
1.2130864e+000
1.0562161e+000
9.7540969e-001
9.4962198e-001
1.0390199e+000
1.1897150e+000
1.3810794e+000
1.5879600e+000
1.7360611e+000
1.8685669e+000
1.8840905e+000
1.8804973e+000
1.6689000e+000
