Image.
>Pix99999.
  .
5555
5555
2300
900
5555
2
1
0
701
5555
-2.8569000e-002
-2.9164148e-002
-2.9758299e-002
-3.0352451e-002
-3.0946601e-002
-3.1540748e-002
-3.2135893e-002
-3.2730050e-002
-3.3324201e-002
-3.3918347e-002
-3.4512497e-002
-3.5106648e-002
-3.5701782e-002
-3.6295950e-002
-3.6890101e-002
-3.7484247e-002
-3.8078398e-002
-3.8673528e-002
-3.9267700e-002
-3.9861850e-002
-4.0456001e-002
-4.1050147e-002
-4.1645270e-002
-4.2239450e-002
-4.2833600e-002
-4.3427750e-002
-1.6138200e-003
1.3045624e-003
6.3130916e-003
-2.8460205e-002
-6.9119141e-002
-7.4139588e-002
-7.3978946e-002
-1.5487158e-002
4.5127269e-002
1.0043420e-001
1.4530657e-001
1.4377302e-001
1.3364892e-001
1.0496861e-001
8.5180745e-002
8.7117165e-002
1.0470916e-001
1.4577498e-001
1.8409514e-001
2.1718143e-001
2.2943634e-001
2.2192220e-001
2.1178286e-001
2.0064540e-001
2.1823643e-001
2.5244305e-001
3.0256468e-001
3.5918444e-001
3.9523783e-001
4.2445478e-001
4.3883640e-001
4.4989324e-001
4.6665573e-001
4.8427066e-001
4.9912685e-001
5.1181811e-001
5.0284779e-001
4.8871142e-001
4.5670936e-001
4.2847401e-001
4.2033890e-001
4.2904699e-001
4.7576874e-001
5.3504616e-001
6.1082101e-001
6.8311542e-001
7.4792480e-001
7.9302680e-001
8.1679976e-001
8.2165140e-001
8.1175309e-001
8.0423552e-001
7.9945254e-001
7.9486030e-001
7.9020369e-001
7.7035719e-001
7.4408996e-001
7.2807115e-001
7.1550721e-001
7.3923624e-001
7.7136749e-001
8.1880671e-001
8.6747777e-001
8.9476550e-001
9.1487771e-001
9.0413988e-001
8.8663858e-001
8.5890001e-001
8.3206856e-001
8.1252074e-001
7.9901719e-001
7.9652059e-001
8.0037320e-001
8.1215566e-001
8.2208145e-001
8.2808506e-001
8.2487196e-001
8.1271052e-001
8.0479550e-001
8.0138850e-001
8.2181942e-001
8.5756201e-001
9.0380740e-001
9.5454407e-001
9.8015571e-001
9.9510223e-001
9.8516202e-001
9.6755445e-001
9.5171797e-001
9.3644863e-001
9.1692060e-001
8.9626652e-001
8.7196440e-001
8.4947169e-001
8.4088284e-001
8.3662933e-001
8.3826202e-001
8.4373695e-001
8.5633647e-001
8.7027073e-001
8.8422364e-001
8.7898815e-001
8.4448624e-001
7.9750627e-001
7.4194032e-001
7.1515042e-001
7.1782404e-001
7.4497080e-001
7.8741616e-001
8.2149726e-001
8.4871387e-001
8.6649358e-001
8.7996095e-001
8.7415111e-001
8.6036801e-001
8.1554693e-001
7.6038784e-001
7.1883470e-001
6.8304169e-001
6.8069571e-001
6.8780494e-001
7.0191675e-001
7.1837389e-001
7.3793197e-001
7.5516355e-001
7.6343274e-001
7.5777256e-001
7.2509074e-001
6.8323082e-001
6.3597250e-001
5.9562969e-001
5.6670994e-001
5.5064911e-001
5.4649979e-001
5.6304431e-001
5.9654766e-001
6.5052867e-001
7.1770519e-001
7.7297610e-001
8.1912178e-001
8.1578600e-001
7.8688347e-001
7.4070877e-001
6.8833297e-001
6.5539002e-001
6.2953085e-001
6.0260767e-001
5.7483011e-001
5.4581296e-001
5.1690751e-001
4.9014235e-001
4.6063271e-001
4.1633746e-001
3.6664340e-001
3.1411457e-001
2.7214864e-001
2.5411081e-001
2.5052097e-001
2.5994131e-001
2.6616365e-001
2.6408336e-001
2.5912249e-001
2.5290719e-001
2.5606748e-001
2.6706272e-001
2.8781506e-001
3.1475610e-001
3.2605797e-001
3.2679111e-001
2.8694355e-001
2.2560599e-001
1.6462165e-001
1.0470207e-001
9.2772365e-002
1.0175086e-001
1.3948426e-001
1.8492688e-001
2.0550260e-001
2.0517424e-001
1.5458772e-001
8.0163941e-002
-1.0211533e-002
-9.9269256e-002
-1.7112519e-001
-2.1533100e-001
-2.1796711e-001
-1.7131229e-001
-7.0252478e-002
3.8364477e-002
1.3348946e-001
1.6271074e-001
1.2486150e-001
4.8425220e-002
-4.6427175e-002
-1.3849160e-001
-2.2442532e-001
-2.7726564e-001
-3.0801344e-001
-2.7699441e-001
-2.1100357e-001
-1.4057025e-001
-7.1263969e-002
-6.8104953e-002
-9.7766958e-002
-1.3643715e-001
-1.7222139e-001
-1.6649988e-001
-1.3982677e-001
-1.0601515e-001
-8.6924210e-002
-1.1940371e-001
-1.8394016e-001
-2.7120119e-001
-3.5268429e-001
-4.0696287e-001
-4.3968627e-001
-4.5475623e-001
-4.6210316e-001
-4.6772486e-001
-4.5062450e-001
-4.1035628e-001
-3.5516965e-001
-2.9117206e-001
-2.3912881e-001
-1.9801214e-001
-1.5167898e-001
-1.0128520e-001
-6.1625276e-002
-3.0390650e-002
-2.0562477e-002
-2.2847565e-002
-1.8905232e-002
-9.3789799e-003
1.7522190e-002
6.0495399e-002
1.3293365e-001
2.1368608e-001
2.6890218e-001
2.8430435e-001
2.3032586e-001
1.5255980e-001
9.3071096e-002
2.8111668e-002
-5.6911089e-002
-1.1417610e-001
-1.2118050e-001
-6.3780822e-002
5.1946122e-002
1.5706488e-001
2.3080036e-001
1.9446823e-001
5.9221376e-002
-8.2775384e-002
-2.1239285e-001
-2.3295400e-001
-1.6985214e-001
-9.7483329e-002
-2.8654972e-002
-5.3396754e-002
-1.3667512e-001
-1.7838077e-001
-1.6186510e-001
1.8954352e-002
3.4744543e-001
8.7370956e-001
1.4936097e+000
2.0440891e+000
2.5469701e+000
3.0301521e+000
3.6611300e+000
4.5950475e+000
6.0733261e+000
8.2127886e+000
1.1178738e+001
1.4929572e+001
1.8782391e+001
2.2415937e+001
2.5713442e+001
2.8713240e+001
3.2236805e+001
3.6363331e+001
4.1263065e+001
4.6770840e+001
5.1619568e+001
5.5845772e+001
6.0002991e+001
6.4213341e+001
6.9365166e+001
7.5246292e+001
8.1257057e+001
8.7201881e+001
9.2468231e+001
9.6993752e+001
1.0058012e+002
1.0313885e+002
1.0453525e+002
1.0475661e+002
1.0387369e+002
1.0215794e+002
9.9957146e+001
9.7518997e+001
9.5064507e+001
9.2255478e+001
8.8944298e+001
8.4788002e+001
7.9754883e+001
7.4608131e+001
6.9623116e+001
6.5015671e+001
6.0784473e+001
5.6512600e+001
5.2141064e+001
4.7903507e+001
4.3814919e+001
3.9999886e+001
3.6478798e+001
3.3377548e+001
3.0714651e+001
2.8496462e+001
2.6701672e+001
2.5188515e+001
2.3959055e+001
2.2967617e+001
2.2222557e+001
2.1697498e+001
2.1383837e+001
2.1237663e+001
2.1233786e+001
2.1328695e+001
2.1514343e+001
2.1775988e+001
2.2106789e+001
2.2497292e+001
2.2986158e+001
2.3584515e+001
2.4315285e+001
2.5177776e+001
2.6147795e+001
2.7217360e+001
2.8374386e+001
2.9622246e+001
3.1095850e+001
3.2888081e+001
3.5567047e+001
3.9190987e+001
4.3163063e+001
4.7264683e+001
5.0511135e+001
5.2940113e+001
5.5064823e+001
5.6903889e+001
5.8595055e+001
5.9912540e+001
6.0551968e+001
6.0404400e+001
5.9461937e+001
5.7991142e+001
5.6335125e+001
5.4556789e+001
5.2713402e+001
5.0780785e+001
4.8740627e+001
4.6558605e+001
4.4205158e+001
4.1859184e+001
3.9581192e+001
3.7348282e+001
3.5166916e+001
3.2535400e+001
2.9317385e+001
2.6103376e+001
2.2959562e+001
2.0303940e+001
1.8184681e+001
1.6064571e+001
1.3933643e+001
1.1754786e+001
9.5464993e+000
7.3815231e+000
5.3300529e+000
3.5008321e+000
1.9937471e+000
9.0091807e-001
2.4680206e-001
5.6354471e-002
4.1193879e-001
1.2485411e+000
2.2596259e+000
3.2628629e+000
4.1234322e+000
4.7401137e+000
5.2591248e+000
5.7257128e+000
6.1841550e+000
6.6437998e+000
7.0125537e+000
7.2328424e+000
7.3074970e+000
7.1710796e+000
6.9689569e+000
6.6815643e+000
6.4009099e+000
6.1255956e+000
5.8319826e+000
5.4920444e+000
5.0406833e+000
4.4760427e+000
3.8794022e+000
3.2970181e+000
2.8365493e+000
2.5252542e+000
2.3780415e+000
2.3847063e+000
2.5187631e+000
2.7272770e+000
2.9576640e+000
3.1905446e+000
3.4148588e+000
3.6583776e+000
3.9472594e+000
4.2811489e+000
4.6788878e+000
5.0973558e+000
5.5353017e+000
5.9463711e+000
6.3005462e+000
6.5788121e+000
6.7185550e+000
6.7488446e+000
6.6036949e+000
6.3524742e+000
5.9596715e+000
5.5287189e+000
5.0602612e+000
4.6056399e+000
4.1726608e+000
3.7615042e+000
3.3747773e+000
3.0084176e+000
2.6383064e+000
2.2227125e+000
1.7642351e+000
1.2606542e+000
7.8152460e-001
4.1427755e-001
1.5213054e-001
4.4249326e-002
2.0023022e-002
8.5318416e-002
1.9383216e-001
3.8129199e-001
6.0500914e-001
8.8913655e-001
1.1617342e+000
1.4018342e+000
1.5953450e+000
1.7023197e+000
1.7998540e+000
1.8889359e+000
2.0112307e+000
2.1913497e+000
2.4273684e+000
2.7388353e+000
3.0946398e+000
3.4830401e+000
3.8356280e+000
4.1296730e+000
4.3287210e+000
4.4438114e+000
4.4980378e+000
4.5104771e+000
4.4972558e+000
4.4632435e+000
4.3999109e+000
4.3255572e+000
4.2457013e+000
4.1765704e+000
4.1387844e+000
4.1123676e+000
4.1035109e+000
4.0934720e+000
4.0770435e+000
4.0638995e+000
4.0588818e+000
4.0647197e+000
4.0923886e+000
4.1275301e+000
4.1769195e+000
4.2368298e+000
4.3133435e+000
4.4038839e+000
4.5092239e+000
4.6136618e+000
4.7159467e+000
4.8133454e+000
4.9093108e+000
5.0134187e+000
5.1248369e+000
5.2440262e+000
5.3627501e+000
5.4661102e+000
5.5490408e+000
5.5827389e+000
5.5816059e+000
5.5108728e+000
5.4073024e+000
5.2389522e+000
5.0406461e+000
4.7659202e+000
4.4546218e+000
4.0435171e+000
3.6064072e+000
3.1101122e+000
2.6191320e+000
2.1428599e+000
1.6958249e+000
1.3010248e+000
9.3943584e-001
6.2712663e-001
3.4426188e-001
1.0122956e-001
-1.0347913e-001
-2.6661807e-001
-3.9517134e-001
-4.9644500e-001
-5.8682603e-001
-6.6560513e-001
-7.2156793e-001
-7.5593942e-001
-7.4247420e-001
-7.0127630e-001
-6.1038405e-001
-4.8688182e-001
-2.7620721e-001
-2.5326401e-002
3.4030741e-001
7.1309137e-001
1.0848202e+000
1.4094126e+000
1.5862986e+000
1.7037909e+000
1.6747230e+000
1.6108217e+000
1.4788421e+000
1.3416972e+000
1.1988084e+000
1.0701578e+000
9.5883209e-001
8.4294319e-001
7.1668607e-001
5.5873775e-001
3.7606710e-001
2.0158646e-001
4.8143528e-002
-2.2846200e-002
-3.2679997e-002
8.5077718e-002
2.6099274e-001
4.8609754e-001
7.1196920e-001
8.7148446e-001
9.9466360e-001
9.8789960e-001
9.6158677e-001
8.9575970e-001
8.5522491e-001
9.2441994e-001
1.0190039e+000
1.1917280e+000
1.3534399e+000
1.4856669e+000
1.5908164e+000
1.6414357e+000
1.6676128e+000
1.6537286e+000
1.6181314e+000
1.5570461e+000
1.5018991e+000
1.4572034e+000
1.4483700e+000
1.4664097e+000
1.4834789e+000
1.4924165e+000
1.4487380e+000
1.3776928e+000
1.2800592e+000
1.1763389e+000
1.0914453e+000
1.0101006e+000
9.2468381e-001
8.3547962e-001
7.2264498e-001
6.1252606e-001
5.2738959e-001
4.4766915e-001
3.9119625e-001
3.3105946e-001
2.6006350e-001
1.9601765e-001
1.4992107e-001
1.1948337e-001
1.1670310e-001
1.0443829e-001
7.5687274e-002
1.8502399e-002
-7.3522031e-002
-1.9505022e-001
-3.4395441e-001
-5.0803697e-001
-6.7822087e-001
-8.0500513e-001
-9.0363729e-001
-9.4334900e-001
-9.6105403e-001
-9.8497599e-001
-1.0130779e+000
-1.0689294e+000
-1.1302023e+000
-1.1989601e+000
-1.2673000e+000
-1.3230734e+000
-1.3750141e+000
-1.4013829e+000
-1.4241172e+000
-1.4305999e+000
-1.4268500e+000
-1.3910909e+000
-1.3422158e+000
-1.2638320e+000
-1.1887257e+000
-1.1197091e+000
-1.0585978e+000
-1.0078664e+000
-9.5206249e-001
-8.9041483e-001
-8.1744808e-001
-7.3619694e-001
-6.6739351e-001
-6.0752445e-001
-5.7525700e-001
-5.5580860e-001
-5.4398066e-001
-5.3435075e-001
-5.1791906e-001
-4.9839646e-001
-4.4103143e-001
-3.7733200e-001
-2.7071229e-001
-1.6220319e-001
-5.3251717e-002
1.2467317e-003
3.9147213e-002
1.2562259e-001
2.6943308e-001
4.1734830e-001
5.7684231e-001
7.1672773e-001
8.1415510e-001
8.8106847e-001
8.9895976e-001
8.9849579e-001
8.7582123e-001
8.5330552e-001
8.3119464e-001
8.2722557e-001
8.3629525e-001
8.6790955e-001
9.1130841e-001
9.3004215e-001
9.3917888e-001
8.8860220e-001
8.2263637e-001
7.6819980e-001
7.1579385e-001
7.3243999e-001
