Image.
>Pix99999.
  .
5555
5555
2300
900
5555
2
1
0
701
5555
-6.9046997e-002
-7.0482947e-002
-7.1919888e-002
-7.3355839e-002
-7.4791782e-002
-7.6228715e-002
-7.7664673e-002
-7.9101615e-002
-8.0537565e-002
-8.1974499e-002
-8.3410457e-002
-8.4847391e-002
-8.6283349e-002
-8.7720275e-002
-8.9156240e-002
-9.0593159e-002
-9.2029124e-002
-9.3466051e-002
-9.4902024e-002
-9.6338943e-002
-9.7774915e-002
-9.9210858e-002
-1.0064487e-001
-1.0208269e-001
-1.0352062e-001
-1.0495857e-001
-3.9003715e-003
2.2968529e-002
3.2446478e-002
1.4164537e-002
-8.1367064e-003
-2.8365253e-002
-4.8179578e-002
-6.2228762e-002
-7.1497992e-002
-4.4854447e-002
-1.6903149e-002
8.6487839e-003
1.4735838e-002
-3.8085409e-002
-1.0281675e-001
-1.8632667e-001
-2.4256700e-001
-2.5247568e-001
-2.2413972e-001
-1.5165713e-001
-7.2541758e-002
1.0270527e-002
7.2518460e-002
1.1921890e-001
1.4762144e-001
1.6605386e-001
1.3226542e-001
7.5858071e-002
-5.6105927e-002
-2.1214378e-001
-2.8991520e-001
-3.4933642e-001
-2.3542172e-001
-9.6193239e-002
8.7860860e-003
1.0081813e-001
8.2291178e-002
5.6114420e-002
4.6156179e-002
3.8526464e-002
3.3611521e-002
8.7775420e-003
-6.7769729e-002
-1.4758268e-001
-2.2359701e-001
-2.7683538e-001
-2.9764515e-001
-3.2682198e-001
-3.6925128e-001
-4.2950606e-001
-5.0427628e-001
-5.3530061e-001
-5.3484011e-001
-4.8042074e-001
-3.9835286e-001
-3.6710879e-001
-3.5839251e-001
-4.3068042e-001
-5.2814043e-001
-5.5536836e-001
-5.6579530e-001
-4.7249669e-001
-3.6414257e-001
-2.8029481e-001
-2.0269115e-001
-1.4516971e-001
-9.2768341e-002
-5.0098531e-002
-2.1660049e-002
-3.1901781e-002
-5.3077742e-002
-8.5814841e-002
-1.2173130e-001
-1.6012116e-001
-2.0730999e-001
-2.6556861e-001
-3.4166586e-001
-4.3455815e-001
-5.5423671e-001
-6.9400752e-001
-8.0629355e-001
-8.9857495e-001
-8.8237864e-001
-8.1051689e-001
-6.5215230e-001
-4.6062949e-001
-2.7825159e-001
-9.9954769e-002
1.6443929e-002
1.1605038e-001
1.3251360e-001
1.2351517e-001
1.8874317e-002
-1.1106580e-001
-2.7642971e-001
-4.3095165e-001
-5.2153176e-001
-5.7177126e-001
-5.5082935e-001
-5.1443607e-001
-4.7524223e-001
-4.5229796e-001
-4.5458537e-001
-4.6992660e-001
-4.9498799e-001
-5.2620274e-001
-5.6168675e-001
-6.1975443e-001
-6.9512159e-001
-7.7544206e-001
-8.5719109e-001
-8.8320160e-001
-8.8015842e-001
-8.5891855e-001
-8.3152598e-001
-8.5981733e-001
-9.0694374e-001
-9.6552134e-001
-1.0240768e+000
-1.0388542e+000
-1.0397583e+000
-1.0222621e+000
-1.0041943e+000
-1.0046145e+000
-1.0066428e+000
-9.9974734e-001
-9.7966468e-001
-9.3420893e-001
-8.8700438e-001
-8.4669483e-001
-8.2025903e-001
-8.1087357e-001
-8.1106466e-001
-8.1801832e-001
-8.0788261e-001
-7.8077108e-001
-7.2627300e-001
-6.5360039e-001
-5.9991437e-001
-5.6037921e-001
-5.6686765e-001
-5.9622937e-001
-6.5333241e-001
-7.2120315e-001
-8.1028342e-001
-9.0627265e-001
-9.9134725e-001
-1.0665091e+000
-1.0845249e+000
-1.0798500e+000
-1.0503783e+000
-1.0241145e+000
-1.0344328e+000
-1.0618564e+000
-1.1040171e+000
-1.1376498e+000
-1.1460880e+000
-1.1420424e+000
-1.1305486e+000
-1.1358286e+000
-1.1662420e+000
-1.2283528e+000
-1.3171784e+000
-1.3949220e+000
-1.4559472e+000
-1.4389240e+000
-1.3654498e+000
-1.2337296e+000
-1.0716829e+000
-9.2715585e-001
-7.9466963e-001
-6.7698169e-001
-5.6529987e-001
-4.4528770e-001
-3.2476428e-001
-2.4889359e-001
-1.9991209e-001
-2.1366251e-001
-2.6114392e-001
-3.4893501e-001
-4.5442617e-001
-5.6776547e-001
-6.7123681e-001
-7.4586451e-001
-8.0741704e-001
-8.6482561e-001
-9.1486943e-001
-9.5676941e-001
-9.4459331e-001
-8.6613393e-001
-7.2946173e-001
-5.4979330e-001
-3.6959884e-001
-1.9958934e-001
-1.0696121e-001
-7.3135041e-002
-1.9866866e-001
-4.2414996e-001
-7.5101364e-001
-1.1293650e+000
-1.3166546e+000
-1.3960217e+000
-1.2298908e+000
-9.5054591e-001
-6.8691772e-001
-4.3517381e-001
-2.1239354e-001
-2.0325225e-002
1.0939386e-001
1.7410485e-001
1.3961279e-001
8.9590274e-002
9.3099184e-002
1.4148748e-001
2.2950542e-001
2.8165823e-001
2.6041162e-001
2.0889540e-001
1.5094337e-001
1.4735951e-001
2.0323446e-001
1.8024139e-001
6.9908991e-002
-1.6013783e-001
-4.7097856e-001
-6.0031593e-001
-5.8978319e-001
-3.7242502e-001
-3.4256481e-002
2.3664774e-001
4.5716822e-001
5.6634480e-001
6.0491812e-001
5.8068329e-001
5.3644830e-001
5.4944408e-001
6.1339003e-001
7.4978566e-001
8.5338873e-001
7.9328573e-001
6.2286842e-001
3.7951192e-001
1.0513257e-001
-1.7172888e-001
-3.6056700e-001
-4.2360073e-001
-4.2275125e-001
-3.9880571e-001
-4.0833041e-001
-4.6061465e-001
-5.8624637e-001
-7.6921463e-001
-9.4436175e-001
-1.1034039e+000
-1.1690800e+000
-1.1661122e+000
-1.0391631e+000
-8.3030897e-001
-6.3852108e-001
-4.6335948e-001
-3.3640295e-001
-2.1511841e-001
7.5721145e-002
5.8129513e-001
1.3448843e+000
2.1897075e+000
2.9098961e+000
3.5163679e+000
4.0114899e+000
4.5496020e+000
5.2703609e+000
6.4541702e+000
8.2569742e+000
1.1075217e+001
1.4980572e+001
1.9220991e+001
2.3398100e+001
2.7192476e+001
3.0577635e+001
3.4382206e+001
3.8711018e+001
4.3595497e+001
4.8905762e+001
5.3435139e+001
5.7260799e+001
6.1091061e+001
6.5014397e+001
6.9643616e+001
7.4777863e+001
7.9756248e+001
8.4543098e+001
8.8973907e+001
9.3057854e+001
9.6785988e+001
1.0007103e+002
1.0277860e+002
1.0471240e+002
1.0567774e+002
1.0545492e+002
1.0396036e+002
1.0170237e+002
9.9163132e+001
9.6420242e+001
9.3548340e+001
9.0102470e+001
8.5967781e+001
8.1507126e+001
7.6893501e+001
7.2354332e+001
6.7930939e+001
6.3276722e+001
5.8370331e+001
5.3573254e+001
4.8921631e+001
4.4671829e+001
4.0843479e+001
3.7531063e+001
3.4735291e+001
3.2363499e+001
3.0385271e+001
2.8638466e+001
2.7148479e+001
2.5925508e+001
2.4977282e+001
2.4271500e+001
2.3793066e+001
2.3489601e+001
2.3352274e+001
2.3351635e+001
2.3468771e+001
2.3673943e+001
2.3952799e+001
2.4289930e+001
2.4766722e+001
2.5411171e+001
2.6222166e+001
2.7193789e+001
2.8230536e+001
2.9309759e+001
3.0459814e+001
3.1688658e+001
3.3115269e+001
3.4811062e+001
3.7186943e+001
4.0250114e+001
4.3377178e+001
4.6392307e+001
4.8627281e+001
5.0101700e+001
5.1230286e+001
5.1993248e+001
5.2473663e+001
5.2563820e+001
5.2192097e+001
5.1388630e+001
5.0266674e+001
4.8929817e+001
4.7497318e+001
4.5945755e+001
4.4262897e+001
4.2451576e+001
4.0515553e+001
3.8611691e+001
3.6818947e+001
3.5139500e+001
3.3584850e+001
3.1872641e+001
2.9915628e+001
2.7494759e+001
2.4504908e+001
2.1613897e+001
1.8903526e+001
1.6620956e+001
1.4818870e+001
1.3067715e+001
1.1384089e+001
9.7706957e+000
8.2276611e+000
6.7133279e+000
5.2411814e+000
3.8227479e+000
2.5444937e+000
1.5138223e+000
7.6062870e-001
2.8648239e-001
1.6612938e-001
4.9296939e-001
1.0697699e+000
1.7188339e+000
2.2938092e+000
2.6864657e+000
2.9833601e+000
3.2000103e+000
3.4587767e+000
3.8114598e+000
4.2424521e+000
4.7785478e+000
5.2147765e+000
5.4887104e+000
5.6380568e+000
5.6116209e+000
5.5144348e+000
5.3179860e+000
5.0542231e+000
4.6971569e+000
4.2637129e+000
3.7600589e+000
3.2644773e+000
2.8109519e+000
2.4537928e+000
2.2221541e+000
2.1366134e+000
2.2166860e+000
2.4847472e+000
2.8952913e+000
3.4143310e+000
3.9500413e+000
4.4236131e+000
4.8336487e+000
5.1545305e+000
5.4432793e+000
5.7119784e+000
5.9650440e+000
6.1959620e+000
6.3741503e+000
6.4589748e+000
6.4994278e+000
6.4677210e+000
6.4016614e+000
6.2753201e+000
6.0799193e+000
5.7786174e+000
5.3921313e+000
4.9008732e+000
4.3705373e+000
3.8214982e+000
3.3403959e+000
2.9485502e+000
2.6575613e+000
2.4275372e+000
2.1688702e+000
1.8590136e+000
1.4604394e+000
1.0384629e+000
6.6188741e-001
3.5266027e-001
1.6056995e-001
3.5465539e-002
-1.7546639e-002
-4.3031462e-002
-4.5976378e-003
6.1494172e-002
1.7262569e-001
3.0164924e-001
4.6438801e-001
6.2494510e-001
7.8284669e-001
9.1953140e-001
1.0236180e+000
1.1217207e+000
1.2138077e+000
1.3218532e+000
1.4547069e+000
1.6208624e+000
1.8222901e+000
2.0390208e+000
2.2559390e+000
2.4302771e+000
2.5617864e+000
2.6441293e+000
2.6912022e+000
2.7117810e+000
2.7143774e+000
2.6989403e+000
2.6822286e+000
2.6793001e+000
2.6891999e+000
2.7255571e+000
2.7664242e+000
2.8096342e+000
2.8559043e+000
2.9110157e+000
2.9767389e+000
3.0663118e+000
3.1603043e+000
3.2611032e+000
3.3567195e+000
3.4470272e+000
3.5545819e+000
3.6963422e+000
3.8892457e+000
4.1478062e+000
4.4415159e+000
4.7743464e+000
5.1332598e+000
5.5239067e+000
5.9580035e+000
6.4223313e+000
6.8981133e+000
7.3741498e+000
7.8331027e+000
8.2713442e+000
8.6624765e+000
8.9995975e+000
9.2017803e+000
9.3287954e+000
9.2922039e+000
9.2108459e+000
9.0371943e+000
8.8439159e+000
8.5982180e+000
8.3150892e+000
7.9406567e+000
7.5262547e+000
7.0344515e+000
6.5362158e+000
6.0277791e+000
5.5201650e+000
5.0132990e+000
4.5039954e+000
3.9993658e+000
3.5287225e+000
3.1028926e+000
2.7439401e+000
2.4366570e+000
2.1469362e+000
1.8585372e+000
1.5342951e+000
1.2056403e+000
9.2401916e-001
6.8687189e-001
5.6902409e-001
4.9262765e-001
4.7496024e-001
4.7184598e-001
4.9514210e-001
5.2639115e-001
5.8131725e-001
6.1700481e-001
5.9153718e-001
5.3079051e-001
3.8534409e-001
2.3811948e-001
9.2251338e-002
-2.0616043e-002
-7.5404629e-002
-8.9730367e-002
-5.1583417e-002
-6.5459982e-003
3.8822822e-002
4.6460800e-002
2.4273615e-002
8.9556975e-003
1.1216007e-002
8.1996970e-002
2.0010760e-001
4.1567242e-001
6.8339956e-001
1.0291333e+000
1.4075272e+000
1.8455718e+000
2.2932613e+000
2.7358479e+000
3.1661861e+000
3.5328858e+000
3.8805101e+000
4.1497874e+000
4.3772273e+000
4.4677739e+000
4.4967299e+000
4.3775911e+000
4.2627144e+000
4.1694102e+000
4.1794810e+000
4.3566141e+000
4.6120281e+000
4.9622040e+000
5.3158255e+000
5.6698213e+000
6.0031843e+000
6.3078504e+000
6.5199385e+000
6.6654844e+000
6.7273717e+000
6.7614441e+000
6.8644814e+000
6.9965897e+000
7.1759391e+000
7.3462229e+000
7.3739533e+000
7.3654041e+000
7.2242241e+000
7.0912433e+000
7.0543542e+000
7.0514603e+000
7.1949344e+000
7.3224688e+000
7.3937588e+000
7.4024348e+000
7.2603536e+000
7.1004076e+000
6.9090137e+000
6.7302299e+000
6.5650392e+000
6.3561301e+000
6.0891452e+000
5.7348442e+000
5.3001823e+000
4.8312078e+000
4.3478937e+000
3.9580679e+000
3.6303480e+000
3.4430935e+000
3.3105676e+000
3.1843028e+000
3.0488756e+000
2.7944059e+000
2.5188196e+000
2.2332561e+000
1.9587615e+000
1.8241565e+000
1.7044011e+000
1.6776674e+000
1.6438570e+000
1.5763714e+000
1.4669911e+000
1.2268176e+000
9.5721221e-001
6.2198740e-001
3.0775821e-001
3.2186016e-002
-2.0259242e-001
-3.7913179e-001
-4.8710352e-001
-5.2152687e-001
-5.0455582e-001
-4.4691563e-001
-3.9192796e-001
-3.3503479e-001
-2.1061715e-001
-5.0610930e-002
2.1217173e-001
5.0142395e-001
6.4974654e-001
7.5705999e-001
6.1807352e-001
4.5044720e-001
3.0720341e-001
1.6946667e-001
9.6317999e-002
2.6474090e-002
-1.8739402e-003
-5.4741196e-002
1.8218696e-002
9.6231490e-002
1.8885025e-001
2.7689677e-001
3.5752451e-001
5.3441089e-001
8.6567700e-001
1.2413000e+000
1.6700859e+000
2.0666966e+000
2.4346237e+000
2.8753386e+000
3.3658254e+000
3.7398772e+000
4.0491953e+000
4.0376444e+000
3.9032059e+000
3.7921989e+000
3.6882591e+000
3.8419583e+000
4.0372133e+000
4.3263001e+000
