##TITLE=Methyl Ethyl Ketone
##JCAMP-DX=4.24
##DATA TYPE=INFRARED SPECTRUM
##XUNITS=cm-1
##YUNITS=Absorbance
##FIRSTX=900
##LASTX=2300
##XYDATA=(X++(Y..Y))
2296 0.035902999
2294 0.036649931
2292 0.037396863
2290 0.038143791
2288 0.038890727
2286 0.039636664
2284 0.040383589
2282 0.04113052
2280 0.041877452
2278 0.04262438
2276 0.043371316
2274 0.044118248
2272 0.044865176
2270 0.045612108
2268 0.04635904
2266 0.047105972
2264 0.047852904
2262 0.048599835
2260 0.049346767
2258 0.050093696
2256 0.050840627
2254 0.051587559
2252 0.052334491
2250 0.053081423
2248 0.053828355
2246 0.054575287
2244 0.032458212
2242 0.0012190114
2240 0.001053792
2238 0.0020542582
2236 0.00309591
2234 0.017291293
2232 0.032910198
2230 0.05920931
2228 0.085157916
2226 0.1045364
2224 0.12067663
2222 0.12385838
2220 0.12591925
2218 0.12683265
2216 0.13621429
2214 0.16420382
2212 0.1946646
2210 0.22732268
2208 0.24711759
2206 0.25069606
2204 0.25135517
2202 0.25015864
2200 0.25735375
2198 0.2709007
2196 0.28549287
2194 0.3004657
2192 0.30249497
2190 0.29885438
2188 0.29137942
2186 0.28277278
2184 0.29248601
2182 0.30642453
2180 0.31692567
2178 0.32646012
2176 0.30205315
2174 0.27450427
2172 0.24697192
2170 0.2238548
2168 0.22612572
2166 0.22918165
2164 0.22617131
2162 0.21825208
2160 0.19927548
2158 0.18323068
2156 0.174814
2154 0.17046469
2152 0.17085846
2150 0.18134028
2148 0.20265354
2146 0.24417286
2144 0.30257857
2142 0.36741498
2140 0.43555823
2138 0.47033769
2136 0.48673913
2134 0.45707092
2132 0.40861523
2130 0.37773269
2128 0.3529596
2126 0.38520044
2124 0.43065417
2122 0.47231436
2120 0.51109749
2118 0.50898331
2116 0.50054544
2114 0.48800948
2112 0.47762299
2110 0.47904152
2108 0.48268044
2106 0.48789901
2104 0.49639708
2102 0.51177466
2100 0.53266901
2098 0.56119961
2096 0.5862543
2094 0.60547513
2092 0.61511803
2090 0.61572152
2088 0.61627561
2086 0.6175375
2084 0.61881769
2082 0.61993343
2080 0.61395162
2078 0.60443783
2076 0.6074667
2074 0.61596018
2072 0.64195317
2070 0.67353135
2068 0.6845867
2066 0.6901927
2064 0.66033494
2062 0.62405556
2060 0.58796877
2058 0.5544734
2056 0.53486544
2054 0.51479852
2052 0.48459724
2050 0.44547278
2048 0.39008588
2046 0.33679679
2044 0.2945798
2042 0.28293973
2040 0.31297058
2038 0.37794808
2036 0.47381586
2034 0.56032783
2032 0.63251334
2030 0.65801442
2028 0.64972746
2026 0.61626327
2024 0.57094282
2022 0.54024321
2020 0.51850128
2018 0.51243842
2016 0.51181996
2014 0.51871359
2012 0.52687699
2010 0.53520995
2008 0.54241055
2006 0.5396992
2004 0.53380811
2002 0.52680463
2000 0.51886892
1998 0.51286006
1996 0.50558716
1994 0.49599087
1992 0.48300657
1990 0.45918491
1988 0.426099
1986 0.37544844
1984 0.32534429
1982 0.28196982
1980 0.26098669
1978 0.26601097
1976 0.29001829
1974 0.32779291
1972 0.36330143
1970 0.39601776
1968 0.40774846
1966 0.40627855
1964 0.38677052
1962 0.35732001
1960 0.33132797
1958 0.30684465
1956 0.27610844
1954 0.24193427
1952 0.19333954
1950 0.13978134
1948 0.1031604
1946 0.078492999
1944 0.085210897
1942 0.10724039
1940 0.13081428
1938 0.14656247
1936 0.13642971
1934 0.10997683
1932 0.072612017
1930 0.030901827
1928 -0.0062297946
1926 -0.031073114
1924 -0.037569985
1922 -0.01787761
1920 0.021439284
1918 0.061688632
1916 0.09215197
1914 0.10767901
1912 0.11397845
1910 0.11010379
1908 0.10270243
1906 0.064851671
1904 0.0095372945
1902 -0.047429692
1900 -0.10606103
1898 -0.10484328
1896 -0.078154713
1894 -0.01255367
1892 0.063584141
1890 0.099604845
1888 0.10748731
1886 0.05041945
1884 -0.033441208
1882 -0.12745379
1880 -0.21294269
1878 -0.26514667
1876 -0.283353
1874 -0.24944773
1872 -0.1779992
1870 -0.069696754
1868 0.021682296
1866 0.064853251
1864 0.041801017
1862 -0.047970518
1860 -0.14863372
1858 -0.23892562
1856 -0.29891571
1854 -0.33202779
1852 -0.3448076
1850 -0.34243435
1848 -0.32392761
1846 -0.29142213
1844 -0.26792127
1842 -0.24576852
1840 -0.24839607
1838 -0.26458195
1836 -0.26341015
1834 -0.2543509
1832 -0.21260595
1830 -0.15401193
1828 -0.097568676
1826 -0.047540046
1824 -0.037465297
1822 -0.05787003
1820 -0.10630353
1818 -0.16809073
1816 -0.22085656
1814 -0.26293644
1812 -0.28828949
1810 -0.29581308
1808 -0.29172155
1806 -0.26507449
1804 -0.21976872
1802 -0.18769576
1800 -0.16698131
1798 -0.17833859
1796 -0.21170643
1794 -0.21046008
1792 -0.1888476
1790 -0.13727653
1788 -0.076980896
1786 -0.045995474
1784 -0.037307668
1782 -0.034041271
1780 -0.033420686
1778 -0.0069269007
1776 0.040325712
1774 0.11973201
1772 0.21184891
1770 0.26159015
1768 0.27189943
1766 0.21947935
1764 0.1366526
1762 0.068105705
1760 0.017227806
1758 -0.08789321
1756 -0.206605
1754 -0.28603929
1752 -0.29982314
1750 -0.2424406
1748 -0.16597643
1746 -0.097885758
1744 -0.096691757
1742 -0.1704241
1740 -0.24899492
1738 -0.31410897
1736 -0.27075401
1734 -0.13657546
1732 -0.0079580806
1730 0.10099562
1728 0.068799794
1726 -0.062216878
1724 -0.14391063
1722 -0.16248059
1720 -0.020811364
1718 0.22496945
1716 0.63937372
1714 1.1507872
1712 1.5560548
1710 1.8861829
1708 2.2028179
1706 2.6787286
1704 3.4950383
1702 4.9080219
1700 7.0346603
1698 10.039236
1696 13.839
1694 17.668919
1692 21.18722
1690 24.33707
1688 27.204222
1686 30.68045
1684 34.84285
1682 39.799629
1680 45.357479
1678 50.165241
1676 54.270786
1674 58.274963
1672 62.297375
1670 67.024132
1668 72.257111
1666 77.301048
1664 82.062958
1662 86.219711
1660 89.807983
1658 92.884583
1656 95.506401
1654 97.786293
1652 99.666618
1650 101.08551
1648 101.5172
1646 100.50768
1644 98.466774
1642 95.861023
1640 92.915924
1638 89.837402
1636 86.277863
1634 82.139542
1632 77.855095
1630 73.586159
1628 69.504494
1626 65.635803
1624 61.589478
1622 57.333664
1620 53.064148
1618 48.808792
1616 44.774029
1614 40.985886
1612 37.626156
1610 34.70195
1608 32.191772
1606 30.074808
1604 28.210894
1602 26.620041
1600 25.294714
1598 24.240124
1596 23.4235
1594 22.824751
1592 22.38352
1590 22.093952
1588 21.926146
1586 21.888714
1584 21.981239
1582 22.18977
1580 22.503908
1578 22.939341
1576 23.493029
1574 24.167511
1572 24.943907
1570 25.789694
1568 26.691
1566 27.655279
1564 28.693182
1562 30.000095
1560 31.672373
1558 34.198933
1556 37.63747
1554 41.295151
1552 44.968315
1550 47.877342
1548 50.061726
1546 52.051109
1544 53.874126
1542 55.641037
1540 57.143738
1538 58.010189
1536 58.130287
1534 57.49065
1532 56.376213
1530 55.202099
1528 53.993938
1526 52.772953
1524 51.418995
1522 49.840473
1520 47.995987
1518 45.813141
1516 43.578243
1514 41.384678
1512 39.249958
1510 37.222839
1508 34.782196
1506 31.794214
1504 28.703388
1502 25.526649
1500 22.769871
1498 20.479441
1496 18.22543
1494 16.003492
1492 13.734175
1490 11.418839
1488 9.0659761
1486 6.7506876
1484 4.6291142
1482 2.808213
1480 1.4345607
1478 0.52191508
1476 0.092547841
1474 0.25427097
1472 0.89600372
1470 1.719125
1468 2.54796
1466 3.2545307
1464 3.7757595
1462 4.2710948
1460 4.8176942
1458 5.4420066
1456 6.1645799
1454 6.7708645
1452 7.1501737
1450 7.3394613
1448 7.2509646
1446 7.1085429
1444 6.8958941
1442 6.667418
1440 6.418448
1438 6.1247363
1436 5.7681384
1434 5.2966061
1432 4.713872
1430 4.0964665
1428 3.4773421
1426 2.9725664
1424 2.6059206
1422 2.4004171
1420 2.3496916
1418 2.4118969
1416 2.54284
1414 2.689816
1412 2.8398366
1410 3.0166075
1408 3.2326035
1406 3.5207415
1404 3.8635585
1402 4.2634988
1400 4.6927319
1398 5.1520586
1396 5.6039429
1394 6.0251188
1392 6.3761649
1390 6.5773969
1388 6.6604662
1386 6.5494351
1384 6.3254685
1382 5.9501085
1380 5.528039
1378 5.0596166
1376 4.5891743
1374 4.1331739
1372 3.6887701
1370 3.2626619
1368 2.8678417
1366 2.4774642
1364 2.0677028
1362 1.6398816
1360 1.1821569
1358 0.74980867
1356 0.41048384
1354 0.15750168
1352 0.047470387
1350 0.025853679
1348 0.10176484
1346 0.20351036
1344 0.37942398
1342 0.58434808
1340 0.83895731
1338 1.0817058
1336 1.2860315
1334 1.4510927
1332 1.5170069
1330 1.574347
1328 1.6222737
1326 1.7093999
1324 1.8728405
1322 2.0890603
1320 2.380899
1318 2.694813
1316 3.0250499
1314 3.3235319
1312 3.573472
1310 3.7707443
1308 3.9118426
1306 4.0163417
1304 4.0865579
1302 4.119029
1300 4.122623
1298 4.081254
1296 4.0240431
1294 3.9542158
1292 3.8912938
1290 3.8502715
1288 3.818608
1286 3.80071
1284 3.7849162
1282 3.7682886
1280 3.7534635
1278 3.7411892
1276 3.7307301
1274 3.729362
1272 3.7358429
1270 3.7627454
1268 3.8110628
1266 3.8909299
1264 3.9960661
1262 4.1271544
1260 4.2651701
1258 4.4088173
1256 4.5498686
1254 4.6923499
1252 4.8479266
1250 5.0112157
1248 5.1745358
1246 5.3259249
1244 5.4312477
1242 5.5051942
1240 5.5287852
1238 5.5297418
1236 5.5031557
1234 5.450284
1232 5.330544
1230 5.1641507
1228 4.8689032
1226 4.535872
1224 4.1054606
1222 3.6661365
1220 3.2067769
1218 2.758445
1216 2.3338485
1214 1.9303344
1212 1.5652097
1210 1.2244925
1208 0.92110401
1206 0.64566451
1204 0.40592879
1202 0.19627383
1200 0.017635584
1198 -0.14170545
1196 -0.28343716
1194 -0.41057786
1192 -0.52308881
1190 -0.60895729
1188 -0.67688692
1186 -0.71956605
1184 -0.74402058
1182 -0.72790349
1180 -0.67598325
1178 -0.5139991
1176 -0.30794579
1174 0.016753972
1172 0.34848696
1170 0.67758304
1168 0.97661239
1166 1.1794293
1164 1.3435637
1162 1.4113901
1160 1.44874
1158 1.4246447
1156 1.3796815
1154 1.2982503
1152 1.1895331
1150 1.042697
1148 0.87287617
1146 0.68021464
1144 0.49285531
1142 0.31436345
1140 0.16288157
1138 0.038289003
1136 -0.038685028
1134 -0.074130118
1132 0.007108897
1130 0.1546021
1128 0.41679034
1126 0.71046263
1124 1.0065351
1122 1.2799793
1120 1.4311481
1118 1.5560088
1116 1.6002243
1114 1.6505595
1112 1.7325611
1110 1.824953
1108 1.9497409
1106 2.07112
1104 2.1823325
1102 2.2813094
1100 2.355696
1098 2.4221635
1096 2.476243
1094 2.5277028
1092 2.57586
1090 2.6248732
1088 2.6759245
1086 2.7378545
1084 2.8091879
1082 2.8878937
1080 2.9672921
1078 3.018544
1076 3.0475943
1074 3.0077028
1072 2.9370606
1070 2.8102374
1068 2.6715355
1066 2.5386229
1064 2.414176
1062 2.3471417
1060 2.2918639
1058 2.2932737
1056 2.2948856
1054 2.2963665
1052 2.2847054
1050 2.2313859
1048 2.1723852
1046 2.1007464
1044 2.0413251
1042 2.0039353
1040 1.9680721
1038 1.9320459
1036 1.8780999
1034 1.8023131
1032 1.7075074
1030 1.5958866
1028 1.4774028
1026 1.3562872
1024 1.2527325
1022 1.15895
1020 1.0743814
1018 0.99276084
1016 0.90860289
1014 0.82765579
1012 0.78893083
1010 0.7609449
1008 0.77221203
1006 0.78345698
1004 0.75471735
1002 0.71656919
1000 0.61585855
998 0.50879115
996 0.37430072
994 0.24813901
992 0.14864931
990 0.076161221
988 0.066005006
986 0.074093163
984 0.1141708
982 0.14921081
980 0.1775402
978 0.19550058
976 0.20176342
974 0.1952779
972 0.17825803
970 0.15561897
968 0.13070029
966 0.1171995
964 0.10908574
962 0.10263032
960 0.096436091
958 0.093462154
956 0.09128917
954 0.098958664
952 0.10620072
950 0.077451639
948 0.047346577
946 0.019933576
944 0.0023168451
942 0.00084337778
940 0.028613552
938 0.12249471
936 0.226742
934 0.36143336
932 0.48529637
930 0.58532244
928 0.65202379
926 0.66562068
924 0.6739136
922 0.67638409
920 0.6945985
918 0.72718465
916 0.76309299
914 0.80090249
912 0.82744765
910 0.84872049
908 0.83368772
906 0.80630481
904 0.73422867
902 0.65189832
900 0.57928813
898 0.50876695
896 0.46467
