Image.
>Pix99999.
  .
5555
5555
2300
900
5555
2
1
0
701
5555
-4.7180999e-002
-4.8183564e-002
-4.9186133e-002
-5.0188698e-002
-5.1191263e-002
-5.2193828e-002
-5.3195402e-002
-5.4197960e-002
-5.5200525e-002
-5.6203093e-002
-5.7205658e-002
-5.8208223e-002
-5.9210788e-002
-6.0212374e-002
-6.1214920e-002
-6.2217485e-002
-6.3220054e-002
-6.4222611e-002
-6.5225184e-002
-6.6227749e-002
-6.7229345e-002
-6.8231881e-002
-6.9234446e-002
-7.0237011e-002
-7.1239576e-002
-7.2242141e-002
-2.6846114e-003
1.0351702e-001
2.1432599e-001
2.7388787e-001
3.2580215e-001
2.7627763e-001
2.1511509e-001
5.6367785e-002
-9.6490286e-002
-1.6542199e-001
-1.9043921e-001
-3.4549616e-002
1.3664621e-001
3.2476106e-001
4.7301427e-001
5.3206539e-001
5.6573242e-001
5.6659126e-001
5.8505672e-001
6.2798607e-001
6.9098061e-001
7.7185351e-001
8.3713973e-001
8.8992792e-001
9.1776854e-001
9.3169212e-001
9.0479451e-001
8.6039406e-001
7.6757050e-001
6.5940630e-001
5.9515077e-001
5.4123074e-001
5.7576686e-001
6.2395769e-001
7.1437854e-001
8.1094414e-001
9.3357378e-001
1.0529872e+000
1.1398383e+000
1.2004771e+000
1.1770983e+000
1.1397372e+000
1.0879778e+000
1.0517910e+000
1.0478599e+000
1.0329735e+000
9.9728036e-001
9.4829875e-001
8.8677257e-001
8.8039678e-001
9.2393172e-001
1.0203393e+000
1.1497800e+000
1.2659117e+000
1.3729514e+000
1.4357696e+000
1.4803628e+000
1.4880443e+000
1.4844400e+000
1.5091150e+000
1.5404931e+000
1.6148950e+000
1.6926571e+000
1.7041457e+000
1.6918515e+000
1.5730721e+000
1.4329576e+000
1.2672458e+000
1.1254046e+000
1.0667971e+000
1.0670577e+000
1.1699209e+000
1.3015400e+000
1.4559543e+000
1.5999286e+000
1.7257951e+000
1.8141640e+000
1.8664548e+000
1.8452177e+000
1.7678800e+000
1.6862808e+000
1.6069911e+000
1.6267834e+000
1.6983699e+000
1.8015286e+000
1.9151802e+000
1.9536440e+000
1.9673952e+000
1.9139649e+000
1.8432794e+000
1.7248782e+000
1.5976774e+000
1.4793723e+000
1.3768660e+000
1.3524429e+000
1.3553666e+000
1.3999802e+000
1.4461280e+000
1.4735017e+000
1.4906785e+000
1.4944839e+000
1.4998571e+000
1.5129303e+000
1.5172315e+000
1.5108415e+000
1.4749161e+000
1.4120662e+000
1.3289920e+000
1.2329366e+000
1.1416186e+000
1.0540416e+000
9.9892056e-001
9.5994836e-001
9.5625842e-001
9.6722996e-001
9.6792126e-001
9.6574610e-001
9.3539113e-001
8.9959228e-001
8.8702166e-001
8.8723874e-001
9.3221605e-001
9.9211556e-001
1.0624614e+000
1.1238071e+000
1.1469662e+000
1.1284497e+000
1.0419347e+000
9.3966842e-001
8.4511542e-001
8.0481839e-001
8.3732843e-001
9.0606201e-001
9.9430746e-001
1.1044000e+000
1.2291290e+000
1.4325814e+000
1.6928190e+000
1.8993949e+000
2.0654330e+000
1.9795171e+000
1.7656668e+000
1.4668920e+000
1.1388129e+000
9.5742017e-001
8.3484936e-001
8.5500485e-001
9.2070848e-001
9.6941906e-001
9.8939496e-001
8.8875049e-001
7.5084913e-001
6.3330758e-001
5.5652559e-001
5.7432085e-001
6.1222482e-001
6.2708157e-001
5.9482813e-001
4.9102628e-001
4.2178971e-001
4.1952008e-001
5.8861399e-001
9.2740655e-001
1.2567301e+000
1.5468857e+000
1.6563487e+000
1.6344914e+000
1.5677856e+000
1.4864354e+000
1.3572664e+000
1.2042960e+000
1.0392255e+000
8.7169349e-001
8.7351376e-001
9.5044428e-001
1.1220336e+000
1.3094591e+000
1.3648210e+000
1.3225812e+000
1.0891124e+000
7.7714658e-001
4.4546080e-001
1.5127172e-001
-4.4131700e-002
-1.4185129e-001
-1.3347645e-001
6.2817335e-004
2.6478997e-001
5.4683083e-001
8.1384480e-001
8.9019024e-001
7.8176588e-001
5.5276603e-001
2.5359163e-001
-4.4441998e-002
-3.3473766e-001
-5.1952416e-001
-6.3972187e-001
-5.6480157e-001
-3.8765463e-001
-2.2554427e-001
-8.8817015e-002
-1.7023902e-001
-3.5424072e-001
-5.7099515e-001
-7.6416719e-001
-7.8978258e-001
-6.8756163e-001
-3.8475150e-001
-5.1026091e-002
1.5895343e-001
1.9058472e-001
-4.9975209e-002
-3.9176109e-001
-7.3868114e-001
-9.8447949e-001
-1.0880523e+000
-1.0637363e+000
-9.3774331e-001
-7.3681301e-001
-4.8795485e-001
-2.7409655e-001
-1.0930632e-001
-4.3050878e-002
-4.8930787e-002
-3.5665102e-002
7.2503202e-003
1.1844011e-001
2.7916917e-001
4.3448502e-001
5.8761913e-001
7.0973253e-001
8.2745934e-001
1.0040504e+000
1.2224828e+000
1.4831034e+000
1.6698809e+000
1.5895729e+000
1.3076274e+000
8.6697197e-001
4.5895422e-001
2.4138610e-001
7.2145596e-002
-1.6267172e-001
-3.3961588e-001
-3.9967453e-001
-1.5568462e-001
4.0208814e-001
1.0800483e+000
1.7891357e+000
2.0952229e+000
2.0238247e+000
1.8273783e+000
1.5868471e+000
1.6622200e+000
1.9762272e+000
2.0859907e+000
2.0210152e+000
1.4851502e+000
6.7950463e-001
9.7144268e-002
-2.2009961e-001
1.1304891e-001
1.0151516e+000
2.3983214e+000
3.8355207e+000
4.7705274e+000
5.3574781e+000
5.7328520e+000
6.3213544e+000
7.4877200e+000
9.5096931e+000
1.2504403e+001
1.6131159e+001
2.0133858e+001
2.3674021e+001
2.6466208e+001
2.8941978e+001
3.1290930e+001
3.4412766e+001
3.8344456e+001
4.2880684e+001
4.7850601e+001
5.2061218e+001
5.5589672e+001
5.9111008e+001
6.2698059e+001
6.6873520e+001
7.1475815e+001
7.6026306e+001
8.0503593e+001
8.4788116e+001
8.8871773e+001
9.2698357e+001
9.6261948e+001
9.9542007e+001
1.0232540e+002
1.0439018e+002
1.0504646e+002
1.0382036e+002
1.0132354e+002
9.8175423e+001
9.4811813e+001
9.1491928e+001
8.7799744e+001
8.3612305e+001
7.9195755e+001
7.4681793e+001
7.0310272e+001
6.6105690e+001
6.1718918e+001
5.7117424e+001
5.2562477e+001
4.8083633e+001
4.3872257e+001
3.9963886e+001
3.6546135e+001
3.3643898e+001
3.1244263e+001
2.9295979e+001
2.7568523e+001
2.6056248e+001
2.4712978e+001
2.3553444e+001
2.2569000e+001
2.1771523e+001
2.1152000e+001
2.0735321e+001
2.0523651e+001
2.0534506e+001
2.0751446e+001
2.1187689e+001
2.1823557e+001
2.2732395e+001
2.3930885e+001
2.5318630e+001
2.6867811e+001
2.8278713e+001
2.9490520e+001
3.0505951e+001
3.1326643e+001
3.2399738e+001
3.3843090e+001
3.6303123e+001
3.9747814e+001
4.3128090e+001
4.6267887e+001
4.8519115e+001
5.0013916e+001
5.1438644e+001
5.2779602e+001
5.4046791e+001
5.4847939e+001
5.4716419e+001
5.3724659e+001
5.2112118e+001
5.0349136e+001
4.8870304e+001
4.7642776e+001
4.6629601e+001
4.5608982e+001
4.4461430e+001
4.2968079e+001
4.1046539e+001
3.9011971e+001
3.6948395e+001
3.4978680e+001
3.3104675e+001
3.0722210e+001
2.7658850e+001
2.4434601e+001
2.1121065e+001
1.8408983e+001
1.6383869e+001
1.4480143e+001
1.2687424e+001
1.0880135e+001
9.0703106e+000
7.3216147e+000
5.6352158e+000
3.9841280e+000
2.4874141e+000
1.2691333e+000
4.3489903e-001
7.5996429e-002
2.3777267e-001
9.3747520e-001
1.7230450e+000
2.3528719e+000
2.8317735e+000
3.1026475e+000
3.4188588e+000
3.8948655e+000
4.4922805e+000
5.2478199e+000
5.8064055e+000
6.0519085e+000
6.0823936e+000
5.8235559e+000
5.5290108e+000
5.1891294e+000
4.8830271e+000
4.6267805e+000
4.4549828e+000
4.3478584e+000
4.2026606e+000
3.9799964e+000
3.6455843e+000
3.2624300e+000
2.9641166e+000
2.7920840e+000
2.7776256e+000
2.8933759e+000
3.1178238e+000
3.4202344e+000
3.7853451e+000
4.1789241e+000
4.5439210e+000
4.8832207e+000
5.1780143e+000
5.4560499e+000
5.7379012e+000
5.9862041e+000
6.1799297e+000
6.2895784e+000
6.2606635e+000
6.1747298e+000
6.0149560e+000
5.8096251e+000
5.5339098e+000
5.1932693e+000
4.7717481e+000
4.3580670e+000
3.9635112e+000
3.6301286e+000
3.3552966e+000
3.1249659e+000
2.9409950e+000
2.7820287e+000
2.6261842e+000
2.4016104e+000
2.0813351e+000
1.6271188e+000
1.1290107e+000
6.8171442e-001
3.3131909e-001
1.4608735e-001
3.4586437e-002
-1.9302014e-002
-6.0676966e-002
-6.1050560e-002
-1.5748568e-002
1.1425770e-001
2.4344605e-001
3.6648285e-001
4.1599482e-001
3.6735877e-001
3.1318620e-001
2.7057737e-001
3.1343549e-001
4.7674835e-001
7.4135202e-001
1.1156305e+000
1.5208980e+000
1.9274400e+000
2.2500215e+000
2.4755983e+000
2.5792584e+000
2.5911994e+000
2.5390608e+000
2.4546447e+000
2.3711989e+000
2.2993133e+000
2.2678828e+000
2.2581143e+000
2.2810023e+000
2.2943003e+000
2.2664499e+000
2.2127402e+000
2.1091588e+000
2.0315158e+000
2.0362117e+000
2.0899973e+000
2.2555230e+000
2.4512072e+000
2.7018640e+000
2.9779823e+000
3.2881253e+000
3.5893276e+000
3.8716342e+000
4.1094527e+000
4.2978773e+000
4.4696937e+000
4.6328859e+000
4.8215399e+000
5.0475631e+000
5.3390007e+000
5.6917071e+000
6.1161051e+000
6.5781002e+000
7.0535140e+000
7.5190625e+000
7.9387512e+000
8.3169518e+000
8.5994997e+000
8.8207703e+000
8.8985596e+000
8.9147062e+000
8.7757607e+000
8.5892344e+000
8.2759275e+000
7.9270315e+000
7.4953113e+000
7.0505691e+000
6.5803056e+000
6.1019773e+000
5.6041284e+000
5.0719976e+000
4.4961581e+000
3.9243395e+000
3.3731380e+000
2.8946490e+000
2.4880764e+000
2.1173196e+000
1.7660215e+000
1.3905283e+000
1.0058160e+000
6.4016259e-001
2.9854637e-001
2.2393301e-002
-2.2524154e-001
-4.4315040e-001
-6.2875307e-001
-7.1220303e-001
-7.2548604e-001
-5.1194751e-001
-2.5892347e-001
9.4965905e-002
4.0819514e-001
5.9411395e-001
7.1085382e-001
6.6190010e-001
6.1236060e-001
5.7147169e-001
6.0033613e-001
7.3494840e-001
8.5208368e-001
9.2721725e-001
8.9035738e-001
7.3062783e-001
5.2701712e-001
2.9948211e-001
1.3624623e-001
3.1718917e-002
1.4918314e-002
5.5960394e-002
1.9668666e-001
3.9329025e-001
6.8195212e-001
1.0081422e+000
1.3980035e+000
1.7963016e+000
2.1801801e+000
2.5437787e+000
2.8058829e+000
3.0360098e+000
3.1391125e+000
3.2315798e+000
3.2944686e+000
3.3922751e+000
3.5788822e+000
3.8026924e+000
4.0963845e+000
4.3838401e+000
4.6558285e+000
4.8843622e+000
5.0653839e+000
5.2811012e+000
5.5520859e+000
5.9773521e+000
6.5174642e+000
7.0446591e+000
7.5302944e+000
7.7795548e+000
7.9049144e+000
7.9029202e+000
7.8660417e+000
7.8733625e+000
7.8908358e+000
7.9090343e+000
7.9220319e+000
7.8959303e+000
7.8945961e+000
8.0676327e+000
8.2855806e+000
8.6952248e+000
9.0596924e+000
9.2708454e+000
9.3667412e+000
9.1854925e+000
8.9702959e+000
8.6968079e+000
8.4574060e+000
8.2666702e+000
8.0707598e+000
7.8659186e+000
7.6334472e+000
7.3733597e+000
7.0872808e+000
6.7828183e+000
6.4753122e+000
6.1636271e+000
5.8233848e+000
5.4614410e+000
4.9799175e+000
4.4579315e+000
3.8431756e+000
3.2119670e+000
2.5738239e+000
1.9451107e+000
1.4354284e+000
9.5386958e-001
6.5761960e-001
3.7589580e-001
1.5764736e-001
-6.2743410e-002
-2.8848651e-001
-5.0453973e-001
-6.9753790e-001
-8.7796354e-001
-1.0359229e+000
-1.1674708e+000
-1.2609560e+000
-1.2946483e+000
-1.2646657e+000
-1.2031640e+000
-1.1171340e+000
-1.0427676e+000
-9.7425157e-001
-8.7213552e-001
-7.5315422e-001
-5.9720546e-001
-4.3232739e-001
-3.3903536e-001
-2.6423943e-001
-2.6906365e-001
-2.8149280e-001
-2.4865738e-001
-2.0694548e-001
-6.8205856e-002
9.5663965e-003
2.8894156e-001
5.9397793e-001
1.0063025e+000
1.3954828e+000
1.7148223e+000
1.9734403e+000
2.1025498e+000
2.2064605e+000
2.2711864e+000
2.3787842e+000
2.5392349e+000
2.7789795e+000
3.0920167e+000
3.3851972e+000
3.6637218e+000
3.8746932e+000
4.0502338e+000
4.3636241e+000
4.7291164e+000
5.3049030e+000
5.9346972e+000
6.6097512e+000
7.2916355e+000
7.9456000e+000
