Image.
>Pix99999.
  .
5555
5555
2300
900
5555
2
1
0
701
5555
-8.1885003e-002
-8.3588563e-002
-8.5292131e-002
-8.6995691e-002
-8.8699251e-002
-9.0402812e-002
-9.2106372e-002
-9.3809940e-002
-9.5513500e-002
-9.7216077e-002
-9.8919630e-002
-1.0062319e-001
-1.0233068e-001
-1.0402843e-001
-1.0573580e-001
-1.0743357e-001
-1.0914092e-001
-1.1084847e-001
-1.1254629e-001
-1.1425358e-001
-1.1595143e-001
-1.1765870e-001
-1.1936626e-001
-1.2106414e-001
-1.2277137e-001
-1.2446929e-001
-4.6254001e-003
9.0998255e-002
1.7678756e-001
1.3635536e-001
7.7328146e-002
4.6916664e-002
2.2991298e-002
9.7604834e-002
1.8064205e-001
2.9322749e-001
4.0491441e-001
5.0552583e-001
5.8355486e-001
5.9458554e-001
5.8659858e-001
5.4534501e-001
5.1566285e-001
5.0805455e-001
5.2303916e-001
5.6453025e-001
6.5952402e-001
8.0449265e-001
9.7817725e-001
1.1709011e+000
1.2863642e+000
1.3566895e+000
1.3370687e+000
1.2791808e+000
1.2443303e+000
1.2177508e+000
1.2661159e+000
1.3316768e+000
1.3654398e+000
1.3936400e+000
1.3688457e+000
1.3445740e+000
1.3809623e+000
1.4290171e+000
1.5115372e+000
1.5875263e+000
1.6273774e+000
1.6676948e+000
1.7181875e+000
1.7922494e+000
1.9089700e+000
2.0259633e+000
2.1370242e+000
2.2190719e+000
2.2691526e+000
2.3004394e+000
2.3181303e+000
2.3341401e+000
2.3501172e+000
2.3605940e+000
2.3680773e+000
2.3568738e+000
2.3379960e+000
2.3230956e+000
2.3096960e+000
2.3574758e+000
2.4195600e+000
2.5343122e+000
2.6545892e+000
2.7229443e+000
2.7759271e+000
2.7701590e+000
2.7694290e+000
2.8287392e+000
2.9207354e+000
3.0847635e+000
3.2328377e+000
3.3219450e+000
3.3393779e+000
3.2511084e+000
3.1439998e+000
3.0326743e+000
2.9694288e+000
2.9567947e+000
2.9635777e+000
2.9804552e+000
2.9986441e+000
3.0168178e+000
3.0511451e+000
3.0938797e+000
3.1237943e+000
3.1479578e+000
3.1562359e+000
3.1595318e+000
3.1713850e+000
3.1847148e+000
3.1639571e+000
3.1341646e+000
3.0815423e+000
3.0355461e+000
3.0511343e+000
3.0897303e+000
3.1669033e+000
3.2378337e+000
3.2726755e+000
3.2923036e+000
3.2960742e+000
3.3176467e+000
3.3712652e+000
3.4397895e+000
3.5193272e+000
3.5760369e+000
3.6087258e+000
3.6128039e+000
3.5974605e+000
3.5883305e+000
3.5850663e+000
3.6125891e+000
3.6556089e+000
3.6834939e+000
3.7043600e+000
3.6817276e+000
3.6448681e+000
3.5979712e+000
3.5482652e+000
3.4909835e+000
3.4338260e+000
3.3902419e+000
3.3570387e+000
3.3529189e+000
3.3560357e+000
3.3584254e+000
3.3578041e+000
3.3517175e+000
3.3419881e+000
3.3293450e+000
3.2950034e+000
3.2313898e+000
3.1374745e+000
3.0164700e+000
2.8978057e+000
2.7864230e+000
2.7129874e+000
2.6671238e+000
2.6794229e+000
2.7254608e+000
2.8051131e+000
2.8998826e+000
2.9650280e+000
3.0163045e+000
3.0072000e+000
2.9753859e+000
2.8963971e+000
2.8050158e+000
2.7343583e+000
2.6839750e+000
2.7070091e+000
2.7528937e+000
2.8012638e+000
2.8290579e+000
2.8019114e+000
2.7523682e+000
2.6896422e+000
2.6100385e+000
2.5084622e+000
2.3750401e+000
2.2072582e+000
2.0520303e+000
1.9206594e+000
1.8630290e+000
1.8678243e+000
1.9307078e+000
2.0272937e+000
2.1013749e+000
2.1563885e+000
2.1473534e+000
2.1050360e+000
2.0527942e+000
1.9980289e+000
1.9733388e+000
1.9610572e+000
1.9506854e+000
1.9363749e+000
1.8920110e+000
1.8286092e+000
1.7349501e+000
1.6316526e+000
1.5335773e+000
1.4464114e+000
1.3795143e+000
1.3184800e+000
1.2534052e+000
1.1976063e+000
1.1565673e+000
1.1464415e+000
1.1714964e+000
1.1925640e+000
1.2007570e+000
1.1831200e+000
1.1443719e+000
1.0758429e+000
9.8702037e-001
8.1585836e-001
5.9127122e-001
2.8816521e-001
-5.7240002e-002
-2.0782448e-001
-2.4744798e-001
6.1926246e-003
3.9188200e-001
7.2681510e-001
1.0115367e+000
1.1504400e+000
1.2008853e+000
1.1696301e+000
1.1050186e+000
1.0498606e+000
1.0352795e+000
1.0981780e+000
1.1904227e+000
1.2787086e+000
1.3036789e+000
1.2382578e+000
1.1249597e+000
9.9073750e-001
8.9942700e-001
8.6017036e-001
7.6233196e-001
5.9734732e-001
3.2925874e-001
-9.9449903e-003
-1.8013120e-001
-2.2025800e-001
-7.4728221e-002
1.7920330e-001
3.5095608e-001
4.6491000e-001
4.7377068e-001
4.1466027e-001
2.8663319e-001
1.3624001e-001
4.6792619e-002
4.4153418e-002
2.2138710e-001
4.3506056e-001
5.2732491e-001
4.8342839e-001
2.7634344e-001
6.5315425e-002
-2.2516055e-001
-5.0923014e-001
-6.7979753e-001
-8.1904095e-001
-9.7000957e-001
-1.1470196e+000
-1.3471535e+000
-1.5428011e+000
-1.7260506e+000
-1.8460314e+000
-1.9150676e+000
-1.8757800e+000
-1.7608130e+000
-1.5404618e+000
-1.2508302e+000
-9.6295804e-001
-6.8124235e-001
-4.4998044e-001
-2.3871139e-001
7.5367153e-002
5.6078595e-001
1.2889946e+000
2.1123860e+000
2.8782902e+000
3.5678661e+000
4.1484761e+000
4.7701559e+000
5.5677385e+000
6.8358660e+000
8.7401838e+000
1.1715522e+001
1.5847571e+001
2.0342480e+001
2.4777361e+001
2.8705597e+001
3.2082745e+001
3.5682556e+001
3.9643440e+001
4.4178894e+001
4.9184200e+001
5.3623032e+001
5.7536400e+001
6.1480633e+001
6.5529129e+001
7.0266693e+001
7.5497353e+001
8.0580849e+001
8.5445526e+001
8.9809174e+001
9.3682426e+001
9.7043350e+001
9.9896172e+001
1.0224535e+002
1.0396760e+002
1.0495853e+002
1.0487474e+002
1.0349928e+002
1.0126031e+002
9.8588692e+001
9.5596939e+001
9.2397133e+001
8.8636002e+001
8.4239578e+001
7.9674217e+001
7.5124451e+001
7.0772415e+001
6.6630798e+001
6.2287720e+001
5.7706905e+001
5.3178440e+001
4.8739964e+001
4.4693115e+001
4.1060509e+001
3.7954533e+001
3.5362720e+001
3.3131268e+001
3.1227699e+001
2.9496305e+001
2.7973820e+001
2.6703342e+001
2.5707228e+001
2.4978001e+001
2.4493572e+001
2.4189096e+001
2.4025009e+001
2.3945229e+001
2.3954079e+001
2.4043955e+001
2.4221149e+001
2.4480732e+001
2.4867649e+001
2.5393486e+001
2.6102844e+001
2.7004885e+001
2.8044643e+001
2.9207880e+001
3.0374271e+001
3.1527100e+001
3.2695198e+001
3.3940685e+001
3.5856701e+001
3.8504757e+001
4.1565441e+001
4.4848038e+001
4.7394314e+001
4.9166939e+001
5.0415466e+001
5.1116871e+001
5.1415382e+001
5.1289219e+001
5.0820545e+001
5.0068626e+001
4.9161209e+001
4.8112930e+001
4.6941078e+001
4.5597080e+001
4.4048599e+001
4.2319351e+001
4.0425964e+001
3.8632290e+001
3.7071461e+001
3.5677773e+001
3.4446518e+001
3.2914238e+001
3.0933647e+001
2.8338068e+001
2.5006073e+001
2.1887983e+001
1.9108749e+001
1.6886106e+001
1.5274980e+001
1.3657286e+001
1.2023923e+001
1.0359159e+001
8.6735754e+000
7.0153561e+000
5.4205995e+000
3.9425161e+000
2.6524453e+000
1.6163297e+000
8.5016418e-001
3.3739686e-001
1.7165077e-001
4.6579468e-001
1.0606050e+000
1.8189738e+000
2.5451250e+000
3.1051080e+000
3.5326624e+000
3.8104460e+000
4.0717249e+000
4.3541799e+000
4.7085567e+000
5.1721935e+000
5.5486937e+000
5.7831793e+000
5.9121251e+000
5.8908868e+000
5.8022151e+000
5.6098995e+000
5.3116617e+000
4.8829246e+000
4.3942804e+000
3.8700025e+000
3.4171276e+000
3.0494180e+000
2.7513113e+000
2.5324726e+000
2.3886783e+000
2.3611829e+000
2.5070248e+000
2.8066514e+000
3.2562909e+000
3.7500272e+000
4.2025266e+000
4.6035213e+000
4.9257689e+000
5.2035074e+000
5.4335012e+000
5.6028843e+000
5.6748333e+000
5.7038569e+000
5.6720152e+000
5.6721044e+000
5.7258077e+000
5.7644610e+000
5.7688150e+000
5.6942043e+000
5.4996200e+000
5.2126293e+000
4.7982841e+000
4.2900114e+000
3.6978202e+000
3.1321061e+000
2.6296151e+000
2.2513576e+000
1.9549999e+000
1.6422251e+000
1.2974517e+000
8.9629889e-001
5.0962114e-001
2.2476229e-001
3.9992727e-002
1.5279988e-004
2.3096923e-002
9.2156768e-002
1.3606322e-001
1.3379800e-001
1.0015394e-001
9.2852563e-003
-5.9243668e-002
-7.4530572e-002
-5.2970618e-002
3.6833286e-002
1.1934321e-001
1.9220430e-001
2.6877671e-001
3.5716894e-001
4.8696876e-001
6.6875541e-001
8.8058221e-001
1.1171000e+000
1.3427573e+000
1.5493103e+000
1.7175194e+000
1.8479280e+000
1.9347258e+000
1.9863446e+000
2.0027030e+000
1.9913110e+000
1.9454318e+000
1.8750143e+000
1.7693630e+000
1.6626105e+000
1.5750786e+000
1.5228480e+000
1.5566314e+000
1.6189005e+000
1.7402992e+000
1.8611869e+000
1.9794421e+000
2.0840342e+000
2.1616580e+000
2.2332978e+000
2.3006997e+000
2.3983216e+000
2.5448079e+000
2.7306886e+000
2.9673951e+000
3.2314219e+000
3.5327058e+000
3.8807199e+000
4.2777681e+000
4.7238197e+000
5.2028933e+000
5.6912551e+000
6.1745248e+000
6.6254478e+000
7.0412326e+000
7.3812304e+000
7.6675420e+000
7.8461628e+000
7.9731221e+000
7.9964442e+000
7.9753141e+000
7.8423548e+000
7.6579471e+000
7.3319683e+000
6.9551826e+000
6.4582658e+000
5.9396162e+000
5.3803029e+000
4.8252077e+000
4.2794819e+000
3.7496817e+000
3.2490668e+000
2.7904286e+000
2.3830042e+000
2.0036852e+000
1.6438377e+000
1.2603856e+000
8.5740000e-001
4.4360292e-001
3.7016004e-002
-3.1324631e-001
-6.1445773e-001
-8.1482822e-001
-9.6238840e-001
-1.0283035e+000
-1.0635643e+000
-1.0493699e+000
-1.0123340e+000
-9.1003478e-001
-7.8938842e-001
-6.1247206e-001
-4.3630907e-001
-2.6429394e-001
-1.1381111e-001
-2.0192932e-002
3.2588407e-002
2.5561713e-003
-5.3864323e-002
-1.4834839e-001
-2.2250590e-001
-2.6453400e-001
-2.6907641e-001
-2.3118892e-001
-1.7140576e-001
-9.4399229e-002
-2.2514723e-002
4.2083886e-002
8.5858025e-002
1.2771970e-001
2.6648217e-001
4.6572542e-001
7.8782743e-001
1.1528171e+000
1.5667049e+000
1.9825819e+000
2.3635120e+000
2.7223494e+000
2.9801271e+000
3.2122788e+000
3.3439479e+000
3.4637413e+000
3.5475800e+000
3.6437149e+000
3.7716999e+000
3.9173415e+000
4.0953569e+000
4.2621284e+000
4.4115286e+000
4.5587649e+000
4.7137442e+000
4.9448085e+000
5.2604527e+000
5.6579151e+000
6.1087246e+000
6.4998503e+000
6.8325310e+000
7.0010891e+000
7.0824957e+000
7.0661845e+000
7.0163178e+000
6.9533095e+000
6.8856730e+000
6.8047457e+000
6.7258677e+000
6.6752443e+000
6.6364098e+000
6.6631923e+000
6.6799488e+000
6.6498899e+000
6.5757322e+000
6.3612962e+000
6.1304531e+000
5.8649430e+000
5.6462502e+000
5.5154591e+000
5.4043527e+000
5.3188357e+000
5.2076802e+000
5.0648022e+000
4.8928852e+000
4.6856050e+000
4.3791714e+000
3.9983022e+000
3.5484383e+000
3.0722289e+000
2.6945591e+000
2.3621087e+000
2.1086543e+000
1.8716763e+000
1.5838997e+000
1.2891257e+000
1.0136671e+000
7.5025773e-001
6.0838020e-001
4.7173423e-001
3.6370546e-001
2.4936335e-001
1.0744393e-001
-3.3997446e-002
-1.7403914e-001
-3.1743199e-001
-4.6924466e-001
-6.3441813e-001
-8.2291484e-001
-1.0131557e+000
-1.2043260e+000
-1.3695122e+000
-1.5037342e+000
-1.5674235e+000
-1.5696220e+000
-1.4747759e+000
-1.3177418e+000
-1.0936655e+000
-8.3924806e-001
-5.8301103e-001
-3.3187234e-001
-2.0228049e-001
-1.0403100e-001
-1.2822530e-001
-1.6462520e-001
-1.4013457e-001
-1.1003611e-001
-3.6266789e-002
1.0038167e-003
3.0690629e-002
7.5733766e-002
1.8634279e-001
3.1770229e-001
5.0930727e-001
6.8762332e-001
8.3792239e-001
9.9962634e-001
1.1810730e+000
1.4379760e+000
1.7859843e+000
2.1182547e+000
2.4327333e+000
2.5407672e+000
2.5018759e+000
2.3361371e+000
2.1065199e+000
2.1794147e+000
2.3707614e+000
3.0091228e+000
3.7640331e+000
4.4007678e+000
5.0176973e+000
5.0855999e+000
