Image.
>Pix99999.
  .
5555
5555
2300
900
5555
2
1
0
701
5555
6.0083002e-002
6.1333213e-002
6.2583424e-002
6.3833639e-002
6.5082856e-002
6.6333063e-002
6.7583270e-002
6.8833485e-002
7.0082702e-002
7.1332902e-002
7.2583109e-002
7.3833324e-002
7.5082555e-002
7.6332748e-002
7.7582955e-002
7.8833170e-002
8.0082402e-002
8.1332594e-002
8.2582809e-002
8.3832048e-002
8.5082233e-002
8.6332440e-002
8.7582655e-002
8.8831894e-002
9.0082079e-002
9.1332287e-002
1.0399332e-001
4.0299427e-003
-1.2527041e-001
-2.3853059e-001
-3.4924185e-001
-3.1833231e-001
-2.7451965e-001
-1.7022984e-001
-7.5258091e-002
-7.7447198e-002
-8.7548673e-002
-1.1111436e-001
-1.1222031e-001
-4.2605758e-002
1.8747514e-002
5.3325567e-002
4.5379721e-002
-2.9385004e-002
-1.1757993e-001
-2.1740578e-001
-3.0181810e-001
-3.7068766e-001
-4.0518612e-001
-4.1475558e-001
-3.3757931e-001
-2.1133102e-001
-1.2494409e-002
2.1675557e-001
3.6799353e-001
4.9321520e-001
4.3931282e-001
3.4458670e-001
1.8911171e-001
2.6415095e-002
-1.0301685e-002
-3.0495796e-002
5.0400151e-003
3.6963794e-002
1.7929120e-002
5.8620935e-006
4.2863223e-003
1.5217853e-002
3.7489220e-002
2.7779901e-002
-4.4817299e-002
-1.3867916e-001
-2.5392887e-001
-3.3197248e-001
-3.6555746e-001
-3.4333429e-001
-2.7587643e-001
-1.9367050e-001
-1.0446947e-001
-6.1960362e-002
-4.5283742e-002
-8.8508904e-002
-1.5597659e-001
-2.2693415e-001
-2.9831758e-001
-3.2349619e-001
-3.3787701e-001
-2.7459201e-001
-1.9808497e-001
-1.0378126e-001
-2.0220989e-002
-3.6032006e-002
-7.9071559e-002
-1.7917025e-001
-2.7526283e-001
-3.3402234e-001
-3.6468655e-001
-3.4543571e-001
-3.0305719e-001
-2.3419590e-001
-1.8342428e-001
-1.6136271e-001
-1.8212762e-001
-2.4288471e-001
-2.8148383e-001
-2.9721999e-001
-2.4749140e-001
-1.5670015e-001
-6.1777532e-002
3.2571457e-002
8.0212861e-002
1.0851386e-001
1.0678480e-001
9.6062548e-002
1.0662564e-001
1.2233622e-001
1.1675731e-001
9.9133313e-002
-2.4200343e-003
-1.1507913e-001
-1.9785343e-001
-2.5620371e-001
-2.4734217e-001
-2.2574961e-001
-2.0468177e-001
-1.7313001e-001
-1.2058600e-001
-6.4270690e-002
-9.1060502e-003
-1.0004117e-003
-5.0144318e-002
-1.2414113e-001
-2.1186766e-001
-2.5230712e-001
-2.5315073e-001
-1.9950500e-001
-1.1481198e-001
-1.5303690e-002
8.9702114e-002
1.4897645e-001
1.8835400e-001
1.2503463e-001
2.7219396e-002
-1.2960275e-001
-3.0001011e-001
-4.4161415e-001
-5.6898797e-001
-6.4628559e-001
-7.0277405e-001
-7.2179723e-001
-7.2076571e-001
-6.8613511e-001
-6.3447177e-001
-5.6561321e-001
-5.1168519e-001
-4.9425316e-001
-5.1601952e-001
-5.8021283e-001
-6.4521837e-001
-6.9891578e-001
-6.7514145e-001
-5.8117431e-001
-3.4215444e-001
-2.4590939e-003
3.4591854e-001
6.8796122e-001
7.7362454e-001
7.2371936e-001
4.9904358e-001
2.0520136e-001
-8.6696707e-002
-3.7478638e-001
-6.1937982e-001
-8.3441824e-001
-8.8897240e-001
-8.7615001e-001
-7.7786136e-001
-6.7803884e-001
-6.7769158e-001
-7.1834254e-001
-7.8849661e-001
-8.5613608e-001
-8.9762455e-001
-9.3511826e-001
-9.7498691e-001
-9.3740541e-001
-7.9577070e-001
-5.2233374e-001
-1.3775457e-001
1.7811975e-001
4.0437070e-001
4.9630812e-001
5.0129914e-001
4.7007462e-001
4.2722118e-001
2.7051494e-001
5.1846962e-002
-1.8431261e-001
-4.2622703e-001
-4.6575603e-001
-4.1908857e-001
-2.8470120e-001
-1.3186908e-001
-8.9423425e-002
-1.1947866e-001
-2.8446144e-001
-5.0832999e-001
-7.5960636e-001
-9.7981465e-001
-1.1021361e+000
-1.1027399e+000
-9.3568802e-001
-6.5107059e-001
-2.6963222e-001
6.7588463e-003
1.0762255e-001
-3.4811027e-002
-3.8667554e-001
-7.4689627e-001
-1.0634904e+000
-1.2522086e+000
-1.3469111e+000
-1.3176688e+000
-1.2148083e+000
-9.9670601e-001
-7.1460003e-001
-5.6362873e-001
-4.8984790e-001
-6.8812096e-001
-1.0077645e+000
-1.2550186e+000
-1.4170899e+000
-1.2922822e+000
-9.9092501e-001
-5.2127028e-001
-6.3772753e-002
1.5257671e-001
1.2591599e-001
-2.0487757e-001
-6.4018738e-001
-1.0444320e+000
-1.3418138e+000
-1.4983554e+000
-1.5762466e+000
-1.6173731e+000
-1.5950750e+000
-1.5184449e+000
-1.3735089e+000
-1.1765584e+000
-9.7649032e-001
-7.8226429e-001
-5.9978276e-001
-4.2850721e-001
-3.2469752e-001
-2.6718584e-001
-2.3699428e-001
-2.1716464e-001
-1.1817656e-001
4.2453416e-002
3.3214408e-001
7.0928717e-001
1.1674806e+000
1.5778303e+000
1.6928715e+000
1.5532291e+000
1.1327759e+000
6.6174239e-001
3.5420445e-001
1.0095178e-001
-1.7203674e-001
-3.2169744e-001
-2.8583050e-001
7.4220926e-002
7.5519514e-001
1.5043745e+000
2.2182178e+000
2.4871833e+000
2.3346355e+000
2.0592117e+000
1.7559999e+000
1.8129600e+000
2.1546307e+000
2.3074605e+000
2.2839887e+000
1.7086412e+000
7.9452932e-001
1.2546974e-001
-2.5645182e-001
1.4761230e-001
1.2431769e+000
2.8571601e+000
4.5358415e+000
5.6270151e+000
6.3361592e+000
6.9045320e+000
7.7667499e+000
9.3326731e+000
1.1791784e+001
1.5183503e+001
1.9056650e+001
2.3056286e+001
2.6427750e+001
2.8959774e+001
3.1217939e+001
3.3464989e+001
3.6565845e+001
4.0532978e+001
4.5039227e+001
4.9887642e+001
5.3925064e+001
5.7240871e+001
6.0755810e+001
6.4524590e+001
6.9010979e+001
7.3997742e+001
7.8711647e+001
8.3130547e+001
8.7133934e+001
9.0779839e+001
9.4178558e+001
9.7366119e+001
1.0041438e+002
1.0304900e+002
1.0495402e+002
1.0535920e+002
1.0364285e+002
1.0059228e+002
9.6992622e+001
9.3299957e+001
8.9807281e+001
8.5968483e+001
8.1582031e+001
7.6929123e+001
7.2141800e+001
6.7601372e+001
6.3369781e+001
5.9076962e+001
5.4675026e+001
5.0307152e+001
4.5988209e+001
4.1827972e+001
3.7859035e+001
3.4309917e+001
3.1217018e+001
2.8669828e+001
2.6630959e+001
2.4892303e+001
2.3448624e+001
2.2233959e+001
2.1261236e+001
2.0516499e+001
1.9975679e+001
1.9575428e+001
1.9294516e+001
1.9093937e+001
1.9031700e+001
1.9140474e+001
1.9481880e+001
2.0077671e+001
2.1028646e+001
2.2355572e+001
2.3953512e+001
2.5768665e+001
2.7400110e+001
2.8757559e+001
2.9923571e+001
3.0920712e+001
3.2372498e+001
3.4421509e+001
3.7561859e+001
4.1735573e+001
4.5458061e+001
4.8513783e+001
5.0490303e+001
5.1568546e+001
5.2752892e+001
5.4033161e+001
5.5348389e+001
5.6192841e+001
5.5777424e+001
5.4280659e+001
5.2129143e+001
4.9895676e+001
4.8220661e+001
4.6972095e+001
4.6022850e+001
4.5075020e+001
4.3935112e+001
4.2351479e+001
4.0163815e+001
3.7793613e+001
3.5363293e+001
3.3165241e+001
3.1313046e+001
2.9085983e+001
2.6317871e+001
2.3166018e+001
1.9614553e+001
1.6594608e+001
1.4215700e+001
1.2143857e+001
1.0418161e+001
8.8355789e+000
7.3841610e+000
5.9244542e+000
4.4361830e+000
2.8872581e+000
1.4437208e+000
3.9066947e-001
-1.3910294e-001
-6.4190030e-003
7.3023736e-001
1.8928874e+000
3.0242059e+000
3.7679849e+000
4.2400379e+000
4.4896264e+000
4.8735929e+000
5.5908751e+000
6.4872327e+000
7.5642400e+000
8.2473946e+000
8.2678118e+000
7.9493904e+000
7.1726122e+000
6.4081001e+000
5.6797867e+000
5.0707493e+000
4.6479654e+000
4.4192538e+000
4.4074154e+000
4.4097562e+000
4.3788662e+000
4.1835151e+000
3.8700380e+000
3.6243401e+000
3.5213542e+000
3.6705692e+000
4.0059004e+000
4.4096489e+000
4.7412658e+000
4.8312101e+000
4.7950315e+000
4.7179899e+000
4.7102470e+000
4.8718886e+000
5.1179805e+000
5.4429832e+000
5.7723999e+000
6.0838218e+000
6.3278570e+000
6.4420085e+000
6.4535594e+000
6.2822800e+000
6.0584741e+000
5.7483149e+000
5.3906245e+000
4.9752970e+000
4.5669899e+000
4.1908560e+000
3.8964942e+000
3.6904290e+000
3.4965580e+000
3.2970152e+000
3.0530000e+000
2.7678270e+000
2.4687760e+000
2.1366844e+000
1.7333331e+000
1.2899942e+000
8.2796240e-001
4.1920942e-001
1.6272373e-001
2.3883451e-002
4.4502698e-002
1.3477543e-001
3.6920160e-001
6.6117108e-001
1.0435345e+000
1.3403442e+000
1.4432458e+000
1.4085965e+000
1.1253897e+000
8.8277686e-001
7.2439808e-001
6.9841653e-001
8.7720108e-001
1.1692518e+000
1.6056166e+000
2.0892079e+000
2.5865500e+000
2.9664671e+000
3.1980150e+000
3.2632143e+000
3.2068703e+000
3.1304579e+000
3.0567012e+000
3.0250781e+000
3.0110440e+000
2.9914720e+000
2.9653857e+000
2.9218524e+000
2.8787131e+000
2.8449788e+000
2.8236001e+000
2.8297350e+000
2.8555059e+000
2.9265819e+000
3.0241046e+000
3.1812396e+000
3.3648944e+000
3.6004441e+000
3.8406625e+000
4.0895247e+000
4.3347058e+000
4.5805001e+000
4.8578696e+000
5.1726227e+000
5.5061121e+000
5.8481998e+000
6.1566458e+000
6.4406500e+000
6.7301822e+000
7.0430388e+000
7.4268503e+000
7.8446498e+000
8.2565384e+000
8.6262703e+000
8.8604059e+000
9.0242682e+000
9.0802183e+000
9.1072550e+000
9.1056957e+000
9.0823507e+000
8.9972544e+000
8.8738165e+000
8.6433516e+000
8.3697414e+000
7.9896812e+000
7.5606260e+000
7.0320888e+000
6.4692163e+000
5.8552527e+000
5.2564144e+000
4.6845746e+000
4.1494384e+000
3.6583660e+000
3.1900270e+000
2.7434447e+000
2.3035996e+000
1.8672072e+000
1.4234549e+000
9.9633718e-001
6.5628272e-001
3.9145350e-001
2.7930185e-001
2.2033155e-001
1.7521076e-001
1.3892692e-001
1.2676714e-001
1.5344000e-001
3.2436669e-001
4.8697507e-001
5.8122683e-001
6.1577785e-001
4.7202736e-001
3.4734035e-001
2.7534148e-001
2.5778863e-001
3.4322816e-001
4.1253942e-001
4.4950241e-001
4.4089204e-001
3.6937004e-001
2.6672339e-001
1.3564214e-001
2.4588916e-002
-5.1859260e-002
-3.1030096e-002
5.9175119e-002
2.2942086e-001
4.5049199e-001
6.9558817e-001
9.4701338e-001
1.1839280e+000
1.4145100e+000
1.6335888e+000
1.8542106e+000
2.0940039e+000
2.3255684e+000
2.5025470e+000
2.6442287e+000
2.6443183e+000
2.6594076e+000
2.7312255e+000
2.8977249e+000
3.2947400e+000
3.7094817e+000
4.1468954e+000
4.4974704e+000
4.7182856e+000
4.9512463e+000
5.2140779e+000
5.5884914e+000
6.0692406e+000
6.5460100e+000
6.9973316e+000
7.2887659e+000
7.4626312e+000
7.4699640e+000
7.4001856e+000
7.3113832e+000
7.2348504e+000
7.2918506e+000
7.3817286e+000
7.4970260e+000
7.5973921e+000
7.5631385e+000
7.5214357e+000
7.4750333e+000
7.4464426e+000
7.4955730e+000
7.5538054e+000
7.6387458e+000
7.7005057e+000
7.6988964e+000
7.6111412e+000
7.3632517e+000
7.0974555e+000
6.8171735e+000
6.6521802e+000
6.6149406e+000
6.5566783e+000
6.4604788e+000
6.1621065e+000
5.7210298e+000
5.2305131e+000
4.7291269e+000
4.3857989e+000
4.1111522e+000
3.9260828e+000
3.7527401e+000
3.4431002e+000
3.0942066e+000
2.5607321e+000
2.0178335e+000
1.5454301e+000
1.1053976e+000
8.8370216e-001
6.8528783e-001
5.8910573e-001
4.9627072e-001
4.1290897e-001
3.2158172e-001
2.1101083e-001
8.4561214e-002
-6.9535434e-002
-2.3414746e-001
-4.1438657e-001
-6.2730002e-001
-8.7355542e-001
-1.1121758e+000
-1.3335440e+000
-1.3532716e+000
-1.2384608e+000
-8.9240956e-001
-4.4344124e-001
-2.2259802e-002
3.8246208e-001
6.3371307e-001
8.4631383e-001
9.3030912e-001
9.8869038e-001
8.0566990e-001
6.0456866e-001
2.8543654e-001
5.6914371e-003
1.1420473e-003
4.4424236e-002
3.5118949e-001
6.4533508e-001
9.0140247e-001
1.1064891e+000
1.2027622e+000
1.2828457e+000
1.3369057e+000
1.3740400e+000
1.3914261e+000
1.4308252e+000
1.4931843e+000
1.7226644e+000
2.0721765e+000
2.6151874e+000
3.2604918e+000
3.8887460e+000
4.5098929e+000
4.8999896e+000
5.2295394e+000
5.4018211e+000
5.5490351e+000
5.7832999e+000
