Image.
>Pix99999.
  .
5555
5555
2300
900
5555
2
1
0
701
5555
-6.3675001e-002
-6.5000109e-002
-6.6324212e-002
-6.7649312e-002
-6.8973422e-002
-7.0298523e-002
-7.1623623e-002
-7.2947741e-002
-7.4272834e-002
-7.5596951e-002
-7.6922044e-002
-7.8247145e-002
-7.9571269e-002
-8.0892429e-002
-8.2220398e-002
-8.3559260e-002
-8.4870011e-002
-8.6142085e-002
-8.7517515e-002
-8.9038551e-002
-9.0174802e-002
-9.0767659e-002
-9.2794783e-002
-9.6840754e-002
-9.5563158e-002
-7.4917786e-002
-2.7543288e-003
1.4033973e-001
3.0212358e-001
4.2639050e-001
5.2262866e-001
6.0722893e-001
6.4832032e-001
6.1246258e-001
5.1666546e-001
3.9332899e-001
2.7720749e-001
1.9578166e-001
1.4499357e-001
1.1569114e-001
1.1583599e-001
1.5362540e-001
2.1683499e-001
2.8562221e-001
3.3428121e-001
3.4289297e-001
3.2189420e-001
2.9099566e-001
2.6980436e-001
2.7753261e-001
3.3256930e-001
4.4866541e-001
6.2178355e-001
8.3560467e-001
1.0466336e+000
1.2109736e+000
1.3176240e+000
1.3718204e+000
1.3996540e+000
1.4274400e+000
1.4531143e+000
1.4662544e+000
1.4605554e+000
1.4340559e+000
1.3973378e+000
1.3598821e+000
1.3105708e+000
1.2351753e+000
1.1370531e+000
1.0318387e+000
9.6090198e-001
9.6257263e-001
1.0265712e+000
1.1233715e+000
1.2133020e+000
1.2661821e+000
1.3022435e+000
1.3564630e+000
1.4520015e+000
1.5976908e+000
1.7617400e+000
1.8999901e+000
1.9765171e+000
1.9701445e+000
1.9066881e+000
1.8292443e+000
1.7835617e+000
1.8009183e+000
1.8509617e+000
1.8834493e+000
1.8600113e+000
1.7617790e+000
1.6284451e+000
1.5170954e+000
1.4660071e+000
1.4926243e+000
1.5602571e+000
1.6177508e+000
1.6387300e+000
1.6144561e+000
1.5671571e+000
1.5245734e+000
1.4891272e+000
1.4545058e+000
1.4203663e+000
1.3916700e+000
1.3823237e+000
1.4032563e+000
1.4384915e+000
1.4654760e+000
1.4786714e+000
1.4850279e+000
1.5120239e+000
1.5840018e+000
1.6793586e+000
1.7567414e+000
1.7746400e+000
1.7059233e+000
1.5813200e+000
1.4521620e+000
1.3568885e+000
1.3191190e+000
1.3297583e+000
1.3668782e+000
1.4132680e+000
1.4535714e+000
1.4707501e+000
1.4489341e+000
1.3801898e+000
1.2645252e+000
1.1201900e+000
9.7285557e-001
8.4553677e-001
7.5873262e-001
7.2827739e-001
7.6438409e-001
8.6201906e-001
1.0026501e+000
1.1388011e+000
1.2170326e+000
1.2114199e+000
1.1199155e+000
9.8503691e-001
8.6382008e-001
7.9170007e-001
7.8583795e-001
8.3285761e-001
9.0583330e-001
9.7730732e-001
1.0262663e+000
1.0566357e+000
1.0836540e+000
1.1205794e+000
1.1754606e+000
1.2410500e+000
1.3024586e+000
1.3423561e+000
1.3448027e+000
1.3028048e+000
1.2207472e+000
1.1322914e+000
1.0824780e+000
1.1041892e+000
1.2102901e+000
1.3572372e+000
1.4776536e+000
1.5184995e+000
1.4492414e+000
1.2962921e+000
1.1129920e+000
9.4759446e-001
8.3566749e-001
7.7778596e-001
7.5561559e-001
7.4490404e-001
7.2501749e-001
6.9850188e-001
6.7765570e-001
6.6450852e-001
6.5467089e-001
6.4311314e-001
6.2661654e-001
6.0902745e-001
5.9465700e-001
5.7362860e-001
5.3566068e-001
5.0295371e-001
5.1195645e-001
5.8237916e-001
7.1669722e-001
8.8836759e-001
1.0596154e+000
1.2090143e+000
1.3217598e+000
1.3672209e+000
1.3161136e+000
1.1869520e+000
1.0314705e+000
9.2718369e-001
9.4740874e-001
1.0940114e+000
1.3194946e+000
1.5413901e+000
1.6703080e+000
1.6571988e+000
1.4911513e+000
1.2207614e+000
9.2403555e-001
6.6564369e-001
4.9205211e-001
4.1713500e-001
4.3582702e-001
5.3946531e-001
7.1212846e-001
9.0742981e-001
1.0631696e+000
1.1270726e+000
1.0686660e+000
9.1967261e-001
7.4383295e-001
5.8384228e-001
4.6011534e-001
3.6751148e-001
2.8816372e-001
2.0955759e-001
1.2627549e-001
4.3339610e-002
-2.7966613e-002
-7.5152062e-002
-8.6832047e-002
-5.7090215e-002
1.6405758e-002
1.3540976e-001
2.9511887e-001
4.6123454e-001
5.8502525e-001
6.3752931e-001
6.1170840e-001
5.3242457e-001
4.3731299e-001
3.3596230e-001
2.1951503e-001
8.8207990e-002
-4.2876750e-002
-1.2919196e-001
-1.2048399e-001
-2.4477389e-002
1.0935555e-001
2.2738090e-001
2.9199421e-001
3.2888001e-001
3.9556295e-001
5.0119436e-001
6.1430395e-001
6.9199419e-001
6.9783503e-001
6.3903612e-001
5.5331653e-001
4.7855151e-001
4.4694239e-001
4.8182112e-001
5.8876133e-001
7.1813077e-001
7.8845274e-001
7.4726629e-001
5.8380723e-001
3.6140499e-001
1.7585582e-001
4.4223830e-002
-6.8393543e-002
-1.4485343e-001
-1.2881668e-001
3.5834163e-003
2.3245735e-001
4.7420496e-001
6.1663890e-001
6.1291373e-001
4.8968637e-001
3.6289322e-001
3.8138926e-001
5.7335001e-001
8.5185003e-001
1.0543664e+000
1.0098536e+000
7.0811331e-001
2.7907348e-001
-9.3107998e-002
-2.1196890e-001
6.9853380e-002
8.1657386e-001
1.8958685e+000
3.0431170e+000
4.0598030e+000
4.8653607e+000
5.5872221e+000
6.5011215e+000
7.8624153e+000
9.8624039e+000
1.2575492e+001
1.5930015e+001
1.9572573e+001
2.2994230e+001
2.5951708e+001
2.8520561e+001
3.1109783e+001
3.4319992e+001
3.8554131e+001
4.3872425e+001
4.9657440e+001
5.4921982e+001
5.9436642e+001
6.3693340e+001
6.8195694e+001
7.3224457e+001
7.8507439e+001
8.3379150e+001
8.7444000e+001
9.0643204e+001
9.3062904e+001
9.4853653e+001
9.6129883e+001
9.6951851e+001
9.7329796e+001
9.7231346e+001
9.6591202e+001
9.5357857e+001
9.3659157e+001
9.1753464e+001
8.9759949e+001
8.7627869e+001
8.5216583e+001
8.2364967e+001
7.9061005e+001
7.5420250e+001
7.1477196e+001
6.7174133e+001
6.2492722e+001
5.7494099e+001
5.2374779e+001
4.7427540e+001
4.2859715e+001
3.8769550e+001
3.5200615e+001
3.2156059e+001
2.9588806e+001
2.7413164e+001
2.5564791e+001
2.4013958e+001
2.2757332e+001
2.1807364e+001
2.1152500e+001
2.0752405e+001
2.0564262e+001
2.0552700e+001
2.0709099e+001
2.1048872e+001
2.1576178e+001
2.2289391e+001
2.3240427e+001
2.4539072e+001
2.6298058e+001
2.8591879e+001
3.1343634e+001
3.4326542e+001
3.7323799e+001
4.0176678e+001
4.2808491e+001
4.5253345e+001
4.7732567e+001
5.0557400e+001
5.3614613e+001
5.6342010e+001
5.8294735e+001
5.9318512e+001
5.9590740e+001
5.9527107e+001
5.9262211e+001
5.8564342e+001
5.7160782e+001
5.4894176e+001
5.2003143e+001
4.9097900e+001
4.6580772e+001
4.4503307e+001
4.2746048e+001
4.1081501e+001
3.9279976e+001
3.7161686e+001
3.4688641e+001
3.1992218e+001
2.9311428e+001
2.6920956e+001
2.4856560e+001
2.2870192e+001
2.0721445e+001
1.8292965e+001
1.5702543e+001
1.3286386e+001
1.1246074e+001
9.5564747e+000
8.1132278e+000
6.7865725e+000
5.5130463e+000
4.3122015e+000
3.1938908e+000
2.1429071e+000
1.1830940e+000
3.9369866e-001
-1.3639866e-001
-3.1627530e-001
-2.9244542e-002
8.3590710e-001
2.1935921e+000
3.7272689e+000
5.1756811e+000
6.4332681e+000
7.5351071e+000
8.6430330e+000
9.8790236e+000
1.1252459e+001
1.2620600e+001
1.3698256e+001
1.4306292e+001
1.4458824e+001
1.4258635e+001
1.3864643e+001
1.3396809e+001
1.2902610e+001
1.2389114e+001
1.1824294e+001
1.1144829e+001
1.0269683e+001
9.1984024e+000
8.0461569e+000
6.9598918e+000
6.0853577e+000
5.5030432e+000
5.2002854e+000
5.1291280e+000
5.2221131e+000
5.4170203e+000
5.6687322e+000
5.9562788e+000
6.2866526e+000
6.6659060e+000
7.0865865e+000
7.5178761e+000
7.9004450e+000
8.1716957e+000
8.2788057e+000
8.2010498e+000
7.9643464e+000
7.6219068e+000
7.2475247e+000
6.8940201e+000
6.5737801e+000
6.2765064e+000
5.9724116e+000
5.6343007e+000
5.2458868e+000
4.7986259e+000
4.2931070e+000
3.7390440e+000
3.1565948e+000
2.5642033e+000
1.9741077e+000
1.3961266e+000
8.4163314e-001
3.4144616e-001
-4.6849087e-002
-2.7545959e-001
-3.2295865e-001
-1.8122102e-001
1.4327592e-001
6.2393725e-001
1.2106500e+000
1.8673799e+000
2.5839019e+000
3.3256845e+000
4.0086918e+000
4.5332541e+000
4.8021765e+000
4.7758493e+000
4.5090399e+000
4.0850935e+000
3.5976372e+000
3.1332953e+000
2.7592177e+000
2.5136149e+000
2.3898983e+000
2.3511500e+000
2.3292630e+000
2.2666948e+000
2.1389446e+000
1.9520297e+000
1.7499843e+000
1.5768577e+000
1.4604760e+000
1.4162086e+000
1.4455318e+000
1.5530571e+000
1.7533785e+000
2.0581665e+000
2.4673796e+000
2.9665999e+000
3.5206165e+000
4.0900602e+000
4.6374068e+000
5.1309910e+000
5.5502467e+000
5.8840828e+000
6.1354551e+000
6.3194008e+000
6.4675541e+000
6.6182456e+000
6.8140359e+000
7.0899115e+000
7.4645190e+000
7.9441619e+000
8.5197992e+000
9.1817226e+000
9.9256268e+000
1.0752077e+001
1.1667823e+001
1.2678549e+001
1.3781500e+001
1.4953043e+001
1.6135462e+001
1.7247961e+001
1.8184505e+001
1.8847029e+001
1.9171415e+001
1.9118441e+001
1.8686422e+001
1.7896795e+001
1.6806049e+001
1.5492908e+001
1.4060329e+001
1.2615620e+001
1.1263250e+001
1.0094514e+001
9.1759310e+000
8.5530577e+000
8.2371082e+000
8.2077532e+000
8.3923445e+000
8.6834841e+000
8.9290848e+000
8.9872808e+000
8.7655745e+000
8.2332211e+000
7.4642777e+000
6.5601730e+000
5.6251640e+000
4.7422261e+000
3.9475081e+000
3.2657411e+000
2.7205012e+000
2.3288603e+000
2.0937357e+000
2.0004799e+000
2.0047088e+000
2.0568635e+000
2.1137784e+000
2.1461399e+000
2.1524591e+000
2.1390398e+000
2.1148229e+000
2.0848286e+000
2.0441446e+000
1.9840930e+000
1.8927879e+000
1.7545646e+000
1.5488148e+000
1.2677503e+000
9.3637574e-001
5.9949005e-001
3.2466751e-001
1.4849839e-001
2.4270192e-002
-9.6977428e-002
-2.2094241e-001
-3.2822150e-001
-3.6646444e-001
-2.9561543e-001
-1.2608993e-001
1.0162126e-001
3.0596697e-001
4.1917998e-001
4.3215838e-001
3.6044770e-001
2.4485393e-001
1.2514284e-001
2.4178471e-002
-3.2636054e-002
-5.1100999e-003
1.3507332e-001
3.7652099e-001
6.8998230e-001
1.0258267e+000
1.3369000e+000
1.5956846e+000
1.7870680e+000
1.9170871e+000
2.0134652e+000
2.1442456e+000
2.3661962e+000
2.6774404e+000
3.0313606e+000
3.3032279e+000
3.3795431e+000
3.2318251e+000
2.8890264e+000
2.4779985e+000
2.1291301e+000
1.9137272e+000
1.8547720e+000
1.8814738e+000
1.9114809e+000
1.8942305e+000
1.8070086e+000
1.6843926e+000
1.5696288e+000
1.4915670e+000
1.4659789e+000
1.4815536e+000
1.5233533e+000
1.5858288e+000
1.6752000e+000
1.8234185e+000
2.0518098e+000
2.3324759e+000
2.6153076e+000
2.8236229e+000
2.9009655e+000
2.8710220e+000
2.7782249e+000
2.6706581e+000
2.5750258e+000
2.4530044e+000
2.2581201e+000
1.9681377e+000
1.5846519e+000
1.1627754e+000
7.6571083e-001
4.3900990e-001
2.0569280e-001
3.1616844e-002
-1.2815708e-001
-3.0763680e-001
-5.2240145e-001
-7.3875844e-001
-9.1950154e-001
-1.0551726e+000
-1.1505280e+000
-1.2334728e+000
-1.3214349e+000
-1.3799157e+000
-1.3729600e+000
-1.3012530e+000
-1.1847714e+000
-1.0753404e+000
-1.0177214e+000
-1.0068356e+000
-1.0251223e+000
-1.0544600e+000
-1.0788760e+000
-1.0873939e+000
-1.0680828e+000
-9.9931538e-001
-8.6687160e-001
-6.8876541e-001
-4.9186999e-001
-3.0549514e-001
-1.5444757e-001
-4.5285679e-002
2.5633451e-002
8.1841484e-002
1.4136517e-001
1.8490399e-001
1.9187714e-001
1.7078683e-001
1.3639577e-001
9.9944763e-002
7.2720408e-002
6.9203317e-002
9.5815159e-002
1.2583828e-001
1.2345303e-001
5.0086387e-002
-1.0518971e-001
-2.4537615e-001
-2.5340700e-001
-3.9015710e-002
4.4199133e-001
1.0806835e+000
1.7348366e+000
2.2821198e+000
2.6357584e+000
2.8307464e+000
2.9330001e+000
