##TITLE=Methyl Ethyl Ketone
##JCAMP-DX=4.24
##DATA TYPE=INFRARED SPECTRUM
##XUNITS=cm-1
##YUNITS=Absorbance
##FIRSTX=900
##LASTX=2300
##XYDATA=(X++(Y..Y))
2296 -0.030902
2294 -0.03154508
2292 -0.032187164
2290 -0.032830238
2288 -0.03347332
2286 -0.034116399
2284 -0.03475849
2282 -0.03540156
2280 -0.036044639
2278 -0.036687717
2276 -0.037330799
2274 -0.037972897
2272 -0.038615957
2270 -0.039259043
2268 -0.039902121
2266 -0.040545203
2264 -0.041187305
2262 -0.041830361
2260 -0.042473443
2258 -0.043116521
2256 -0.043758627
2254 -0.044401679
2252 -0.045044761
2250 -0.045687839
2248 -0.046330921
2246 -0.046973038
2244 -0.0017455658
2242 0.1257164
2240 0.27489442
2238 0.44040626
2236 0.60827231
2234 0.64446682
2232 0.66982937
2230 0.66506279
2228 0.66482711
2226 0.71260554
2224 0.75280672
2222 0.74746227
2220 0.71387434
2218 0.60180962
2216 0.47894257
2214 0.34212348
2212 0.2155724
2210 0.10710419
2208 0.026964275
2206 -0.019270428
2204 -0.022751722
2202 0.012862397
2200 0.039590254
2198 0.057746302
2196 0.019511929
2194 -0.05088371
2192 -0.095810533
2190 -0.12859493
2188 -0.081847407
2186 -0.0095124012
2184 0.032530017
2182 0.067230172
2180 0.039278869
2178 0.0024879102
2176 0.0034421389
2174 0.010319075
2172 0.044798572
2170 0.079383902
2168 0.099724598
2166 0.12339472
2164 0.16440457
2162 0.21432346
2160 0.28259671
2158 0.33788079
2156 0.36492401
2154 0.36592925
2152 0.33343697
2150 0.30006394
2148 0.26962939
2146 0.25608283
2144 0.25722012
2142 0.2432611
2140 0.21780179
2138 0.15445992
2136 0.0710904
2134 -0.0003095651
2132 -0.065970801
2130 -0.083362482
2128 -0.085554883
2126 -0.083373137
2124 -0.080393746
2122 -0.078382537
2120 -0.07448674
2118 -0.032333441
2116 0.013057571
2114 0.041337319
2112 0.060147017
2110 0.047613498
2108 0.04477315
2106 0.085146673
2104 0.12818006
2102 0.16316935
2100 0.15762599
2098 0.086137533
2096 0.021935428
2094 -0.019829795
2092 -0.026170962
2090 0.00079220952
2088 -0.0044190073
2086 -0.040452566
2084 -0.063678689
2082 -0.075754061
2080 -0.0035859309
2078 0.11229976
2076 0.19220443
2074 0.25505859
2072 0.223012
2070 0.16098891
2068 0.14687984
2066 0.14603464
2064 0.17369993
2062 0.19639017
2060 0.1054554
2058 -0.02103984
2056 -0.2201287
2054 -0.41830274
2052 -0.56033593
2050 -0.65660912
2048 -0.66204011
2046 -0.6514532
2044 -0.64352918
2042 -0.65527076
2040 -0.69736832
2038 -0.7202763
2036 -0.71475714
2034 -0.69393611
2032 -0.66308254
2030 -0.66026533
2028 -0.67993015
2026 -0.70689511
2024 -0.73547453
2022 -0.70945352
2020 -0.6544717
2018 -0.55820513
2016 -0.44682199
2014 -0.4146691
2012 -0.41081718
2010 -0.522964
2008 -0.66751391
2006 -0.83742511
2004 -1.0083033
2002 -1.137552
2000 -1.2450634
1998 -1.2997091
1996 -1.3414214
1994 -1.3817714
1992 -1.4355708
1990 -1.5249926
1988 -1.604298
1986 -1.6568035
1984 -1.6597172
1982 -1.6022916
1980 -1.536978
1978 -1.4759967
1976 -1.4117714
1974 -1.342361
1972 -1.1735386
1970 -0.92841136
1968 -0.67545706
1966 -0.42662737
1964 -0.39688599
1962 -0.48396498
1960 -0.7053104
1958 -0.97944003
1956 -1.2038558
1954 -1.4068543
1952 -1.5261223
1950 -1.6135705
1948 -1.6320198
1946 -1.630125
1944 -1.6401303
1942 -1.658767
1940 -1.7126697
1938 -1.7688216
1936 -1.8066914
1934 -1.8394189
1932 -1.8665481
1930 -1.8936323
1928 -1.9170434
1926 -1.8596021
1924 -1.694008
1922 -1.3983319
1920 -0.9961803
1918 -0.68318671
1916 -0.48025972
1914 -0.4485116
1912 -0.52810699
1910 -0.61723047
1908 -0.69688165
1906 -0.83261883
1904 -1.0009719
1902 -1.1675049
1900 -1.3332759
1898 -1.252144
1896 -1.0642715
1894 -0.73892081
1892 -0.39182907
1890 -0.2678085
1888 -0.30013463
1886 -0.64672709
1884 -1.1136537
1882 -1.5925448
1880 -1.9999744
1878 -2.2261732
1876 -2.2945001
1874 -2.176738
1872 -1.8940554
1870 -1.4493387
1868 -1.0241863
1866 -0.69893622
1864 -0.65867281
1862 -0.90008944
1860 -1.2664733
1858 -1.6749943
1856 -1.9884057
1854 -2.2155948
1852 -2.3082266
1850 -2.3168201
1848 -2.212148
1846 -2.0427785
1844 -1.9247602
1842 -1.8360668
1840 -1.8814366
1838 -1.9860333
1836 -2.023797
1834 -2.002182
1832 -1.7988205
1830 -1.4827089
1828 -1.0634221
1826 -0.66895443
1824 -0.48602623
1822 -0.5212183
1820 -0.83278781
1818 -1.2497317
1816 -1.6495315
1814 -1.9580921
1812 -2.1381557
1810 -2.2150967
1808 -2.221915
1806 -2.110075
1804 -1.8971022
1802 -1.6512437
1800 -1.3946331
1798 -1.2404774
1796 -1.1688571
1794 -1.0344158
1792 -0.85203362
1790 -0.62432301
1788 -0.38082808
1786 -0.28672108
1784 -0.28384393
1782 -0.29127297
1780 -0.28845686
1778 -0.15832952
1776 0.072553143
1774 0.44644731
1772 0.85640335
1770 1.1200271
1768 1.2036326
1766 1.004301
1764 0.67465001
1762 0.36059281
1760 0.093382686
1758 -0.28345639
1756 -0.59784102
1754 -0.7014671
1752 -0.4016231
1750 0.30893272
1748 1.1422164
1746 1.9665142
1744 2.3305461
1742 2.2455883
1740 2.0434885
1738 1.8254039
1736 1.95608
1734 2.365551
1732 2.5157869
1730 2.4388647
1728 1.800889
1726 0.81707132
1724 0.10938518
1722 -0.28609449
1720 0.12202087
1718 1.2117321
1716 2.8385215
1714 4.5318909
1712 5.5525222
1710 6.0987368
1708 6.4111619
1706 6.9352245
1704 8.1058855
1702 10.146772
1700 13.122175
1698 16.692049
1696 20.530428
1694 23.859159
1692 26.436005
1690 28.793695
1688 31.182806
1686 34.518307
1684 38.803658
1682 43.601513
1680 48.695919
1678 52.800636
1676 56.033943
1674 59.373997
1672 62.903561
1670 67.13868
1668 71.891838
1666 76.523849
1664 81.005112
1662 85.24025
1660 89.233292
1658 92.996841
1656 96.506401
1654 99.742096
1652 102.4992
1650 104.55557
1648 105.28091
1646 104.15858
1644 101.75003
1642 98.654678
1640 95.250793
1638 91.832924
1636 87.944153
1634 83.437225
1632 78.710762
1630 73.925713
1628 69.481735
1626 65.43663
1624 61.313759
1622 57.053703
1620 52.745846
1618 48.410988
1616 44.228542
1614 40.229649
1612 36.64188
1610 33.489811
1608 30.829508
1606 28.620628
1604 26.654264
1602 24.93844
1600 23.442137
1598 22.203386
1596 21.247
1594 20.565825
1592 20.106972
1590 19.8319
1588 19.675089
1586 19.662428
1584 19.804726
1582 20.175091
1580 20.804726
1578 21.761032
1576 23.050714
1574 24.517517
1572 26.087294
1570 27.48716
1568 28.65436
1566 29.709127
1564 30.679829
1562 32.050896
1560 33.94825
1558 36.822647
1556 40.642414
1554 44.117798
1552 47.045738
1550 49.02182
1548 50.183556
1546 51.397499
1544 52.683105
1542 54.047459
1540 55.117401
1538 55.247013
1536 54.405029
1534 52.72229
1532 50.673679
1530 48.857597
1528 47.331211
1526 46.125851
1524 45.078766
1522 44.074352
1520 42.792114
1518 41.032299
1516 38.945271
1514 36.552437
1512 34.174881
1510 31.916969
1508 29.33408
1506 26.31745
1504 23.217468
1502 20.073755
1500 17.50346
1498 15.59131
1496 13.837
1494 12.242581
1492 10.626723
1490 8.984189
1488 7.2907639
1486 5.5520415
1484 3.803452
1482 2.1781824
1480 0.91816974
1478 0.15201581
1476 0.021577388
1474 0.54629773
1472 1.6012971
1470 2.7313318
1468 3.5839312
1466 4.1757431
1464 4.5124154
1462 4.9506931
1460 5.6868696
1458 6.5761266
1456 7.6097803
1454 8.2674618
1452 8.2867403
1450 8.0311766
1448 7.4046116
1446 6.786675
1444 6.19314
1442 5.6631541
1440 5.2478361
1438 4.9833508
1436 4.8931689
1434 4.8029294
1432 4.673996
1430 4.39534
1428 4.0124197
1426 3.7202044
1424 3.5863006
1422 3.709018
1420 4.0260124
1418 4.4132829
1416 4.7431855
1414 4.8568668
1412 4.8463459
1410 4.7934608
1408 4.8114839
1406 5.0081615
1404 5.3376865
1402 5.8272491
1400 6.357048
1398 6.908947
1396 7.3354139
1394 7.5143738
1392 7.5316601
1390 7.2605
1388 6.933095
1386 6.5139947
1384 6.0618858
1382 5.5736313
1380 5.1051354
1378 4.6802135
1376 4.3173146
1374 4.0296369
1372 3.75319
1370 3.4907792
1368 3.2475219
1366 3.0088658
1364 2.7742159
1362 2.4983106
1360 2.0971107
1358 1.6206681
1356 1.0988531
1354 0.61741251
1352 0.29041091
1350 0.066590965
1348 -0.021558788
1346 -0.032730255
1344 0.078926958
1342 0.26975816
1340 0.60632133
1338 0.89676106
1336 1.0644658
1334 1.0916306
1332 0.84572589
1330 0.60392022
1328 0.38772914
1326 0.29403231
1324 0.40105024
1322 0.63281971
1320 1.0270894
1318 1.4690809
1316 1.93135
1314 2.2903471
1312 2.5172961
1310 2.6052487
1308 2.5781488
1306 2.5091522
1304 2.4176919
1302 2.331326
1300 2.2532363
1298 2.1835091
1296 2.1177285
1294 2.0467296
1292 1.978776
1290 1.9181364
1288 1.886096
1286 1.9243078
1284 1.9889871
1282 2.1044109
1280 2.2045028
1278 2.2689078
1276 2.3262815
1274 2.3821261
1272 2.4829195
1270 2.6672807
1268 2.9017093
1266 3.2024229
1264 3.5148664
1262 3.8354867
1260 4.1517501
1258 4.4626398
1256 4.7689142
1254 5.0708423
1252 5.3702769
1250 5.6730857
1248 5.9950013
1246 6.3329248
1244 6.6887546
1242 7.0391145
1240 7.3444943
1238 7.6081767
1236 7.7768717
1234 7.8917551
1232 7.8902597
1230 7.8367233
1228 7.653614
1226 7.4450688
1224 7.174304
1222 6.8988533
1220 6.6076908
1218 6.2846727
1216 5.8933511
1214 5.4583969
1212 4.9548821
1210 4.4504991
1208 3.9477315
1206 3.4597313
1204 2.9865
1202 2.5118725
1200 2.0414732
1198 1.5950938
1196 1.1825471
1194 0.83982211
1192 0.55014849
1190 0.3168914
1188 0.10763785
1186 -0.10529539
1184 -0.31447679
1182 -0.50370073
1180 -0.6549136
1178 -0.66824442
1176 -0.62644398
1174 -0.43665206
1172 -0.23988496
1170 -0.052982345
1168 0.094727531
1166 0.11821999
1164 0.097068109
1162 -0.031975262
1160 -0.16867691
1158 -0.31194562
1156 -0.40351799
1154 -0.40530521
1152 -0.35493085
1150 -0.24024589
1148 -0.13982528
1146 -0.061346181
1144 -0.023223897
1142 -0.017655902
1140 -0.0051988419
1138 0.022255678
1136 0.10180971
1134 0.23494139
1132 0.47532141
1130 0.77490312
1128 1.171097
1126 1.5932958
1124 2.0144768
1122 2.4185922
1120 2.733104
1118 3.0139563
1116 3.1571057
1114 3.2603226
1112 3.2055349
1110 3.137233
1108 3.033433
1106 2.9983048
1104 3.1395154
1102 3.3719578
1100 3.7781475
1098 4.1841669
1096 4.5856714
1094 4.9533896
1092 5.2816496
1090 5.6202197
1088 5.9689841
1086 6.3218093
1084 6.6755285
1082 7.0118442
1080 7.3292165
1078 7.5818591
1076 7.7884169
1074 7.8711653
1072 7.9001555
1070 7.8348494
1068 7.7440133
1066 7.6208181
1064 7.494184
1062 7.3728309
1060 7.2635169
1058 7.2310467
1056 7.224494
1054 7.3304324
1052 7.4286127
1050 7.4988494
1048 7.5206485
1046 7.4293394
1044 7.3597755
1042 7.3377142
1040 7.4017243
1038 7.5872917
1036 7.7621202
1034 7.9098277
1032 7.9036736
1030 7.7440548
1028 7.3963633
1026 6.9173336
1024 6.4062524
1022 5.8935976
1020 5.5423055
1018 5.2588072
1016 5.0416918
1014 4.827559
1012 4.4502015
1010 4.0358758
1008 3.5148602
1006 2.9889679
1004 2.5084565
1002 2.0354683
1000 1.6123302
998 1.2262945
996 1.0058014
994 0.8357231
992 0.81747115
990 0.75694847
988 0.59627926
986 0.37535888
984 0.053677723
982 -0.22691566
980 -0.4485518
978 -0.60733676
976 -0.69910318
974 -0.7454372
972 -0.75358003
970 -0.72204155
968 -0.66770214
966 -0.64618599
964 -0.64169824
962 -0.68458492
960 -0.73872095
958 -0.6996069
956 -0.63611388
954 -0.46509218
952 -0.28362519
950 -0.15963495
948 -0.043925215
946 -0.013014964
944 1.2047996e-05
942 0.00056549395
940 0.0080034658
938 0.045105457
936 0.11765315
934 0.2967492
932 0.57022142
930 1.0446543
928 1.5283103
926 2.0227857
924 2.3296959
922 2.4081917
920 2.4228303
918 2.3794858
916 2.4303727
914 2.5468876
912 2.6311829
910 2.7003989
908 2.8503675
906 3.0334277
904 3.2750783
902 3.5321209
900 3.4902437
898 3.4006042
896 3.2637999
