Image.
>Pix99999.
  .
5555
5555
2300
900
5555
2
1
0
701
5555
-6.0145999e-003
-6.1397213e-003
-6.2648421e-003
-6.3898638e-003
-6.5149837e-003
-6.6402042e-003
-6.7654252e-003
-6.8904478e-003
-7.0155682e-003
-7.1407878e-003
-7.2659100e-003
-7.3908339e-003
-7.5160507e-003
-7.6418603e-003
-7.7665038e-003
-7.8892661e-003
-8.0164857e-003
-8.1502432e-003
-8.2671996e-003
-8.3605777e-003
-8.5161002e-003
-8.7593170e-003
-8.7711560e-003
-8.4568821e-003
-9.0021612e-003
-9.6461792e-003
-3.5914543e-004
2.3502121e-002
3.4428999e-002
4.6351422e-003
-5.8145393e-002
-1.3537873e-001
-2.0605943e-001
-2.5227293e-001
-2.7089778e-001
-2.6363650e-001
-2.3419321e-001
-1.8914615e-001
-1.4446549e-001
-1.1597772e-001
-1.0754772e-001
-1.1680789e-001
-1.3054180e-001
-1.3638259e-001
-1.3842498e-001
-1.4386421e-001
-1.5190049e-001
-1.5746810e-001
-1.4844121e-001
-1.1513490e-001
-6.6495642e-002
-1.6928900e-002
2.0903252e-002
3.7069630e-002
3.0125378e-002
2.4464906e-003
-3.8944989e-002
-8.4884882e-002
-1.2331850e-001
-1.4403172e-001
-1.4807287e-001
-1.4064112e-001
-1.2892728e-001
-1.1955170e-001
-1.1463235e-001
-1.1396600e-001
-1.1406679e-001
-1.1150279e-001
-1.0728451e-001
-1.0556194e-001
-1.1713800e-001
-1.5055496e-001
-1.9591509e-001
-2.3639421e-001
-2.5292692e-001
-2.3110428e-001
-1.7813149e-001
-1.0912370e-001
-4.0582377e-002
1.3123296e-002
4.7423631e-002
6.2471990e-002
6.3508093e-002
5.7438418e-002
5.0990079e-002
5.0431859e-002
6.0649894e-002
8.4173903e-002
1.1587291e-001
1.4654976e-001
1.6180086e-001
1.4890750e-001
1.0967674e-001
5.3631768e-002
-6.4744847e-004
-3.5290096e-002
-4.8714675e-002
-4.6838023e-002
-4.0515199e-002
-4.0152535e-002
-4.7422286e-002
-6.0419153e-002
-7.6639690e-002
-9.2699915e-002
-1.0193835e-001
-9.7433105e-002
-7.6441295e-002
-4.0148176e-002
1.0687006e-003
3.4571998e-002
5.3278815e-002
5.4235604e-002
4.1746441e-002
2.3288371e-002
7.7367835e-003
3.1925677e-003
1.2643799e-002
3.4748316e-002
5.8923211e-002
7.2015479e-002
6.5752603e-002
3.7084501e-002
-4.4275061e-003
-4.4416510e-002
-7.0198409e-002
-7.2885111e-002
-5.5464402e-002
-2.7188968e-002
-2.4823593e-003
5.4535582e-003
-3.1196272e-003
-2.0206302e-002
-3.0329114e-002
-1.9104250e-002
1.0731911e-002
4.7436185e-002
7.3833384e-002
7.4685141e-002
5.1357243e-002
1.4923986e-002
-1.4440721e-002
-1.6365062e-002
1.4757615e-002
7.4904099e-002
1.4864039e-001
2.1757758e-001
2.7130303e-001
3.0455780e-001
3.1707627e-001
3.1197760e-001
2.9799858e-001
2.8586680e-001
2.8411326e-001
2.9772493e-001
3.2170540e-001
3.4641492e-001
3.6247465e-001
3.6276069e-001
3.4800735e-001
3.2310379e-001
2.9463944e-001
2.6954001e-001
2.5356743e-001
2.5136361e-001
2.6530269e-001
2.9521349e-001
3.3471701e-001
3.7397444e-001
4.0125760e-001
4.0570837e-001
3.8324687e-001
3.3636653e-001
2.8086025e-001
2.3778173e-001
2.2275966e-001
2.4333251e-001
2.8639206e-001
3.2988688e-001
3.5844967e-001
3.6455745e-001
3.5612857e-001
3.4741944e-001
3.4640640e-001
3.5503939e-001
3.6620387e-001
3.6870593e-001
3.5326952e-001
3.1509119e-001
2.6270542e-001
2.1186560e-001
1.7885943e-001
1.7595556e-001
1.9934788e-001
2.3706016e-001
2.8000176e-001
3.2207045e-001
3.5992160e-001
3.9083049e-001
4.0901303e-001
4.0878162e-001
3.9303142e-001
3.7022015e-001
3.5124129e-001
3.4649912e-001
3.6004412e-001
3.9026222e-001
4.2704308e-001
4.5669201e-001
4.6989498e-001
4.6170768e-001
4.3333101e-001
3.8992581e-001
3.3955681e-001
2.9140711e-001
2.5353181e-001
2.3171943e-001
2.2533554e-001
2.3001850e-001
2.4174768e-001
2.5753087e-001
2.7636713e-001
2.9747322e-001
3.1590760e-001
3.2371271e-001
3.1148121e-001
2.7297822e-001
2.1902806e-001
1.7046341e-001
1.4525513e-001
1.5443222e-001
1.9100314e-001
2.3793480e-001
2.8262845e-001
3.1765485e-001
3.4069189e-001
3.5257021e-001
3.5559201e-001
3.5292539e-001
3.4878740e-001
3.4752831e-001
3.5137200e-001
3.6036271e-001
3.7129295e-001
3.7989238e-001
3.8597378e-001
3.9151651e-001
3.9508846e-001
3.9271134e-001
3.8078290e-001
3.5697025e-001
3.2222071e-001
2.8047317e-001
2.3941761e-001
2.0928428e-001
2.0140588e-001
2.2335821e-001
2.6332998e-001
2.9760057e-001
3.0946916e-001
2.9144230e-001
2.4807373e-001
1.9254182e-001
1.4285800e-001
1.1474049e-001
1.0236283e-001
8.8037029e-002
7.1182422e-002
5.8046218e-002
2.0594269e-002
-8.2813568e-002
-2.3409414e-001
-3.7696946e-001
-4.9506885e-001
-6.0590327e-001
-7.1966565e-001
-8.3588964e-001
-9.5223397e-001
-1.0646725e+000
-1.1614118e+000
-1.2249078e+000
-1.2383400e+000
-1.1898072e+000
-1.0848182e+000
-9.4187492e-001
-7.7966064e-001
-6.1224669e-001
-4.3962747e-001
-2.4575680e-001
1.1086568e-002
3.8464361e-001
8.9953601e-001
1.5466247e+000
2.2773240e+000
3.0313110e+000
3.8210120e+000
4.7299166e+000
5.8868299e+000
7.4629283e+000
9.7049761e+000
1.2825040e+001
1.6605143e+001
2.0495951e+001
2.4054264e+001
2.7066046e+001
2.9737778e+001
3.2583351e+001
3.6049049e+001
4.0348660e+001
4.5093441e+001
4.9522514e+001
5.3402058e+001
5.7038353e+001
6.0853382e+001
6.5186966e+001
6.9919502e+001
7.4574646e+001
7.8830612e+001
8.2583397e+001
8.5829422e+001
8.8615791e+001
9.0984772e+001
9.2964447e+001
9.4575920e+001
9.5824730e+001
9.6653809e+001
9.6973358e+001
9.6796158e+001
9.6209496e+001
9.5177490e+001
9.3540611e+001
9.1161781e+001
8.7992699e+001
8.4201630e+001
8.0110825e+001
7.5883324e+001
7.1498001e+001
6.6907921e+001
6.2103294e+001
5.7204483e+001
5.2441479e+001
4.8012489e+001
4.4048710e+001
4.0610634e+001
3.7691750e+001
3.5220440e+001
3.3084206e+001
3.1214012e+001
2.9594076e+001
2.8226452e+001
2.7116095e+001
2.6244499e+001
2.5568844e+001
2.5053263e+001
2.4679312e+001
2.4449373e+001
2.4381857e+001
2.4479475e+001
2.4728760e+001
2.5131445e+001
2.5706873e+001
2.6474543e+001
2.7446030e+001
2.8608986e+001
2.9923334e+001
3.1339840e+001
3.2802456e+001
3.4238476e+001
3.5607506e+001
3.7104378e+001
3.9107143e+001
4.1699627e+001
4.4577400e+001
4.7259411e+001
4.9241577e+001
5.0434116e+001
5.1181248e+001
5.1728378e+001
5.2103355e+001
5.2257519e+001
5.2115421e+001
5.1653828e+001
5.0919807e+001
4.9988358e+001
4.8940479e+001
4.7795868e+001
4.6504601e+001
4.5023975e+001
4.3344166e+001
4.1504913e+001
3.9594196e+001
3.7695087e+001
3.5848042e+001
3.3959042e+001
3.1806393e+001
2.9251184e+001
2.6320314e+001
2.3238297e+001
2.0382078e+001
1.7939072e+001
1.5821740e+001
1.3882000e+001
1.1982313e+001
1.0063543e+001
8.1629038e+000
6.3340054e+000
4.6302724e+000
3.1263340e+000
1.9103153e+000
1.0068653e+000
3.7504044e-001
5.3623311e-002
1.7068340e-001
7.1667576e-001
1.4923580e+000
2.3165503e+000
3.0925970e+000
3.7885702e+000
4.4323297e+000
5.0597181e+000
5.6928558e+000
6.3122802e+000
6.8497405e+000
7.2386189e+000
7.4344292e+000
7.4319892e+000
7.2713680e+000
6.9986725e+000
6.6515760e+000
6.2460408e+000
5.7705240e+000
5.2034416e+000
4.5263543e+000
3.7698514e+000
3.0271730e+000
2.3834860e+000
1.8897443e+000
1.5662268e+000
1.4015359e+000
1.3815145e+000
1.4962071e+000
1.7271057e+000
2.0428791e+000
2.4133701e+000
2.8161619e+000
3.2420478e+000
3.6958442e+000
4.1743379e+000
4.6572399e+000
5.1150999e+000
5.5126581e+000
5.8250785e+000
6.0448585e+000
6.1702576e+000
6.2020788e+000
6.1401582e+000
5.9837451e+000
5.7422509e+000
5.4396486e+000
5.0985465e+000
4.7331977e+000
4.3477030e+000
3.9359710e+000
3.5012519e+000
3.0629339e+000
2.6337841e+000
2.2101228e+000
1.7802117e+000
1.3302886e+000
8.7526387e-001
4.7301686e-001
1.7665634e-001
1.2672156e-002
-2.2810411e-002
3.0357361e-002
1.3981935e-001
2.9771465e-001
5.0014317e-001
7.3913443e-001
9.9615824e-001
1.2376575e+000
1.4297457e+000
1.5466703e+000
1.5827726e+000
1.5621330e+000
1.5131966e+000
1.4605936e+000
1.4254671e+000
1.4240417e+000
1.4651212e+000
1.5456691e+000
1.6525000e+000
1.7598150e+000
1.8435422e+000
1.8884373e+000
1.8889483e+000
1.8532050e+000
1.7951572e+000
1.7329760e+000
1.6851891e+000
1.6687487e+000
1.6981143e+000
1.7827885e+000
1.9268700e+000
2.1259513e+000
2.3686600e+000
2.6349828e+000
2.9035017e+000
3.1550727e+000
3.3784444e+000
3.5761056e+000
3.7571428e+000
3.9364011e+000
4.1271620e+000
4.3373156e+000
4.5740781e+000
4.8457727e+000
5.1609521e+000
5.5269537e+000
5.9473000e+000
6.4192615e+000
6.9391627e+000
7.5045748e+000
8.1146889e+000
8.7697678e+000
9.4650764e+000
1.0184750e+001
1.0904994e+001
1.1594149e+001
1.2222057e+001
1.2766570e+001
1.3204058e+001
1.3508631e+001
1.3651760e+001
1.3598515e+001
1.3329266e+001
1.2857979e+001
1.2218566e+001
1.1468481e+001
1.0665385e+001
9.8588409e+000
9.0895290e+000
8.3806486e+000
7.7489653e+000
7.2025552e+000
6.7390280e+000
6.3377271e+000
5.9680338e+000
5.5895858e+000
5.1673384e+000
4.6843691e+000
4.1375356e+000
3.5442438e+000
2.9311783e+000
2.3339069e+000
1.7860326e+000
1.3120557e+000
9.2788994e-001
6.3573384e-001
4.3304834e-001
3.1370470e-001
2.6732600e-001
2.7574480e-001
3.1604683e-001
3.5983491e-001
3.8451570e-001
3.8407898e-001
3.6291990e-001
3.3924830e-001
3.2898286e-001
3.3485195e-001
3.5199144e-001
3.6562318e-001
3.6105594e-001
3.2972839e-001
2.6901022e-001
1.8710035e-001
9.8617941e-002
2.6780881e-002
-6.3405684e-003
1.3528246e-002
9.6199796e-002
2.4450780e-001
4.5262164e-001
6.9815505e-001
9.5554423e-001
1.2021614e+000
1.4254651e+000
1.6353548e+000
1.8455321e+000
2.0648873e+000
2.2940772e+000
2.5171952e+000
2.7225554e+000
2.9190173e+000
3.1233923e+000
3.3593500e+000
3.6414959e+000
3.9582753e+000
4.2923183e+000
4.6267805e+000
4.9521856e+000
5.2761693e+000
5.6091118e+000
5.9567461e+000
6.3200626e+000
6.6907649e+000
7.0563850e+000
7.3991060e+000
7.7007432e+000
7.9452152e+000
8.1218739e+000
8.2329397e+000
8.2867374e+000
8.2997074e+000
8.2886343e+000
8.2666855e+000
8.2423115e+000
8.2138128e+000
8.1737614e+000
8.1052141e+000
7.9912057e+000
7.8220906e+000
7.5959382e+000
7.3284869e+000
7.0408702e+000
6.7583070e+000
6.5036435e+000
6.2910380e+000
6.1271992e+000
6.0037689e+000
5.9053497e+000
5.8078570e+000
5.6870193e+000
5.5247183e+000
5.3075109e+000
5.0311222e+000
4.6985254e+000
4.3268628e+000
3.9390314e+000
3.5637536e+000
3.2256086e+000
2.9324095e+000
2.6823163e+000
2.4561925e+000
2.2316399e+000
1.9904552e+000
1.7252101e+000
1.4578592e+000
1.2150269e+000
1.0132637e+000
8.5861433e-001
7.3170930e-001
6.1210871e-001
4.9608365e-001
3.8573453e-001
2.8854191e-001
2.0964897e-001
1.4245793e-001
8.1201904e-002
3.2366857e-002
5.9688860e-003
1.3624899e-002
6.3684896e-002
1.5224569e-001
2.7173901e-001
4.1233650e-001
5.6024748e-001
6.9037116e-001
7.7699333e-001
8.0231476e-001
7.5739527e-001
6.5724325e-001
5.2211475e-001
3.7001228e-001
2.2045222e-001
9.9969998e-002
2.9010057e-002
6.0391380e-005
3.0759685e-003
4.3664664e-002
1.2546343e-001
2.3087016e-001
3.3915210e-001
4.3729413e-001
5.1116997e-001
5.3548056e-001
4.9211621e-001
4.0026450e-001
2.9361498e-001
2.2530413e-001
2.3932728e-001
3.2642210e-001
4.6024138e-001
5.9986120e-001
7.0955336e-001
7.8779620e-001
8.3735025e-001
8.4414667e-001
7.9666251e-001
7.1015185e-001
6.0658002e-001
