##TITLE=Methyl Ethyl Ketone
##JCAMP-DX=4.24
##DATA TYPE=INFRARED SPECTRUM
##XUNITS=cm-1
##YUNITS=Absorbance
##FIRSTX=900
##LASTX=2300
##XYDATA=(X++(Y..Y))
2296 -0.019191001
2294 -0.019590428
2292 -0.019989856
2290 -0.020389287
2288 -0.020788714
2286 -0.021187151
2284 -0.021586571
2282 -0.021986
2280 -0.02238543
2278 -0.022784857
2276 -0.023183301
2274 -0.023582714
2272 -0.023982143
2270 -0.024381572
2268 -0.024781
2266 -0.025180427
2264 -0.025578881
2262 -0.025978286
2260 -0.026377715
2258 -0.026777143
2256 -0.02717657
2254 -0.027575031
2252 -0.027974429
2250 -0.028373858
2248 -0.028773285
2246 -0.029172713
2244 0.024865875
2242 0.0010395385
2240 -0.053699519
2238 -0.15068507
2236 -0.25364327
2234 -0.32808563
2232 -0.39772919
2230 -0.40603638
2228 -0.40456793
2226 -0.34814501
2224 -0.29396662
2222 -0.26248211
2220 -0.25805229
2218 -0.33213916
2216 -0.40087944
2214 -0.44829282
2212 -0.43948501
2210 -0.34103534
2208 -0.25176844
2206 -0.180841
2204 -0.18506689
2202 -0.26065373
2200 -0.33673611
2198 -0.40972769
2196 -0.44874144
2194 -0.46825182
2192 -0.50127643
2190 -0.54077291
2188 -0.5468362
2186 -0.54189318
2184 -0.44195199
2182 -0.32033408
2180 -0.1965576
2178 -0.074186496
2176 -0.078957453
2174 -0.10066299
2172 -0.18168466
2170 -0.2521145
2168 -0.22933657
2166 -0.16798186
2164 0.0011209529
2162 0.17226283
2160 0.32107431
2158 0.39942157
2156 0.348344
2154 0.22928104
2152 0.031112179
2150 -0.13608879
2148 -0.25907075
2146 -0.29464465
2144 -0.25701046
2142 -0.1817444
2140 -0.085527495
2138 -0.014347115
2136 0.041994378
2134 0.065939605
2132 0.076647855
2130 0.070591584
2128 0.059521083
2126 0.01420371
2124 -0.038899671
2122 -0.10751647
2120 -0.17664573
2118 -0.21082489
2116 -0.24056086
2114 -0.27518061
2112 -0.31345451
2110 -0.36541042
2108 -0.39792079
2106 -0.36558458
2104 -0.30118984
2102 -0.18692076
2100 -0.085419439
2098 -0.017588001
2096 0.013404628
2094 0.0029484276
2092 -0.0038136952
2090 -0.00047660209
2088 0.050874375
2086 0.1401968
2084 0.21836531
2082 0.28553048
2080 0.23962063
2078 0.1352637
2076 -0.0064930711
2074 -0.16076694
2072 -0.1638988
2070 -0.11762662
2068 0.074786998
2066 0.30099064
2064 0.449954
2062 0.57025391
2060 0.54568475
2058 0.4909687
2056 0.42730373
2054 0.3726781
2052 0.35899428
2050 0.34252343
2048 0.30050457
2046 0.23317499
2044 0.127608
2042 0.026065312
2040 -0.060313143
2038 -0.12039382
2036 -0.15480828
2034 -0.17390846
2032 -0.1823124
2030 -0.1686441
2028 -0.13761006
2026 -0.088329993
2024 -0.028157102
2022 0.0048079891
2020 0.023403741
2018 0.0023287616
2016 -0.035690136
2014 -0.05341699
2012 -0.065381914
2010 -0.054374319
2008 -0.039230347
2006 -0.040623557
2004 -0.048777603
2002 -0.069408201
2000 -0.10096739
1998 -0.15880561
1996 -0.23533785
1994 -0.34372947
1992 -0.45489731
1990 -0.56141388
1988 -0.64466798
1986 -0.69844866
1984 -0.74455196
1982 -0.78942889
1980 -0.85251957
1978 -0.93267041
1976 -0.97493082
1974 -0.97648388
1972 -0.84755307
1970 -0.62343866
1968 -0.39740598
1966 -0.18159129
1964 -0.21262757
1962 -0.37547356
1960 -0.63742238
1958 -0.93620509
1956 -1.0785029
1954 -1.1613839
1952 -1.1467555
1950 -1.1078196
1948 -1.0981741
1946 -1.1092501
1944 -1.1868839
1942 -1.2729657
1940 -1.3423206
1938 -1.3833126
1936 -1.3698601
1934 -1.3573325
1932 -1.3697339
1930 -1.4080833
1928 -1.4664874
1926 -1.4554372
1924 -1.3401301
1922 -1.0833887
1920 -0.70872951
1918 -0.3723169
1916 -0.10599221
1914 -0.0038385745
1912 -0.014098393
1910 -0.10207961
1908 -0.22335613
1906 -0.38824815
1904 -0.57583481
1902 -0.71481591
1900 -0.83269906
1898 -0.79447299
1896 -0.69235569
1894 -0.53256685
1892 -0.36320654
1890 -0.29447871
1888 -0.28932703
1886 -0.40730593
1884 -0.57504451
1882 -0.75807154
1880 -0.92986602
1878 -1.0550601
1876 -1.1449
1874 -1.1827729
1872 -1.1640999
1870 -1.0764148
1868 -0.94367403
1866 -0.80108148
1864 -0.73264045
1862 -0.76302481
1860 -0.86939287
1858 -1.013958
1856 -1.12842
1854 -1.2048471
1852 -1.22839
1850 -1.2136909
1848 -1.162236
1846 -1.0836179
1844 -1.0219365
1842 -0.96572608
1840 -0.9908973
1838 -1.0628315
1836 -1.1568928
1834 -1.256091
1832 -1.2775698
1830 -1.2135247
1828 -0.98232216
1826 -0.67894071
1824 -0.41394621
1822 -0.27916124
1820 -0.38456678
1818 -0.62486863
1816 -0.91614002
1814 -1.1727077
1812 -1.3431112
1810 -1.4175102
1808 -1.4149537
1806 -1.310485
1804 -1.1252646
1802 -0.91879618
1800 -0.70429921
1798 -0.56893331
1796 -0.49590358
1794 -0.40940744
1792 -0.31631321
1790 -0.15480894
1788 0.035951167
1786 0.15526022
1784 0.2223928
1782 0.25137633
1780 0.26547137
1778 0.356253
1776 0.48752058
1774 0.62080383
1772 0.71187985
1770 0.62008518
1768 0.44737285
1766 0.26823387
1764 0.13087074
1762 0.10954261
1760 0.046482686
1758 -0.1519829
1756 -0.32277799
1754 -0.37803492
1752 -0.14000155
1750 0.41908276
1748 1.0985328
1746 1.7930071
1744 2.146467
1742 2.1511679
1740 1.9261389
1738 1.5737672
1736 1.42618
1734 1.4646698
1732 1.5515654
1730 1.6380168
1728 1.3514485
1726 0.80688322
1724 0.3172524
1722 -0.05976449
1720 0.057052121
1718 0.6525327
1716 1.8018482
1714 3.1964464
1712 4.3361368
1710 5.1916347
1708 5.7541223
1706 6.346951
1704 7.3112903
1702 9.0186749
1700 11.651429
1698 15.135344
1696 19.235428
1694 22.96784
1692 25.974335
1690 28.538979
1688 30.89076
1686 33.98542
1684 37.885452
1682 42.484863
1680 47.57008
1678 51.860615
1676 55.419685
1674 58.917778
1672 62.466984
1670 66.66877
1668 71.372841
1666 76.086998
1664 80.730591
1662 85.089966
1660 89.12175
1658 92.743225
1656 95.933197
1654 98.684776
1652 100.89794
1650 102.47322
1648 103.02852
1646 102.21714
1644 100.41441
1642 98.067764
1640 95.310699
1638 92.31649
1636 88.678787
1634 84.293564
1632 79.700287
1630 75.10199
1628 70.808205
1626 66.866249
1624 62.805321
1622 58.574776
1620 54.343384
1618 50.13303
1616 46.083485
1614 42.219376
1612 38.74649
1610 35.694851
1608 33.162811
1606 31.129042
1604 29.430691
1602 28.054916
1600 26.910669
1598 25.977243
1596 25.191
1594 24.554327
1592 24.042772
1590 23.688131
1588 23.497169
1586 23.492214
1584 23.679213
1582 24.04089
1580 24.56328
1578 25.279045
1576 26.188599
1574 27.279345
1572 28.516884
1570 29.737087
1568 30.894281
1566 31.939163
1564 32.876312
1562 33.995129
1560 35.38456
1558 37.495277
1556 40.364502
1554 43.246082
1552 45.967293
1550 48.03318
1548 49.486397
1546 50.855358
1544 52.142555
1542 53.36256
1540 54.25066
1538 54.307758
1536 53.518658
1534 52.017838
1532 50.14447
1530 48.39637
1528 46.790314
1526 45.332249
1524 43.861427
1522 42.251923
1520 40.461922
1518 38.403896
1516 36.364799
1514 34.450718
1512 32.535
1510 30.646925
1508 28.28232
1506 25.299751
1504 22.247355
1502 19.149473
1500 16.56826
1498 14.5703
1496 12.662
1494 10.86614
1492 9.1158142
1490 7.4556637
1488 5.9176693
1486 4.5063729
1484 3.178062
1482 1.97342
1480 0.99433631
1478 0.31827798
1476 0.052192125
1474 0.28380561
1472 0.92400312
1470 1.6970531
1468 2.4011307
1466 2.9804807
1464 3.4363418
1462 3.9111636
1460 4.4907203
1458 5.1004057
1456 5.70926
1454 6.1535163
1452 6.3025851
1450 6.3386912
1448 6.209547
1446 6.0362964
1444 5.8024631
1442 5.5203071
1440 5.1941743
1438 4.8755574
1436 4.5805001
1434 4.2598743
1432 3.9171762
1430 3.5441906
1428 3.1614659
1426 2.8799915
1424 2.7208834
1422 2.7132957
1420 2.8583412
1418 3.1118553
1416 3.43628
1414 3.780864
1412 4.0889835
1410 4.3560729
1408 4.6096544
1406 4.8787971
1404 5.1871786
1402 5.5393453
1400 5.8914161
1398 6.2182989
1396 6.4660711
1394 6.5557714
1392 6.5600071
1390 6.3859391
1388 6.1583948
1386 5.8399248
1384 5.4887981
1382 5.0979552
1380 4.7058902
1378 4.319561
1376 3.9277198
1374 3.5533688
1372 3.1886442
1370 2.8536277
1368 2.5915394
1366 2.3691852
1364 2.160682
1362 1.9333073
1360 1.617748
1358 1.255477
1356 0.87321055
1354 0.51351112
1352 0.25450397
1350 0.066784218
1348 -0.025710084
1346 -0.065184787
1344 -0.0163262
1342 0.076981857
1340 0.25210273
1338 0.4022913
1336 0.48147658
1334 0.51999581
1332 0.44562835
1330 0.3959026
1328 0.38874158
1326 0.44048464
1324 0.60567814
1322 0.84328341
1320 1.1808742
1318 1.526421
1316 1.8559799
1314 2.079102
1312 2.1866462
1310 2.2302783
1308 2.2186694
1306 2.2121892
1304 2.1908727
1302 2.12588
1300 2.0374873
1298 1.9218726
1296 1.8252715
1294 1.7914524
1292 1.7947743
1290 1.8524683
1288 1.908376
1286 1.9352329
1284 1.9510924
1282 1.938391
1280 1.9435668
1278 1.9880154
1276 2.0553927
1274 2.174777
1272 2.3118646
1270 2.485975
1268 2.6777127
1266 2.890537
1264 3.1106381
1262 3.3338828
1260 3.5605218
1258 3.7961512
1256 4.0559115
1254 4.3426409
1252 4.6624589
1250 5.0040159
1248 5.3524318
1246 5.6944752
1244 5.9949403
1242 6.2577796
1240 6.4410601
1238 6.579771
1236 6.6457558
1234 6.6798058
1232 6.6567197
1230 6.6055999
1228 6.4832425
1226 6.3199029
1224 6.0423608
1222 5.7116337
1220 5.2524099
1218 4.7586551
1216 4.1970887
1214 3.6305518
1212 3.0600066
1210 2.5055194
1208 1.9822125
1206 1.5107535
1204 1.1055453
1202 0.75546288
1200 0.44979149
1198 0.12371516
1196 -0.23399857
1194 -0.66874278
1192 -1.1473068
1190 -1.626763
1188 -2.0732765
1186 -2.3826928
1184 -2.602016
1182 -2.6361904
1180 -2.5903113
1178 -2.3861175
1176 -2.1379399
1174 -1.7978538
1172 -1.4648902
1170 -1.1828443
1168 -0.92080712
1166 -0.72001243
1164 -0.49909806
1162 -0.2292383
1160 0.046691179
1158 0.32620656
1156 0.54491442
1154 0.65844285
1152 0.70513475
1150 0.66297311
1148 0.592641
1146 0.48980463
1144 0.36762473
1142 0.23184249
1140 0.11287714
1138 0.026528116
1136 0.053795688
1134 0.16480331
1132 0.4395797
1130 0.78668082
1128 1.1862223
1126 1.596445
1124 1.9894283
1122 2.3669786
1120 2.6780801
1118 2.9560597
1116 3.0899701
1114 3.2181759
1112 3.3347406
1110 3.4754019
1108 3.6882827
1106 3.8745251
1104 3.9915576
1102 4.0719452
1100 4.087224
1098 4.1402435
1096 4.264257
1094 4.4904575
1092 4.8567801
1090 5.3472285
1088 5.961843
1086 6.6156235
1084 7.2866149
1082 7.8676476
1080 8.3680954
1078 8.6684818
1076 8.8408031
1074 8.7375727
1072 8.5296793
1070 8.2179899
1068 7.9116545
1066 7.8142028
1064 7.781064
1062 8.0250883
1060 8.2992258
1058 8.6781578
1056 9.0461512
1054 9.3637981
1052 9.6479015
1050 9.8234491
1048 9.956851
1046 9.986311
1044 9.9816275
1042 9.9101934
1040 9.8106279
1038 9.6713657
1036 9.5446701
1034 9.4403667
1032 9.4152298
1030 9.4594145
1028 9.4899454
1026 9.4930992
1024 9.3055954
1022 9.0018005
1020 8.5248289
1018 7.9773045
1016 7.3943458
1014 6.8012528
1012 6.2011199
1010 5.5985632
1008 4.9799442
1006 4.3738098
1004 3.9292598
1002 3.5209846
1000 3.3495679
998 3.1825807
996 3.0324142
994 2.8503809
992 2.5678902
990 2.2660282
988 1.9182017
986 1.5427394
984 1.1203206
982 0.68945634
980 0.25521302
978 -0.064806879
976 -0.25954285
974 -0.31235772
972 -0.25223905
970 -0.18497786
968 -0.11427595
966 -0.075529456
964 -0.047349472
962 0.052830532
960 0.18058142
958 0.41427422
956 0.66496098
954 0.80115169
952 0.90934563
950 0.68026137
948 0.43736327
946 0.1937317
944 0.0035704388
942 0.0081745237
940 0.26016903
938 0.61856389
936 0.86576545
934 0.78881323
932 0.72881365
930 0.70968866
928 0.89105248
926 1.3914021
924 1.851868
922 2.2607903
920 2.46122
918 2.4676979
916 2.4417973
914 2.3935456
912 2.4130514
910 2.4700129
908 2.5312648
906 2.5964093
904 2.5696211
902 2.5209951
900 2.4965432
898 2.476932
896 2.6389999
