Image.
>Pix99999.
  .
5555
5555
2300
900
5555
2
1
0
701
5555
4.4911999e-002
4.5846663e-002
4.6780329e-002
4.7714990e-002
4.8649650e-002
4.9583320e-002
5.0517976e-002
5.1452637e-002
5.2386317e-002
5.3320967e-002
5.4255631e-002
5.5189308e-002
5.6123953e-002
5.7058617e-002
5.7992298e-002
5.8926944e-002
5.9861604e-002
6.0795296e-002
6.1729930e-002
6.2664591e-002
6.3598283e-002
6.4532921e-002
6.5466613e-002
6.6401243e-002
6.7335911e-002
6.8270572e-002
7.0794910e-002
2.7343673e-003
-5.7368640e-002
-1.1305653e-001
-1.6820386e-001
-1.6546649e-001
-1.5818737e-001
-1.4279486e-001
-1.3206951e-001
-1.6188399e-001
-1.9128263e-001
-2.0958284e-001
-2.1272352e-001
-1.7159416e-001
-1.2439314e-001
-6.9412827e-002
-2.7066400e-002
-6.0570217e-003
-1.0850230e-002
-4.6159822e-002
-9.6219651e-002
-1.5857334e-001
-1.8922600e-001
-1.9558750e-001
-1.3602714e-001
-3.9431669e-002
6.9676489e-002
1.8317251e-001
2.1969797e-001
2.3111528e-001
1.9685639e-001
1.5248346e-001
1.0421017e-001
5.5125028e-002
-2.0904971e-002
-9.6661478e-002
-1.4122011e-001
-1.7366600e-001
-1.5375938e-001
-1.2565272e-001
-8.6329475e-002
-4.3290317e-002
6.4318120e-003
4.8516225e-002
7.4883997e-002
7.4849591e-002
3.8919821e-002
3.8728237e-003
-2.5981054e-002
-1.4866143e-002
3.1973921e-002
1.1019202e-001
2.0759284e-001
2.9536462e-001
3.7683630e-001
4.1550136e-001
4.3649510e-001
4.2366230e-001
4.0058041e-001
3.5651380e-001
3.0769089e-001
2.5426510e-001
2.0235692e-001
1.9251695e-001
1.9304958e-001
2.2662540e-001
2.6906410e-001
3.2994965e-001
3.9353868e-001
4.5704126e-001
4.9712116e-001
4.8538244e-001
4.5595258e-001
4.0962443e-001
3.9485857e-001
4.2450973e-001
4.6769446e-001
5.1816887e-001
5.3698182e-001
5.2906305e-001
5.2280563e-001
5.2019560e-001
5.3983730e-001
5.7077575e-001
5.7716697e-001
5.7273322e-001
5.5465519e-001
5.3244507e-001
5.5215627e-001
5.8202213e-001
6.2113065e-001
6.5778458e-001
6.5552390e-001
6.4052850e-001
5.9781313e-001
5.4666919e-001
4.8369178e-001
4.1925547e-001
3.5562450e-001
3.0178535e-001
2.6594558e-001
2.5341409e-001
2.7217063e-001
3.1797516e-001
3.9068401e-001
4.7496441e-001
5.6539929e-001
6.4867878e-001
7.2460073e-001
7.8919500e-001
8.4670061e-001
8.7821954e-001
8.9637882e-001
8.5937828e-001
8.0051404e-001
7.3009014e-001
6.5752941e-001
6.4109713e-001
6.4138275e-001
6.6245383e-001
6.8771946e-001
7.0224619e-001
7.1470332e-001
7.2566074e-001
7.3314857e-001
7.2854102e-001
7.1405679e-001
6.8826836e-001
6.7162919e-001
6.8131065e-001
7.1465683e-001
7.7210653e-001
8.2972616e-001
8.7904888e-001
9.2400199e-001
9.6528423e-001
1.0185601e+000
1.0805902e+000
1.1394285e+000
1.1954707e+000
1.2243912e+000
1.2407215e+000
1.2201320e+000
1.1846604e+000
1.1202257e+000
1.0475352e+000
1.0110183e+000
9.9107003e-001
9.9898118e-001
1.0075250e+000
9.7530675e-001
9.2741734e-001
8.8572598e-001
8.5733867e-001
8.6262339e-001
8.7039161e-001
8.5699618e-001
8.3324015e-001
7.9670250e-001
7.9784292e-001
8.4917241e-001
9.5717221e-001
1.1153823e+000
1.2494110e+000
1.3563871e+000
1.4207480e+000
1.4567069e+000
1.4852352e+000
1.5107546e+000
1.4929993e+000
1.4528279e+000
1.3872226e+000
1.3125577e+000
1.2704295e+000
1.2437428e+000
1.2356158e+000
1.2300354e+000
1.2004939e+000
1.1533046e+000
1.0788879e+000
9.9336743e-001
9.0674126e-001
8.2883990e-001
7.6768935e-001
7.2701901e-001
7.0360780e-001
6.9522417e-001
6.9513923e-001
6.9911921e-001
7.1669966e-001
7.3682964e-001
7.6607931e-001
7.8730351e-001
7.9492980e-001
7.9015195e-001
7.7330422e-001
7.7748305e-001
7.9272276e-001
8.0881798e-001
8.1908357e-001
7.6058197e-001
6.6294444e-001
5.6442899e-001
4.7227359e-001
4.0432328e-001
3.5011750e-001
2.7882981e-001
2.1613431e-001
2.2114713e-001
2.7053764e-001
3.8402107e-001
4.9137321e-001
5.2808279e-001
5.1907080e-001
4.6646029e-001
4.1221958e-001
3.7296042e-001
3.5147569e-001
3.4866595e-001
3.6892501e-001
4.0877947e-001
4.4741058e-001
4.7531173e-001
4.7558382e-001
4.5401001e-001
4.3788272e-001
4.3469399e-001
4.7903588e-001
5.6015599e-001
6.3036007e-001
6.9225436e-001
6.8522763e-001
6.4532900e-001
6.1765176e-001
5.9819061e-001
5.8381039e-001
5.3972006e-001
4.2272693e-001
2.7179080e-001
1.3973129e-001
5.1222820e-002
1.5675224e-002
3.8297197e-003
-1.4423107e-001
-3.5290542e-001
-5.3111160e-001
-6.1243153e-001
-5.9543866e-001
-5.3068751e-001
-4.4213536e-001
-4.5371342e-001
-5.5420995e-001
-6.4710963e-001
-7.2176415e-001
-6.2943000e-001
-4.1921347e-001
-2.4759708e-001
-1.1448175e-001
-1.5095140e-001
-2.7878207e-001
-3.2817617e-001
-2.7070981e-001
1.5279144e-002
5.0559241e-001
1.3442214e+000
2.3585036e+000
3.3280201e+000
4.2318034e+000
5.0138540e+000
5.9081001e+000
7.1067462e+000
8.8677492e+000
1.1324500e+001
1.4437569e+001
1.8115286e+001
2.1676260e+001
2.4837711e+001
2.7664301e+001
3.0229023e+001
3.3277279e+001
3.6877132e+001
4.1029850e+001
4.5610638e+001
4.9545883e+001
5.2894615e+001
5.6112389e+001
5.9295128e+001
6.3082092e+001
6.7335495e+001
7.1707397e+001
7.6108673e+001
8.0238304e+001
8.4072250e+001
8.7509727e+001
9.0595367e+001
9.3393417e+001
9.5867996e+001
9.8007294e+001
9.9341026e+001
9.9547745e+001
9.8830437e+001
9.7444588e+001
9.5543839e+001
9.3270050e+001
9.0333626e+001
8.6710678e+001
8.2740265e+001
7.8596916e+001
7.4475311e+001
7.0407784e+001
6.6126762e+001
6.1617130e+001
5.7190769e+001
5.2877270e+001
4.8841370e+001
4.5103939e+001
4.1757484e+001
3.8826462e+001
3.6319317e+001
3.4216473e+001
3.2390697e+001
3.0835119e+001
2.9492565e+001
2.8354961e+001
2.7371500e+001
2.6545088e+001
2.5856760e+001
2.5319468e+001
2.4930817e+001
2.4712336e+001
2.4656931e+001
2.4766350e+001
2.5019152e+001
2.5463236e+001
2.6110086e+001
2.6971626e+001
2.8054628e+001
2.9195051e+001
3.0358961e+001
3.1432821e+001
3.2399307e+001
3.3452171e+001
3.4659138e+001
3.6518818e+001
3.9022984e+001
4.1599960e+001
4.4119827e+001
4.6013519e+001
4.7344704e+001
4.8506714e+001
4.9503212e+001
5.0409599e+001
5.1040379e+001
5.1226357e+001
5.0950829e+001
5.0265602e+001
4.9392040e+001
4.8517864e+001
4.7601337e+001
4.6612698e+001
4.5391327e+001
4.3851215e+001
4.1992302e+001
3.9830463e+001
3.7753143e+001
3.5888691e+001
3.4108200e+001
3.2363499e+001
3.0099297e+001
2.7153622e+001
2.4164022e+001
2.1211834e+001
1.8765875e+001
1.6887909e+001
1.5054143e+001
1.3242901e+001
1.1371945e+001
9.4378490e+000
7.4959121e+000
5.6031446e+000
3.8647480e+000
2.3915401e+000
1.2665280e+000
5.1711595e-001
1.2796101e-001
2.1898356e-001
8.5794419e-001
1.6558940e+000
2.4763684e+000
3.2696586e+000
3.9673834e+000
4.6306944e+000
5.2694354e+000
5.7399740e+000
5.9575400e+000
5.9740329e+000
5.7476401e+000
5.5493727e+000
5.4125319e+000
5.2517357e+000
5.0482831e+000
4.7931170e+000
4.4628000e+000
4.1003456e+000
3.6696215e+000
3.1582484e+000
2.5626292e+000
1.9611408e+000
1.4157881e+000
1.0107666e+000
7.6872700e-001
6.7853457e-001
7.1175003e-001
8.4290594e-001
1.0529441e+000
1.3387251e+000
1.6948178e+000
2.1025863e+000
2.5291355e+000
2.9505215e+000
3.3461299e+000
3.7092228e+000
4.0292921e+000
4.2864423e+000
4.4875069e+000
4.6009417e+000
4.6664262e+000
4.6706829e+000
4.6325955e+000
4.5319848e+000
4.3890600e+000
4.1876230e+000
3.9659417e+000
3.7133172e+000
3.4470999e+000
3.1592684e+000
2.8821321e+000
2.6196132e+000
2.3707190e+000
2.1183980e+000
1.8037951e+000
1.4365871e+000
1.0366151e+000
6.6056097e-001
3.8552254e-001
1.9161308e-001
8.4017500e-002
1.8230096e-002
-1.7062999e-002
-3.7046257e-002
1.6034257e-002
1.0665754e-001
2.5743023e-001
4.0740079e-001
5.5602628e-001
6.7355001e-001
7.6336735e-001
8.4674543e-001
9.2819363e-001
1.0328752e+000
1.1632826e+000
1.3278445e+000
1.5255725e+000
1.7433152e+000
1.9733200e+000
2.1935842e+000
2.4033039e+000
2.5823505e+000
2.7395635e+000
2.8651557e+000
2.9674840e+000
3.0466979e+000
3.1064548e+000
3.1468015e+000
3.1784999e+000
3.2115402e+000
3.2554293e+000
3.3314018e+000
3.4234321e+000
3.5479608e+000
3.6805425e+000
3.8318052e+000
3.9815297e+000
4.1289649e+000
4.2729545e+000
4.4081240e+000
4.5539565e+000
4.7177911e+000
4.9090204e+000
5.1470199e+000
5.4235821e+000
5.7570601e+000
6.1351261e+000
6.5656672e+000
7.0393257e+000
7.5575032e+000
8.1174660e+000
8.7080517e+000
9.3136253e+000
9.9146748e+000
1.0479963e+001
1.1012876e+001
1.1488275e+001
1.1928829e+001
1.2304399e+001
1.2633355e+001
1.2850679e+001
1.2997980e+001
1.2951771e+001
1.2829157e+001
1.2499171e+001
1.2120434e+001
1.1627286e+001
1.1120410e+001
1.0586572e+001
1.0042732e+001
9.4789438e+000
8.8915672e+000
8.2715349e+000
7.6421299e+000
7.0060158e+000
6.3828373e+000
5.7704439e+000
5.1562691e+000
4.5380068e+000
3.9091227e+000
3.2851524e+000
2.7079830e+000
2.1789658e+000
1.7654314e+000
1.4136171e+000
1.1603141e+000
9.4944263e-001
8.1898540e-001
7.2614002e-001
7.4027878e-001
7.7053887e-001
8.3921385e-001
8.8518685e-001
8.6155111e-001
8.0683255e-001
6.7740804e-001
5.4560685e-001
4.1374248e-001
3.1570843e-001
2.7357191e-001
2.5270498e-001
2.5417677e-001
2.3135319e-001
1.8026680e-001
1.1033080e-001
3.3564985e-002
1.8634719e-003
1.6226098e-002
1.1823514e-001
2.8005892e-001
5.4707646e-001
8.6856151e-001
1.2637868e+000
1.6868685e+000
2.1487288e+000
2.6128869e+000
3.0534241e+000
3.4781868e+000
3.8309414e+000
4.1777120e+000
4.5057387e+000
4.8451285e+000
5.2206554e+000
5.5998201e+000
5.9861631e+000
6.3563285e+000
6.6927242e+000
7.0045929e+000
7.2772856e+000
7.5349426e+000
7.7787161e+000
8.0523872e+000
8.3618393e+000
8.7203569e+000
9.1107206e+000
9.4644213e+000
9.7809200e+000
9.9904079e+000
1.0145271e+001
1.0253824e+001
1.0350211e+001
1.0471661e+001
1.0592689e+001
1.0678957e+001
1.0741040e+001
1.0656736e+001
1.0542660e+001
1.0283104e+001
1.0007252e+001
9.6593952e+000
9.3043470e+000
8.9265432e+000
8.5482321e+000
8.1683321e+000
7.7848396e+000
7.3954415e+000
7.0096116e+000
6.6334057e+000
6.3001399e+000
6.0182695e+000
5.7698579e+000
5.5452261e+000
5.2673001e+000
4.9473920e+000
4.5723720e+000
4.1715870e+000
3.7974601e+000
3.4386420e+000
3.1298456e+000
2.8381095e+000
2.5864751e+000
2.3437078e+000
2.1256878e+000
1.9098407e+000
1.6968608e+000
1.4842470e+000
1.2742269e+000
1.0713918e+000
9.0032071e-001
7.3544991e-001
5.8923614e-001
4.2695731e-001
2.2860074e-001
3.3881068e-002
-1.5186314e-001
-2.8162631e-001
-3.3355698e-001
-3.1979299e-001
-2.3465616e-001
-8.8608086e-002
1.0806915e-001
3.4456927e-001
6.0469663e-001
8.6480552e-001
1.1213237e+000
1.3098871e+000
1.4695195e+000
1.4727758e+000
1.4362243e+000
1.2496072e+000
1.0414848e+000
7.5144482e-001
4.6126622e-001
2.1656884e-001
2.6052073e-003
-1.3520047e-003
-3.7178010e-002
8.8110000e-002
1.8337286e-001
1.8804429e-001
1.0100520e-001
-1.8103737e-001
-4.6000588e-001
-7.3024631e-001
-8.1638980e-001
-6.7693174e-001
-3.9566094e-001
1.5252054e-002
2.9825330e-001
4.8897463e-001
4.9206313e-001
3.9524308e-001
2.8765664e-001
1.7450240e-001
9.5196590e-002
2.3738520e-002
1.3168525e-002
1.2267739e-002
2.3017000e-001
