Image.
>Pix99999.
  .
5555
5555
2300
900
5555
2
1
0
701
5555
8.5427999e-002
8.7204456e-002
8.8981912e-002
9.0759374e-002
9.2536829e-002
9.4313286e-002
9.6090741e-002
9.7868204e-002
9.9645659e-002
1.0142706e-001
1.0320457e-001
1.0497218e-001
1.0674948e-001
1.0852695e-001
1.1030440e-001
1.1208186e-001
1.1385931e-001
1.1563677e-001
1.1741423e-001
1.1919168e-001
1.2096914e-001
1.2274660e-001
1.2452406e-001
1.2630151e-001
1.2807897e-001
1.2985644e-001
7.4336179e-002
2.7845486e-003
-8.3139837e-002
-1.1061238e-001
-1.2931885e-001
-8.6389892e-002
-3.8075417e-002
3.1939693e-002
9.8988339e-002
1.3443550e-001
1.6169401e-001
1.5908305e-001
1.4795591e-001
1.1591361e-001
6.7764767e-002
-1.3001643e-002
-9.8417521e-002
-1.8829423e-001
-2.6160479e-001
-3.1393692e-001
-3.4105361e-001
-3.4518343e-001
-3.2000652e-001
-2.7405801e-001
-2.2082928e-001
-1.6416140e-001
-1.3197938e-001
-1.1060653e-001
-1.0700049e-001
-1.0894929e-001
-1.0372961e-001
-9.6792340e-002
-8.2788356e-002
-6.7976646e-002
-7.1557000e-002
-7.9086468e-002
-1.1213412e-001
-1.4559209e-001
-1.6743377e-001
-1.8076001e-001
-1.6707629e-001
-1.5466954e-001
-1.5245463e-001
-1.5996608e-001
-1.8402900e-001
-2.0731308e-001
-2.2701868e-001
-2.4333248e-001
-2.5623223e-001
-2.5580999e-001
-2.4390446e-001
-2.0790350e-001
-1.5591371e-001
-1.0676163e-001
-6.0073659e-002
-4.8926137e-002
-5.2790940e-002
-8.3545454e-002
-1.2247440e-001
-1.5327965e-001
-1.8198383e-001
-1.9637637e-001
-2.0900595e-001
-2.3115580e-001
-2.5665030e-001
-2.9742351e-001
-3.3897886e-001
-3.7464860e-001
-4.0020433e-001
-3.9776298e-001
-3.8474685e-001
-3.5735619e-001
-3.3124399e-001
-3.1075472e-001
-2.9255000e-001
-2.7606609e-001
-2.5986347e-001
-2.4370077e-001
-2.3303561e-001
-2.2723800e-001
-2.3839243e-001
-2.6041090e-001
-3.0875522e-001
-3.7000868e-001
-4.3933943e-001
-5.1130050e-001
-5.4622281e-001
-5.6897926e-001
-5.2346855e-001
-4.6051949e-001
-3.6931953e-001
-2.7658385e-001
-2.2938785e-001
-1.9828901e-001
-2.0652200e-001
-2.1689627e-001
-2.0558408e-001
-1.8636605e-001
-1.5614006e-001
-1.4864035e-001
-1.8862039e-001
-2.5582775e-001
-3.5183075e-001
-4.3221849e-001
-4.8897073e-001
-5.1688111e-001
-5.2074355e-001
-5.1197875e-001
-4.9557978e-001
-4.6949929e-001
-4.3731418e-001
-3.9243928e-001
-3.4099618e-001
-2.9473194e-001
-2.5173399e-001
-2.4174063e-001
-2.4391289e-001
-2.6113474e-001
-2.8127572e-001
-2.7792129e-001
-2.6902127e-001
-2.5972450e-001
-2.5832355e-001
-2.8651801e-001
-3.2657355e-001
-3.7674618e-001
-4.2076299e-001
-4.5008242e-001
-4.6546099e-001
-4.6914986e-001
-4.6865839e-001
-4.6604306e-001
-4.5675543e-001
-4.3784225e-001
-4.0660629e-001
-3.6435330e-001
-3.1925371e-001
-2.7253783e-001
-2.3624846e-001
-2.0698772e-001
-2.1302868e-001
-2.3876208e-001
-3.0170080e-001
-3.8043192e-001
-4.5319071e-001
-5.2289772e-001
-5.5201381e-001
-5.6847245e-001
-5.6641829e-001
-5.6029999e-001
-5.6779563e-001
-5.7426661e-001
-5.8118457e-001
-5.8422667e-001
-5.8124971e-001
-5.8255154e-001
-5.8928561e-001
-6.0478461e-001
-6.2486523e-001
-6.4028418e-001
-6.4373517e-001
-6.1506462e-001
-5.5882794e-001
-4.8445681e-001
-4.0653086e-001
-3.5673696e-001
-3.2840773e-001
-3.3214903e-001
-3.5187998e-001
-3.8997588e-001
-4.3790361e-001
-4.8395073e-001
-5.3056258e-001
-5.5293071e-001
-5.6614000e-001
-5.6978613e-001
-5.7043272e-001
-5.8564711e-001
-6.0750574e-001
-6.4483559e-001
-6.8531638e-001
-7.2020298e-001
-7.4839377e-001
-7.6039261e-001
-7.7194101e-001
-7.8157586e-001
-7.9312527e-001
-8.0180913e-001
-7.9326522e-001
-7.7793694e-001
-7.5893199e-001
-7.5036579e-001
-7.5030267e-001
-7.5049323e-001
-7.5291342e-001
-7.5136018e-001
-7.6867688e-001
-7.9383147e-001
-8.3411837e-001
-8.7627071e-001
-9.0069455e-001
-9.0975314e-001
-8.8845384e-001
-8.5531723e-001
-8.0627483e-001
-7.5538683e-001
-6.9746006e-001
-6.3191146e-001
-5.6117594e-001
-4.8566014e-001
-4.3026635e-001
-4.0364194e-001
-4.1863519e-001
-4.6207196e-001
-5.1248801e-001
-5.6047034e-001
-5.9479034e-001
-6.0927153e-001
-6.0867709e-001
-5.7759053e-001
-5.2068597e-001
-4.7708076e-001
-4.4622999e-001
-4.6548176e-001
-5.2086145e-001
-5.4168820e-001
-5.4093921e-001
-4.7293454e-001
-3.7330419e-001
-2.9780784e-001
-2.4335486e-001
-2.0139472e-001
-1.6640292e-001
-1.0659422e-001
-3.7001487e-002
2.0410739e-002
6.5114535e-002
5.6531079e-002
3.3787493e-002
2.1833872e-002
2.0069040e-002
4.7732309e-002
2.4460744e-002
-9.2646532e-002
-2.3263685e-001
-3.5209167e-001
-4.2091513e-001
-4.2834538e-001
-4.0985519e-001
-3.8956535e-001
-4.0629384e-001
-4.7296542e-001
-5.5516833e-001
-6.3714403e-001
-6.2378603e-001
-5.2750617e-001
-3.5379323e-001
-1.4005631e-001
-3.2119498e-002
-1.1840628e-002
-3.0317146e-002
-6.2011238e-002
1.7004833e-003
1.8174541e-001
5.9058845e-001
1.1720423e+000
1.8031995e+000
2.4388790e+000
3.0552680e+000
3.7931345e+000
4.8067756e+000
6.3666983e+000
8.6053562e+000
1.1749409e+001
1.5744857e+001
1.9828800e+001
2.3650595e+001
2.7049799e+001
3.0089909e+001
3.3624985e+001
3.7749889e+001
4.2680382e+001
4.8237598e+001
5.3131145e+001
5.7391258e+001
6.1467186e+001
6.5483612e+001
7.0084717e+001
7.5097038e+001
7.9881645e+001
8.4366936e+001
8.8295471e+001
9.1706039e+001
9.4667221e+001
9.7068741e+001
9.8754822e+001
9.9532379e+001
9.9212669e+001
9.8082230e+001
9.6448425e+001
9.4596535e+001
9.2794189e+001
9.0595947e+001
8.7821426e+001
8.4133057e+001
7.9502365e+001
7.4693741e+001
6.9985428e+001
6.5561798e+001
6.1437092e+001
5.7243279e+001
5.2936882e+001
4.8808495e+001
4.4873463e+001
4.1249516e+001
3.7944035e+001
3.5026333e+001
3.2501362e+001
3.0349075e+001
2.8558643e+001
2.7023792e+001
2.5760935e+001
2.4752600e+001
2.4004057e+001
2.3487000e+001
2.3190311e+001
2.3063599e+001
2.3073263e+001
2.3162786e+001
2.3313728e+001
2.3511621e+001
2.3763140e+001
2.4076092e+001
2.4514057e+001
2.5096514e+001
2.5864090e+001
2.6807302e+001
2.7847794e+001
2.8959761e+001
3.0089792e+001
3.1240191e+001
3.2620270e+001
3.4331242e+001
3.6947605e+001
4.0532600e+001
4.4365150e+001
4.8208038e+001
5.1147766e+001
5.3211143e+001
5.4971249e+001
5.6450779e+001
5.7785091e+001
5.8831757e+001
5.9330738e+001
5.9173313e+001
5.8334190e+001
5.7005100e+001
5.5509995e+001
5.3920723e+001
5.2298351e+001
5.0544155e+001
4.8576878e+001
4.6345158e+001
4.3770203e+001
4.1238186e+001
3.8886318e+001
3.6631279e+001
3.4509930e+001
3.1954807e+001
2.8830750e+001
2.5746691e+001
2.2753325e+001
2.0228691e+001
1.8212811e+001
1.6174572e+001
1.4104572e+001
1.1959745e+001
9.7598381e+000
7.5722771e+000
5.4830732e+000
3.6474581e+000
2.1374197e+000
1.0336360e+000
3.4187710e-001
6.2849715e-002
3.3835813e-001
1.1349535e+000
2.1887689e+000
3.3359656e+000
4.3365960e+000
5.0562077e+000
5.6278949e+000
6.0892653e+000
6.5358787e+000
6.9803600e+000
7.3651772e+000
7.6284056e+000
7.7645245e+000
7.7053795e+000
7.5671859e+000
7.3225760e+000
7.0416560e+000
6.7131472e+000
6.3237543e+000
5.8543587e+000
5.2656922e+000
4.5795193e+000
3.9151180e+000
3.3080521e+000
2.8547249e+000
2.5571828e+000
2.3951001e+000
2.3691037e+000
2.4466121e+000
2.6099172e+000
2.8368502e+000
3.0856307e+000
3.3625419e+000
3.6631954e+000
4.0050087e+000
4.3814421e+000
4.7891254e+000
5.2067957e+000
5.6252556e+000
6.0450144e+000
6.4547577e+000
6.8231664e+000
7.0849981e+000
7.2164550e+000
7.1307602e+000
6.9025073e+000
6.4803128e+000
5.9864826e+000
5.4139619e+000
4.8197575e+000
4.2298079e+000
3.6767821e+000
3.1774971e+000
2.7538800e+000
2.3617456e+000
1.9419557e+000
1.4943960e+000
1.0033058e+000
5.4644835e-001
2.1962608e-001
9.4836019e-003
-1.6735772e-002
4.6927385e-002
2.0251112e-001
3.9364105e-001
6.1183083e-001
8.3797485e-001
1.0803663e+000
1.3358483e+000
1.6079056e+000
1.8784595e+000
2.1117811e+000
2.3254471e+000
2.5063851e+000
2.6915936e+000
2.9033380e+000
3.1449430e+000
3.4388342e+000
3.7605219e+000
4.1096201e+000
4.4463158e+000
4.7448339e+000
4.9753685e+000
5.1264453e+000
5.2026625e+000
5.2207594e+000
5.1921659e+000
5.1379337e+000
5.0580077e+000
4.9735861e+000
4.8901305e+000
4.8157620e+000
4.7607193e+000
4.7198839e+000
4.7066536e+000
4.7088070e+000
4.7414813e+000
4.7756114e+000
4.8100405e+000
4.8336158e+000
4.8427191e+000
4.8566484e+000
4.8879089e+000
4.9475570e+000
5.0465055e+000
5.1651325e+000
5.3009839e+000
5.4339781e+000
5.5634193e+000
5.6900630e+000
5.8142619e+000
5.9385824e+000
6.0586858e+000
6.1656466e+000
6.2556500e+000
6.3041515e+000
6.3265119e+000
6.3099694e+000
6.2776651e+000
6.2302384e+000
6.1565480e+000
6.0086842e+000
5.8064375e+000
5.4531832e+000
5.0609698e+000
4.5699439e+000
4.0742388e+000
3.5680532e+000
3.0721519e+000
2.5991201e+000
2.1508758e+000
1.7513663e+000
1.4013319e+000
1.1237124e+000
8.8631046e-001
6.9188261e-001
4.9956778e-001
3.1173024e-001
1.3485958e-001
-2.2364289e-002
-1.3060352e-001
-2.0181440e-001
-2.3413730e-001
-2.4548931e-001
-2.4127114e-001
-2.2173755e-001
-1.6065775e-001
-6.7703560e-002
1.1860402e-001
3.4274200e-001
6.6968274e-001
1.0079180e+000
1.3631694e+000
1.6877995e+000
1.9127064e+000
2.0808642e+000
2.1068239e+000
2.0851347e+000
1.9693767e+000
1.8360929e+000
1.6733527e+000
1.4955320e+000
1.2939423e+000
1.0622690e+000
8.0065179e-001
5.4425526e-001
3.0505142e-001
1.3850990e-001
3.4683067e-002
1.1111220e-002
4.1326091e-002
1.4383787e-001
2.8989285e-001
5.2057821e-001
7.7263480e-001
1.0171385e+000
1.2328520e+000
1.3030360e+000
1.3409148e+000
1.2775786e+000
1.2234207e+000
1.2164954e+000
1.2416530e+000
1.3682883e+000
1.5095000e+000
1.6815938e+000
1.8224775e+000
1.8981802e+000
1.9300365e+000
1.8928857e+000
1.8347483e+000
1.7539940e+000
1.6944264e+000
1.6612641e+000
1.6729429e+000
1.7169837e+000
1.7476956e+000
1.7648114e+000
1.7384330e+000
1.6932672e+000
1.6527905e+000
1.6111588e+000
1.5530570e+000
1.4857352e+000
1.3813035e+000
1.2744920e+000
1.1863487e+000
1.0988103e+000
1.0082513e+000
9.1273403e-001
7.9693896e-001
6.9525194e-001
6.4016998e-001
6.0355437e-001
6.0989857e-001
6.0883141e-001
5.9205830e-001
5.6192464e-001
5.1170230e-001
4.5683798e-001
3.9457804e-001
3.0692479e-001
1.9324437e-001
3.5349533e-002
-1.5141013e-001
-3.2756889e-001
-4.9105668e-001
-5.7668507e-001
-6.2953746e-001
-6.4765257e-001
-6.6035533e-001
-7.1639818e-001
-7.8153682e-001
-8.6810040e-001
-9.5181507e-001
-9.8203957e-001
-1.0036582e+000
-9.7004712e-001
-9.3475628e-001
-8.9239854e-001
-8.5317838e-001
-8.2509118e-001
-8.0922043e-001
-8.2258159e-001
-8.5454249e-001
-9.1723251e-001
-9.7059113e-001
-1.0094720e+000
-1.0241144e+000
-1.0138326e+000
-9.9844360e-001
-9.7849000e-001
-9.4660002e-001
-9.0521979e-001
-8.3162946e-001
-7.4238217e-001
-6.3400346e-001
-5.2015716e-001
-4.1160125e-001
-3.0588171e-001
-2.3059329e-001
-1.6064081e-001
-1.2797943e-001
-9.4593242e-002
-2.9627679e-002
1.8298961e-003
5.7174817e-002
1.7417157e-001
3.3437347e-001
4.7275743e-001
5.4647052e-001
5.6938708e-001
4.8368031e-001
3.7511367e-001
2.3132786e-001
1.3884060e-001
1.1033691e-001
1.5818074e-001
2.7607960e-001
3.6920843e-001
4.4385323e-001
4.6163270e-001
4.5136949e-001
5.2651238e-001
6.3690442e-001
8.3058202e-001
1.0473475e+000
1.1982026e+000
1.3386511e+000
1.3044000e+000
