Image.
>Pix99999.
  .
5555
5555
2300
900
5555
2
1
0
701
5555
-1.5874000e-002
-1.6203528e-002
-1.6534055e-002
-1.6864581e-002
-1.7195109e-002
-1.7524643e-002
-1.7855164e-002
-1.8185690e-002
-1.8515227e-002
-1.8845744e-002
-1.9176271e-002
-1.9506799e-002
-1.9836344e-002
-2.0164890e-002
-2.0497339e-002
-2.0833779e-002
-2.1157594e-002
-2.1463567e-002
-2.1816872e-002
-2.2237519e-002
-2.2481171e-002
-2.2475390e-002
-2.3127818e-002
-2.4707068e-002
-2.3843536e-002
-1.6571142e-002
-6.0553994e-004
2.0173656e-002
1.8958360e-002
-2.9888529e-002
-1.2123425e-001
-2.3692434e-001
-3.4189919e-001
-4.0206960e-001
-4.0663674e-001
-3.5583851e-001
-2.6720047e-001
-1.6017281e-001
-4.2112924e-002
8.0191359e-002
1.8741582e-001
2.5740415e-001
2.7178580e-001
2.2013403e-001
1.1935022e-001
-3.8757361e-003
-1.1681983e-001
-1.8906155e-001
-2.0659304e-001
-1.6576439e-001
-8.4165923e-002
1.4632424e-002
1.0944644e-001
1.8378574e-001
2.3675331e-001
2.7179056e-001
2.9005238e-001
2.9211730e-001
2.7973437e-001
2.5777751e-001
2.4218228e-001
2.4963605e-001
2.8518632e-001
3.4547141e-001
4.0881246e-001
4.5067891e-001
4.5959595e-001
4.3309280e-001
3.8723594e-001
3.4045920e-001
2.9572800e-001
2.5193954e-001
2.1344446e-001
1.9067626e-001
2.1049732e-001
2.9447499e-001
4.1923428e-001
5.4292357e-001
6.1296648e-001
5.8980727e-001
5.0128573e-001
4.0229398e-001
3.6024964e-001
4.2858294e-001
5.8771759e-001
7.8661573e-001
9.5391345e-001
1.0292438e+000
1.0246851e+000
9.7868979e-001
9.2800754e-001
9.0068704e-001
8.9578205e-001
9.0321887e-001
9.1954136e-001
9.4264150e-001
9.6402001e-001
9.7534204e-001
9.7931445e-001
9.8257327e-001
9.8989713e-001
9.9913502e-001
9.8279065e-001
9.1252220e-001
7.9699463e-001
6.6454351e-001
5.6327200e-001
5.3706706e-001
5.8225924e-001
6.7391706e-001
7.7873302e-001
8.6810261e-001
9.4371641e-001
1.0183945e+000
1.0993968e+000
1.1867608e+000
1.2617023e+000
1.3017672e+000
1.3009149e+000
1.2626650e+000
1.2002486e+000
1.1262852e+000
1.0362434e+000
9.1867054e-001
7.6463938e-001
5.7462895e-001
3.8197339e-001
2.3132475e-001
1.5620372e-001
1.7491542e-001
2.6505542e-001
3.9040983e-001
5.3008044e-001
6.7401648e-001
8.2553488e-001
9.9009645e-001
1.1588880e+000
1.3148557e+000
1.4332749e+000
1.4894614e+000
1.4711200e+000
1.3775154e+000
1.2335575e+000
1.0739126e+000
9.2537111e-001
8.0786306e-001
7.3036349e-001
6.9541419e-001
6.9869530e-001
7.3155755e-001
7.7909571e-001
8.2806748e-001
8.8412881e-001
9.6095437e-001
1.0675882e+000
1.2040136e+000
1.3426348e+000
1.4485443e+000
1.5109500e+000
1.5367115e+000
1.5550714e+000
1.5981079e+000
1.6652677e+000
1.7348561e+000
1.7666737e+000
1.7218214e+000
1.6020648e+000
1.4344465e+000
1.2650280e+000
1.1400158e+000
1.0715085e+000
1.0520031e+000
1.0659155e+000
1.0965465e+000
1.1342057e+000
1.1740501e+000
1.2157646e+000
1.2618146e+000
1.3183937e+000
1.3900913e+000
1.4667001e+000
1.5284649e+000
1.5486500e+000
1.5036268e+000
1.3961103e+000
1.2509151e+000
1.1266915e+000
1.0870194e+000
1.1433578e+000
1.2683029e+000
1.3941928e+000
1.4492960e+000
1.4294697e+000
1.3708522e+000
1.3183366e+000
1.3084464e+000
1.3347560e+000
1.3709434e+000
1.4079061e+000
1.4496768e+000
1.5066714e+000
1.5843087e+000
1.6556389e+000
1.6796991e+000
1.6375560e+000
1.5303000e+000
1.3849317e+000
1.2370151e+000
1.1007714e+000
9.7720051e-001
8.7000203e-001
7.8857797e-001
7.5457245e-001
7.8762907e-001
8.6781687e-001
9.4981360e-001
9.8323184e-001
9.3009722e-001
8.1022298e-001
6.7337024e-001
5.4704344e-001
4.3482134e-001
3.0986685e-001
1.3768502e-001
-7.5111762e-002
-2.8904143e-001
-4.3884408e-001
-4.6081170e-001
-3.5698396e-001
-1.7453259e-001
2.7566642e-002
1.9800895e-001
3.3270451e-001
4.5496771e-001
5.7529229e-001
6.8779069e-001
7.6472461e-001
7.7267963e-001
7.0994860e-001
5.9847707e-001
4.6768913e-001
3.4757903e-001
2.6008201e-001
2.2175151e-001
2.5005034e-001
3.4983549e-001
4.6318492e-001
4.9560812e-001
3.7697154e-001
8.8870406e-002
-2.4935856e-001
-4.4649601e-001
-3.9589161e-001
-8.9312658e-002
3.4572890e-001
7.1809375e-001
9.3201202e-001
9.7588348e-001
8.7388325e-001
6.7006958e-001
4.2976257e-001
2.2681990e-001
1.1483403e-001
1.1531190e-001
1.7567554e-001
2.0702849e-001
1.8566599e-001
1.3412583e-001
4.2700056e-002
-1.1770611e-001
-3.2604870e-001
-5.2459049e-001
-6.7270625e-001
-7.5557673e-001
-7.9456085e-001
-8.3384782e-001
-9.1181833e-001
-1.0420967e+000
-1.1590905e+000
-1.1502697e+000
-9.5456004e-001
-5.8207858e-001
-1.5609780e-001
1.4225061e-001
2.2931942e-001
1.2705800e-001
-4.8918739e-002
-1.2817819e-001
3.9033711e-002
5.4420406e-001
1.3214412e+000
2.1888218e+000
2.9762194e+000
3.5794287e+000
4.0783200e+000
4.6969156e+000
5.6757541e+000
7.2427101e+000
9.6064787e+000
1.2871230e+001
1.6715000e+001
2.0520889e+001
2.3893000e+001
2.6756630e+001
2.9461281e+001
3.2632694e+001
3.6745892e+001
4.1957951e+001
4.7733761e+001
5.3140751e+001
5.7943298e+001
6.2574631e+001
6.7461449e+001
7.2809601e+001
7.8332794e+001
8.3408600e+001
8.7702332e+001
9.1208801e+001
9.4002373e+001
9.6166512e+001
9.7750290e+001
9.8766403e+001
9.9200401e+001
9.9025177e+001
9.8250687e+001
9.6947891e+001
9.5304604e+001
9.3566490e+001
9.1792519e+001
8.9850136e+001
8.7565910e+001
8.4795227e+001
8.1543030e+001
7.7929115e+001
7.3979080e+001
6.9617249e+001
6.4824036e+001
5.9683311e+001
5.4427139e+001
4.9389629e+001
4.4806572e+001
4.0781376e+001
3.7337284e+001
3.4435459e+001
3.1989187e+001
2.9885464e+001
2.8048689e+001
2.6450632e+001
2.5092468e+001
2.3994623e+001
2.3174000e+001
2.2637564e+001
2.2376863e+001
2.2369511e+001
2.2581711e+001
2.2970165e+001
2.3492029e+001
2.4119221e+001
2.4890057e+001
2.5907879e+001
2.7282314e+001
2.9092270e+001
3.1296787e+001
3.3739162e+001
3.6262360e+001
3.8746235e+001
4.1128788e+001
4.3435387e+001
4.5865822e+001
4.8705734e+001
5.1834644e+001
5.4696911e+001
5.6819393e+001
5.7975555e+001
5.8264072e+001
5.8042000e+001
5.7466805e+001
5.6424225e+001
5.4829380e+001
5.2725063e+001
5.0332745e+001
4.8011177e+001
4.5946686e+001
4.4087914e+001
4.2307747e+001
4.0457699e+001
3.8433159e+001
3.6204346e+001
3.3854439e+001
3.1567793e+001
2.9484871e+001
2.7637535e+001
2.5891239e+001
2.3966984e+001
2.1698381e+001
1.9122292e+001
1.6455816e+001
1.4046028e+001
1.2067294e+001
1.0444265e+001
9.0340137e+000
7.6871953e+000
6.3273673e+000
4.9724751e+000
3.6675308e+000
2.4676785e+000
1.4370763e+000
6.4272678e-001
1.2131451e-001
-1.1654185e-001
1.1552870e-003
6.0312164e-001
1.6817857e+000
3.0410960e+000
4.4549279e+000
5.7333231e+000
6.8146033e+000
7.7915125e+000
8.7763510e+000
9.8453646e+000
1.0970799e+001
1.2001895e+001
1.2785314e+001
1.3217373e+001
1.3284320e+001
1.3076786e+001
1.2689637e+001
1.2186940e+001
1.1602646e+001
1.0933160e+001
1.0158217e+001
9.2569237e+000
8.2665691e+000
7.2984619e+000
6.4474220e+000
5.7579799e+000
5.2361941e+000
4.8536925e+000
4.5963621e+000
4.4792461e+000
4.5166230e+000
4.7098408e+000
5.0392337e+000
5.4602222e+000
5.9273086e+000
6.4003358e+000
6.8337169e+000
7.1749749e+000
7.3849001e+000
7.4493070e+000
7.3811069e+000
7.2222419e+000
7.0065689e+000
6.7464476e+000
6.4494753e+000
6.1242752e+000
5.7862711e+000
5.4567475e+000
5.1364207e+000
4.7947664e+000
4.4022598e+000
3.9445882e+000
3.4287579e+000
2.8860984e+000
2.3350999e+000
1.7686150e+000
1.1857971e+000
6.0903889e-001
9.1449738e-002
-2.8084153e-001
-4.5265302e-001
-4.2830086e-001
-2.2106458e-001
1.5925348e-001
6.8400037e-001
1.2945714e+000
1.9335921e+000
2.5578146e+000
3.1342225e+000
3.6399243e+000
4.0457115e+000
4.3100343e+000
4.3992496e+000
4.3013468e+000
4.0371690e+000
3.6730721e+000
3.2843800e+000
2.9406261e+000
2.6892674e+000
2.5403872e+000
2.4804599e+000
2.4699671e+000
2.4636633e+000
2.4198139e+000
2.3176415e+000
2.1716371e+000
2.0110068e+000
1.8746550e+000
1.7925074e+000
1.7752608e+000
1.8308429e+000
1.9704050e+000
2.2080638e+000
2.5594752e+000
3.0249960e+000
3.5755587e+000
4.1629381e+000
4.7187610e+000
5.1842947e+000
5.5294871e+000
5.7523217e+000
5.8893218e+000
5.9856057e+000
6.0846314e+000
6.2217846e+000
6.4170465e+000
6.6826720e+000
7.0231271e+000
7.4435039e+000
7.9537058e+000
8.5660315e+000
9.2935047e+000
1.0136943e+001
1.1073582e+001
1.2072217e+001
1.3098499e+001
1.4122057e+001
1.5119246e+001
1.6058771e+001
1.6889908e+001
1.7546356e+001
1.7941732e+001
1.7998560e+001
1.7672461e+001
1.6966240e+001
1.5963742e+001
1.4766708e+001
1.3479518e+001
1.2198342e+001
1.1002070e+001
9.9574051e+000
9.1182127e+000
8.5208855e+000
8.1697550e+000
8.0420837e+000
8.0733261e+000
8.1771021e+000
8.2452536e+000
8.1831579e+000
7.9402046e+000
7.5064573e+000
6.9361887e+000
6.2942901e+000
5.6351290e+000
4.9977083e+000
4.3943143e+000
3.8360913e+000
3.3449786e+000
2.9383154e+000
2.6180370e+000
2.3781800e+000
2.2043650e+000
2.0863254e+000
2.0263689e+000
2.0244663e+000
2.0682156e+000
2.1418352e+000
2.2284780e+000
2.3114812e+000
2.3746753e+000
2.3965786e+000
2.3449926e+000
2.1943920e+000
1.9423285e+000
1.6020900e+000
1.2104392e+000
8.1309593e-001
4.6213040e-001
2.0045933e-001
4.5396812e-002
-7.8299269e-004
4.2047001e-002
1.3939369e-001
2.3654637e-001
2.9165024e-001
3.0563220e-001
2.9276910e-001
2.7443600e-001
2.6995721e-001
2.8877193e-001
3.3148888e-001
3.8331896e-001
4.2980382e-001
4.6733609e-001
5.0337678e-001
5.6490153e-001
6.6903627e-001
7.9671031e-001
9.2410839e-001
1.0389625e+000
1.1467142e+000
1.2895100e+000
1.5003680e+000
1.7657816e+000
2.0605114e+000
2.3586142e+000
2.6430912e+000
2.9193583e+000
3.1815257e+000
3.3809979e+000
3.4682455e+000
3.4217453e+000
3.2464881e+000
3.0011327e+000
2.7505538e+000
2.5420415e+000
2.4061799e+000
2.3391049e+000
2.3199294e+000
2.3042889e+000
2.2535172e+000
2.1605153e+000
2.0362613e+000
1.9195330e+000
1.8449847e+000
1.8162535e+000
1.8289677e+000
1.8772987e+000
1.9572834e+000
2.0699508e+000
2.2108698e+000
2.3552017e+000
2.4759183e+000
2.5549607e+000
2.5758195e+000
2.5222850e+000
2.3797977e+000
2.1399131e+000
1.8132863e+000
1.4611404e+000
1.1484157e+000
9.1274923e-001
7.6264298e-001
6.4045274e-001
4.8961282e-001
3.0766422e-001
1.1554823e-001
-3.5552070e-002
-1.0662434e-001
-1.2057859e-001
-1.2122500e-001
-1.6947570e-001
-3.1731617e-001
-5.7341057e-001
-9.1422522e-001
-1.2476414e+000
-1.4778559e+000
-1.5538926e+000
-1.4613280e+000
-1.2690189e+000
-1.0557142e+000
-8.6469972e-001
-7.2208351e-001
-6.2628031e-001
-5.7175756e-001
-5.6248802e-001
-5.9627968e-001
-6.4228636e-001
-6.6437775e-001
-6.3339090e-001
-5.3709686e-001
-4.1562182e-001
-3.1088120e-001
-2.2538809e-001
-1.4814204e-001
-5.4674685e-002
8.3956882e-002
3.0026203e-001
6.0742390e-001
9.4605637e-001
1.2454000e+000
1.4589496e+000
1.5573894e+000
1.5512815e+000
1.4723531e+000
1.3930721e+000
1.3791760e+000
1.4337163e+000
1.5307989e+000
1.5933018e+000
1.5610229e+000
1.4863234e+000
1.4590399e+000
1.6049030e+000
2.0057650e+000
2.5373492e+000
3.0325675e+000
3.3578258e+000
3.4332910e+000
3.3601923e+000
3.2849000e+000
