Image.
>Pix99999.
  .
5555
5555
2300
900
5555
2
1
0
701
5555
8.6522996e-002
8.8323422e-002
9.0122849e-002
9.1923274e-002
9.3722701e-002
9.5523119e-002
9.7323544e-002
9.9122979e-002
1.0091943e-001
1.0272674e-001
1.0452428e-001
1.0632171e-001
1.0811914e-001
1.0992638e-001
1.1172400e-001
1.1352143e-001
1.1531886e-001
1.1712604e-001
1.1892372e-001
1.2072115e-001
1.2251857e-001
1.2432570e-001
1.2612343e-001
1.2792085e-001
1.2971827e-001
1.3152535e-001
9.7405687e-002
3.7062129e-003
-1.2131520e-001
-2.3388337e-001
-3.4462929e-001
-3.7822345e-001
-4.0764463e-001
-4.6819103e-001
-5.3746307e-001
-6.6524303e-001
-7.7511787e-001
-7.9032403e-001
-7.6473933e-001
-6.3080394e-001
-5.0677341e-001
-4.1769391e-001
-3.7803560e-001
-4.1557848e-001
-4.9163327e-001
-6.0975337e-001
-7.4664825e-001
-8.9891422e-001
-1.0515237e+000
-1.2036390e+000
-1.3135643e+000
-1.3993582e+000
-1.3752291e+000
-1.3037559e+000
-1.1608711e+000
-9.9580705e-001
-8.7340480e-001
-7.6110268e-001
-7.6172090e-001
-7.8041065e-001
-9.0793800e-001
-1.0399268e+000
-1.1090934e+000
-1.1510090e+000
-1.0706480e+000
-9.8902076e-001
-9.4685018e-001
-9.2980230e-001
-9.6693200e-001
-9.8377210e-001
-9.5143700e-001
-9.0415424e-001
-8.4257644e-001
-8.0949521e-001
-8.1026334e-001
-8.0783606e-001
-7.9951173e-001
-7.4469495e-001
-6.5815741e-001
-5.6877619e-001
-4.7954145e-001
-4.3341032e-001
-4.0501413e-001
-3.7332055e-001
-3.3995599e-001
-3.3344364e-001
-3.3340698e-001
-4.1580218e-001
-5.1047719e-001
-5.8948904e-001
-6.6219455e-001
-7.0325238e-001
-7.4359405e-001
-7.9978585e-001
-8.4740150e-001
-8.6232656e-001
-8.5509735e-001
-8.1011587e-001
-7.8123879e-001
-7.8904748e-001
-8.1858855e-001
-8.7005037e-001
-8.7620723e-001
-8.3214986e-001
-7.4110895e-001
-6.1618453e-001
-5.0267130e-001
-3.9940518e-001
-3.3549279e-001
-2.9214874e-001
-3.1356901e-001
-3.6110750e-001
-4.0761241e-001
-4.5325595e-001
-4.0338618e-001
-3.3223736e-001
-2.9882365e-001
-2.8872499e-001
-4.2625058e-001
-6.0093141e-001
-8.1944168e-001
-1.0230911e+000
-1.1465946e+000
-1.1982890e+000
-1.1107537e+000
-9.5859355e-001
-7.3655123e-001
-5.5916667e-001
-4.6538395e-001
-4.7363633e-001
-5.8030403e-001
-6.8943781e-001
-7.8427905e-001
-8.1932938e-001
-8.1243110e-001
-7.6832479e-001
-7.0704573e-001
-5.8912969e-001
-4.4443446e-001
-3.1180167e-001
-1.8354800e-001
-2.3385012e-001
-3.4067976e-001
-6.1733210e-001
-9.3329072e-001
-1.1999049e+000
-1.4306715e+000
-1.5094370e+000
-1.5401378e+000
-1.5457065e+000
-1.5493715e+000
-1.5762814e+000
-1.6003881e+000
-1.5904092e+000
-1.5775640e+000
-1.5549350e+000
-1.5296937e+000
-1.5044744e+000
-1.4586921e+000
-1.3978462e+000
-1.3212999e+000
-1.2377579e+000
-1.0897180e+000
-8.9694238e-001
-6.5671462e-001
-3.9090300e-001
-3.0064020e-001
-3.0014896e-001
-4.8260880e-001
-7.3828918e-001
-9.3596286e-001
-1.1046169e+000
-1.1569668e+000
-1.1646396e+000
-1.1651485e+000
-1.1790750e+000
-1.2647954e+000
-1.3948816e+000
-1.5444654e+000
-1.6817713e+000
-1.7576942e+000
-1.7899460e+000
-1.7918080e+000
-1.7496047e+000
-1.6718794e+000
-1.4736115e+000
-1.1435138e+000
-7.3395538e-001
-2.6450813e-001
1.4406521e-002
1.2873794e-001
7.4392565e-002
-8.2383782e-002
-2.1398145e-001
-3.2286561e-001
-4.6406057e-001
-6.2145722e-001
-7.6204050e-001
-8.8795596e-001
-8.5886389e-001
-7.6169431e-001
-6.1722624e-001
-4.7480613e-001
-4.4096261e-001
-4.8979697e-001
-6.8190104e-001
-9.5448452e-001
-1.3025479e+000
-1.6425612e+000
-1.9160899e+000
-2.0417700e+000
-1.9715378e+000
-1.6989149e+000
-1.2394767e+000
-8.4161901e-001
-5.5183363e-001
-5.7180649e-001
-8.4861779e-001
-1.1847361e+000
-1.5293754e+000
-1.7480772e+000
-1.8850675e+000
-1.8342800e+000
-1.6840936e+000
-1.3077440e+000
-8.2702321e-001
-5.2826029e-001
-3.5799417e-001
-6.1056572e-001
-1.0490816e+000
-1.4892114e+000
-1.8612260e+000
-1.9819263e+000
-1.9265906e+000
-1.6097772e+000
-1.2501392e+000
-9.9682307e-001
-9.3156523e-001
-1.1782010e+000
-1.5145673e+000
-1.8386915e+000
-2.0027950e+000
-1.9622852e+000
-1.8148267e+000
-1.6095148e+000
-1.3958100e+000
-1.1873134e+000
-8.8211280e-001
-5.0428885e-001
-5.7227485e-002
4.2691928e-001
7.3083460e-001
9.2467558e-001
8.5004240e-001
6.4178330e-001
4.4196001e-001
2.7795926e-001
2.5004914e-001
3.3837393e-001
6.1804533e-001
1.0066980e+000
1.4177626e+000
1.6780808e+000
1.5300903e+000
1.1186182e+000
6.0168505e-001
2.1869580e-001
1.3956395e-001
5.9817601e-002
-1.0954173e-001
-2.5057998e-001
-3.5816985e-001
-7.2219551e-002
6.5558231e-001
1.6569545e+000
2.8236499e+000
3.4452052e+000
3.5503981e+000
3.3314080e+000
2.9136817e+000
2.7435799e+000
2.7576392e+000
2.5499618e+000
2.1704142e+000
1.3949319e+000
4.3923974e-001
-1.7313398e-001
-4.0232459e-001
1.2014934e-001
1.2524583e+000
2.8948758e+000
4.5580826e+000
5.6775484e+000
6.4832697e+000
7.1425180e+000
8.0896749e+000
9.6400681e+000
1.1985366e+001
1.5199180e+001
1.8781723e+001
2.2511715e+001
2.5691860e+001
2.8108543e+001
3.0340906e+001
3.2546299e+001
3.5559803e+001
3.9390854e+001
4.3705326e+001
4.8373161e+001
5.2342739e+001
5.5702213e+001
5.9138000e+001
6.2671368e+001
6.6653427e+001
7.0925850e+001
7.5027649e+001
7.9005180e+001
8.2854897e+001
8.6575409e+001
9.0078987e+001
9.3355545e+001
9.6342377e+001
9.8912903e+001
1.0097943e+002
1.0183148e+002
1.0108929e+002
9.9203819e+001
9.6594513e+001
9.3610924e+001
9.0431541e+001
8.6569099e+001
8.1938614e+001
7.7083923e+001
7.2246269e+001
6.7938042e+001
6.4166458e+001
6.0364597e+001
5.6436272e+001
5.2375237e+001
4.8204578e+001
4.4119972e+001
4.0171112e+001
3.6574287e+001
3.3382023e+001
3.0668348e+001
2.8408443e+001
2.6461632e+001
2.4820810e+001
2.3428989e+001
2.2299023e+001
2.1396500e+001
2.0703379e+001
2.0177252e+001
1.9779039e+001
1.9465036e+001
1.9289572e+001
1.9258829e+001
1.9484110e+001
1.9985998e+001
2.0881058e+001
2.2201857e+001
2.3779343e+001
2.5590908e+001
2.7220001e+001
2.8591040e+001
2.9736193e+001
3.0650698e+001
3.1789728e+001
3.3263538e+001
3.5756474e+001
3.9183643e+001
4.2521160e+001
4.5624176e+001
4.7806343e+001
4.9268089e+001
5.0725605e+001
5.2182171e+001
5.3685532e+001
5.4725719e+001
5.4820400e+001
5.4015171e+001
5.2507347e+001
5.0887276e+001
4.9558910e+001
4.8545589e+001
4.7854050e+001
4.7250420e+001
4.6647041e+001
4.5455730e+001
4.3493774e+001
4.1171185e+001
3.8563114e+001
3.6276321e+001
3.4366276e+001
3.2094234e+001
2.9285528e+001
2.6199970e+001
2.2922052e+001
2.0168308e+001
1.8024160e+001
1.6024000e+001
1.4148233e+001
1.2291300e+001
1.0420578e+001
8.5279922e+000
6.5962133e+000
4.5976019e+000
2.7594371e+000
1.3022594e+000
3.5746062e-001
3.5176829e-002
2.5199151e-001
1.0288815e+000
1.8633090e+000
2.4129143e+000
2.8219728e+000
3.0426657e+000
3.3758473e+000
3.9491940e+000
4.6339617e+000
5.4611602e+000
5.9862533e+000
6.0911703e+000
5.9288316e+000
5.4266791e+000
4.8828535e+000
4.2878060e+000
3.7873571e+000
3.4178469e+000
3.2567263e+000
3.2736299e+000
3.3057330e+000
3.2534223e+000
2.9559879e+000
2.5118458e+000
2.1023672e+000
1.8553514e+000
1.9218726e+000
2.2024069e+000
2.6204474e+000
2.9961741e+000
3.1595769e+000
3.2640665e+000
3.3154428e+000
3.4234126e+000
3.6427186e+000
3.9055593e+000
4.2541265e+000
4.6357880e+000
5.0822682e+000
5.4854002e+000
5.8207150e+000
6.0006762e+000
5.9929738e+000
5.8924646e+000
5.6670151e+000
5.3759956e+000
5.0020075e+000
4.6402273e+000
4.2980361e+000
4.0472403e+000
3.8370347e+000
3.6109219e+000
3.3499439e+000
3.0080955e+000
2.6408958e+000
2.2660244e+000
1.8644322e+000
1.4433525e+000
1.0173848e+000
6.1581373e-001
3.0225217e-001
1.1258919e-001
4.1902396e-003
-1.8566869e-002
-1.4273286e-002
1.2804320e-001
3.6241260e-001
7.4708390e-001
1.0669956e+000
1.2536800e+000
1.2378594e+000
9.6632677e-001
6.9468492e-001
4.6485177e-001
3.9409035e-001
5.2576351e-001
8.2779956e-001
1.2969675e+000
1.8160779e+000
2.3236899e+000
2.6725712e+000
2.8633788e+000
2.8764536e+000
2.7828465e+000
2.6280265e+000
2.4469039e+000
2.2684159e+000
2.1043947e+000
2.0067174e+000
1.9500571e+000
1.9757303e+000
2.0248275e+000
2.1000917e+000
2.1667161e+000
2.2085943e+000
2.2352521e+000
2.2403753e+000
2.2448459e+000
2.2563488e+000
2.2960014e+000
2.3801360e+000
2.5071144e+000
2.6920249e+000
2.8974562e+000
3.1426401e+000
3.4105344e+000
3.7254562e+000
4.0799761e+000
4.4726615e+000
4.8683286e+000
5.2639594e+000
5.6477947e+000
6.0394411e+000
6.4795060e+000
6.9563498e+000
7.4937782e+000
8.0263863e+000
8.4789953e+000
8.8552561e+000
9.0494099e+000
9.1705103e+000
9.1567364e+000
9.0880165e+000
8.8804455e+000
8.6198664e+000
8.2153778e+000
7.7798700e+000
7.2769847e+000
6.7808857e+000
6.3032947e+000
5.8468051e+000
5.4152355e+000
4.9483190e+000
4.4263248e+000
3.8570685e+000
3.2485940e+000
2.6824353e+000
2.1718755e+000
1.7449583e+000
1.3866786e+000
1.0733013e+000
7.9138219e-001
5.3511572e-001
2.9871601e-001
9.9863715e-002
-8.0129027e-002
-2.3192778e-001
-3.5832673e-001
-4.1323948e-001
-4.2221400e-001
-2.8799286e-001
-1.3120043e-001
8.4717989e-002
2.7869755e-001
4.1215423e-001
5.3756505e-001
6.4562929e-001
7.6786160e-001
9.1146380e-001
1.0268258e+000
1.0827813e+000
1.0544919e+000
9.0767527e-001
7.0446777e-001
4.4985643e-001
2.3086710e-001
6.1975840e-002
-2.7256829e-003
1.8125802e-002
1.3218229e-001
3.0218911e-001
5.2971566e-001
7.8133327e-001
1.0403169e+000
1.3120000e+000
1.6352663e+000
1.9704099e+000
2.3214481e+000
2.6528285e+000
2.8721557e+000
3.0679812e+000
3.1738794e+000
3.2906578e+000
3.4444249e+000
3.6227200e+000
3.8597081e+000
4.0842638e+000
4.2793975e+000
4.4258895e+000
4.5016999e+000
4.6016860e+000
4.7556081e+000
5.0845642e+000
5.5940599e+000
6.1876321e+000
6.8212838e+000
7.2925816e+000
7.6469135e+000
7.8609171e+000
8.0027046e+000
8.0814648e+000
8.1330233e+000
8.1284485e+000
8.1230793e+000
8.1925659e+000
8.2857075e+000
8.4792709e+000
8.6682634e+000
8.7966194e+000
8.8942289e+000
8.8559074e+000
8.7928991e+000
8.6506777e+000
8.5116987e+000
8.3841715e+000
8.2898340e+000
8.2614183e+000
8.2582588e+000
8.2902126e+000
8.2957697e+000
8.2633295e+000
8.1582594e+000
7.9811745e+000
7.7427301e+000
7.4582686e+000
7.1423640e+000
6.8040180e+000
6.3921638e+000
5.9474144e+000
5.4406600e+000
4.9208932e+000
4.4427667e+000
3.9766459e+000
3.5729480e+000
3.1813235e+000
2.8746030e+000
2.5819571e+000
2.3817897e+000
2.1730261e+000
1.9249572e+000
1.6480060e+000
1.2856599e+000
9.4501615e-001
6.5683264e-001
4.0599716e-001
2.1541411e-001
-2.2685230e-003
-2.5473559e-001
-4.5425069e-001
-5.8699602e-001
-5.2389908e-001
-3.0052939e-001
3.9909780e-003
3.4867555e-001
5.5617052e-001
6.9129467e-001
6.2617493e-001
4.9327847e-001
2.6274845e-001
1.9169331e-002
-7.3243096e-002
-1.4031336e-001
-4.4668853e-002
4.9065348e-002
1.9499786e-002
8.6969137e-004
3.0160323e-002
1.9045770e-001
8.0177259e-001
1.4832373e+000
2.3660262e+000
3.1447537e+000
3.6980424e+000
4.0798826e+000
4.1874418e+000
4.2535982e+000
4.2709336e+000
4.4200749e+000
4.6932697e+000
5.0223842e+000
5.3898864e+000
5.6131487e+000
5.7574120e+000
5.9183860e+000
6.0810099e+000
6.4041634e+000
6.7642517e+000
7.0093441e+000
7.2346258e+000
7.6020999e+000
