Image.
>Pix99999.
  .
5555
5555
2300
900
5555
2
1
0
701
5555
3.0386001e-002
3.1018097e-002
3.1650193e-002
3.2282289e-002
3.2914381e-002
3.3546478e-002
3.4178577e-002
3.4810670e-002
3.5442766e-002
3.6074862e-002
3.6706958e-002
3.7339054e-002
3.7971146e-002
3.8603242e-002
3.9235342e-002
3.9868414e-002
4.0500529e-002
4.1132625e-002
4.1764725e-002
4.2396817e-002
4.3028913e-002
4.3661010e-002
4.4293106e-002
4.4925202e-002
4.5557298e-002
4.6189390e-002
3.1366669e-002
1.1877685e-003
-8.9554563e-003
-8.4921503e-003
-6.5411399e-003
1.2422251e-002
3.3334140e-002
7.0511147e-002
1.0897771e-001
1.5173800e-001
1.9403353e-001
2.3337589e-001
2.7656966e-001
3.3208385e-001
3.8665286e-001
4.3766049e-001
4.6725139e-001
4.6224859e-001
4.3974027e-001
3.9805233e-001
3.7224117e-001
3.6288661e-001
3.7400079e-001
3.9960730e-001
4.1694000e-001
4.2896831e-001
4.3666103e-001
4.4262630e-001
4.6120414e-001
4.8390365e-001
5.0721961e-001
5.3061211e-001
5.4500234e-001
5.5797935e-001
5.6515002e-001
5.7212830e-001
5.8313030e-001
5.9611559e-001
6.1837888e-001
6.4279753e-001
6.7189819e-001
6.9817430e-001
7.1602660e-001
7.2336805e-001
7.1236199e-001
6.9524616e-001
6.7204517e-001
6.5575123e-001
6.4797837e-001
6.5025002e-001
6.6062963e-001
6.8181270e-001
7.0997745e-001
7.4601543e-001
7.8594631e-001
8.1045640e-001
8.2820100e-001
8.2240051e-001
8.0925876e-001
8.0592310e-001
8.0505848e-001
8.2687163e-001
8.5197699e-001
8.7101728e-001
8.8657570e-001
8.8230950e-001
8.7275511e-001
8.5221678e-001
8.3283007e-001
8.2187051e-001
8.2109362e-001
8.4016585e-001
8.6662918e-001
9.0061021e-001
9.2964000e-001
9.5084989e-001
9.5986670e-001
9.5745593e-001
9.4599581e-001
9.2816252e-001
9.1184080e-001
8.9701092e-001
8.8590688e-001
8.7680113e-001
8.6920810e-001
8.6219364e-001
8.5393322e-001
8.4533316e-001
8.1885916e-001
7.8798932e-001
7.4011451e-001
6.9179279e-001
6.6925830e-001
6.5918857e-001
6.8962997e-001
7.2759527e-001
7.6495737e-001
7.9287493e-001
7.9804891e-001
7.9785138e-001
7.9650080e-001
8.0166346e-001
8.1592792e-001
8.3158332e-001
8.4551799e-001
8.4796685e-001
8.3980328e-001
8.1778961e-001
7.8709871e-001
7.6988405e-001
7.6274407e-001
7.8623897e-001
8.2521743e-001
8.5051870e-001
8.6867601e-001
8.4594089e-001
8.0879945e-001
7.6958340e-001
7.3138273e-001
7.2162956e-001
7.2214884e-001
7.4666506e-001
7.7736646e-001
8.1219143e-001
8.4104073e-001
8.5104728e-001
8.4570450e-001
8.1274444e-001
7.7112180e-001
7.2135431e-001
6.7920500e-001
6.5049189e-001
6.3675487e-001
6.3842565e-001
6.5050799e-001
6.7027187e-001
6.9417065e-001
7.2089970e-001
7.4332935e-001
7.6252449e-001
7.6166624e-001
7.4927098e-001
7.1983963e-001
6.8315595e-001
6.4001340e-001
5.9424913e-001
5.5002773e-001
5.0654072e-001
4.8136258e-001
4.6533251e-001
4.6416259e-001
4.7172439e-001
4.7946355e-001
4.8531193e-001
4.8272058e-001
4.6725544e-001
4.3598118e-001
3.9160094e-001
3.3871561e-001
3.0254963e-001
2.9445362e-001
3.3325738e-001
4.1201052e-001
4.9294472e-001
5.6206459e-001
5.8394384e-001
5.7226378e-001
5.3585327e-001
4.8915672e-001
4.3971086e-001
3.8878080e-001
3.4715176e-001
3.0848274e-001
2.9920781e-001
3.0223143e-001
3.2743278e-001
3.5897261e-001
3.6787811e-001
3.5962680e-001
3.0688265e-001
2.3896249e-001
1.7354342e-001
1.2085669e-001
9.9639758e-002
9.3660302e-002
1.0414454e-001
1.2197074e-001
1.4763701e-001
1.7055483e-001
1.7682543e-001
1.5264308e-001
9.2249699e-002
1.5871834e-002
-6.2758602e-002
-1.2128712e-001
-1.5968567e-001
-1.7703442e-001
-1.7890891e-001
-1.7648080e-001
-1.6817607e-001
-1.7297208e-001
-1.8121727e-001
-1.9870439e-001
-2.2123200e-001
-2.2313486e-001
-2.1440980e-001
-1.7337829e-001
-1.1194361e-001
-3.7197545e-002
3.5147995e-002
6.5520205e-002
5.0316826e-002
-2.3553539e-002
-1.2506123e-001
-2.2429943e-001
-3.0233216e-001
-3.4616864e-001
-3.6072922e-001
-3.5617405e-001
-3.3131048e-001
-2.9225570e-001
-2.6446775e-001
-2.4621812e-001
-2.5323853e-001
-2.7747858e-001
-2.6282078e-001
-2.2393280e-001
-1.4812918e-001
-5.7795547e-002
-3.0772286e-003
2.5574313e-002
3.6233101e-002
3.7406489e-002
6.0306821e-002
1.0030337e-001
1.6574615e-001
2.3840295e-001
2.6841891e-001
2.6439264e-001
2.1451750e-001
1.4885780e-001
1.0758442e-001
3.6900919e-002
-9.1415100e-002
-2.1062343e-001
-2.8433159e-001
-2.9028171e-001
-2.2672841e-001
-1.5951023e-001
-1.1556321e-001
-1.4991046e-001
-2.6362821e-001
-3.7722045e-001
-4.7322214e-001
-4.5417401e-001
-3.4156492e-001
-2.0920077e-001
-7.7251054e-002
-6.3866839e-002
-1.3435212e-001
-1.7280215e-001
-1.6302100e-001
2.4051316e-002
3.8009518e-001
9.5536482e-001
1.6549742e+000
2.3074961e+000
2.9197178e+000
3.5203180e+000
4.2745728e+000
5.3515902e+000
7.0172687e+000
9.3979158e+000
1.2676048e+001
1.6784143e+001
2.0930759e+001
2.4761183e+001
2.8165739e+001
3.1219830e+001
3.4808952e+001
3.9026051e+001
4.4020718e+001
4.9614201e+001
5.4447178e+001
5.8568142e+001
6.2477821e+001
6.6311287e+001
7.0779190e+001
7.5697754e+001
8.0413704e+001
8.4829758e+001
8.8601280e+001
9.1781425e+001
9.4455872e+001
9.6660889e+001
9.8473122e+001
9.9726097e+001
1.0023463e+002
9.9676048e+001
9.7807716e+001
9.5184128e+001
9.2343468e+001
8.9242798e+001
8.5914352e+001
8.1961861e+001
7.7289436e+001
7.2569077e+001
6.8029999e+001
6.3837494e+001
5.9990181e+001
5.6051880e+001
5.1969967e+001
4.7958355e+001
4.4037075e+001
4.0358913e+001
3.6943645e+001
3.3932926e+001
3.1337231e+001
2.9147972e+001
2.7349615e+001
2.5818861e+001
2.4572525e+001
2.3592703e+001
2.2881613e+001
2.2403000e+001
2.2135782e+001
2.2019600e+001
2.2031744e+001
2.2129717e+001
2.2303978e+001
2.2543213e+001
2.2853441e+001
2.3238245e+001
2.3775438e+001
2.4489058e+001
2.5404575e+001
2.6510939e+001
2.7682566e+001
2.8885000e+001
3.0069885e+001
3.1238781e+001
3.2616375e+001
3.4300957e+001
3.6874706e+001
4.0402672e+001
4.4220249e+001
4.8098251e+001
5.1101341e+001
5.3254990e+001
5.5097679e+001
5.6650955e+001
5.8054241e+001
5.9116280e+001
5.9529163e+001
5.9221630e+001
5.8226925e+001
5.6805565e+001
5.5328434e+001
5.3825733e+001
5.2322048e+001
5.0696365e+001
4.8858665e+001
4.6751091e+001
4.4301403e+001
4.1851486e+001
3.9518383e+001
3.7287243e+001
3.5199402e+001
3.2670238e+001
2.9554443e+001
2.6378794e+001
2.3179590e+001
2.0451113e+001
1.8247141e+001
1.6088572e+001
1.3972477e+001
1.1818111e+001
9.6337662e+000
7.4453564e+000
5.3357086e+000
3.4585879e+000
1.9145060e+000
8.2120270e-001
1.9634579e-001
4.5037404e-002
4.5492232e-001
1.3546110e+000
2.4357419e+000
3.4938164e+000
4.3676858e+000
4.9564314e+000
5.4481206e+000
5.9141932e+000
6.4156981e+000
6.9731998e+000
7.4147215e+000
7.6427445e+000
7.7000260e+000
7.5097122e+000
7.2754002e+000
6.9855108e+000
6.6943808e+000
6.3998609e+000
6.0676351e+000
5.6744785e+000
5.1563325e+000
4.5194993e+000
3.8588133e+000
3.2221940e+000
2.7406414e+000
2.4327564e+000
2.3004742e+000
2.3216248e+000
2.4368656e+000
2.6083400e+000
2.7911911e+000
2.9784369e+000
3.1922753e+000
3.4381475e+000
3.7396371e+000
4.0848002e+000
4.4764786e+000
4.8914480e+000
5.3301120e+000
5.7537785e+000
6.1357431e+000
6.4468403e+000
6.6113234e+000
6.6552467e+000
6.5012398e+000
6.2250857e+000
5.7850742e+000
5.2950983e+000
4.7546854e+000
4.2144055e+000
3.6942124e+000
3.2060618e+000
2.7597842e+000
2.3642976e+000
1.9854772e+000
1.5779991e+000
1.1503110e+000
7.0326036e-001
3.0630058e-001
5.2057557e-002
-8.4953405e-002
-5.3075723e-002
4.9142256e-002
2.0895691e-001
4.0012002e-001
6.2114000e-001
8.6088872e-001
1.1380637e+000
1.4202212e+000
1.7015457e+000
1.9611396e+000
2.1574433e+000
2.3412259e+000
2.5075040e+000
2.6968265e+000
2.9366190e+000
3.2208831e+000
3.5723298e+000
3.9574397e+000
4.3724999e+000
4.7683358e+000
5.1219120e+000
5.4062691e+000
5.6129189e+000
5.7444448e+000
5.8133998e+000
5.8214498e+000
5.7922740e+000
5.7242603e+000
5.6427712e+000
5.5514889e+000
5.4643421e+000
5.3907747e+000
5.3288398e+000
5.2905664e+000
5.2623839e+000
5.2530942e+000
5.2502074e+000
5.2610655e+000
5.2790270e+000
5.3152108e+000
5.3609815e+000
5.4279895e+000
5.5118079e+000
5.6201844e+000
5.7480350e+000
5.8960204e+000
6.0505042e+000
6.2094078e+000
6.3631940e+000
6.5107112e+000
6.6508808e+000
6.7827220e+000
6.9024897e+000
7.0082502e+000
7.0822349e+000
7.1284618e+000
7.1191816e+000
7.0748234e+000
6.9663143e+000
6.8194613e+000
6.5882039e+000
6.3111687e+000
5.9141521e+000
5.4848146e+000
4.9737568e+000
4.4642715e+000
3.9600568e+000
3.4737182e+000
3.0238228e+000
2.5922751e+000
2.1953156e+000
1.8256540e+000
1.4985520e+000
1.2064693e+000
9.5724297e-001
7.3491108e-001
5.3917146e-001
3.5573351e-001
1.8690722e-001
4.1634101e-002
-7.7294663e-002
-1.4157040e-001
-1.6958694e-001
-1.4721213e-001
-9.9516660e-002
-1.5704662e-002
9.4489574e-002
2.8017813e-001
4.9973798e-001
8.1558770e-001
1.1370631e+000
1.4549997e+000
1.7340606e+000
1.8894658e+000
1.9939500e+000
1.9721429e+000
1.9171165e+000
1.7957977e+000
1.6557771e+000
1.4850866e+000
1.3038526e+000
1.1088449e+000
9.0864903e-001
7.0376641e-001
5.0310230e-001
3.1207150e-001
1.5658642e-001
4.0201332e-002
8.2540233e-003
4.1516706e-002
1.8566892e-001
3.8501239e-001
6.5232259e-001
9.2915493e-001
1.1596682e+000
1.3584008e+000
1.4323320e+000
1.4795610e+000
1.4455301e+000
1.4207897e+000
1.4427549e+000
1.4997048e+000
1.6677723e+000
1.8562851e+000
2.0897298e+000
2.2881081e+000
2.4115577e+000
2.4701006e+000
2.4270716e+000
2.3572178e+000
2.2585900e+000
2.1862457e+000
2.1447182e+000
2.1438987e+000
2.1749821e+000
2.2126799e+000
2.2474308e+000
2.2313690e+000
2.1838658e+000
2.0733807e+000
1.9419429e+000
1.8095576e+000
1.6826800e+000
1.5995649e+000
1.5241239e+000
1.4645517e+000
1.4067968e+000
1.3552341e+000
1.3117172e+000
1.3037615e+000
1.3041309e+000
1.3306210e+000
1.3494434e+000
1.3469929e+000
1.3141704e+000
1.2225531e+000
1.1047574e+000
9.5044947e-001
8.1072402e-001
6.8935132e-001
5.8529967e-001
4.9470460e-001
3.8086396e-001
2.5080442e-001
1.1480801e-001
-2.0898350e-002
-1.1919834e-001
-2.0194086e-001
-2.6904827e-001
-3.3452335e-001
-4.2846465e-001
-5.2787304e-001
-6.3600522e-001
-7.4063474e-001
-7.9639477e-001
-8.4678715e-001
-8.6375767e-001
-8.8063580e-001
-8.9674646e-001
-9.0587914e-001
-8.9350766e-001
-8.7274110e-001
-8.3350521e-001
-8.0158681e-001
-7.8226507e-001
-7.7285331e-001
-7.7662903e-001
-7.8828257e-001
-8.0812538e-001
-8.2540464e-001
-8.3880866e-001
-8.1772727e-001
-7.7380067e-001
-7.0049000e-001
-6.1415982e-001
-5.3472090e-001
-4.5834050e-001
-3.9227945e-001
-3.2854798e-001
-2.6185220e-001
-1.9545919e-001
-1.4252752e-001
-8.9546360e-002
-2.8363500e-002
1.8283539e-003
5.7271928e-002
1.7925991e-001
3.6558670e-001
5.4569089e-001
7.0701647e-001
8.3526009e-001
8.9183122e-001
8.9438939e-001
8.1101584e-001
7.3218644e-001
6.6057420e-001
6.6744304e-001
7.4665540e-001
8.1423646e-001
8.7195218e-001
8.1785566e-001
7.0588368e-001
6.1847311e-001
5.4313922e-001
6.3415682e-001
7.7017426e-001
9.6923959e-001
1.1787587e+000
1.3595999e+000
