Image.
>Pix99999.
  .
5555
5555
2300
900
5555
2
1
0
701
5555
-1.4905000e-002
-1.5214557e-002
-1.5525112e-002
-1.5834672e-002
-1.6145224e-002
-1.6454786e-002
-1.6765334e-002
-1.7074900e-002
-1.7385446e-002
-1.7695013e-002
-1.8005557e-002
-1.8315129e-002
-1.8625669e-002
-1.8935243e-002
-1.9245781e-002
-1.9555358e-002
-1.9865893e-002
-2.0175472e-002
-2.0486003e-002
-2.0795586e-002
-2.1106115e-002
-2.1415699e-002
-2.1726225e-002
-2.2035815e-002
-2.2346336e-002
-2.2655929e-002
-8.4191712e-004
1.6940370e-002
4.1646879e-002
7.5942062e-002
1.1163618e-001
1.3341203e-001
1.5225239e-001
1.2740192e-001
9.8211281e-002
5.1153697e-002
5.8488734e-003
-2.7235476e-002
-5.3118784e-002
-5.9032906e-002
-5.7153113e-002
-4.0703334e-002
-2.1530019e-002
6.8106339e-004
2.6290696e-002
5.5902276e-002
8.6106762e-002
1.1662650e-001
1.3810028e-001
1.5277320e-001
1.7442143e-001
2.0035677e-001
2.4612109e-001
3.0046648e-001
3.6105350e-001
4.2348829e-001
4.8364678e-001
5.4324275e-001
5.7860416e-001
6.0982955e-001
5.9901917e-001
5.8402151e-001
5.6526530e-001
5.4840028e-001
5.4443777e-001
5.3603476e-001
5.0686926e-001
4.7045240e-001
4.2078304e-001
3.8376519e-001
3.7330300e-001
3.7896377e-001
4.0401155e-001
4.2955115e-001
4.5335880e-001
4.8060107e-001
5.1102602e-001
5.4732668e-001
5.8748490e-001
6.1265379e-001
6.2943369e-001
6.1927789e-001
5.9807527e-001
5.6629473e-001
5.3143799e-001
5.1513964e-001
5.0322497e-001
5.2701056e-001
5.5708957e-001
5.9927082e-001
6.4002216e-001
6.5712899e-001
6.6336578e-001
6.3648224e-001
5.9948403e-001
5.4660499e-001
4.9241945e-001
4.4059336e-001
3.9588520e-001
3.6256188e-001
3.4614000e-001
3.4971216e-001
3.6817995e-001
3.9905843e-001
4.2834005e-001
4.5473552e-001
4.7388884e-001
4.8848695e-001
4.8819435e-001
4.8043850e-001
4.5486629e-001
4.2228836e-001
4.0518120e-001
3.9332837e-001
4.0224567e-001
4.1568899e-001
4.0159303e-001
3.8145965e-001
3.5367587e-001
3.3213830e-001
3.5322428e-001
3.8837317e-001
4.4416982e-001
5.0048327e-001
5.4811966e-001
5.9101641e-001
6.2823761e-001
6.5436298e-001
6.6493660e-001
6.5364563e-001
6.1909616e-001
5.7725853e-001
5.3259724e-001
4.9809331e-001
4.7224662e-001
4.5268628e-001
4.3641582e-001
4.2405245e-001
4.1358480e-001
3.9194304e-001
3.6529601e-001
3.1457898e-001
2.5561044e-001
2.0899987e-001
1.6817793e-001
1.6841529e-001
1.7999469e-001
1.9867079e-001
2.1289235e-001
2.0137356e-001
1.8157429e-001
1.5719719e-001
1.3901554e-001
1.3604699e-001
1.3790821e-001
1.4000943e-001
1.2887503e-001
9.9290520e-002
5.2610509e-002
-7.8905700e-003
-5.8018543e-002
-9.5356345e-002
-9.7306721e-002
-7.3856637e-002
-4.3441296e-002
-1.1624644e-002
-2.2459205e-002
-5.6369130e-002
-1.1908448e-001
-1.9326594e-001
-2.6014429e-001
-3.2366472e-001
-3.6758658e-001
-4.0320000e-001
-4.1308987e-001
-4.1401750e-001
-4.1183949e-001
-4.1088563e-001
-4.2304480e-001
-4.3874645e-001
-4.5437285e-001
-4.6898276e-001
-4.7971481e-001
-4.8456082e-001
-4.7986406e-001
-4.5518586e-001
-4.0671772e-001
-3.4377608e-001
-2.7293128e-001
-2.2584711e-001
-2.0378429e-001
-2.0672596e-001
-2.2436714e-001
-2.5496337e-001
-2.9154825e-001
-3.5326687e-001
-4.2855161e-001
-4.8701867e-001
-5.3742754e-001
-5.1592445e-001
-4.6412143e-001
-3.8043612e-001
-2.9133680e-001
-2.5201830e-001
-2.4611875e-001
-3.0476043e-001
-3.8655159e-001
-4.6623194e-001
-5.2683628e-001
-5.4336262e-001
-5.2746701e-001
-4.7685629e-001
-4.0268078e-001
-3.0845633e-001
-2.2209217e-001
-1.5702708e-001
-1.3732143e-001
-1.6235600e-001
-2.1514723e-001
-2.8114474e-001
-3.5487914e-001
-4.3075466e-001
-4.8740470e-001
-5.2948958e-001
-5.3178841e-001
-5.1042682e-001
-5.0460434e-001
-5.0768173e-001
-5.4577899e-001
-5.9791154e-001
-6.1868602e-001
-6.1738008e-001
-5.6664681e-001
-4.9154711e-001
-4.1131189e-001
-3.4431463e-001
-3.2626587e-001
-3.4547544e-001
-4.0047222e-001
-4.6565124e-001
-5.2046859e-001
-5.6029755e-001
-5.8219910e-001
-5.9243298e-001
-5.9671420e-001
-5.8191252e-001
-5.4933316e-001
-5.0619376e-001
-4.5615828e-001
-4.1352642e-001
-3.7757716e-001
-3.4121016e-001
-3.0573678e-001
-2.8060713e-001
-2.6441807e-001
-2.5010663e-001
-2.3652183e-001
-2.0418438e-001
-1.5851390e-001
-8.6591758e-002
1.8967427e-003
1.0210007e-001
1.9176948e-001
2.2075599e-001
2.0457759e-001
1.4518686e-001
8.2529455e-002
5.7739582e-002
2.0920079e-002
-5.9004515e-002
-1.2417352e-001
-1.4461142e-001
-9.4949961e-002
2.3506541e-002
1.3474175e-001
2.1397571e-001
1.9189125e-001
7.7410243e-002
-2.3993496e-002
-9.6642315e-002
-4.8792183e-002
9.0943985e-002
1.8812659e-001
2.4238956e-001
1.5453938e-001
-2.1823406e-002
-1.2973201e-001
-1.5613310e-001
1.5365258e-002
3.5349566e-001
8.9920372e-001
1.5495158e+000
2.1318326e+000
2.6766670e+000
3.2271099e+000
3.9526536e+000
5.0128441e+000
6.6435857e+000
8.9536982e+000
1.2066155e+001
1.5914143e+001
1.9780441e+001
2.3346060e+001
2.6543324e+001
2.9436708e+001
3.2888412e+001
3.6979004e+001
4.1889084e+001
4.7441719e+001
5.2273586e+001
5.6424084e+001
6.0319923e+001
6.4100914e+001
6.8511467e+001
7.3385109e+001
7.8182404e+001
8.2801285e+001
8.6894691e+001
9.0478539e+001
9.3551773e+001
9.6094940e+001
9.8088226e+001
9.9383804e+001
9.9842926e+001
9.9287849e+001
9.7639648e+001
9.5363464e+001
9.2900406e+001
9.0186272e+001
8.7225029e+001
8.3567245e+001
7.9109116e+001
7.4457520e+001
6.9845520e+001
6.5552208e+001
6.1600864e+001
5.7562519e+001
5.3384109e+001
4.9236443e+001
4.5143337e+001
4.1313541e+001
3.7773102e+001
3.4690628e+001
3.2072029e+001
2.9866867e+001
2.8048414e+001
2.6463404e+001
2.5127600e+001
2.4030313e+001
2.3187429e+001
2.2584499e+001
2.2206924e+001
2.2001326e+001
2.1935574e+001
2.1959129e+001
2.2070364e+001
2.2259605e+001
2.2543011e+001
2.2923758e+001
2.3462872e+001
2.4177599e+001
2.5073658e+001
2.6142109e+001
2.7268051e+001
2.8422359e+001
2.9550428e+001
3.0649811e+001
3.1950989e+001
3.3562927e+001
3.6190403e+001
3.9899830e+001
4.3980751e+001
4.8179199e+001
5.1383923e+001
5.3651669e+001
5.5621571e+001
5.7336987e+001
5.8978363e+001
6.0271400e+001
6.0809723e+001
6.0512745e+001
5.9419300e+001
5.7885490e+001
5.6347958e+001
5.4835274e+001
5.3367851e+001
5.1777130e+001
4.9953110e+001
4.7791714e+001
4.5215759e+001
4.2657059e+001
4.0258194e+001
3.8011238e+001
3.5947929e+001
3.3392899e+001
3.0180693e+001
2.6901062e+001
2.3607229e+001
2.0844917e+001
1.8676340e+001
1.6556429e+001
1.4470874e+001
1.2318043e+001
1.0101158e+001
7.8647962e+000
5.6920080e+000
3.7426281e+000
2.1280360e+000
9.6339929e-001
2.6847780e-001
5.6694388e-002
4.0795809e-001
1.2491438e+000
2.2570801e+000
3.2314522e+000
4.0486555e+000
4.6174932e+000
5.1243858e+000
5.6427422e+000
6.1939249e+000
6.7911201e+000
7.2345386e+000
7.4198980e+000
7.4214444e+000
7.1648026e+000
6.8781748e+000
6.5573564e+000
6.2656350e+000
6.0080285e+000
5.7377939e+000
5.4260230e+000
4.9894824e+000
4.4221549e+000
3.8030779e+000
3.1866641e+000
2.7107651e+000
2.4060006e+000
2.2904260e+000
2.3384225e+000
2.4970288e+000
2.7060313e+000
2.9005430e+000
3.0836644e+000
3.2652793e+000
3.4800885e+000
3.7652345e+000
4.1058483e+000
4.5171623e+000
4.9518843e+000
5.4079657e+000
5.8329573e+000
6.1909404e+000
6.4588037e+000
6.5620227e+000
6.5572658e+000
6.3796601e+000
6.1038895e+000
5.6952453e+000
5.2429266e+000
4.7454524e+000
4.2530489e+000
3.7761478e+000
3.3225579e+000
2.9003227e+000
2.5164599e+000
2.1524129e+000
1.7779717e+000
1.3886287e+000
9.7272044e-001
5.8141547e-001
2.8031045e-001
7.2520770e-002
1.2809406e-002
2.9275864e-002
1.2166682e-001
2.4388500e-001
4.2177439e-001
6.3284475e-001
9.0405285e-001
1.1726598e+000
1.4254857e+000
1.6318980e+000
1.7479718e+000
1.8565320e+000
1.9609371e+000
2.1091306e+000
2.3321679e+000
2.6167605e+000
2.9829509e+000
3.3871107e+000
3.8170700e+000
4.2065229e+000
4.5321140e+000
4.7611833e+000
4.9005671e+000
4.9689269e+000
4.9902620e+000
4.9873619e+000
4.9698987e+000
4.9380064e+000
4.8961000e+000
4.8367186e+000
4.7740211e+000
4.7117515e+000
4.6547403e+000
4.6108608e+000
4.5727172e+000
4.5461969e+000
4.5258527e+000
4.5199633e+000
4.5257630e+000
4.5562391e+000
4.5997839e+000
4.6667409e+000
4.7433686e+000
4.8337655e+000
4.9319100e+000
5.0372715e+000
5.1413541e+000
5.2423749e+000
5.3365602e+000
5.4265857e+000
5.5211673e+000
5.6214881e+000
5.7328176e+000
5.8468251e+000
5.9499578e+000
6.0348835e+000
6.0712023e+000
6.0736208e+000
6.0092244e+000
5.9073257e+000
5.7240682e+000
5.4972334e+000
5.1558084e+000
4.7812538e+000
4.3210363e+000
3.8564532e+000
3.3834534e+000
2.9250550e+000
2.4975770e+000
2.0917027e+000
1.7246132e+000
1.3816004e+000
1.0751210e+000
7.9453212e-001
5.4842722e-001
3.3446944e-001
1.5463573e-001
3.8304925e-004
-1.3376930e-001
-2.6049119e-001
-3.7598556e-001
-4.6195680e-001
-5.1698065e-001
-4.9766648e-001
-4.3646440e-001
-3.0306208e-001
-1.3458227e-001
1.1072348e-001
3.8709199e-001
7.4695873e-001
1.1055020e+000
1.4372503e+000
1.7227629e+000
1.8636343e+000
1.9522320e+000
1.9126350e+000
1.8480480e+000
1.7346481e+000
1.6154357e+000
1.4847420e+000
1.3394115e+000
1.1717087e+000
9.8109901e-001
7.6679283e-001
5.5154741e-001
3.4267944e-001
1.7335135e-001
4.2086672e-002
-2.5003172e-002
-4.7472253e-002
7.8295618e-003
1.0188633e-001
2.4354257e-001
4.0030971e-001
5.6859016e-001
7.3375434e-001
8.7162280e-001
9.9614853e-001
1.0628300e+000
1.1256726e+000
1.1778177e+000
1.2426430e+000
1.3467032e+000
1.4498500e+000
1.5471102e+000
1.6137213e+000
1.6188911e+000
1.5995190e+000
1.5442142e+000
1.4987055e+000
1.4682699e+000
1.4625943e+000
1.4828999e+000
1.5198314e+000
1.5689040e+000
1.6147590e+000
1.6515280e+000
1.6368990e+000
1.5895071e+000
1.4728508e+000
1.3323063e+000
1.1835452e+000
1.0360613e+000
9.1180247e-001
7.9047799e-001
6.6885424e-001
5.4976493e-001
4.4737488e-001
3.5441345e-001
3.0289495e-001
2.5825164e-001
2.3548360e-001
2.1349469e-001
1.9308607e-001
1.7033294e-001
1.4220369e-001
1.0524741e-001
5.5762328e-002
8.7829996e-003
-3.3406004e-002
-5.6529373e-002
-6.4175755e-002
-8.6896829e-002
-1.2376586e-001
-2.0113035e-001
-2.9830119e-001
-3.8134176e-001
-4.5552000e-001
-4.9192342e-001
-5.2033949e-001
-5.7258737e-001
-6.3191730e-001
-7.2619402e-001
-8.2234848e-001
-9.0663606e-001
-9.8885959e-001
-1.0576401e+000
-1.1228282e+000
-1.1716143e+000
-1.2044940e+000
-1.1874824e+000
-1.1504607e+000
-1.0683894e+000
-9.9130839e-001
-9.2419052e-001
-8.8256168e-001
-8.7537539e-001
-8.8077062e-001
-8.9901429e-001
-9.1414869e-001
-9.2560303e-001
-9.1458911e-001
-8.8744754e-001
-8.1546050e-001
-7.2246659e-001
-6.1485261e-001
-5.0345087e-001
-4.0905887e-001
-3.1819355e-001
-2.2295865e-001
-1.2865745e-001
-6.8544358e-002
-1.3084753e-002
-4.3121893e-003
8.4997714e-004
2.7355470e-002
1.0942712e-001
3.1906509e-001
5.4097998e-001
7.9833829e-001
1.0339805e+000
1.2224190e+000
1.3654183e+000
1.4355278e+000
1.4780860e+000
1.4873708e+000
1.4965577e+000
1.5052103e+000
1.4801000e+000
1.4304513e+000
1.3253675e+000
1.1916471e+000
1.0765785e+000
9.6993172e-001
9.6193475e-001
9.8064017e-001
1.0925635e+000
1.2196376e+000
1.3857000e+000
