##TITLE=Methyl Ethyl Ketone
##JCAMP-DX=4.24
##DATA TYPE=INFRARED SPECTRUM
##XUNITS=cm-1
##YUNITS=Absorbance
##FIRSTX=900
##LASTX=2300
##XYDATA=(X++(Y..Y))
2296 -0.015636001
2294 -0.015961533
2292 -0.016287068
2290 -0.016611606
2288 -0.016937137
2286 -0.017262671
2284 -0.017588206
2282 -0.017912749
2280 -0.018238274
2278 -0.018563809
2276 -0.018889343
2274 -0.019213893
2272 -0.019539412
2270 -0.019864947
2268 -0.020190481
2266 -0.020515036
2264 -0.02084055
2262 -0.021166084
2260 -0.021491617
2258 -0.021816179
2256 -0.022141686
2254 -0.022467218
2252 -0.022792753
2250 -0.023117321
2248 -0.023442822
2246 -0.023768356
2244 -0.00088325713
2242 0.019442009
2240 0.01237016
2238 -0.010691439
2236 -0.035917472
2234 -0.048285209
2232 -0.05928224
2230 -0.06039764
2228 -0.060748629
2226 -0.058595199
2224 -0.055197045
2222 -0.04656291
2220 -0.039346166
2218 -0.037232846
2216 -0.04737043
2214 -0.083653256
2212 -0.13374433
2210 -0.20386092
2208 -0.26346648
2206 -0.30841628
2204 -0.33231813
2202 -0.33685976
2200 -0.3386355
2198 -0.3392894
2196 -0.35189357
2194 -0.37140286
2192 -0.40827784
2190 -0.45253724
2188 -0.47775555
2186 -0.49662641
2184 -0.4713816
2182 -0.43609247
2180 -0.41777116
2178 -0.4025344
2176 -0.42664057
2174 -0.4540962
2172 -0.47847366
2170 -0.50194949
2168 -0.52181345
2166 -0.54225993
2164 -0.5660249
2162 -0.59034646
2160 -0.61527848
2158 -0.64423007
2156 -0.68071795
2154 -0.71605277
2152 -0.7485708
2150 -0.76243258
2148 -0.75559354
2146 -0.73394352
2144 -0.70112467
2142 -0.68152571
2140 -0.67190939
2138 -0.68937594
2136 -0.72104597
2134 -0.75496644
2132 -0.78931558
2130 -0.7990793
2128 -0.80101156
2126 -0.7887997
2124 -0.7733978
2122 -0.75920248
2120 -0.74523753
2118 -0.73181862
2116 -0.71729255
2114 -0.69418067
2112 -0.67078966
2110 -0.6518873
2108 -0.64564222
2106 -0.6756025
2104 -0.7223435
2102 -0.79420292
2100 -0.86054701
2098 -0.91134083
2096 -0.94161004
2094 -0.94792312
2092 -0.94645053
2090 -0.94050968
2088 -0.9355979
2086 -0.93224102
2084 -0.9287321
2082 -0.9250471
2080 -0.92692411
2078 -0.93163365
2076 -0.93565655
2074 -0.9392134
2072 -0.92947996
2070 -0.91540265
2068 -0.89343899
2066 -0.86976343
2064 -0.86418307
2062 -0.86337525
2060 -0.87807941
2058 -0.89421058
2056 -0.90144885
2054 -0.90860188
2052 -0.92091501
2050 -0.94159687
2048 -0.98028398
2046 -1.0246768
2044 -1.0727979
2042 -1.1169622
2040 -1.1548709
2038 -1.181585
2036 -1.1973372
2034 -1.1979492
2032 -1.1857343
2030 -1.163155
2028 -1.1335959
2026 -1.10058
2024 -1.0657388
2022 -1.0317956
2020 -0.99825609
2018 -0.98362571
2016 -0.97733599
2014 -1.0032037
2012 -1.0402914
2010 -1.0878652
2008 -1.13702
2006 -1.1654149
2004 -1.1857911
2002 -1.185318
2000 -1.1798418
1998 -1.1728752
1996 -1.1694928
1994 -1.1762938
1992 -1.1840149
1990 -1.1911482
1988 -1.1848221
1986 -1.1588535
1984 -1.1275423
1982 -1.0951341
1980 -1.0798248
1978 -1.0826008
1976 -1.0863372
1974 -1.0863841
1972 -1.0586083
1970 -1.0093039
1968 -0.94725704
1966 -0.87975699
1964 -0.84615821
1962 -0.83185172
1960 -0.85509998
1958 -0.89405733
1956 -0.9300977
1954 -0.96448636
1952 -0.98028708
1950 -0.99081582
1948 -0.99547881
1946 -0.99670249
1944 -0.99167246
1942 -0.97918355
1940 -0.95790637
1938 -0.93687779
1936 -0.92609656
1934 -0.9253363
1932 -0.9347558
1930 -0.95388055
1928 -0.97994888
1926 -1.0131787
1924 -1.05077
1922 -1.0711135
1920 -1.0737028
1918 -1.0532249
1916 -1.0197171
1914 -0.99042535
1912 -0.96616364
1910 -0.95069468
1908 -0.93913674
1906 -0.92907542
1904 -0.92013317
1902 -0.90383875
1900 -0.88516438
1898 -0.86070877
1896 -0.83502001
1894 -0.81429136
1892 -0.79696202
1890 -0.79501551
1888 -0.80344576
1886 -0.83723313
1884 -0.88219172
1882 -0.9337641
1880 -0.98093063
1878 -1.009321
1876 -1.02476
1874 -1.0220335
1872 -1.0072788
1870 -0.97965622
1868 -0.9466092
1866 -0.9194535
1864 -0.91294563
1862 -0.93333793
1860 -0.96615213
1858 -1.0010999
1856 -1.0280086
1854 -1.0452222
1852 -1.0704223
1850 -1.0991482
1848 -1.137
1846 -1.1763179
1844 -1.1880937
1842 -1.1818186
1840 -1.1475457
1838 -1.1028616
1836 -1.0605015
1834 -1.021608
1832 -0.97500926
1830 -0.91919893
1828 -0.84892946
1826 -0.77561784
1824 -0.7260462
1822 -0.70261312
1820 -0.71285558
1818 -0.7388922
1816 -0.76157969
1814 -0.77752668
1812 -0.78188014
1810 -0.77700251
1808 -0.76758534
1806 -0.74703848
1804 -0.71705359
1802 -0.70178539
1800 -0.69909114
1798 -0.71632749
1796 -0.74628574
1794 -0.73029572
1792 -0.6842888
1790 -0.59391463
1788 -0.48304769
1786 -0.39571148
1784 -0.32714045
1782 -0.28072372
1780 -0.25092924
1778 -0.2355022
1776 -0.22652428
1774 -0.21099579
1772 -0.17793554
1770 -0.11898291
1768 -0.048877213
1766 0.0077376999
1764 0.044085503
1762 0.063148655
1760 0.026064532
1758 -0.085590437
1756 -0.20981257
1754 -0.31004611
1752 -0.36913794
1750 -0.38354969
1748 -0.38200501
1746 -0.38131392
1744 -0.41920954
1742 -0.50164968
1740 -0.58845007
1738 -0.66848147
1736 -0.65562004
1734 -0.56671739
1732 -0.416648
1730 -0.23510845
1728 -0.14592668
1726 -0.12714851
1724 -0.12383526
1722 -0.1124486
1720 0.019155428
1718 0.28089625
1716 0.73774016
1714 1.3126321
1712 1.8756789
1710 2.4201622
1708 2.953974
1706 3.6212165
1704 4.5671024
1702 6.0527954
1700 8.2075443
1698 11.255105
1696 15.16
1694 19.174028
1692 22.946852
1690 26.298172
1688 29.274178
1686 32.744694
1684 36.80843
1682 41.792229
1680 47.513962
1678 52.644661
1676 57.193615
1674 61.491322
1672 65.67263
1670 70.470451
1668 75.73423
1666 80.986397
1664 86.144615
1662 90.954651
1660 95.359016
1658 99.209076
1656 102.34085
1654 104.50711
1652 105.5308
1650 105.27451
1648 103.84017
1646 101.41107
1644 98.497215
1642 95.558281
1640 92.363831
1638 88.833092
1636 84.614098
1634 79.642548
1632 74.647278
1630 69.875084
1628 65.433754
1626 61.307571
1624 57.07896
1622 52.698879
1620 48.459095
1618 44.381687
1616 40.627342
1614 37.212723
1612 34.245846
1610 31.729521
1608 29.613045
1606 27.875507
1604 26.381975
1602 25.150063
1600 24.170177
1598 23.450602
1596 22.963501
1594 22.691782
1592 22.580074
1590 22.598228
1588 22.696728
1586 22.857656
1584 23.06357
1582 23.311279
1580 23.599991
1578 23.994238
1576 24.515514
1574 25.220455
1572 26.11116
1570 27.126757
1568 28.2484
1566 29.384443
1564 30.527374
1562 31.803843
1560 33.304691
1558 35.684299
1556 39.038143
1554 42.904919
1552 47.052921
1550 50.371643
1548 52.844921
1546 54.872429
1544 56.435478
1542 57.647659
1540 58.394501
1538 58.545986
1536 58.123032
1534 57.255779
1532 56.052975
1530 54.704922
1528 53.190044
1526 51.498501
1524 49.562599
1522 47.328629
1520 44.886696
1518 42.243652
1516 39.736599
1514 37.492588
1512 35.35968
1510 33.344666
1508 30.89271
1506 27.866093
1504 24.840378
1502 21.867849
1500 19.362595
1498 17.36957
1496 15.372714
1494 13.360056
1492 11.282249
1490 9.1635761
1488 7.0869737
1486 5.1292253
1484 3.4148481
1482 2.0124609
1480 0.98099518
1478 0.32842168
1476 0.059654243
1474 0.28477186
1472 0.96576041
1470 1.853961
1468 2.8006394
1466 3.6287627
1464 4.2307782
1462 4.7215466
1460 5.1337419
1458 5.5339198
1456 5.9320998
1454 6.2837591
1452 6.5460067
1450 6.7021642
1448 6.6974607
1446 6.6279502
1444 6.470614
1442 6.2852659
1440 6.0597348
1438 5.7790108
1436 5.4189129
1434 4.9452529
1432 4.3637691
1430 3.7639885
1428 3.176904
1426 2.6921093
1424 2.3242087
1422 2.0794449
1420 1.9732811
1418 2.0057824
1416 2.1588657
1414 2.4185841
1412 2.71682
1410 3.025665
1408 3.3334651
1406 3.6390207
1404 3.9612157
1402 4.3067098
1400 4.666944
1398 5.0430045
1396 5.4151926
1394 5.7704372
1392 6.0859427
1390 6.3109651
1388 6.4308729
1386 6.3749151
1384 6.1907659
1382 5.8299828
1380 5.3960547
1378 4.8815436
1376 4.3538828
1374 3.8360732
1372 3.366986
1370 2.9544971
1368 2.5948462
1366 2.2448649
1364 1.8373823
1362 1.3872596
1360 0.90533471
1358 0.46879482
1356 0.17880188
1354 0.003518749
1352 -0.015931349
1350 0.038998596
1348 0.16673529
1346 0.3200582
1344 0.4944368
1342 0.67507732
1340 0.86747181
1338 1.0702523
1336 1.2893858
1334 1.5194639
1332 1.749904
1330 1.976138
1328 2.1946058
1326 2.4174922
1324 2.6602516
1322 2.9303808
1320 3.2426834
1318 3.5738919
1316 3.9167399
1314 4.2279987
1312 4.4926405
1310 4.7016659
1308 4.856492
1306 4.9753637
1304 5.0616784
1302 5.1125202
1300 5.1357198
1298 5.1181588
1296 5.0826716
1294 5.0288672
1292 4.973772
1290 4.9241352
1288 4.8822203
1286 4.857121
1284 4.842762
1282 4.8510747
1280 4.8661637
1278 4.8950033
1276 4.9229527
1274 4.9524002
1272 4.9850159
1270 5.0279846
1268 5.0861006
1266 5.1643472
1264 5.2502089
1262 5.3410797
1260 5.4272161
1258 5.5090871
1256 5.5923772
1254 5.6802392
1252 5.7816205
1250 5.8928823
1248 6.0102487
1246 6.1218252
1244 6.2003045
1242 6.2499814
1240 6.2426996
1238 6.2061949
1236 6.1257858
1234 6.0239239
1232 5.8799119
1230 5.7083783
1228 5.4611282
1226 5.1710415
1224 4.762589
1222 4.3138351
1220 3.7711177
1218 3.2252102
1216 2.678623
1214 2.1676726
1212 1.7227446
1210 1.3291585
1208 1.0121396
1206 0.74271929
1204 0.53067702
1202 0.3494494
1200 0.20009416
1198 0.071284823
1196 -0.038609356
1194 -0.13134843
1192 -0.21100394
1190 -0.2766124
1188 -0.33161253
1186 -0.3685742
1184 -0.38883772
1182 -0.36497599
1180 -0.30626565
1178 -0.14537708
1176 0.056679845
1174 0.36954102
1172 0.68859351
1170 1.0039797
1168 1.2866515
1166 1.46636
1164 1.6119897
1162 1.672754
1160 1.70786
1158 1.6890329
1156 1.63762
1154 1.5305533
1152 1.3926343
1150 1.2122223
1148 1.0104674
1146 0.78658181
1144 0.56186926
1142 0.34443903
1140 0.17173675
1138 0.040642694
1136 -0.026009802
1134 -0.047007751
1132 0.025425047
1130 0.14756665
1128 0.34373045
1126 0.55873364
1124 0.76739961
1122 0.95994163
1120 1.072944
1118 1.1655313
1116 1.1880686
1114 1.2070793
1112 1.2173371
1110 1.2371205
1108 1.2865531
1106 1.338835
1104 1.3953035
1102 1.4317352
1100 1.4280871
1098 1.4098853
1096 1.3727857
1094 1.3591931
1092 1.378592
1090 1.4314648
1088 1.5137612
1086 1.5784029
1084 1.620556
1082 1.5964433
1080 1.5271801
1078 1.4123111
1076 1.2784257
1074 1.1531996
1072 1.034161
1070 0.94007599
1068 0.85182947
1066 0.76768672
1064 0.68664837
1062 0.62510568
1060 0.5728513
1058 0.57407415
1056 0.58007854
1054 0.60618603
1052 0.62320751
1050 0.61079258
1048 0.58582205
1046 0.53016788
1044 0.46729171
1042 0.39014441
1040 0.30724651
1038 0.21503569
1036 0.11454561
1034 0.0038137659
1032 -0.1184184
1030 -0.24956357
1028 -0.37230051
1026 -0.4861798
1024 -0.56977445
1022 -0.63727212
1020 -0.6997025
1018 -0.76153684
1016 -0.83572227
1014 -0.91216612
1012 -0.97697592
1010 -1.0374663
1008 -1.0724241
1006 -1.1040457
1004 -1.1223886
1002 -1.1400601
1000 -1.1539137
998 -1.1653728
996 -1.1662143
994 -1.164421
992 -1.1545771
990 -1.1422116
988 -1.1237088
986 -1.091845
984 -1.035309
982 -0.9573127
980 -0.85095024
978 -0.75119871
976 -0.66079652
974 -0.61128062
972 -0.59511834
970 -0.59430128
968 -0.60143805
966 -0.58948702
964 -0.56866175
962 -0.54397744
960 -0.51766151
958 -0.47803491
956 -0.43413115
954 -0.35381934
952 -0.269472
950 -0.19164377
948 -0.11402991
946 -0.03671325
944 0.0021281838
942 0.066789567
940 0.21318281
938 0.45231128
936 0.68405944
934 0.89337718
932 1.0624497
930 1.1450585
928 1.191344
926 1.1798943
924 1.156024
922 1.1171235
920 1.0698537
918 1.0145613
916 0.94844389
914 0.8746587
912 0.80390555
910 0.73580283
908 0.71127206
906 0.70500576
904 0.76603514
902 0.84533238
900 0.86916351
898 0.88418615
896 0.77664
