##TITLE=Methyl Ethyl Ketone
##JCAMP-DX=4.24
##DATA TYPE=INFRARED SPECTRUM
##XUNITS=cm-1
##YUNITS=Absorbance
##FIRSTX=900
##LASTX=2300
##XYDATA=(X++(Y..Y))
2296 0.071709998
2294 0.073201872
2292 0.074693732
2290 0.076184601
2288 0.07767646
2286 0.079168327
2284 0.080660194
2282 0.082152061
2280 0.083643921
2278 0.085135795
2276 0.086627655
2274 0.088119522
2272 0.089611381
2270 0.091103256
2268 0.092595123
2266 0.094086982
2264 0.095578857
2262 0.097070716
2260 0.098562583
2258 0.10004959
2256 0.10154714
2254 0.10303529
2252 0.10453286
2250 0.10602104
2248 0.10750891
2246 0.10900643
2244 0.096807644
2242 0.0037157787
2240 -0.1053504
2238 -0.27752835
2236 -0.45894173
2234 -0.55590814
2232 -0.6392839
2230 -0.55472159
2228 -0.45542598
2226 -0.30276951
2224 -0.16319548
2222 -0.095748253
2220 -0.052698936
2218 -0.072182067
2216 -0.1103732
2214 -0.18173909
2212 -0.2608358
2210 -0.34934935
2208 -0.39878201
2206 -0.39878252
2204 -0.36981335
2202 -0.31596044
2200 -0.31181085
2198 -0.34602261
2196 -0.39209428
2194 -0.44353089
2192 -0.4112812
2190 -0.34218344
2188 -0.23991537
2186 -0.1276525
2184 -0.092496641
2182 -0.07521724
2180 -0.1266439
2178 -0.18812935
2176 -0.24487914
2174 -0.29722419
2172 -0.3048315
2170 -0.2964941
2168 -0.22107354
2166 -0.12960486
2164 -0.0033967504
2162 0.11106112
2160 0.18656971
2158 0.22538649
2156 0.202131
2154 0.16106057
2152 0.10347779
2150 0.067423478
2148 0.05756611
2146 0.068161212
2144 0.094412573
2142 0.11533834
2140 0.13143837
2138 0.11980189
2136 0.093330115
2134 0.037155561
2132 -0.0309228
2130 -0.046733513
2128 -0.045526762
2126 0.059604868
2124 0.18861014
2122 0.31937733
2120 0.44653693
2118 0.50456041
2116 0.55275387
2114 0.60138124
2112 0.65959108
2110 0.75992948
2108 0.85934687
2106 0.93735683
2104 0.98442578
2102 0.97018427
2100 0.9428786
2098 0.90885854
2096 0.90329999
2094 0.93628192
2092 0.97482687
2090 1.0133277
2088 1.0062286
2086 0.96147448
2084 0.90392131
2082 0.84133202
2080 0.792485
2078 0.7512055
2076 0.66296744
2074 0.55484676
2072 0.43866679
2070 0.32056639
2068 0.30397817
2066 0.31306112
2064 0.36294669
2062 0.41742766
2060 0.43863705
2058 0.4509953
2056 0.4507663
2054 0.43911704
2052 0.39537871
2050 0.33652341
2048 0.25500846
2046 0.19014572
2044 0.16629741
2042 0.17263074
2040 0.21265079
2038 0.24068636
2036 0.24659829
2034 0.24331465
2032 0.23506354
2030 0.25316882
2028 0.29269367
2026 0.33882114
2024 0.38690683
2022 0.45681033
2020 0.53792626
2018 0.60116965
2016 0.65627199
2014 0.58961469
2012 0.48219892
2010 0.39401057
2008 0.31859496
2006 0.3566407
2004 0.42043167
2002 0.46150652
2000 0.48865217
1998 0.48043263
1996 0.47191644
1994 0.48941287
1992 0.51351166
1990 0.53795969
1988 0.5484156
1986 0.53430969
1984 0.50899267
1982 0.47616029
1980 0.45262781
1978 0.44153026
1976 0.44505855
1974 0.4596214
1972 0.46186832
1970 0.45296445
1968 0.38830292
1966 0.2895315
1964 0.17727008
1962 0.060771435
1960 0.04965492
1958 0.084929466
1956 0.19222301
1954 0.32214782
1952 0.38556176
1950 0.41877201
1948 0.36978507
1946 0.29547
1944 0.22533846
1942 0.16711141
1940 0.14685686
1938 0.13209158
1936 0.10124183
1934 0.064179063
1932 0.024252899
1930 -0.014873027
1928 -0.051429428
1926 -0.11456873
1924 -0.21338315
1922 -0.32025328
1920 -0.4257175
1918 -0.4582313
1916 -0.42514187
1914 -0.30129707
1912 -0.11936837
1910 0.066892087
1908 0.24875796
1906 0.32379943
1904 0.34068239
1902 0.26160568
1900 0.14088115
1898 0.063892543
1896 0.011079642
1894 0.040213205
1892 0.095837966
1890 0.11487971
1888 0.10175698
1886 0.010914123
1884 -0.10461555
1882 -0.20704731
1880 -0.28860292
1878 -0.33258024
1876 -0.3874
1874 -0.48637852
1872 -0.62067211
1870 -0.78621089
1868 -0.86963785
1866 -0.83816379
1864 -0.67550778
1862 -0.40916222
1860 -0.14840852
1858 0.083152048
1856 0.16547914
1854 0.13750318
1852 -0.11177492
1850 -0.49531233
1848 -0.97346878
1846 -1.4954715
1844 -1.7219509
1842 -1.7834587
1840 -1.5014611
1838 -1.0656972
1836 -0.68650961
1834 -0.3569752
1832 -0.1504209
1830 -0.010175131
1828 0.089455336
1826 0.15909892
1824 0.19528115
1822 0.20584626
1820 0.1912826
1818 0.15733865
1816 0.10672218
1814 0.045209568
1812 -0.023291806
1810 -0.061805896
1808 -0.060747024
1806 -0.039682899
1804 -0.010143776
1802 -0.13428321
1800 -0.40115148
1798 -0.80035597
1796 -1.280375
1794 -1.4810253
1792 -1.4732161
1790 -1.1303284
1788 -0.59222102
1786 -0.15916955
1784 0.18894857
1782 0.29898989
1780 0.25548741
1778 0.06785772
1776 -0.18378392
1774 -0.38076782
1772 -0.47544226
1770 -0.33684641
1768 -0.09620057
1766 0.11718632
1764 0.2298508
1762 0.16726777
1760 0.043986458
1758 -0.27128989
1756 -0.64980501
1754 -0.94156921
1752 -1.199976
1750 -1.454862
1748 -1.7015786
1746 -1.9406357
1744 -2.1149447
1742 -2.2293975
1740 -2.2825203
1738 -2.2940876
1736 -2.20716
1734 -2.0493948
1732 -1.7351677
1730 -1.317917
1728 -0.93799907
1726 -0.59722316
1724 -0.36550218
1722 -0.19416009
1720 0.077432334
1718 0.5360499
1716 1.274191
1714 2.1297359
1712 2.9301238
1710 3.6366405
1708 4.1964402
1706 4.7891006
1704 5.5817518
1702 6.9025345
1700 8.9345236
1698 12.085176
1696 16.411858
1694 21.064301
1692 25.602825
1690 29.592415
1688 33.006413
1686 36.697865
1684 40.811874
1682 45.608536
1680 50.962799
1678 55.601368
1676 59.575256
1674 63.418823
1672 67.25827
1670 71.92659
1668 77.225739
1666 82.570198
1664 87.823624
1662 92.543472
1660 96.704857
1658 100.2082
1656 103.01514
1654 105.07253
1652 106.3168
1650 106.72384
1648 106.20509
1646 104.78429
1644 102.68511
1642 100.16928
1640 97.173508
1638 93.72258
1636 89.614243
1634 84.854057
1632 80.05481
1630 75.429955
1628 70.955406
1626 66.602997
1624 61.930161
1622 56.913139
1620 52.071148
1618 47.448166
1616 43.316143
1614 39.683483
1612 36.559143
1610 33.938992
1608 31.71356
1606 29.861185
1604 28.246748
1602 26.892557
1600 25.802383
1598 24.972433
1596 24.355499
1594 23.940987
1592 23.68499
1590 23.59206
1588 23.644808
1586 23.823792
1584 24.10029
1582 24.42564
1580 24.765068
1578 25.167034
1576 25.650772
1574 26.297943
1572 27.128637
1570 28.127754
1568 29.28788
1566 30.482508
1564 31.694729
1562 32.897053
1560 34.146633
1558 36.051407
1556 38.694714
1554 41.865082
1552 45.35844
1550 48.11208
1548 50.047493
1546 51.321251
1544 51.905422
1542 51.978416
1540 51.58128
1538 50.90284
1536 50.00626
1534 49.012413
1532 47.893223
1530 46.633514
1528 45.188873
1526 43.531998
1524 41.641075
1522 39.50079
1520 37.369198
1518 35.366093
1516 33.59087
1514 32.098488
1512 30.436159
1510 28.485382
1508 26.016922
1506 22.919336
1504 20.01185
1502 17.395945
1500 15.234965
1498 13.5676
1496 11.86
1494 10.116515
1492 8.3897686
1490 6.7221456
1488 5.1999822
1486 3.8571687
1484 2.6899621
1482 1.7300956
1480 0.97527528
1478 0.44219923
1476 0.12213314
1474 0.11914645
1472 0.50029886
1470 1.0438054
1468 1.6437002
1466 2.1378284
1464 2.4081624
1462 2.5466223
1460 2.5641842
1458 2.6661546
1456 2.94102
1454 3.4108899
1452 4.148633
1450 4.7749572
1448 5.2062588
1446 5.4591355
1444 5.4599924
1442 5.3535228
1440 5.0990801
1438 4.7465596
1436 4.28297
1434 3.7925932
1432 3.3089612
1430 2.9296601
1428 2.6567521
1426 2.4431992
1424 2.2879241
1422 2.1744492
1420 2.1585
1418 2.3149161
1416 2.63728
1414 3.1359808
1412 3.6792274
1410 4.1655269
1408 4.5660434
1406 4.8311524
1404 5.0376492
1402 5.1915407
1400 5.3233123
1398 5.4287839
1396 5.5011573
1394 5.5163245
1392 5.5140715
1390 5.4818559
1388 5.4313807
1386 5.3496051
1384 5.2378883
1382 5.0687108
1380 4.8100381
1378 4.425375
1376 3.9364202
1374 3.3700206
1372 2.8774819
1370 2.4886019
1368 2.2298903
1366 2.0360856
1364 1.7720762
1362 1.4405838
1360 1.0386429
1358 0.6439454
1356 0.34871674
1354 0.13859922
1352 0.043294083
1350 0.0080666337
1348 0.04033507
1346 0.077931389
1344 0.09032812
1342 0.075199187
1340 0.0074574314
1338 -0.027829744
1336 0.010149281
1334 0.099986829
1332 0.28211504
1330 0.47746909
1328 0.69548345
1326 0.9277513
1324 1.18088
1322 1.4446828
1320 1.7218635
1318 2.0051637
1316 2.2974
1314 2.6007633
1312 2.9050531
1310 3.1833293
1308 3.4237087
1306 3.600203
1304 3.7227864
1302 3.7877159
1300 3.8109171
1298 3.7856271
1296 3.7330573
1294 3.6485741
1292 3.5634243
1290 3.4959791
1288 3.454464
1286 3.4749086
1284 3.515692
1282 3.597595
1280 3.670876
1278 3.7244704
1276 3.7701414
1274 3.8049769
1272 3.8639514
1270 3.970243
1268 4.1261091
1266 4.357852
1264 4.6372786
1262 4.9769754
1260 5.3475218
1258 5.7537618
1256 6.1876798
1254 6.6504259
1252 7.1415334
1250 7.6483598
1248 8.1486864
1246 8.6306
1244 9.0602388
1242 9.4523335
1240 9.7849665
1238 10.080186
1236 10.305971
1234 10.488039
1232 10.5678
1230 10.593564
1228 10.475409
1226 10.300157
1224 9.9719048
1222 9.6154366
1220 9.1956387
1218 8.778264
1216 8.3606262
1214 7.9113517
1212 7.4030919
1210 6.844811
1208 6.2282128
1206 5.6473422
1204 5.122684
1202 4.6810908
1200 4.309691
1198 3.9242771
1196 3.5096643
1194 3.0121078
1192 2.4696012
1190 1.935995
1188 1.4357865
1186 1.0578864
1184 0.74651134
1182 0.54406673
1180 0.39365554
1178 0.35470811
1176 0.361642
1174 0.49251556
1172 0.6193924
1170 0.70054376
1168 0.73244762
1166 0.61411524
1164 0.47291169
1162 0.28144559
1160 0.12438904
1158 0.040483598
1156 0.0021664854
1154 0.032865793
1152 0.049539823
1150 0.043345857
1148 0.0076962784
1146 -0.054238785
1144 -0.093968637
1142 -0.1019257
1140 -0.036870502
1138 0.099960789
1136 0.36559799
1134 0.71470582
1132 1.158165
1130 1.6280009
1128 2.0464144
1126 2.4334543
1124 2.7290838
1122 3.0050969
1120 3.2627079
1118 3.5099044
1116 3.7096386
1114 3.8847966
1112 3.9604549
1110 4.0280657
1108 4.0729704
1106 4.1438847
1104 4.2826452
1102 4.4644456
1100 4.7329502
1098 5.0398221
1096 5.4051714
1094 5.7740092
1092 6.1441741
1090 6.4947195
1088 6.8260846
1086 7.1555958
1084 7.4775763
1082 7.756053
1080 7.9942708
1078 8.1284132
1076 8.2124758
1074 8.2708693
1072 8.3267813
1070 8.4248734
1068 8.5157089
1066 8.4859991
1064 8.4115801
1062 8.1218796
1060 7.8118119
1058 7.4384651
1056 7.0637569
1054 6.6845202
1052 6.321156
1050 6.012866
1048 5.7598867
1046 5.6393142
1044 5.5288954
1042 5.4296246
1040 5.2523127
1038 4.9592919
1036 4.6275001
1034 4.2559605
1032 3.924
1030 3.6213257
1028 3.26178
1026 2.8539991
1024 2.3499572
1022 1.80259
1020 1.3269439
1018 0.89264089
1016 0.60764855
1014 0.37021747
1012 0.2150616
1010 0.074596569
1008 -0.057224117
1006 -0.18672357
1004 -0.29758781
1002 -0.41196591
1000 -0.55263293
998 -0.71828127
996 -0.99289358
994 -1.26167
992 -1.5092669
990 -1.7074676
988 -1.7924957
986 -1.8654814
984 -1.9182703
982 -1.9753761
980 -2.03649
978 -2.0659182
976 -2.05832
974 -1.9728765
972 -1.8169538
970 -1.5073932
968 -1.1015489
966 -0.63307047
964 -0.14811009
962 0.10392226
960 0.26769313
958 0.1529448
956 -0.02040942
954 -0.17501076
952 -0.3189936
950 -0.26201186
948 -0.19260955
946 -0.063482784
944 0.00040858239
942 0.012576507
940 0.03387896
938 0.095342278
936 0.20676911
934 0.46457231
932 0.73191547
930 1.0177385
928 1.2303965
926 1.3250008
924 1.356084
922 1.3107617
920 1.2875538
918 1.285923
916 1.3516186
914 1.4651219
912 1.6067909
910 1.7628371
908 1.8762323
906 1.9725585
904 1.9806131
902 1.9655089
900 1.9676143
898 1.9728224
896 2.1283
