Image.
>Pix99999.
  .
5555
5555
2300
900
5555
2
1
0
701
5555
3.7252001e-002
3.8026892e-002
3.8801782e-002
3.9576672e-002
4.0351566e-002
4.1126456e-002
4.1902341e-002
4.2677239e-002
4.3452129e-002
4.4226035e-002
4.5001898e-002
4.5778774e-002
4.6551730e-002
4.7317754e-002
4.8101302e-002
4.8910622e-002
4.9652062e-002
5.0301265e-002
5.1198728e-002
5.2444879e-002
5.2765571e-002
5.1784601e-002
5.4245166e-002
6.1558295e-002
5.6081176e-002
2.5583999e-002
9.0858858e-004
1.6906722e-002
7.5935721e-002
1.6832221e-001
2.7324602e-001
3.6776006e-001
4.3282297e-001
4.5528311e-001
4.4112229e-001
4.0368000e-001
3.6358896e-001
3.3976412e-001
3.3579800e-001
3.4782130e-001
3.6025029e-001
3.5432294e-001
3.1227741e-001
2.2285846e-001
9.9807546e-002
-2.9192280e-002
-1.1064615e-001
-9.4801649e-002
2.1212310e-002
2.1524024e-001
4.2278931e-001
5.7730776e-001
6.5651441e-001
6.5851468e-001
6.0658693e-001
5.2795678e-001
4.3444079e-001
3.3263293e-001
2.2876874e-001
1.2876087e-001
3.7378572e-002
-4.0225357e-002
-9.5852032e-002
-1.2107590e-001
-1.1074343e-001
-6.6341773e-002
-1.2164691e-002
2.4080859e-002
3.1801127e-002
1.2065538e-002
-1.0683870e-002
-1.1626230e-002
3.6085732e-003
1.9909469e-002
2.7020006e-002
2.1246608e-002
1.7756362e-002
3.1357057e-002
4.8541032e-002
4.7399841e-002
1.3312239e-002
-5.8260236e-002
-1.4222610e-001
-2.0499757e-001
-2.2144559e-001
-1.7800950e-001
-9.4951063e-002
-5.3676642e-003
5.5132110e-002
6.0984414e-002
3.0298771e-002
-4.6871477e-003
-2.0300703e-002
-3.3004428e-003
3.1956837e-002
6.4724706e-002
9.0287440e-002
1.1146545e-001
1.3548599e-001
1.6856788e-001
2.0664714e-001
2.4177060e-001
2.6653671e-001
2.7425104e-001
2.5967428e-001
2.1911550e-001
1.5301302e-001
6.4624496e-002
-3.7776303e-002
-1.4128309e-001
-2.2166786e-001
-2.5268310e-001
-2.1837761e-001
-1.1469661e-001
3.0749535e-002
1.7902412e-001
2.9701862e-001
3.5967982e-001
3.6318222e-001
3.1503069e-001
2.3370200e-001
1.4355864e-001
7.5981654e-002
5.8904018e-002
9.4183519e-002
1.6921178e-001
2.5770840e-001
3.3222049e-001
3.8267139e-001
4.0566313e-001
3.9318728e-001
3.3654293e-001
2.3422086e-001
9.4691142e-002
-4.5431726e-002
-1.4029621e-001
-1.5687588e-001
-7.8621075e-002
6.8313681e-002
2.3684323e-001
3.7077200e-001
4.2106673e-001
3.8181359e-001
2.7332973e-001
1.4295503e-001
4.0951580e-002
-1.7638952e-002
-3.8259350e-002
-4.1206449e-002
-4.8779000e-002
-6.6740781e-002
-9.2608936e-002
-1.2344030e-001
-1.5632468e-001
-1.8731761e-001
-2.1268792e-001
-2.3188755e-001
-2.4713337e-001
-2.6575959e-001
-2.9381216e-001
-3.2174599e-001
-3.3109620e-001
-2.9851258e-001
-2.0711052e-001
-7.5727716e-002
5.7671964e-002
1.4959431e-001
1.6542622e-001
1.1519604e-001
3.1500854e-002
-5.2987047e-002
-1.1340226e-001
-1.5160561e-001
-1.8322386e-001
-2.2492716e-001
-2.8845501e-001
-3.6622232e-001
-4.4155443e-001
-5.0156224e-001
-5.4020911e-001
-5.6923944e-001
-6.0752487e-001
-6.6535783e-001
-7.4375230e-001
-8.2654059e-001
-8.8731647e-001
-8.9327288e-001
-8.1795102e-001
-6.7446560e-001
-4.9784350e-001
-3.2435155e-001
-1.8351418e-001
-8.0422051e-002
-1.0190383e-002
1.7419394e-002
-9.7620701e-003
-7.3976599e-002
-1.4141181e-001
-1.8454972e-001
-1.8706560e-001
-1.5940000e-001
-1.2459416e-001
-9.6475527e-002
-8.3274238e-002
-9.7545601e-002
-1.5091585e-001
-2.3731460e-001
-3.4052771e-001
-4.4583270e-001
-5.4184008e-001
-6.2358505e-001
-6.8703473e-001
-7.1634209e-001
-6.9410497e-001
-6.2841398e-001
-5.4469925e-001
-4.7480038e-001
-4.4656140e-001
-4.5997086e-001
-4.9857906e-001
-5.4859060e-001
-6.0032701e-001
-6.4743829e-001
-6.8748707e-001
-7.2774357e-001
-7.7964753e-001
-8.4723598e-001
-9.2677701e-001
-1.0029806e+000
-1.0543872e+000
-1.0617571e+000
-1.0079671e+000
-8.7642658e-001
-6.6182113e-001
-4.0925583e-001
-1.9308221e-001
-7.4209921e-002
-8.6427502e-002
-1.9658381e-001
-3.3515683e-001
-4.5791686e-001
-5.4774296e-001
-6.1373186e-001
-6.7259806e-001
-7.0868927e-001
-6.8916154e-001
-6.0815275e-001
-4.8448977e-001
-3.5516065e-001
-2.5790408e-001
-1.8994786e-001
-1.2016769e-001
-1.8352481e-002
1.3284583e-001
3.1096053e-001
4.6703464e-001
5.5338842e-001
5.3856993e-001
4.4583726e-001
3.3616781e-001
2.7168971e-001
2.9440415e-001
3.7224844e-001
4.2783695e-001
4.1287148e-001
3.1817165e-001
1.8840700e-001
8.9281835e-002
2.2725634e-002
-4.8242442e-002
-1.0705020e-001
-9.7443014e-002
9.5056295e-003
2.0632698e-001
4.3810835e-001
6.2525892e-001
7.1876043e-001
7.1062225e-001
6.5815854e-001
6.5031606e-001
7.1452999e-001
8.1548214e-001
8.7017918e-001
7.8612828e-001
5.5945462e-001
2.6419130e-001
4.2581856e-003
-1.0483152e-001
4.8452869e-002
5.4361343e-001
1.3329891e+000
2.2723875e+000
3.2244287e+000
4.1036673e+000
4.9750118e+000
6.0254779e+000
7.4746876e+000
9.5269651e+000
1.2273571e+001
1.5650898e+001
1.9293571e+001
2.2667620e+001
2.5532871e+001
2.7988070e+001
3.0434702e+001
3.3445770e+001
3.7455177e+001
4.2606808e+001
4.8368801e+001
5.3814381e+001
5.8667702e+001
6.3291512e+001
6.8087608e+001
7.3285614e+001
7.8639603e+001
8.3564796e+001
8.7727669e+001
9.1091446e+001
9.3698135e+001
9.5608215e+001
9.6872459e+001
9.7534409e+001
9.7657143e+001
9.7315636e+001
9.6551422e+001
9.5388000e+001
9.3915558e+001
9.2265350e+001
9.0453568e+001
8.8375450e+001
8.5898384e+001
8.2919113e+001
7.9500687e+001
7.5828255e+001
7.1949051e+001
6.7765007e+001
6.3209080e+001
5.8301842e+001
5.3217884e+001
4.8245693e+001
4.3603886e+001
3.9412651e+001
3.5738960e+001
3.2606300e+001
2.9976887e+001
2.7763472e+001
2.5894711e+001
2.4330906e+001
2.3063303e+001
2.2106359e+001
2.1466000e+001
2.1129770e+001
2.1059361e+001
2.1197517e+001
2.1506266e+001
2.1973101e+001
2.2600388e+001
2.3408899e+001
2.4458797e+001
2.5845583e+001
2.7653770e+001
2.9924946e+001
3.2590450e+001
3.5480991e+001
3.8441158e+001
4.1364201e+001
4.4195889e+001
4.6954933e+001
4.9808216e+001
5.2970108e+001
5.6185684e+001
5.8743820e+001
6.0212315e+001
6.0616409e+001
6.0267986e+001
5.9624359e+001
5.8830395e+001
5.7657467e+001
5.5873562e+001
5.3390736e+001
5.0452484e+001
4.7595623e+001
4.5136944e+001
4.3060928e+001
4.1237064e+001
3.9482800e+001
3.7615139e+001
3.5483078e+001
3.3051949e+001
3.0432758e+001
2.7849701e+001
2.5578224e+001
2.3672480e+001
2.1916115e+001
2.0058521e+001
1.7920734e+001
1.5554069e+001
1.3244506e+001
1.1191600e+001
9.4210882e+000
7.8770428e+000
6.4580741e+000
5.1100063e+000
3.8473146e+000
2.6850891e+000
1.6281843e+000
7.1478498e-001
2.4292827e-002
-3.7197602e-001
-4.1744536e-001
-2.5794297e-002
8.9828074e-001
2.2812502e+000
3.8469150e+000
5.3613396e+000
6.7175193e+000
7.9207873e+000
9.0777035e+000
1.0266277e+001
1.1483947e+001
1.2632000e+001
1.3522644e+001
1.4027066e+001
1.4127392e+001
1.3873669e+001
1.3369607e+001
1.2714737e+001
1.1985331e+001
1.1224468e+001
1.0437847e+001
9.6056213e+000
8.6952114e+000
7.7262206e+000
6.7904873e+000
5.9774399e+000
5.3453135e+000
4.9128213e+000
4.6532063e+000
4.5336804e+000
4.5287495e+000
4.6241856e+000
4.8195519e+000
5.1154909e+000
5.5074406e+000
5.9767489e+000
6.4845705e+000
6.9805923e+000
7.4046373e+000
7.6986837e+000
7.8157763e+000
7.7395072e+000
7.4979010e+000
7.1478977e+000
6.7678547e+000
6.4062567e+000
6.0600147e+000
5.7131524e+000
5.3493690e+000
4.9619722e+000
4.5559573e+000
4.1211658e+000
3.6246021e+000
3.0514841e+000
2.4243689e+000
1.7861029e+000
1.1944005e+000
6.8937147e-001
2.7889305e-001
-3.4710690e-002
-2.4636739e-001
-3.4914744e-001
-3.3270159e-001
-1.7755966e-001
1.4376882e-001
6.3026136e-001
1.2330285e+000
1.8952440e+000
2.5641077e+000
3.1848807e+000
3.6982059e+000
4.0438743e+000
4.1677203e+000
4.0524764e+000
3.7409790e+000
3.2997053e+000
2.8109798e+000
2.3568485e+000
2.0078068e+000
1.8027942e+000
1.7281698e+000
1.7333200e+000
1.7300042e+000
1.6509303e+000
1.4828728e+000
1.2509882e+000
1.0220333e+000
8.5416824e-001
7.7225065e-001
7.8195423e-001
8.6993819e-001
1.0277429e+000
1.2632034e+000
1.5890601e+000
2.0178843e+000
2.5459161e+000
3.1394751e+000
3.7519374e+000
4.3273749e+000
4.8196983e+000
5.2067852e+000
5.4841957e+000
5.6704369e+000
5.7922282e+000
5.8819270e+000
5.9745302e+000
6.1073437e+000
6.3185334e+000
6.6442561e+000
7.1049623e+000
7.6923671e+000
8.3857288e+000
9.1559792e+000
9.9856663e+000
1.0882479e+001
1.1855474e+001
1.2901250e+001
1.3989457e+001
1.5042212e+001
1.5966446e+001
1.6664768e+001
1.7063885e+001
1.7139750e+001
1.6886761e+001
1.6312519e+001
1.5437463e+001
1.4300686e+001
1.2966440e+001
1.1539782e+001
1.0136190e+001
8.8661280e+000
7.8241429e+000
7.0648355e+000
6.6148424e+000
6.4582486e+000
6.5495372e+000
6.8002849e+000
7.1013641e+000
7.3231540e+000
7.3489184e+000
7.1044135e+000
6.5667715e+000
5.8024302e+000
4.9131441e+000
4.0272260e+000
3.2478902e+000
2.6083951e+000
2.1063204e+000
1.6993184e+000
1.3514720e+000
1.0612936e+000
8.4077400e-001
7.1078223e-001
6.8213654e-001
7.3816264e-001
8.5470200e-001
1.0053643e+000
1.1641760e+000
1.3069980e+000
1.4093435e+000
1.4461793e+000
1.4033128e+000
1.2921753e+000
1.1350578e+000
9.6323979e-001
7.9999578e-001
6.4531928e-001
4.9461725e-001
3.4532839e-001
1.9380328e-001
3.4702942e-002
-1.2041543e-001
-2.2143440e-001
-2.2833869e-001
-1.4806461e-001
-7.2618276e-003
1.4754565e-001
2.7004588e-001
3.2770649e-001
3.0660838e-001
2.3044363e-001
1.3354425e-001
5.2842394e-002
1.2065598e-002
1.6357079e-003
1.3559137e-002
6.3628852e-002
1.7258218e-001
3.5783514e-001
6.2262225e-001
9.3640959e-001
1.2625571e+000
1.5711020e+000
1.8471479e+000
2.1122723e+000
2.3996544e+000
2.7483134e+000
3.1713450e+000
3.6105177e+000
3.9900727e+000
4.2359533e+000
4.3052201e+000
4.2367134e+000
4.0869327e+000
3.9055409e+000
3.7251117e+000
3.5357873e+000
3.3166199e+000
3.0456338e+000
2.7173522e+000
2.3730383e+000
2.0705829e+000
1.8808538e+000
1.8501946e+000
1.9465380e+000
2.1122856e+000
2.2730107e+000
2.3742630e+000
2.4312909e+000
2.4829993e+000
2.5867295e+000
2.7824402e+000
3.0469985e+000
3.3283336e+000
3.5365500e+000
3.5967362e+000
3.5067322e+000
3.2931561e+000
3.0150380e+000
2.7225034e+000
2.4164133e+000
2.0917029e+000
1.7618707e+000
1.4454123e+000
1.1610744e+000
9.1867918e-001
6.9907486e-001
4.8430800e-001
2.8131777e-001
1.0078451e-001
-5.4459013e-002
-1.8753213e-001
-3.1431431e-001
-4.5364517e-001
-6.2315100e-001
-8.2834047e-001
-1.0361422e+000
-1.1952343e+000
-1.2271051e+000
-1.0727944e+000
-7.6044971e-001
-3.5127544e-001
5.5709362e-002
3.7238485e-001
5.7858843e-001
6.7659593e-001
6.8768698e-001
6.3583308e-001
5.3836107e-001
4.1439849e-001
2.9470640e-001
2.0556743e-001
1.4779492e-001
1.1352591e-001
8.6726591e-002
5.3941470e-002
1.8351186e-002
-2.3784116e-004
6.1987713e-002
2.6243627e-001
5.9597510e-001
1.0350943e+000
1.5274534e+000
2.0089724e+000
2.3959818e+000
2.6126938e+000
2.6300821e+000
2.4548440e+000
2.1827495e+000
1.9294491e+000
1.8014387e+000
1.8694814e+000
2.0785623e+000
2.3391469e+000
2.5517211e+000
2.6429839e+000
2.6526570e+000
2.6469188e+000
2.6855195e+000
2.8066671e+000
2.9699080e+000
3.1152000e+000
