Image.
>Pix99999.
  .
5555
5555
2300
900
5555
2
1
0
701
5555
2.1370000e-001
2.1815363e-001
2.2259729e-001
2.2704093e-001
2.3148458e-001
2.3593815e-001
2.4038185e-001
2.4482551e-001
2.4926914e-001
2.5371277e-001
2.5816628e-001
2.6261008e-001
2.6705369e-001
2.7147773e-001
2.7595040e-001
2.8045335e-001
2.8483966e-001
2.8903797e-001
2.9371914e-001
2.9908371e-001
3.0264941e-001
3.0367151e-001
3.1140015e-001
3.2860401e-001
3.2085556e-001
2.5432321e-001
1.3900389e-001
3.0295635e-003
-1.0223404e-001
-1.3220474e-001
-9.5768414e-002
-1.7020112e-002
8.0132075e-002
1.7227308e-001
2.3711134e-001
2.5674900e-001
2.2978891e-001
1.6358067e-001
8.1351824e-002
9.2841387e-003
-3.3155471e-002
-3.3602200e-002
-7.3263887e-005
5.3244956e-002
1.1190049e-001
1.6385543e-001
2.0684911e-001
2.4184223e-001
2.7072436e-001
2.9411650e-001
3.0660358e-001
3.0241489e-001
2.8226525e-001
2.5152802e-001
2.2636390e-001
2.2287513e-001
2.4316400e-001
2.8261980e-001
3.2777256e-001
3.6388388e-001
3.8247600e-001
3.7840810e-001
3.5180402e-001
3.0679122e-001
2.5698882e-001
2.1831864e-001
2.0340894e-001
2.2020625e-001
2.6207951e-001
3.1757215e-001
3.7537000e-001
4.2574811e-001
4.6494320e-001
4.9030340e-001
4.9526823e-001
4.7470286e-001
4.3494719e-001
3.8753870e-001
3.4862533e-001
3.2970116e-001
3.1696230e-001
2.9064965e-001
2.4368857e-001
1.8048255e-001
1.3304560e-001
1.3505393e-001
1.8668237e-001
2.7162099e-001
3.5734272e-001
4.1381773e-001
4.4419158e-001
4.6060079e-001
4.6073207e-001
4.3599790e-001
3.7609112e-001
2.7752885e-001
1.6672823e-001
7.7454597e-002
2.6510820e-002
1.9515080e-002
4.4304859e-002
8.3550267e-002
1.2585375e-001
1.6369247e-001
1.9487165e-001
2.1986200e-001
2.4190249e-001
2.6336122e-001
2.7889439e-001
2.8154370e-001
2.7051955e-001
2.5052756e-001
2.3839720e-001
2.5114504e-001
2.8656021e-001
3.3143643e-001
3.6018416e-001
3.4957346e-001
3.0593485e-001
2.4735880e-001
1.8881886e-001
1.3854159e-001
8.4411755e-002
1.1242152e-002
-7.3345289e-002
-1.5209535e-001
-2.0978460e-001
-2.3756772e-001
-2.4768589e-001
-2.5747633e-001
-2.6775086e-001
-2.6968440e-001
-2.4627218e-001
-1.8288261e-001
-8.8400513e-002
1.7388714e-002
1.1323091e-001
1.8202001e-001
2.2454546e-001
2.4901439e-001
2.6101598e-001
2.6448527e-001
2.6314020e-001
2.6016963e-001
2.5625548e-001
2.5075594e-001
2.4198976e-001
2.3003811e-001
2.2399914e-001
2.3545602e-001
2.6853144e-001
3.1919536e-001
3.6487600e-001
3.7923080e-001
3.5635981e-001
3.0473655e-001
2.5021303e-001
2.1991538e-001
2.1359020e-001
2.1865363e-001
2.2878514e-001
2.4607320e-001
2.9149097e-001
3.8656101e-001
5.1658052e-001
6.4706653e-001
7.3840040e-001
7.5902748e-001
7.1736997e-001
6.4138442e-001
5.5613643e-001
4.8157209e-001
4.2818516e-001
4.0039662e-001
3.9629471e-001
4.0921250e-001
4.2447636e-001
4.2745286e-001
4.2055568e-001
4.1430062e-001
4.1438600e-001
4.1984275e-001
4.1497660e-001
3.8246721e-001
3.3070642e-001
2.8323242e-001
2.6707101e-001
2.9906219e-001
3.4845659e-001
3.6700562e-001
3.4269345e-001
2.9132381e-001
2.5441480e-001
2.7202418e-001
3.2430845e-001
3.6114186e-001
3.4957960e-001
2.8142443e-001
2.0195648e-001
1.7619818e-001
2.2897859e-001
3.4984133e-001
4.8457783e-001
5.6389761e-001
5.5154568e-001
4.4146270e-001
2.6796222e-001
8.2308695e-002
-8.3698809e-002
-2.1284819e-001
-2.9350701e-001
-3.1602702e-001
-2.7063721e-001
-1.5772173e-001
-2.3592930e-002
6.4270228e-002
6.5830693e-002
-2.8385889e-002
-1.7725863e-001
-3.1961447e-001
-4.3222570e-001
-5.1889598e-001
-5.8813035e-001
-6.4657509e-001
-6.9177520e-001
-7.1766073e-001
-7.2712475e-001
-7.2759509e-001
-7.1930575e-001
-6.9557613e-001
-6.4186126e-001
-5.4147768e-001
-3.8786635e-001
-1.8926218e-001
1.0748342e-002
1.5130892e-001
1.9198920e-001
1.1898671e-001
-3.1763200e-002
-1.9687830e-001
-3.2657456e-001
-3.9068583e-001
-3.9187646e-001
-3.5051256e-001
-2.7578336e-001
-1.7087950e-001
-5.6040064e-002
3.6899764e-002
8.0202088e-002
6.0415164e-002
9.6764788e-003
-1.7907873e-002
-6.0479436e-003
3.1839907e-002
8.1078701e-002
1.3090901e-001
1.7581572e-001
2.1346077e-001
2.4104331e-001
2.5986451e-001
2.9341543e-001
3.7130171e-001
4.7960183e-001
5.7007557e-001
5.8692932e-001
4.9127370e-001
3.2692799e-001
1.7894086e-001
4.9549371e-002
-1.1034216e-001
-2.7539486e-001
-3.6760956e-001
-3.5668612e-001
-2.6535600e-001
-1.6101326e-001
-1.2721750e-001
-1.9807486e-001
-3.5169795e-001
-4.9351946e-001
-5.0073504e-001
-3.4464198e-001
-8.7837406e-002
1.4267030e-001
2.0797153e-001
8.8846579e-002
-1.2658098e-001
-2.9939538e-001
-2.7214751e-001
8.3192915e-002
8.2945776e-001
1.8473200e+000
2.8990176e+000
3.8362823e+000
4.6356549e+000
5.4349580e+000
6.4811020e+000
8.0022755e+000
1.0172383e+001
1.3059566e+001
1.6593273e+001
2.0414715e+001
2.4001150e+001
2.7097918e+001
2.9770334e+001
3.2412624e+001
3.5610729e+001
3.9766464e+001
4.4963757e+001
5.0665241e+001
5.5992092e+001
6.0747700e+001
6.5376076e+001
7.0280426e+001
7.5618355e+001
8.1041321e+001
8.5868301e+001
8.9755318e+001
9.2733742e+001
9.4942131e+001
9.6537788e+001
9.7617683e+001
9.8209869e+001
9.8290894e+001
9.7809990e+001
9.6759338e+001
9.5204254e+001
9.3346558e+001
9.1454483e+001
8.9569313e+001
8.7496460e+001
8.4983513e+001
8.1814346e+001
7.8013077e+001
7.3807404e+001
6.9345360e+001
6.4661270e+001
5.9775841e+001
5.4739803e+001
4.9707043e+001
4.4910179e+001
4.0511143e+001
3.6581509e+001
3.3160259e+001
3.0260519e+001
2.7838039e+001
2.5800615e+001
2.4076454e+001
2.2628847e+001
2.1456554e+001
2.0583975e+001
2.0021500e+001
1.9758167e+001
1.9762136e+001
1.9986610e+001
2.0400108e+001
2.0990156e+001
2.1746799e+001
2.2668409e+001
2.3802509e+001
2.5245531e+001
2.7094229e+001
2.9410130e+001
3.2128525e+001
3.5062397e+001
3.8025723e+001
4.0875336e+001
4.3539349e+001
4.6047451e+001
4.8612148e+001
5.1525646e+001
5.4615772e+001
5.7235600e+001
5.8925171e+001
5.9592194e+001
5.9473385e+001
5.9023930e+001
5.8419430e+001
5.7476284e+001
5.5967960e+001
5.3760506e+001
5.1031971e+001
4.8253521e+001
4.5740425e+001
4.3544701e+001
4.1596600e+001
3.9753250e+001
3.7874668e+001
3.5854927e+001
3.3653858e+001
3.1313160e+001
2.8963642e+001
2.6788900e+001
2.4815479e+001
2.2872927e+001
2.0773926e+001
1.8399185e+001
1.5847531e+001
1.3436161e+001
1.1371268e+001
9.6579704e+000
8.2094002e+000
6.8884478e+000
5.6084456e+000
4.3581710e+000
3.1449153e+000
1.9877279e+000
9.5213008e-001
1.5281744e-001
-3.1835014e-001
-4.0671954e-001
-4.0484309e-002
8.5438037e-001
2.1983874e+000
3.7285299e+000
5.2160888e+000
6.5435505e+000
7.7024937e+000
8.7920370e+000
9.9150734e+000
1.1127420e+001
1.2363200e+001
1.3419358e+001
1.4113565e+001
1.4350653e+001
1.4150582e+001
1.3658750e+001
1.3018914e+001
1.2329900e+001
1.1646714e+001
1.0972291e+001
1.0268714e+001
9.4687910e+000
8.5579863e+000
7.6053352e+000
6.7106338e+000
5.9825268e+000
5.4839158e+000
5.2074313e+000
5.1116433e+000
5.1321287e+000
5.2183199e+000
5.3501492e+000
5.5342717e+000
5.8019056e+000
6.1683650e+000
6.6154075e+000
7.1018929e+000
7.5642276e+000
7.9361963e+000
8.1585140e+000
8.1932640e+000
8.0366297e+000
7.7189155e+000
7.3066492e+000
6.8590755e+000
6.4108601e+000
5.9796743e+000
5.5660849e+000
5.1658158e+000
4.7715693e+000
4.3673744e+000
3.9274216e+000
3.4349101e+000
2.8914216e+000
2.3074994e+000
1.7017093e+000
1.0952539e+000
5.1414531e-001
5.4905713e-003
-3.5721859e-001
-5.2243870e-001
-4.8305663e-001
-2.4608058e-001
1.7131689e-001
7.2911036e-001
1.3590357e+000
2.0129800e+000
2.6813631e+000
3.3407657e+000
3.9305511e+000
4.3769226e+000
4.6065946e+000
4.5967989e+000
4.4071989e+000
4.1141095e+000
3.7884665e+000
3.4887419e+000
3.2519286e+000
3.0958993e+000
3.0118878e+000
2.9695899e+000
2.9149585e+000
2.8051596e+000
2.6289220e+000
2.4014006e+000
2.1697807e+000
1.9815458e+000
1.8697660e+000
1.8518937e+000
1.9237454e+000
2.0776715e+000
2.3089058e+000
2.6187098e+000
3.0156140e+000
3.4983160e+000
4.0430326e+000
4.6109853e+000
5.1471214e+000
5.6035337e+000
5.9543619e+000
6.1938438e+000
6.3446827e+000
6.4417152e+000
6.5295300e+000
6.6502242e+000
6.8365717e+000
7.1115012e+000
7.4834018e+000
7.9546962e+000
8.5233412e+000
9.1886110e+000
9.9541206e+000
1.0822554e+001
1.1791477e+001
1.2847577e+001
1.3954250e+001
1.5063954e+001
1.6119448e+001
1.7059240e+001
1.7822594e+001
1.8350471e+001
1.8591034e+001
1.8503279e+001
1.8066330e+001
1.7285402e+001
1.6203756e+001
1.4888926e+001
1.3434482e+001
1.1949049e+001
1.0547348e+001
9.3359890e+000
8.3978443e+000
7.7844458e+000
7.4937954e+000
7.4841857e+000
7.6572161e+000
7.8953419e+000
8.0723934e+000
8.0813494e+000
7.8644862e+000
7.4064574e+000
6.7578459e+000
5.9907484e+000
5.1873398e+000
4.4131002e+000
3.6926763e+000
3.0392382e+000
2.4623368e+000
1.9760396e+000
1.6037962e+000
1.3594600e+000
1.2299531e+000
1.1922923e+000
1.2168167e+000
1.2795194e+000
1.3716229e+000
1.4844034e+000
1.6001930e+000
1.6972760e+000
1.7506988e+000
1.7419528e+000
1.6697539e+000
1.5388023e+000
1.3589557e+000
1.1407197e+000
8.9427888e-001
6.3661820e-001
3.9846915e-001
2.0187110e-001
4.1358873e-002
-8.8890113e-002
-1.8074511e-001
-2.2788090e-001
-2.3615304e-001
-2.1420115e-001
-1.7007007e-001
-1.0933858e-001
-3.2697730e-002
5.3607762e-002
1.2777352e-001
1.7151128e-001
1.8540518e-001
1.8414560e-001
2.0449039e-001
2.7291968e-001
3.7682101e-001
4.9276447e-001
5.9496140e-001
6.6954607e-001
7.3483837e-001
8.2220143e-001
9.7551912e-001
1.2316741e+000
1.5999151e+000
2.0655041e+000
2.5685806e+000
3.0415096e+000
3.4254119e+000
3.6734040e+000
3.7655170e+000
3.6986158e+000
3.4981337e+000
3.2074246e+000
2.8977191e+000
2.6364553e+000
2.4600208e+000
2.3833601e+000
2.3817887e+000
2.4221437e+000
2.4740484e+000
2.5136600e+000
2.5337369e+000
2.5348756e+000
2.5286379e+000
2.5243137e+000
2.5178499e+000
2.4998820e+000
2.4567645e+000
2.3854737e+000
2.3171499e+000
2.2890701e+000
2.3308837e+000
2.4505296e+000
2.5981293e+000
2.7111490e+000
2.7323928e+000
2.6253462e+000
2.4106202e+000
2.1269591e+000
1.8241171e+000
1.5459000e+000
1.3086137e+000
1.1158460e+000
9.5236051e-001
8.0123079e-001
6.5347481e-001
5.0236648e-001
3.4182060e-001
1.6551059e-001
-3.3798471e-002
-2.5703287e-001
-4.8460609e-001
-6.9440037e-001
-8.7261003e-001
-1.0116841e+000
-1.1175044e+000
-1.1942703e+000
-1.2299758e+000
-1.2067220e+000
-1.0996850e+000
-8.9369661e-001
-6.1033374e-001
-2.8955871e-001
-1.4687628e-003
1.9264469e-001
2.8675699e-001
2.9921752e-001
2.8415918e-001
2.9101259e-001
3.2232544e-001
3.6223942e-001
3.7176856e-001
3.2004079e-001
2.2464646e-001
1.1632919e-001
3.0130666e-002
9.8626316e-003
1.2553167e-001
4.1523498e-001
7.7920729e-001
1.0997800e+000
1.3192542e+000
1.4107357e+000
1.4071732e+000
1.3615000e+000
1.3460908e+000
1.4273360e+000
1.6311283e+000
1.9562503e+000
2.3374918e+000
2.6980271e+000
2.9780457e+000
3.1439886e+000
3.2478940e+000
3.3575654e+000
3.5171602e+000
3.7494195e+000
4.0148668e+000
4.2632685e+000
4.4618731e+000
4.5826998e+000
