##TITLE=Methyl Ethyl Ketone
##JCAMP-DX=4.24
##DATA TYPE=INFRARED SPECTRUM
##XUNITS=cm-1
##YUNITS=Absorbance
##FIRSTX=900
##LASTX=2300
##XYDATA=(X++(Y..Y))
2296 0.016998
2294 0.017351493
2292 0.017704988
2290 0.018058483
2288 0.018411977
2286 0.01876547
2284 0.019119956
2282 0.01947346
2280 0.019826954
2278 0.02017946
2276 0.020533929
2274 0.020890391
2272 0.021240983
2270 0.021584611
2268 0.021948701
2266 0.022341557
2264 0.022656823
2262 0.022864997
2260 0.023359092
2258 0.024254382
2256 0.024085686
2254 0.02242033
2252 0.024712943
2250 0.032584172
2248 0.025749069
2246 -0.0050546569
2244 -0.00022977314
2242 0.091397248
2240 0.20937696
2238 0.27531603
2236 0.26609144
2234 0.19165461
2232 0.1306293
2230 0.16276363
2228 0.29338002
2226 0.49583098
2224 0.70220971
2222 0.84705961
2220 0.92263198
2218 0.94452864
2216 0.95321769
2214 0.98746789
2212 1.0499462
2210 1.1319829
2208 1.2238795
2206 1.3167214
2204 1.405104
2202 1.4817038
2200 1.5277828
2198 1.528196
2196 1.4978215
2194 1.4627718
2192 1.4561269
2190 1.5050644
2188 1.6035082
2186 1.7344108
2184 1.8794041
2182 2.0215371
2180 2.1495771
2178 2.2527704
2176 2.3154256
2174 2.3254294
2172 2.2929974
2170 2.2388399
2168 2.1968212
2166 2.1974545
2164 2.2410121
2162 2.3150396
2160 2.3967953
2158 2.4646549
2156 2.5139499
2154 2.5460165
2152 2.5620189
2150 2.5638583
2148 2.5580871
2146 2.5544536
2144 2.5688977
2142 2.6156452
2140 2.6931741
2138 2.7936645
2136 2.9065371
2134 3.0212042
2132 3.1302898
2130 3.2263832
2128 3.295944
2126 3.3267429
2124 3.321918
2122 3.2930398
2120 3.2628715
2118 3.254823
2116 3.2778158
2114 3.3333261
2112 3.4140601
2110 3.5114675
2108 3.6233048
2106 3.7474134
2104 3.8720121
2102 3.9804976
2100 4.052906
2098 4.0756936
2096 4.0676999
2094 4.0575285
2092 4.0615673
2090 4.0855269
2088 4.1109557
2086 4.1174197
2084 4.1132331
2082 4.1197701
2080 4.1634703
2078 4.2646623
2076 4.4136386
2074 4.5864596
2072 4.7526636
2070 4.8823957
2068 4.9578862
2066 4.9700375
2064 4.9249983
2062 4.8377948
2060 4.7347169
2058 4.64396
2056 4.5820198
2054 4.556005
2052 4.55549
2050 4.563024
2048 4.5627718
2046 4.5438356
2044 4.5133958
2042 4.487627
2040 4.489574
2038 4.540514
2036 4.6429811
2034 4.7863789
2032 4.9388299
2030 5.0615792
2028 5.124918
2026 5.110405
2024 5.0291047
2022 4.9051361
2020 4.7637887
2018 4.6282487
2016 4.5146599
2014 4.435163
2012 4.3978019
2010 4.4065614
2008 4.4543829
2006 4.5274048
2004 4.603332
2002 4.655045
2000 4.6496959
1998 4.5616331
1996 4.4050145
1994 4.2172899
1992 4.0531826
1990 3.9641874
1988 3.9566779
1986 4.01122
1984 4.0913024
1982 4.1603441
1980 4.2104397
1978 4.2497048
1976 4.29492
1974 4.3615479
1972 4.4472947
1970 4.5383701
1968 4.6106963
1966 4.6388345
1964 4.6109653
1962 4.526556
1960 4.403336
1958 4.2668138
1956 4.1376972
1954 4.0314283
1952 3.9535966
1950 3.903827
1948 3.8764431
1946 3.8634
1944 3.8569326
1942 3.8502953
1940 3.8385074
1938 3.8186512
1936 3.7922742
1934 3.763895
1932 3.7411821
1930 3.7322547
1928 3.7422047
1926 3.7752607
1924 3.8405511
1922 3.9446785
1920 4.0716558
1918 4.1942348
1916 4.2903957
1914 4.3462672
1912 4.3652668
1910 4.3578324
1908 4.3252301
1906 4.2670908
1904 4.2030363
1902 4.1609845
1900 4.1549425
1898 4.1855011
1896 4.2328143
1894 4.2696977
1892 4.2844915
1890 4.2766471
1888 4.2522349
1886 4.2198572
1884 4.1856942
1882 4.1526403
1880 4.116713
1878 4.0690556
1876 3.99561
1874 3.8835485
1872 3.7377036
1870 3.5769508
1868 3.43486
1866 3.3459771
1864 3.3142285
1862 3.3222961
1860 3.3437684
1858 3.3532362
1856 3.3462086
1854 3.3303199
1852 3.3100185
1850 3.283643
1848 3.2374399
1846 3.1552641
1844 3.0403633
1842 2.9102623
1840 2.7888155
1838 2.6954219
1836 2.6180429
1834 2.5302191
1832 2.4303041
1830 2.3367577
1828 2.2786741
1826 2.2799444
1824 2.3193521
1822 2.3504145
1820 2.3448341
1818 2.2953246
1816 2.2200372
1814 2.1479738
1812 2.0907426
1810 2.0459676
1808 2.0074017
1806 1.967815
1804 1.9202932
1802 1.8588121
1800 1.779956
1798 1.6821789
1796 1.5640285
1794 1.4293
1792 1.3055639
1790 1.2318244
1788 1.2261791
1786 1.2806336
1784 1.3435372
1782 1.3476192
1780 1.2825606
1778 1.176427
1776 1.0360234
1774 0.84895432
1772 0.60806555
1770 0.32478702
1768 0.066871755
1766 -0.075447857
1764 -0.088468723
1762 -0.027547268
1760 0.0095088156
1758 -0.072846785
1756 -0.2556597
1754 -0.43834686
1752 -0.54040289
1750 -0.52269477
1748 -0.41568813
1746 -0.29739642
1744 -0.24611074
1742 -0.31618276
1740 -0.48056102
1738 -0.65592259
1736 -0.77505398
1734 -0.80259877
1732 -0.75592005
1730 -0.68429434
1728 -0.61385417
1726 -0.54337168
1724 -0.45089585
1722 -0.29960629
1720 -0.041714847
1718 0.37251556
1716 0.97102726
1714 1.7456046
1712 2.6024284
1710 3.4075811
1708 4.1409359
1706 4.8953099
1704 5.8269324
1702 7.1288443
1700 9.0017004
1698 11.579226
1696 14.676428
1694 17.873909
1692 20.856134
1690 23.50032
1688 26.003469
1686 28.778572
1684 32.12355
1682 36.104687
1680 40.319962
1678 44.108948
1676 47.308514
1674 50.249908
1672 53.369709
1670 57.034054
1668 61.234531
1666 65.651299
1664 69.990562
1662 74.051048
1660 77.702255
1658 80.885437
1656 83.653229
1654 86.154716
1652 88.579979
1650 91.07328
1648 93.457039
1646 95.298889
1644 96.324791
1642 96.470665
1640 95.781685
1638 94.362801
1636 92.29493
1634 89.645485
1632 86.58461
1630 83.346916
1628 80.010284
1626 76.495735
1624 72.733078
1622 68.711449
1620 64.517693
1618 60.315956
1616 56.249657
1614 52.424557
1612 48.927525
1610 45.82143
1608 43.100143
1606 40.694263
1604 38.538803
1602 36.591045
1600 34.835251
1598 33.278919
1596 31.923
1594 30.754044
1592 29.742201
1590 28.849113
1588 28.064159
1586 27.406693
1584 26.902107
1582 26.57481
1580 26.453091
1578 26.565426
1576 26.9226
1574 27.507093
1572 28.243561
1570 29.011997
1568 29.728439
1566 30.360006
1564 30.893505
1562 31.363354
1560 32.008091
1558 33.224865
1556 35.179485
1554 37.710487
1552 40.406998
1550 42.731613
1548 44.492901
1546 45.888966
1544 47.076977
1542 48.073208
1540 48.848698
1538 49.365753
1536 49.62397
1534 49.66848
1532 49.547142
1530 49.288559
1528 48.85881
1526 48.157299
1524 47.08551
1522 45.58897
1520 43.737354
1518 41.729546
1516 39.772972
1514 38.010029
1512 36.35672
1510 34.502842
1508 32.231281
1506 29.531406
1504 26.621702
1502 23.900454
1500 21.564899
1498 19.51981
1496 17.603714
1494 15.661578
1492 13.616446
1490 11.488421
1488 9.3254566
1486 7.1925344
1484 5.195334
1482 3.4708691
1480 2.0836623
1478 1.0189254
1476 0.35333401
1474 0.2649228
1472 0.76289809
1470 1.6228399
1468 2.6248007
1466 3.6309092
1464 4.5836349
1462 5.4863925
1460 6.2477198
1458 6.658864
1456 6.61234
1454 6.1870203
1452 5.604208
1450 5.1805997
1448 5.0376506
1446 5.0205569
1444 4.9812207
1442 4.8627777
1440 4.6387434
1438 4.298058
1436 3.8382459
1434 3.2701375
1432 2.6403263
1430 2.0358546
1428 1.5279119
1426 1.1491685
1424 0.89959538
1422 0.74730814
1420 0.66316575
1418 0.63555253
1416 0.67737746
1414 0.82592404
1412 1.0970199
1410 1.4669797
1408 1.8962034
1406 2.3374164
1404 2.7568517
1402 3.1427009
1400 3.48684
1398 3.7800245
1396 4.0154285
1394 4.1910396
1392 4.309402
1390 4.3782969
1388 4.4078627
1386 4.4100599
1384 4.3971996
1382 4.3786836
1380 4.3474956
1378 4.274138
1376 4.1313314
1374 3.9069707
1372 3.6145759
1370 3.2977853
1368 2.982084
1366 2.6537721
1364 2.2858431
1362 1.8511649
1360 1.3631063
1358 0.89482874
1356 0.51273644
1354 0.2469818
1352 0.091317967
1350 -0.0012044497
1348 -0.064050354
1346 -0.095308676
1344 -0.088780001
1342 -0.047008108
1340 0.0082979538
1338 0.031895876
1336 -0.0014191978
1334 -0.074051276
1332 -0.14938849
1330 -0.17928691
1328 -0.13615054
1326 -0.030477852
1324 0.11917812
1322 0.2958909
1320 0.48745698
1318 0.68830776
1316 0.89028603
1314 1.0789438
1312 1.2420834
1310 1.3744807
1308 1.4755254
1306 1.5500321
1304 1.6020663
1302 1.632669
1300 1.6447926
1298 1.6459258
1296 1.6464143
1294 1.6589042
1292 1.6924994
1290 1.7486503
1288 1.8231159
1286 1.9050871
1284 1.9859943
1282 2.0646334
1280 2.1455019
1278 2.2396505
1276 2.3538613
1274 2.4845109
1272 2.6241224
1270 2.7644794
1268 2.9082892
1266 3.0791485
1264 3.3056252
1262 3.6151316
1260 4.021852
1258 4.5159211
1256 5.0800257
1254 5.6938639
1252 6.3414969
1250 7.0172896
1248 7.7201624
1246 8.4526501
1244 9.2097311
1242 9.9687233
1240 10.694858
1238 11.3408
1236 11.870614
1234 12.281465
1232 12.5832
1230 12.794024
1228 12.922992
1226 12.955743
1224 12.877343
1222 12.686266
1220 12.386214
1218 11.99266
1216 11.517486
1214 10.965898
1212 10.345584
1210 9.67103
1208 8.9624548
1206 8.2478933
1204 7.5473099
1202 6.8609591
1200 6.1819386
1198 5.4995923
1196 4.8121214
1194 4.1380577
1192 3.4990103
1190 2.911684
1188 2.3841176
1186 1.908595
1184 1.4793332
1182 1.1026391
1180 0.79021215
1178 0.55838841
1176 0.41551
1174 0.3496435
1172 0.33899918
1170 0.35103878
1168 0.35413235
1166 0.32574046
1164 0.25661203
1162 0.16289258
1160 0.070405453
1158 0.011552142
1156 0.0059905611
1154 0.040269796
1152 0.087547377
1150 0.11019
1148 0.083658583
1146 0.020626605
1144 -0.048659299
1142 -0.076107651
1140 -0.030512493
1138 0.070823833
1136 0.20769572
1134 0.3807199
1132 0.59886646
1130 0.87825364
1128 1.2284657
1126 1.638585
1124 2.0863371
1122 2.5359273
1120 2.964812
1118 3.3901508
1116 3.8353014
1114 4.3145633
1112 4.8257565
1110 5.3332963
1108 5.8043017
1106 6.2333002
1104 6.6293497
1102 7.0204225
1100 7.4327955
1098 7.8754888
1096 8.3506851
1094 8.8522882
1092 9.370266
1090 9.8893423
1088 10.389086
1086 10.83825
1084 11.212628
1082 11.513151
1080 11.748365
1078 11.93745
1076 12.099257
1074 12.23813
1072 12.353817
1070 12.444327
1068 12.506317
1066 12.52745
1064 12.5012
1062 12.431669
1060 12.323366
1058 12.176708
1056 11.986457
1054 11.737902
1052 11.420437
1050 11.04214
1048 10.612732
1046 10.147864
1044 9.6609125
1042 9.1656437
1040 8.6772938
1038 8.2143393
1036 7.7915802
1034 7.4091845
1032 7.0565958
1030 6.7021561
1028 6.3180356
1026 5.9048457
1024 5.4783893
1022 5.0783339
1020 4.7355666
1018 4.4373527
1016 4.1607771
1014 3.8843992
1012 3.5948901
1010 3.3009393
1008 3.0081961
1006 2.6966865
1004 2.3445127
1002 1.9438813
1000 1.5014943
998 1.0579969
996 0.65511644
994 0.31152451
992 0.028501749
990 -0.22878057
988 -0.49312642
986 -0.76166821
984 -1.0145268
982 -1.2053409
980 -1.287378
978 -1.2350132
976 -1.0345645
974 -0.69557571
972 -0.24710312
970 0.23571312
968 0.66997528
966 0.98587948
964 1.1383346
962 1.1552482
960 1.0820385
958 0.96215504
956 0.829229
954 0.68557823
952 0.52861476
950 0.36602217
948 0.21241455
946 0.09737961
944 0.038544554
942 -0.0019300282
940 -0.060641114
938 -0.1203931
936 -0.15867315
934 -0.18226816
932 -0.20922269
930 -0.27197662
928 -0.40435153
926 -0.63154495
924 -0.95667779
922 -1.3085287
920 -1.6038183
918 -1.7831485
916 -1.81674
914 -1.7635067
912 -1.7026114
910 -1.7047701
908 -1.8224995
906 -2.0442986
904 -2.3377943
902 -2.6512334
900 -2.9385388
898 -3.1967387
896 -3.4335001
