Image.
>Pix99999.
  .
5555
5555
2300
900
5555
2
1
0
701
5555
1.3354000e-001
1.3631602e-001
1.3909206e-001
1.4186808e-001
1.4465405e-001
1.4743014e-001
1.5020618e-001
1.5298219e-001
1.5575823e-001
1.5853426e-001
1.6132013e-001
1.6409631e-001
1.6687235e-001
1.6963856e-001
1.7243400e-001
1.7524958e-001
1.7798737e-001
1.8061614e-001
1.8353467e-001
1.8685934e-001
1.8911628e-001
1.8987839e-001
1.9458789e-001
2.0485632e-001
2.0047766e-001
1.6109250e-001
9.0292141e-002
3.4045167e-003
-6.3848563e-002
-8.0589496e-002
-5.8381628e-002
-1.6169669e-002
4.6281751e-002
1.3068749e-001
2.2193746e-001
3.0137348e-001
3.5582194e-001
3.7814692e-001
3.7896574e-001
3.7442687e-001
3.8193855e-001
4.1573656e-001
4.7590199e-001
5.5577511e-001
6.3843036e-001
7.0373154e-001
7.3069394e-001
7.0117986e-001
6.0942972e-001
4.6069878e-001
2.8922713e-001
1.3577667e-001
3.0993830e-002
-3.6818080e-003
2.9429246e-002
1.1973166e-001
2.5340402e-001
4.1215059e-001
5.6292230e-001
6.7179388e-001
7.2055113e-001
7.0594156e-001
6.6455197e-001
6.4053440e-001
6.5577561e-001
7.1559435e-001
7.8897947e-001
8.4030098e-001
8.6399513e-001
8.6659890e-001
8.6128700e-001
8.5998911e-001
8.6129159e-001
8.6165601e-001
8.6785054e-001
8.8667822e-001
9.0991443e-001
9.2684460e-001
9.3835878e-001
9.5129919e-001
9.7960055e-001
1.0359756e+000
1.1186491e+000
1.2197516e+000
1.3285359e+000
1.4289421e+000
1.4873132e+000
1.4712067e+000
1.3793474e+000
1.2302597e+000
1.0759386e+000
9.7342390e-001
9.5185447e-001
1.0159640e+000
1.1156014e+000
1.1861107e+000
1.1884422e+000
1.1091824e+000
9.9868041e-001
9.2292333e-001
9.1295004e-001
9.7313809e-001
1.0569379e+000
1.1066846e+000
1.0983703e+000
1.0311999e+000
9.4252062e-001
8.7697804e-001
8.5022676e-001
8.6124247e-001
8.9054483e-001
9.1751492e-001
9.4567561e-001
9.8760831e-001
1.0517257e+000
1.1385993e+000
1.2249982e+000
1.2816757e+000
1.2935257e+000
1.2569330e+000
1.1890628e+000
1.1141506e+000
1.0499883e+000
1.0091136e+000
9.9457020e-001
1.0040572e+000
1.0292959e+000
1.0604943e+000
1.0913863e+000
1.1177192e+000
1.1378714e+000
1.1512356e+000
1.1577194e+000
1.1585380e+000
1.1610066e+000
1.1735457e+000
1.1986377e+000
1.2339998e+000
1.2685169e+000
1.2868208e+000
1.2729000e+000
1.2149562e+000
1.1214466e+000
1.0119561e+000
9.1585273e-001
8.6169511e-001
8.5795295e-001
9.0253186e-001
9.8891425e-001
1.1080226e+000
1.2455857e+000
1.3822275e+000
1.4861845e+000
1.5266701e+000
1.5010000e+000
1.4229851e+000
1.3172703e+000
1.2099864e+000
1.1133171e+000
1.0350631e+000
9.9402314e-001
1.0105999e+000
1.0871021e+000
1.2091862e+000
1.3320155e+000
1.4032292e+000
1.4013954e+000
1.3295420e+000
1.2249761e+000
1.1348042e+000
1.0792929e+000
1.0598383e+000
1.0605189e+000
1.0609225e+000
1.0564920e+000
1.0522500e+000
1.0583366e+000
1.0837121e+000
1.1237148e+000
1.1660345e+000
1.1970800e+000
1.2060277e+000
1.1956000e+000
1.1777409e+000
1.1727999e+000
1.2022285e+000
1.2730849e+000
1.3775662e+000
1.4789411e+000
1.5327669e+000
1.5272628e+000
1.4726087e+000
1.3908726e+000
1.3034525e+000
1.2053517e+000
1.0822043e+000
9.4374883e-001
8.1725031e-001
7.4321061e-001
7.5907171e-001
8.6208284e-001
1.0185475e+000
1.1614066e+000
1.2166690e+000
1.1552229e+000
9.8676044e-001
7.7176678e-001
5.8753699e-001
4.6725181e-001
4.1254017e-001
4.1034800e-001
4.4587076e-001
5.2275932e-001
6.4511716e-001
7.6817000e-001
8.2395500e-001
7.7541602e-001
6.2159729e-001
4.2615178e-001
2.7724373e-001
2.0826885e-001
2.1061596e-001
2.5345856e-001
3.0004188e-001
3.3068159e-001
3.3907714e-001
3.2711047e-001
3.0195132e-001
2.7715793e-001
2.7019155e-001
2.9982501e-001
3.8274100e-001
5.2414668e-001
7.1274650e-001
8.9616078e-001
1.0047461e+000
1.0057539e+000
9.0344507e-001
7.4956298e-001
6.1627197e-001
5.4261029e-001
5.3591442e-001
5.7231760e-001
6.1639827e-001
6.6022414e-001
7.1295297e-001
7.6950109e-001
8.1276834e-001
8.2489198e-001
7.9746646e-001
7.6082069e-001
7.6076114e-001
7.9502839e-001
8.2881230e-001
8.4255600e-001
8.3462369e-001
8.1729281e-001
8.1021827e-001
8.3150119e-001
8.9891928e-001
1.0382900e+000
1.2622740e+000
1.4967712e+000
1.6144230e+000
1.5274458e+000
1.2125100e+000
7.7616102e-001
3.8744798e-001
9.7697489e-002
-1.2786539e-001
-2.7635941e-001
-2.9329649e-001
-1.5136923e-001
1.3112357e-001
4.4659904e-001
6.4134711e-001
6.3507956e-001
4.3756086e-001
1.8442830e-001
6.6869110e-002
1.3947999e-001
3.2562497e-001
4.7083205e-001
4.1190398e-001
1.4278026e-001
-2.0511156e-001
-4.4509101e-001
-3.8254431e-001
1.0210863e-001
1.0193045e+000
2.1556373e+000
3.1697874e+000
3.8932166e+000
4.3563957e+000
4.7747097e+000
5.4678001e+000
6.6745548e+000
8.5275068e+000
1.1047574e+001
1.4136730e+001
1.7489857e+001
2.0689341e+001
2.3524086e+001
2.6038277e+001
2.8574314e+001
3.1656807e+001
3.5652466e+001
4.0639503e+001
4.6105400e+001
5.1211468e+001
5.5759815e+001
6.0153259e+001
6.4754967e+001
6.9703072e+001
7.4709435e+001
7.9211845e+001
8.2949402e+001
8.5987190e+001
8.8446121e+001
9.0434624e+001
9.2024857e+001
9.3241959e+001
9.4031876e+001
9.4281532e+001
9.3900978e+001
9.2877464e+001
9.1416489e+001
8.9861794e+001
8.8325882e+001
8.6664490e+001
8.4648415e+001
8.2060707e+001
7.8892166e+001
7.5312744e+001
7.1441483e+001
6.7308670e+001
6.2915478e+001
5.8274082e+001
5.3495575e+001
4.8780571e+001
4.4309227e+001
4.0216549e+001
3.6606113e+001
3.3541080e+001
3.0988537e+001
2.8833771e+001
2.6979643e+001
2.5372589e+001
2.4011480e+001
2.2932171e+001
2.2149000e+001
2.1642538e+001
2.1368492e+001
2.1272581e+001
2.1337637e+001
2.1586992e+001
2.2043148e+001
2.2724960e+001
2.3680246e+001
2.4986586e+001
2.6715914e+001
2.8909626e+001
3.1503616e+001
3.4329144e+001
3.7221161e+001
4.0050163e+001
4.2738388e+001
4.5293190e+001
4.7917873e+001
5.0913513e+001
5.4118885e+001
5.6894260e+001
5.8773293e+001
5.9650501e+001
5.9771801e+001
5.9627357e+001
5.9433136e+001
5.9026913e+001
5.8116821e+001
5.6423855e+001
5.4014656e+001
5.1326027e+001
4.8750813e+001
4.6509945e+001
4.4631996e+001
4.2962250e+001
4.1308739e+001
3.9496071e+001
3.7436092e+001
3.5154934e+001
3.2796700e+001
3.0577621e+001
2.8528601e+001
2.6448668e+001
2.4132393e+001
2.1471628e+001
1.8611547e+001
1.5939529e+001
1.3688123e+001
1.1834060e+001
1.0260457e+001
8.8172674e+000
7.4198322e+000
6.0666003e+000
4.7426834e+000
3.4111257e+000
2.1142781e+000
9.9561244e-001
1.9574997e-001
-1.7495303e-001
-1.0125428e-002
7.6509154e-001
2.0390201e+000
3.4914842e+000
4.8735614e+000
6.1002951e+000
7.1960807e+000
8.2743101e+000
9.4279184e+000
1.0676455e+001
1.1912001e+001
1.2898726e+001
1.3469349e+001
1.3595182e+001
1.3344640e+001
1.2865607e+001
1.2290534e+001
1.1703310e+001
1.1144783e+001
1.0605718e+001
1.0029606e+001
9.3213177e+000
8.4565010e+000
7.5204439e+000
6.6378860e+000
5.9419236e+000
5.4948521e+000
5.2564173e+000
5.1577420e+000
5.1274629e+000
5.1289144e+000
5.1758571e+000
5.2975855e+000
5.5241504e+000
5.8552856e+000
6.2464557e+000
6.6412272e+000
6.9828215e+000
7.2301960e+000
7.3663011e+000
7.3864431e+000
7.2972221e+000
7.1142683e+000
6.8615007e+000
6.5571418e+000
6.2093801e+000
5.8310318e+000
5.4446220e+000
5.0710921e+000
4.7219596e+000
4.3847885e+000
4.0170655e+000
3.5856740e+000
3.0850108e+000
2.5300708e+000
1.9564750e+000
1.3934423e+000
8.5558510e-001
3.6881155e-001
-1.9465476e-002
-2.6227042e-001
-3.2338440e-001
-1.8426207e-001
1.4706680e-001
6.4244276e-001
1.2524822e+000
1.9310640e+000
2.6429572e+000
3.3433146e+000
3.9659910e+000
4.4325171e+000
4.6607494e+000
4.6206670e+000
4.3702269e+000
3.9921966e+000
3.5747378e+000
3.1913576e+000
2.8857148e+000
2.6763194e+000
2.5485306e+000
2.4690201e+000
2.3870854e+000
2.2584920e+000
2.0597408e+000
1.7919199e+000
1.4910864e+000
1.2057338e+000
9.9016804e-001
8.8574737e-001
9.0836287e-001
1.0598000e+000
1.3278933e+000
1.6998774e+000
2.1662068e+000
2.7079921e+000
3.2875135e+000
3.8546216e+000
4.3478532e+000
4.7231069e+000
4.9758310e+000
5.1288586e+000
5.2372251e+000
5.3548846e+000
5.5187416e+000
5.7524509e+000
6.0621719e+000
6.4494238e+000
6.9143534e+000
7.4571943e+000
8.0792818e+000
8.7849541e+000
9.5837498e+000
1.0484709e+001
1.1492361e+001
1.2601177e+001
1.3786500e+001
1.5008512e+001
1.6205978e+001
1.7313469e+001
1.8257298e+001
1.8963785e+001
1.9361177e+001
1.9389999e+001
1.9017578e+001
1.8252930e+001
1.7171644e+001
1.5870423e+001
1.4452125e+001
1.3017082e+001
1.1663030e+001
1.0479925e+001
9.5481863e+000
8.9204712e+000
8.5944567e+000
8.5314016e+000
8.6426191e+000
8.8255243e+000
8.9751263e+000
8.9991856e+000
8.8361530e+000
8.4538279e+000
7.8690977e+000
7.1249599e+000
6.2951632e+000
5.4554787e+000
4.6693077e+000
3.9853399e+000
3.4255338e+000
2.9972165e+000
2.6890411e+000
2.4832399e+000
2.3580673e+000
2.2908409e+000
2.2592511e+000
2.2430439e+000
2.2263784e+000
2.2001317e+000
2.1682110e+000
2.1343851e+000
2.0949924e+000
2.0395114e+000
1.9462239e+000
1.7987000e+000
1.5979297e+000
1.3539200e+000
1.0875089e+000
8.1928450e-001
5.6233048e-001
3.1769398e-001
6.5435901e-002
-1.9590743e-001
-4.1356337e-001
-5.3209615e-001
-5.2304667e-001
-3.8668239e-001
-1.7656474e-001
4.2731255e-002
2.1308701e-001
2.9781920e-001
3.0940649e-001
2.7719200e-001
2.4209483e-001
2.3828441e-001
2.7547139e-001
3.4990612e-001
4.3945199e-001
5.2322525e-001
5.9555405e-001
6.6402686e-001
7.5990301e-001
9.1416001e-001
1.1421295e+000
1.4530979e+000
1.8499148e+000
2.3280852e+000
2.8665056e+000
3.4238081e+000
3.9170220e+000
4.2652273e+000
4.4225030e+000
4.3739643e+000
4.1652918e+000
3.8602233e+000
3.5303764e+000
3.2407398e+000
3.0305371e+000
2.9176240e+000
2.8782949e+000
2.8817997e+000
2.9066722e+000
2.9410999e+000
2.9928174e+000
3.0676379e+000
3.1514139e+000
3.2261193e+000
3.2762358e+000
3.2971165e+000
3.3128333e+000
3.3539822e+000
3.4490430e+000
3.6076300e+000
3.7863674e+000
3.9246869e+000
3.9523726e+000
3.8228228e+000
3.5669823e+000
3.2407019e+000
2.9170480e+000
2.6474986e+000
2.4067931e+000
2.1585028e+000
1.8891112e+000
1.6069177e+000
1.3670900e+000
1.2101281e+000
1.0962662e+000
9.7163653e-001
8.0105191e-001
5.7380521e-001
3.4116468e-001
1.5189423e-001
-1.3229400e-003
-1.3857760e-001
-2.7591074e-001
-4.1276878e-001
-4.9936092e-001
-4.8950732e-001
-3.8901722e-001
-2.3062208e-001
-9.2354298e-002
-4.1740373e-002
-7.4190095e-002
-1.5737286e-001
-2.2653052e-001
-2.2501594e-001
-1.5065511e-001
-1.7048135e-002
1.5459025e-001
3.4552312e-001
5.5178112e-001
7.6623613e-001
9.5775384e-001
1.0809441e+000
1.0622325e+000
8.5709047e-001
5.4700041e-001
2.3596263e-001
-3.7279725e-003
-1.1142273e-001
-4.0911242e-002
2.1883258e-001
5.6470692e-001
8.8911057e-001
1.1719820e+000
1.4126269e+000
1.6004372e+000
1.7321360e+000
1.8390601e+000
1.9615943e+000
2.1431029e+000
2.4040086e+000
2.6764643e+000
2.8905799e+000
3.0547099e+000
3.2060077e+000
3.4174914e+000
3.7524636e+000
4.2007637e+000
4.7282772e+000
5.2794347e+000
5.7932000e+000
