Image.
>Pix99999.
  .
5555
5555
2300
900
5555
2
1
0
701
5555
1.6836001e-002
1.7186498e-002
1.7535999e-002
1.7886495e-002
1.8236995e-002
1.8586500e-002
1.8936992e-002
1.9287491e-002
1.9637987e-002
1.9987499e-002
2.0337986e-002
2.0690452e-002
2.1039017e-002
2.1382611e-002
2.1738861e-002
2.2111986e-002
2.2440502e-002
2.2705588e-002
2.3137763e-002
2.3805680e-002
2.3850229e-002
2.3018740e-002
2.4503004e-002
2.9252313e-002
2.5396559e-002
6.2375143e-003
2.0551887e-004
3.4076873e-002
8.8317923e-002
1.3376120e-001
1.5537585e-001
1.4731452e-001
1.2400669e-001
1.0330973e-001
9.3414649e-002
9.8334104e-002
1.1671859e-001
1.4501560e-001
1.7687851e-001
2.0572101e-001
2.2712000e-001
2.3839329e-001
2.4128540e-001
2.3883955e-001
2.3401241e-001
2.3057471e-001
2.3573214e-001
2.5628769e-001
2.9303184e-001
3.4262291e-001
3.9241213e-001
4.2852199e-001
4.4382709e-001
4.3581972e-001
4.1213778e-001
3.8360915e-001
3.6114600e-001
3.5463178e-001
3.6983812e-001
4.0912393e-001
4.6635172e-001
5.3069836e-001
5.8353555e-001
6.0748476e-001
6.0042334e-001
5.6901282e-001
5.3479683e-001
5.1991278e-001
5.2905387e-001
5.5791599e-001
5.8987600e-001
6.0755700e-001
6.0693812e-001
5.9037799e-001
5.6714237e-001
5.4701287e-001
5.3260720e-001
5.2404338e-001
5.2151722e-001
5.2629572e-001
5.4360795e-001
5.7777995e-001
6.2353492e-001
6.7184341e-001
7.1228957e-001
7.3662972e-001
7.4708521e-001
7.4831891e-001
7.3918623e-001
7.1710473e-001
6.8294382e-001
6.4166206e-001
6.0954958e-001
6.0337818e-001
6.2461495e-001
6.6635156e-001
7.1151918e-001
7.4194616e-001
7.4996799e-001
7.3389786e-001
6.9951999e-001
6.5524656e-001
6.0915077e-001
5.6856012e-001
5.3855646e-001
5.2279699e-001
5.2272868e-001
5.3768474e-001
5.6179267e-001
5.8627683e-001
5.9866714e-001
5.8839744e-001
5.5852401e-001
5.1941526e-001
4.8863959e-001
4.8212323e-001
4.9770486e-001
5.2512282e-001
5.5192310e-001
5.6787384e-001
5.7420719e-001
5.7650232e-001
5.7836235e-001
5.8205307e-001
5.8875221e-001
5.9889501e-001
6.1142260e-001
6.2434226e-001
6.3428944e-001
6.3891023e-001
6.4263988e-001
6.5167987e-001
6.6711026e-001
6.8602067e-001
6.9874364e-001
6.9515735e-001
6.7517799e-001
6.4370620e-001
6.0713720e-001
5.7206458e-001
5.4418397e-001
5.2810138e-001
5.2537000e-001
5.3448093e-001
5.4662943e-001
5.5141377e-001
5.4560524e-001
5.3048211e-001
5.1154077e-001
4.9474701e-001
4.8050073e-001
4.6647587e-001
4.5034063e-001
4.3157372e-001
4.1681001e-001
4.1400352e-001
4.2234212e-001
4.3556449e-001
4.4312117e-001
4.3569216e-001
4.1701487e-001
3.9777941e-001
3.9069316e-001
4.0597767e-001
4.4070223e-001
4.8431456e-001
5.2161187e-001
5.3851938e-001
5.3367323e-001
5.1366836e-001
4.9137256e-001
4.7975513e-001
4.8070943e-001
4.8868912e-001
4.9128306e-001
4.7684500e-001
4.5057589e-001
4.2608365e-001
4.1466698e-001
4.2186517e-001
4.3657857e-001
4.4150937e-001
4.2969400e-001
4.0175879e-001
3.6429971e-001
3.2633334e-001
2.9558098e-001
2.7794856e-001
2.7544028e-001
2.8568849e-001
2.9603016e-001
2.9034239e-001
2.6096287e-001
2.0883760e-001
1.5004469e-001
1.0605671e-001
8.7347679e-002
9.4810180e-002
1.1731857e-001
1.3939676e-001
1.5340430e-001
1.5687099e-001
1.4816675e-001
1.2706301e-001
9.9347882e-002
7.4683748e-002
6.4551517e-002
7.8271665e-002
1.1243533e-001
1.5403579e-001
1.8078899e-001
1.6911519e-001
1.1067153e-001
1.1864495e-002
-9.7445652e-002
-1.7842007e-001
-2.1008120e-001
-1.8855619e-001
-1.3252929e-001
-7.1167052e-002
-2.5101742e-002
-6.8158042e-003
-2.1269090e-002
-6.7620769e-002
-1.3675392e-001
-2.1332072e-001
-2.7508429e-001
-3.0034259e-001
-2.8652227e-001
-2.4534896e-001
-1.9726515e-001
-1.6326921e-001
-1.4845674e-001
-1.4524977e-001
-1.3654888e-001
-1.0385249e-001
-4.4343498e-002
3.1659313e-002
1.0263992e-001
1.4327803e-001
1.3831429e-001
8.4091507e-002
-3.5048947e-003
-9.6367098e-002
-1.6540897e-001
-1.8975200e-001
-1.8221226e-001
-1.7699590e-001
-2.0399629e-001
-2.7881098e-001
-3.7740287e-001
-4.5107189e-001
-4.5761961e-001
-3.7298614e-001
-2.2098802e-001
-5.4988705e-002
8.2232758e-002
1.6499104e-001
1.9404359e-001
1.8753600e-001
1.6546743e-001
1.4586502e-001
1.4176977e-001
1.5747464e-001
1.7283720e-001
1.5918279e-001
1.2613100e-001
9.8443277e-002
3.4378275e-002
-1.3671321e-001
-3.8001585e-001
-5.9367329e-001
-7.5114590e-001
-8.8844347e-001
-1.0243127e+000
-1.1564893e+000
-1.2861006e+000
-1.4175700e+000
-1.5440500e+000
-1.6449040e+000
-1.6781800e+000
-1.5968519e+000
-1.3992871e+000
-1.1248176e+000
-8.3327645e-001
-5.8457375e-001
-3.9086217e-001
-2.1472621e-001
3.4827933e-002
4.6924323e-001
1.1285245e+000
1.9782686e+000
2.9198852e+000
3.8358178e+000
4.7118421e+000
5.6352901e+000
6.7594771e+000
8.2949877e+000
1.0540225e+001
1.3756531e+001
1.7722713e+001
2.1843180e+001
2.5628210e+001
2.8829893e+001
3.1640966e+001
3.4571205e+001
3.8052917e+001
4.2280655e+001
4.6877998e+001
5.1122707e+001
5.4805630e+001
5.8243320e+001
6.1863960e+001
6.6017426e+001
7.0628288e+001
7.5280205e+001
7.9656326e+001
8.3604126e+001
8.7066841e+001
9.0049217e+001
9.2575768e+001
9.4675751e+001
9.6382439e+001
9.7711052e+001
9.8574348e+001
9.8820427e+001
9.8407661e+001
9.7391747e+001
9.5765343e+001
9.3451195e+001
9.0401215e+001
8.6645256e+001
8.2401283e+001
7.8008766e+001
7.3617950e+001
6.9180916e+001
6.4654442e+001
6.0056015e+001
5.5502960e+001
5.1184017e+001
4.7225086e+001
4.3672390e+001
4.0543583e+001
3.7834900e+001
3.5499367e+001
3.3458302e+001
3.1660872e+001
3.0093760e+001
2.8758514e+001
2.7660601e+001
2.6791500e+001
2.6128309e+001
2.5646635e+001
2.5324558e+001
2.5144146e+001
2.5089958e+001
2.5143126e+001
2.5285650e+001
2.5525593e+001
2.5898188e+001
2.6437456e+001
2.7164473e+001
2.8068096e+001
2.9105644e+001
3.0229839e+001
3.1395756e+001
3.2559666e+001
3.3710022e+001
3.5005035e+001
3.6731846e+001
3.8950459e+001
4.1427040e+001
4.3808292e+001
4.5728355e+001
4.7101189e+001
4.8129894e+001
4.8940224e+001
4.9506802e+001
4.9782681e+001
4.9741032e+001
4.9412258e+001
4.8884926e+001
4.8236908e+001
4.7511375e+001
4.6691425e+001
4.5701050e+001
4.4475010e+001
4.2988815e+001
4.1292183e+001
3.9506176e+001
3.7739529e+001
3.6041668e+001
3.4320358e+001
3.2350281e+001
2.9982931e+001
2.7228336e+001
2.4286938e+001
2.1511393e+001
1.9089346e+001
1.6962860e+001
1.5003286e+001
1.3075644e+001
1.1118833e+001
9.1644068e+000
7.2698507e+000
5.5008698e+000
3.9303222e+000
2.6272888e+000
1.6040155e+000
8.1882691e-001
3.0474472e-001
1.8215513e-001
4.7448194e-001
1.0567062e+000
1.7723105e+000
2.4777894e+000
3.0994744e+000
3.6501477e+000
4.1575623e+000
4.6421814e+000
5.1075401e+000
5.5343771e+000
5.8838706e+000
6.1043015e+000
6.1736946e+000
6.1132965e+000
5.9513211e+000
5.7098012e+000
5.3946714e+000
4.9926786e+000
4.4912858e+000
3.8907399e+000
3.2297366e+000
2.5912654e+000
2.0421481e+000
1.6114972e+000
1.3064930e+000
1.1176767e+000
1.0455446e+000
1.1072725e+000
1.3110743e+000
1.6450930e+000
2.0800564e+000
2.5700781e+000
3.0774777e+000
3.5809665e+000
4.0605903e+000
4.4941616e+000
4.8652878e+000
5.1691666e+000
5.4155073e+000
5.6286411e+000
5.8186641e+000
5.9684434e+000
6.0469360e+000
6.0151949e+000
5.8531094e+000
5.5722613e+000
5.1956730e+000
4.7527776e+000
4.2748199e+000
3.7935920e+000
3.3396060e+000
2.9364600e+000
2.5787787e+000
2.2216308e+000
1.8261908e+000
1.3828584e+000
9.2245030e-001
5.2301252e-001
2.4076687e-001
7.8701414e-002
1.3785302e-002
3.1249006e-003
1.4234493e-002
3.8462788e-002
7.3662519e-002
1.1939057e-001
1.7458251e-001
2.3663875e-001
3.0307460e-001
3.7204307e-001
4.4088393e-001
5.0579941e-001
5.6513196e-001
6.2136078e-001
6.7889559e-001
7.4392503e-001
8.2410651e-001
9.2776620e-001
1.0567701e+000
1.2009289e+000
1.3422776e+000
1.4561512e+000
1.5287254e+000
1.5681357e+000
1.5902287e+000
1.6142890e+000
1.6518897e+000
1.7002335e+000
1.7552999e+000
1.8173020e+000
1.8919985e+000
1.9922756e+000
2.1287441e+000
2.3035600e+000
2.5096388e+000
2.7267752e+000
2.9350486e+000
3.1216853e+000
3.2833700e+000
3.4314201e+000
3.5803270e+000
3.7445941e+000
3.9381213e+000
4.1738086e+000
4.4628153e+000
4.8132668e+000
5.2284937e+000
5.7042661e+000
6.2346115e+000
6.8135996e+000
7.4335413e+000
8.0830498e+000
8.7461195e+000
9.3996000e+000
1.0023200e+001
1.0604940e+001
1.1136891e+001
1.1612310e+001
1.2016601e+001
1.2322424e+001
1.2498880e+001
1.2519518e+001
1.2368837e+001
1.2054172e+001
1.1593971e+001
1.1019738e+001
1.0369819e+001
9.6868572e+000
9.0074196e+000
8.3531942e+000
7.7355576e+000
7.1515722e+000
6.5936322e+000
6.0515375e+000
5.5156584e+000
4.9795589e+000
4.4408598e+000
3.9039888e+000
3.3742144e+000
2.8554046e+000
2.3523555e+000
1.8726400e+000
1.4270526e+000
1.0315057e+000
7.0130646e-001
4.4734067e-001
2.7436826e-001
1.7578954e-001
1.3772400e-001
1.3649449e-001
1.4818300e-001
1.5412208e-001
1.4182258e-001
1.1003070e-001
6.2302992e-002
6.8132505e-003
-4.8552819e-002
-9.9052735e-002
-1.4071615e-001
-1.6967991e-001
-1.8244943e-001
-1.7677815e-001
-1.5426460e-001
-1.2426750e-001
-9.3843803e-002
-6.0378984e-002
-1.8614614e-002
3.8238682e-002
1.2323457e-001
2.6199380e-001
4.7147268e-001
7.4089491e-001
1.0531209e+000
1.3919464e+000
1.7440517e+000
2.1012909e+000
2.4506121e+000
2.7642324e+000
3.0205483e+000
3.2223599e+000
3.3923881e+000
3.5854812e+000
3.8504527e+000
4.1998000e+000
4.6215115e+000
5.0644593e+000
5.4825974e+000
5.8667121e+000
6.2236571e+000
6.5771890e+000
6.9455800e+000
7.3214736e+000
7.6912761e+000
8.0404644e+000
8.3548012e+000
8.6219282e+000
8.8355293e+000
9.0046387e+000
9.1423864e+000
9.2629528e+000
9.3711081e+000
9.4464788e+000
9.4692793e+000
9.4378805e+000
9.3590832e+000
9.2504444e+000
9.1239405e+000
8.9697647e+000
8.7770262e+000
8.5473375e+000
8.2870226e+000
8.0071564e+000
7.7138519e+000
7.3973894e+000
7.0515523e+000
6.6906242e+000
6.3356981e+000
6.0113564e+000
5.7325697e+000
5.4836035e+000
5.2428279e+000
4.9933820e+000
4.7227273e+000
4.4271488e+000
4.1042166e+000
3.7485430e+000
3.3606803e+000
2.9626238e+000
2.5815256e+000
2.2445998e+000
1.9691594e+000
1.7419269e+000
1.5396200e+000
1.3316987e+000
1.0963821e+000
8.4379488e-001
5.9406340e-001
3.7410033e-001
2.0132816e-001
5.8037549e-002
-8.2863733e-002
-2.5006253e-001
-4.5908943e-001
-6.8194526e-001
-8.8041687e-001
-1.0185382e+000
-1.0714300e+000
-1.0484717e+000
-9.6699429e-001
-8.4130275e-001
-6.8222785e-001
-4.9090278e-001
-2.6938069e-001
-3.1075209e-002
2.0310703e-001
3.9663398e-001
5.1370215e-001
5.3483838e-001
4.5710456e-001
3.2065436e-001
1.7419183e-001
5.8436990e-002
1.2503499e-003
-7.9921791e-003
9.2396084e-003
2.7175756e-002
2.9443217e-002
3.7096351e-002
7.2745144e-002
1.3082419e-001
1.9686443e-001
2.4949761e-001
2.7186230e-001
2.7001214e-001
2.5931358e-001
2.6819432e-001
3.1475595e-001
3.6582974e-001
3.8297501e-001
3.5632512e-001
2.9646155e-001
2.6512128e-001
3.1879348e-001
4.4409448e-001
6.0249627e-001
7.2550660e-001
7.5476885e-001
7.0186841e-001
5.9591001e-001
