Image.
>Pix99999.
  .
5555
5555
2300
900
5555
2
1
0
701
5555
6.3031999e-004
6.4341124e-004
6.5653247e-004
6.6966366e-004
6.8278488e-004
6.9587637e-004
7.0895773e-004
7.2205882e-004
7.3520950e-004
7.4839027e-004
7.6141371e-004
7.7422836e-004
7.8764942e-004
8.0189481e-004
8.1393961e-004
8.2291866e-004
8.4001460e-004
8.6848129e-004
8.6679298e-004
8.2280551e-004
8.9090114e-004
1.1165832e-003
9.2566933e-004
1.4728625e-004
9.1720454e-004
5.3072525e-003
1.2557547e-002
1.9069711e-002
1.3016640e-002
-1.2558036e-002
-3.5631828e-002
-3.3081766e-002
-1.0722745e-002
1.5611700e-002
2.3531513e-002
-3.8536550e-003
-5.3913053e-002
-1.0779033e-001
-1.5652661e-001
-1.9542056e-001
-2.2490285e-001
-2.4404234e-001
-2.4033600e-001
-2.0496497e-001
-1.5820257e-001
-1.2676494e-001
-1.2769695e-001
-1.6507436e-001
-2.0315360e-001
-2.0307229e-001
-1.6318285e-001
-1.0064080e-001
-6.0943451e-002
-8.7466128e-002
-1.7950705e-001
-3.1609216e-001
-4.5138282e-001
-5.4010326e-001
-5.7069063e-001
-5.4850864e-001
-5.0270426e-001
-4.6492645e-001
-4.4624305e-001
-4.4822532e-001
-4.6211681e-001
-4.7812128e-001
-4.9572358e-001
-5.1742995e-001
-5.4518211e-001
-5.7976043e-001
-6.1840296e-001
-6.5668935e-001
-6.8819302e-001
-7.0710671e-001
-7.1280330e-001
-7.0876002e-001
-7.0771188e-001
-7.2362548e-001
-7.6231575e-001
-8.2360846e-001
-8.9504319e-001
-9.6187854e-001
-1.0175321e+000
-1.0591571e+000
-1.0860760e+000
-1.0970072e+000
-1.0854691e+000
-1.0479708e+000
-1.0020796e+000
-9.7191834e-001
-9.7536016e-001
-1.0224217e+000
-1.1011308e+000
-1.1942918e+000
-1.2955492e+000
-1.4037664e+000
-1.5191228e+000
-1.6388160e+000
-1.7462300e+000
-1.8224738e+000
-1.8610572e+000
-1.8639175e+000
-1.8482229e+000
-1.8349392e+000
-1.8364205e+000
-1.8587600e+000
-1.8977309e+000
-1.9454254e+000
-1.9964544e+000
-2.0477962e+000
-2.1020727e+000
-2.1637101e+000
-2.2353561e+000
-2.3180432e+000
-2.4092195e+000
-2.5044451e+000
-2.5987897e+000
-2.6876915e+000
-2.7681661e+000
-2.8383548e+000
-2.8968971e+000
-2.9426634e+000
-2.9734027e+000
-2.9879441e+000
-2.9913166e+000
-2.9906964e+000
-2.9909921e+000
-2.9943743e+000
-2.9961624e+000
-2.9906900e+000
-2.9785700e+000
-2.9641509e+000
-2.9538538e+000
-2.9526670e+000
-2.9563577e+000
-2.9567964e+000
-2.9481595e+000
-2.9299340e+000
-2.9192560e+000
-2.9366741e+000
-2.9845200e+000
-3.0520785e+000
-3.1097646e+000
-3.1279614e+000
-3.1120079e+000
-3.0843279e+000
-3.0692778e+000
-3.0849910e+000
-3.1230776e+000
-3.1628561e+000
-3.1838500e+000
-3.1722417e+000
-3.1400738e+000
-3.1113577e+000
-3.1089320e+000
-3.1491401e+000
-3.2249582e+000
-3.3164947e+000
-3.3971426e+000
-3.4413180e+000
-3.4388628e+000
-3.3914480e+000
-3.3190968e+000
-3.2476001e+000
-3.1921721e+000
-3.1589530e+000
-3.1398129e+000
-3.1224988e+000
-3.1040120e+000
-3.0873628e+000
-3.0786543e+000
-3.0816343e+000
-3.0857401e+000
-3.0751565e+000
-3.0438976e+000
-2.9952750e+000
-2.9479651e+000
-2.9236493e+000
-2.9230285e+000
-2.9337525e+000
-2.9372973e+000
-2.9165659e+000
-2.8712640e+000
-2.8110747e+000
-2.7490919e+000
-2.6981742e+000
-2.6649930e+000
-2.6514907e+000
-2.6542737e+000
-2.6661739e+000
-2.6754372e+000
-2.6697197e+000
-2.6451011e+000
-2.6044519e+000
-2.5602942e+000
-2.5272508e+000
-2.5085440e+000
-2.4980767e+000
-2.4788907e+000
-2.4329357e+000
-2.3617284e+000
-2.2803328e+000
-2.2114666e+000
-2.1761601e+000
-2.1726720e+000
-2.1850607e+000
-2.1934814e+000
-2.1789014e+000
-2.1314046e+000
-2.0472136e+000
-1.9265100e+000
-1.7746696e+000
-1.6138903e+000
-1.4772313e+000
-1.4027666e+000
-1.4203650e+000
-1.5136771e+000
-1.6395730e+000
-1.7596546e+000
-1.8468297e+000
-1.8998230e+000
-1.9287964e+000
-1.9285251e+000
-1.8853046e+000
-1.7981560e+000
-1.6786357e+000
-1.5552304e+000
-1.4610293e+000
-1.4058080e+000
-1.3805287e+000
-1.3611686e+000
-1.3201630e+000
-1.2476081e+000
-1.1511508e+000
-1.0618119e+000
-1.0177257e+000
-1.0278274e+000
-1.0767534e+000
-1.1319140e+000
-1.1568809e+000
-1.1376972e+000
-1.0786542e+000
-9.9668270e-001
-9.1263497e-001
-8.3645922e-001
-7.7009249e-001
-7.1489853e-001
-6.7085660e-001
-6.2917775e-001
-5.7560104e-001
-4.9816716e-001
-3.9476082e-001
-2.9755521e-001
-2.5285327e-001
-2.6640174e-001
-3.1196371e-001
-3.5720423e-001
-3.7335509e-001
-3.4974369e-001
-2.8719750e-001
-1.8145429e-001
-2.9722091e-002
1.4039661e-001
2.7970141e-001
3.4130263e-001
2.9820320e-001
1.9422080e-001
1.0687845e-001
3.8798116e-002
-5.3371470e-002
-1.4582312e-001
-1.6940387e-001
-1.0785041e-001
3.8450509e-003
1.0780512e-001
1.4441143e-001
9.4445899e-002
-2.2564691e-002
-1.5274885e-001
-2.3312335e-001
-2.5682998e-001
-2.6294655e-001
-2.9441214e-001
-3.7909263e-001
-4.9107102e-001
-5.6432426e-001
-5.3422725e-001
-3.4838408e-001
2.1080002e-002
5.7025647e-001
1.2300099e+000
1.8908372e+000
2.4782634e+000
2.9766595e+000
3.4836421e+000
4.1813574e+000
5.2556400e+000
6.8781180e+000
9.2002831e+000
1.2286026e+001
1.5849999e+001
1.9369419e+001
2.2518677e+001
2.5243782e+001
2.7817724e+001
3.0714472e+001
3.4240810e+001
3.8431953e+001
4.2861801e+001
4.6866158e+001
5.0318630e+001
5.3603302e+001
5.7128849e+001
6.1160393e+001
6.5585281e+001
7.0007553e+001
7.4154739e+001
7.7925339e+001
8.1285736e+001
8.4244293e+001
8.6865799e+001
8.9251907e+001
9.1468460e+001
9.3504524e+001
9.5156151e+001
9.6109749e+001
9.6298737e+001
9.5888710e+001
9.4981232e+001
9.3562370e+001
9.1545959e+001
8.8834946e+001
8.5506996e+001
8.1787827e+001
7.7822884e+001
7.3648849e+001
6.9284882e+001
6.4769386e+001
6.0208965e+001
5.5764549e+001
5.1558769e+001
4.7664505e+001
4.4139874e+001
4.1025391e+001
3.8301125e+001
3.5895279e+001
3.3752941e+001
3.1850832e+001
3.0185076e+001
2.8762140e+001
2.7572500e+001
2.6588272e+001
2.5782068e+001
2.5132467e+001
2.4635881e+001
2.4305235e+001
2.4150057e+001
2.4178251e+001
2.4416420e+001
2.4904926e+001
2.5654428e+001
2.6632450e+001
2.7758390e+001
2.8919605e+001
3.0061800e+001
3.1199965e+001
3.2361938e+001
3.3605610e+001
3.5141075e+001
3.7265453e+001
3.9924442e+001
4.2671379e+001
4.5062000e+001
4.6807243e+001
4.7964638e+001
4.8904503e+001
4.9846714e+001
5.0752445e+001
5.1450439e+001
5.1706905e+001
5.1429657e+001
5.0714390e+001
4.9746452e+001
4.8744804e+001
4.7805943e+001
4.6875153e+001
4.5870132e+001
4.4716496e+001
4.3368473e+001
4.1823040e+001
4.0143730e+001
3.8436455e+001
3.6688961e+001
3.4743546e+001
3.2437664e+001
2.9680094e+001
2.6614424e+001
2.3616686e+001
2.0927429e+001
1.8554409e+001
1.6401571e+001
1.4319844e+001
1.2225020e+001
1.0126801e+001
8.0566034e+000
6.0567007e+000
4.2131119e+000
2.6510336e+000
1.4346395e+000
5.5843323e-001
9.5043853e-002
1.9414607e-001
8.0653119e-001
1.6298680e+000
2.4285426e+000
3.1324344e+000
3.7560561e+000
4.3725066e+000
5.0373878e+000
5.7553015e+000
6.4584999e+000
7.0109491e+000
7.3276114e+000
7.4141984e+000
7.3154263e+000
7.0989609e+000
6.8196359e+000
6.5061359e+000
6.1672692e+000
5.7899265e+000
5.3419156e+000
4.7814884e+000
4.1181617e+000
3.4336705e+000
2.8197081e+000
2.3527186e+000
2.0662520e+000
1.9376686e+000
1.9285026e+000
1.9975042e+000
2.1154001e+000
2.2726810e+000
2.4734037e+000
2.7331011e+000
3.0606508e+000
3.4508770e+000
3.8901665e+000
4.3574653e+000
4.8323159e+000
5.2967081e+000
5.7290502e+000
6.1011553e+000
6.3807640e+000
6.5338774e+000
6.5397496e+000
6.4003100e+000
6.1384721e+000
5.7994962e+000
5.4252038e+000
5.0431533e+000
4.6661229e+000
4.2901034e+000
3.9137061e+000
3.5435600e+000
3.1797767e+000
2.8091536e+000
2.4106572e+000
1.9608672e+000
1.4656291e+000
9.7658080e-001
5.5240786e-001
2.4220026e-001
6.5373063e-002
-8.3799451e-004
1.8651988e-002
1.1141804e-001
2.7296358e-001
5.0295258e-001
7.7793431e-001
1.0376294e+000
1.2257286e+000
1.3105458e+000
1.2944194e+000
1.2244730e+000
1.1471171e+000
1.0911314e+000
1.0813555e+000
1.1399711e+000
1.2751532e+000
1.4708927e+000
1.6939800e+000
1.8942207e+000
2.0325921e+000
2.0970006e+000
2.0933874e+000
2.0473478e+000
1.9876217e+000
1.9394771e+000
1.9213510e+000
1.9406254e+000
1.9983286e+000
2.0892401e+000
2.2094526e+000
2.3593495e+000
2.5384080e+000
2.7422957e+000
2.9610546e+000
3.1763527e+000
3.3721485e+000
3.5410922e+000
3.6860228e+000
3.8245230e+000
3.9759035e+000
4.1552114e+000
4.3700652e+000
4.6169605e+000
4.8936725e+000
5.2048469e+000
5.5590878e+000
5.9688740e+000
6.4422455e+000
6.9769006e+000
7.5644059e+000
8.1897182e+000
8.8363352e+000
9.4889755e+000
1.0134144e+001
1.0761263e+001
1.1356846e+001
1.1899211e+001
1.2361500e+001
1.2713357e+001
1.2925080e+001
1.2975199e+001
1.2851528e+001
1.2558943e+001
1.2112846e+001
1.1544273e+001
1.0891545e+001
1.0204519e+001
9.5299406e+000
8.9007664e+000
8.3344221e+000
7.8236623e+000
7.3562202e+000
6.9211864e+000
6.5075440e+000
6.1024480e+000
5.6866970e+000
5.2303271e+000
4.7112570e+000
4.1310668e+000
3.5076542e+000
2.8809440e+000
2.2901783e+000
1.7608122e+000
1.3103497e+000
9.4597483e-001
6.7180395e-001
4.8952109e-001
3.9480799e-001
3.7070251e-001
3.9563820e-001
4.4499511e-001
4.9860275e-001
5.4773527e-001
5.8685571e-001
6.1143899e-001
6.1746466e-001
6.0185146e-001
5.6552458e-001
5.1735133e-001
4.6399486e-001
4.0270591e-001
3.2868281e-001
2.3867857e-001
1.3887233e-001
5.5435769e-002
1.0249591e-002
4.5184866e-003
3.9204575e-002
1.2539691e-001
2.6867247e-001
4.5595309e-001
6.7210400e-001
9.0774518e-001
1.1557775e+000
1.4108257e+000
1.6634359e+000
1.8945680e+000
2.0916371e+000
2.2645864e+000
2.4335756e+000
2.6305373e+000
2.8811529e+000
3.1876500e+000
3.5391970e+000
3.9065802e+000
4.2605276e+000
4.5842605e+000
4.8732572e+000
5.1463594e+000
5.4288683e+000
5.7472172e+000
6.1201272e+000
6.5453997e+000
7.0076394e+000
7.4709806e+000
7.8934045e+000
8.2328081e+000
8.4602795e+000
8.5834265e+000
8.6246490e+000
8.6218977e+000
8.6075907e+000
8.5879307e+000
8.5595398e+000
8.5100613e+000
8.4247541e+000
8.2886257e+000
8.0928488e+000
7.8452306e+000
7.5637317e+000
7.2820530e+000
7.0276198e+000
6.7986217e+000
6.5828843e+000
6.3593440e+000
6.1146460e+000
5.8626819e+000
5.6212201e+000
5.3985548e+000
5.1914687e+000
4.9713440e+000
4.7091713e+000
4.3945723e+000
4.0273271e+000
3.6239471e+000
3.2017865e+000
2.7683487e+000
2.3325114e+000
1.9142523e+000
1.5379409e+000
1.2324333e+000
1.0151416e+000
8.6360872e-001
7.4338728e-001
6.1274242e-001
4.4217548e-001
2.4581508e-001
4.6361357e-002
-1.4049429e-001
-3.0715120e-001
-4.6605039e-001
-6.2895602e-001
-7.8956038e-001
-9.3569213e-001
-1.0506045e+000
-1.1190460e+000
-1.1347450e+000
-1.0925857e+000
-9.8541045e-001
-8.1066573e-001
-5.8452880e-001
-3.3317241e-001
-1.0085391e-001
7.1657673e-002
1.7117237e-001
2.0039445e-001
1.9293430e-001
1.8295771e-001
1.7987737e-001
1.8163319e-001
1.6797775e-001
1.2238786e-001
5.7878520e-002
5.1856022e-003
3.1494871e-002
1.8960530e-001
4.4787151e-001
7.4976629e-001
1.0247653e+000
1.2122529e+000
1.3013587e+000
1.2980634e+000
1.2257257e+000
1.1151301e+000
1.0075141e+000
9.3916470e-001
9.1678894e-001
9.3543029e-001
9.7317016e-001
1.0088645e+000
1.0407290e+000
1.0737011e+000
1.1206565e+000
1.1987742e+000
1.3344073e+000
1.5459571e+000
1.8106074e+000
2.0954001e+000
