Image.
>Pix99999.
  .
5555
5555
2300
900
5555
2
1
0
701
5555
1.0563000e-001
1.0782686e-001
1.1002371e-001
1.1222058e-001
1.1442737e-001
1.1662429e-001
1.1882114e-001
1.2101800e-001
1.2321486e-001
1.2541172e-001
1.2760857e-001
1.2980543e-001
1.3200228e-001
1.3419914e-001
1.3639599e-001
1.3860264e-001
1.4078994e-001
1.4295730e-001
1.4519240e-001
1.4749730e-001
1.4959028e-001
1.5135720e-001
1.5396702e-001
1.5775415e-001
1.5843046e-001
1.4726429e-001
1.0289557e-001
1.2805969e-002
-8.5856810e-002
-1.4898303e-001
-1.6107315e-001
-1.2439917e-001
-7.9636939e-002
-6.9785394e-002
-1.0324232e-001
-1.7436750e-001
-2.6184526e-001
-3.4156471e-001
-3.9610037e-001
-4.1102019e-001
-3.7569401e-001
-2.8384835e-001
-1.4226140e-001
3.1595431e-002
1.9285867e-001
2.9580092e-001
3.2469627e-001
2.8362045e-001
2.1933651e-001
1.8068041e-001
1.7213929e-001
1.8010773e-001
1.7466955e-001
1.2972187e-001
5.4407224e-002
-3.2450411e-002
-1.1859848e-001
-1.9678950e-001
-2.7068508e-001
-3.4508398e-001
-4.1515970e-001
-4.7306332e-001
-5.1162440e-001
-5.2705669e-001
-5.2808732e-001
-5.2722639e-001
-5.3540921e-001
-5.5889523e-001
-5.8731037e-001
-6.0661519e-001
-6.1064297e-001
-5.9822017e-001
-5.7706183e-001
-5.5398357e-001
-5.1980388e-001
-4.6053213e-001
-3.6561856e-001
-2.3244159e-001
-8.5630819e-002
4.0349215e-002
1.0990229e-001
9.6528314e-002
1.1690211e-002
-1.1781500e-001
-2.5805241e-001
-3.7745020e-001
-4.6303576e-001
-5.0867283e-001
-5.0823075e-001
-4.5999148e-001
-3.8154444e-001
-2.9931068e-001
-2.4672617e-001
-2.5166288e-001
-3.0913332e-001
-3.9939448e-001
-4.9324954e-001
-5.6284642e-001
-5.9903419e-001
-6.0297638e-001
-5.8849144e-001
-5.7374203e-001
-5.7591432e-001
-6.0746223e-001
-6.6371244e-001
-7.3238051e-001
-7.9749316e-001
-8.4440261e-001
-8.6900532e-001
-8.7268370e-001
-8.6187029e-001
-8.4618360e-001
-8.4083796e-001
-8.6072081e-001
-9.1024083e-001
-9.8721236e-001
-1.0798571e+000
-1.1739719e+000
-1.2593737e+000
-1.3282800e+000
-1.3751286e+000
-1.3970578e+000
-1.3987788e+000
-1.3883612e+000
-1.3736103e+000
-1.3603858e+000
-1.3461280e+000
-1.3264737e+000
-1.3051314e+000
-1.2888012e+000
-1.2830685e+000
-1.2903659e+000
-1.3037223e+000
-1.3137710e+000
-1.3190577e+000
-1.3207879e+000
-1.3174548e+000
-1.3072703e+000
-1.2944826e+000
-1.2874119e+000
-1.3009400e+000
-1.3474034e+000
-1.4167900e+000
-1.4904237e+000
-1.5571285e+000
-1.6107771e+000
-1.6494749e+000
-1.6715150e+000
-1.6684606e+000
-1.6310998e+000
-1.5605286e+000
-1.4646871e+000
-1.3593692e+000
-1.2620424e+000
-1.1820980e+000
-1.1247585e+000
-1.0933828e+000
-1.0894066e+000
-1.1078634e+000
-1.1374451e+000
-1.1523143e+000
-1.1248010e+000
-1.0501103e+000
-9.4039088e-001
-8.3219463e-001
-7.6599276e-001
-7.5132573e-001
-7.7710825e-001
-8.1311756e-001
-8.2700032e-001
-8.1348711e-001
-7.8198355e-001
-7.4333435e-001
-7.0674074e-001
-6.7581797e-001
-6.5257001e-001
-6.4439297e-001
-6.5811133e-001
-6.8501890e-001
-7.0871800e-001
-7.1560484e-001
-6.9741303e-001
-6.5985960e-001
-6.1252367e-001
-5.5035198e-001
-4.5915705e-001
-3.2164195e-001
-1.3073426e-001
7.1847506e-002
2.2413550e-001
2.9130143e-001
2.6581296e-001
1.8483046e-001
1.0128886e-001
3.6097750e-002
-9.5016565e-003
-3.4032520e-002
-3.3430714e-002
-4.4042803e-004
6.8467632e-002
1.5333542e-001
2.2261398e-001
2.5277349e-001
2.3085099e-001
1.6481817e-001
7.4440658e-002
-1.9178797e-002
-9.6777827e-002
-1.4593805e-001
-1.5794730e-001
-1.2308000e-001
-3.2430649e-002
1.1492923e-001
3.0734664e-001
4.9883324e-001
6.2901509e-001
6.6216302e-001
5.8878559e-001
4.4141468e-001
2.7327991e-001
1.2445886e-001
2.4124485e-002
-8.0538675e-004
6.7635946e-002
2.0894578e-001
3.7376037e-001
4.8961914e-001
4.8814309e-001
3.7203017e-001
1.9273338e-001
1.5249658e-002
-9.8961160e-002
-1.2046600e-001
-4.8175637e-002
8.4638365e-002
2.2386500e-001
3.1009176e-001
2.9491150e-001
1.8498440e-001
2.5985595e-002
-1.2190508e-001
-2.0381202e-001
-2.1301691e-001
-1.7522030e-001
-1.1693816e-001
-5.5991150e-002
1.4482390e-002
1.1404064e-001
2.4702281e-001
4.0152121e-001
5.4695928e-001
6.4585125e-001
6.7992002e-001
6.5256786e-001
6.0021007e-001
5.7217109e-001
5.8154577e-001
6.1778051e-001
6.8837130e-001
8.0994469e-001
9.6756059e-001
1.1138507e+000
1.1641251e+000
1.0346295e+000
7.5271416e-001
4.2794931e-001
1.7120603e-001
5.4829881e-002
1.9349949e-002
-5.9405461e-002
-1.7274442e-001
-2.1303833e-001
-1.1828701e-001
1.0811710e-001
3.8270625e-001
5.8072466e-001
6.2806118e-001
5.1646382e-001
3.3578962e-001
2.2111538e-001
2.0712601e-001
2.3565455e-001
2.1085049e-001
4.6176787e-002
-2.2526386e-001
-4.7646257e-001
-5.7786095e-001
-4.2279798e-001
4.2949989e-002
8.1145942e-001
1.7649999e+000
2.7194631e+000
3.5521250e+000
4.2308950e+000
4.8673139e+000
5.6770520e+000
6.8756928e+000
8.6368999e+000
1.1011902e+001
1.3914440e+001
1.7054571e+001
2.0038500e+001
2.2688271e+001
2.5071726e+001
2.7487074e+001
3.0346472e+001
3.3849731e+001
3.7919090e+001
4.2097000e+001
4.5761600e+001
4.8852726e+001
5.1812031e+001
5.5036449e+001
5.8727730e+001
6.2746407e+001
6.6727150e+001
7.0503227e+001
7.4123390e+001
7.7644447e+001
8.1100800e+001
8.4546288e+001
8.8027328e+001
9.1456879e+001
9.4584396e+001
9.6946442e+001
9.8025856e+001
9.7840019e+001
9.6870384e+001
9.5431648e+001
9.3571548e+001
9.1193947e+001
8.8167274e+001
8.4599213e+001
8.0803894e+001
7.6977463e+001
7.3147713e+001
6.9259636e+001
6.5232040e+001
6.1077999e+001
5.6906693e+001
5.2839428e+001
4.8991173e+001
4.5468273e+001
4.2352451e+001
3.9641296e+001
3.7256435e+001
3.5128986e+001
3.3221252e+001
3.1530487e+001
3.0077097e+001
2.8862499e+001
2.7862289e+001
2.7031673e+001
2.6316872e+001
2.5694786e+001
2.5177778e+001
2.4797079e+001
2.4597450e+001
2.4628149e+001
2.4934599e+001
2.5522629e+001
2.6345901e+001
2.7306892e+001
2.8276987e+001
2.9188400e+001
3.0048479e+001
3.0887800e+001
3.1778929e+001
3.2959972e+001
3.4767216e+001
3.7191059e+001
3.9824112e+001
4.2230019e+001
4.4094788e+001
4.5443558e+001
4.6617107e+001
4.7826481e+001
4.9045715e+001
5.0113823e+001
5.0796097e+001
5.0973114e+001
5.0690411e+001
5.0108360e+001
4.9456059e+001
4.8846207e+001
4.8232651e+001
4.7490986e+001
4.6457306e+001
4.5021091e+001
4.3170883e+001
4.1060329e+001
3.8971466e+001
3.7001961e+001
3.4995316e+001
3.2732136e+001
3.0035572e+001
2.7010321e+001
2.4052328e+001
2.1423786e+001
1.9135981e+001
1.7080713e+001
1.5081182e+001
1.3025148e+001
1.0897300e+001
8.7139511e+000
6.5179834e+000
4.4213381e+000
2.6073155e+000
1.2233037e+000
3.5490936e-001
8.9691341e-002
4.9067006e-001
1.3897998e+000
2.3705630e+000
3.1789536e+000
3.8436821e+000
4.4761858e+000
5.1921563e+000
5.9776831e+000
6.6508770e+000
7.0076399e+000
6.9012146e+000
6.4026060e+000
5.8247957e+000
5.3709316e+000
5.0294213e+000
4.7525125e+000
4.5075431e+000
4.2709589e+000
4.0239139e+000
3.7295272e+000
3.3346486e+000
2.8327646e+000
2.2877326e+000
1.7874480e+000
1.4236901e+000
1.2458646e+000
1.2393750e+000
1.3565432e+000
1.5279533e+000
1.7064772e+000
1.8867130e+000
2.0892246e+000
2.3533514e+000
2.6951075e+000
3.0917273e+000
3.5152454e+000
3.9428952e+000
4.3543401e+000
4.7302790e+000
5.0464501e+000
5.2737365e+000
5.3981113e+000
5.4287844e+000
5.3755484e+000
5.2435198e+000
5.0457587e+000
4.8092918e+000
4.5648732e+000
4.3403444e+000
4.1406832e+000
3.9395587e+000
3.7171841e+000
3.4745705e+000
3.2176943e+000
2.9492707e+000
2.6513779e+000
2.2811410e+000
1.8244858e+000
1.3230418e+000
8.4127027e-001
4.5270020e-001
1.8849458e-001
1.2301177e-002
-1.1215588e-001
-1.9470750e-001
-2.2564040e-001
-1.7967311e-001
-6.5176845e-002
5.2021589e-002
1.0808543e-001
6.9907047e-002
-5.0152682e-002
-1.8055481e-001
-2.6053530e-001
-2.7064985e-001
-2.1011609e-001
-9.3854822e-002
5.8517158e-002
2.2541279e-001
3.8434702e-001
5.1357293e-001
6.0064155e-001
6.4903605e-001
6.6865635e-001
6.7371297e-001
6.7636681e-001
6.8332952e-001
6.9860876e-001
7.2365361e-001
7.5955290e-001
8.0769622e-001
8.6902440e-001
9.4310409e-001
1.0261840e+000
1.1094400e+000
1.1840974e+000
1.2447824e+000
1.2908697e+000
1.3298233e+000
1.3735456e+000
1.4382030e+000
1.5392498e+000
1.6878694e+000
1.8876506e+000
2.1310215e+000
2.4114652e+000
2.7306659e+000
3.0974500e+000
3.5296586e+000
4.0409141e+000
4.6323376e+000
5.2959342e+000
6.0116720e+000
6.7547698e+000
7.4972000e+000
8.2135696e+000
8.8852243e+000
9.4984283e+000
1.0045131e+001
1.0519272e+001
1.0916120e+001
1.1228359e+001
1.1440298e+001
1.1538185e+001
1.1513478e+001
1.1366177e+001
1.1110157e+001
1.0761420e+001
1.0332795e+001
9.8361340e+000
9.2818174e+000
8.6824446e+000
8.0518627e+000
7.4011784e+000
6.7350044e+000
6.0560422e+000
5.3663340e+000
4.6702080e+000
3.9763122e+000
3.2960215e+000
2.6431475e+000
2.0320647e+000
1.4766810e+000
9.8904574e-001
5.7676315e-001
2.4305575e-001
-1.6054273e-002
-2.0640698e-001
-3.3410218e-001
-4.0428200e-001
-4.2051378e-001
-3.9039582e-001
-3.3156076e-001
-2.6642582e-001
-2.2165057e-001
-2.1660168e-001
-2.5109941e-001
-3.1352022e-001
-3.7760907e-001
-4.2048770e-001
-4.3558207e-001
-4.2647097e-001
-4.0994126e-001
-3.9638939e-001
-3.7402570e-001
-3.2410675e-001
-2.2558251e-001
-7.0252739e-002
1.1987276e-001
3.2644486e-001
5.5720973e-001
8.3023226e-001
1.1719308e+000
1.5987160e+000
2.0974879e+000
2.6442468e+000
3.2074771e+000
3.7634959e+000
4.3125162e+000
4.8543510e+000
5.3748116e+000
5.8598909e+000
6.3052592e+000
6.7176986e+000
7.1242452e+000
7.5451035e+000
7.9710464e+000
8.3825712e+000
8.7540932e+000
9.0749283e+000
9.3758211e+000
9.6985865e+000
1.0085436e+001
1.0557863e+001
1.1082472e+001
1.1608591e+001
1.2074688e+001
1.2433434e+001
1.2682060e+001
1.2836371e+001
1.2938570e+001
1.3030949e+001
1.3136785e+001
1.3264463e+001
1.3396571e+001
1.3512800e+001
1.3596980e+001
1.3630251e+001
1.3586610e+001
1.3440200e+001
1.3174904e+001
1.2792966e+001
1.2331329e+001
1.1833194e+001
1.1319285e+001
1.0797069e+001
1.0244658e+001
9.6443586e+000
9.0144138e+000
8.3844299e+000
7.7970529e+000
7.2848511e+000
6.8429146e+000
6.4603724e+000
6.1348362e+000
5.8642998e+000
5.6397977e+000
5.4401989e+000
5.2128277e+000
4.9123917e+000
4.5407486e+000
4.1187801e+000
3.6907065e+000
3.2913079e+000
2.9093051e+000
2.5242350e+000
2.1217275e+000
1.6993046e+000
1.2870609e+000
9.1797209e-001
6.0876572e-001
3.6654258e-001
1.8008542e-001
3.1743020e-002
-1.0210498e-001
-2.4112909e-001
-3.8686144e-001
-5.2564478e-001
-6.0896558e-001
-5.8621967e-001
-4.2895517e-001
-1.2663326e-001
2.8935552e-001
7.7026474e-001
1.2437650e+000
1.6330612e+000
1.8672339e+000
1.8978040e+000
1.7501056e+000
1.4751115e+000
1.1499135e+000
8.4309602e-001
5.7095432e-001
3.3995217e-001
1.6690314e-001
6.1398186e-002
-1.5130378e-003
-4.6761736e-002
-6.8563983e-002
-6.3235663e-002
-6.2160268e-002
-9.4986506e-002
-1.5315418e-001
-2.2316331e-001
-3.0856413e-001
-4.1753480e-001
-5.5962372e-001
-7.3030853e-001
-8.7091309e-001
-9.1968441e-001
-8.5495645e-001
-6.8014121e-001
-4.5670751e-001
-2.4695322e-001
-5.9914619e-002
1.0605149e-001
2.4246398e-001
3.4352031e-001
4.2401433e-001
5.0392997e-001
