Image.
>Pix99999.
  .
5555
5555
2300
900
5555
2
1
0
701
5555
2.1029000e-001
2.1466374e-001
2.1903749e-001
2.2341122e-001
2.2778496e-001
2.3215871e-001
2.3653246e-001
2.4090621e-001
2.4527995e-001
2.4965368e-001
2.5403729e-001
2.5841117e-001
2.6278493e-001
2.6713902e-001
2.7153200e-001
2.7598444e-001
2.8028172e-001
2.8438044e-001
2.8902015e-001
2.9444206e-001
2.9781514e-001
2.9829800e-001
3.0640727e-001
3.2525849e-001
3.1578863e-001
2.4140178e-001
1.2268386e-001
-3.5684849e-003
-1.0010136e-001
-1.4589584e-001
-1.8549800e-001
-2.6380962e-001
-3.5188109e-001
-4.0527847e-001
-4.0335295e-001
-3.4282401e-001
-2.6180077e-001
-2.0507987e-001
-1.9606906e-001
-2.4308537e-001
-3.1950772e-001
-3.9045367e-001
-4.2905980e-001
-4.1918996e-001
-3.7767178e-001
-3.2806072e-001
-2.8062961e-001
-2.4150239e-001
-2.1698417e-001
-2.1415170e-001
-2.4282715e-001
-3.0806717e-001
-3.9215931e-001
-4.7104797e-001
-5.2413875e-001
-5.3641891e-001
-5.1059717e-001
-4.5928422e-001
-4.1234788e-001
-4.0058821e-001
-4.3638572e-001
-5.1946592e-001
-6.2299782e-001
-7.1737772e-001
-7.9691297e-001
-8.6405033e-001
-9.2145342e-001
-9.6651524e-001
-9.7570378e-001
-9.2556167e-001
-8.2193798e-001
-6.8470085e-001
-5.4962176e-001
-4.5262980e-001
-4.0900290e-001
-4.2197216e-001
-4.7508886e-001
-5.4436654e-001
-6.0200882e-001
-6.2555927e-001
-6.1905342e-001
-5.9824580e-001
-5.8822751e-001
-6.1138231e-001
-6.6622436e-001
-7.3885411e-001
-8.0010122e-001
-8.2390845e-001
-8.1884480e-001
-8.0811745e-001
-8.2213432e-001
-8.8443130e-001
-9.8089123e-001
-1.0832462e+000
-1.1629540e+000
-1.1978321e+000
-1.1887572e+000
-1.1468159e+000
-1.0889720e+000
-1.0311463e+000
-9.7808570e-001
-9.3051833e-001
-8.9127153e-001
-8.6375189e-001
-8.4960663e-001
-8.4951699e-001
-8.6312556e-001
-8.9041448e-001
-9.3435413e-001
-9.9402237e-001
-1.0471071e+000
-1.0647923e+000
-1.0266999e+000
-9.2498714e-001
-7.8805435e-001
-6.5732509e-001
-5.6790876e-001
-5.4410589e-001
-5.7878250e-001
-6.5228140e-001
-7.4674487e-001
-8.4730440e-001
-9.4605374e-001
-1.0374682e+000
-1.1138623e+000
-1.1692036e+000
-1.2078381e+000
-1.2383660e+000
-1.2675606e+000
-1.2980239e+000
-1.3192528e+000
-1.3163785e+000
-1.2807388e+000
-1.2109970e+000
-1.1238903e+000
-1.0397072e+000
-9.6259463e-001
-8.8919538e-001
-8.1816602e-001
-7.5527871e-001
-7.3091000e-001
-7.7848744e-001
-8.9745539e-001
-1.0678836e+000
-1.2564086e+000
-1.4291378e+000
-1.5732963e+000
-1.6855240e+000
-1.7597457e+000
-1.7880260e+000
-1.7625929e+000
-1.6837006e+000
-1.5841137e+000
-1.5095443e+000
-1.4942759e+000
-1.5577092e+000
-1.6823463e+000
-1.8342217e+000
-1.9841266e+000
-2.1053193e+000
-2.1681285e+000
-2.1477611e+000
-2.0474782e+000
-1.8932914e+000
-1.7487485e+000
-1.6832064e+000
-1.7152623e+000
-1.8266243e+000
-1.9546039e+000
-2.0287662e+000
-2.0331359e+000
-1.9847572e+000
-1.9173754e+000
-1.8642133e+000
-1.8278283e+000
-1.7974250e+000
-1.7756274e+000
-1.7714725e+000
-1.7873601e+000
-1.8170382e+000
-1.8358742e+000
-1.8168123e+000
-1.7625760e+000
-1.6930491e+000
-1.6317406e+000
-1.5956321e+000
-1.5718722e+000
-1.5378584e+000
-1.4988549e+000
-1.4739920e+000
-1.4717600e+000
-1.4897697e+000
-1.5091628e+000
-1.5110580e+000
-1.5133698e+000
-1.5476693e+000
-1.6132480e+000
-1.6833814e+000
-1.7039474e+000
-1.6192300e+000
-1.4267571e+000
-1.1656960e+000
-9.1941941e-001
-7.8322399e-001
-8.0597913e-001
-9.9158186e-001
-1.2720083e+000
-1.5486851e+000
-1.7588531e+000
-1.8706248e+000
-1.8805300e+000
-1.7991241e+000
-1.6358160e+000
-1.4084804e+000
-1.1826152e+000
-1.0424879e+000
-1.0307811e+000
-1.1506380e+000
-1.3541957e+000
-1.5746279e+000
-1.7853800e+000
-1.9840726e+000
-2.1540694e+000
-2.2669551e+000
-2.2939560e+000
-2.2164929e+000
-2.0575340e+000
-1.8643978e+000
-1.6775520e+000
-1.5218104e+000
-1.3822771e+000
-1.2227650e+000
-1.0203435e+000
-7.7548695e-001
-5.4449743e-001
-4.0660000e-001
-3.8938320e-001
-4.7499186e-001
-6.0775697e-001
-7.2124082e-001
-7.9196429e-001
-8.3001459e-001
-8.6014742e-001
-9.0280694e-001
-9.3126214e-001
-8.9312500e-001
-7.6433820e-001
-5.5231100e-001
-3.0442175e-001
-8.2763344e-002
9.3316242e-002
2.3034674e-001
3.0798519e-001
2.9442516e-001
2.0656754e-001
9.7717121e-002
2.2619346e-002
2.3984844e-002
1.0562841e-001
2.4861519e-001
4.5153770e-001
7.1392107e-001
9.6797663e-001
1.1051069e+000
1.0563805e+000
8.1220090e-001
4.7657880e-001
2.0601845e-001
4.6199370e-002
-4.0100239e-002
-5.7674870e-002
2.2673860e-002
2.2277230e-001
5.3530478e-001
8.6541468e-001
1.0698186e+000
1.0724920e+000
8.8373834e-001
6.4372611e-001
5.4886997e-001
6.4549202e-001
8.3826411e-001
9.5486993e-001
8.2107878e-001
4.4133639e-001
-2.6506290e-002
-3.6993471e-001
-3.7135151e-001
1.1162034e-001
1.1027641e+000
2.3566029e+000
3.4709911e+000
4.2473679e+000
4.7220936e+000
5.1461282e+000
5.8930159e+000
7.2536845e+000
9.3938131e+000
1.2297031e+001
1.5770967e+001
1.9414572e+001
2.2743410e+001
2.5576775e+001
2.8060801e+001
3.0619560e+001
3.3806370e+001
3.7914680e+001
4.2890415e+001
4.8170799e+001
5.2963615e+001
5.7202713e+001
6.1454140e+001
6.6125435e+001
7.1277420e+001
7.6481224e+001
8.1021194e+001
8.4592155e+001
8.7317581e+001
8.9395477e+001
9.1007683e+001
9.2289459e+001
9.3321609e+001
9.4107559e+001
9.4567566e+001
9.4515221e+001
9.3744217e+001
9.2349525e+001
9.0673088e+001
8.8898392e+001
8.6990707e+001
8.4778030e+001
8.2041176e+001
7.8763847e+001
7.5115005e+001
7.1194382e+001
6.6998001e+001
6.2506119e+001
5.7726665e+001
5.2788799e+001
4.7925434e+001
4.3334740e+001
3.9152573e+001
3.5472378e+001
3.2340378e+001
2.9709291e+001
2.7457506e+001
2.5492990e+001
2.3775631e+001
2.2317228e+001
2.1165087e+001
2.0335501e+001
1.9801567e+001
1.9514509e+001
1.9419546e+001
1.9496546e+001
1.9765327e+001
2.0252806e+001
2.0990730e+001
2.2049692e+001
2.3530323e+001
2.5483572e+001
2.7879953e+001
3.0574171e+001
3.3332264e+001
3.6000359e+001
3.8533764e+001
4.0924927e+001
4.3224579e+001
4.5693985e+001
4.8704201e+001
5.2109657e+001
5.5214920e+001
5.7447983e+001
5.8573307e+001
5.8794636e+001
5.8661858e+001
5.8446251e+001
5.8014221e+001
5.7096958e+001
5.5435909e+001
5.3111687e+001
5.0564411e+001
4.8183208e+001
4.6181595e+001
4.4582874e+001
4.3227200e+001
4.1903767e+001
4.0396931e+001
3.8561852e+001
3.6368156e+001
3.3949684e+001
3.1571983e+001
2.9338039e+001
2.7124268e+001
2.4766203e+001
2.2147358e+001
1.9377846e+001
1.6796427e+001
1.4601067e+001
1.2755460e+001
1.1147142e+001
9.6430950e+000
8.1738033e+000
6.7452121e+000
5.3383694e+000
3.9016743e+000
2.4735079e+000
1.2112503e+000
2.8238839e-001
-1.6787779e-001
-1.4829129e-002
8.0430633e-001
2.1225514e+000
3.5305750e+000
4.7520170e+000
5.7629571e+000
6.6669235e+000
7.6509972e+000
8.8564386e+000
1.0310656e+001
1.1857200e+001
1.3154340e+001
1.3952877e+001
1.4197574e+001
1.3967571e+001
1.3455750e+001
1.2825700e+001
1.2166329e+001
1.1527474e+001
1.0919424e+001
1.0306173e+001
9.6115551e+000
8.8085651e+000
7.9529524e+000
7.1394882e+000
6.4813585e+000
6.0409679e+000
5.8002181e+000
5.7009940e+000
5.6599026e+000
5.6214886e+000
5.5830603e+000
5.5818815e+000
5.6902151e+000
5.9557023e+000
6.3755407e+000
6.9134874e+000
7.4986405e+000
8.0404320e+000
8.4352999e+000
8.6030207e+000
8.5109472e+000
8.1892281e+000
7.7403879e+000
7.2556868e+000
6.7831149e+000
6.3442669e+000
5.9360547e+000
5.5540833e+000
5.1970000e+000
4.8454313e+000
4.4551077e+000
3.9963281e+000
3.4723244e+000
2.9068079e+000
2.3401194e+000
1.7935206e+000
1.2572012e+000
7.3748100e-001
2.7773699e-001
-6.2726989e-002
-2.1770827e-001
-1.4839005e-001
1.3631675e-001
6.0538948e-001
1.2112728e+000
1.9130200e+000
2.6814475e+000
3.4619935e+000
4.1554823e+000
4.6538057e+000
4.8622165e+000
4.7581148e+000
4.4312439e+000
3.9904308e+000
3.5328035e+000
3.1407554e+000
2.8721144e+000
2.7509017e+000
2.7504585e+000
2.8116100e+000
2.8449802e+000
2.7857394e+000
2.6251841e+000
2.3841715e+000
2.1102085e+000
1.8457835e+000
1.6149150e+000
1.4416372e+000
1.3568494e+000
1.3918285e+000
1.5733328e+000
1.9102722e+000
2.3801606e+000
2.9439759e+000
3.5470064e+000
4.1379375e+000
4.6797757e+000
5.1482959e+000
5.5375342e+000
5.8498602e+000
6.0963011e+000
6.2943296e+000
6.4705706e+000
6.6551547e+000
6.8801799e+000
7.1718159e+000
7.5431519e+000
7.9999218e+000
8.5397205e+000
9.1594772e+000
9.8579054e+000
1.0634837e+001
1.1491123e+001
1.2427172e+001
1.3436500e+001
1.4498457e+001
1.5568759e+001
1.6586742e+001
1.7474970e+001
1.8163401e+001
1.8595699e+001
1.8726439e+001
1.8522917e+001
1.7968966e+001
1.7084471e+001
1.5918400e+001
1.4566781e+001
1.3145463e+001
1.1787180e+001
1.0614075e+001
9.7137623e+000
9.1358242e+000
8.8698845e+000
8.8675041e+000
9.0311098e+000
9.2460899e+000
9.3902311e+000
9.3612671e+000
9.1065722e+000
8.6134863e+000
7.9299912e+000
7.1256452e+000
6.2839537e+000
5.4766703e+000
4.7418609e+000
4.0957656e+000
3.5262551e+000
3.0218332e+000
2.5883520e+000
2.2400801e+000
1.9987079e+000
1.8727160e+000
1.8376706e+000
1.8577914e+000
1.8909607e+000
1.9061641e+000
1.9001000e+000
1.8793366e+000
1.8558449e+000
1.8322471e+000
1.7873834e+000
1.6941336e+000
1.5271024e+000
1.2769580e+000
9.7131610e-001
6.5188527e-001
3.7079063e-001
1.6581489e-001
3.5181656e-002
-3.0362600e-002
-3.6342815e-002
5.5941753e-003
6.7536816e-002
1.2152097e-001
1.5002277e-001
1.4911443e-001
1.4143795e-001
1.5350759e-001
2.0405555e-001
2.9487985e-001
3.9131731e-001
4.5584440e-001
4.6719190e-001
4.2515504e-001
3.7174049e-001
3.5395154e-001
4.0397903e-001
5.3271049e-001
7.0742220e-001
8.9847142e-001
1.1117895e+000
1.3705821e+000
1.7173445e+000
2.1720171e+000
2.6824443e+000
3.1754763e+000
3.5697646e+000
3.8041651e+000
3.8765550e+000
3.8057227e+000
3.6282983e+000
3.3846052e+000
3.1126671e+000
2.8485479e+000
2.6238871e+000
2.4593680e+000
2.3483663e+000
2.2769482e+000
2.2294457e+000
2.1955285e+000
2.1786888e+000
2.1780541e+000
2.1698282e+000
2.1305308e+000
2.0541072e+000
1.9548463e+000
1.8919772e+000
1.9203503e+000
2.0478611e+000
2.2520700e+000
2.4564886e+000
2.5876479e+000
2.6203806e+000
2.5528789e+000
2.4167957e+000
2.2441416e+000
2.0425491e+000
1.8184551e+000
1.5903555e+000
1.3778858e+000
1.1924636e+000
1.0309771e+000
8.5309005e-001
6.2720519e-001
3.7695217e-001
1.4255130e-001
-2.8092705e-002
-1.1173497e-001
-1.6743141e-001
-2.5889498e-001
-4.0002888e-001
-5.8225107e-001
-7.6517546e-001
-9.1707230e-001
-1.0588129e+000
-1.2127171e+000
-1.3638092e+000
-1.4853921e+000
-1.5434587e+000
-1.5173229e+000
-1.4362063e+000
-1.3356240e+000
-1.2293549e+000
-1.1223166e+000
-1.0072995e+000
-8.7687296e-001
-7.3416477e-001
-5.8017594e-001
-4.0044254e-001
-1.8509120e-001
4.6222016e-002
2.5731242e-001
3.8086671e-001
3.6853892e-001
2.6602858e-001
1.3301748e-001
-3.7828460e-003
-1.1603766e-001
-1.4067774e-001
-2.6395887e-002
2.0413026e-001
5.0749362e-001
8.3209288e-001
1.1327457e+000
1.3960963e+000
1.6241640e+000
1.8474667e+000
2.0932021e+000
2.3494861e+000
2.5960901e+000
2.8186622e+000
3.0096793e+000
3.1825671e+000
3.3488429e+000
3.4933901e+000
3.6037736e+000
3.7041194e+000
3.8252618e+000
3.9867125e+000
4.2052002e+000
