Image.
>Pix99999.
  .
5555
5555
2300
900
5555
2
1
0
701
5555
-6.9468999e-003
-7.0913932e-003
-7.2358865e-003
-7.3804795e-003
-7.5249728e-003
-7.6694661e-003
-7.8140581e-003
-7.9585528e-003
-8.1030456e-003
-8.2475394e-003
-8.3920322e-003
-8.5366247e-003
-8.6811194e-003
-8.8256132e-003
-8.9701060e-003
-9.1146966e-003
-9.2591932e-003
-9.4036860e-003
-9.5481798e-003
-9.6927695e-003
-9.8372661e-003
-9.9818567e-003
-1.0126449e-002
-1.0271235e-002
-1.0415063e-002
-1.0559822e-002
-3.9241428e-004
3.7967779e-002
7.4493557e-002
9.0204038e-002
1.0287999e-001
9.2659615e-002
8.0960549e-002
7.3048882e-002
6.7127660e-002
7.5773999e-002
8.9757346e-002
1.2483341e-001
1.6529731e-001
2.1874695e-001
2.6769659e-001
3.0518106e-001
3.4082279e-001
3.7454295e-001
4.1326165e-001
4.5836049e-001
4.9345747e-001
5.1850039e-001
5.2765661e-001
5.2541071e-001
5.2526498e-001
5.2679050e-001
5.5200613e-001
5.8758080e-001
6.4328355e-001
7.0529932e-001
7.7008361e-001
8.3541054e-001
8.9092606e-001
9.4446903e-001
9.5614803e-001
9.6133864e-001
9.3649608e-001
9.1327381e-001
9.1568106e-001
9.2859417e-001
9.7077209e-001
1.0156957e+000
1.0603577e+000
1.1010276e+000
1.1343399e+000
1.1638383e+000
1.1887801e+000
1.2112745e+000
1.2315751e+000
1.2463785e+000
1.2565469e+000
1.2605370e+000
1.2606333e+000
1.2778993e+000
1.3047228e+000
1.3542365e+000
1.4127418e+000
1.4493160e+000
1.4785560e+000
1.4622321e+000
1.4353786e+000
1.4045025e+000
1.3744589e+000
1.3715729e+000
1.3752729e+000
1.3985070e+000
1.4297812e+000
1.4842943e+000
1.5416920e+000
1.5977135e+000
1.6352412e+000
1.6325917e+000
1.6154900e+000
1.5842236e+000
1.5645858e+000
1.5628701e+000
1.5612060e+000
1.5569769e+000
1.5373983e+000
1.5052850e+000
1.4789009e+000
1.4574795e+000
1.4497331e+000
1.4489000e+000
1.4495742e+000
1.4506255e+000
1.4544120e+000
1.4591252e+000
1.4706992e+000
1.4841657e+000
1.5020846e+000
1.5211909e+000
1.5417769e+000
1.5603230e+000
1.5663829e+000
1.5642704e+000
1.5420663e+000
1.5181293e+000
1.5007520e+000
1.4947785e+000
1.5088600e+000
1.5284714e+000
1.5499954e+000
1.5680304e+000
1.5807272e+000
1.5894028e+000
1.5951194e+000
1.5978010e+000
1.5987660e+000
1.6035007e+000
1.6111263e+000
1.6171235e+000
1.6222143e+000
1.6026834e+000
1.5724800e+000
1.5317816e+000
1.4873880e+000
1.4640567e+000
1.4464206e+000
1.4338406e+000
1.4223194e+000
1.4103409e+000
1.4037782e+000
1.4232444e+000
1.4548072e+000
1.5040946e+000
1.5474057e+000
1.5652646e+000
1.5640560e+000
1.5374628e+000
1.5058755e+000
1.4757061e+000
1.4508817e+000
1.4328479e+000
1.4385886e+000
1.4656551e+000
1.5254704e+000
1.6075811e+000
1.6678234e+000
1.7115886e+000
1.7010080e+000
1.6624154e+000
1.6345160e+000
1.6125907e+000
1.6198928e+000
1.6362182e+000
1.6196080e+000
1.5896367e+000
1.5430008e+000
1.4997250e+000
1.5008286e+000
1.5244740e+000
1.5710211e+000
1.6109477e+000
1.6133143e+000
1.5912781e+000
1.5456240e+000
1.5006107e+000
1.4704081e+000
1.4569786e+000
1.4619428e+000
1.4727347e+000
1.4830874e+000
1.4805440e+000
1.4634458e+000
1.4432572e+000
1.4233583e+000
1.4228251e+000
1.4356874e+000
1.4558436e+000
1.4784160e+000
1.4912672e+000
1.4986049e+000
1.5064404e+000
1.5145143e+000
1.5272790e+000
1.5408908e+000
1.5445580e+000
1.5427287e+000
1.5291300e+000
1.5111678e+000
1.4922369e+000
1.4699829e+000
1.4427989e+000
1.4059900e+000
1.3593905e+000
1.3138955e+000
1.2777805e+000
1.2715491e+000
1.2931544e+000
1.3257852e+000
1.3564100e+000
1.3578945e+000
1.3357410e+000
1.2862629e+000
1.2222003e+000
1.1423694e+000
1.0560564e+000
9.5635200e-001
8.5210675e-001
7.7136934e-001
7.0717329e-001
7.0238465e-001
7.2651124e-001
7.7569085e-001
8.3466023e-001
8.9970410e-001
9.6383953e-001
1.0102599e+000
1.0340943e+000
1.0059931e+000
9.4851977e-001
8.7488496e-001
8.0849403e-001
7.7157456e-001
7.5004458e-001
7.3798066e-001
7.1457237e-001
6.7186940e-001
6.1922753e-001
5.6162810e-001
4.9155301e-001
4.1368502e-001
3.2673496e-001
2.3467714e-001
1.9688626e-001
1.9508480e-001
2.5274408e-001
3.4120405e-001
4.0776464e-001
4.5603502e-001
4.7184777e-001
4.6594712e-001
4.4618139e-001
4.1685599e-001
3.7934646e-001
3.3944330e-001
2.9103488e-001
2.3744075e-001
1.7365329e-001
1.0624672e-001
4.9035542e-002
1.4697522e-002
-4.8169579e-002
-1.1173298e-001
-1.3909161e-001
-1.3141543e-001
-9.2872061e-002
-7.1731240e-002
-8.1904210e-002
-1.5803176e-001
-2.9529592e-001
-4.2020896e-001
-5.2180463e-001
-5.0397402e-001
-3.9294618e-001
-2.4456377e-001
-8.2748912e-002
-3.3205010e-002
-6.3430920e-002
-9.3885273e-002
-1.0320650e-001
-8.1706978e-003
1.7817566e-001
5.4465985e-001
1.0273790e+000
1.4947498e+000
1.9362679e+000
2.3506920e+000
2.8744800e+000
3.6430366e+000
4.9252195e+000
6.8593917e+000
9.7091541e+000
1.3463572e+001
1.7372009e+001
2.1073738e+001
2.4365711e+001
2.7279972e+001
3.0682064e+001
3.4671654e+001
3.9528469e+001
4.5077839e+001
5.0001633e+001
5.4321030e+001
5.8477314e+001
6.2598915e+001
6.7489449e+001
7.2951004e+001
7.8346695e+001
8.3550423e+001
8.8142525e+001
9.2162827e+001
9.5660828e+001
9.8632172e+001
1.0108674e+002
1.0279820e+002
1.0353387e+002
1.0310823e+002
1.0143393e+002
9.9096107e+001
9.6642189e+001
9.3915443e+001
9.0870850e+001
8.7050125e+001
8.2356171e+001
7.7476273e+001
7.2666855e+001
6.8197510e+001
6.4089088e+001
5.9909397e+001
5.5602772e+001
5.1329277e+001
4.7110355e+001
4.3142914e+001
3.9455738e+001
3.6237679e+001
3.3492260e+001
3.1161806e+001
2.9221558e+001
2.7523798e+001
2.6092232e+001
2.4930187e+001
2.4044870e+001
2.3403500e+001
2.2982498e+001
2.2719011e+001
2.2591326e+001
2.2558931e+001
2.2615765e+001
2.2750069e+001
2.2958479e+001
2.3236013e+001
2.3634109e+001
2.4167315e+001
2.4866863e+001
2.5729191e+001
2.6695057e+001
2.7745840e+001
2.8803286e+001
2.9861773e+001
3.1047274e+001
3.2449211e+001
3.4726700e+001
3.7970402e+001
4.1720047e+001
4.5746284e+001
4.8943588e+001
5.1307747e+001
5.3256962e+001
5.4829285e+001
5.6235779e+001
5.7392399e+001
5.8179214e+001
5.8434486e+001
5.8038113e+001
5.7134827e+001
5.5959099e+001
5.4578728e+001
5.3056499e+001
5.1310661e+001
4.9280739e+001
4.7024014e+001
4.4537182e+001
4.2156227e+001
4.0004757e+001
3.7897160e+001
3.5818089e+001
3.3228664e+001
2.9979057e+001
2.6744297e+001
2.3585636e+001
2.0914469e+001
1.8778511e+001
1.6640713e+001
1.4493809e+001
1.2302381e+001
1.0083220e+001
7.8926821e+000
5.8018546e+000
3.9303300e+000
2.3654611e+000
1.1948892e+000
4.2768142e-001
7.5532019e-002
2.4478516e-001
8.7691891e-001
1.7194680e+000
2.6341703e+000
3.4626422e+000
4.1089387e+000
4.6562529e+000
5.1243157e+000
5.5491133e+000
5.9232202e+000
6.2286558e+000
6.4227452e+000
6.5163684e+000
6.4606223e+000
6.3466358e+000
6.1561451e+000
5.9583440e+000
5.7466507e+000
5.4932413e+000
5.1691771e+000
4.7176728e+000
4.1399846e+000
3.5298219e+000
2.9285941e+000
2.4470665e+000
2.1054766e+000
1.9125043e+000
1.8657463e+000
1.9425035e+000
2.1085999e+000
2.3306379e+000
2.5717900e+000
2.8208895e+000
3.0792377e+000
3.3559949e+000
3.6540780e+000
3.9776411e+000
4.3201680e+000
4.6867113e+000
5.0622573e+000
5.4441166e+000
5.7834206e+000
6.0314574e+000
6.1783109e+000
6.1591001e+000
6.0300150e+000
5.7466516e+000
5.3882155e+000
4.9418416e+000
4.4653659e+000
3.9768846e+000
3.5247679e+000
3.1193995e+000
2.7674155e+000
2.4285328e+000
2.0364654e+000
1.5964283e+000
1.1059408e+000
6.4288330e-001
3.0395317e-001
7.6190919e-002
1.2488445e-002
3.1092837e-002
1.2396279e-001
2.2812036e-001
3.7051481e-001
5.3287911e-001
7.3204541e-001
9.4134545e-001
1.1642572e+000
1.3799177e+000
1.5686551e+000
1.7529870e+000
1.9312971e+000
2.1216443e+000
2.3397226e+000
2.5845523e+000
2.8719201e+000
3.1885242e+000
3.5291200e+000
3.8493609e+000
4.1299477e+000
4.3448138e+000
4.4957838e+000
4.5975060e+000
4.6571612e+000
4.6734552e+000
4.6574883e+000
4.5984693e+000
4.5255570e+000
4.4488382e+000
4.3810430e+000
4.3375835e+000
4.3053360e+000
4.2923636e+000
4.2832808e+000
4.2788043e+000
4.2723556e+000
4.2612987e+000
4.2532730e+000
4.2545772e+000
4.2662764e+000
4.2982850e+000
4.3416190e+000
4.4025607e+000
4.4814763e+000
4.5823493e+000
4.6986561e+000
4.8293538e+000
4.9610972e+000
5.0932775e+000
5.2246113e+000
5.3540587e+000
5.4790015e+000
5.5971498e+000
5.6970911e+000
5.7786212e+000
5.8198714e+000
5.8283315e+000
5.7661643e+000
5.6639738e+000
5.4749560e+000
5.2499895e+000
4.9366379e+000
4.5918322e+000
4.1626000e+000
3.7072594e+000
3.1911516e+000
2.6745682e+000
2.1621428e+000
1.6828873e+000
1.2641371e+000
8.8800776e-001
5.7549340e-001
3.0286056e-001
7.9420105e-002
-1.1318623e-001
-2.7375644e-001
-4.1306800e-001
-5.2834713e-001
-6.0628241e-001
-6.5330458e-001
-6.5939051e-001
-6.4535105e-001
-6.2258267e-001
-5.9163570e-001
-5.3900397e-001
-4.5678934e-001
-2.7345008e-001
-4.4342011e-002
3.1470898e-001
6.8703270e-001
1.0783868e+000
1.4297411e+000
1.6541944e+000
1.8204495e+000
1.8425040e+000
1.8275450e+000
1.7389605e+000
1.6335229e+000
1.4997735e+000
1.3529394e+000
1.1870424e+000
1.0046954e+000
8.0409610e-001
5.9554094e-001
3.8522208e-001
2.0216227e-001
4.8782252e-002
-4.2462315e-002
-8.7128699e-002
-3.4131624e-002
6.9099128e-002
2.4042732e-001
4.3008447e-001
6.1900789e-001
7.9668987e-001
9.1548443e-001
1.0180358e+000
1.0628142e+000
1.1072809e+000
1.1555234e+000
1.2151825e+000
1.3106129e+000
1.4075750e+000
1.5061635e+000
1.5896193e+000
1.6421034e+000
1.6793777e+000
1.6924000e+000
1.6952847e+000
1.6874820e+000
1.6904429e+000
1.7081126e+000
1.7571071e+000
1.8281094e+000
1.8857428e+000
1.9261692e+000
1.8994291e+000
1.8353143e+000
1.7179358e+000
1.5824623e+000
1.4422011e+000
1.3078800e+000
1.2249229e+000
1.1582559e+000
1.1625367e+000
1.1706480e+000
1.1798091e+000
1.1779971e+000
1.1275703e+000
1.0694083e+000
9.8659503e-001
8.9876372e-001
7.9874933e-001
6.9595057e-001
5.8840621e-001
4.8802760e-001
3.9811236e-001
3.1221399e-001
2.2965330e-001
1.3384239e-001
2.4263129e-002
-1.0957180e-001
-2.5977978e-001
-4.0922850e-001
-5.5558270e-001
-6.7235285e-001
-7.7657771e-001
-8.6648685e-001
-9.5135027e-001
-1.0230585e+000
-1.0896744e+000
-1.1246920e+000
-1.1545393e+000
-1.1549228e+000
-1.1525842e+000
-1.1339258e+000
-1.1155906e+000
-1.0990214e+000
-1.0825800e+000
-1.0664864e+000
-1.0485228e+000
-1.0266331e+000
-1.0059888e+000
-9.8718077e-001
-9.6843469e-001
-9.4971442e-001
-9.3472338e-001
-9.2410940e-001
-9.2059034e-001
-9.2325920e-001
-9.3512970e-001
-9.5242566e-001
-9.7180355e-001
-9.8998123e-001
-9.6715856e-001
-9.2799491e-001
-8.1863219e-001
-6.9281471e-001
-5.3056931e-001
-3.6574280e-001
-2.4285063e-001
-1.2403418e-001
-4.0217467e-002
1.3914183e-003
4.3268315e-002
1.2497954e-001
2.0946759e-001
2.8228000e-001
3.2189500e-001
3.9262569e-001
5.3008795e-001
6.9039446e-001
8.8567162e-001
1.0102800e+000
1.0478165e+000
1.0098460e+000
9.0169966e-001
7.8401899e-001
6.5969372e-001
5.4822731e-001
4.4439781e-001
3.7840500e-001
3.2815450e-001
3.3726487e-001
3.6281943e-001
4.4425938e-001
5.3503960e-001
7.1648002e-001
