Image.
>Pix99999.
  .
5555
5555
2300
900
5555
2
1
0
701
5555
-2.2759000e-002
-2.3232322e-002
-2.3705646e-002
-2.4179963e-002
-2.4653291e-002
-2.5126614e-002
-2.5599938e-002
-2.6073260e-002
-2.6546583e-002
-2.7019905e-002
-2.7493229e-002
-2.7967537e-002
-2.8440876e-002
-2.8914196e-002
-2.9387519e-002
-2.9860843e-002
-3.0334165e-002
-3.0808466e-002
-3.1281810e-002
-3.1755134e-002
-3.2228459e-002
-3.2701779e-002
-3.3175103e-002
-3.3648424e-002
-3.4122713e-002
-3.4596071e-002
1.5733836e-002
6.8178854e-004
-4.7127359e-002
-1.3532314e-001
-2.2933729e-001
-2.7581370e-001
-3.1554109e-001
-2.8096992e-001
-2.3912436e-001
-1.6793899e-001
-1.0513760e-001
-8.7626249e-002
-9.2715070e-002
-1.5934846e-001
-2.3415343e-001
-3.1923398e-001
-3.8756901e-001
-4.2756665e-001
-4.4545782e-001
-4.3797565e-001
-4.2960742e-001
-4.2191434e-001
-4.2628068e-001
-4.3961349e-001
-4.4810215e-001
-4.5348263e-001
-4.4754663e-001
-4.3676195e-001
-4.2598084e-001
-4.1531837e-001
-4.0229002e-001
-3.8870987e-001
-3.7818095e-001
-3.6843839e-001
-3.8636285e-001
-4.0899703e-001
-4.5646119e-001
-5.0486940e-001
-5.4530847e-001
-5.7768738e-001
-5.8359164e-001
-5.8530164e-001
-5.8304840e-001
-5.8099616e-001
-5.8003497e-001
-5.6636357e-001
-5.3409386e-001
-4.9578941e-001
-4.5287436e-001
-4.3126214e-001
-4.2892581e-001
-4.4574660e-001
-4.7452268e-001
-4.8147178e-001
-4.7585401e-001
-4.3625870e-001
-3.8277292e-001
-3.6313739e-001
-3.5468078e-001
-4.2622578e-001
-5.1622665e-001
-6.1555314e-001
-7.1252471e-001
-7.3999739e-001
-7.5140613e-001
-7.1668112e-001
-6.7576545e-001
-6.3671887e-001
-6.0097432e-001
-5.7439816e-001
-5.5462754e-001
-5.4702508e-001
-5.5579180e-001
-5.8908278e-001
-6.3110715e-001
-6.7994010e-001
-7.1277708e-001
-7.2803247e-001
-7.2917777e-001
-7.2050750e-001
-7.1961945e-001
-7.2467732e-001
-7.4913162e-001
-7.8351188e-001
-8.1634331e-001
-8.4809488e-001
-8.4547603e-001
-8.3187747e-001
-7.9023612e-001
-7.4225843e-001
-6.9493502e-001
-6.5003955e-001
-6.2489057e-001
-6.0400277e-001
-5.8499885e-001
-5.6067479e-001
-5.1689816e-001
-4.7669840e-001
-4.5672604e-001
-4.6760786e-001
-5.3131098e-001
-6.1380929e-001
-7.0829666e-001
-7.7664137e-001
-8.0958527e-001
-8.0196387e-001
-7.6151085e-001
-7.0659381e-001
-6.4554775e-001
-6.0800904e-001
-5.8666003e-001
-6.0270303e-001
-6.3723785e-001
-6.8075657e-001
-7.2657001e-001
-7.3689002e-001
-7.3438001e-001
-6.8181330e-001
-6.1567205e-001
-5.4781407e-001
-4.8622969e-001
-4.7431460e-001
-4.7745079e-001
-4.9452025e-001
-4.9981573e-001
-4.6108887e-001
-4.0988064e-001
-3.5197526e-001
-3.2188478e-001
-3.3891115e-001
-3.8793281e-001
-4.6607590e-001
-5.3670293e-001
-5.9314197e-001
-6.1329430e-001
-6.0373271e-001
-5.8938694e-001
-5.7676554e-001
-5.9058958e-001
-6.2085032e-001
-6.3555199e-001
-6.3953745e-001
-5.9960961e-001
-5.4065335e-001
-4.6701646e-001
-3.8878644e-001
-3.3190328e-001
-2.8460461e-001
-2.7769372e-001
-2.8904998e-001
-3.2671937e-001
-3.7284777e-001
-4.0664554e-001
-4.3092641e-001
-4.3718514e-001
-4.3337852e-001
-4.2476761e-001
-4.1104802e-001
-3.9607710e-001
-3.8409391e-001
-3.7932023e-001
-3.8113171e-001
-3.8550696e-001
-3.7089521e-001
-3.3400473e-001
-2.7399319e-001
-2.0046704e-001
-1.5506914e-001
-1.3085191e-001
-1.5409814e-001
-2.0075440e-001
-2.5249776e-001
-3.0402035e-001
-3.2094207e-001
-3.2145572e-001
-2.9522932e-001
-2.6159012e-001
-2.4167781e-001
-2.3115873e-001
-2.3104671e-001
-2.2949825e-001
-2.1009040e-001
-1.8025000e-001
-1.4471269e-001
-1.1733000e-001
-1.1640566e-001
-1.4172989e-001
-1.9793457e-001
-2.6129431e-001
-3.1237701e-001
-3.3382159e-001
-3.1940359e-001
-3.0016676e-001
-2.8829539e-001
-3.0469429e-001
-3.4548718e-001
-3.7738433e-001
-4.0383673e-001
-4.0671042e-001
-4.0056643e-001
-4.0789860e-001
-4.2610323e-001
-4.4728041e-001
-4.6499860e-001
-4.6519443e-001
-4.5082739e-001
-4.2672807e-001
-4.0548131e-001
-4.0273190e-001
-4.1846630e-001
-4.4424269e-001
-4.7085777e-001
-4.9171120e-001
-5.0453889e-001
-5.1696944e-001
-5.2271914e-001
-5.2344668e-001
-5.2433652e-001
-5.2505964e-001
-5.1759553e-001
-5.0057697e-001
-4.4663626e-001
-3.6505011e-001
-2.7483666e-001
-1.8387571e-001
-1.7997321e-001
-2.3295359e-001
-3.3095667e-001
-4.4648609e-001
-4.8386636e-001
-4.7023526e-001
-4.2593929e-001
-3.6602592e-001
-3.3176330e-001
-3.1397656e-001
-3.0989143e-001
-3.0125612e-001
-2.3411624e-001
-1.4169131e-001
-4.4838984e-002
4.0751629e-002
8.7117530e-002
3.7484393e-002
-5.3924873e-002
-1.2789595e-001
-1.8691102e-001
-2.4653046e-001
-3.1890920e-001
-4.0038311e-001
-4.8349965e-001
-5.4241985e-001
-5.6823379e-001
-5.3403687e-001
-4.5771113e-001
-3.5704401e-001
-2.4913612e-001
-1.9909757e-001
-1.8811093e-001
-1.9844748e-001
-2.0952137e-001
-1.8494986e-001
-1.1849750e-001
1.5236415e-002
2.4883798e-001
7.1535146e-001
1.3461732e+000
2.1044779e+000
2.9440980e+000
3.7930880e+000
4.7886648e+000
6.0356522e+000
7.7998199e+000
1.0223637e+001
1.3477541e+001
1.7554714e+001
2.1640471e+001
2.5370621e+001
2.8649071e+001
3.1525423e+001
3.4875286e+001
3.8802128e+001
4.3510132e+001
4.8850239e+001
5.3567127e+001
5.7694073e+001
6.1737080e+001
6.5791901e+001
7.0541084e+001
7.5757851e+001
8.0656097e+001
8.5137764e+001
8.8771729e+001
9.1632156e+001
9.3801971e+001
9.5327400e+001
9.6281227e+001
9.6689117e+001
9.6629738e+001
9.6156509e+001
9.5403931e+001
9.4501511e+001
9.3550659e+001
9.2346031e+001
9.0785179e+001
8.8419670e+001
8.5173943e+001
8.1344170e+001
7.7123856e+001
7.2777611e+001
6.8378326e+001
6.3700920e+001
5.8747849e+001
5.3896294e+001
4.9181019e+001
4.4798088e+001
4.0769802e+001
3.7205193e+001
3.4118919e+001
3.1467150e+001
2.9235600e+001
2.7308735e+001
2.5706564e+001
2.4418411e+001
2.3448267e+001
2.2748001e+001
2.2309982e+001
2.2088303e+001
2.2064743e+001
2.2197317e+001
2.2492243e+001
2.2932240e+001
2.3551519e+001
2.4350241e+001
2.5467539e+001
2.6946085e+001
2.8790340e+001
3.0995914e+001
3.3306839e+001
3.5666000e+001
3.7921314e+001
4.0047405e+001
4.2070946e+001
4.4029312e+001
4.6439789e+001
4.9269943e+001
5.1995560e+001
5.4429855e+001
5.5936275e+001
5.6558514e+001
5.6800823e+001
5.6604000e+001
5.5998871e+001
5.4889160e+001
5.3298637e+001
5.1462059e+001
4.9729515e+001
4.8151386e+001
4.6714245e+001
4.5368336e+001
4.4070702e+001
4.2665062e+001
4.1065720e+001
3.9073288e+001
3.6599854e+001
3.4137257e+001
3.1842579e+001
2.9737320e+001
2.7827276e+001
2.5442015e+001
2.2418686e+001
1.9399879e+001
1.6477417e+001
1.4098900e+001
1.2328489e+001
1.0601471e+001
8.9197893e+000
7.2670345e+000
5.6698236e+000
4.1890235e+000
2.8759305e+000
1.7704799e+000
9.3669915e-001
3.8110909e-001
8.8234462e-002
4.6613216e-002
3.6010244e-001
1.0435964e+000
1.9394989e+000
3.0027361e+000
4.0591030e+000
4.9723840e+000
5.7960143e+000
6.5255656e+000
7.2893662e+000
8.1452999e+000
8.9822588e+000
9.7836113e+000
1.0314983e+001
1.0444189e+001
1.0388392e+001
1.0075686e+001
9.6938162e+000
9.1960468e+000
8.5677547e+000
7.7520514e+000
6.7883339e+000
5.7220631e+000
4.7914519e+000
4.0644941e+000
3.5753706e+000
3.3064759e+000
3.1612694e+000
3.1366918e+000
3.2392535e+000
3.4709942e+000
3.8553040e+000
4.3284802e+000
4.8332758e+000
5.3399658e+000
5.8226871e+000
6.2614818e+000
6.6381540e+000
6.9153838e+000
7.0318480e+000
7.0414357e+000
6.8844085e+000
6.6943378e+000
6.4667726e+000
6.2296162e+000
5.9797201e+000
5.7116547e+000
5.4165082e+000
5.1057892e+000
4.7586913e+000
4.3538656e+000
3.8654623e+000
3.3130140e+000
2.7174759e+000
2.1468480e+000
1.6168815e+000
1.1309477e+000
6.8521202e-001
2.8655249e-001
-3.6425084e-002
-2.2366285e-001
-2.7375868e-001
-1.3143177e-001
1.2176928e-001
5.0806189e-001
9.2141467e-001
1.3424280e+000
1.7345551e+000
2.0574021e+000
2.3315539e+000
2.5106971e+000
2.6074724e+000
2.5743680e+000
2.4841402e+000
2.3110759e+000
2.1404214e+000
1.9718575e+000
1.8413364e+000
1.7519400e+000
1.6883717e+000
1.6439900e+000
1.5912459e+000
1.5272274e+000
1.4312828e+000
1.3135477e+000
1.1728685e+000
1.0291289e+000
9.0889418e-001
8.1523430e-001
7.7472013e-001
7.7330142e-001
8.3845395e-001
9.5587248e-001
1.1756262e+000
1.4436320e+000
1.8018608e+000
2.1688046e+000
2.5439420e+000
2.8892114e+000
3.1647975e+000
3.3892715e+000
3.5117161e+000
3.6040950e+000
3.6526308e+000
3.7330875e+000
3.8731644e+000
4.0855532e+000
4.3982110e+000
4.7832022e+000
5.2505627e+000
5.7776227e+000
6.3639798e+000
7.0001140e+000
7.6820502e+000
8.4154587e+000
9.1786003e+000
9.9602737e+000
1.0710183e+001
1.1333972e+001
1.1835918e+001
1.2051828e+001
1.2117816e+001
1.1867081e+001
1.1496929e+001
1.0842877e+001
1.0109900e+001
9.1709442e+000
8.2077551e+000
7.1974502e+000
6.2487631e+000
5.4403601e+000
4.7722306e+000
4.3526268e+000
4.0839081e+000
4.0267730e+000
4.0405059e+000
4.1172280e+000
4.1283050e+000
4.0446839e+000
3.7970133e+000
3.4022000e+000
2.8791881e+000
2.2869136e+000
1.7097059e+000
1.1730193e+000
7.7670044e-001
4.6517622e-001
3.1346521e-001
2.2371174e-001
2.3773460e-001
2.8067201e-001
3.8253370e-001
4.9072415e-001
6.1085355e-001
7.2102481e-001
8.0206817e-001
8.7730563e-001
9.3557268e-001
9.7004598e-001
9.4909030e-001
8.6678755e-001
6.8639320e-001
4.9500591e-001
3.0227143e-001
1.8520780e-001
1.5171857e-001
1.5041195e-001
1.6460091e-001
1.1673487e-001
2.4294227e-002
-9.0871140e-002
-2.0303890e-001
-1.9373326e-001
-1.1962243e-001
5.0005659e-002
2.4725835e-001
4.5158762e-001
6.4274454e-001
7.5810003e-001
8.4881347e-001
8.4613514e-001
8.4861726e-001
8.8090700e-001
9.3965983e-001
1.0811877e+000
1.2230799e+000
1.3619452e+000
1.4656737e+000
1.5003872e+000
1.5159233e+000
1.5101571e+000
1.5635502e+000
1.7015560e+000
1.9366623e+000
2.2682428e+000
2.6229808e+000
2.9852650e+000
3.2775605e+000
3.5125172e+000
3.6358552e+000
3.6970999e+000
3.6720743e+000
3.6162326e+000
3.5388086e+000
3.4557095e+000
3.3637826e+000
3.2678840e+000
3.1511798e+000
3.0375435e+000
2.9517543e+000
2.8796713e+000
2.8669522e+000
2.8511474e+000
2.8241539e+000
2.7808971e+000
2.7021749e+000
2.6570971e+000
2.6795897e+000
2.7587702e+000
2.9173987e+000
3.0533299e+000
3.1556263e+000
3.1787343e+000
3.1260204e+000
3.0145779e+000
2.8595245e+000
2.6697922e+000
2.4602811e+000
2.2307820e+000
1.9938645e+000
1.7574114e+000
1.5229375e+000
1.3092502e+000
1.0976694e+000
8.7154162e-001
6.3927257e-001
3.5004649e-001
6.1453417e-002
-2.1892804e-001
-4.8946100e-001
-7.1599716e-001
-9.2797369e-001
-1.0924366e+000
-1.2210557e+000
-1.2669502e+000
-1.2961771e+000
-1.2982177e+000
-1.3140377e+000
-1.3460400e+000
-1.3321096e+000
-1.2676572e+000
-1.1472071e+000
-9.8494542e-001
-8.6776245e-001
-7.8178024e-001
-7.6220351e-001
-7.7156758e-001
-7.5923270e-001
-7.3473185e-001
-6.0792792e-001
-4.5721799e-001
-2.6519334e-001
-7.3443122e-002
-9.8710805e-003
4.2853862e-002
1.4122928e-002
1.9762293e-003
6.2481508e-002
2.1454838e-001
5.1744676e-001
7.9217458e-001
9.8264098e-001
1.1136080e+000
1.1185597e+000
1.1550885e+000
1.2428986e+000
1.3743939e+000
1.5573055e+000
1.6584423e+000
1.6839367e+000
1.6924558e+000
1.6917490e+000
1.8753034e+000
2.1559839e+000
2.5141170e+000
2.9000807e+000
3.2188165e+000
3.5193048e+000
3.9398577e+000
4.3795338e+000
4.8926001e+000
