Image.
>Pix99999.
  .
5555
5555
2300
900
5555
2
1
0
701
5555
1.7502999e-001
1.7867479e-001
1.8230960e-001
1.8595435e-001
1.8959914e-001
1.9323400e-001
1.9687870e-001
2.0052351e-001
2.0415840e-001
2.0780307e-001
2.1144786e-001
2.1509264e-001
2.1872759e-001
2.2235259e-001
2.2600681e-001
2.2970071e-001
2.3328795e-001
2.3675573e-001
2.4057151e-001
2.4486302e-001
2.4787486e-001
2.4907550e-001
2.5505704e-001
2.6777452e-001
2.6274371e-001
2.1637036e-001
1.3820915e-001
5.0369702e-002
-1.1898400e-002
-1.7648485e-002
3.2120172e-002
1.2772350e-001
2.6125073e-001
4.2373717e-001
5.9940666e-001
7.7702302e-001
9.7159338e-001
1.1970782e+000
1.4316266e+000
1.6422279e+000
1.7925000e+000
1.8581389e+000
1.8666819e+000
1.8607116e+000
1.8801675e+000
1.9562635e+000
2.0882759e+000
2.2580245e+000
2.4159276e+000
2.5116088e+000
2.5295143e+000
2.4776456e+000
2.4147172e+000
2.4038997e+000
2.4624629e+000
2.5855269e+000
2.7376480e+000
2.8804371e+000
3.0007732e+000
3.0962193e+000
3.1733115e+000
3.2399571e+000
3.2991097e+000
3.3493450e+000
3.3805120e+000
3.3814764e+000
3.3502338e+000
3.2925620e+000
3.2325382e+000
3.1979444e+000
3.2051501e+000
3.2632694e+000
3.3673091e+000
3.5058706e+000
3.6597614e+000
3.8088787e+000
3.9374766e+000
4.0358391e+000
4.1101880e+000
4.1681461e+000
4.2006288e+000
4.1948037e+000
4.1479564e+000
4.0668025e+000
3.9828680e+000
3.9285200e+000
3.9052081e+000
3.9018366e+000
3.9029241e+000
3.9005687e+000
3.9212887e+000
3.9985242e+000
4.1395383e+000
4.3337560e+000
4.5379710e+000
4.7076750e+000
4.8419127e+000
4.9560075e+000
5.0618000e+000
5.1614985e+000
5.2256432e+000
5.2236457e+000
5.1706429e+000
5.1002383e+000
5.0476246e+000
5.0363898e+000
5.0450344e+000
5.0363650e+000
4.9846873e+000
4.8788447e+000
4.7472987e+000
4.6332059e+000
4.5764718e+000
4.6038847e+000
4.6959047e+000
4.8121171e+000
4.9032817e+000
4.9267445e+000
4.8792963e+000
4.7770042e+000
4.6488118e+000
4.5244617e+000
4.4183989e+000
4.3374419e+000
4.2840915e+000
4.2591534e+000
4.2633080e+000
4.2956963e+000
4.3486686e+000
4.4107981e+000
4.4666343e+000
4.5024676e+000
4.5191917e+000
4.5244541e+000
4.5280108e+000
4.5365295e+000
4.5413003e+000
4.5277643e+000
4.4869671e+000
4.4151282e+000
4.3181601e+000
4.2072420e+000
4.0983882e+000
4.0075116e+000
3.9403160e+000
3.8966579e+000
3.8712678e+000
3.8587210e+000
3.8608582e+000
3.8793957e+000
3.9001286e+000
3.9021471e+000
3.8679938e+000
3.7898562e+000
3.6900260e+000
3.6005764e+000
3.5331841e+000
3.4864874e+000
3.4474998e+000
3.4030395e+000
3.3603315e+000
3.3340139e+000
3.3268480e+000
3.3322604e+000
3.3322623e+000
3.3072429e+000
3.2535472e+000
3.1776767e+000
3.0946360e+000
3.0206413e+000
2.9618571e+000
2.9187248e+000
2.8897150e+000
2.8727846e+000
2.8662190e+000
2.8659501e+000
2.8565435e+000
2.8206499e+000
2.7585931e+000
2.6829224e+000
2.6189971e+000
2.5920856e+000
2.6025782e+000
2.6353965e+000
2.6679041e+000
2.6788692e+000
2.6659486e+000
2.6375952e+000
2.6055479e+000
2.5800371e+000
2.5602486e+000
2.5397844e+000
2.5151312e+000
2.4860542e+000
2.4573154e+000
2.4335566e+000
2.4068079e+000
2.3638773e+000
2.2999284e+000
2.2194791e+000
2.1454000e+000
2.1047983e+000
2.1001282e+000
2.1179299e+000
2.1398344e+000
2.1492822e+000
2.1446719e+000
2.1323400e+000
2.1147051e+000
2.0927970e+000
2.0739300e+000
2.0689397e+000
2.0868468e+000
2.1293161e+000
2.1731045e+000
2.1841757e+000
2.1460247e+000
2.0595410e+000
1.9497716e+000
1.8517013e+000
1.7856228e+000
1.7599833e+000
1.7764492e+000
1.8295796e+000
1.8958321e+000
1.9433893e+000
1.9520434e+000
1.9166495e+000
1.8623354e+000
1.8263384e+000
1.8192772e+000
1.8300500e+000
1.8340640e+000
1.8041791e+000
1.7312500e+000
1.6213558e+000
1.4940310e+000
1.3743987e+000
1.2795340e+000
1.2165518e+000
1.1747829e+000
1.1346600e+000
1.0851303e+000
1.0251436e+000
9.6708906e-001
9.2723447e-001
9.0233541e-001
8.7808251e-001
8.5320395e-001
8.3719939e-001
8.4125572e-001
8.7024051e-001
9.0077120e-001
8.9719123e-001
8.5533059e-001
7.9397172e-001
7.2729009e-001
6.6300684e-001
6.0741937e-001
5.6655419e-001
5.4610544e-001
5.4666102e-001
5.4635370e-001
5.1196331e-001
4.3070373e-001
3.1168535e-001
1.8860780e-001
9.9026255e-002
2.7378116e-002
-7.1650669e-002
-1.9496173e-001
-3.0264789e-001
-3.7178344e-001
-4.0270659e-001
-4.2064291e-001
-4.6055821e-001
-5.2931124e-001
-6.0639888e-001
-6.5103650e-001
-6.2225503e-001
-5.3345603e-001
-4.3928984e-001
-3.8861197e-001
-4.0766189e-001
-4.6590021e-001
-4.9523744e-001
-4.4690597e-001
-3.0205610e-001
-8.4176227e-002
1.6486306e-001
4.5568314e-001
8.3030117e-001
1.2661772e+000
1.7034748e+000
2.1763639e+000
2.8095369e+000
3.7644200e+000
5.2190204e+000
7.3528962e+000
1.0270207e+001
1.3722143e+001
1.7208700e+001
2.0380146e+001
2.3120781e+001
2.5650600e+001
2.8407949e+001
3.1703089e+001
3.5607841e+001
3.9748001e+001
4.3506828e+001
4.6745628e+001
4.9787262e+001
5.2990532e+001
5.6603970e+001
6.0556492e+001
6.4536499e+001
6.8338005e+001
7.1893173e+001
7.5161812e+001
7.8117073e+001
8.0796860e+001
8.3292923e+001
8.5687645e+001
8.7999634e+001
9.0023453e+001
9.1410965e+001
9.2052765e+001
9.2081238e+001
9.1626724e+001
9.0756264e+001
8.9448700e+001
8.7632706e+001
8.5337715e+001
8.2682426e+001
7.9724480e+001
7.6449326e+001
7.2845680e+001
6.8935196e+001
6.4814621e+001
6.0641537e+001
5.6557087e+001
5.2672039e+001
4.9076683e+001
4.5833870e+001
4.2932903e+001
4.0301495e+001
3.7890800e+001
3.5692017e+001
3.3727741e+001
3.2035282e+001
3.0619999e+001
2.9449017e+001
2.8480011e+001
2.7675137e+001
2.7020304e+001
2.6521986e+001
2.6170433e+001
2.5940739e+001
2.5829037e+001
2.5862484e+001
2.6097858e+001
2.6602144e+001
2.7374640e+001
2.8336277e+001
2.9378439e+001
3.0388300e+001
3.1296141e+001
3.2119572e+001
3.3090122e+001
3.4596119e+001
3.6763145e+001
3.9364620e+001
4.1984402e+001
4.4148659e+001
4.5743908e+001
4.7047573e+001
4.8282852e+001
4.9500408e+001
5.0616058e+001
5.1448605e+001
5.1866543e+001
5.1838867e+001
5.1459499e+001
5.0920422e+001
5.0317734e+001
4.9614002e+001
4.8745850e+001
4.7661827e+001
4.6360542e+001
4.4898354e+001
4.3364117e+001
4.1844624e+001
4.0291359e+001
3.8508312e+001
3.6327934e+001
3.3694786e+001
3.0764616e+001
2.7884239e+001
2.5258919e+001
2.2861431e+001
2.0580286e+001
1.8277088e+001
1.5876317e+001
1.3390830e+001
1.0868074e+001
8.3852482e+000
6.0647459e+000
4.0635891e+000
2.4615285e+000
1.2472999e+000
4.7246203e-001
2.5946280e-001
5.7041878e-001
1.1570628e+000
1.8023568e+000
2.4001257e+000
2.9332833e+000
3.4624443e+000
4.0261269e+000
4.6066461e+000
5.1463199e+000
5.5591211e+000
5.7968197e+000
5.8708267e+000
5.8113256e+000
5.6556711e+000
5.4386873e+000
5.1861749e+000
4.9037862e+000
4.5718341e+000
4.1602402e+000
3.6405880e+000
3.0272384e+000
2.3910999e+000
1.8052781e+000
1.3256993e+000
9.8661554e-001
7.9563320e-001
7.4620420e-001
8.1915915e-001
9.8919034e-001
1.2285690e+000
1.5221863e+000
1.8733160e+000
2.2878313e+000
2.7681122e+000
3.3082445e+000
3.8901293e+000
4.4865561e+000
5.0610290e+000
5.5755858e+000
5.9958463e+000
6.3018174e+000
6.4935369e+000
6.5749011e+000
6.5492349e+000
6.4208560e+000
6.1964808e+000
5.8881259e+000
5.5146284e+000
5.0949459e+000
4.6471210e+000
4.1945481e+000
3.7659912e+000
3.3725972e+000
2.9953299e+000
2.6011283e+000
2.1518044e+000
1.6444679e+000
1.1320655e+000
6.7664814e-001
3.3060917e-001
1.1613646e-001
1.1488454e-002
-1.3484250e-002
1.4825631e-002
7.9634234e-002
1.7678258e-001
2.9640311e-001
4.1521779e-001
5.0928056e-001
5.6189346e-001
5.7831371e-001
5.9522849e-001
6.4494634e-001
7.3983592e-001
8.8174111e-001
1.0627439e+000
1.2747114e+000
1.5120299e+000
1.7641699e+000
2.0116761e+000
2.2317600e+000
2.4013867e+000
2.5071280e+000
2.5528843e+000
2.5500941e+000
2.5165601e+000
2.4707701e+000
2.4303026e+000
2.4108002e+000
2.4239273e+000
2.4742730e+000
2.5555894e+000
2.6590562e+000
2.7767100e+000
2.9036541e+000
3.0399752e+000
3.1860013e+000
3.3400390e+000
3.5008571e+000
3.6685641e+000
3.8438802e+000
4.0291462e+000
4.2314277e+000
4.4661403e+000
4.7524567e+000
5.1109924e+000
5.5513639e+000
6.0621300e+000
6.6266570e+000
7.2289400e+000
7.8599334e+000
8.5233498e+000
9.2204771e+000
9.9420252e+000
1.0671468e+001
1.1383045e+001
1.2051080e+001
1.2654380e+001
1.3178957e+001
1.3617329e+001
1.3958960e+001
1.4178244e+001
1.4249669e+001
1.4156258e+001
1.3893909e+001
1.3491434e+001
1.2980928e+001
1.2395249e+001
1.1764743e+001
1.1111086e+001
1.0454421e+001
9.8106594e+000
9.1877251e+000
8.5839043e+000
7.9914837e+000
7.3965364e+000
6.7859082e+000
6.1515484e+000
5.4933071e+000
4.8251438e+000
4.1669159e+000
3.5435009e+000
2.9761980e+000
2.4759908e+000
2.0463166e+000
1.6798813e+000
1.3701023e+000
1.1172178e+000
9.2469400e-001
7.9808718e-001
7.3597717e-001
7.2043574e-001
7.3160368e-001
7.5424761e-001
7.7690756e-001
7.9356003e-001
7.9441577e-001
7.5952393e-001
6.7590755e-001
5.5263627e-001
4.0947157e-001
2.7732354e-001
1.7815819e-001
1.0747822e-001
5.7202354e-002
2.5181400e-002
8.3099892e-003
-5.1272893e-004
3.5741776e-003
5.4359280e-002
1.7893152e-001
3.7153533e-001
6.1448461e-001
8.8115686e-001
1.1514577e+000
1.4261842e+000
1.7113080e+000
2.0121388e+000
2.3241827e+000
2.6206331e+000
2.8797629e+000
3.1063721e+000
3.3115497e+000
3.5064850e+000
3.6962984e+000
3.8731666e+000
4.0357323e+000
4.2068305e+000
4.4183145e+000
4.7080846e+000
5.1023722e+000
5.5911450e+000
6.1384883e+000
6.6647730e+000
7.0943012e+000
7.3912044e+000
7.5512404e+000
7.6273742e+000
7.6781316e+000
7.7401714e+000
7.8362279e+000
7.9661527e+000
8.1211376e+000
8.2823048e+000
8.4256592e+000
8.5197744e+000
8.5405626e+000
8.4907274e+000
8.3847313e+000
8.2505894e+000
8.1089954e+000
7.9502101e+000
7.7551179e+000
7.4996748e+000
7.1697268e+000
6.7832108e+000
6.3693109e+000
5.9646106e+000
5.5988197e+000
5.2751846e+000
4.9876018e+000
4.7223587e+000
4.4670701e+000
4.2192221e+000
3.9722428e+000
3.7005889e+000
3.3770316e+000
2.9841225e+000
2.5190945e+000
2.0170307e+000
1.5188904e+000
1.0542662e+000
6.4193797e-001
2.7628553e-001
-5.1795334e-002
-3.4344369e-001
-5.9333867e-001
-7.8253376e-001
-8.9611572e-001
-9.4294000e-001
-9.4608927e-001
-9.5454401e-001
-1.0110211e+000
-1.1168265e+000
-1.2526921e+000
-1.3657688e+000
-1.4077520e+000
-1.3729839e+000
-1.2714372e+000
-1.1296890e+000
-9.7322208e-001
-8.1069589e-001
-6.4560711e-001
-4.7892803e-001
-3.1191373e-001
-1.4906739e-001
2.0883977e-003
1.2652496e-001
2.1102728e-001
2.5504905e-001
2.6105320e-001
2.3129208e-001
1.7322795e-001
1.1238785e-001
6.4673886e-002
-3.6586449e-003
-1.1416097e-001
-2.0086171e-001
-2.0162629e-001
-1.4721315e-001
-8.9930177e-002
-7.5892121e-002
-1.3340697e-001
-2.3060691e-001
-3.2284918e-001
-3.7410495e-001
-3.6536074e-001
-3.3372730e-001
-3.2538158e-001
-3.6754358e-001
-4.7229338e-001
-6.1142451e-001
-7.4104273e-001
-7.9520011e-001
-7.2193229e-001
-5.4559624e-001
-3.1408632e-001
-9.2723593e-002
4.8769001e-002
