Image.
>Pix99999.
  .
5555
5555
2300
900
5555
2
1
0
701
5555
2.9848000e-002
3.0469112e-002
3.1090222e-002
3.1711332e-002
3.2331448e-002
3.2952555e-002
3.3573668e-002
3.4194779e-002
3.4815893e-002
3.5437003e-002
3.6057130e-002
3.6678225e-002
3.7299339e-002
3.7920449e-002
3.8541563e-002
3.9162669e-002
3.9783783e-002
4.0403921e-002
4.1025009e-002
4.1646115e-002
4.2267229e-002
4.2888340e-002
4.3508485e-002
4.4129562e-002
4.4750672e-002
4.5371786e-002
1.4630714e-002
5.1855430e-004
-2.8619520e-002
-5.7705469e-002
-8.6607844e-002
-1.0545417e-001
-1.2067017e-001
-7.0512682e-002
-1.5435329e-002
5.4333199e-002
1.1152089e-001
1.0815044e-001
9.0137839e-002
3.7605662e-002
-1.4669999e-002
-6.2151562e-002
-1.0413680e-001
-1.3765979e-001
-1.6018531e-001
-1.6967264e-001
-1.6669840e-001
-1.5257841e-001
-1.3658400e-001
-1.1977230e-001
-1.1906357e-001
-1.2762044e-001
-1.5640394e-001
-1.9375513e-001
-2.1102656e-001
-2.2160092e-001
-1.9733000e-001
-1.6515864e-001
-1.6226155e-001
-1.6451097e-001
-2.2509941e-001
-2.9208574e-001
-3.7086341e-001
-4.4799268e-001
-5.0908905e-001
-5.6522208e-001
-6.0878509e-001
-6.4899665e-001
-6.8387926e-001
-7.1649837e-001
-7.4596202e-001
-7.7323127e-001
-7.9778057e-001
-8.0859220e-001
-8.0423009e-001
-7.8831428e-001
-7.6356137e-001
-7.6994592e-001
-7.9856354e-001
-8.5663140e-001
-9.2953914e-001
-9.7333300e-001
-1.0044799e+000
-9.8429835e-001
-9.4820678e-001
-8.8025200e-001
-8.0508906e-001
-7.1510166e-001
-6.2330317e-001
-5.4113585e-001
-4.6965829e-001
-4.6850350e-001
-4.9338332e-001
-5.8908659e-001
-6.9220406e-001
-7.8631943e-001
-8.6137497e-001
-8.9707398e-001
-9.1211623e-001
-9.0211040e-001
-8.8241005e-001
-8.5459149e-001
-8.4054154e-001
-8.4194732e-001
-8.6033446e-001
-8.9139801e-001
-9.1986090e-001
-9.4563675e-001
-9.7583169e-001
-1.0082972e+000
-1.0497271e+000
-1.0947008e+000
-1.0988760e+000
-1.0895789e+000
-1.0040435e+000
-8.9972091e-001
-8.0515683e-001
-7.2201544e-001
-7.4342144e-001
-7.9722410e-001
-9.1607028e-001
-1.0427511e+000
-1.1494660e+000
-1.2323537e+000
-1.2617520e+000
-1.2604178e+000
-1.2185640e+000
-1.1575389e+000
-1.0814457e+000
-1.0075752e+000
-9.4232070e-001
-9.0648007e-001
-8.9719307e-001
-9.1424531e-001
-9.4690359e-001
-9.5461667e-001
-9.4369084e-001
-8.8757938e-001
-8.0878586e-001
-7.4681234e-001
-6.9415599e-001
-6.9298959e-001
-7.1047759e-001
-7.2431827e-001
-7.3590308e-001
-7.1841860e-001
-6.9608182e-001
-6.8668568e-001
-6.8627322e-001
-7.0340997e-001
-7.2045714e-001
-7.1940523e-001
-7.0592833e-001
-6.8136895e-001
-6.5385962e-001
-6.3488466e-001
-6.1694390e-001
-5.9737450e-001
-5.8084434e-001
-5.6447738e-001
-5.4820287e-001
-5.2983922e-001
-4.9138924e-001
-4.3629050e-001
-3.8461635e-001
-3.3736956e-001
-3.3308023e-001
-3.5339621e-001
-3.7597439e-001
-3.9898989e-001
-4.0981400e-001
-4.1808495e-001
-4.5402709e-001
-5.0025111e-001
-5.2889752e-001
-5.3727251e-001
-4.7280726e-001
-3.7165287e-001
-2.4786985e-001
-1.3487861e-001
-7.4559711e-002
-6.0567018e-002
-9.8678641e-002
-1.7266482e-001
-2.7033854e-001
-3.6815178e-001
-4.5167276e-001
-4.8563293e-001
-4.7530916e-001
-4.2664701e-001
-3.6252415e-001
-3.1166953e-001
-2.7275160e-001
-2.3426731e-001
-1.9175717e-001
-1.4718179e-001
-1.0342928e-001
-8.6642034e-002
-8.5140981e-002
-8.0286063e-002
-7.3400855e-002
-3.8949534e-002
5.1666694e-003
2.8530089e-002
3.6970146e-002
3.3567846e-004
-4.9067307e-002
-8.9518532e-002
-1.1891834e-001
-1.2273603e-001
-1.2773401e-001
-1.3534029e-001
-1.4387342e-001
-1.4315577e-001
-1.1678234e-001
-8.0950104e-002
-5.0113633e-002
-4.4512719e-002
-6.1827242e-002
-8.6945735e-002
-1.3294959e-001
-1.8585917e-001
-3.0107260e-001
-4.4976032e-001
-6.3883162e-001
-8.3985245e-001
-9.3967754e-001
-9.7566515e-001
-8.8472039e-001
-7.3863018e-001
-5.7702446e-001
-4.1861960e-001
-2.6449487e-001
-1.1150212e-001
2.9072110e-002
1.5629143e-001
2.2434068e-001
2.3705629e-001
1.8662201e-001
9.6099913e-002
-1.4405400e-003
-9.6246280e-002
-1.7437851e-001
-2.1725255e-001
-2.2883417e-001
-1.8963800e-001
-1.0901120e-001
-7.4569628e-002
-8.4535584e-002
-1.7527565e-001
-3.2040358e-001
-3.3599851e-001
-2.6324081e-001
-6.1883457e-002
2.0069574e-001
3.5339534e-001
4.2873818e-001
4.3445042e-001
3.9743999e-001
3.6782351e-001
3.4914628e-001
3.6391759e-001
4.1255885e-001
4.6779159e-001
5.0223476e-001
4.5318523e-001
3.3547840e-001
1.8377687e-001
4.6494171e-002
-1.2173903e-001
-2.7586943e-001
-3.6044896e-001
-4.0093547e-001
-4.0577930e-001
-4.3750048e-001
-5.1785320e-001
-6.4247841e-001
-8.1713629e-001
-9.4729376e-001
-1.0242757e+000
-9.4577402e-001
-7.4048674e-001
-4.8082113e-001
-2.0421675e-001
-9.3111068e-002
-1.1058718e-001
-1.4060177e-001
-1.5391180e-001
1.0466099e-002
3.4066227e-001
9.0811801e-001
1.6083112e+000
2.2034247e+000
2.6913619e+000
3.1059120e+000
3.6124330e+000
4.3999424e+000
5.7611423e+000
7.8392859e+000
1.0968596e+001
1.5117715e+001
1.9395679e+001
2.3387566e+001
2.6843889e+001
2.9833046e+001
3.3241184e+001
3.7190453e+001
4.1819618e+001
4.6962238e+001
5.1366749e+001
5.5084385e+001
5.8671558e+001
6.2246067e+001
6.6393196e+001
7.0947693e+001
7.5289955e+001
7.9345703e+001
8.2866989e+001
8.5889938e+001
8.8486259e+001
9.0716797e+001
9.2707390e+001
9.4480385e+001
9.6064011e+001
9.7116180e+001
9.7279999e+001
9.6620522e+001
9.5325081e+001
9.3470566e+001
9.1218597e+001
8.8272202e+001
8.4585083e+001
8.0565643e+001
7.6390465e+001
7.2238808e+001
6.8168083e+001
6.3826160e+001
5.9202274e+001
5.4636753e+001
5.0166588e+001
4.6037144e+001
4.2260582e+001
3.8936287e+001
3.6060368e+001
3.3573822e+001
3.1454735e+001
2.9560104e+001
2.7922358e+001
2.6563644e+001
2.5504644e+001
2.4736500e+001
2.4244564e+001
2.3962984e+001
2.3870068e+001
2.3914394e+001
2.4084806e+001
2.4368647e+001
2.4748209e+001
2.5215195e+001
2.5834024e+001
2.6621458e+001
2.7638081e+001
2.8872711e+001
3.0201111e+001
3.1586401e+001
3.2916573e+001
3.4185200e+001
3.5556145e+001
3.7094639e+001
3.9192055e+001
4.1875156e+001
4.4511551e+001
4.6925285e+001
4.8646069e+001
4.9692085e+001
5.0544395e+001
5.1239635e+001
5.1895157e+001
5.2501999e+001
5.2930149e+001
5.3026028e+001
5.2653408e+001
5.1845436e+001
5.0784138e+001
4.9548698e+001
4.8208252e+001
4.6797768e+001
4.5312862e+001
4.3831017e+001
4.2333355e+001
4.0786713e+001
3.9184525e+001
3.7377838e+001
3.5359699e+001
3.2819832e+001
2.9633171e+001
2.6427401e+001
2.3233755e+001
2.0518896e+001
1.8335159e+001
1.6190571e+001
1.4096146e+001
1.2002257e+001
9.9362030e+000
7.9205489e+000
6.0007586e+000
4.2416101e+000
2.7020457e+000
1.4873154e+000
6.1777329e-001
1.2588172e-001
1.3124728e-001
5.6076217e-001
1.2120861e+000
1.9535406e+000
2.6062064e+000
3.0979090e+000
3.5360725e+000
3.9731531e+000
4.5275564e+000
5.2543201e+000
5.9968615e+000
6.6909108e+000
7.1741462e+000
7.3288569e+000
7.3716536e+000
7.2645097e+000
7.1104732e+000
6.8978572e+000
6.6163912e+000
6.2563157e+000
5.7916694e+000
5.2420158e+000
4.6997914e+000
4.1806560e+000
3.7665014e+000
3.4598801e+000
3.2590373e+000
3.1975088e+000
3.2795725e+000
3.4945915e+000
3.8286119e+000
4.1802092e+000
4.5183077e+000
4.8287811e+000
5.1087513e+000
5.3879590e+000
5.6556239e+000
5.9106040e+000
6.1328621e+000
6.3242712e+000
6.4501805e+000
6.5575442e+000
6.5941272e+000
6.5710449e+000
6.4378901e+000
6.2115736e+000
5.8559270e+000
5.4382391e+000
4.9523635e+000
4.4351172e+000
3.9141760e+000
3.4163299e+000
2.9526505e+000
2.5418875e+000
2.1403441e+000
1.7052063e+000
1.2546375e+000
7.9652125e-001
3.9746970e-001
1.4673387e-001
-3.7965607e-003
-1.7035155e-002
3.0449130e-002
1.3293394e-001
2.5022179e-001
3.5935119e-001
4.6625414e-001
5.7704204e-001
6.9000751e-001
7.9475653e-001
8.9215809e-001
9.3186706e-001
9.6772885e-001
9.9790782e-001
1.0579329e+000
1.1839020e+000
1.3421173e+000
1.5551200e+000
1.7773261e+000
2.0100701e+000
2.2264481e+000
2.4061463e+000
2.5432451e+000
2.6237493e+000
2.6606264e+000
2.6590207e+000
2.6211379e+000
2.5601897e+000
2.4642539e+000
2.3612857e+000
2.2569745e+000
2.1780732e+000
2.1617522e+000
2.1859400e+000
2.2893050e+000
2.4069865e+000
2.5411148e+000
2.6641526e+000
2.7595389e+000
2.8434813e+000
2.9138432e+000
2.9897983e+000
3.0864749e+000
3.2153275e+000
3.3908250e+000
3.6022630e+000
3.8490095e+000
4.1002040e+000
4.3521881e+000
4.5920973e+000
4.8258452e+000
5.0722141e+000
5.3298702e+000
5.6023536e+000
5.8775749e+000
6.1295748e+000
6.3609805e+000
6.5469084e+000
6.6973825e+000
6.7744517e+000
6.7981229e+000
6.6952124e+000
6.5338974e+000
6.2255359e+000
5.8737049e+000
5.4075971e+000
4.9106550e+000
4.3400908e+000
3.7619419e+000
3.1742713e+000
2.6254587e+000
2.1514690e+000
1.7458014e+000
1.4409542e+000
1.1944135e+000
1.0140352e+000
8.5470700e-001
7.0599127e-001
5.2071077e-001
2.9772609e-001
2.1501496e-002
-2.8253692e-001
-5.7673681e-001
-8.4615219e-001
-1.0316827e+000
-1.1653051e+000
-1.1990105e+000
-1.1895343e+000
-1.0937867e+000
-9.6211803e-001
-7.3075527e-001
-4.7794729e-001
-1.6856557e-001
1.1688221e-001
3.2291222e-001
4.8368382e-001
5.3455937e-001
5.7367796e-001
5.9094387e-001
6.0821587e-001
6.2055820e-001
5.9793657e-001
5.2642995e-001
4.2403901e-001
2.9296321e-001
1.7948416e-001
8.6694270e-002
3.1166935e-002
3.5245386e-003
-8.0682235e-003
-9.2230812e-003
4.6862319e-002
1.3219386e-001
2.5775349e-001
3.9843956e-001
5.6303549e-001
7.3164183e-001
8.9841998e-001
1.0559050e+000
1.1638258e+000
1.2645851e+000
1.3389869e+000
1.4146521e+000
1.4931148e+000
1.5624350e+000
1.6072326e+000
1.6345876e+000
1.6283529e+000
1.6217901e+000
1.6175143e+000
1.6335137e+000
1.6781681e+000
1.7540747e+000
1.8680794e+000
2.0410128e+000
2.2664077e+000
2.5450585e+000
2.8471737e+000
3.0875289e+000
3.2771628e+000
3.3007712e+000
3.2562375e+000
3.1135929e+000
2.9508803e+000
2.8030472e+000
2.6625879e+000
2.5631053e+000
2.4752605e+000
2.4490542e+000
2.4324000e+000
2.4555895e+000
2.4623747e+000
2.4146960e+000
2.3266578e+000
2.1418073e+000
1.9513457e+000
1.7556620e+000
1.6217686e+000
1.5794147e+000
1.5733300e+000
1.6025667e+000
1.5712690e+000
1.4806728e+000
1.3188623e+000
1.1082419e+000
8.9222229e-001
6.7494309e-001
4.7750831e-001
2.8718930e-001
9.6967176e-002
-9.3874305e-002
-2.9219407e-001
-4.9229544e-001
-7.0051402e-001
-9.0966690e-001
-1.1232154e+000
-1.3286706e+000
-1.4786544e+000
-1.6040187e+000
-1.6209500e+000
-1.6186650e+000
-1.5589920e+000
-1.5113639e+000
-1.4928920e+000
-1.4968871e+000
-1.5380303e+000
-1.5693566e+000
-1.5838259e+000
-1.5530958e+000
-1.4747458e+000
-1.3694410e+000
-1.2446482e+000
-1.1508828e+000
-1.0782262e+000
-1.0665900e+000
-1.0834991e+000
-1.1229346e+000
-1.1661571e+000
-1.1228808e+000
-1.0561631e+000
-8.6827451e-001
-6.6555041e-001
-4.5415261e-001
-2.4525644e-001
-7.8676067e-002
2.4157017e-003
7.5108677e-002
2.1659391e-001
3.6230311e-001
4.9912772e-001
6.1001092e-001
7.0089328e-001
7.4934399e-001
8.0487370e-001
8.7229550e-001
9.5925540e-001
1.0700457e+000
1.1636251e+000
1.2409152e+000
1.3245529e+000
1.4127421e+000
1.5483549e+000
1.7104859e+000
1.8788915e+000
2.0519693e+000
2.1314256e+000
2.1881351e+000
2.1963029e+000
2.1975043e+000
2.3403001e+000
