Image.
>Pix99999.
  .
5555
5555
2300
900
5555
2
1
0
701
5555
-5.6566000e-002
-5.7768278e-002
-5.8969561e-002
-6.0171839e-002
-6.1373126e-002
-6.2575400e-002
-6.3776687e-002
-6.4978957e-002
-6.6181242e-002
-6.7381546e-002
-6.8584792e-002
-6.9788061e-002
-7.0988394e-002
-7.2181806e-002
-7.3391765e-002
-7.4622579e-002
-7.5796165e-002
-7.6887503e-002
-7.8196160e-002
-7.9809919e-002
-8.0614626e-002
-8.0282949e-002
-8.2956880e-002
-8.9869134e-002
-8.5610427e-002
-5.4958358e-002
-1.9993628e-003
6.1306458e-002
1.1316184e-001
1.3824488e-001
1.5828715e-001
1.9875436e-001
2.5757042e-001
3.2549450e-001
3.9683279e-001
4.6727550e-001
5.3364289e-001
5.9258097e-001
6.3881403e-001
6.6885370e-001
6.8871486e-001
7.0743412e-001
7.3464322e-001
7.7708155e-001
8.2916558e-001
8.8150209e-001
9.2416608e-001
9.5050329e-001
9.6733570e-001
9.8421353e-001
1.0048071e+000
1.0307765e+000
1.0636189e+000
1.1063064e+000
1.1682014e+000
1.2549229e+000
1.3487480e+000
1.4251010e+000
1.4627497e+000
1.4504907e+000
1.4128028e+000
1.3826532e+000
1.3812848e+000
1.4193470e+000
1.4826114e+000
1.5506486e+000
1.6123391e+000
1.6622292e+000
1.7050909e+000
1.7486826e+000
1.7999799e+000
1.8638767e+000
1.9387726e+000
2.0179884e+000
2.0841603e+000
2.1196609e+000
2.1224761e+000
2.1000609e+000
2.0761518e+000
2.0760727e+000
2.1062486e+000
2.1643951e+000
2.2379792e+000
2.3114967e+000
2.3707120e+000
2.4050114e+000
2.4166067e+000
2.4133215e+000
2.4050062e+000
2.4004085e+000
2.3996387e+000
2.4007308e+000
2.4050691e+000
2.4134176e+000
2.4167643e+000
2.4064693e+000
2.3907354e+000
2.3846235e+000
2.4059298e+000
2.4657364e+000
2.5461428e+000
2.6181567e+000
2.6538432e+000
2.6328702e+000
2.5614924e+000
2.4600401e+000
2.3641796e+000
2.3093219e+000
2.3058903e+000
2.3492365e+000
2.4136558e+000
2.4697213e+000
2.5065241e+000
2.5235562e+000
2.5284789e+000
2.5302534e+000
2.5297492e+000
2.5273514e+000
2.5336347e+000
2.5618091e+000
2.6154401e+000
2.6895034e+000
2.7602046e+000
2.7995014e+000
2.7939446e+000
2.7409821e+000
2.6576760e+000
2.5682104e+000
2.4947000e+000
2.4533498e+000
2.4404671e+000
2.4447713e+000
2.4579468e+000
2.4751179e+000
2.4987950e+000
2.5332220e+000
2.5754292e+000
2.6192884e+000
2.6588902e+000
2.6884592e+000
2.7015800e+000
2.6932783e+000
2.6653509e+000
2.6232519e+000
2.5744650e+000
2.5264599e+000
2.4843097e+000
2.4503620e+000
2.4212046e+000
2.3912709e+000
2.3580070e+000
2.3234069e+000
2.3021216e+000
2.3095527e+000
2.3389080e+000
2.3708251e+000
2.3804424e+000
2.3488526e+000
2.2918041e+000
2.2395663e+000
2.2140286e+000
2.2252769e+000
2.2552629e+000
2.2764018e+000
2.2767479e+000
2.2560344e+000
2.2268090e+000
2.2048283e+000
2.1954880e+000
2.1974134e+000
2.2056928e+000
2.2134411e+000
2.2122581e+000
2.1945112e+000
2.1602204e+000
2.1154499e+000
2.0754039e+000
2.0561123e+000
2.0563793e+000
2.0646708e+000
2.0642772e+000
2.0407605e+000
1.9963440e+000
1.9423616e+000
1.8884366e+000
1.8407779e+000
1.7974194e+000
1.7543674e+000
1.7174194e+000
1.6982449e+000
1.7104100e+000
1.7624736e+000
1.8395263e+000
1.9143934e+000
1.9630697e+000
1.9708536e+000
1.9497280e+000
1.9240358e+000
1.9069600e+000
1.8999940e+000
1.8873714e+000
1.8479413e+000
1.7763455e+000
1.6805800e+000
1.5833315e+000
1.5112329e+000
1.4756806e+000
1.4756134e+000
1.4980692e+000
1.5243968e+000
1.5382600e+000
1.5279065e+000
1.4937868e+000
1.4458491e+000
1.4060000e+000
1.3977944e+000
1.4226851e+000
1.4659370e+000
1.5024277e+000
1.5061157e+000
1.4697000e+000
1.3975728e+000
1.2937591e+000
1.1616867e+000
1.0079864e+000
8.4624749e-001
7.1215206e-001
6.4861101e-001
6.7057472e-001
7.6766992e-001
9.0101713e-001
1.0203145e+000
1.0955114e+000
1.1161009e+000
1.0937330e+000
1.0528386e+000
1.0182469e+000
1.0104489e+000
1.0347660e+000
1.0840410e+000
1.1392143e+000
1.1760633e+000
1.1774869e+000
1.1364441e+000
1.0672611e+000
9.9354249e-001
9.1981846e-001
8.3550364e-001
7.2636306e-001
5.8442450e-001
4.3343213e-001
3.1550303e-001
2.5845358e-001
2.7097040e-001
3.3091012e-001
3.9943415e-001
4.5106921e-001
4.7292113e-001
4.5627743e-001
3.9538631e-001
2.9134029e-001
1.5636311e-001
3.2672752e-002
-2.7458638e-002
-1.9838326e-002
2.2559697e-002
6.5016642e-002
7.6777659e-002
2.8769417e-002
-9.8157167e-002
-2.8081512e-001
-4.7266775e-001
-6.6061580e-001
-8.5693324e-001
-1.0592027e+000
-1.2511643e+000
-1.4212172e+000
-1.5648096e+000
-1.6850406e+000
-1.7855930e+000
-1.8489801e+000
-1.8424973e+000
-1.7399935e+000
-1.5302099e+000
-1.2370503e+000
-9.0907383e-001
-5.9016889e-001
-3.0948961e-001
-6.1269484e-002
1.9448163e-001
5.3685743e-001
1.0467722e+000
1.6891845e+000
2.3520076e+000
3.0054798e+000
3.7134821e+000
4.6076632e+000
5.8846903e+000
7.8517599e+000
1.0798059e+001
1.4542428e+001
1.8524319e+001
2.2236509e+001
2.5374626e+001
2.8098394e+001
3.0918621e+001
3.4311207e+001
3.8530991e+001
4.3201000e+001
4.7543888e+001
5.1293587e+001
5.4724758e+001
5.8257339e+001
6.2258018e+001
6.6659149e+001
7.1044601e+001
7.5112686e+001
7.8738945e+001
8.1883400e+001
8.4559471e+001
8.6814056e+001
8.8723412e+001
9.0406487e+001
9.1974709e+001
9.3345833e+001
9.4281822e+001
9.4633797e+001
9.4371925e+001
9.3512360e+001
9.2090073e+001
9.0123398e+001
8.7628571e+001
8.4706490e+001
8.1510384e+001
7.8064468e+001
7.4274101e+001
7.0095642e+001
6.5581421e+001
6.0912636e+001
5.6362839e+001
5.2143429e+001
4.8371510e+001
4.5077400e+001
4.2216320e+001
3.9696056e+001
3.7404736e+001
3.5288883e+001
3.3361664e+001
3.1657972e+001
3.0214634e+001
2.9041000e+001
2.8114658e+001
2.7399275e+001
2.6851536e+001
2.6437517e+001
2.6136772e+001
2.5930897e+001
2.5807819e+001
2.5789940e+001
2.5935326e+001
2.6316029e+001
2.6996159e+001
2.7963211e+001
2.9122639e+001
3.0364359e+001
3.1587021e+001
3.2719929e+001
3.3762947e+001
3.4922375e+001
3.6559093e+001
3.8801071e+001
4.1452770e+001
4.4100147e+001
4.6233154e+001
4.7677532e+001
4.8639141e+001
4.9298611e+001
4.9720657e+001
4.9960979e+001
5.0081100e+001
5.0083801e+001
4.9912579e+001
4.9541759e+001
4.8990814e+001
4.8258896e+001
4.7309650e+001
4.6096767e+001
4.4586800e+001
4.2841454e+001
4.1022285e+001
3.9269012e+001
3.7638489e+001
3.6014038e+001
3.4119331e+001
3.1781990e+001
2.9027851e+001
2.6084976e+001
2.3331573e+001
2.0953192e+001
1.8858881e+001
1.6894001e+001
1.4914900e+001
1.2864811e+001
1.0788795e+001
8.7473793e+000
6.7963133e+000
5.0092077e+000
3.4722943e+000
2.2133291e+000
1.2011309e+000
4.8717088e-001
2.2014269e-001
4.4395471e-001
1.0373886e+000
1.8220788e+000
2.6054907e+000
3.2659206e+000
3.7842176e+000
4.1971579e+000
4.5847778e+000
5.0301399e+000
5.5882125e+000
6.2029862e+000
6.6973119e+000
6.9657526e+000
7.0346856e+000
6.9652796e+000
6.8186769e+000
6.6088004e+000
6.2888198e+000
5.8154268e+000
5.1779656e+000
4.4239507e+000
3.6641426e+000
2.9849660e+000
2.4177670e+000
1.9677937e+000
1.6241115e+000
1.3916086e+000
1.2997811e+000
1.3705599e+000
1.6041729e+000
1.9769560e+000
2.4404955e+000
2.9544616e+000
3.4963586e+000
4.0406213e+000
4.5516510e+000
4.9925842e+000
5.3322725e+000
5.5660572e+000
5.7243862e+000
5.8352809e+000
5.9097252e+000
5.9429617e+000
5.9143348e+000
5.8105774e+000
5.6336093e+000
5.3816772e+000
5.0446839e+000
4.6214085e+000
4.1299500e+000
3.6108000e+000
3.1250591e+000
2.7006297e+000
2.3074336e+000
1.9029895e+000
1.4534992e+000
9.7286707e-001
5.4170489e-001
2.2748604e-001
4.9620006e-002
-5.2738581e-003
1.7012678e-002
7.8270555e-002
1.6434036e-001
2.6884520e-001
3.8901243e-001
5.2143842e-001
6.5942860e-001
7.8974599e-001
8.9104813e-001
9.4795692e-001
9.5911914e-001
9.3392670e-001
8.9360583e-001
8.5789227e-001
8.3892542e-001
8.4300685e-001
8.6939019e-001
9.1484797e-001
9.7403353e-001
1.0374017e+000
1.0897415e+000
1.1185663e+000
1.1197529e+000
1.0967789e+000
1.0635620e+000
1.0368909e+000
1.0338459e+000
1.0689429e+000
1.1509595e+000
1.2809571e+000
1.4490025e+000
1.6436480e+000
1.8555692e+000
2.0773005e+000
2.3036597e+000
2.5264227e+000
2.7316694e+000
2.9088256e+000
3.0567839e+000
3.1854503e+000
3.3207812e+000
3.4921565e+000
3.7268057e+000
4.0432591e+000
4.4446549e+000
4.9285498e+000
5.4888406e+000
6.1192088e+000
6.8133192e+000
7.5618019e+000
8.3498631e+000
9.1620770e+000
9.9851751e+000
1.0805840e+001
1.1609018e+001
1.2374897e+001
1.3076365e+001
1.3682557e+001
1.4162122e+001
1.4481960e+001
1.4609650e+001
1.4525137e+001
1.4237407e+001
1.3772348e+001
1.3169959e+001
1.2472891e+001
1.1718830e+001
1.0943914e+001
1.0190502e+001
9.4937296e+000
8.8781214e+000
8.3517370e+000
7.8957214e+000
7.4778481e+000
7.0523572e+000
6.5776405e+000
6.0293922e+000
5.4023428e+000
4.7236619e+000
4.0300169e+000
3.3613091e+000
2.7492044e+000
2.2057493e+000
1.7354783e+000
1.3375181e+000
1.0132618e+000
7.7103066e-001
6.1646402e-001
5.4407221e-001
5.3789133e-001
5.6536186e-001
5.9690106e-001
6.1909658e-001
6.2903464e-001
6.3788092e-001
6.5285999e-001
6.6482967e-001
6.6090775e-001
6.2902278e-001
5.6194681e-001
4.6331307e-001
3.4099579e-001
2.0749196e-001
8.2848087e-002
6.7669712e-004
-1.4226241e-002
3.4625448e-002
1.3647801e-001
2.7950519e-001
4.5272708e-001
6.4782929e-001
8.5794103e-001
1.0781943e+000
1.3053294e+000
1.5394142e+000
1.7850480e+000
2.0555665e+000
2.3608601e+000
2.6975703e+000
3.0586348e+000
3.4366851e+000
3.8266895e+000
4.2301650e+000
4.6441522e+000
5.0518680e+000
5.4357033e+000
5.7865176e+000
6.1081429e+000
6.4328213e+000
6.7961779e+000
7.2238126e+000
7.7228141e+000
8.2597227e+000
8.7929592e+000
9.2866783e+000
9.7145815e+000
1.0070700e+001
1.0347686e+001
1.0524155e+001
1.0583103e+001
1.0542950e+001
1.0436503e+001
1.0323650e+001
1.0251920e+001
1.0221407e+001
1.0215946e+001
1.0202909e+001
1.0153714e+001
1.0058122e+001
9.9111261e+000
9.7056446e+000
9.4406424e+000
9.1335144e+000
8.8102188e+000
8.5073395e+000
8.2494087e+000
8.0186930e+000
7.7878699e+000
7.5320072e+000
7.2384501e+000
6.9277244e+000
6.6185622e+000
6.3015513e+000
5.9614987e+000
5.5896449e+000
5.1922212e+000
4.8158360e+000
4.5034342e+000
4.2562308e+000
4.0515704e+000
3.8267727e+000
3.5234799e+000
3.1284986e+000
2.6553531e+000
2.1663482e+000
1.7258892e+000
1.3671359e+000
1.1024663e+000
9.0282643e-001
7.3171002e-001
5.6094223e-001
3.7174395e-001
1.6896348e-001
-3.4597501e-002
-2.1913010e-001
-3.6260360e-001
-4.4168851e-001
-4.3806773e-001
-3.5142905e-001
-1.9298732e-001
2.6159286e-003
1.9691874e-001
3.5868201e-001
4.6769685e-001
5.3518099e-001
5.7983106e-001
6.1887622e-001
6.6008598e-001
6.7983949e-001
6.4932442e-001
5.4932839e-001
3.8070834e-001
2.0617190e-001
8.3382666e-002
-2.3018047e-003
-7.0970863e-002
-9.8069534e-002
-5.9122741e-002
2.9736519e-002
1.4116657e-001
2.4386382e-001
3.1135389e-001
3.3880994e-001
3.3577842e-001
3.4503284e-001
3.9909631e-001
4.6050799e-001
4.7692499e-001
4.0604353e-001
2.3285662e-001
3.7581488e-002
-8.3279356e-002
-6.2498868e-002
1.3226634e-001
4.2521432e-001
7.1959996e-001
9.4306338e-001
1.0293000e+000
