Image.
>Pix99999.
  .
5555
5555
2300
900
5555
2
1
0
701
5555
-5.9636999e-002
-6.0903188e-002
-6.2170375e-002
-6.3437559e-002
-6.4704753e-002
-6.5971933e-002
-6.7239121e-002
-6.8506315e-002
-6.9772512e-002
-7.1039684e-002
-7.2306871e-002
-7.3574059e-002
-7.4841246e-002
-7.6108433e-002
-7.7375621e-002
-7.8641824e-002
-7.9908997e-002
-8.1176184e-002
-8.2443364e-002
-8.3710559e-002
-8.4977746e-002
-8.6244926e-002
-8.7511145e-002
-8.8778310e-002
-9.0045489e-002
-9.1312677e-002
-3.3932971e-003
8.1028238e-002
1.6059037e-001
2.4528691e-001
3.3079886e-001
3.8224617e-001
4.2816630e-001
4.0511408e-001
3.8016993e-001
3.6653402e-001
3.6803326e-001
4.3616432e-001
5.1220310e-001
6.0150570e-001
6.7506629e-001
7.1261251e-001
7.4320018e-001
7.6591259e-001
7.8793460e-001
8.0970925e-001
7.9816079e-001
7.5449717e-001
6.8974078e-001
6.1079067e-001
5.8087999e-001
5.7978880e-001
6.4504808e-001
7.3855853e-001
8.3864784e-001
9.4026673e-001
9.8989999e-001
1.0275806e+000
1.0362864e+000
1.0411038e+000
1.0751457e+000
1.1129886e+000
1.1629652e+000
1.2136370e+000
1.2613571e+000
1.3076100e+000
1.3496683e+000
1.3700579e+000
1.3356857e+000
1.2673479e+000
1.1451000e+000
1.0438806e+000
9.8104930e-001
9.7541994e-001
1.0296906e+000
1.0831535e+000
1.1305188e+000
1.1541120e+000
1.1616426e+000
1.1827930e+000
1.2123258e+000
1.2572730e+000
1.3084320e+000
1.3769933e+000
1.4508721e+000
1.5327214e+000
1.6163046e+000
1.6732756e+000
1.7239640e+000
1.7371083e+000
1.7405400e+000
1.7106240e+000
1.6732681e+000
1.6246828e+000
1.5806012e+000
1.5552671e+000
1.5465914e+000
1.5686140e+000
1.6070440e+000
1.6654164e+000
1.7367572e+000
1.8211337e+000
1.9108274e+000
2.0039127e+000
2.0642731e+000
2.0971351e+000
2.0788431e+000
2.0293086e+000
1.9790680e+000
1.9307054e+000
1.9188172e+000
1.9221230e+000
1.9278560e+000
1.9339154e+000
1.9299608e+000
1.9243200e+000
1.9458423e+000
1.9747027e+000
2.0220859e+000
2.0712872e+000
2.1100914e+000
2.1364169e+000
2.1254892e+000
2.0831463e+000
1.9795132e+000
1.8584571e+000
1.7270479e+000
1.6404612e+000
1.6241486e+000
1.6613675e+000
1.7463615e+000
1.8308607e+000
1.9064269e+000
1.9644639e+000
2.0102961e+000
2.0482414e+000
2.0826943e+000
2.1388438e+000
2.2066987e+000
2.2888420e+000
2.3762000e+000
2.3933208e+000
2.3861849e+000
2.3255966e+000
2.2528348e+000
2.2109430e+000
2.1776247e+000
2.1503181e+000
2.1184828e+000
2.0623610e+000
2.0051785e+000
1.9643383e+000
1.9374548e+000
1.9307934e+000
1.9172180e+000
1.8804885e+000
1.8280463e+000
1.7614776e+000
1.6963232e+000
1.6373061e+000
1.5780685e+000
1.5178920e+000
1.4635732e+000
1.4144237e+000
1.4000605e+000
1.4071250e+000
1.4684163e+000
1.5559139e+000
1.6666720e+000
1.7858286e+000
1.8381957e+000
1.8630059e+000
1.7866092e+000
1.6797960e+000
1.5969926e+000
1.5444000e+000
1.6106520e+000
1.7156731e+000
1.8190594e+000
1.8879963e+000
1.8665972e+000
1.8122092e+000
1.7481680e+000
1.6759242e+000
1.5976759e+000
1.4727435e+000
1.2906723e+000
1.0891635e+000
8.8140482e-001
7.6481849e-001
7.2937924e-001
8.0443662e-001
9.5018417e-001
1.1332608e+000
1.3323894e+000
1.4807428e+000
1.5994880e+000
1.6077279e+000
1.5652397e+000
1.5057502e+000
1.4458001e+000
1.4637736e+000
1.5121331e+000
1.5579079e+000
1.5881182e+000
1.5519229e+000
1.4881991e+000
1.4150813e+000
1.3453085e+000
1.2932746e+000
1.2331200e+000
1.1507478e+000
1.0579200e+000
9.6288711e-001
9.0976912e-001
9.0489298e-001
9.2600870e-001
9.5544159e-001
9.7246611e-001
9.7823375e-001
9.5873171e-001
9.2375565e-001
7.8099799e-001
5.6999677e-001
2.5048161e-001
-1.2420858e-001
-3.0746913e-001
-3.7903324e-001
-1.8160437e-001
1.3725021e-001
4.3259114e-001
7.0270443e-001
9.1091895e-001
1.0674888e+000
1.1340404e+000
1.1307451e+000
1.0339067e+000
9.2481279e-001
8.7218219e-001
8.6486113e-001
9.0301746e-001
9.2088318e-001
8.8799065e-001
8.2781875e-001
7.5377238e-001
7.0197999e-001
6.7747647e-001
5.7153410e-001
3.8654366e-001
1.1819384e-001
-2.0232104e-001
-3.4321201e-001
-3.5284480e-001
-1.8229496e-001
8.8324197e-002
2.8970164e-001
4.3618816e-001
4.5225018e-001
3.7488046e-001
1.6722932e-001
-9.6482791e-002
-3.0212563e-001
-3.9075756e-001
-2.1788232e-001
5.1718965e-002
2.4086271e-001
2.9899138e-001
1.7714709e-001
4.1388039e-002
-2.1095552e-001
-4.9436301e-001
-6.8350184e-001
-9.0172422e-001
-1.1928470e+000
-1.5351638e+000
-1.9105893e+000
-2.1891818e+000
-2.3727136e+000
-2.4611468e+000
-2.4837584e+000
-2.4257798e+000
-2.3100159e+000
-2.0212054e+000
-1.6158146e+000
-1.1879228e+000
-7.6390254e-001
-4.4375244e-001
-1.9843850e-001
8.8664755e-002
5.0522035e-001
1.0614408e+000
1.6673850e+000
2.2475984e+000
2.8021369e+000
3.3408339e+000
3.9814920e+000
4.8407998e+000
6.2023344e+000
8.2168941e+000
1.1306767e+001
1.5528857e+001
2.0085119e+001
2.4558849e+001
2.8553474e+001
3.2049248e+001
3.5908878e+001
4.0260277e+001
4.5309017e+001
5.0911003e+001
5.5788071e+001
5.9991730e+001
6.4088646e+001
6.8192719e+001
7.3000465e+001
7.8333527e+001
8.3623199e+001
8.8793007e+001
9.3591331e+001
9.7987930e+001
1.0189487e+002
1.0522285e+002
1.0784197e+002
1.0956740e+002
1.1022385e+002
1.0960931e+002
1.0764178e+002
1.0482180e+002
1.0165091e+002
9.8184204e+001
9.4511208e+001
9.0303131e+001
8.5480652e+001
8.0551666e+001
7.5701935e+001
7.1010590e+001
6.6478836e+001
6.1654480e+001
5.6509354e+001
5.1520233e+001
4.6734200e+001
4.2503517e+001
3.8833588e+001
3.5723293e+001
3.3151901e+001
3.0941475e+001
2.9066942e+001
2.7389223e+001
2.5945179e+001
2.4772663e+001
2.3876352e+001
2.3221001e+001
2.2788010e+001
2.2519514e+001
2.2431974e+001
2.2516558e+001
2.2775951e+001
2.3195343e+001
2.3690430e+001
2.4205500e+001
2.4739492e+001
2.5291000e+001
2.5977568e+001
2.6826914e+001
2.7886192e+001
2.9159559e+001
3.0517399e+001
3.1944315e+001
3.3401291e+001
3.4935219e+001
3.6990864e+001
3.9621143e+001
4.2527729e+001
4.5544456e+001
4.7932148e+001
4.9635269e+001
5.0847000e+001
5.1521023e+001
5.1737164e+001
5.1505680e+001
5.0923931e+001
5.0055000e+001
4.9033878e+001
4.7831432e+001
4.6463432e+001
4.4894932e+001
4.3107750e+001
4.1147625e+001
3.9034512e+001
3.7029465e+001
3.5242832e+001
3.3630745e+001
3.2199379e+001
3.0539560e+001
2.8547087e+001
2.6006712e+001
2.2803892e+001
1.9756336e+001
1.6962824e+001
1.4724634e+001
1.3106270e+001
1.1540857e+001
1.0030879e+001
8.5159140e+000
7.0094142e+000
5.5357962e+000
4.1376529e+000
2.8785701e+000
1.8136075e+000
1.0022020e+000
4.4802672e-001
1.1895857e-001
1.0732222e-001
4.6264443e-001
1.0313239e+000
1.7384200e+000
2.3864779e+000
2.8568389e+000
3.1966960e+000
3.4013689e+000
3.6782520e+000
4.1082602e+000
4.6842337e+000
5.4433684e+000
6.0025072e+000
6.2369161e+000
6.2723002e+000
6.0373468e+000
5.7441530e+000
5.3763666e+000
4.9677019e+000
4.5134473e+000
4.0284925e+000
3.5366600e+000
3.1069264e+000
2.7566860e+000
2.5032995e+000
2.3611605e+000
2.3347712e+000
2.4460065e+000
2.7091851e+000
3.0758343e+000
3.4986150e+000
3.9042788e+000
4.2398891e+000
4.5264196e+000
4.7634950e+000
4.9616437e+000
5.1006422e+000
5.1927199e+000
5.2111526e+000
5.2536569e+000
5.3487411e+000
5.4916773e+000
5.6939020e+000
5.8269916e+000
5.8380151e+000
5.7283320e+000
5.4446983e+000
5.0594134e+000
4.5494318e+000
3.9822142e+000
3.3885193e+000
2.8715580e+000
2.4555905e+000
2.1563194e+000
1.9151349e+000
1.6220603e+000
1.2758223e+000
8.6434019e-001
4.7244811e-001
2.0289806e-001
3.2473855e-002
-2.0142263e-003
1.4006225e-002
5.9719671e-002
9.2873037e-002
8.6025245e-002
6.1296441e-002
1.0585658e-002
6.1099865e-003
9.9862859e-002
2.6958936e-001
5.5787110e-001
8.3378708e-001
1.0795017e+000
1.2716293e+000
1.3999009e+000
1.5309653e+000
1.6874748e+000
1.9141611e+000
2.2196701e+000
2.5622027e+000
2.9110155e+000
3.1928971e+000
3.3970754e+000
3.5101843e+000
3.5613325e+000
3.5762899e+000
3.5772595e+000
3.5787902e+000
3.5789714e+000
3.5714552e+000
3.5629807e+000
3.5550175e+000
3.5601439e+000
3.5985329e+000
3.6504052e+000
3.7295537e+000
3.8058450e+000
3.8738537e+000
3.9296813e+000
3.9655790e+000
4.0067434e+000
4.0676489e+000
4.1812663e+000
4.3783641e+000
4.6434402e+000
4.9868207e+000
5.3484139e+000
5.7268243e+000
6.1053572e+000
6.4921522e+000
6.9095721e+000
7.3518672e+000
7.8160553e+000
8.2905750e+000
8.7615023e+000
9.2178383e+000
9.6283684e+000
9.9850340e+000
1.0206843e+001
1.0349240e+001
1.0315761e+001
1.0220936e+001
9.9835682e+000
9.7062407e+000
9.3250351e+000
8.9142351e+000
8.4320450e+000
7.9306760e+000
7.3897886e+000
6.8311214e+000
6.2423906e+000
5.6405878e+000
5.0255065e+000
4.4295907e+000
3.8640141e+000
3.3450353e+000
2.8747017e+000
2.4374943e+000
2.0277071e+000
1.6335797e+000
1.2521260e+000
8.8669151e-001
5.3851157e-001
2.3239750e-001
-3.6371261e-002
-2.0854811e-001
-3.2625625e-001
-3.1057763e-001
-2.4626181e-001
-5.8320239e-002
1.4193961e-001
3.5987875e-001
5.4989880e-001
6.5301299e-001
7.3393935e-001
7.6066989e-001
7.7922571e-001
7.7847672e-001
7.5253212e-001
6.8066370e-001
5.6740862e-001
3.9937443e-001
2.1706744e-001
3.2252461e-002
-8.4481105e-002
-1.2409242e-001
-5.1321287e-002
9.7782746e-002
3.1313658e-001
5.7761931e-001
8.9343977e-001
1.2404597e+000
1.6485783e+000
2.0730901e+000
2.4966676e+000
2.9016299e+000
3.2087760e+000
3.4943271e+000
3.7125273e+000
3.9233694e+000
4.1061130e+000
4.2588034e+000
4.3145604e+000
4.3403950e+000
4.2968817e+000
4.2799587e+000
4.3210130e+000
4.4203110e+000
4.6144857e+000
4.8575535e+000
5.1644478e+000
5.5078044e+000
5.8830776e+000
6.2363491e+000
6.5649104e+000
6.8364997e+000
7.0726428e+000
7.2938242e+000
7.5014515e+000
7.6602812e+000
7.7866087e+000
7.7948627e+000
7.7671089e+000
7.6683612e+000
7.5650439e+000
7.4966507e+000
7.4334154e+000
7.3909760e+000
7.3345141e+000
7.2167168e+000
7.0993853e+000
6.9856091e+000
6.8940334e+000
6.8522072e+000
6.7828932e+000
6.6549807e+000
6.4461198e+000
6.1162467e+000
5.7374501e+000
5.3070598e+000
4.9119010e+000
4.5550375e+000
4.2694449e+000
4.0332594e+000
3.8029819e+000
3.5664542e+000
3.2339196e+000
2.8545449e+000
2.3699772e+000
1.8590832e+000
1.3699132e+000
8.9655972e-001
5.6130481e-001
2.4906208e-001
7.1956620e-002
-8.8517070e-002
-1.4288606e-001
-1.8457748e-001
-1.7189428e-001
-1.7711180e-001
-2.3924892e-001
-3.2547063e-001
-4.6597734e-001
-5.9612644e-001
-7.0674628e-001
-7.9582351e-001
-8.5400659e-001
-8.7842023e-001
-8.6468744e-001
-7.9032779e-001
-6.6368866e-001
-4.6170348e-001
-2.1325275e-001
4.7562450e-002
3.0690676e-001
4.2505211e-001
4.9089700e-001
4.1692030e-001
3.1490800e-001
2.5613612e-001
2.0456479e-001
2.0167735e-001
1.9579715e-001
1.1985290e-001
4.3593310e-002
-2.3827031e-003
-7.3295675e-002
-9.7268157e-002
-9.4098628e-002
-9.5979273e-003
1.4301056e-001
4.4151300e-001
7.8244340e-001
1.1899414e+000
1.5447280e+000
1.8345454e+000
2.0618041e+000
2.2316566e+000
2.4454000e+000
2.6908407e+000
2.9972801e+000
3.3355811e+000
3.6030700e+000
3.8438714e+000
4.0355268e+000
4.2150879e+000
4.4220057e+000
4.6335297e+000
4.7242999e+000
