Image.
>Pix99999.
  .
5555
5555
2300
900
5555
2
1
0
701
5555
7.9310998e-002
8.0960639e-002
8.2611278e-002
8.4260926e-002
8.5910559e-002
8.7560199e-002
8.9210831e-002
9.0860479e-002
9.2511103e-002
9.4159774e-002
9.5810391e-002
9.7462989e-002
9.9110715e-002
1.0074953e-001
1.0240680e-001
1.0410357e-001
1.0571320e-001
1.0721357e-001
1.0900372e-001
1.1120974e-001
1.1232886e-001
1.1191380e-001
1.1554182e-001
1.2487688e-001
1.1918326e-001
8.2368612e-002
4.2072166e-002
2.8588679e-002
3.3586722e-002
3.9250102e-002
3.3872314e-002
1.2699459e-002
-8.4074326e-003
-1.5819989e-002
-2.8774923e-002
-6.8740495e-002
-1.2743023e-001
-1.8345475e-001
-1.9807066e-001
-1.3992044e-001
-2.7852656e-002
1.0105918e-001
1.9680439e-001
2.1833879e-001
1.7572789e-001
9.6974395e-002
1.9498933e-002
-2.2044722e-002
-1.4943955e-002
4.4454068e-002
1.5072507e-001
2.9284739e-001
4.4800583e-001
5.9084004e-001
7.0052952e-001
7.6340389e-001
7.8879678e-001
7.9426509e-001
8.0069816e-001
8.2611167e-001
8.7304455e-001
9.3715906e-001
1.0067893e+000
1.0686921e+000
1.1136320e+000
1.1340193e+000
1.1260995e+000
1.0899233e+000
1.0373554e+000
9.8599190e-001
9.6144700e-001
9.8616523e-001
1.0591770e+000
1.1688635e+000
1.2939166e+000
1.4136392e+000
1.5230309e+000
1.6222870e+000
1.7081842e+000
1.7765950e+000
1.8243999e+000
1.8498501e+000
1.8562963e+000
1.8487790e+000
1.8307160e+000
1.8066993e+000
1.7877361e+000
1.7849746e+000
1.8003749e+000
1.8302696e+000
1.8629700e+000
1.8832949e+000
1.8738005e+000
1.8216190e+000
1.7355529e+000
1.6373172e+000
1.5673692e+000
1.5627934e+000
1.6185400e+000
1.7094936e+000
1.7955143e+000
1.8396038e+000
1.8386782e+000
1.8049356e+000
1.7584314e+000
1.7195950e+000
1.6996592e+000
1.7043855e+000
1.7321708e+000
1.7782011e+000
1.8348542e+000
1.8928870e+000
1.9407400e+000
1.9653746e+000
1.9521246e+000
1.8908179e+000
1.7918000e+000
1.6775388e+000
1.5863477e+000
1.5558640e+000
1.5951056e+000
1.6952993e+000
1.8228989e+000
1.9386146e+000
2.0194559e+000
2.0542037e+000
2.0488141e+000
2.0164766e+000
1.9695966e+000
1.9185908e+000
1.8674086e+000
1.8164443e+000
1.7618657e+000
1.6998841e+000
1.6329789e+000
1.5684236e+000
1.5209709e+000
1.5045376e+000
1.5173726e+000
1.5480883e+000
1.5766400e+000
1.5840166e+000
1.5719051e+000
1.5519104e+000
1.5381479e+000
1.5423601e+000
1.5649146e+000
1.6008149e+000
1.6448588e+000
1.6935422e+000
1.7504572e+000
1.8194902e+000
1.8928531e+000
1.9564109e+000
1.9943480e+000
1.9932808e+000
1.9515989e+000
1.8757606e+000
1.7804457e+000
1.6861470e+000
1.6221857e+000
1.6169690e+000
1.6775346e+000
1.7939847e+000
1.9298217e+000
2.0398514e+000
2.0946193e+000
2.0805197e+000
2.0154920e+000
1.9315318e+000
1.8560100e+000
1.8079691e+000
1.7845229e+000
1.7723455e+000
1.7607828e+000
1.7444500e+000
1.7326640e+000
1.7390163e+000
1.7631037e+000
1.7948614e+000
1.8162999e+000
1.8118287e+000
1.7919760e+000
1.7818164e+000
1.8096383e+000
1.8969822e+000
2.0338616e+000
2.1880920e+000
2.3036280e+000
2.3255899e+000
2.2552872e+000
2.1300361e+000
2.0047886e+000
1.9281429e+000
1.8888301e+000
1.8459044e+000
1.7765399e+000
1.6803279e+000
1.5974860e+000
1.5809522e+000
1.6440142e+000
1.7684425e+000
1.9056678e+000
1.9975400e+000
2.0094345e+000
1.9289871e+000
1.7759877e+000
1.5875008e+000
1.4016800e+000
1.2537488e+000
1.1704000e+000
1.1678672e+000
1.2386583e+000
1.3552427e+000
1.4619317e+000
1.4969271e+000
1.4389074e+000
1.2991160e+000
1.1179157e+000
9.4598871e-001
8.1286341e-001
7.3282689e-001
7.1598655e-001
7.6498318e-001
8.5403562e-001
9.4007504e-001
9.8054242e-001
9.4659227e-001
8.6096090e-001
7.7486789e-001
7.2375441e-001
7.2428292e-001
7.6901305e-001
8.3612764e-001
9.0122449e-001
9.4137681e-001
9.4083637e-001
8.9357573e-001
8.1639922e-001
7.3897570e-001
6.8465769e-001
6.6541487e-001
6.6775841e-001
6.6697669e-001
6.6022539e-001
6.6096151e-001
6.8245870e-001
7.3232979e-001
8.0188382e-001
8.7299764e-001
9.3320715e-001
9.7424543e-001
9.8356444e-001
9.5103711e-001
8.9372414e-001
8.4354812e-001
8.1332368e-001
8.0295587e-001
8.2446980e-001
8.9482951e-001
1.0062060e+000
1.1225654e+000
1.1640872e+000
1.0448176e+000
7.8147197e-001
4.6836120e-001
2.0439941e-001
6.0749296e-002
1.2141112e-002
-2.0206146e-002
-4.6129216e-002
-1.9685687e-002
8.9487717e-002
2.7902049e-001
4.8498368e-001
6.1255074e-001
6.2087709e-001
5.2886850e-001
4.1988045e-001
3.9719844e-001
4.6360600e-001
5.3700942e-001
5.1866817e-001
3.3428538e-001
2.7845196e-002
-2.6765180e-001
-4.2428431e-001
-3.4628838e-001
-8.4729046e-003
5.4831123e-001
1.2170770e+000
1.8588120e+000
2.3887234e+000
2.7973864e+000
3.2000139e+000
3.8007121e+000
4.7965403e+000
6.3510756e+000
8.5613670e+000
1.1416649e+001
1.4633286e+001
1.7757280e+001
2.0531834e+001
2.2955757e+001
2.5319422e+001
2.8084478e+001
3.1536415e+001
3.5680374e+001
4.0045319e+001
4.3914288e+001
4.7142101e+001
5.0130253e+001
5.3318954e+001
5.7011292e+001
6.1119648e+001
6.5263100e+001
6.9191154e+001
7.2828644e+001
7.6159103e+001
7.9200859e+001
8.2027573e+001
8.4752647e+001
8.7464966e+001
9.0160835e+001
9.2533058e+001
9.4080391e+001
9.4623756e+001
9.4323242e+001
9.3383820e+001
9.1967110e+001
9.0110626e+001
8.7767807e+001
8.5007286e+001
8.1999435e+001
7.8814026e+001
7.5403664e+001
7.1708519e+001
6.7700630e+001
6.3454220e+001
5.9133083e+001
5.4896458e+001
5.0878014e+001
4.7192978e+001
4.3929558e+001
4.1091812e+001
3.8607838e+001
3.6404598e+001
3.4429970e+001
3.2669273e+001
3.1136976e+001
2.9838001e+001
2.8756899e+001
2.7858343e+001
2.7098007e+001
2.6459785e+001
2.5959536e+001
2.5620651e+001
2.5468990e+001
2.5546600e+001
2.5907314e+001
2.6578114e+001
2.7540651e+001
2.8695223e+001
2.9879013e+001
3.0990200e+001
3.2012043e+001
3.2963837e+001
3.3916580e+001
3.5096527e+001
3.6819324e+001
3.9082542e+001
4.1517761e+001
4.3724583e+001
4.5410175e+001
4.6599838e+001
4.7616821e+001
4.8670128e+001
4.9749577e+001
5.0717621e+001
5.1363934e+001
5.1561401e+001
5.1315445e+001
5.0746361e+001
5.0052284e+001
4.9331944e+001
4.8543049e+001
4.7589199e+001
4.6359741e+001
4.4815826e+001
4.3023411e+001
4.1145943e+001
3.9391705e+001
3.7759159e+001
3.5995239e+001
3.3850803e+001
3.1197721e+001
2.8202993e+001
2.5314777e+001
2.2806185e+001
2.0654739e+001
1.8715857e+001
1.6787413e+001
1.4742931e+001
1.2567357e+001
1.0285263e+001
7.9516411e+000
5.6964459e+000
3.7201815e+000
2.1456316e+000
9.9219871e-001
3.2481915e-001
2.5869286e-001
7.3320508e-001
1.4681630e+000
2.2389629e+000
2.9648108e+000
3.6555076e+000
4.3846130e+000
5.1645055e+000
5.9050856e+000
6.4702401e+000
6.7171388e+000
6.6337643e+000
6.3721552e+000
6.0581627e+000
5.7355752e+000
5.4316216e+000
5.1698828e+000
4.9467897e+000
4.7186980e+000
4.4101171e+000
3.9296641e+000
3.2665756e+000
2.5267582e+000
1.8465660e+000
1.3566121e+000
1.1174406e+000
1.0910461e+000
1.2048057e+000
1.3739533e+000
1.5455086e+000
1.7172530e+000
1.9098594e+000
2.1576109e+000
2.4795828e+000
2.8694973e+000
3.3205814e+000
3.8292472e+000
4.3712797e+000
4.8905916e+000
5.3208284e+000
5.5986943e+000
5.7059832e+000
5.6876359e+000
5.5898542e+000
5.4384198e+000
5.2448521e+000
5.0078902e+000
4.7330823e+000
4.4386144e+000
4.1348600e+000
3.8170626e+000
3.4854581e+000
3.1517375e+000
2.8247051e+000
2.5026987e+000
2.1689930e+000
1.7920990e+000
1.3660131e+000
9.3032640e-001
5.3843874e-001
2.4427858e-001
7.0031315e-002
-1.1151213e-002
-2.8819650e-002
2.0147860e-003
7.7486522e-002
2.0247093e-001
3.6067685e-001
5.0027347e-001
5.7237399e-001
5.5089742e-001
4.4475457e-001
3.0926001e-001
1.9504966e-001
1.2739679e-001
1.2371035e-001
1.9652146e-001
3.4961349e-001
5.7153040e-001
8.3263397e-001
1.0801179e+000
1.2665234e+000
1.3653349e+000
1.3713329e+000
1.3077294e+000
1.2055686e+000
1.0975150e+000
1.0119888e+000
9.6823525e-001
9.7717857e-001
1.0381768e+000
1.1455686e+000
1.2890291e+000
1.4546000e+000
1.6242907e+000
1.7809554e+000
1.9125183e+000
2.0174634e+000
2.1114306e+000
2.2143614e+000
2.3457971e+000
2.5166309e+000
2.7221079e+000
2.9527483e+000
3.1984758e+000
3.4585633e+000
3.7491858e+000
4.0898800e+000
4.4968219e+000
4.9767375e+000
5.5197582e+000
6.1127267e+000
6.7443237e+000
7.4065790e+000
8.0971251e+000
8.8080273e+000
9.5176678e+000
1.0193326e+001
1.0787852e+001
1.1259157e+001
1.1582286e+001
1.1744801e+001
1.1756575e+001
1.1638046e+001
1.1423594e+001
1.1140451e+001
1.0796185e+001
1.0391932e+001
9.9246655e+000
9.4051399e+000
8.8691635e+000
8.3493557e+000
7.8570290e+000
7.3881154e+000
6.9185414e+000
6.4270301e+000
5.9084716e+000
5.3659639e+000
4.8110962e+000
4.2546430e+000
3.7006454e+000
3.1495490e+000
2.5977180e+000
2.0464163e+000
1.5092043e+000
1.0083200e+000
5.7738489e-001
2.4850190e-001
4.2997383e-002
-3.4146398e-002
-8.8011399e-003
8.0449417e-002
1.8449427e-001
2.6312995e-001
3.0236945e-001
3.0136767e-001
2.7459040e-001
2.3713925e-001
1.9727109e-001
1.5999487e-001
1.2640424e-001
9.5037237e-002
6.1003197e-002
2.1049820e-002
-2.1836892e-002
-5.7737276e-002
-6.4961620e-002
-2.6536994e-002
5.6972176e-002
1.8148914e-001
3.4420019e-001
5.4006529e-001
7.5908172e-001
9.9991381e-001
1.2844586e+000
1.6366792e+000
2.0705278e+000
2.5787921e+000
3.1102459e+000
3.6113129e+000
4.0504837e+000
4.4155936e+000
4.7287993e+000
5.0130711e+000
5.2723351e+000
5.5082493e+000
5.7284741e+000
5.9502721e+000
6.2100554e+000
6.5387144e+000
6.9404149e+000
7.4042740e+000
7.8974462e+000
8.3855953e+000
8.8446941e+000
9.2579985e+000
9.6205292e+000
9.9296055e+000
1.0180870e+001
1.0372257e+001
1.0508460e+001
1.0604686e+001
1.0692050e+001
1.0801078e+001
1.0943400e+001
1.1109480e+001
1.1255790e+001
1.1335766e+001
1.1321271e+001
1.1202171e+001
1.1006478e+001
1.0769697e+001
1.0515840e+001
1.0258142e+001
9.9794531e+000
9.6630688e+000
9.3126745e+000
8.9416676e+000
8.5805950e+000
8.2503901e+000
7.9338346e+000
7.6062894e+000
7.2503104e+000
6.8634586e+000
6.4810300e+000
6.1365032e+000
5.8297219e+000
5.5448565e+000
5.2446399e+000
4.8935485e+000
4.4783449e+000
3.9973507e+000
3.4695528e+000
2.9238520e+000
2.4040864e+000
1.9500009e+000
1.5756388e+000
1.2810675e+000
1.0422760e+000
8.3342785e-001
6.4055657e-001
4.5736057e-001
2.9154581e-001
1.4961824e-001
2.3227036e-002
-9.4514675e-002
-1.9344297e-001
-2.5050101e-001
-2.1484958e-001
-4.2303652e-002
2.6580030e-001
6.8192458e-001
1.1287851e+000
1.5232989e+000
1.8048300e+000
1.9319375e+000
1.9102445e+000
1.7633640e+000
1.5359573e+000
1.2730814e+000
1.0028787e+000
7.4520236e-001
5.0631714e-001
2.9309103e-001
1.2696671e-001
2.8399726e-002
1.3780296e-003
4.5443036e-002
1.5844810e-001
3.2653630e-001
4.9509948e-001
6.0734737e-001
6.3609195e-001
5.7459319e-001
4.6472022e-001
3.5955760e-001
3.0870259e-001
3.4839350e-001
4.6759659e-001
6.3353956e-001
7.7557147e-001
8.2148618e-001
7.2969902e-001
4.9354070e-001
2.1221328e-001
3.8965270e-003
-4.2748883e-002
1.2785673e-001
4.6937022e-001
9.0990001e-001
