##TITLE=Methyl Ethyl Ketone
##JCAMP-DX=4.24
##DATA TYPE=INFRARED SPECTRUM
##XUNITS=cm-1
##YUNITS=Absorbance
##FIRSTX=900
##LASTX=2300
##XYDATA=(X++(Y..Y))
2296 0.070621997
2294 0.072090901
2292 0.073559798
2290 0.075029686
2288 0.076498598
2286 0.077967495
2284 0.079437383
2282 0.080906294
2280 0.082375191
2278 0.083845079
2276 0.085313991
2274 0.08678288
2272 0.088251777
2270 0.089721665
2268 0.091190577
2266 0.092659473
2264 0.094129354
2262 0.095598273
2260 0.09706717
2258 0.098536074
2256 0.10000789
2254 0.1014759
2252 0.1029438
2250 0.1044117
2248 0.1058796
2246 0.1073475
2244 0.07665693
2242 0.0029110243
2240 -0.05757504
2238 -0.1187306
2236 -0.18003857
2234 -0.16204569
2232 -0.13689886
2230 -0.079202227
2228 -0.027942082
2226 -0.0402424
2224 -0.066058487
2222 -0.13873017
2220 -0.20246023
2218 -0.23124407
2216 -0.22975114
2214 -0.16641897
2212 -0.085811377
2210 0.016999464
2208 0.081528664
2206 0.096610658
2204 0.019340917
2202 -0.14393331
2200 -0.3354283
2198 -0.54380399
2196 -0.63363004
2194 -0.65443897
2192 -0.54247922
2190 -0.37430272
2188 -0.22060812
2186 -0.072843455
2184 -0.046472639
2182 -0.047943715
2180 -0.10518109
2178 -0.16964081
2176 -0.16082801
2174 -0.13770923
2172 -0.028629197
2170 0.089049809
2168 0.20939726
2166 0.30804276
2164 0.32665586
2162 0.32200822
2160 0.2781812
2158 0.26269484
2156 0.30846301
2154 0.3877762
2152 0.50653344
2150 0.60280496
2148 0.66910356
2146 0.70514715
2144 0.71721882
2142 0.72117031
2140 0.72123677
2138 0.67958415
2136 0.61540771
2134 0.50452542
2132 0.37481716
2130 0.31697685
2128 0.28259081
2126 0.37196672
2124 0.48976627
2122 0.59951001
2120 0.70131159
2118 0.68187141
2116 0.63781881
2114 0.5389896
2112 0.44513798
2110 0.40825707
2108 0.39134443
2106 0.40957749
2104 0.42163017
2102 0.40870583
2100 0.3889764
2098 0.36408329
2096 0.3593443
2094 0.38205037
2092 0.43339118
2090 0.51024735
2088 0.57869595
2086 0.637003
2084 0.613491
2082 0.53682178
2080 0.41639438
2078 0.27671102
2076 0.26607502
2074 0.31005582
2072 0.49329841
2070 0.71974754
2068 0.92827314
2066 1.128828
2064 1.1816394
2062 1.1900141
2060 1.0335938
2058 0.85128742
2056 0.70568973
2054 0.60924244
2052 0.66413659
2050 0.73922652
2048 0.79035109
2046 0.77386498
2044 0.63557619
2042 0.46233144
2040 0.27106532
2038 0.14066479
2036 0.086723581
2034 0.10681578
2032 0.18519674
2030 0.26524958
2028 0.33908528
2026 0.39762044
2024 0.4474116
2022 0.5138256
2020 0.58982313
2018 0.63588691
2016 0.66842401
2014 0.64748263
2012 0.60833776
2010 0.56307155
2008 0.51718169
2006 0.48776415
2004 0.46460623
2002 0.45800769
2000 0.45150107
1998 0.42995167
1996 0.39431
1994 0.32931694
1992 0.2645779
1990 0.21420723
1988 0.18989781
1986 0.20151922
1984 0.22029606
1982 0.23726359
1980 0.24407715
1978 0.24133211
1976 0.28953886
1974 0.38767728
1972 0.59508884
1970 0.8790068
1968 1.1173424
1966 1.3177301
1964 1.2571814
1962 1.0612304
1960 0.75629163
1958 0.41098928
1956 0.19359514
1954 0.026683768
1952 -0.022447458
1950 -0.031889498
1948 -0.0056565078
1946 0.029274099
1944 0.048010744
1942 0.066613242
1940 0.09229739
1938 0.12713757
1936 0.17778
1934 0.21465807
1932 0.2179646
1930 0.18453974
1928 0.11154871
1926 0.04990454
1924 0.01969802
1922 0.094929755
1920 0.27309361
1918 0.5145281
1916 0.78682399
1914 0.99731773
1912 1.1560314
1910 1.2094302
1908 1.2024175
1906 1.0638586
1904 0.85768163
1902 0.70615584
1900 0.58274537
1898 0.74280274
1896 1.0172428
1894 1.3341229
1892 1.6270657
1890 1.641964
1888 1.5046502
1886 1.1651407
1884 0.75418419
1882 0.35390815
1880 -0.0081424043
1878 -0.28733802
1876 -0.46494099
1874 -0.50182962
1872 -0.37413269
1870 -0.065056197
1868 0.28405511
1866 0.60540569
1864 0.71446502
1862 0.60133851
1860 0.36567268
1858 0.074247941
1856 -0.17885089
1854 -0.3894794
1852 -0.52157307
1850 -0.60357583
1848 -0.60469443
1846 -0.55947822
1844 -0.56776571
1842 -0.60520011
1840 -0.71270567
1838 -0.84414959
1836 -0.87703186
1834 -0.84066349
1832 -0.66068566
1830 -0.39974183
1828 -0.08456406
1826 0.19187286
1824 0.28623492
1822 0.2145986
1820 -0.049246594
1818 -0.36294952
1816 -0.62557685
1814 -0.78453451
1812 -0.8173269
1810 -0.77022934
1808 -0.67911738
1806 -0.53776151
1804 -0.3583422
1802 -0.17853236
1800 -0.0044902712
1798 0.1301859
1796 0.235275
1794 0.42897728
1792 0.68520761
1790 0.93437648
1788 1.1685066
1786 1.23865
1784 1.2122886
1782 1.1751732
1780 1.150176
1778 1.257018
1776 1.4567971
1774 1.7549864
1772 2.0214555
1770 2.0130653
1768 1.7737622
1766 1.2863815
1764 0.762339
1762 0.40089315
1760 0.11090606
1758 -0.16951846
1756 -0.27802899
1754 -0.14829727
1752 0.31115562
1750 1.0762122
1748 1.8015206
1746 2.3802643
1744 2.4852855
1742 2.1679053
1740 1.7797079
1738 1.4085925
1736 1.37576
1734 1.6061321
1732 1.7081863
1730 1.6817439
1728 1.2030798
1726 0.44699502
1724 -0.087894619
1722 -0.3533819
1720 0.13228324
1718 1.269515
1716 2.9341829
1714 4.6555834
1712 5.7216191
1710 6.3185172
1708 6.6607661
1706 7.1617708
1704 8.2183504
1702 10.072769
1700 12.812009
1698 16.261738
1696 20.188429
1694 23.783531
1692 26.755472
1690 29.450855
1688 32.061291
1686 35.425701
1684 39.573975
1682 44.139191
1680 48.94696
1678 52.930897
1676 56.192783
1674 59.718266
1672 63.552837
1670 68.162308
1668 73.318588
1666 78.218002
1664 82.828674
1662 87.002289
1660 90.800697
1658 94.342674
1656 97.674004
1654 100.87917
1652 103.7132
1650 105.89635
1648 106.61572
1646 105.20358
1644 102.41837
1642 99.02401
1640 95.481911
1638 92.102867
1636 88.319885
1634 83.929482
1632 79.220337
1630 74.332603
1628 69.698067
1626 65.391235
1624 61.077999
1622 56.708733
1620 52.414486
1618 48.201359
1616 44.100712
1614 40.141575
1612 36.546352
1610 33.355999
1608 30.691696
1606 28.515942
1604 26.620825
1602 25.003366
1600 23.606422
1598 22.462515
1596 21.587502
1594 20.963766
1592 20.52796
1590 20.232592
1588 20.010086
1586 19.910549
1584 19.964497
1582 20.244989
1580 20.781334
1578 21.636883
1576 22.817343
1574 24.193554
1572 25.704668
1570 27.05505
1568 28.17864
1566 29.146606
1564 29.977074
1562 31.124523
1560 32.711647
1558 35.298866
1556 38.885544
1554 42.37571
1552 45.566593
1550 47.859795
1548 49.381886
1546 50.918285
1544 52.46032
1542 53.98045
1540 55.0303
1538 54.912758
1536 53.742516
1534 51.857327
1532 49.768845
1530 48.069923
1528 46.683937
1526 45.5345
1524 44.394939
1522 43.115112
1520 41.54995
1518 39.594215
1516 37.548786
1514 35.506538
1512 33.550037
1510 31.730062
1508 29.494061
1506 26.6959
1504 23.690491
1502 20.48959
1500 17.768015
1498 15.60109
1496 13.587572
1494 11.753445
1492 10.001523
1490 8.3421259
1488 6.7300167
1486 5.1484609
1484 3.547236
1482 2.0513463
1480 0.87657464
1478 0.15134493
1476 0.036676988
1474 0.53539628
1472 1.4901567
1470 2.460062
1468 3.1246617
1466 3.5718379
1464 3.8442101
1462 4.2270761
1460 4.8820667
1458 5.6446314
1456 6.4906201
1454 7.014327
1452 7.0049868
1450 6.7793798
1448 6.2659855
1446 5.7676249
1444 5.2961636
1442 4.857542
1440 4.4753833
1438 4.1555338
1436 3.9059172
1434 3.6400847
1432 3.3501925
1430 3.0176065
1428 2.68401
1426 2.4701099
1424 2.4089622
1422 2.5316212
1420 2.792999
1418 3.1065595
1416 3.3989744
1414 3.5798829
1412 3.6981211
1410 3.7998989
1408 3.9462698
1406 4.1982198
1404 4.5202036
1402 4.9206157
1400 5.3449759
1398 5.787106
1396 6.1711216
1394 6.433382
1392 6.5432825
1390 6.3818154
1388 6.1094851
1386 5.6731148
1384 5.2213411
1382 4.7644315
1380 4.3689651
1378 4.0585175
1376 3.8018742
1374 3.5962198
1372 3.3644619
1370 3.1040149
1368 2.8239257
1366 2.5249207
1364 2.2279539
1362 1.9162331
1360 1.5561966
1358 1.1754546
1356 0.79660916
1354 0.45526442
1352 0.21236598
1350 0.04512623
1348 -0.029067472
1346 -0.057131857
1344 0.051813915
1342 0.24100193
1340 0.57332355
1338 0.86533487
1336 1.0514292
1334 1.1163791
1332 0.95537698
1330 0.80850941
1328 0.69920063
1326 0.68837351
1324 0.82842994
1322 1.0346864
1320 1.3235793
1318 1.6212099
1316 1.91487
1314 2.1563916
1312 2.3297675
1310 2.4303396
1308 2.4636238
1306 2.4551165
1304 2.4250355
1302 2.400629
1300 2.3867021
1298 2.3905308
1296 2.4000571
1294 2.4043939
1292 2.4016297
1290 2.380471
1288 2.3506119
1286 2.3035793
1284 2.2690456
1282 2.2692819
1280 2.301595
1278 2.4042957
1276 2.5202773
1274 2.6641581
1272 2.8130565
1270 2.9779062
1268 3.1723988
1266 3.4089715
1264 3.6658165
1262 3.9424021
1260 4.2171583
1258 4.4961185
1256 4.7985401
1254 5.1283479
1252 5.4937377
1250 5.8840671
1248 6.2853584
1246 6.6853251
1244 7.0590534
1242 7.3950372
1240 7.6354318
1238 7.8122678
1236 7.867393
1234 7.8826084
1232 7.8419161
1230 7.7810445
1228 7.6723623
1226 7.5202212
1224 7.2452507
1222 6.9218578
1220 6.484292
1218 6.0334668
1216 5.5601344
1214 5.1065092
1212 4.6830235
1210 4.2513413
1208 3.7996366
1206 3.3008151
1204 2.752748
1202 2.2143478
1200 1.7007829
1198 1.2598051
1196 0.88547999
1194 0.57386416
1192 0.31235304
1190 0.11200909
1188 -0.048225418
1186 -0.15383992
1184 -0.23687646
1182 -0.3005577
1180 -0.35501844
1178 -0.38874039
1176 -0.40387002
1174 -0.35422036
1172 -0.27997702
1170 -0.12611526
1168 0.033046618
1166 0.2062995
1164 0.37283063
1162 0.52448571
1160 0.68563229
1158 0.86318499
1156 1.0257338
1154 1.1515998
1152 1.19408
1150 1.1170731
1148 0.95808977
1146 0.71612966
1144 0.48014838
1142 0.26171684
1140 0.11323291
1138 0.026500195
1136 0.023718888
1134 0.087499171
1132 0.30189368
1130 0.59244943
1128 0.98098743
1126 1.3861378
1124 1.7389554
1122 2.0657299
1120 2.3031361
1118 2.518755
1116 2.6613586
1114 2.7917111
1112 2.8765469
1110 2.9708695
1108 3.095928
1106 3.2319751
1104 3.3919103
1102 3.5319674
1100 3.6338277
1098 3.7326639
1096 3.8375285
1094 4.019393
1092 4.303184
1090 4.6535931
1088 5.062223
1086 5.4303985
1084 5.7657523
1082 6.084446
1080 6.3903522
1078 6.6725731
1076 6.9076414
1074 6.8823633
1072 6.743257
1070 6.3972301
1068 6.0397906
1066 5.9320078
1064 5.9053998
1062 6.2397251
1060 6.5884867
1058 6.9145002
1056 7.1899915
1054 7.2456722
1052 7.2879109
1050 7.2907171
1048 7.3243279
1046 7.4299464
1044 7.5213609
1042 7.5804324
1040 7.5806088
1038 7.4892001
1036 7.3267498
1034 7.0812645
1032 6.8021927
1030 6.5004148
1028 6.2665215
1026 6.0819635
1024 5.9249258
1022 5.7737513
1020 5.5346756
1018 5.2553096
1016 4.9088144
1014 4.5400286
1012 4.1238022
1010 3.7026465
1008 3.3159559
1006 2.947927
1004 2.7643991
1002 2.5900326
1000 2.4668939
998 2.3263974
996 2.1086929
994 1.872164
992 1.5747337
990 1.227821
988 0.7668438
986 0.27797061
984 -0.2540099
982 -0.71206117
980 -1.063982
978 -1.2903049
976 -1.3790343
974 -1.3202999
972 -1.1407371
970 -0.89068747
968 -0.59975386
966 -0.34894249
964 -0.1172521
962 0.092035189
960 0.29003027
958 0.40740344
956 0.49892414
954 0.40110293
952 0.2775971
950 0.086739793
948 -0.090086907
946 -0.028848536
944 0.0068550855
942 0.21313837
940 0.6145556
938 1.022977
936 1.3515285
934 1.4454834
932 1.4860101
930 1.4149148
928 1.4396709
926 1.6196229
924 1.89808
922 2.2950799
920 2.6153772
918 2.8623443
916 2.9717772
914 2.9811392
912 2.7575445
910 2.4109371
908 1.9649565
906 1.4860107
904 1.5302422
902 1.7153388
900 2.5868104
898 3.5693603
896 4.7996998
