Image.
>Pix99999.
  .
5555
5555
2300
900
5555
2
1
0
701
5555
1.3809000e-001
1.4096589e-001
1.4383180e-001
1.4670767e-001
1.4958355e-001
1.5244949e-001
1.5532531e-001
1.5820120e-001
1.6106720e-001
1.6394298e-001
1.6681886e-001
1.6969475e-001
1.7256080e-001
1.7543653e-001
1.7831241e-001
1.8117851e-001
1.8405417e-001
1.8693006e-001
1.8979619e-001
1.9267184e-001
1.9554771e-001
1.9841391e-001
2.0128949e-001
2.0416538e-001
2.0703161e-001
2.0990714e-001
9.3246244e-002
3.4229059e-003
-6.3808322e-002
-8.7634176e-002
-1.0522339e-001
-1.4839417e-001
-1.9418080e-001
-2.5706276e-001
-3.1610915e-001
-3.3828351e-001
-3.5071132e-001
-3.2731044e-001
-3.0530614e-001
-2.9353458e-001
-2.9820886e-001
-3.3758044e-001
-3.7778860e-001
-4.1601589e-001
-4.3379477e-001
-4.2620271e-001
-4.1245526e-001
-3.9430013e-001
-3.7768209e-001
-3.6241400e-001
-3.5002142e-001
-3.3926666e-001
-3.4139675e-001
-3.4914443e-001
-3.3487430e-001
-3.1332171e-001
-2.5885558e-001
-1.9691439e-001
-1.6308674e-001
-1.3411742e-001
-1.5508656e-001
-1.8434621e-001
-2.5577021e-001
-3.3374938e-001
-4.2642376e-001
-5.0820112e-001
-5.4510760e-001
-5.6900477e-001
-5.7104748e-001
-5.7739413e-001
-5.9608096e-001
-6.0053307e-001
-5.8251727e-001
-5.5462343e-001
-5.1826316e-001
-5.1059681e-001
-5.2909291e-001
-5.5067742e-001
-5.7255524e-001
-5.8506018e-001
-5.9243369e-001
-6.6065568e-001
-7.5461394e-001
-9.0420616e-001
-1.0708171e+000
-1.1813171e+000
-1.2786198e+000
-1.3070509e+000
-1.3257492e+000
-1.3658947e+000
-1.4093943e+000
-1.4549329e+000
-1.4873915e+000
-1.4600961e+000
-1.4132262e+000
-1.3339272e+000
-1.2569228e+000
-1.1961064e+000
-1.1520519e+000
-1.1322911e+000
-1.1282858e+000
-1.1403223e+000
-1.1820388e+000
-1.2519968e+000
-1.3584303e+000
-1.4913800e+000
-1.6101645e+000
-1.7170736e+000
-1.7560343e+000
-1.7602844e+000
-1.6971700e+000
-1.6078203e+000
-1.5032359e+000
-1.3946958e+000
-1.3232718e+000
-1.2623229e+000
-1.2524000e+000
-1.2569808e+000
-1.3057071e+000
-1.3659470e+000
-1.4414257e+000
-1.5123864e+000
-1.5574285e+000
-1.5798141e+000
-1.5583320e+000
-1.5208000e+000
-1.4694380e+000
-1.4257293e+000
-1.3966274e+000
-1.3846217e+000
-1.3886186e+000
-1.4168055e+000
-1.4658434e+000
-1.5422200e+000
-1.6379294e+000
-1.7369686e+000
-1.8365908e+000
-1.8864020e+000
-1.9104191e+000
-1.8872514e+000
-1.8450600e+000
-1.8139199e+000
-1.7863786e+000
-1.7639309e+000
-1.7432377e+000
-1.7382072e+000
-1.7440940e+000
-1.8025800e+000
-1.8735309e+000
-1.9449381e+000
-1.9911572e+000
-1.9633660e+000
-1.9070548e+000
-1.8244184e+000
-1.7705020e+000
-1.7734128e+000
-1.8019463e+000
-1.8474979e+000
-1.8720726e+000
-1.8703582e+000
-1.8450172e+000
-1.8041971e+000
-1.7386860e+000
-1.6574066e+000
-1.5850422e+000
-1.5199857e+000
-1.5176398e+000
-1.5464987e+000
-1.5682080e+000
-1.5845096e+000
-1.5446128e+000
-1.4849548e+000
-1.4570755e+000
-1.4426364e+000
-1.4716865e+000
-1.5093250e+000
-1.5159794e+000
-1.5101942e+000
-1.4809086e+000
-1.4569864e+000
-1.4626971e+000
-1.4770025e+000
-1.4957960e+000
-1.4957823e+000
-1.4684685e+000
-1.4269550e+000
-1.3799075e+000
-1.3562537e+000
-1.3566154e+000
-1.3884950e+000
-1.4387515e+000
-1.4763504e+000
-1.5017641e+000
-1.5081000e+000
-1.5050640e+000
-1.5133507e+000
-1.5278720e+000
-1.5449624e+000
-1.5615460e+000
-1.5432687e+000
-1.5081999e+000
-1.4431952e+000
-1.3726095e+000
-1.3362859e+000
-1.3266658e+000
-1.3673629e+000
-1.4264077e+000
-1.4823244e+000
-1.5290040e+000
-1.5606282e+000
-1.5856100e+000
-1.6163021e+000
-1.6282126e+000
-1.6137638e+000
-1.5819669e+000
-1.5288435e+000
-1.5178748e+000
-1.5490379e+000
-1.6023322e+000
-1.6692436e+000
-1.7358029e+000
-1.8038262e+000
-1.9276140e+000
-2.0923102e+000
-2.3038721e+000
-2.5438499e+000
-2.6384451e+000
-2.6539733e+000
-2.4657633e+000
-2.1784770e+000
-1.8826058e+000
-1.5870531e+000
-1.3396382e+000
-1.1428127e+000
-1.0427226e+000
-1.0223693e+000
-1.0852365e+000
-1.1615834e+000
-1.1952220e+000
-1.1869383e+000
-1.1451343e+000
-1.0920193e+000
-1.0450077e+000
-9.8752952e-001
-9.1217566e-001
-8.3415902e-001
-7.5796831e-001
-7.7314132e-001
-8.7557489e-001
-1.0354397e+000
-1.2272072e+000
-1.2794986e+000
-1.2234040e+000
-1.0585042e+000
-8.2677382e-001
-6.2449765e-001
-4.4368160e-001
-3.4248301e-001
-2.9694179e-001
-3.4584630e-001
-4.2664170e-001
-4.3046916e-001
-3.4886792e-001
-9.8995164e-002
1.7224871e-001
3.0894220e-001
3.1933099e-001
1.8743107e-001
4.3396857e-002
-2.6246053e-001
-5.9803659e-001
-8.1077439e-001
-9.2340076e-001
-9.7223139e-001
-1.0408360e+000
-1.1476108e+000
-1.3302519e+000
-1.5653955e+000
-1.7027780e+000
-1.7509892e+000
-1.5991000e+000
-1.3108046e+000
-1.0077890e+000
-7.0705390e-001
-5.5923367e-001
-5.0198478e-001
-4.3340918e-001
-3.0750260e-001
1.1018018e-001
8.4751511e-001
1.9057529e+000
3.0285091e+000
3.9338286e+000
4.6760001e+000
5.2887559e+000
6.0058103e+000
7.0231333e+000
8.6163740e+000
1.0929461e+001
1.4194088e+001
1.8421570e+001
2.2832869e+001
2.7044962e+001
3.0813522e+001
3.4133812e+001
3.7817436e+001
4.1978142e+001
4.6703777e+001
5.1880081e+001
5.6360401e+001
6.0209072e+001
6.4041389e+001
6.7940987e+001
7.2544243e+001
7.7659698e+001
8.2694946e+001
8.7589600e+001
9.2094261e+001
9.6204132e+001
9.9861511e+001
1.0301772e+002
1.0558739e+002
1.0738220e+002
1.0822311e+002
1.0774080e+002
1.0575964e+002
1.0285303e+002
9.9559509e+001
9.6062614e+001
9.2482872e+001
8.8379173e+001
8.3638184e+001
7.8676849e+001
7.3674187e+001
6.8854103e+001
6.4234428e+001
5.9439240e+001
5.4432438e+001
4.9624523e+001
4.5049889e+001
4.1005970e+001
3.7505234e+001
3.4562214e+001
3.2162659e+001
3.0122896e+001
2.8405506e+001
2.6844208e+001
2.5468908e+001
2.4314617e+001
2.3413862e+001
2.2777500e+001
2.2408869e+001
2.2274027e+001
2.2333939e+001
2.2527031e+001
2.2813236e+001
2.3146000e+001
2.3526859e+001
2.3947109e+001
2.4494335e+001
2.5201372e+001
2.6076035e+001
2.7124866e+001
2.8253641e+001
2.9442400e+001
3.0671043e+001
3.1935835e+001
3.3310387e+001
3.4853600e+001
3.7008396e+001
3.9776627e+001
4.2662991e+001
4.5508869e+001
4.7624180e+001
4.9033154e+001
5.0092285e+001
5.0798210e+001
5.1275734e+001
5.1380661e+001
5.1024853e+001
5.0206543e+001
4.8997089e+001
4.7590733e+001
4.6158188e+001
4.4687016e+001
4.3170052e+001
4.1532898e+001
3.9741337e+001
3.7865795e+001
3.5963188e+001
3.4173859e+001
3.2550220e+001
3.0866079e+001
2.9037958e+001
2.6704870e+001
2.3733213e+001
2.0798298e+001
1.7992167e+001
1.5677057e+001
1.3915080e+001
1.2214286e+001
1.0573536e+001
8.9499102e+000
7.3455462e+000
5.7732625e+000
4.2720609e+000
2.8970721e+000
1.7455674e+000
8.9449948e-001
3.5222787e-001
8.6606227e-002
1.1643042e-001
4.9583951e-001
1.0453775e+000
1.6209514e+000
2.1466670e+000
2.5396023e+000
2.8829887e+000
3.1947622e+000
3.5480709e+000
3.9866002e+000
4.4271774e+000
4.8707352e+000
5.1735253e+000
5.2692604e+000
5.2750177e+000
5.1564202e+000
5.0178518e+000
4.8389931e+000
4.6092057e+000
4.2941885e+000
3.9021306e+000
3.4393983e+000
3.0000381e+000
2.6242819e+000
2.3470249e+000
2.1990132e+000
2.1946034e+000
2.3557940e+000
2.7235241e+000
3.2088230e+000
3.7332170e+000
4.2176394e+000
4.5589085e+000
4.8326015e+000
5.0533123e+000
5.2662439e+000
5.4996624e+000
5.7074919e+000
5.8686800e+000
5.9831715e+000
6.0259337e+000
6.0576854e+000
6.0854692e+000
6.0828347e+000
6.0256848e+000
5.8793836e+000
5.5987082e+000
5.2210779e+000
4.7194452e+000
4.1682372e+000
3.5783634e+000
3.0507379e+000
2.6092122e+000
2.2700036e+000
2.0011230e+000
1.7085046e+000
1.3807068e+000
1.0059996e+000
6.3828939e-001
3.4546870e-001
1.3562797e-001
4.2008001e-002
9.5612407e-003
4.4720277e-002
9.5570862e-002
1.5494481e-001
2.0105848e-001
2.1313433e-001
2.2881570e-001
2.6084515e-001
3.0244032e-001
3.8612074e-001
4.8709941e-001
6.2284333e-001
7.8938752e-001
9.9319679e-001
1.2298748e+000
1.5008686e+000
1.7959720e+000
2.1027100e+000
2.3813736e+000
2.6169224e+000
2.7665601e+000
2.8475883e+000
2.8701570e+000
2.8645585e+000
2.8646421e+000
2.8685112e+000
2.8826497e+000
2.8887427e+000
2.8703792e+000
2.8433750e+000
2.8116004e+000
2.7920520e+000
2.8084028e+000
2.8326569e+000
2.8741593e+000
2.9152458e+000
2.9586701e+000
3.0188229e+000
3.1112819e+000
3.2343006e+000
3.4089851e+000
3.6200905e+000
3.8884087e+000
4.1897917e+000
4.5343285e+000
4.8933320e+000
5.2706013e+000
5.6658773e+000
6.0862923e+000
6.5480170e+000
7.0393391e+000
7.5440297e+000
8.0407257e+000
8.4912815e+000
8.9035683e+000
9.2494926e+000
9.5502834e+000
9.7622223e+000
9.9174709e+000
9.9401283e+000
9.9064903e+000
9.7323456e+000
9.5197515e+000
9.2060661e+000
8.8656845e+000
8.4616032e+000
8.0343323e+000
7.5615540e+000
7.0768838e+000
6.5711765e+000
6.0554857e+000
5.5209022e+000
4.9562187e+000
4.3579779e+000
3.7517097e+000
3.1496308e+000
2.5986562e+000
2.0987999e+000
1.6642402e+000
1.2783858e+000
9.4212896e-001
6.4516598e-001
4.2142999e-001
2.4483165e-001
1.6373199e-001
1.2407166e-001
1.6378661e-001
2.3362800e-001
3.8075945e-001
5.3505838e-001
6.9870907e-001
8.2510245e-001
8.3691460e-001
8.0827701e-001
6.8322831e-001
5.6125504e-001
4.4740355e-001
3.5109514e-001
2.8097945e-001
2.0557687e-001
1.2354967e-001
4.4477418e-002
-2.6342928e-002
-6.8286479e-002
-7.5782135e-002
-2.8278459e-002
7.3465511e-002
2.8805229e-001
5.8025742e-001
9.7166932e-001
1.4007703e+000
1.8276600e+000
2.2502058e+000
2.6525290e+000
3.0494342e+000
3.4367199e+000
3.8122575e+000
4.1286983e+000
4.4179287e+000
4.5946164e+000
4.7329893e+000
4.7506356e+000
4.7564549e+000
4.7402935e+000
4.7762671e+000
4.9212594e+000
5.1408615e+000
5.4781427e+000
5.8503070e+000
6.2656541e+000
6.6871223e+000
7.1124988e+000
7.5227771e+000
7.9124637e+000
8.2387962e+000
8.5151472e+000
8.7049427e+000
8.8432398e+000
8.8921556e+000
8.9032764e+000
8.8502846e+000
8.7859135e+000
8.7392206e+000
8.7000723e+000
8.6982689e+000
8.6907864e+000
8.6336231e+000
8.5478430e+000
8.3362322e+000
8.1061745e+000
7.8192687e+000
7.5537786e+000
7.3387394e+000
7.1179481e+000
6.8843713e+000
6.6241074e+000
6.3293996e+000
6.0676699e+000
5.8438649e+000
5.6318192e+000
5.4270105e+000
5.1968079e+000
4.9515319e+000
4.7317109e+000
4.5258560e+000
4.3247566e+000
4.1153316e+000
3.7931342e+000
3.4318826e+000
2.9752588e+000
2.5116184e+000
2.1532919e+000
1.8145664e+000
1.6032460e+000
1.3927032e+000
1.1805955e+000
9.7207129e-001
7.7956212e-001
5.9242964e-001
4.2226368e-001
2.5017849e-001
7.4835740e-002
-8.5779697e-002
-2.2014549e-001
-3.3135512e-001
-4.1108701e-001
-4.7170854e-001
-5.0954801e-001
-4.9756068e-001
-4.4108564e-001
-2.9697609e-001
-9.7941771e-002
1.4439648e-001
4.0316588e-001
6.0259867e-001
7.7740973e-001
8.2927746e-001
8.5051805e-001
7.6791763e-001
6.7050362e-001
5.1571852e-001
3.5833871e-001
1.9617479e-001
4.4600546e-002
-2.6620850e-003
-8.0090813e-002
-4.9742498e-002
9.7616017e-003
1.5379088e-001
2.8167915e-001
3.7488925e-001
4.5367521e-001
5.1112121e-001
6.4972222e-001
8.8739598e-001
1.1734879e+000
1.5033872e+000
1.7431242e+000
1.9172498e+000
1.9122537e+000
1.8105210e+000
1.5524597e+000
1.2336792e+000
9.7922444e-001
7.4160850e-001
7.3903978e-001
7.7405763e-001
9.0524000e-001
