##TITLE=Methyl Ethyl Ketone
##JCAMP-DX=4.24
##DATA TYPE=INFRARED SPECTRUM
##XUNITS=cm-1
##YUNITS=Absorbance
##FIRSTX=900
##LASTX=2300
##XYDATA=(X++(Y..Y))
2296 0.044025999
2294 0.044942688
2292 0.045858379
2290 0.046774071
2288 0.047689758
2286 0.048605449
2284 0.049522132
2282 0.050437827
2280 0.051353522
2278 0.052269209
2276 0.053185888
2274 0.05410159
2272 0.055017278
2270 0.055932973
2268 0.05684866
2266 0.057765327
2264 0.058681041
2262 0.059596729
2260 0.06051242
2258 0.061428111
2256 0.062344771
2254 0.063260496
2252 0.064176179
2250 0.065091871
2248 0.066008531
2246 0.066924244
2244 0.041487504
2242 0.0015623356
2240 -0.04103424
2238 -0.10857485
2236 -0.17979829
2234 -0.20751743
2232 -0.2287
2230 -0.17359388
2228 -0.11276383
2226 -0.035478652
2224 0.031352691
2222 0.046543617
2220 0.050452366
2218 0.02840296
2216 0.0050768885
2214 -0.017832678
2212 -0.037263419
2210 -0.051048353
2208 -0.04787996
2206 -0.024000185
2204 0.0048379297
2202 0.037199538
2200 0.029280342
2198 -0.0089095198
2196 -0.079515569
2194 -0.16766293
2192 -0.17738298
2190 -0.15220366
2188 -0.043634284
2186 0.091293551
2184 0.1708836
2182 0.2373763
2180 0.24864641
2178 0.25157917
2176 0.23824115
2174 0.21790954
2172 0.13473588
2170 0.04074673
2168 -0.081109464
2166 -0.19715847
2164 -0.28218386
2162 -0.35255986
2160 -0.393318
2158 -0.42651179
2156 -0.45103398
2154 -0.47230595
2152 -0.49017587
2150 -0.4828437
2148 -0.44754675
2146 -0.38373214
2144 -0.29729417
2142 -0.2379691
2140 -0.19914834
2138 -0.21403486
2136 -0.25703344
2134 -0.33124429
2132 -0.41740522
2130 -0.49270707
2128 -0.56418639
2126 -0.57629818
2124 -0.57468486
2122 -0.53691816
2120 -0.4945128
2118 -0.4704223
2116 -0.45266658
2114 -0.46246472
2112 -0.47959897
2110 -0.51142019
2108 -0.54355627
2106 -0.57020772
2104 -0.5937987
2102 -0.61247849
2100 -0.62991685
2098 -0.64650786
2096 -0.64667141
2094 -0.6255675
2092 -0.58791566
2090 -0.53635132
2088 -0.49255526
2086 -0.45671001
2084 -0.41968554
2082 -0.38111544
2080 -0.35794434
2078 -0.34303066
2076 -0.38482344
2074 -0.4497996
2072 -0.52914482
2070 -0.61240005
2068 -0.65105778
2066 -0.67809641
2064 -0.6672076
2062 -0.64906365
2060 -0.6302827
2058 -0.61302978
2056 -0.6048637
2054 -0.60013056
2052 -0.60172331
2050 -0.61258948
2048 -0.64461213
2046 -0.68571073
2044 -0.73663616
2042 -0.78238994
2040 -0.81699347
2038 -0.84513557
2036 -0.867535
2034 -0.87768584
2032 -0.87708956
2030 -0.86463201
2028 -0.84464592
2026 -0.82706845
2024 -0.81204432
2022 -0.78476578
2020 -0.75103313
2018 -0.75061345
2016 -0.76436001
2014 -0.85028374
2012 -0.95970476
2010 -1.0409298
2008 -1.1108851
2006 -1.127003
2004 -1.125284
2002 -1.094522
2000 -1.0453366
1998 -0.94969004
1996 -0.84499359
1994 -0.74927866
1992 -0.69620216
1990 -0.73267639
1988 -0.8332814
1986 -1.005864
1984 -1.1922154
1982 -1.3740042
1980 -1.4984552
1978 -1.5602291
1976 -1.5282314
1974 -1.4226379
1972 -1.2739269
1970 -1.1040938
1968 -0.98958606
1966 -0.91262221
1964 -0.89222354
1962 -0.89800382
1960 -0.88633037
1958 -0.86536247
1956 -0.86679584
1954 -0.87808657
1952 -0.94838262
1950 -1.0333943
1948 -1.0855098
1946 -1.1229
1944 -1.1360921
1942 -1.1578224
1940 -1.231516
1938 -1.3224766
1936 -1.4152828
1934 -1.4872704
1932 -1.518356
1930 -1.5252464
1928 -1.5144006
1926 -1.4694679
1924 -1.3876863
1922 -1.272599
1920 -1.1309559
1918 -1.0548919
1916 -1.0417914
1914 -1.1005805
1912 -1.2036623
1910 -1.2742805
1908 -1.3192095
1906 -1.32858
1904 -1.320312
1902 -1.2952679
1900 -1.2627192
1898 -1.1893152
1896 -1.0983286
1894 -0.98946559
1892 -0.88599753
1890 -0.86294729
1888 -0.9018144
1886 -1.0708421
1884 -1.2874577
1882 -1.5002972
1880 -1.662776
1878 -1.7127157
1876 -1.66826
1874 -1.5252007
1872 -1.3163491
1870 -1.0595397
1868 -0.87196422
1866 -0.78551114
1864 -0.86095446
1862 -1.0728889
1860 -1.2921408
1858 -1.4876693
1856 -1.5937228
1854 -1.6364181
1852 -1.6217854
1850 -1.5783728
1848 -1.4966919
1846 -1.3970357
1844 -1.3153362
1842 -1.2473379
1840 -1.2384069
1838 -1.2499847
1836 -1.2077143
1834 -1.1177621
1832 -0.91963089
1830 -0.6882264
1828 -0.50780457
1826 -0.42234606
1824 -0.52549314
1822 -0.72440612
1820 -0.96228141
1818 -1.1587107
1816 -1.26144
1814 -1.276479
1812 -1.2162203
1810 -1.1148552
1808 -0.99292397
1806 -0.84660703
1804 -0.68073893
1802 -0.51246893
1800 -0.34843481
1798 -0.21920851
1796 -0.11772443
1794 -0.048350029
1792 0.0038792398
1790 -0.018184694
1788 -0.083081543
1786 -0.13473621
1784 -0.16758445
1782 -0.094019681
1780 0.048399854
1778 0.2490416
1776 0.49022657
1774 0.77132255
1772 1.033088
1770 1.1803337
1768 1.1740291
1766 0.93359476
1764 0.59688538
1762 0.27584547
1760 0.06415385
1758 -0.10849863
1756 -0.16558428
1754 -0.039532244
1752 0.26060021
1750 0.69264424
1748 1.0555414
1746 1.3024929
1744 1.2676656
1742 0.99764806
1740 0.70814508
1738 0.44228101
1736 0.35474199
1734 0.39858454
1732 0.36735952
1730 0.26977485
1728 0.017611131
1726 -0.3103753
1724 -0.45637423
1722 -0.40398991
1720 0.072732031
1718 0.88178182
1716 1.9476314
1714 2.9950149
1712 3.6046944
1710 3.9642324
1708 4.2772422
1706 4.8484921
1704 5.9460969
1702 7.74335
1700 10.292734
1698 13.547226
1696 17.380142
1694 21.12653
1692 24.507208
1690 27.591234
1688 30.459051
1686 33.849419
1684 37.820583
1682 42.21059
1680 46.892559
1678 50.856621
1676 54.186802
1674 57.629456
1672 61.237915
1670 65.470406
1668 70.132423
1666 74.553352
1664 78.688522
1662 82.321121
1660 85.485886
1658 88.210045
1656 90.553314
1654 92.614716
1652 94.337036
1650 95.67543
1648 96.182732
1646 95.532181
1644 94.119659
1642 92.336388
1640 90.304306
1638 88.123329
1636 85.216774
1634 81.434929
1632 77.130325
1630 72.502762
1628 68.002602
1626 63.716194
1624 59.318798
1622 54.773685
1620 50.318188
1618 45.979504
1616 42.011486
1614 38.43364
1612 35.331585
1610 32.69828
1608 30.411703
1606 28.444258
1604 26.655502
1602 25.089674
1600 23.805361
1598 22.837801
1596 22.192001
1594 21.838861
1592 21.700068
1590 21.721708
1588 21.830143
1586 22.036114
1584 22.335611
1582 22.80394
1580 23.469168
1578 24.428032
1576 25.705572
1574 27.221022
1572 28.941761
1570 30.647877
1568 32.29068
1566 33.872387
1564 35.395073
1562 37.086914
1560 39.017673
1558 41.565956
1556 44.689941
1554 47.58659
1552 50.099804
1550 51.810158
1548 52.820992
1546 53.752609
1544 54.643215
1542 55.59766
1540 56.351501
1538 56.53096
1536 56.036343
1534 54.849277
1532 53.333019
1530 51.877602
1528 50.563473
1526 49.448849
1524 48.413216
1522 47.389229
1520 46.097267
1518 44.406059
1516 42.497742
1514 40.406822
1512 38.368443
1510 36.427486
1508 34.020264
1506 30.985971
1504 27.746553
1502 24.334122
1500 21.403847
1498 19.01618
1496 16.687572
1494 14.419949
1492 12.169826
1490 9.9590149
1488 7.8359013
1486 5.8249049
1484 3.92904
1482 2.2801986
1480 1.0286644
1478 0.25431466
1476 0.046195485
1474 0.41942614
1472 1.2705414
1470 2.214123
1468 2.9990129
1466 3.6240029
1464 4.0521865
1462 4.5358005
1460 5.198801
1458 5.9773374
1456 6.8906198
1454 7.5724239
1452 7.8742099
1450 7.9468784
1448 7.7104459
1446 7.469625
1444 7.2275977
1442 7.0223823
1440 6.8631806
1438 6.7269044
1436 6.5836115
1434 6.3376746
1432 5.9489989
1430 5.4160342
1428 4.7950664
1426 4.2496052
1424 3.8524938
1422 3.6966279
1420 3.7468879
1418 3.9490645
1416 4.1828599
1414 4.321187
1412 4.4187655
1410 4.5013938
1408 4.6575861
1406 4.9662485
1404 5.3706059
1402 5.8960218
1400 6.4293799
1398 6.9468775
1396 7.3601999
1394 7.581892
1392 7.6589785
1390 7.4980626
1388 7.2296538
1386 6.7966051
1384 6.2881794
1382 5.6915812
1380 5.1257701
1378 4.6133795
1376 4.1817827
1374 3.8211055
1372 3.4535499
1370 3.0724068
1368 2.6658931
1366 2.2565801
1364 1.8792562
1362 1.5189717
1360 1.1589994
1358 0.80558026
1356 0.46935412
1354 0.19949967
1352 0.065481909
1350 0.033816516
1348 0.15122344
1346 0.32929462
1344 0.5804196
1342 0.84425229
1340 1.1155235
1338 1.3394479
1336 1.4619771
1334 1.4920504
1332 1.3673422
1330 1.218395
1328 1.0446296
1326 0.92655009
1324 0.90008163
1322 0.97690481
1320 1.186216
1318 1.4762133
1316 1.82609
1314 2.121655
1312 2.3347042
1310 2.412209
1308 2.3830812
1306 2.2924027
1304 2.170728
1302 2.0536151
1300 1.9440341
1298 1.8530196
1296 1.7877856
1294 1.7797793
1292 1.8151891
1290 1.9333295
1288 2.0796881
1286 2.2698529
1284 2.453115
1282 2.6114082
1280 2.7498217
1278 2.8462675
1276 2.9491529
1274 3.067205
1272 3.2153566
1270 3.4120841
1268 3.6240644
1266 3.8556893
1264 4.0823383
1262 4.3047724
1260 4.5274577
1258 4.7541881
1256 4.9956088
1254 5.2518992
1252 5.5209389
1250 5.7990046
1248 6.0806046
1246 6.3630753
1244 6.6443238
1242 6.9181252
1240 7.1695967
1238 7.3946476
1236 7.5528302
1234 7.6618376
1232 7.650804
1230 7.5701785
1228 7.3013363
1226 6.9591866
1224 6.4207478
1222 5.8508263
1220 5.21241
1218 4.6039629
1216 4.0613084
1214 3.5718119
1212 3.1748953
1210 2.8265338
1208 2.548516
1206 2.3047309
1204 2.10024
1202 1.9046867
1200 1.7156394
1198 1.5210729
1196 1.3213072
1194 1.116996
1192 0.91404569
1190 0.72774696
1188 0.55985755
1186 0.43814886
1184 0.34166697
1182 0.28698242
1180 0.2511678
1178 0.25311828
1176 0.27511999
1174 0.35730267
1172 0.45599836
1170 0.60512203
1168 0.74966413
1166 0.87853742
1164 0.98304403
1162 1.028209
1160 1.0657805
1158 1.091143
1156 1.1346529
1154 1.2035199
1152 1.2542468
1150 1.2700509
1148 1.2174059
1146 1.082816
1144 0.88418186
1142 0.62944806
1140 0.35691306
1138 0.0872145
1136 -0.10569794
1134 -0.22864661
1132 -0.17060618
1130 -0.021728843
1128 0.24022731
1126 0.52022529
1124 0.73235333
1122 0.90635699
1120 0.94264877
1118 0.96321547
1116 0.9676407
1114 0.97684479
1112 1.0052778
1110 1.0127894
1108 0.95679891
1106 0.91615105
1104 0.92182118
1102 1.0052968
1100 1.2385814
1098 1.4851242
1096 1.7416571
1094 1.922771
1092 2.0099459
1090 2.075408
1088 2.1314721
1086 2.2683122
1084 2.4731908
1082 2.7266321
1080 2.9935749
1078 3.153347
1076 3.2470872
1074 3.2129753
1072 3.1407902
1070 3.093055
1068 3.0544412
1066 3.0414221
1064 3.021872
1062 2.9295223
1060 2.8289831
1058 2.6996043
1056 2.5761116
1054 2.4781256
1052 2.3771758
1050 2.2641599
1048 2.1218829
1046 1.9083107
1044 1.6748677
1042 1.4088886
1040 1.1792222
1038 1.0079308
1036 0.89884299
1034 0.86090332
1032 0.83679873
1030 0.82054806
1028 0.76256448
1026 0.67726815
1024 0.60525799
1022 0.54269177
1020 0.50573593
1018 0.47119099
1016 0.35560086
1014 0.21573339
1012 0.048058473
1010 -0.1165187
1008 -0.192138
1006 -0.26143613
1004 -0.3436321
1002 -0.44329891
1000 -0.66135222
998 -0.88802969
996 -1.1518357
994 -1.405887
992 -1.6285697
990 -1.8334718
988 -1.9951595
986 -2.1088865
984 -2.1353297
982 -2.0898139
980 -1.9472541
978 -1.7819358
976 -1.5972029
974 -1.4798398
972 -1.4174426
970 -1.3804584
968 -1.3544097
966 -1.243865
964 -1.0961818
962 -0.96448231
960 -0.84310091
958 -0.83197564
956 -0.84230143
954 -0.8083173
952 -0.76319242
950 -0.57945275
948 -0.38528731
946 -0.12698679
944 0.0074043423
942 0.22220482
940 0.40798301
938 0.4691202
936 0.48667145
934 0.37764806
932 0.30727625
930 0.32078713
928 0.40172225
926 0.58974802
924 0.76071817
922 0.91087747
920 1.0591166
918 1.2053705
916 1.3303742
914 1.4397432
912 1.4971405
910 1.528437
908 1.7123742
906 1.954627
904 2.2800846
902 2.6258492
900 2.7303877
898 2.7958376
896 2.7521999
