Image.
>Pix99999.
  .
5555
5555
2300
900
5555
2
1
0
701
5555
1.8463001e-002
1.8846450e-002
1.9230898e-002
1.9614354e-002
1.9998800e-002
2.0383250e-002
2.0766709e-002
2.1151150e-002
2.1535600e-002
2.1920050e-002
2.2303514e-002
2.2685982e-002
2.3071382e-002
2.3460759e-002
2.3839422e-002
2.4203200e-002
2.4607720e-002
2.5066804e-002
2.5378080e-002
2.5481340e-002
2.6135828e-002
2.7566351e-002
2.6945559e-002
2.3433581e-002
2.7543863e-002
4.4871788e-002
4.8537150e-002
1.1750527e-002
-5.5266321e-002
-1.3303685e-001
-2.0721386e-001
-2.6789531e-001
-3.1695738e-001
-3.6034343e-001
-4.0686879e-001
-4.6441099e-001
-5.3401411e-001
-6.0953707e-001
-6.6410792e-001
-6.7221302e-001
-6.3857716e-001
-5.8066505e-001
-5.3079158e-001
-5.1480263e-001
-5.1487780e-001
-5.0330907e-001
-4.6618497e-001
-4.0264913e-001
-3.4661230e-001
-3.3457950e-001
-3.7013716e-001
-4.4008222e-001
-5.0533706e-001
-5.2416217e-001
-4.7636166e-001
-3.5662150e-001
-1.9189641e-001
-1.9636191e-002
1.2147348e-001
1.9998027e-001
2.1484487e-001
1.7850672e-001
1.1784077e-001
6.2472962e-002
3.4680892e-002
4.8612416e-002
9.5528923e-002
1.5751746e-001
2.1024868e-001
2.3406479e-001
2.3653400e-001
2.3447734e-001
2.4453920e-001
2.7668485e-001
3.1490782e-001
3.3584821e-001
3.2302773e-001
2.6915500e-001
1.9386460e-001
1.2491316e-001
8.4832601e-002
8.6756110e-002
1.1408044e-001
1.3989134e-001
1.3847239e-001
9.3718268e-002
2.5944084e-002
-3.2227904e-002
-5.2144971e-002
-1.5703138e-002
5.9451599e-002
1.4388712e-001
2.1391125e-001
2.5193998e-001
2.5487635e-001
2.2498636e-001
1.6457216e-001
7.7495731e-002
-2.4979221e-002
-1.2779430e-001
-2.1180858e-001
-2.5950968e-001
-2.6618090e-001
-2.3453665e-001
-1.7714840e-001
-1.1083400e-001
-5.4788344e-002
-2.6345829e-002
-3.1834327e-002
-6.8145573e-002
-1.1127093e-001
-1.3091813e-001
-1.0486324e-001
-2.2189789e-002
9.5908314e-002
2.1452071e-001
2.9559377e-001
3.0906597e-001
2.6137814e-001
1.7699319e-001
9.2460424e-002
4.2180754e-002
3.3502743e-002
5.7402801e-002
8.4887281e-002
8.3176322e-002
3.6831200e-002
-5.5508621e-002
-1.6888073e-001
-2.7165800e-001
-3.5023758e-001
-4.0325350e-001
-4.4530079e-001
-4.9283010e-001
-5.4243070e-001
-5.8019388e-001
-5.8638406e-001
-5.4688823e-001
-4.8005024e-001
-4.1927472e-001
-3.9945999e-001
-4.4427612e-001
-5.3041762e-001
-6.1688614e-001
-6.7835259e-001
-7.0304453e-001
-7.0070881e-001
-6.8646890e-001
-6.5804493e-001
-6.0653371e-001
-5.3182214e-001
-4.4367802e-001
-3.7410542e-001
-3.5972989e-001
-4.1327742e-001
-5.2869225e-001
-6.7128682e-001
-7.9595315e-001
-8.6864871e-001
-8.6660194e-001
-7.8860229e-001
-6.4815217e-001
-4.7839981e-001
-3.2149237e-001
-2.1954583e-001
-2.0534542e-001
-2.7434328e-001
-3.9970607e-001
-5.3878158e-001
-6.4962810e-001
-7.2193515e-001
-7.6333481e-001
-7.8748173e-001
-8.0637723e-001
-8.1684381e-001
-8.0873752e-001
-7.7604347e-001
-7.1882862e-001
-6.5145010e-001
-5.9380066e-001
-5.5825168e-001
-5.4973394e-001
-5.6052703e-001
-5.7749796e-001
-5.9158492e-001
-5.9624749e-001
-5.8418310e-001
-5.5065084e-001
-5.0462765e-001
-4.6209610e-001
-4.3695101e-001
-4.4023028e-001
-4.7833508e-001
-5.5538750e-001
-6.7617977e-001
-8.3742166e-001
-9.9808002e-001
-1.0995294e+000
-1.0989363e+000
-9.7673863e-001
-7.6871568e-001
-5.3953427e-001
-3.4770522e-001
-2.3833930e-001
-2.2518109e-001
-2.9888412e-001
-4.2523265e-001
-5.6011301e-001
-6.7181939e-001
-7.4055785e-001
-7.6188397e-001
-7.3842645e-001
-6.6796649e-001
-5.5093098e-001
-4.1563514e-001
-3.0542514e-001
-2.5527686e-001
-2.8551990e-001
-3.8129419e-001
-5.0966477e-001
-6.4879858e-001
-7.8482693e-001
-9.0000820e-001
-9.7689903e-001
-1.0139384e+000
-1.0223072e+000
-1.0241251e+000
-1.0415901e+000
-1.0709075e+000
-1.0893415e+000
-1.0660400e+000
-9.7252780e-001
-8.0578411e-001
-5.8878350e-001
-3.8696885e-001
-2.8021428e-001
-2.9953125e-001
-4.3107888e-001
-6.1338282e-001
-7.6683688e-001
-8.5176855e-001
-8.6484122e-001
-8.3531660e-001
-8.0422038e-001
-7.8416145e-001
-7.6783448e-001
-7.5235301e-001
-7.3975670e-001
-7.2976196e-001
-7.1537828e-001
-6.6924214e-001
-5.6091750e-001
-4.0739480e-001
-2.5563848e-001
-1.3472304e-001
-5.3403173e-002
-2.7190633e-003
3.5773452e-002
7.7378988e-002
1.3484970e-001
2.2509199e-001
3.5866788e-001
5.0169289e-001
5.9218341e-001
5.8481640e-001
4.6512899e-001
2.8707260e-001
1.3716576e-001
3.6579352e-002
-3.6857806e-002
-5.9718899e-002
2.1329872e-002
2.1214834e-001
4.6779889e-001
6.9397682e-001
7.8282392e-001
7.0634288e-001
5.1464051e-001
3.2639697e-001
2.7657586e-001
3.7982598e-001
5.4533935e-001
6.3935381e-001
5.3872979e-001
2.5692427e-001
-7.9602644e-002
-3.1444201e-001
-2.9586262e-001
7.1484238e-002
8.0405176e-001
1.7574871e+000
2.6923277e+000
3.4779344e+000
4.1201987e+000
4.7842560e+000
5.7370243e+000
7.2080832e+000
9.3509731e+000
1.2180326e+001
1.5557974e+001
1.9119999e+001
2.2397320e+001
2.5209658e+001
2.7697172e+001
3.0280230e+001
3.3521435e+001
3.7768749e+001
4.3034458e+001
4.8725563e+001
5.3935810e+001
5.8492901e+001
6.2906490e+001
6.7646370e+001
7.2919724e+001
7.8386398e+001
8.3333603e+001
8.7361465e+001
9.0441139e+001
9.2695770e+001
9.4313126e+001
9.5447823e+001
9.6196899e+001
9.6577698e+001
9.6535736e+001
9.5973709e+001
9.4812675e+001
9.3185295e+001
9.1380470e+001
8.9508255e+001
8.7469971e+001
8.5083130e+001
8.2164398e+001
7.8719208e+001
7.4913269e+001
7.0838341e+001
6.6486656e+001
6.1857719e+001
5.6996811e+001
5.2047661e+001
4.7228989e+001
4.2709831e+001
3.8591755e+001
3.4954258e+001
3.1852150e+001
2.9261753e+001
2.7089758e+001
2.5248802e+001
2.3678785e+001
2.2358080e+001
2.1298176e+001
2.0507500e+001
1.9982065e+001
1.9706446e+001
1.9659725e+001
1.9834848e+001
2.0239750e+001
2.0878012e+001
2.1756430e+001
2.2932993e+001
2.4510191e+001
2.6558115e+001
2.9077177e+001
3.1938396e+001
3.4905991e+001
3.7814320e+001
4.0602234e+001
4.3255802e+001
4.5826401e+001
4.8545277e+001
5.1718071e+001
5.5140713e+001
5.8088070e+001
6.0030418e+001
6.0838699e+001
6.0770634e+001
6.0351501e+001
5.9786942e+001
5.8865746e+001
5.7326221e+001
5.5014095e+001
5.2133743e+001
4.9227142e+001
4.6665699e+001
4.4527042e+001
4.2746624e+001
4.1162701e+001
3.9572578e+001
3.7765633e+001
3.5616791e+001
3.3133308e+001
3.0496058e+001
2.8017715e+001
2.5821320e+001
2.3763683e+001
2.1632740e+001
1.9246471e+001
1.6658777e+001
1.4172741e+001
1.2000929e+001
1.0169059e+001
8.6114712e+000
7.2095194e+000
5.8899093e+000
4.6472936e+000
3.4716485e+000
2.3411829e+000
1.2912624e+000
4.2937103e-001
-1.3802505e-001
-3.2214114e-001
-2.1866322e-002
8.4777850e-001
2.1788149e+000
3.6438189e+000
4.9918919e+000
6.1495800e+000
7.1754513e+000
8.2385292e+000
9.4700356e+000
1.0892179e+001
1.2351800e+001
1.3520750e+001
1.4171702e+001
1.4277109e+001
1.3934114e+001
1.3339214e+001
1.2650911e+001
1.1941270e+001
1.1232560e+001
1.0504481e+001
9.7187691e+000
8.8361378e+000
7.8790007e+000
6.9530034e+000
6.1607862e+000
5.5700436e+000
5.2065606e+000
5.0465665e+000
5.0476789e+000
5.1570029e+000
5.3225002e+000
5.5020943e+000
5.6865563e+000
5.9084811e+000
6.1998692e+000
6.5738778e+000
7.0122337e+000
7.4548349e+000
7.8218160e+000
8.0237751e+000
8.0029783e+000
7.7583995e+000
7.3426509e+000
6.8629045e+000
6.4036856e+000
5.9953704e+000
5.6415052e+000
5.3236947e+000
5.0198722e+000
4.7076926e+000
4.3520885e+000
3.9054205e+000
3.3543680e+000
2.7430849e+000
2.1329887e+000
1.5860164e+000
1.1286579e+000
7.3516083e-001
3.8383302e-001
8.0392107e-002
-1.4570144e-001
-2.3935588e-001
-1.5168057e-001
1.4279920e-001
6.3769639e-001
1.2847321e+000
2.0293159e+000
2.8183908e+000
3.5801389e+000
4.2132206e+000
4.6180830e+000
4.7196598e+000
4.5133343e+000
4.0998411e+000
3.5977657e+000
3.1119366e+000
2.7189980e+000
2.4498720e+000
2.3021474e+000
2.2337046e+000
2.1884799e+000
2.1050568e+000
1.9411268e+000
1.6924872e+000
1.3856877e+000
1.0838330e+000
8.5075277e-001
7.3283988e-001
7.4987578e-001
8.8250959e-001
1.1062714e+000
1.4046197e+000
1.7708606e+000
2.2103381e+000
2.7176120e+000
3.2631907e+000
3.8096325e+000
4.3167734e+000
4.7537265e+000
5.1084013e+000
5.3779082e+000
5.5689998e+000
5.6966338e+000
5.7879663e+000
5.8806777e+000
6.0257874e+000
6.2736478e+000
6.6640296e+000
7.2134538e+000
7.8992448e+000
8.6842861e+000
9.5240631e+000
1.0390059e+001
1.1287905e+001
1.2228400e+001
1.3219500e+001
1.4248526e+001
1.5264470e+001
1.6201925e+001
1.6981236e+001
1.7527599e+001
1.7783449e+001
1.7703520e+001
1.7264467e+001
1.6468473e+001
1.5359507e+001
1.4012772e+001
1.2544043e+001
1.1079082e+001
9.7388077e+000
8.6233120e+000
7.7860961e+000
7.2545791e+000
7.0223136e+000
7.0510039e+000
7.2516413e+000
7.5087581e+000
7.6807365e+000
7.6501126e+000
7.3670878e+000
6.8314857e+000
6.1142964e+000
5.3011479e+000
4.4715939e+000
3.6905284e+000
2.9931207e+000
2.4016960e+000
1.9251337e+000
1.5623349e+000
1.2975352e+000
1.1106600e+000
9.8128933e-001
8.9529598e-001
8.5344797e-001
8.5819310e-001
9.0734327e-001
9.8893255e-001
1.0719230e+000
1.1233519e+000
1.1177164e+000
1.0445237e+000
9.2388409e-001
7.8343678e-001
6.5031397e-001
5.4047722e-001
4.4468001e-001
3.5098714e-001
2.5480840e-001
1.5054065e-001
2.7363084e-002
-1.1666252e-001
-2.5986001e-001
-3.7804478e-001
-4.5458356e-001
-4.7575966e-001
-4.3233663e-001
-3.3185846e-001
-2.1916240e-001
-1.4174199e-001
-1.2934193e-001
-1.8557599e-001
-2.6147088e-001
-3.0674800e-001
-3.0011174e-001
-2.3715538e-001
-1.3743354e-001
-1.9082345e-002
1.1765824e-001
2.7505076e-001
4.5092151e-001
6.4306140e-001
8.5312104e-001
1.0963660e+000
1.4190819e+000
1.8578988e+000
2.4028521e+000
3.0128775e+000
3.5967734e+000
4.0639381e+000
4.3596749e+000
4.4503932e+000
4.3370543e+000
4.0436616e+000
3.6346352e+000
3.1885900e+000
2.7941129e+000
2.5189879e+000
2.3666923e+000
2.3139675e+000
2.3081470e+000
2.2937114e+000
2.2294722e+000
2.0930076e+000
1.9058130e+000
1.7101989e+000
1.5743035e+000
1.5511854e+000
1.6321453e+000
1.7887045e+000
1.9788700e+000
2.1663499e+000
2.3404293e+000
2.4893560e+000
2.5802388e+000
2.5833535e+000
2.4944208e+000
2.3230858e+000
2.1016629e+000
1.8624746e+000
1.6215476e+000
1.3876286e+000
1.1578834e+000
9.1806966e-001
6.2885690e-001
2.5590801e-001
-1.9890577e-001
-7.0429313e-001
-1.1664851e+000
-1.4980892e+000
-1.6815820e+000
-1.7343857e+000
-1.7294409e+000
-1.7380770e+000
-1.7807552e+000
-1.8539897e+000
-1.9173771e+000
-1.9280171e+000
-1.8664117e+000
-1.7309920e+000
-1.5598298e+000
-1.3972743e+000
-1.2759839e+000
-1.2107037e+000
-1.1675602e+000
-1.1063114e+000
-1.0072355e+000
-8.6542165e-001
-7.1025681e-001
-5.7342994e-001
-4.6604848e-001
-3.8967329e-001
-3.3063164e-001
-2.7262801e-001
-2.0356843e-001
-1.1959400e-001
-4.1624930e-002
1.8351108e-002
1.0179931e-001
2.5367540e-001
4.8331940e-001
7.7687776e-001
1.0684392e+000
1.2877645e+000
1.3960183e+000
1.3831731e+000
1.3169743e+000
1.2751521e+000
1.2993317e+000
1.4095886e+000
1.5783193e+000
1.7771757e+000
2.0210731e+000
2.3387372e+000
2.7714529e+000
3.3363295e+000
3.9450572e+000
4.4832377e+000
4.8382511e+000
4.9429040e+000
4.9094796e+000
4.8951998e+000
