##TITLE=Methyl Ethyl Ketone
##JCAMP-DX=4.24
##DATA TYPE=INFRARED SPECTRUM
##XUNITS=cm-1
##YUNITS=Absorbance
##FIRSTX=900
##LASTX=2300
##XYDATA=(X++(Y..Y))
2296 -0.027749
2294 -0.028326174
2292 -0.028903348
2290 -0.029480522
2288 -0.030057697
2286 -0.030634871
2284 -0.031212045
2282 -0.031789217
2280 -0.032366395
2278 -0.032943569
2276 -0.03352173
2274 -0.034098919
2272 -0.03467609
2270 -0.035253268
2268 -0.035830442
2266 -0.036407612
2264 -0.03698479
2262 -0.037561964
2260 -0.038139135
2258 -0.038716312
2256 -0.039294455
2254 -0.039871659
2252 -0.040448837
2250 -0.041026007
2248 -0.041603182
2246 -0.042180359
2244 -0.0015674657
2242 0.018906493
2240 0.037077483
2238 0.0013846188
2236 -0.042235341
2234 -0.072087936
2232 -0.09878327
2230 -0.077353448
2228 -0.054776385
2226 -0.0413443
2224 -0.032837037
2222 -0.044609252
2220 -0.049638394
2218 -0.030787934
2216 -0.0019584901
2214 0.045717284
2212 0.085152514
2210 0.10932098
2208 0.12378566
2206 0.12731743
2204 0.13816954
2202 0.15670958
2200 0.18540193
2198 0.2212906
2196 0.25611714
2194 0.29005796
2192 0.30612874
2190 0.31439245
2188 0.30314896
2186 0.28574014
2184 0.28364998
2182 0.28517914
2180 0.32311547
2178 0.36641851
2176 0.40603057
2174 0.44208941
2172 0.44181037
2170 0.4366661
2168 0.42331553
2166 0.41472659
2164 0.42641544
2162 0.44547921
2160 0.47822869
2158 0.50997204
2156 0.53715503
2154 0.55448568
2152 0.5582124
2150 0.55271745
2148 0.53845686
2146 0.5233143
2144 0.50821161
2142 0.5072642
2140 0.51618242
2138 0.5393976
2136 0.56983542
2134 0.59170473
2132 0.60960299
2130 0.62347996
2128 0.63618439
2126 0.66037595
2124 0.6872806
2122 0.71899194
2120 0.75125068
2118 0.77981108
2116 0.80629855
2114 0.82105958
2112 0.83273989
2110 0.83815217
2108 0.84421265
2106 0.85504252
2104 0.86692119
2102 0.87962937
2100 0.8922202
2098 0.90443742
2096 0.92150283
2094 0.94504213
2092 0.97004819
2090 0.99559432
2088 1.0123373
2086 1.02157
2084 1.0267035
2082 1.029772
2080 1.0393337
2078 1.0524822
2076 1.0706985
2074 1.0908651
2072 1.108632
2070 1.1255718
2068 1.1410246
2066 1.1562028
2064 1.1716315
2062 1.1868594
2060 1.1983794
2058 1.207836
2056 1.2098143
2054 1.209321
2052 1.205732
2050 1.200961
2048 1.1954919
2046 1.1857928
2044 1.168566
2042 1.1524303
2040 1.1395491
2038 1.1372185
2036 1.1464014
2034 1.1624811
2032 1.183308
2030 1.203843
2028 1.2238715
2026 1.2327043
2024 1.2347863
2022 1.233874
2020 1.2321548
2018 1.2322007
2016 1.2328601
2014 1.2147925
2012 1.1900324
2010 1.1633362
2008 1.1366719
2006 1.1202586
2004 1.104658
2002 1.07681
2000 1.0449868
1998 1.0111223
1996 0.98238927
1994 0.97197759
1992 0.97196472
1990 0.98354691
1988 1.0014398
1986 1.0235071
1984 1.0442983
1982 1.0622199
1980 1.0706683
1978 1.0700679
1976 1.0663371
1974 1.0619349
1972 1.0639743
1970 1.0714208
1968 1.0669681
1966 1.0542235
1964 1.0087292
1962 0.94616526
1960 0.88426441
1958 0.82342058
1956 0.78447628
1954 0.75336355
1952 0.72899193
1950 0.70710528
1948 0.69618195
1946 0.68886745
1944 0.6809541
1942 0.67127424
1940 0.64979362
1938 0.62607515
1936 0.60454744
1934 0.58707213
1932 0.57859021
1930 0.57339716
1928 0.57151502
1926 0.57037562
1924 0.57034105
1922 0.57492042
1920 0.58297926
1918 0.58840603
1916 0.58853453
1914 0.57790732
1912 0.56014085
1910 0.52864641
1908 0.48983246
1906 0.43599927
1904 0.37420639
1902 0.33116975
1900 0.29669806
1898 0.30855152
1896 0.33932856
1894 0.38563076
1892 0.43367472
1890 0.4497267
1888 0.44585291
1886 0.40555358
1884 0.35138264
1882 0.29550925
1880 0.24468549
1878 0.20873211
1876 0.187765
1874 0.18860593
1872 0.21194577
1870 0.26043394
1868 0.30850932
1866 0.34195808
1864 0.33871838
1862 0.29731509
1860 0.24214308
1858 0.18505426
1856 0.13750143
1854 0.099456258
1852 0.07027597
1850 0.047510087
1848 0.03112052
1846 0.019909143
1844 0.0040829703
1842 -0.012678326
1840 -0.029010726
1838 -0.04436421
1836 -0.041291229
1834 -0.02551209
1832 0.023580823
1830 0.091363087
1828 0.16929826
1826 0.23432559
1824 0.24417235
1822 0.21140282
1820 0.1370192
1818 0.053602878
1816 -0.012866601
1814 -0.05782865
1812 -0.078629032
1810 -0.079399809
1808 -0.066718683
1806 -0.03883855
1804 0.00028954074
1802 0.02297044
1800 0.029675204
1798 0.015665432
1796 -0.011543714
1794 -0.0053412006
1792 0.023855776
1790 0.064729974
1788 0.10819334
1786 0.12687643
1784 0.12989485
1782 0.13554285
1780 0.14325359
1778 0.1629681
1776 0.19215058
1774 0.23527224
1772 0.27939132
1770 0.2938033
1768 0.27537698
1766 0.20627943
1764 0.12050956
1762 0.053664669
1760 0.019729646
1758 -0.043423608
1756 -0.11083718
1754 -0.14357617
1752 -0.13584417
1750 -0.09085156
1748 -0.051498145
1746 -0.032313891
1744 -0.074986979
1742 -0.17609522
1740 -0.26631689
1738 -0.33545059
1736 -0.295912
1734 -0.17223029
1732 -0.049210951
1730 0.061177276
1728 0.046807349
1726 -0.050144702
1724 -0.11642407
1722 -0.13284349
1720 0.00063662231
1718 0.260041
1716 0.71675569
1714 1.2819176
1712 1.7921388
1710 2.2578199
1708 2.698684
1706 3.2745378
1704 4.1386042
1702 5.5379753
1700 7.5935292
1698 10.495941
1696 14.208286
1694 18.02174
1692 21.604097
1690 24.816757
1688 27.701788
1686 31.112993
1684 35.137608
1682 40.042351
1680 45.648319
1678 50.625561
1676 54.993771
1674 59.141304
1672 63.203442
1670 67.964828
1668 73.2463
1666 78.478645
1664 83.544754
1662 88.053268
1660 92.020721
1658 95.446022
1656 98.35537
1654 100.80481
1652 102.6686
1650 103.83086
1648 103.84011
1646 102.35143
1644 99.950478
1642 97.209106
1640 94.187065
1638 90.970421
1636 87.067513
1634 82.354111
1632 77.422279
1630 72.502892
1628 67.851067
1626 63.492992
1624 59.075039
1622 54.551758
1620 50.17635
1618 45.965031
1616 42.047657
1614 38.441715
1612 35.260681
1610 32.5173
1608 30.195925
1606 28.278786
1604 26.638266
1602 25.285053
1600 24.190863
1598 23.360943
1596 22.761501
1594 22.379435
1592 22.164856
1590 22.087624
1588 22.098703
1586 22.187593
1584 22.339966
1582 22.56477
1580 22.862297
1578 23.283751
1576 23.844429
1574 24.573843
1572 25.470091
1570 26.481979
1568 27.593559
1566 28.743151
1564 29.927799
1562 31.299725
1560 32.952679
1558 35.501774
1556 39.013954
1554 42.897221
1552 46.927414
1550 50.098763
1548 52.44553
1546 54.490002
1544 56.256023
1542 57.889675
1540 59.18454
1538 59.843685
1536 59.744541
1534 58.856091
1532 57.465931
1530 55.948654
1528 54.346302
1526 52.696198
1524 50.868607
1522 48.77536
1520 46.440994
1518 43.850647
1516 41.36063
1514 39.099083
1512 36.92984
1510 34.850842
1508 32.295135
1506 29.115686
1504 25.934498
1502 22.809486
1500 20.162508
1498 18.046549
1496 15.954714
1494 13.884115
1492 11.791615
1490 9.6829872
1488 7.581562
1486 5.5502644
1484 3.7010539
1482 2.1413002
1480 0.99392581
1478 0.28911069
1476 0.056378774
1474 0.38217258
1472 1.204049
1470 2.220382
1468 3.2468631
1466 4.1341949
1464 4.7796011
1462 5.3252831
1460 5.8163495
1458 6.3035002
1456 6.7972398
1454 7.2012892
1452 7.4530115
1450 7.5578976
1448 7.4487672
1446 7.2777247
1444 7.025794
1442 6.7711349
1440 6.5099926
1438 6.2206821
1436 5.8756042
1434 5.4118972
1432 4.8270135
1430 4.2015405
1428 3.577966
1426 3.0686793
1424 2.6958473
1422 2.4708052
1420 2.3890228
1418 2.4279246
1416 2.5519314
1414 2.7266259
1412 2.9266591
1410 3.1482086
1408 3.4000199
1406 3.7023065
1404 4.0444632
1402 4.4354415
1400 4.8391919
1398 5.2503147
1396 5.6441641
1394 5.9997363
1392 6.3043361
1390 6.5061202
1388 6.6002274
1386 6.5161147
1384 6.3025765
1382 5.9138007
1380 5.4671769
1378 4.9592142
1376 4.4529257
1374 3.9606726
1372 3.495028
1370 3.0649989
1368 2.6781263
1366 2.306325
1364 1.9030664
1362 1.4677558
1360 0.99192417
1358 0.54773611
1356 0.22733165
1354 0.022431174
1352 -0.010075177
1350 0.034166746
1348 0.143328
1346 0.26958963
1344 0.41532922
1342 0.58282602
1340 0.79479998
1338 1.0166403
1336 1.2505372
1334 1.4619454
1332 1.6236023
1330 1.782774
1328 1.9420561
1326 2.1286671
1324 2.3626535
1322 2.6288636
1320 2.9422851
1318 3.2850916
1316 3.65499
1314 4.0166764
1312 4.349577
1310 4.6177964
1308 4.8155231
1306 4.9377384
1304 5.0025854
1302 5.0197492
1300 5.006742
1298 4.9628391
1296 4.9010572
1294 4.814631
1292 4.7263713
1290 4.6471329
1288 4.581192
1286 4.5462022
1284 4.5183272
1282 4.5019612
1280 4.4868441
1278 4.474999
1276 4.4715185
1274 4.487926
1272 4.5226765
1270 4.5907307
1268 4.6760845
1266 4.783792
1264 4.8938084
1262 5.0052538
1260 5.1170721
1258 5.2315164
1256 5.3553114
1254 5.4860454
1252 5.616106
1250 5.74122
1248 5.8506465
1246 5.9467001
1244 6.0216784
1242 6.0779362
1240 6.0968885
1238 6.0881057
1236 6.0225945
1234 5.9261751
1232 5.7638922
1230 5.5680232
1228 5.284339
1226 4.9647727
1224 4.5484223
1222 4.1059165
1220 3.602097
1218 3.0947502
1216 2.5856972
1214 2.1096005
1212 1.6960092
1210 1.3385907
1208 1.0611495
1206 0.81701791
1204 0.60979342
1202 0.40854847
1200 0.21703503
1198 0.045275703
1196 -0.10329171
1194 -0.21328825
1192 -0.29321265
1190 -0.3386772
1188 -0.36266547
1186 -0.36060843
1184 -0.34158045
1182 -0.28796503
1180 -0.20646966
1178 -0.042833567
1176 0.16139638
1174 0.48506239
1172 0.8232376
1170 1.1878589
1168 1.5149354
1166 1.7234714
1164 1.8793429
1162 1.9047589
1160 1.8952178
1158 1.8143355
1156 1.7052114
1154 1.548308
1152 1.3685012
1150 1.159183
1148 0.94570279
1146 0.72963679
1144 0.52281344
1142 0.32926655
1140 0.16735244
1138 0.04241791
1136 0.0042115143
1134 0.031064555
1132 0.16671807
1130 0.35160634
1128 0.5767765
1126 0.80215544
1124 0.97130084
1122 1.1157448
1120 1.182104
1118 1.2392626
1116 1.2852328
1114 1.3370899
1112 1.4141034
1110 1.4927094
1108 1.576314
1106 1.6591799
1104 1.7378571
1102 1.7960398
1100 1.8103288
1098 1.7854656
1096 1.7018
1094 1.6204696
1092 1.548308
1090 1.522719
1088 1.5452949
1086 1.5942779
1084 1.6601906
1082 1.7042717
1080 1.7287794
1078 1.704872
1076 1.65413
1074 1.5663857
1072 1.4634485
1070 1.338418
1068 1.2075195
1066 1.0701967
1064 0.93893123
1062 0.85882115
1060 0.79009891
1058 0.77819616
1056 0.76404405
1054 0.73973531
1052 0.71022546
1050 0.66409039
1048 0.61350131
1046 0.55105895
1044 0.47582477
1042 0.37735605
1040 0.28378788
1038 0.19885202
1036 0.1319246
1034 0.084447548
1032 0.028021375
1030 -0.03757789
1028 -0.11851243
1026 -0.20947893
1024 -0.29682267
1022 -0.3815378
1020 -0.45753419
1018 -0.52831584
1016 -0.57780689
1014 -0.6191662
1012 -0.63399512
1010 -0.64417738
1008 -0.65296119
1006 -0.66107816
1004 -0.66309243
1002 -0.66189039
1000 -0.63953578
998 -0.62084764
996 -0.61877429
994 -0.62623769
992 -0.66280919
990 -0.69151253
988 -0.70111436
986 -0.68987322
984 -0.64274377
982 -0.60134894
980 -0.56875741
978 -0.55956918
976 -0.57369202
974 -0.5728519
972 -0.55869651
970 -0.51818085
968 -0.46211901
966 -0.41731799
964 -0.37811098
962 -0.35036141
960 -0.32600531
958 -0.29217589
956 -0.25638887
954 -0.21907642
952 -0.1819168
950 -0.15158114
948 -0.11817962
946 -0.038457643
944 0.0015677139
942 0.048804209
940 0.14274535
938 0.2477762
936 0.35320514
934 0.46046907
932 0.58618879
930 0.75085366
928 0.90180659
926 1.0296872
924 1.0975059
922 1.0921237
920 1.0497832
918 0.97315055
916 0.90078616
914 0.83179098
912 0.79947531
910 0.78705722
908 0.79684234
906 0.8152473
904 0.76303804
902 0.69267023
900 0.59252024
898 0.48795751
896 0.52816999
