Image.
>Pix99999.
  .
5555
5555
2300
900
5555
2
1
0
701
5555
7.1709998e-002
7.3201872e-002
7.4693732e-002
7.6184601e-002
7.7676460e-002
7.9168327e-002
8.0660194e-002
8.2152061e-002
8.3643921e-002
8.5135795e-002
8.6627655e-002
8.8119522e-002
8.9611381e-002
9.1103256e-002
9.2595123e-002
9.4086982e-002
9.5578857e-002
9.7070716e-002
9.8562583e-002
1.0004959e-001
1.0154714e-001
1.0303529e-001
1.0453286e-001
1.0602104e-001
1.0750891e-001
1.0900643e-001
9.6807644e-002
3.7157787e-003
-1.0535040e-001
-2.7752835e-001
-4.5894173e-001
-5.5590814e-001
-6.3928390e-001
-5.5472159e-001
-4.5542598e-001
-3.0276951e-001
-1.6319548e-001
-9.5748253e-002
-5.2698936e-002
-7.2182067e-002
-1.1037320e-001
-1.8173909e-001
-2.6083580e-001
-3.4934935e-001
-3.9878201e-001
-3.9878252e-001
-3.6981335e-001
-3.1596044e-001
-3.1181085e-001
-3.4602261e-001
-3.9209428e-001
-4.4353089e-001
-4.1128120e-001
-3.4218344e-001
-2.3991537e-001
-1.2765250e-001
-9.2496641e-002
-7.5217240e-002
-1.2664390e-001
-1.8812935e-001
-2.4487914e-001
-2.9722419e-001
-3.0483150e-001
-2.9649410e-001
-2.2107354e-001
-1.2960486e-001
-3.3967504e-003
1.1106112e-001
1.8656971e-001
2.2538649e-001
2.0213100e-001
1.6106057e-001
1.0347779e-001
6.7423478e-002
5.7566110e-002
6.8161212e-002
9.4412573e-002
1.1533834e-001
1.3143837e-001
1.1980189e-001
9.3330115e-002
3.7155561e-002
-3.0922800e-002
-4.6733513e-002
-4.5526762e-002
5.9604868e-002
1.8861014e-001
3.1937733e-001
4.4653693e-001
5.0456041e-001
5.5275387e-001
6.0138124e-001
6.5959108e-001
7.5992948e-001
8.5934687e-001
9.3735683e-001
9.8442578e-001
9.7018427e-001
9.4287860e-001
9.0885854e-001
9.0329999e-001
9.3628192e-001
9.7482687e-001
1.0133277e+000
1.0062286e+000
9.6147448e-001
9.0392131e-001
8.4133202e-001
7.9248500e-001
7.5120550e-001
6.6296744e-001
5.5484676e-001
4.3866679e-001
3.2056639e-001
3.0397817e-001
3.1306112e-001
3.6294669e-001
4.1742766e-001
4.3863705e-001
4.5099530e-001
4.5076630e-001
4.3911704e-001
3.9537871e-001
3.3652341e-001
2.5500846e-001
1.9014572e-001
1.6629741e-001
1.7263074e-001
2.1265079e-001
2.4068636e-001
2.4659829e-001
2.4331465e-001
2.3506354e-001
2.5316882e-001
2.9269367e-001
3.3882114e-001
3.8690683e-001
4.5681033e-001
5.3792626e-001
6.0116965e-001
6.5627199e-001
5.8961469e-001
4.8219892e-001
3.9401057e-001
3.1859496e-001
3.5664070e-001
4.2043167e-001
4.6150652e-001
4.8865217e-001
4.8043263e-001
4.7191644e-001
4.8941287e-001
5.1351166e-001
5.3795969e-001
5.4841560e-001
5.3430969e-001
5.0899267e-001
4.7616029e-001
4.5262781e-001
4.4153026e-001
4.4505855e-001
4.5962140e-001
4.6186832e-001
4.5296445e-001
3.8830292e-001
2.8953150e-001
1.7727008e-001
6.0771435e-002
4.9654920e-002
8.4929466e-002
1.9222301e-001
3.2214782e-001
3.8556176e-001
4.1877201e-001
3.6978507e-001
2.9547000e-001
2.2533846e-001
1.6711141e-001
1.4685686e-001
1.3209158e-001
1.0124183e-001
6.4179063e-002
2.4252899e-002
-1.4873027e-002
-5.1429428e-002
-1.1456873e-001
-2.1338315e-001
-3.2025328e-001
-4.2571750e-001
-4.5823130e-001
-4.2514187e-001
-3.0129707e-001
-1.1936837e-001
6.6892087e-002
2.4875796e-001
3.2379943e-001
3.4068239e-001
2.6160568e-001
1.4088115e-001
6.3892543e-002
1.1079642e-002
4.0213205e-002
9.5837966e-002
1.1487971e-001
1.0175698e-001
1.0914123e-002
-1.0461555e-001
-2.0704731e-001
-2.8860292e-001
-3.3258024e-001
-3.8740000e-001
-4.8637852e-001
-6.2067211e-001
-7.8621089e-001
-8.6963785e-001
-8.3816379e-001
-6.7550778e-001
-4.0916222e-001
-1.4840852e-001
8.3152048e-002
1.6547914e-001
1.3750318e-001
-1.1177492e-001
-4.9531233e-001
-9.7346878e-001
-1.4954715e+000
-1.7219509e+000
-1.7834587e+000
-1.5014611e+000
-1.0656972e+000
-6.8650961e-001
-3.5697520e-001
-1.5042090e-001
-1.0175131e-002
8.9455336e-002
1.5909892e-001
1.9528115e-001
2.0584626e-001
1.9128260e-001
1.5733865e-001
1.0672218e-001
4.5209568e-002
-2.3291806e-002
-6.1805896e-002
-6.0747024e-002
-3.9682899e-002
-1.0143776e-002
-1.3428321e-001
-4.0115148e-001
-8.0035597e-001
-1.2803750e+000
-1.4810253e+000
-1.4732161e+000
-1.1303284e+000
-5.9222102e-001
-1.5916955e-001
1.8894857e-001
2.9898989e-001
2.5548741e-001
6.7857720e-002
-1.8378392e-001
-3.8076782e-001
-4.7544226e-001
-3.3684641e-001
-9.6200570e-002
1.1718632e-001
2.2985080e-001
1.6726777e-001
4.3986458e-002
-2.7128989e-001
-6.4980501e-001
-9.4156921e-001
-1.1999760e+000
-1.4548620e+000
-1.7015786e+000
-1.9406357e+000
-2.1149447e+000
-2.2293975e+000
-2.2825203e+000
-2.2940876e+000
-2.2071600e+000
-2.0493948e+000
-1.7351677e+000
-1.3179170e+000
-9.3799907e-001
-5.9722316e-001
-3.6550218e-001
-1.9416009e-001
7.7432334e-002
5.3604990e-001
1.2741910e+000
2.1297359e+000
2.9301238e+000
3.6366405e+000
4.1964402e+000
4.7891006e+000
5.5817518e+000
6.9025345e+000
8.9345236e+000
1.2085176e+001
1.6411858e+001
2.1064301e+001
2.5602825e+001
2.9592415e+001
3.3006413e+001
3.6697865e+001
4.0811874e+001
4.5608536e+001
5.0962799e+001
5.5601368e+001
5.9575256e+001
6.3418823e+001
6.7258270e+001
7.1926590e+001
7.7225739e+001
8.2570198e+001
8.7823624e+001
9.2543472e+001
9.6704857e+001
1.0020820e+002
1.0301514e+002
1.0507253e+002
1.0631680e+002
1.0672384e+002
1.0620509e+002
1.0478429e+002
1.0268511e+002
1.0016928e+002
9.7173508e+001
9.3722580e+001
8.9614243e+001
8.4854057e+001
8.0054810e+001
7.5429955e+001
7.0955406e+001
6.6602997e+001
6.1930161e+001
5.6913139e+001
5.2071148e+001
4.7448166e+001
4.3316143e+001
3.9683483e+001
3.6559143e+001
3.3938992e+001
3.1713560e+001
2.9861185e+001
2.8246748e+001
2.6892557e+001
2.5802383e+001
2.4972433e+001
2.4355499e+001
2.3940987e+001
2.3684990e+001
2.3592060e+001
2.3644808e+001
2.3823792e+001
2.4100290e+001
2.4425640e+001
2.4765068e+001
2.5167034e+001
2.5650772e+001
2.6297943e+001
2.7128637e+001
2.8127754e+001
2.9287880e+001
3.0482508e+001
3.1694729e+001
3.2897053e+001
3.4146633e+001
3.6051407e+001
3.8694714e+001
4.1865082e+001
4.5358440e+001
4.8112080e+001
5.0047493e+001
5.1321251e+001
5.1905422e+001
5.1978416e+001
5.1581280e+001
5.0902840e+001
5.0006260e+001
4.9012413e+001
4.7893223e+001
4.6633514e+001
4.5188873e+001
4.3531998e+001
4.1641075e+001
3.9500790e+001
3.7369198e+001
3.5366093e+001
3.3590870e+001
3.2098488e+001
3.0436159e+001
2.8485382e+001
2.6016922e+001
2.2919336e+001
2.0011850e+001
1.7395945e+001
1.5234965e+001
1.3567600e+001
1.1860000e+001
1.0116515e+001
8.3897686e+000
6.7221456e+000
5.1999822e+000
3.8571687e+000
2.6899621e+000
1.7300956e+000
9.7527528e-001
4.4219923e-001
1.2213314e-001
1.1914645e-001
5.0029886e-001
1.0438054e+000
1.6437002e+000
2.1378284e+000
2.4081624e+000
2.5466223e+000
2.5641842e+000
2.6661546e+000
2.9410200e+000
3.4108899e+000
4.1486330e+000
4.7749572e+000
5.2062588e+000
5.4591355e+000
5.4599924e+000
5.3535228e+000
5.0990801e+000
4.7465596e+000
4.2829700e+000
3.7925932e+000
3.3089612e+000
2.9296601e+000
2.6567521e+000
2.4431992e+000
2.2879241e+000
2.1744492e+000
2.1585000e+000
2.3149161e+000
2.6372800e+000
3.1359808e+000
3.6792274e+000
4.1655269e+000
4.5660434e+000
4.8311524e+000
5.0376492e+000
5.1915407e+000
5.3233123e+000
5.4287839e+000
5.5011573e+000
5.5163245e+000
5.5140715e+000
5.4818559e+000
5.4313807e+000
5.3496051e+000
5.2378883e+000
5.0687108e+000
4.8100381e+000
4.4253750e+000
3.9364202e+000
3.3700206e+000
2.8774819e+000
2.4886019e+000
2.2298903e+000
2.0360856e+000
1.7720762e+000
1.4405838e+000
1.0386429e+000
6.4394540e-001
3.4871674e-001
1.3859922e-001
4.3294083e-002
8.0666337e-003
4.0335070e-002
7.7931389e-002
9.0328120e-002
7.5199187e-002
7.4574314e-003
-2.7829744e-002
1.0149281e-002
9.9986829e-002
2.8211504e-001
4.7746909e-001
6.9548345e-001
9.2775130e-001
1.1808800e+000
1.4446828e+000
1.7218635e+000
2.0051637e+000
2.2974000e+000
2.6007633e+000
2.9050531e+000
3.1833293e+000
3.4237087e+000
3.6002030e+000
3.7227864e+000
3.7877159e+000
3.8109171e+000
3.7856271e+000
3.7330573e+000
3.6485741e+000
3.5634243e+000
3.4959791e+000
3.4544640e+000
3.4749086e+000
3.5156920e+000
3.5975950e+000
3.6708760e+000
3.7244704e+000
3.7701414e+000
3.8049769e+000
3.8639514e+000
3.9702430e+000
4.1261091e+000
4.3578520e+000
4.6372786e+000
4.9769754e+000
5.3475218e+000
5.7537618e+000
6.1876798e+000
6.6504259e+000
7.1415334e+000
7.6483598e+000
8.1486864e+000
8.6306000e+000
9.0602388e+000
9.4523335e+000
9.7849665e+000
1.0080186e+001
1.0305971e+001
1.0488039e+001
1.0567800e+001
1.0593564e+001
1.0475409e+001
1.0300157e+001
9.9719048e+000
9.6154366e+000
9.1956387e+000
8.7782640e+000
8.3606262e+000
7.9113517e+000
7.4030919e+000
6.8448110e+000
6.2282128e+000
5.6473422e+000
5.1226840e+000
4.6810908e+000
4.3096910e+000
3.9242771e+000
3.5096643e+000
3.0121078e+000
2.4696012e+000
1.9359950e+000
1.4357865e+000
1.0578864e+000
7.4651134e-001
5.4406673e-001
3.9365554e-001
3.5470811e-001
3.6164200e-001
4.9251556e-001
6.1939240e-001
7.0054376e-001
7.3244762e-001
6.1411524e-001
4.7291169e-001
2.8144559e-001
1.2438904e-001
4.0483598e-002
2.1664854e-003
3.2865793e-002
4.9539823e-002
4.3345857e-002
7.6962784e-003
-5.4238785e-002
-9.3968637e-002
-1.0192570e-001
-3.6870502e-002
9.9960789e-002
3.6559799e-001
7.1470582e-001
1.1581650e+000
1.6280009e+000
2.0464144e+000
2.4334543e+000
2.7290838e+000
3.0050969e+000
3.2627079e+000
3.5099044e+000
3.7096386e+000
3.8847966e+000
3.9604549e+000
4.0280657e+000
4.0729704e+000
4.1438847e+000
4.2826452e+000
4.4644456e+000
4.7329502e+000
5.0398221e+000
5.4051714e+000
5.7740092e+000
6.1441741e+000
6.4947195e+000
6.8260846e+000
7.1555958e+000
7.4775763e+000
7.7560530e+000
7.9942708e+000
8.1284132e+000
8.2124758e+000
8.2708693e+000
8.3267813e+000
8.4248734e+000
8.5157089e+000
8.4859991e+000
8.4115801e+000
8.1218796e+000
7.8118119e+000
7.4384651e+000
7.0637569e+000
6.6845202e+000
6.3211560e+000
6.0128660e+000
5.7598867e+000
5.6393142e+000
5.5288954e+000
5.4296246e+000
5.2523127e+000
4.9592919e+000
4.6275001e+000
4.2559605e+000
3.9240000e+000
3.6213257e+000
3.2617800e+000
2.8539991e+000
2.3499572e+000
1.8025900e+000
1.3269439e+000
8.9264089e-001
6.0764855e-001
3.7021747e-001
2.1506160e-001
7.4596569e-002
-5.7224117e-002
-1.8672357e-001
-2.9758781e-001
-4.1196591e-001
-5.5263293e-001
-7.1828127e-001
-9.9289358e-001
-1.2616700e+000
-1.5092669e+000
-1.7074676e+000
-1.7924957e+000
-1.8654814e+000
-1.9182703e+000
-1.9753761e+000
-2.0364900e+000
-2.0659182e+000
-2.0583200e+000
-1.9728765e+000
-1.8169538e+000
-1.5073932e+000
-1.1015489e+000
-6.3307047e-001
-1.4811009e-001
1.0392226e-001
2.6769313e-001
1.5294480e-001
-2.0409420e-002
-1.7501076e-001
-3.1899360e-001
-2.6201186e-001
-1.9260955e-001
-6.3482784e-002
4.0858239e-004
1.2576507e-002
3.3878960e-002
9.5342278e-002
2.0676911e-001
4.6457231e-001
7.3191547e-001
1.0177385e+000
1.2303965e+000
1.3250008e+000
1.3560840e+000
1.3107617e+000
1.2875538e+000
1.2859230e+000
1.3516186e+000
1.4651219e+000
1.6067909e+000
1.7628371e+000
1.8762323e+000
1.9725585e+000
1.9806131e+000
1.9655089e+000
1.9676143e+000
1.9728224e+000
2.1283000e+000
