Image.
>Pix99999.
  .
5555
5555
2300
900
5555
2
1
0
701
5555
4.6317000e-002
4.7280621e-002
4.8244242e-002
4.9207866e-002
5.0171487e-002
5.1134117e-002
5.2098718e-002
5.3062353e-002
5.4024983e-002
5.4988593e-002
5.5952214e-002
5.6918789e-002
5.7879508e-002
5.8832284e-002
5.9806481e-002
6.0809463e-002
6.1734859e-002
6.2551200e-002
6.3657328e-002
6.5167665e-002
6.5604366e-002
6.4530574e-002
6.7449205e-002
7.5998798e-002
6.9708526e-002
3.3816680e-002
1.2069943e-003
1.0030583e-002
6.5825962e-002
1.5730608e-001
2.4288085e-001
2.8441498e-001
2.9210564e-001
2.8747326e-001
2.8137872e-001
2.7448699e-001
2.3951714e-001
1.5344848e-001
4.3477815e-002
-4.8642308e-002
-8.2666717e-002
-3.4140240e-002
6.0063660e-002
1.4907479e-001
2.0005576e-001
1.9697171e-001
1.6864288e-001
1.5124121e-001
1.5526217e-001
1.7794140e-001
1.9563785e-001
1.8427940e-001
1.4369720e-001
8.4670037e-002
3.1535178e-002
9.0232873e-003
2.6620943e-002
8.3751343e-002
1.5904221e-001
2.2801654e-001
2.8039944e-001
3.1320551e-001
3.3351058e-001
3.4918851e-001
3.5825652e-001
3.5770556e-001
3.5410112e-001
3.5704967e-001
3.7507796e-001
4.1314533e-001
4.6352199e-001
5.1483059e-001
5.5855435e-001
5.8993095e-001
6.1518568e-001
6.4171964e-001
6.6639435e-001
6.7858189e-001
6.5226758e-001
5.6481647e-001
4.2918229e-001
2.7543861e-001
1.5141651e-001
9.9161230e-002
1.1224528e-001
1.6472071e-001
2.2307442e-001
2.5739211e-001
2.6167715e-001
2.3883623e-001
1.9198957e-001
1.2705380e-001
6.2434800e-002
1.7552195e-002
-3.4284124e-003
-4.1677835e-003
3.7489710e-003
9.7185159e-003
1.8795760e-002
3.9611097e-002
7.0325285e-002
1.0513383e-001
1.3955763e-001
1.7099003e-001
2.0178251e-001
2.3376399e-001
2.5853294e-001
2.6683399e-001
2.6309776e-001
2.5852826e-001
2.6903316e-001
3.0736032e-001
3.6600119e-001
4.2924508e-001
4.8154455e-001
5.1073819e-001
5.1684725e-001
5.0495535e-001
4.8024097e-001
4.4636461e-001
4.0143198e-001
3.4242800e-001
2.7131292e-001
1.9395897e-001
1.2326474e-001
7.2799608e-002
4.6769522e-002
4.3506023e-002
5.4082368e-002
6.9286712e-002
9.1017842e-002
1.2677589e-001
1.8665737e-001
2.7713600e-001
3.8564572e-001
4.9108618e-001
5.7198727e-001
6.1159897e-001
6.1185730e-001
5.8459997e-001
5.4812002e-001
5.1917434e-001
4.9759597e-001
4.7536159e-001
4.4451448e-001
4.0236065e-001
3.6659923e-001
3.5845661e-001
3.7414223e-001
3.9598331e-001
3.9920571e-001
3.6355990e-001
2.9903087e-001
2.2915907e-001
1.7368440e-001
1.4533043e-001
1.3878028e-001
1.4215305e-001
1.5165551e-001
1.6993585e-001
2.0778458e-001
2.7647880e-001
3.7372243e-001
4.8588541e-001
5.8042336e-001
6.2037414e-001
5.8795881e-001
4.8340461e-001
3.4049401e-001
2.0595363e-001
1.1275020e-001
7.8904793e-002
9.3277402e-002
1.3030592e-001
1.6380191e-001
1.7372750e-001
1.6332875e-001
1.4832309e-001
1.4636683e-001
1.7022172e-001
2.1088572e-001
2.4802397e-001
2.6175860e-001
2.3778418e-001
1.8106845e-001
1.1068848e-001
6.2870383e-002
7.4766070e-002
1.5109302e-001
2.7371180e-001
4.0449244e-001
5.0250787e-001
5.5550677e-001
5.6713974e-001
5.3820610e-001
4.7009042e-001
3.7982240e-001
2.9611483e-001
2.5949472e-001
3.0486032e-001
4.1684571e-001
5.4854959e-001
6.4170671e-001
6.4546031e-001
5.5827779e-001
4.1152442e-001
2.5523481e-001
1.3875800e-001
7.2717011e-002
4.0620126e-002
9.2710201e-003
-5.4068107e-002
-1.4669764e-001
-2.4267150e-001
-3.0905500e-001
-3.1962600e-001
-2.8688285e-001
-2.4471460e-001
-2.1815252e-001
-2.2173056e-001
-2.5752771e-001
-3.2138070e-001
-4.1156703e-001
-5.2494168e-001
-6.4219320e-001
-7.3493928e-001
-7.7969474e-001
-7.6436049e-001
-7.0930529e-001
-6.5177059e-001
-6.1581427e-001
-6.0809588e-001
-6.0421395e-001
-5.6643462e-001
-4.8039436e-001
-3.5456142e-001
-2.2360674e-001
-1.3254997e-001
-1.0554800e-001
-1.4746594e-001
-2.4461973e-001
-3.7185636e-001
-4.9912170e-001
-5.9662557e-001
-6.4501226e-001
-6.3919050e-001
-6.0629535e-001
-5.9107679e-001
-6.2454027e-001
-7.1462047e-001
-8.1742930e-001
-8.6097598e-001
-7.9828399e-001
-6.1704516e-001
-3.6662662e-001
-1.2865451e-001
4.8863500e-002
1.5133472e-001
1.8830189e-001
1.8229461e-001
1.5477772e-001
1.2550290e-001
1.1747117e-001
1.4777553e-001
1.9451183e-001
2.1442364e-001
1.9492801e-001
1.4395703e-001
4.6095997e-002
-1.2259487e-001
-3.3219501e-001
-5.1986605e-001
-6.6345876e-001
-7.7616483e-001
-8.7107933e-001
-9.5574784e-001
-1.0348271e+000
-1.1074582e+000
-1.1545929e+000
-1.1459689e+000
-1.0619200e+000
-9.0107888e-001
-7.0013261e-001
-5.1787204e-001
-3.8849577e-001
-3.1600264e-001
-2.6942477e-001
-1.8684171e-001
2.8785758e-002
4.7930098e-001
1.1783452e+000
2.0587308e+000
3.0121412e+000
3.9335482e+000
4.8348360e+000
5.8340359e+000
7.0998955e+000
8.8294086e+000
1.1232077e+001
1.4444683e+001
1.8229572e+001
2.2074890e+001
2.5604851e+001
2.8686640e+001
3.1586319e+001
3.4856651e+001
3.8987640e+001
4.4220409e+001
5.0096081e+001
5.5718563e+001
6.0783485e+001
6.5592537e+001
7.0539314e+001
7.5890732e+001
8.1406380e+001
8.6473099e+001
9.0721191e+001
9.4085464e+001
9.6628937e+001
9.8468460e+001
9.9670799e+001
1.0023618e+002
1.0015210e+002
9.9420807e+001
9.8135986e+001
9.6483360e+001
9.4668106e+001
9.2852119e+001
9.0982964e+001
8.8826439e+001
8.6188141e+001
8.2981270e+001
7.9303322e+001
7.5372139e+001
7.1250175e+001
6.6841377e+001
6.2104080e+001
5.7105656e+001
5.2046288e+001
4.7214256e+001
4.2801628e+001
3.8880737e+001
3.5477978e+001
3.2588032e+001
3.0159430e+001
2.8106993e+001
2.6369902e+001
2.4922386e+001
2.3756063e+001
2.2871937e+001
2.2256500e+001
2.1880875e+001
2.1723148e+001
2.1772844e+001
2.2028437e+001
2.2490450e+001
2.3132811e+001
2.3912579e+001
2.4848648e+001
2.6032259e+001
2.7589914e+001
2.9642775e+001
3.2170063e+001
3.4998993e+001
3.7925961e+001
4.0760242e+001
4.3375221e+001
4.5750542e+001
4.8080029e+001
5.0688969e+001
5.3531872e+001
5.6143208e+001
5.8079891e+001
5.9080551e+001
5.9221008e+001
5.8856998e+001
5.8116547e+001
5.6828953e+001
5.4879940e+001
5.2330574e+001
4.9489311e+001
4.6845829e+001
4.4629520e+001
4.2726387e+001
4.0957905e+001
3.9158852e+001
3.7186859e+001
3.4949173e+001
3.2477524e+001
2.9937956e+001
2.7532158e+001
2.5431051e+001
2.3595840e+001
2.1767258e+001
1.9734968e+001
1.7434320e+001
1.4994120e+001
1.2707970e+001
1.0748249e+001
9.0913153e+000
7.6444430e+000
6.2920508e+000
4.9711022e+000
3.6933460e+000
2.5054028e+000
1.4757612e+000
6.6811073e-001
1.2612358e-001
-1.5302402e-001
-2.0946181e-001
-6.7914277e-003
5.7800567e-001
1.5774091e+000
2.8788362e+000
4.3114600e+000
5.6859722e+000
6.8975658e+000
7.9613791e+000
8.9431639e+000
9.9295940e+000
1.0948600e+001
1.1936860e+001
1.2766292e+001
1.3266346e+001
1.3369263e+001
1.3154036e+001
1.2728806e+001
1.2190190e+001
1.1577045e+001
1.0854414e+001
9.9780331e+000
8.9293575e+000
7.7745094e+000
6.6808472e+000
5.7844262e+000
5.1400294e+000
4.7413864e+000
4.5259213e+000
4.4443283e+000
4.4841528e+000
4.6477714e+000
4.9427781e+000
5.3549180e+000
5.8376050e+000
6.3403797e+000
6.8177428e+000
7.2264557e+000
7.5257735e+000
7.6801920e+000
7.6660309e+000
7.4886928e+000
7.1935334e+000
6.8396149e+000
6.4890509e+000
6.1822386e+000
5.9243898e+000
5.7033668e+000
5.4914551e+000
5.2500086e+000
4.9327435e+000
4.5122771e+000
3.9959419e+000
3.4186580e+000
2.8401542e+000
2.2919273e+000
1.7549078e+000
1.2068858e+000
6.4538240e-001
1.1187303e-001
-2.9630351e-001
-5.0326884e-001
-4.8826078e-001
-2.5343704e-001
1.7980021e-001
7.7181351e-001
1.4610250e+000
2.1824961e+000
2.8754299e+000
3.4906137e+000
3.9959686e+000
4.3665113e+000
4.5831866e+000
4.6325178e+000
4.5116401e+000
4.2391028e+000
3.8659587e+000
3.4560475e+000
3.0783029e+000
2.7776029e+000
2.5542679e+000
2.3845501e+000
2.2234335e+000
2.0356789e+000
1.8133613e+000
1.5693828e+000
1.3402042e+000
1.1596532e+000
1.0459551e+000
1.0052509e+000
1.0307565e+000
1.1222428e+000
1.2965795e+000
1.5735831e+000
1.9688928e+000
2.4777279e+000
3.0600121e+000
3.6630383e+000
4.2274528e+000
4.7044301e+000
5.0684900e+000
5.3117170e+000
5.4497690e+000
5.5142374e+000
5.5554318e+000
5.6243320e+000
5.7633114e+000
6.0027246e+000
6.3534703e+000
6.8211460e+000
7.4086595e+000
8.1139059e+000
8.9253464e+000
9.8248558e+000
1.0786592e+001
1.1787714e+001
1.2815250e+001
1.3851531e+001
1.4864964e+001
1.5808594e+001
1.6612495e+001
1.7205172e+001
1.7524313e+001
1.7518759e+001
1.7152735e+001
1.6418280e+001
1.5362293e+001
1.4065251e+001
1.2645452e+001
1.1227340e+001
9.9222460e+000
8.8234854e+000
7.9941182e+000
7.4675083e+000
7.2304106e+000
7.2380495e+000
7.4030857e+000
7.6246438e+000
7.7958159e+000
7.8190999e+000
7.6230845e+000
7.1720357e+000
6.4950185e+000
5.6563435e+000
4.7606869e+000
3.9060764e+000
3.1535137e+000
2.5374091e+000
2.0536394e+000
1.6885000e+000
1.4276731e+000
1.2573199e+000
1.1649351e+000
1.1353602e+000
1.1465366e+000
1.1749263e+000
1.1974871e+000
1.1967397e+000
1.1684380e+000
1.1162200e+000
1.0534222e+000
9.9187469e-001
9.3424296e-001
8.7820280e-001
8.1532550e-001
7.3721761e-001
6.3921857e-001
5.1965117e-001
3.8126951e-001
2.2495329e-001
4.6358570e-002
-1.4590143e-001
-3.1110659e-001
-4.1296363e-001
-4.4535536e-001
-4.2140737e-001
-3.8214228e-001
-3.6685497e-001
-3.9265409e-001
-4.5475480e-001
-5.0927508e-001
-5.1514274e-001
-4.6216375e-001
-3.5728627e-001
-2.3060074e-001
-1.0822719e-001
7.5386316e-003
1.2072651e-001
2.3667023e-001
3.5897988e-001
4.8676708e-001
6.2437141e-001
7.9205477e-001
1.0117198e+000
1.2989850e+000
1.6609902e+000
2.0855222e+000
2.5471432e+000
2.9964981e+000
3.3745234e+000
3.6141012e+000
3.6697299e+000
3.5605013e+000
3.3341599e+000
3.0731509e+000
2.8539152e+000
2.7128301e+000
2.6653521e+000
2.6964977e+000
2.7776663e+000
2.8634908e+000
2.9087999e+000
2.8810890e+000
2.7659230e+000
2.5916049e+000
2.4007702e+000
2.2460177e+000
2.1692040e+000
2.1741667e+000
2.2510955e+000
2.3783505e+000
2.5341299e+000
2.7049584e+000
2.8684714e+000
2.9729414e+000
2.9665544e+000
2.8211207e+000
2.5346818e+000
2.1655540e+000
1.7781806e+000
1.4093031e+000
1.0782294e+000
7.7328813e-001
4.8236006e-001
2.1640196e-001
-8.1433505e-003
-1.7597714e-001
-2.8300592e-001
-3.5911337e-001
-4.4193321e-001
-5.6654370e-001
-7.5326717e-001
-9.7769058e-001
-1.2050446e+000
-1.4031982e+000
-1.5507548e+000
-1.6592615e+000
-1.7398332e+000
-1.7760397e+000
-1.7455161e+000
-1.6289628e+000
-1.4250656e+000
-1.1883810e+000
-9.8236465e-001
-8.5147387e-001
-8.1508511e-001
-8.2338202e-001
-8.1984764e-001
-7.8376734e-001
-7.1320611e-001
-6.3991314e-001
-5.8946240e-001
-5.3743660e-001
-4.5420280e-001
-3.3539638e-001
-1.9100501e-001
-5.8792893e-002
4.0097609e-002
1.6743617e-001
3.7470293e-001
6.0246360e-001
7.7117062e-001
8.2880878e-001
7.5846297e-001
6.4660138e-001
5.9427440e-001
6.6093045e-001
8.7130922e-001
1.1592538e+000
1.4404914e+000
1.6477169e+000
1.7294772e+000
1.6773345e+000
1.5003417e+000
1.2326101e+000
9.1397053e-001
5.8337259e-001
2.8078520e-001
5.1557414e-002
-5.4054145e-002
2.8393269e-002
3.6689001e-001
