Image.
>Pix99999.
  .
5555
5555
2300
900
5555
2
1
0
701
5555
2.2816001e-002
2.3290321e-002
2.3765640e-002
2.4239965e-002
2.4714286e-002
2.5189601e-002
2.5663929e-002
2.6138250e-002
2.6613560e-002
2.7087891e-002
2.7562214e-002
2.8037520e-002
2.8511856e-002
2.8986178e-002
2.9461481e-002
2.9935820e-002
3.0410143e-002
3.0885441e-002
3.1359784e-002
3.1834107e-002
3.2309398e-002
3.2783750e-002
3.3258073e-002
3.3733360e-002
3.4207713e-002
3.4682035e-002
1.2888201e-003
9.6383216e-003
1.6336039e-002
3.1921763e-002
4.8843943e-002
5.5774588e-002
6.1907001e-002
6.6328116e-002
6.9446273e-002
6.2860444e-002
4.9809370e-002
9.4986996e-003
-3.4567449e-002
-8.5600711e-002
-1.2636343e-001
-1.4382641e-001
-1.4502381e-001
-1.2191360e-001
-9.8786674e-002
-7.7493310e-002
-8.0922887e-002
-1.0807031e-001
-1.5365605e-001
-2.1186091e-001
-2.5125787e-001
-2.7931806e-001
-2.7460784e-001
-2.5584310e-001
-2.3600359e-001
-2.1612436e-001
-2.2418320e-001
-2.3866996e-001
-2.7087024e-001
-3.0550021e-001
-3.2664257e-001
-3.4427938e-001
-3.3629382e-001
-3.2379478e-001
-2.9939967e-001
-2.7422723e-001
-2.5046986e-001
-2.3266821e-001
-2.2980115e-001
-2.4199253e-001
-2.7988899e-001
-3.3083746e-001
-3.9685762e-001
-4.5736581e-001
-5.0986141e-001
-5.3428537e-001
-5.3461671e-001
-5.1061702e-001
-4.7142628e-001
-4.3707198e-001
-4.0618598e-001
-3.8755101e-001
-3.7394276e-001
-3.7527347e-001
-3.8123038e-001
-4.1726464e-001
-4.6021679e-001
-5.1099086e-001
-5.6122422e-001
-5.7882351e-001
-5.8834773e-001
-5.7245797e-001
-5.5477077e-001
-5.4549950e-001
-5.3893268e-001
-5.3683543e-001
-5.3051370e-001
-5.1341403e-001
-4.9961421e-001
-4.9401230e-001
-5.0631571e-001
-5.4044807e-001
-5.8923769e-001
-6.4990944e-001
-7.0963228e-001
-7.6719749e-001
-8.1718481e-001
-8.6236948e-001
-9.0777993e-001
-9.5360649e-001
-9.9354714e-001
-1.0309949e+000
-1.0401760e+000
-1.0402968e+000
-1.0093931e+000
-9.7106624e-001
-9.3314064e-001
-8.9694548e-001
-8.7785327e-001
-8.6583757e-001
-8.7417769e-001
-8.9232177e-001
-9.3107665e-001
-9.7293919e-001
-1.0122215e+000
-1.0425929e+000
-1.0565561e+000
-1.0575995e+000
-1.0439988e+000
-1.0281117e+000
-1.0129857e+000
-1.0092245e+000
-1.0163028e+000
-1.0157320e+000
-1.0074377e+000
-9.8139381e-001
-9.4465446e-001
-9.1479069e-001
-8.8930070e-001
-8.9705861e-001
-9.1863203e-001
-9.7712755e-001
-1.0476997e+000
-1.1008717e+000
-1.1458280e+000
-1.1359507e+000
-1.1097897e+000
-1.0677019e+000
-1.0251166e+000
-9.9692839e-001
-9.7592074e-001
-9.6526730e-001
-9.6406800e-001
-9.7885615e-001
-1.0003830e+000
-1.0275671e+000
-1.0463344e+000
-1.0515290e+000
-1.0521548e+000
-1.0508089e+000
-1.0513257e+000
-1.0537560e+000
-1.0391823e+000
-1.0110488e+000
-9.7631902e-001
-9.3899763e-001
-9.3491125e-001
-9.4875276e-001
-9.8046643e-001
-1.0190263e+000
-1.0553786e+000
-1.0908278e+000
-1.1286154e+000
-1.1653534e+000
-1.1818142e+000
-1.1903750e+000
-1.1911274e+000
-1.1974243e+000
-1.2342266e+000
-1.2826189e+000
-1.3373942e+000
-1.3757998e+000
-1.3768480e+000
-1.3464558e+000
-1.2822726e+000
-1.1989664e+000
-1.1024979e+000
-1.0067695e+000
-9.1597545e-001
-8.6060947e-001
-8.3680725e-001
-8.4530950e-001
-8.7306273e-001
-9.0628225e-001
-9.4044119e-001
-9.8121673e-001
-1.0256252e+000
-1.0382000e+000
-1.0358334e+000
-9.7315532e-001
-8.8725859e-001
-8.0517530e-001
-7.3431295e-001
-7.2996521e-001
-7.6463836e-001
-8.5857123e-001
-9.7418356e-001
-1.0889112e+000
-1.1845108e+000
-1.2356410e+000
-1.2429399e+000
-1.1966517e+000
-1.1098863e+000
-9.8823005e-001
-8.8987106e-001
-8.3552021e-001
-8.5315591e-001
-9.3461913e-001
-1.0234282e+000
-1.1035346e+000
-1.1506971e+000
-1.1733488e+000
-1.1605629e+000
-1.1266508e+000
-1.0542120e+000
-9.6045536e-001
-8.9570642e-001
-8.4906822e-001
-8.8028145e-001
-9.4669729e-001
-9.9734658e-001
-1.0267420e+000
-9.7919661e-001
-8.9166695e-001
-7.8518265e-001
-6.9704837e-001
-6.8306249e-001
-7.2333932e-001
-8.1376880e-001
-9.1143000e-001
-9.8637938e-001
-1.0248060e+000
-1.0217463e+000
-9.9183363e-001
-9.4641435e-001
-8.8060248e-001
-7.9841369e-001
-6.9504696e-001
-5.7569569e-001
-4.6099105e-001
-3.5268858e-001
-2.7180895e-001
-2.1034761e-001
-1.9118343e-001
-1.9813800e-001
-2.0094416e-001
-1.9776766e-001
-1.5261638e-001
-7.9703882e-002
2.5595166e-002
1.5254030e-001
2.9847294e-001
4.3002883e-001
4.8289850e-001
4.5942059e-001
3.4095165e-001
2.0188040e-001
1.0996564e-001
3.1622853e-002
-5.5826813e-002
-1.0876071e-001
-1.0800381e-001
-2.5199313e-002
1.3575161e-001
3.0926457e-001
4.6991464e-001
5.1511288e-001
4.5219266e-001
3.7338212e-001
3.0063918e-001
3.2393402e-001
4.2129037e-001
4.4906232e-001
4.1735879e-001
2.5418296e-001
1.5302323e-002
-1.2673132e-001
-1.6378570e-001
2.8167203e-002
4.1195357e-001
9.9477410e-001
1.6548630e+000
2.2055075e+000
2.7029262e+000
3.2154222e+000
3.9188116e+000
4.9734325e+000
6.6028891e+000
8.9077635e+000
1.2001689e+001
1.5819858e+001
1.9670731e+001
2.3241314e+001
2.6485859e+001
2.9463188e+001
3.3028900e+001
3.7255245e+001
4.2288403e+001
4.7950760e+001
5.2933922e+001
5.7276958e+001
6.1526558e+001
6.5787079e+001
7.0716545e+001
7.6099693e+001
8.1166946e+001
8.5865295e+001
8.9939087e+001
9.3444244e+001
9.6461365e+001
9.8944771e+001
1.0083059e+002
1.0202060e+002
1.0244077e+002
1.0184303e+002
1.0009643e+002
9.7591827e+001
9.4722702e+001
9.1574287e+001
8.8238350e+001
8.4300125e+001
7.9659935e+001
7.4800934e+001
6.9919151e+001
6.5310822e+001
6.1007671e+001
5.6724197e+001
5.2412773e+001
4.8294422e+001
4.4375072e+001
4.0697941e+001
3.7278519e+001
3.4221504e+001
3.1551550e+001
2.9312189e+001
2.7487980e+001
2.5952917e+001
2.4708498e+001
2.3705587e+001
2.2948036e+001
2.2403999e+001
2.2062881e+001
2.1880280e+001
2.1833479e+001
2.1882463e+001
2.2030544e+001
2.2270618e+001
2.2613390e+001
2.3055559e+001
2.3641949e+001
2.4383314e+001
2.5273676e+001
2.6303379e+001
2.7379089e+001
2.8478439e+001
2.9592306e+001
3.0724943e+001
3.2103073e+001
3.3830570e+001
3.6514511e+001
4.0201088e+001
4.4159111e+001
4.8152420e+001
5.1182785e+001
5.3292961e+001
5.5059750e+001
5.6484379e+001
5.7689728e+001
5.8507401e+001
5.8737095e+001
5.8353146e+001
5.7428028e+001
5.6165253e+001
5.4818794e+001
5.3392437e+001
5.1891052e+001
5.0197613e+001
4.8237934e+001
4.5965744e+001
4.3338207e+001
4.0751202e+001
3.8338104e+001
3.6121998e+001
3.4140205e+001
3.1726883e+001
2.8724579e+001
2.5602188e+001
2.2403053e+001
1.9711468e+001
1.7593140e+001
1.5554572e+001
1.3587830e+001
1.1585820e+001
9.5480814e+000
7.4963121e+000
5.4890156e+000
3.6405940e+000
2.0710397e+000
9.1856104e-001
2.2889659e-001
5.1997878e-002
4.5969334e-001
1.3781972e+000
2.4428201e+000
3.4208353e+000
4.2016344e+000
4.6892591e+000
5.0993891e+000
5.5131302e+000
5.9515347e+000
6.4273000e+000
6.7749915e+000
6.9114103e+000
6.8981428e+000
6.6740413e+000
6.4074216e+000
6.0869737e+000
5.7786689e+000
5.4849439e+000
5.1882215e+000
4.8660498e+000
4.4526110e+000
3.9453018e+000
3.4086175e+000
2.8887682e+000
2.4905207e+000
2.2361588e+000
2.1327169e+000
2.1574893e+000
2.2681828e+000
2.4170344e+000
2.5537739e+000
2.6852622e+000
2.8196378e+000
2.9864616e+000
3.2174513e+000
3.5129211e+000
3.9019618e+000
4.3477240e+000
4.8715730e+000
5.3888359e+000
5.8769517e+000
6.2691469e+000
6.4887133e+000
6.5762005e+000
6.4531698e+000
6.2066092e+000
5.7970905e+000
5.3520088e+000
4.8775105e+000
4.4372568e+000
4.0366426e+000
3.6550200e+000
3.2895601e+000
2.9264171e+000
2.5510778e+000
2.1403558e+000
1.6937948e+000
1.2055950e+000
7.3823071e-001
3.7000972e-001
1.1079901e-001
2.5434056e-002
3.4993671e-002
1.5327142e-001
3.1843966e-001
5.3875041e-001
7.9126817e-001
1.1008852e+000
1.4022946e+000
1.6773543e+000
1.8942277e+000
2.0056703e+000
2.1101711e+000
2.2136097e+000
2.3690994e+000
2.6056027e+000
2.8942435e+000
3.2478788e+000
3.6236479e+000
4.0103002e+000
4.3596740e+000
4.6530313e+000
4.8630400e+000
4.9981036e+000
5.0754299e+000
5.1161141e+000
5.1409650e+000
5.1553984e+000
5.1585712e+000
5.1519575e+000
5.1275830e+000
5.0958595e+000
5.0546393e+000
5.0147476e+000
4.9816184e+000
4.9528894e+000
4.9340615e+000
4.9146771e+000
4.8943429e+000
4.8757825e+000
4.8631639e+000
4.8646727e+000
4.8939204e+000
4.9500861e+000
5.0467205e+000
5.1678290e+000
5.3175473e+000
5.4749479e+000
5.6372113e+000
5.7904458e+000
5.9322128e+000
6.0576696e+000
6.1702738e+000
6.2732906e+000
6.3676500e+000
6.4479923e+000
6.5109010e+000
6.5330534e+000
6.5242958e+000
6.4514060e+000
6.3428493e+000
6.1569877e+000
5.9337387e+000
5.6138015e+000
5.2607150e+000
4.8194742e+000
4.3610511e+000
3.8633800e+000
3.3688381e+000
2.8846858e+000
2.4292126e+000
2.0273602e+000
1.6710198e+000
1.3797383e+000
1.1165097e+000
8.8495636e-001
6.6071612e-001
4.4760236e-001
2.5531483e-001
8.7544508e-002
-3.8727954e-002
-1.3153520e-001
-1.8249440e-001
-2.0765011e-001
-2.0200577e-001
-1.7816988e-001
-1.2100659e-001
-3.8640358e-002
1.1574893e-001
2.9952800e-001
5.6258309e-001
8.3073884e-001
1.0993750e+000
1.3441114e+000
1.5132192e+000
1.6471139e+000
1.6926199e+000
1.7063617e+000
1.6546876e+000
1.5737329e+000
1.4420569e+000
1.2797909e+000
1.0758393e+000
8.5479802e-001
6.2009108e-001
4.0688723e-001
2.2250840e-001
9.8637089e-002
2.2417532e-002
-1.2059459e-002
-2.1817038e-002
1.1654366e-002
6.8402246e-002
1.6066778e-001
2.6166564e-001
3.5768703e-001
4.4794446e-001
5.1241201e-001
5.7434553e-001
6.3546401e-001
6.9949478e-001
7.7521229e-001
8.4547728e-001
8.9746094e-001
9.3731648e-001
9.4859153e-001
9.6651113e-001
9.9783117e-001
1.0352237e+000
1.0791285e+000
1.1033566e+000
1.1037140e+000
1.1037308e+000
1.1049182e+000
1.1181129e+000
1.1360242e+000
1.1238408e+000
1.0883926e+000
1.0127268e+000
9.1835916e-001
8.1786495e-001
7.1466035e-001
6.0663682e-001
4.9389955e-001
3.5501009e-001
2.1684520e-001
1.0920209e-001
1.7651377e-002
1.9857008e-002
2.4784572e-002
4.0154435e-002
3.7658099e-002
-2.1466520e-002
-8.4845699e-002
-1.5683644e-001
-2.1267769e-001
-2.3826437e-001
-2.5620821e-001
-2.6506937e-001
-2.9203498e-001
-3.4134990e-001
-4.1115981e-001
-5.0001532e-001
-5.9974498e-001
-7.0949495e-001
-8.4625030e-001
-9.9712586e-001
-1.1484451e+000
-1.2933793e+000
-1.3669801e+000
-1.4159223e+000
-1.4033943e+000
-1.3821127e+000
-1.3799599e+000
-1.3814486e+000
-1.4060512e+000
-1.4259325e+000
-1.4117039e+000
-1.3946071e+000
-1.3649715e+000
-1.3424510e+000
-1.3417726e+000
-1.3414470e+000
-1.3412458e+000
-1.3265221e+000
-1.2852663e+000
-1.2242249e+000
-1.1370720e+000
-1.0536360e+000
-9.7565174e-001
-9.2415237e-001
-8.9408529e-001
-8.7048554e-001
-8.4960949e-001
-8.0714595e-001
-7.5369585e-001
-6.7550397e-001
-5.9011364e-001
-5.2022970e-001
-4.5545512e-001
-4.2991704e-001
-4.0734518e-001
-3.4211266e-001
-2.6757988e-001
-8.8039286e-002
2.9291660e-003
9.1013655e-002
2.6042724e-001
4.2462099e-001
5.7818425e-001
7.0025790e-001
8.0711830e-001
8.8126540e-001
9.4098002e-001
9.7731262e-001
9.9658179e-001
9.9482369e-001
9.7428840e-001
9.3605942e-001
8.8056159e-001
8.1274062e-001
7.3506260e-001
6.5272892e-001
6.1482209e-001
5.9488416e-001
6.8510240e-001
8.0470079e-001
1.0053114e+000
1.2189782e+000
1.4134001e+000
