##TITLE=Methyl Ethyl Ketone
##JCAMP-DX=4.24
##DATA TYPE=INFRARED SPECTRUM
##XUNITS=cm-1
##YUNITS=Absorbance
##FIRSTX=900
##LASTX=2300
##XYDATA=(X++(Y..Y))
2296 -0.096488997
2294 -0.098539062
2292 -0.10059412
2290 -0.10264122
2288 -0.10468829
2286 -0.10673536
2284 -0.10879234
2282 -0.1108395
2280 -0.11288657
2278 -0.11493364
2276 -0.11699057
2274 -0.11904763
2272 -0.12108503
2270 -0.12312211
2268 -0.1251886
2266 -0.12731436
2264 -0.12929474
2262 -0.13107677
2260 -0.13338034
2258 -0.13642667
2256 -0.13752028
2254 -0.1358719
2252 -0.14146678
2250 -0.15726936
2248 -0.14617281
2246 -0.078949466
2244 -0.0028405001
2242 0.021422552
2240 -0.034839921
2238 -0.1793378
2236 -0.37241
2234 -0.56230837
2232 -0.70239234
2230 -0.7538178
2228 -0.70273197
2226 -0.55714899
2224 -0.38424656
2222 -0.25829837
2220 -0.21243775
2218 -0.25462753
2216 -0.34090969
2214 -0.41941142
2212 -0.468301
2210 -0.48096624
2208 -0.4751156
2206 -0.47415599
2204 -0.49539369
2202 -0.54990429
2200 -0.63152224
2198 -0.72679037
2196 -0.81423211
2194 -0.87435335
2192 -0.90556532
2190 -0.91273963
2188 -0.90404141
2186 -0.88599402
2184 -0.85456479
2182 -0.80383605
2180 -0.73409516
2178 -0.64984065
2176 -0.5643031
2174 -0.49431974
2172 -0.46011308
2170 -0.476935
2168 -0.5354104
2166 -0.61585766
2164 -0.68998039
2162 -0.73300815
2160 -0.74568707
2158 -0.73586792
2156 -0.70507997
2154 -0.65271002
2152 -0.57904094
2150 -0.48750758
2148 -0.39284757
2146 -0.31174749
2144 -0.25301474
2142 -0.2220957
2140 -0.2223888
2138 -0.25395757
2136 -0.305722
2134 -0.36217049
2132 -0.40578586
2130 -0.42202637
2128 -0.4111068
2126 -0.3783437
2124 -0.32811403
2122 -0.2658357
2120 -0.20336331
2118 -0.15302932
2116 -0.11913729
2114 -0.1010256
2112 -0.089944623
2110 -0.075636819
2108 -0.053657599
2106 -0.019618029
2104 0.040152229
2102 0.13862363
2100 0.27092299
2098 0.421128
2096 0.55650425
2094 0.64420092
2092 0.67678833
2090 0.66044724
2088 0.6158179
2086 0.5658325
2084 0.52112108
2082 0.4854584
2080 0.45527142
2078 0.426489
2076 0.40426102
2074 0.39883801
2072 0.4257316
2070 0.49694234
2068 0.60155994
2066 0.71507913
2064 0.79565883
2062 0.80237484
2060 0.72636491
2058 0.58011466
2056 0.40857658
2054 0.26659524
2052 0.19618034
2050 0.22176199
2048 0.31914485
2046 0.44266999
2044 0.54205561
2042 0.57708865
2040 0.55405623
2038 0.49848613
2036 0.43215659
2034 0.37136132
2032 0.32058924
2030 0.28014448
2028 0.25393176
2026 0.24843493
2024 0.27325577
2022 0.33730507
2020 0.44117942
2018 0.57424194
2016 0.69433403
2014 0.75450975
2012 0.74719769
2010 0.68806368
2008 0.61181712
2006 0.55377781
2004 0.51952827
2002 0.5027408
2000 0.50700712
1998 0.53829402
1996 0.58936787
1994 0.64443827
1992 0.67927986
1990 0.67302775
1988 0.63446242
1986 0.58614194
1984 0.54798669
1982 0.53159285
1980 0.52242792
1978 0.49771935
1976 0.45302942
1974 0.39930448
1972 0.3716175
1970 0.4060632
1968 0.49527308
1966 0.60671294
1964 0.69552565
1962 0.72308052
1960 0.69726843
1958 0.64685678
1956 0.58849889
1954 0.52963448
1952 0.47191104
1950 0.41730642
1948 0.37939569
1946 0.37196252
1944 0.38307673
1942 0.38969615
1940 0.38030475
1938 0.35370201
1936 0.32262513
1934 0.30024111
1932 0.27224559
1930 0.21599299
1928 0.13811834
1926 0.069819555
1924 0.075868964
1922 0.21579897
1920 0.45379588
1918 0.70217639
1916 0.87823242
1914 0.9254998
1912 0.8707245
1910 0.77608579
1908 0.66151547
1906 0.52264011
1904 0.36802801
1902 0.22218275
1900 0.13741364
1898 0.16551866
1896 0.29139429
1894 0.45647264
1892 0.58332223
1890 0.59959632
1888 0.4869355
1886 0.26627529
1884 -0.0077169016
1882 -0.26987338
1880 -0.48155493
1878 -0.62191415
1876 -0.67357701
1874 -0.62065971
1872 -0.45193937
1870 -0.17482314
1868 0.13299699
1866 0.35982987
1864 0.42737201
1862 0.3017056
1860 0.038764298
1858 -0.26164386
1856 -0.53490227
1854 -0.74786866
1852 -0.88887936
1850 -0.95956099
1848 -0.97439241
1846 -0.95739782
1844 -0.9446007
1842 -0.97132921
1840 -1.0398432
1838 -1.12743
1836 -1.1960758
1834 -1.2017
1832 -1.1061801
1830 -0.88892305
1828 -0.58710152
1826 -0.27810979
1824 -0.056860011
1822 -0.0062324172
1820 -0.12264299
1818 -0.34201396
1816 -0.58369541
1814 -0.77321488
1812 -0.88353819
1810 -0.91992384
1808 -0.89046675
1806 -0.80467498
1804 -0.68667698
1802 -0.57026005
1800 -0.4878296
1798 -0.46003214
1796 -0.46376285
1794 -0.45444536
1792 -0.4230592
1790 -0.38621625
1788 -0.35088921
1786 -0.31089792
1784 -0.24588892
1782 -0.13089362
1780 0.041196503
1778 0.26476851
1776 0.53767574
1774 0.84843159
1772 1.1237119
1770 1.2562919
1768 1.1861863
1766 0.91618049
1764 0.55787802
1762 0.26682907
1760 0.066513769
1758 -0.10582281
1756 -0.22791128
1754 -0.20955467
1752 0.0037242845
1750 0.4066233
1748 0.88542259
1746 1.2629356
1744 1.4134504
1742 1.2927518
1740 1.0092489
1738 0.7587117
1736 0.64599198
1734 0.669168
1732 0.71745485
1730 0.6344834
1728 0.3791835
1726 0.026423141
1724 -0.26464576
1722 -0.292907
1720 0.10388058
1718 0.99688923
1716 2.2059286
1714 3.3894773
1712 4.3387775
1710 5.0241451
1708 5.6346045
1706 6.5030351
1704 7.9240546
1702 10.1022
1700 13.07042
1698 16.674345
1696 20.481857
1694 23.933849
1692 26.835203
1690 29.381067
1688 32.062206
1686 35.494297
1684 39.98703
1682 45.447235
1680 51.21632
1678 56.378838
1676 60.803986
1674 65.061798
1672 69.608208
1670 74.583801
1668 79.641151
1666 84.124901
1664 87.704132
1662 90.411224
1660 92.402084
1658 93.868698
1656 94.950768
1654 95.715019
1652 96.129898
1650 96.08828
1648 95.479797
1646 94.249573
1644 92.565857
1642 90.749992
1640 88.919792
1638 86.95649
1636 84.632385
1634 81.708572
1632 78.17765
1630 74.239769
1628 70.034645
1626 65.600067
1624 60.93528
1622 56.044106
1620 51.050804
1618 46.182201
1616 41.612083
1614 37.437984
1612 33.733925
1610 30.55229
1608 27.879068
1606 25.641893
1604 23.767206
1602 22.200888
1600 20.930799
1598 19.977871
1596 19.349998
1594 19.031242
1592 18.979309
1590 19.132963
1588 19.449749
1586 19.912678
1584 20.520628
1582 21.293341
1580 22.311026
1578 23.710478
1576 25.619514
1574 28.110937
1572 31.085726
1570 34.282349
1568 37.451439
1566 40.415527
1564 43.114212
1562 45.625927
1560 48.185932
1558 51.072369
1556 54.083145
1554 56.546131
1552 58.045765
1550 58.599041
1548 58.521255
1546 58.298073
1544 58.119984
1542 57.791977
1540 56.980522
1538 55.354446
1536 52.940804
1534 50.158039
1532 47.406052
1530 44.938446
1528 42.818649
1526 40.924999
1524 39.100422
1522 37.20266
1520 35.144367
1518 32.915703
1516 30.606215
1514 28.376019
1512 26.259401
1510 24.12546
1508 21.832367
1506 19.300722
1504 16.64596
1502 14.173981
1500 12.072326
1498 10.324771
1496 8.8290567
1494 7.4435697
1492 6.0860629
1490 4.7574072
1488 3.4692857
1486 2.2340336
1484 1.1104243
1482 0.21252249
1480 -0.3482523
1478 -0.47384983
1476 -0.044321448
1474 1.0484065
1472 2.6847017
1470 4.4818888
1468 6.1365976
1466 7.5445023
1464 8.7693377
1462 10.020752
1460 11.447025
1458 13.042385
1456 14.5956
1454 15.708985
1452 16.162607
1450 16.035612
1448 15.510703
1446 14.809821
1444 14.084954
1442 13.37929
1440 12.700989
1438 12.038712
1436 11.352586
1434 10.582047
1432 9.7185049
1430 8.8347902
1428 8.0359726
1426 7.4358616
1424 7.0968947
1422 7.000339
1420 7.074852
1418 7.2063746
1416 7.3063025
1414 7.3444381
1412 7.3519773
1410 7.4213395
1408 7.6126161
1406 7.9168549
1404 8.290432
1402 8.6632338
1400 8.9693203
1398 9.1582642
1396 9.1870575
1394 9.0250473
1392 8.6791677
1390 8.2061853
1388 7.6676054
1386 7.112555
1384 6.5729346
1382 6.059824
1380 5.5853705
1378 5.1650796
1376 4.7835999
1374 4.379735
1372 3.894376
1370 3.2942188
1368 2.5941327
1366 1.8714644
1364 1.1987435
1362 0.61886632
1360 0.16164821
1358 -0.15420982
1356 -0.31794986
1354 -0.32686651
1352 -0.17668308
1350 0.13896617
1348 0.60799336
1346 1.1910717
1344 1.859592
1342 2.6043527
1340 3.3759246
1338 4.0538425
1336 4.5095057
1334 4.6401863
1332 4.4284859
1330 3.9855199
1328 3.4427342
1326 2.9132364
1324 2.4830353
1322 2.1947329
1320 2.0498781
1318 1.9967097
1316 1.96507
1314 1.8801185
1312 1.7064776
1310 1.4773275
1308 1.2413694
1306 1.043692
1304 0.90736759
1302 0.82021439
1300 0.77229178
1298 0.77243328
1296 0.8398543
1294 1.0030482
1292 1.2840137
1290 1.6872311
1288 2.198864
1286 2.7782621
1284 3.3706677
1282 3.9098825
1280 4.3461308
1278 4.6668763
1276 4.8865514
1274 5.0523343
1272 5.2117925
1270 5.3993669
1268 5.6401258
1266 5.9468751
1264 6.3260751
1262 6.7774076
1260 7.2962961
1258 7.8738451
1256 8.505703
1254 9.1976681
1252 9.9584837
1250 10.797077
1248 11.716394
1246 12.705
1244 13.73826
1242 14.769884
1240 15.745651
1238 16.601084
1236 17.271486
1234 17.689871
1232 17.792959
1230 17.527731
1228 16.877829
1226 15.893379
1224 14.656029
1222 13.275877
1220 11.868869
1218 10.541459
1216 9.3907681
1214 8.4902325
1212 7.887105
1210 7.5841656
1208 7.5481324
1206 7.6904721
1204 7.8987699
1202 8.0407763
1200 8.0023642
1198 7.7217317
1196 7.1809287
1194 6.430346
1192 5.54918
1190 4.641356
1188 3.8005757
1186 3.0845437
1184 2.5219548
1182 2.0982718
1180 1.79065
1178 1.5805964
1176 1.45318
1174 1.3976674
1172 1.4006366
1170 1.4406013
1168 1.4975429
1166 1.5598571
1164 1.6226875
1162 1.6913869
1160 1.769048
1158 1.8462824
1156 1.90414
1154 1.9087664
1152 1.8298
1150 1.6544366
1148 1.384014
1146 1.0452428
1144 0.68249714
1142 0.36530465
1140 0.14750099
1138 0.031193379
1136 -0.0055094203
1134 -0.010374158
1132 -0.022578841
1130 -0.044515975
1128 -0.055484176
1126 -0.0037328452
1124 0.14054693
1122 0.33657771
1120 0.53036839
1118 0.67946434
1116 0.76763827
1114 0.83377194
1112 0.90601122
1110 0.95351523
1108 0.93454689
1106 0.81972253
1104 0.62370229
1102 0.46211842
1100 0.45189482
1098 0.64772582
1096 1.05006
1094 1.5605974
1092 2.074708
1090 2.5343301
1088 2.9105058
1086 3.2202971
1084 3.4844964
1082 3.7044828
1080 3.8697698
1078 3.9526811
1076 3.9355001
1074 3.8378532
1072 3.6922634
1070 3.5393937
1068 3.4121406
1066 3.3156672
1064 3.254144
1062 3.2453847
1060 3.2963417
1058 3.375253
1056 3.4325571
1054 3.4003797
1052 3.2398372
1050 3.0068181
1048 2.7785773
1046 2.6260357
1044 2.5940468
1042 2.6579125
1040 2.7856967
1038 2.9715328
1036 3.2053502
1034 3.4453411
1032 3.6360543
1030 3.7053728
1028 3.6052499
1026 3.3700614
1024 3.0535097
1022 2.705775
1020 2.3646057
1018 2.0327351
1016 1.7096286
1014 1.4102559
1012 1.1486459
1010 0.92347944
1008 0.71995443
1006 0.4942255
1004 0.21342903
1002 -0.098675638
1000 -0.39974165
998 -0.633811
996 -0.76103503
994 -0.80307263
992 -0.79609382
990 -0.77403313
988 -0.76337075
986 -0.76810139
984 -0.7807194
982 -0.7744742
980 -0.71973723
978 -0.59406567
976 -0.39585745
974 -0.18622836
972 -0.034255564
970 0.017108675
968 -0.047820918
966 -0.174849
964 -0.29913387
962 -0.37870204
960 -0.38754687
958 -0.33510157
956 -0.24043271
954 -0.12573136
952 -0.014574878
950 0.067572407
948 0.10184322
946 0.094385326
944 0.056739576
942 -0.0018471628
940 -0.055091474
938 -0.014279082
936 0.19203284
934 0.51603019
932 0.87232614
930 1.1470723
928 1.2445806
926 1.1620834
924 0.94192946
922 0.70650649
920 0.59497797
918 0.73268628
916 1.1867986
914 1.8156381
912 2.4300361
910 2.8585331
908 3.0110054
906 3.0944073
904 3.3484604
902 3.8493505
900 4.5834785
898 5.3445635
896 5.8782001
