Image.
>Pix99999.
  .
5555
5555
2300
900
5555
2
1
0
701
5555
-1.8568000e-002
-1.8954447e-002
-1.9340893e-002
-1.9727342e-002
-2.0113789e-002
-2.0499242e-002
-2.0885682e-002
-2.1272130e-002
-2.1658577e-002
-2.2045026e-002
-2.2431472e-002
-2.2816934e-002
-2.3203366e-002
-2.3589812e-002
-2.3976261e-002
-2.4362708e-002
-2.4749154e-002
-2.5135601e-002
-2.5521073e-002
-2.5907496e-002
-2.6293943e-002
-2.6680389e-002
-2.7066836e-002
-2.7453283e-002
-2.7838767e-002
-2.8225180e-002
-1.0488771e-003
4.8399274e-003
1.4369044e-002
-1.4972204e-004
-1.8215915e-002
-1.9637285e-002
-1.8922657e-002
2.5975464e-003
2.4326004e-002
3.9940700e-002
5.0458316e-002
3.9217804e-002
2.6915474e-002
1.4995836e-002
1.7242599e-002
5.0392535e-002
9.3752302e-002
1.5078953e-001
1.9785218e-001
2.3143336e-001
2.5652343e-001
2.7423179e-001
2.9381368e-001
3.1514642e-001
3.3957642e-001
3.6573312e-001
3.9309788e-001
4.2095530e-001
4.4077963e-001
4.5797035e-001
4.7190478e-001
4.8512515e-001
5.1138479e-001
5.3951067e-001
5.6031281e-001
5.7821584e-001
5.7100117e-001
5.5949390e-001
5.3712493e-001
5.1546735e-001
5.0031900e-001
4.9782866e-001
5.2611387e-001
5.6958103e-001
6.3589299e-001
6.9170618e-001
7.2889018e-001
7.4175477e-001
7.2940677e-001
7.1315926e-001
6.9582671e-001
6.9675130e-001
7.1046412e-001
7.2675121e-001
7.4371141e-001
7.3424387e-001
7.1355665e-001
6.8657678e-001
6.5788442e-001
6.4906949e-001
6.4494419e-001
6.4463639e-001
6.4468622e-001
6.4043915e-001
6.3741481e-001
6.4786541e-001
6.6187453e-001
6.8284446e-001
7.0288515e-001
7.1711278e-001
7.3327929e-001
7.5568300e-001
7.7985239e-001
8.0547982e-001
8.2533145e-001
8.3743429e-001
8.4592265e-001
8.5185045e-001
8.5169941e-001
8.4668505e-001
8.2872283e-001
8.0260229e-001
7.6814651e-001
7.2995460e-001
7.0638168e-001
6.8910861e-001
7.0203519e-001
7.2454709e-001
7.5258714e-001
7.8163761e-001
7.9434574e-001
8.0397373e-001
8.1271535e-001
8.2005298e-001
8.2055575e-001
8.1141895e-001
7.7315080e-001
7.2697586e-001
6.7599791e-001
6.4056176e-001
6.3753319e-001
6.5363193e-001
6.8853819e-001
7.1687829e-001
7.3223501e-001
7.4224019e-001
7.4950773e-001
7.7643460e-001
8.1966043e-001
8.6737430e-001
9.1655284e-001
9.2884827e-001
9.2203343e-001
8.6747402e-001
7.9353803e-001
7.2546256e-001
6.5952653e-001
6.5868044e-001
6.7641956e-001
7.2016382e-001
7.6561487e-001
7.7815801e-001
7.7721840e-001
7.5637448e-001
7.3325431e-001
7.1981502e-001
7.0998722e-001
7.0075434e-001
6.8442142e-001
6.5260059e-001
6.0816652e-001
5.5136436e-001
5.0140822e-001
4.6353769e-001
4.6356285e-001
4.9691707e-001
5.5803317e-001
6.3571954e-001
6.8719471e-001
7.1999389e-001
7.0567763e-001
6.6734177e-001
6.2985998e-001
5.9385145e-001
5.8087456e-001
5.7588017e-001
5.7238680e-001
5.6821954e-001
5.6356078e-001
5.5812252e-001
5.4769468e-001
5.3709394e-001
5.2294159e-001
5.1176298e-001
5.0923544e-001
5.0596511e-001
4.9898401e-001
4.7824416e-001
4.4020560e-001
4.0853241e-001
3.9329377e-001
4.2055309e-001
4.8741114e-001
5.5878907e-001
6.2258929e-001
6.5202409e-001
6.5680176e-001
6.5233392e-001
6.4584470e-001
6.3909709e-001
6.3187921e-001
6.3129026e-001
6.3296008e-001
6.5152615e-001
6.7642999e-001
7.0401889e-001
7.2993052e-001
7.3328441e-001
7.1998191e-001
6.6750979e-001
5.9706736e-001
5.1529509e-001
4.3560052e-001
3.7259036e-001
3.2259500e-001
2.9095984e-001
2.8342092e-001
3.0596420e-001
3.4973586e-001
4.0235451e-001
4.2468131e-001
4.0698680e-001
3.5722232e-001
2.9012907e-001
2.2994401e-001
1.8061860e-001
1.4624055e-001
1.2282044e-001
1.1327040e-001
1.1364357e-001
1.3067757e-001
1.5789761e-001
1.8267766e-001
2.0436765e-001
2.2613528e-001
2.4925891e-001
2.9495794e-001
3.5216743e-001
4.0966517e-001
4.5485035e-001
4.5464984e-001
4.2223641e-001
3.6193320e-001
2.9637051e-001
2.4673600e-001
2.1146959e-001
1.9140568e-001
1.7839804e-001
1.6621423e-001
1.7074250e-001
1.9194967e-001
2.1622083e-001
2.4175599e-001
2.4891855e-001
2.4191000e-001
2.5287917e-001
2.7509761e-001
3.0556664e-001
3.3625293e-001
3.4182113e-001
3.3032343e-001
3.1306383e-001
2.9133824e-001
2.7236611e-001
2.5807858e-001
2.5868106e-001
2.6992542e-001
2.7615586e-001
2.6816919e-001
2.2354192e-001
1.5550080e-001
8.2600966e-002
2.0797947e-002
-8.2062393e-002
-1.8352857e-001
-2.3769443e-001
-2.3232257e-001
-1.7077380e-001
-1.0909463e-001
-6.8335071e-002
-9.8869041e-002
-1.9837725e-001
-2.9682523e-001
-3.8011619e-001
-3.6289600e-001
-2.6593244e-001
-1.5134135e-001
-3.5767026e-002
-2.1036724e-002
-7.6160014e-002
-1.1170467e-001
-1.1309670e-001
-2.8398111e-003
2.0237976e-001
5.7089782e-001
1.0487314e+000
1.5226938e+000
1.9923180e+000
2.4704039e+000
3.0836334e+000
3.9575958e+000
5.3414063e+000
7.3593974e+000
1.0254057e+001
1.4007857e+001
1.7901600e+001
2.1591484e+001
2.4884951e+001
2.7814720e+001
3.1238605e+001
3.5252724e+001
4.0190086e+001
4.5870560e+001
5.0999859e+001
5.5581669e+001
5.9911438e+001
6.4115051e+001
6.8856873e+001
7.3983765e+001
7.8966751e+001
8.3729568e+001
8.8001213e+001
9.1784042e+001
9.5055626e+001
9.7809914e+001
1.0005257e+002
1.0166280e+002
1.0253928e+002
1.0232954e+002
1.0078000e+002
9.8437233e+001
9.5826431e+001
9.2995384e+001
9.0014511e+001
8.6393311e+001
8.1998543e+001
7.7345825e+001
7.2644852e+001
6.8149673e+001
6.3897091e+001
5.9511478e+001
5.4955574e+001
5.0500809e+001
4.6174789e+001
4.2224228e+001
3.8664898e+001
3.5583836e+001
3.2972500e+001
3.0722641e+001
2.8820829e+001
2.7160004e+001
2.5774471e+001
2.4688965e+001
2.3902515e+001
2.3365000e+001
2.3036385e+001
2.2833885e+001
2.2736753e+001
2.2708979e+001
2.2764721e+001
2.2908457e+001
2.3142590e+001
2.3464443e+001
2.3913441e+001
2.4498571e+001
2.5249077e+001
2.6160851e+001
2.7168425e+001
2.8251720e+001
2.9340122e+001
3.0430040e+001
3.1683174e+001
3.3193859e+001
3.5606304e+001
3.9000927e+001
4.2829689e+001
4.6856194e+001
5.0001274e+001
5.2285339e+001
5.4211716e+001
5.5800377e+001
5.7209549e+001
5.8304901e+001
5.8895355e+001
5.8905228e+001
5.8336590e+001
5.7318939e+001
5.6066925e+001
5.4583755e+001
5.2883347e+001
5.0921833e+001
4.8661663e+001
4.6203697e+001
4.3565983e+001
4.1077557e+001
3.8864918e+001
3.6764561e+001
3.4775188e+001
3.2310043e+001
2.9218594e+001
2.6086063e+001
2.2957890e+001
2.0288958e+001
1.8127911e+001
1.5986857e+001
1.3864904e+001
1.1721754e+001
9.5728102e+000
7.4575677e+000
5.4444189e+000
3.6444960e+000
2.1454079e+000
1.0372472e+000
3.3725369e-001
6.3214131e-002
3.2403782e-001
1.0740156e+000
2.0434630e+000
3.0749207e+000
3.9890707e+000
4.6723356e+000
5.2401595e+000
5.7231555e+000
6.1744576e+000
6.5954599e+000
6.9314528e+000
7.1262288e+000
7.1980162e+000
7.0887518e+000
6.9174604e+000
6.6647983e+000
6.4055490e+000
6.1369781e+000
5.8438177e+000
5.5014472e+000
5.0438480e+000
4.4705949e+000
3.8616116e+000
3.2630799e+000
2.7965386e+000
2.4792936e+000
2.3125739e+000
2.2805011e+000
2.3413329e+000
2.4729428e+000
2.6530771e+000
2.8618200e+000
3.1053910e+000
3.3732448e+000
3.6725936e+000
3.9983630e+000
4.3533072e+000
4.7248001e+000
5.1149015e+000
5.4956713e+000
5.8492093e+000
6.1443915e+000
6.3221631e+000
6.3936071e+000
6.2908897e+000
6.0752344e+000
5.7053576e+000
5.2782407e+000
4.7889652e+000
4.2931657e+000
3.8090332e+000
3.3640981e+000
2.9657781e+000
2.6133938e+000
2.2683492e+000
1.8689245e+000
1.4248265e+000
9.4031024e-001
4.9472952e-001
1.8982175e-001
3.0562934e-003
-1.7260367e-002
3.5389304e-002
1.4417937e-001
2.7026609e-001
4.3542320e-001
6.1849999e-001
8.3347213e-001
1.0489975e+000
1.2587886e+000
1.4570024e+000
1.6219085e+000
1.7921109e+000
1.9737211e+000
2.1830378e+000
2.4412792e+000
2.7286057e+000
3.0577776e+000
3.4031677e+000
3.7620001e+000
4.1070180e+000
4.4215431e+000
4.6833258e+000
4.8864498e+000
5.0302243e+000
5.1254950e+000
5.1747060e+000
5.1879101e+000
5.1505399e+000
5.0842857e+000
4.9793758e+000
4.8721943e+000
4.7804246e+000
4.7066841e+000
4.6733985e+000
4.6491284e+000
4.6396117e+000
4.6358495e+000
4.6450467e+000
4.6656971e+000
4.7108059e+000
4.7634792e+000
4.8319893e+000
4.9120774e+000
5.0095901e+000
5.1228347e+000
5.2512274e+000
5.3773141e+000
5.4989424e+000
5.6123657e+000
5.7211256e+000
5.8361602e+000
5.9546614e+000
6.0723443e+000
6.1857748e+000
6.2833180e+000
6.3667860e+000
6.4214749e+000
6.4470263e+000
6.4032812e+000
6.3160667e+000
6.1303601e+000
5.9078007e+000
5.5980105e+000
5.2606459e+000
4.8501091e+000
4.4180765e+000
3.9355497e+000
3.4493880e+000
2.9578886e+000
2.4803455e+000
2.0313265e+000
1.6165572e+000
1.2585994e+000
9.6179056e-001
7.4054360e-001
5.6700474e-001
4.3598878e-001
3.0664054e-001
1.7842227e-001
4.9032964e-002
-7.2319612e-002
-1.5700230e-001
-2.1410038e-001
-2.2384930e-001
-2.0953800e-001
-1.6001830e-001
-8.4460519e-002
6.5456048e-002
2.5281799e-001
5.5125940e-001
8.5995603e-001
1.1805847e+000
1.4656274e+000
1.6379843e+000
1.7658966e+000
1.7832190e+000
1.7694212e+000
1.6925951e+000
1.5934143e+000
1.4580209e+000
1.3129365e+000
1.1543916e+000
9.8724806e-001
8.0823392e-001
6.1314839e-001
4.0761542e-001
2.1865998e-001
5.4623596e-002
-3.4526542e-002
-6.7360848e-002
-2.3632795e-003
1.0882817e-001
2.6653928e-001
4.3333948e-001
5.8181572e-001
7.2281384e-001
8.4115523e-001
9.5464259e-001
1.0531315e+000
1.1506306e+000
1.2460520e+000
1.3535254e+000
1.4988539e+000
1.6454400e+000
1.7894629e+000
1.8877480e+000
1.8924186e+000
1.8458798e+000
1.7225143e+000
1.6040752e+000
1.4977120e+000
1.4353732e+000
1.4193223e+000
1.4340707e+000
1.4718611e+000
1.5078766e+000
1.5382949e+000
1.5352601e+000
1.5108571e+000
1.4407802e+000
1.3536143e+000
1.2507513e+000
1.1463429e+000
1.0567434e+000
9.6980238e-001
8.8797629e-001
8.0628121e-001
7.2382390e-001
6.4665085e-001
5.9286457e-001
5.4518324e-001
5.1658762e-001
4.8346525e-001
4.3872964e-001
3.8619334e-001
3.1883287e-001
2.5003660e-001
1.7952555e-001
1.1497160e-001
5.7404332e-002
1.2258664e-003
-5.5128060e-002
-1.2866880e-001
-2.1469194e-001
-3.0983657e-001
-4.0863299e-001
-4.9474946e-001
-5.7446903e-001
-6.3622576e-001
-6.9083148e-001
-7.1995401e-001
-7.4354744e-001
-7.5396323e-001
-7.6488286e-001
-7.9511148e-001
-8.2711166e-001
-8.6993527e-001
-9.0660471e-001
-9.1550571e-001
-9.0930361e-001
-8.5623461e-001
-7.9305029e-001
-7.0786083e-001
-6.3742203e-001
-5.9387076e-001
-5.7922542e-001
-6.0322100e-001
-6.3556963e-001
-6.7578799e-001
-7.0109379e-001
-7.1290696e-001
-6.9414413e-001
-6.5436596e-001
-5.7191449e-001
-4.6989071e-001
-3.6272085e-001
-2.5646532e-001
-2.0051095e-001
-1.5721400e-001
-1.5378925e-001
-1.5464599e-001
-1.4170904e-001
-1.2356530e-001
-4.0043890e-002
1.8065497e-003
5.6216538e-002
1.6367248e-001
2.8027308e-001
3.8267773e-001
4.4348454e-001
4.9383309e-001
5.2162975e-001
5.3762734e-001
5.3439093e-001
5.0776160e-001
4.5317337e-001
4.1216987e-001
3.8398862e-001
3.7905157e-001
3.9009547e-001
3.8186508e-001
3.6415491e-001
3.6571434e-001
3.7586010e-001
4.3046302e-001
4.9736273e-001
5.5624539e-001
6.1403191e-001
6.5033001e-001
