##TITLE=Methyl Ethyl Ketone
##JCAMP-DX=4.24
##DATA TYPE=INFRARED SPECTRUM
##XUNITS=cm-1
##YUNITS=Absorbance
##FIRSTX=900
##LASTX=2300
##XYDATA=(X++(Y..Y))
2296 0.025900001
2294 0.026439229
2292 0.026977459
2290 0.027516687
2288 0.028054919
2286 0.028594142
2284 0.029132381
2282 0.0296716
2280 0.030210828
2278 0.03074907
2276 0.031288285
2274 0.03182653
2272 0.032365743
2270 0.032903992
2268 0.033443201
2266 0.03398243
2264 0.034520682
2262 0.035059888
2260 0.03559814
2258 0.036137342
2256 0.036675598
2254 0.037214797
2252 0.037754029
2250 0.038292289
2248 0.038831484
2246 0.039369751
2244 0.00146302
2242 0.011839993
2240 0.035833079
2238 0.11250851
2236 0.19674471
2234 0.23294073
2232 0.26231515
2230 0.21660744
2228 0.17049526
2226 0.1491175
2224 0.13135822
2222 0.12382001
2220 0.10165129
2218 0.032861851
2216 -0.02785283
2214 -0.065150425
2212 -0.080024078
2210 -0.060484201
2208 -0.074745119
2206 -0.13375756
2204 -0.21736917
2202 -0.32183418
2200 -0.39973855
2198 -0.45672309
2196 -0.50987142
2194 -0.56167674
2192 -0.63713729
2190 -0.72306252
2188 -0.81512344
2186 -0.90893036
2184 -0.93936598
2182 -0.95516694
2180 -0.86224526
2178 -0.75276423
2176 -0.608302
2174 -0.46673459
2172 -0.39437598
2170 -0.33616039
2168 -0.32178524
2166 -0.30735266
2164 -0.27747622
2162 -0.25779879
2160 -0.26812831
2158 -0.28214917
2156 -0.29721099
2154 -0.26104394
2152 -0.15055035
2150 -0.04498462
2148 0.046225261
2146 0.021247892
2144 -0.10518498
2142 -0.27459291
2140 -0.46669486
2138 -0.54808581
2136 -0.5678497
2134 -0.48642096
2132 -0.36455837
2130 -0.28062904
2128 -0.2098784
2126 -0.21838614
2124 -0.24526244
2122 -0.1914458
2120 -0.12064245
2118 0.026103366
2116 0.16839606
2114 0.19758339
2112 0.19944109
2110 0.15377158
2108 0.12085917
2106 0.1472715
2104 0.17094657
2102 0.16887619
2100 0.1373322
2098 0.062486932
2096 0.0067545683
2094 -0.016072009
2092 -0.020070486
2090 -0.0095739402
2088 -0.053473517
2086 -0.14317855
2084 -0.26737121
2082 -0.4098635
2080 -0.51863271
2078 -0.60887069
2076 -0.66267782
2074 -0.70246083
2072 -0.68099803
2070 -0.64051324
2068 -0.55437726
2066 -0.45979786
2064 -0.42995703
2062 -0.42152318
2060 -0.48989078
2058 -0.57484537
2056 -0.66737831
2054 -0.74902141
2052 -0.78973562
2050 -0.80091321
2048 -0.76090425
2046 -0.70683676
2044 -0.64702278
2042 -0.60331529
2040 -0.58204597
2038 -0.57102203
2036 -0.56292111
2034 -0.56025261
2032 -0.56302911
2030 -0.588121
2028 -0.63251394
2026 -0.67641747
2024 -0.71975249
2022 -0.71393198
2020 -0.68369269
2018 -0.65104955
2016 -0.61699796
2014 -0.66620761
2012 -0.7407037
2010 -0.83695233
2008 -0.93386024
2006 -0.977889
2004 -1.0039148
2002 -1.0069669
2000 -0.99917668
1998 -0.98204029
1996 -0.95478284
1994 -0.91192228
1992 -0.8776719
1990 -0.85978556
1988 -0.8688826
1986 -0.90253079
1984 -0.94829071
1982 -1.0032821
1980 -1.0629443
1978 -1.1320139
1976 -1.1648086
1974 -1.165696
1972 -1.050444
1970 -0.85411012
1968 -0.63915521
1966 -0.421296
1964 -0.39681616
1962 -0.47058341
1960 -0.64773399
1958 -0.86313993
1956 -1.0038164
1954 -1.1127102
1952 -1.1612022
1950 -1.1835572
1948 -1.1907543
1946 -1.198925
1944 -1.2280492
1942 -1.2754778
1940 -1.3180302
1938 -1.3524382
1936 -1.3582001
1934 -1.3577449
1932 -1.3783979
1930 -1.3988943
1928 -1.4263777
1926 -1.3777028
1924 -1.2374645
1922 -1.0203029
1920 -0.7368266
1918 -0.56031889
1916 -0.47834516
1914 -0.48950127
1912 -0.55701619
1910 -0.5927729
1908 -0.60607463
1906 -0.67976832
1904 -0.7856912
1902 -0.90412974
1900 -1.0218433
1898 -0.96042615
1896 -0.81639433
1894 -0.5498302
1892 -0.25473857
1890 -0.06531176
1888 0.0252588
1886 -0.10781736
1884 -0.35347182
1882 -0.68255943
1880 -1.0002135
1878 -1.2340242
1876 -1.35129
1874 -1.3350322
1872 -1.1761103
1870 -0.8852995
1868 -0.62076283
1866 -0.40691006
1864 -0.43626139
1862 -0.6768114
1860 -1.0233122
1858 -1.4280312
1856 -1.7536628
1854 -2.0217776
1852 -2.1116383
1850 -2.1023936
1848 -1.9076639
1846 -1.6285286
1844 -1.4152278
1842 -1.2591971
1840 -1.3038658
1838 -1.4297521
1836 -1.5299957
1834 -1.5663
1832 -1.4180349
1830 -1.1619709
1828 -0.78827876
1826 -0.46827686
1824 -0.36367175
1822 -0.46028191
1820 -0.80026758
1818 -1.1795367
1816 -1.4972686
1814 -1.6647255
1812 -1.663692
1810 -1.575379
1808 -1.4406811
1806 -1.31232
1804 -1.2017732
1802 -1.0817188
1800 -0.96251059
1798 -0.80161005
1796 -0.61154932
1794 -0.40965587
1792 -0.18483919
1790 -0.044659164
1788 0.062252268
1786 0.12481271
1784 0.17580971
1782 0.22326954
1780 0.29030004
1778 0.43605721
1776 0.65215433
1774 0.98344195
1772 1.2820005
1770 1.3741872
1768 1.2450571
1766 0.86357391
1764 0.45636299
1762 0.18057957
1760 0.054574326
1758 -0.0708808
1756 -0.11713728
1754 -0.013028823
1752 0.39372629
1750 1.085947
1748 1.815856
1746 2.5062394
1744 2.734623
1742 2.5679827
1740 2.3627436
1738 2.1831906
1736 2.3533599
1734 2.7656775
1732 2.8433983
1730 2.658287
1728 1.936456
1726 0.92664754
1724 0.18489754
1722 -0.2281711
1720 0.081284225
1718 0.97182083
1716 2.3895428
1714 3.8511264
1712 4.748704
1710 5.2917953
1708 5.638432
1706 6.21454
1704 7.3453999
1702 9.2430525
1700 11.994414
1698 15.283201
1696 18.943287
1694 22.273199
1692 25.016325
1690 27.573677
1688 30.058868
1686 33.320457
1684 37.380314
1682 41.907612
1680 46.767319
1678 50.782986
1676 54.065742
1674 57.454666
1672 60.997993
1670 65.268745
1668 70.050591
1666 74.710152
1664 79.221985
1662 83.376068
1660 87.214531
1658 90.74321
1656 94.034233
1654 97.168365
1652 99.983757
1650 102.33638
1648 103.32074
1646 102.33357
1644 99.996971
1642 96.903946
1640 93.638687
1638 90.509697
1636 87.062683
1634 83.166031
1632 78.968987
1630 74.585655
1628 70.362816
1626 66.329254
1624 62.236679
1622 58.046036
1620 53.922226
1618 49.872559
1616 45.870571
1614 41.949806
1612 38.262093
1610 34.877079
1608 31.976297
1606 29.542749
1604 27.454967
1602 25.711424
1600 24.256384
1598 23.096489
1596 22.186001
1594 21.483913
1592 20.914925
1590 20.449852
1588 20.054552
1586 19.817799
1584 19.775743
1582 20.030119
1580 20.596571
1578 21.538902
1576 22.866343
1574 24.378963
1572 26.037374
1570 27.522118
1568 28.77644
1566 29.918056
1564 30.959202
1562 32.308968
1560 34.07708
1558 36.846836
1556 40.527672
1554 43.996979
1552 47.098022
1550 49.229496
1548 50.604698
1546 52.040646
1544 53.570087
1542 55.262653
1540 56.53614
1538 56.72319
1536 55.804459
1534 53.928009
1532 51.828838
1530 50.116562
1528 48.815052
1526 47.927002
1524 47.12479
1522 46.250603
1520 44.829971
1518 42.711243
1516 40.376816
1514 37.943985
1512 35.770802
1510 33.874222
1508 31.56352
1506 28.667593
1504 25.596256
1502 22.439695
1500 19.792864
1498 17.73613
1496 15.807142
1494 13.998696
1492 12.239792
1490 10.479364
1488 8.631238
1486 6.6757464
1484 4.6120043
1482 2.6926365
1480 1.2137905
1478 0.29034567
1476 0.0030575457
1474 0.24981984
1472 1.0113446
1470 1.819558
1468 2.3382878
1466 2.7128963
1464 2.9181678
1462 3.2560205
1460 3.8660426
1458 4.6399479
1456 5.6240001
1454 6.325798
1452 6.6098561
1450 6.5886388
1448 6.1645098
1446 5.6791787
1444 5.1174092
1442 4.6399617
1440 4.2804818
1438 4.1027603
1436 4.073113
1434 4.0171514
1432 3.8512955
1430 3.4692788
1428 2.969568
1426 2.5432773
1424 2.2895663
1422 2.312505
1420 2.5284588
1418 2.8697765
1416 3.2036228
1414 3.4092231
1412 3.5967045
1410 3.7664206
1408 3.9933081
1406 4.3172708
1404 4.6832495
1402 5.1282783
1400 5.5877399
1398 6.0739794
1396 6.4686427
1394 6.7072225
1392 6.7748475
1390 6.6184621
1388 6.390862
1386 6.0713801
1384 5.7208157
1382 5.3358674
1380 4.9837298
1378 4.6704674
1376 4.4225345
1374 4.1919456
1372 3.9237719
1370 3.6147723
1368 3.2636738
1366 2.9131923
1364 2.5708001
1362 2.1999638
1360 1.7738612
1358 1.3165331
1356 0.85736191
1354 0.47104555
1352 0.20777893
1350 0.034994569
1348 -0.02121333
1346 -0.024358362
1344 0.11196932
1342 0.33566979
1340 0.70341122
1338 1.0447851
1336 1.3291228
1334 1.4524782
1332 1.3689388
1330 1.253611
1328 1.118356
1326 1.0804657
1324 1.1641371
1322 1.3787186
1320 1.7302942
1318 2.1587977
1316 2.6188302
1314 2.9718142
1312 3.2073784
1310 3.2773712
1308 3.2529976
1306 3.1991079
1304 3.1438148
1302 3.1175849
1300 3.0908289
1298 3.0505805
1296 2.9956143
1294 2.9349382
1292 2.8911884
1290 2.9074633
1288 2.948204
1286 3.0369308
1284 3.1253369
1282 3.2157969
1280 3.3092594
1278 3.4160247
1276 3.5468886
1274 3.7144239
1272 3.9053292
1270 4.1198444
1268 4.3213968
1266 4.5062075
1264 4.6637168
1262 4.800293
1260 4.9345021
1258 5.0739937
1256 5.2410002
1254 5.4460449
1252 5.711503
1250 6.0311503
1248 6.4059691
1246 6.8091497
1244 7.2295685
1242 7.6372018
1240 7.9902444
1238 8.2865849
1236 8.4431276
1234 8.5296698
1232 8.4676361
1230 8.3564548
1228 8.1312542
1226 7.8744988
1224 7.5330529
1222 7.1664948
1220 6.7424617
1218 6.3037891
1216 5.8372002
1214 5.3599238
1212 4.8649683
1210 4.3749352
1208 3.8986228
1206 3.4562764
1204 3.0544901
1202 2.6615658
1200 2.2725606
1198 1.8685334
1196 1.4511572
1194 1.027859
1192 0.60843474
1190 0.21928105
1188 -0.13112621
1186 -0.374686
1184 -0.56218791
1182 -0.66196406
1180 -0.72685796
1178 -0.73522204
1176 -0.707708
1174 -0.568712
1172 -0.40285876
1170 -0.15479752
1168 0.081926063
1166 0.28604186
1164 0.4558655
1162 0.5399372
1160 0.59560364
1158 0.5921967
1156 0.56983918
1154 0.51661891
1152 0.463723
1150 0.41359749
1148 0.38539359
1146 0.374475
1144 0.33344823
1142 0.26203156
1140 0.15388529
1138 0.036886569
1136 0.0011126742
1134 0.026379928
1132 0.17655875
1130 0.38301718
1128 0.6311934
1126 0.89666247
1124 1.1893826
1122 1.4830735
1120 1.757828
1118 2.0186229
1116 2.2151628
1114 2.4133067
1112 2.6209109
1110 2.8098242
1108 2.9364879
1106 3.0229001
1104 3.0160193
1102 3.0357177
1100 3.1106424
1098 3.2187405
1096 3.3789141
1094 3.5548916
1092 3.7593861
1090 4.029058
1088 4.3628206
1086 4.7045879
1084 5.0470104
1082 5.3553967
1080 5.6351128
1078 5.8626199
1076 6.0407429
1074 6.0372429
1072 5.965034
1070 5.8177042
1068 5.6810145
1066 5.7357898
1064 5.833632
1062 6.0649595
1060 6.2880869
1058 6.4168382
1056 6.5184598
1054 6.5017171
1052 6.476038
1050 6.4210482
1048 6.3687925
1046 6.3245249
1044 6.289793
1042 6.2774096
1040 6.293889
1038 6.3524976
1036 6.4058599
1034 6.4420733
1032 6.3739824
1030 6.2045746
1028 5.955471
1026 5.6590528
1024 5.4434738
1022 5.2724032
1020 5.1201015
1018 4.9537606
1016 4.5508628
1014 4.0653057
1012 3.3690491
1010 2.6449661
1008 2.0124121
1006 1.4126244
1004 1.1116353
1002 0.8396945
1000 0.74927616
998 0.64130092
996 0.45396572
994 0.22065261
992 -0.15285212
990 -0.52984995
988 -0.91017377
986 -1.2266099
984 -1.427696
982 -1.511214
980 -1.433748
978 -1.2531402
976 -0.96598542
974 -0.68372631
972 -0.40969864
970 -0.21791518
968 -0.078849256
966 0.030374147
964 0.12686998
962 0.24507309
960 0.36966991
958 0.45825565
956 0.53773683
954 0.56630254
952 0.58591485
950 0.5308131
948 0.46252596
946 0.24669512
944 0.047767125
942 -0.0028513446
940 -0.078595355
938 0.18257159
936 0.48323801
934 0.89802343
932 1.2995094
930 1.6735207
928 2.0827377
926 2.5470805
924 2.9930701
922 3.4132218
920 3.686259
918 3.8213098
916 3.8077159
914 3.6906822
912 3.6274703
910 3.5932281
908 3.886652
906 4.3022046
904 4.9602075
902 5.6778378
900 6.36234
898 7.0401659
896 7.6452999
