Image.
>Pix99999.
  .
5555
5555
2300
900
5555
2
1
0
701
5555
2.8599000e-002
2.9193150e-002
2.9788297e-002
3.0383447e-002
3.0978596e-002
3.1573743e-002
3.2167900e-002
3.2763038e-002
3.3358190e-002
3.3953339e-002
3.4548484e-002
3.5142649e-002
3.5737783e-002
3.6332931e-002
3.6928080e-002
3.7523229e-002
3.8117398e-002
3.8712528e-002
3.9307673e-002
3.9902821e-002
4.0497970e-002
4.1092150e-002
4.1687269e-002
4.2282417e-002
4.2877566e-002
4.3472715e-002
1.6154915e-003
1.8211380e-002
7.4421361e-002
2.1576133e-001
3.6945713e-001
5.1235485e-001
6.5167832e-001
7.2899973e-001
7.9717863e-001
8.1614548e-001
8.2473880e-001
7.9742765e-001
7.6859617e-001
7.4105269e-001
7.1698570e-001
7.0035005e-001
6.6893458e-001
6.1266547e-001
5.4781145e-001
4.7416708e-001
4.4969526e-001
4.7316131e-001
5.6096745e-001
6.9450539e-001
8.0587000e-001
9.0271497e-001
9.3788874e-001
9.4644433e-001
9.6684754e-001
9.9166548e-001
1.0356472e+000
1.0839427e+000
1.1103700e+000
1.1335529e+000
1.1652143e+000
1.1974852e+000
1.2280986e+000
1.2527310e+000
1.2446332e+000
1.2320794e+000
1.2145972e+000
1.2052135e+000
1.2176720e+000
1.2455119e+000
1.2981700e+000
1.3621970e+000
1.4389566e+000
1.5113124e+000
1.5771968e+000
1.6322250e+000
1.6783817e+000
1.7148950e+000
1.7453682e+000
1.7640476e+000
1.7765400e+000
1.7758662e+000
1.7698613e+000
1.7430978e+000
1.7099440e+000
1.6894706e+000
1.6721131e+000
1.7277970e+000
1.7963257e+000
1.8860884e+000
1.9703157e+000
1.9900481e+000
1.9930502e+000
1.9632968e+000
1.9380095e+000
1.9408500e+000
1.9519818e+000
1.9723791e+000
1.9833980e+000
1.9762861e+000
1.9713000e+000
1.9725826e+000
2.0018601e+000
2.0590801e+000
2.1344261e+000
2.2213950e+000
2.2853596e+000
2.3329451e+000
2.3270452e+000
2.2941370e+000
2.2282357e+000
2.1500223e+000
2.0826321e+000
2.0191183e+000
1.9779257e+000
1.9429007e+000
1.9401200e+000
1.9456972e+000
1.9713935e+000
1.9979799e+000
2.0072887e+000
2.0126011e+000
2.0160596e+000
2.0239363e+000
2.0450840e+000
2.0626070e+000
2.0684519e+000
2.0695093e+000
2.0661678e+000
2.0702941e+000
2.0836957e+000
2.0925150e+000
2.0953605e+000
2.0895441e+000
2.0781546e+000
2.0705535e+000
2.0662384e+000
2.0504599e+000
2.0286553e+000
1.9843689e+000
1.9306600e+000
1.8783340e+000
1.8263688e+000
1.7987717e+000
1.7788320e+000
1.7803500e+000
1.7852824e+000
1.7769570e+000
1.7580978e+000
1.7103285e+000
1.6524786e+000
1.5874312e+000
1.5242280e+000
1.4670181e+000
1.4150981e+000
1.3673850e+000
1.3206297e+000
1.2738966e+000
1.2400166e+000
1.2217617e+000
1.2384572e+000
1.2849790e+000
1.3535900e+000
1.4350400e+000
1.4936514e+000
1.5362478e+000
1.5190762e+000
1.4709773e+000
1.3863000e+000
1.2871877e+000
1.2050543e+000
1.1304260e+000
1.0970634e+000
1.0774946e+000
1.0723994e+000
1.0660750e+000
1.0269457e+000
9.7537214e-001
9.0837145e-001
8.4635788e-001
8.0808371e-001
7.8402257e-001
7.7696002e-001
7.6663917e-001
7.4590611e-001
7.0898241e-001
6.5632534e-001
6.2162942e-001
6.0932076e-001
6.3663733e-001
6.9217432e-001
7.4143779e-001
7.8142130e-001
7.7872074e-001
7.5043845e-001
6.7820746e-001
5.8364636e-001
5.0283206e-001
4.2888466e-001
4.3608895e-001
4.7659287e-001
5.4088181e-001
6.0317057e-001
5.8572739e-001
5.2312529e-001
3.9346042e-001
2.4569319e-001
1.1802595e-001
1.2280792e-002
-5.7271324e-002
-1.1437970e-001
-1.6726001e-001
-2.1177965e-001
-2.4320038e-001
-2.4467544e-001
-2.1909514e-001
-1.9633389e-001
-1.8949080e-001
-2.1009538e-001
-2.4975374e-001
-2.8052059e-001
-2.9887798e-001
-3.0726355e-001
-3.0848435e-001
-3.4830800e-001
-4.0877715e-001
-4.9783942e-001
-5.9661323e-001
-6.4505434e-001
-6.6661656e-001
-6.4777017e-001
-6.1240584e-001
-5.7417661e-001
-5.3342378e-001
-4.9246237e-001
-4.5036843e-001
-4.1596857e-001
-3.9983037e-001
-4.1501260e-001
-4.5057821e-001
-4.9477285e-001
-5.3261149e-001
-5.5421835e-001
-5.5744171e-001
-5.4623240e-001
-5.1711500e-001
-4.7431764e-001
-4.4987658e-001
-4.4334725e-001
-4.7754261e-001
-5.4053926e-001
-5.7255751e-001
-5.8190358e-001
-5.2544332e-001
-4.3266848e-001
-3.3664909e-001
-2.4448320e-001
-1.8354268e-001
-1.4397603e-001
-1.2149360e-001
-1.0620314e-001
-8.1754796e-002
-5.1040016e-002
-2.8182924e-002
-1.1968787e-002
-9.6037276e-003
-1.2223780e-002
-4.7884542e-003
7.1915654e-003
-5.9236031e-002
-1.5748800e-001
-2.2980163e-001
-2.3593725e-001
-1.6904420e-001
-7.9770476e-002
7.2003566e-003
1.5249421e-002
-5.6792878e-002
-1.2795943e-001
-1.8241058e-001
-1.0593480e-001
7.2972603e-002
2.3289877e-001
3.6349940e-001
3.1374532e-001
1.4384574e-001
2.5970265e-003
-8.6316653e-002
-1.3090741e-002
1.9091372e-001
6.1620688e-001
1.1746867e+000
1.6935811e+000
2.1667175e+000
2.5957880e+000
3.1445129e+000
3.9723914e+000
5.3486419e+000
7.4084301e+000
1.0347515e+001
1.4122285e+001
1.7984550e+001
2.1586782e+001
2.4801489e+001
2.7680828e+001
3.1130186e+001
3.5238953e+001
4.0262947e+001
4.6012642e+001
5.1026073e+001
5.5335003e+001
5.9331047e+001
6.3170727e+001
6.7681450e+001
7.2697929e+001
7.7705299e+001
8.2585106e+001
8.6953079e+001
9.0798141e+001
9.4061241e+001
9.6721428e+001
9.8759933e+001
1.0010963e+002
1.0072387e+002
1.0048086e+002
9.9334641e+001
9.7644554e+001
9.5763466e+001
9.3573761e+001
9.1060219e+001
8.7735497e+001
8.3495171e+001
7.8905235e+001
7.4206078e+001
6.9723442e+001
6.5508469e+001
6.1191360e+001
5.6730873e+001
5.2337288e+001
4.8032009e+001
4.3978172e+001
4.0201042e+001
3.6872730e+001
3.4005081e+001
3.1574594e+001
2.9555014e+001
2.7791477e+001
2.6301973e+001
2.5074989e+001
2.4117765e+001
2.3399000e+001
2.2897612e+001
2.2554239e+001
2.2354601e+001
2.2263241e+001
2.2269600e+001
2.2358446e+001
2.2514589e+001
2.2725348e+001
2.3061752e+001
2.3547943e+001
2.4241329e+001
2.5145819e+001
2.6159239e+001
2.7253960e+001
2.8343857e+001
2.9422792e+001
3.0671602e+001
3.2185280e+001
3.4599304e+001
3.7986385e+001
4.1768620e+001
4.5721268e+001
4.8826603e+001
5.1097424e+001
5.2998928e+001
5.4556881e+001
5.5943707e+001
5.7080959e+001
5.7862049e+001
5.8162914e+001
5.7903332e+001
5.7170422e+001
5.6132347e+001
5.4809700e+001
5.3231949e+001
5.1350021e+001
4.9123158e+001
4.6694416e+001
4.4103088e+001
4.1684299e+001
3.9567505e+001
3.7517838e+001
3.5511978e+001
3.3017559e+001
2.9889650e+001
2.6801167e+001
2.3820118e+001
2.1331577e+001
1.9374750e+001
1.7369572e+001
1.5291031e+001
1.3096006e+001
1.0800222e+001
8.5085278e+000
6.3023028e+000
4.3301563e+000
2.6808219e+000
1.4380791e+000
6.1082554e-001
1.5126072e-001
2.0524779e-001
8.2239902e-001
1.6439900e+000
2.5190620e+000
3.2880487e+000
3.8494942e+000
4.3145185e+000
4.7155704e+000
5.1062694e+000
5.4952397e+000
5.8375859e+000
6.0951405e+000
6.2562203e+000
6.2724686e+000
6.2310929e+000
6.1095877e+000
5.9521670e+000
5.7391710e+000
5.4497476e+000
5.0563154e+000
4.5514164e+000
3.9497399e+000
3.3633189e+000
2.8261180e+000
2.4099791e+000
2.1188281e+000
1.9343796e+000
1.8517194e+000
1.8478992e+000
1.9199457e+000
2.0680141e+000
2.2656574e+000
2.5165372e+000
2.7952313e+000
3.1003871e+000
3.4266582e+000
3.7749794e+000
4.1362238e+000
4.5117798e+000
4.8957787e+000
5.2877426e+000
5.6540775e+000
5.9566002e+000
6.1527710e+000
6.1709499e+000
6.0529070e+000
5.7467589e+000
5.3632698e+000
4.8938217e+000
4.4120059e+000
3.9381912e+000
3.5125439e+000
3.1413567e+000
2.8173742e+000
2.4960771e+000
2.1032879e+000
1.6500365e+000
1.1413267e+000
6.6194272e-001
3.1726387e-001
8.6663917e-002
1.7058080e-002
2.9276840e-002
1.2125559e-001
2.4482608e-001
4.2987162e-001
6.4237779e-001
9.0186226e-001
1.1589396e+000
1.4024487e+000
1.6203638e+000
1.7804369e+000
1.9334130e+000
2.0805085e+000
2.2609272e+000
2.5008888e+000
2.7879179e+000
3.1354053e+000
3.4961057e+000
3.8614399e+000
4.1924610e+000
4.4789310e+000
4.7192168e+000
4.9127688e+000
5.0686235e+000
5.1889548e+000
5.2666187e+000
5.3127127e+000
5.3172464e+000
5.3060145e+000
5.2848749e+000
5.2677951e+000
5.2656689e+000
5.2680879e+000
5.2755680e+000
5.2872982e+000
5.3083792e+000
5.3424878e+000
5.4052176e+000
5.4749441e+000
5.5587511e+000
5.6376252e+000
5.7107291e+000
5.7856741e+000
5.8649573e+000
5.9575100e+000
6.0646491e+000
6.1780181e+000
6.2984662e+000
6.4240255e+000
6.5581455e+000
6.7095199e+000
6.8701239e+000
7.0265470e+000
7.1668997e+000
7.2570477e+000
7.3145833e+000
7.3247137e+000
7.3148494e+000
7.2830329e+000
7.2281046e+000
7.1119757e+000
6.9536939e+000
6.6788359e+000
6.3661036e+000
5.9530358e+000
5.5157523e+000
5.0208712e+000
4.5174389e+000
3.9987857e+000
3.4884284e+000
2.9956279e+000
2.5263939e+000
2.0976269e+000
1.7179600e+000
1.4008820e+000
1.1311264e+000
9.0810812e-001
7.0683026e-001
5.2908289e-001
3.8501945e-001
2.7078012e-001
2.0163229e-001
1.5714249e-001
1.3257693e-001
1.2220177e-001
1.4315549e-001
1.9318621e-001
3.3334801e-001
5.0929797e-001
7.8080320e-001
1.0624837e+000
1.3602290e+000
1.6344206e+000
1.8323828e+000
1.9855248e+000
2.0261629e+000
2.0252256e+000
1.9393259e+000
1.8197014e+000
1.6425982e+000
1.4343879e+000
1.1864412e+000
9.3554080e-001
6.8703568e-001
4.6960253e-001
2.8523088e-001
1.4224780e-001
3.2724444e-002
-4.4195458e-002
-9.6973762e-002
-8.1315011e-002
-2.4312161e-002
1.1283344e-001
2.7670750e-001
4.6669248e-001
6.4575100e-001
7.4261999e-001
8.1371993e-001
7.8767467e-001
7.5870764e-001
7.2550178e-001
7.0955551e-001
7.4840194e-001
7.9620600e-001
8.6245501e-001
9.0233266e-001
8.8945973e-001
8.5687792e-001
7.9689145e-001
7.5471824e-001
7.3485798e-001
7.2158027e-001
7.1539259e-001
7.1544093e-001
7.2180527e-001
7.3882616e-001
7.5343269e-001
7.0518804e-001
6.2129080e-001
4.8333716e-001
3.3673149e-001
2.5519818e-001
1.9311157e-001
1.6917314e-001
1.4440769e-001
7.7601865e-002
1.1614380e-002
-3.5725731e-002
-7.4742772e-002
-7.8520596e-002
-9.4128080e-002
-1.4869790e-001
-2.2471136e-001
-3.5125214e-001
-4.7266287e-001
-5.8199561e-001
-6.6049576e-001
-6.9347268e-001
-7.1082401e-001
-7.1266264e-001
-7.3664534e-001
-7.8238696e-001
-8.5364312e-001
-9.4024044e-001
-1.0065109e+000
-1.0593879e+000
-1.0814123e+000
-1.0947651e+000
-1.1410228e+000
-1.1993819e+000
-1.2945018e+000
-1.3904071e+000
-1.4256080e+000
-1.4509350e+000
-1.4212174e+000
-1.4013236e+000
-1.4521674e+000
-1.5108902e+000
-1.6017643e+000
-1.6555930e+000
-1.5934051e+000
-1.4959552e+000
-1.3206620e+000
-1.1832392e+000
-1.1131245e+000
-1.0801952e+000
-1.0928019e+000
-1.0457449e+000
-9.3360001e-001
-7.5577176e-001
-5.3035748e-001
-3.8607001e-001
-2.9816222e-001
-3.5165799e-001
-4.6731550e-001
-5.5247498e-001
-6.2127835e-001
-5.4885715e-001
-4.4590086e-001
-3.3122557e-001
-2.1792321e-001
-1.7038147e-001
-1.2290537e-001
-3.9908893e-002
1.6322732e-003
5.0946027e-002
1.5339132e-001
2.8693998e-001
4.3389112e-001
6.2012959e-001
8.0314547e-001
9.7760826e-001
1.0826766e+000
1.0758121e+000
1.0001158e+000
8.4109348e-001
6.7993814e-001
5.1717383e-001
3.8235143e-001
2.6844802e-001
2.5727680e-001
3.0176449e-001
4.5335951e-001
6.4606446e-001
7.5141525e-001
8.3371866e-001
7.4244952e-001
6.2335557e-001
4.3155000e-001
