Image.
>Pix99999.
  .
5555
5555
2300
900
5555
2
1
0
701
5555
2.5226001e-002
2.5751250e-002
2.6275501e-002
2.6800746e-002
2.7324999e-002
2.7850242e-002
2.8375490e-002
2.8899750e-002
2.9424990e-002
2.9949250e-002
3.0474486e-002
3.0998750e-002
3.1523980e-002
3.2051194e-002
3.2573540e-002
3.3088945e-002
3.3622772e-002
3.4183349e-002
3.4673426e-002
3.5066385e-002
3.5718143e-002
3.6734160e-002
3.6787279e-002
3.5485260e-002
3.7756782e-002
4.5603432e-002
4.3291286e-002
1.8486133e-002
-7.4476236e-003
-7.8678541e-003
2.6642937e-002
9.7316682e-002
1.9251314e-001
2.9659837e-001
3.9257219e-001
4.6642751e-001
5.1784009e-001
5.5214036e-001
5.8141136e-001
6.1747533e-001
6.6314542e-001
7.1614701e-001
7.6449400e-001
7.9440147e-001
7.9631060e-001
7.6652688e-001
7.1983987e-001
6.7721218e-001
6.6196340e-001
6.9184226e-001
7.5938284e-001
8.4753692e-001
9.3229288e-001
9.9317682e-001
1.0324879e+000
1.0594492e+000
1.0810961e+000
1.0999774e+000
1.1020503e+000
1.0716983e+000
1.0081000e+000
9.2081797e-001
8.4115475e-001
8.0324817e-001
8.2358575e-001
9.0576857e-001
1.0253972e+000
1.1513017e+000
1.2628949e+000
1.3473368e+000
1.4074200e+000
1.4516588e+000
1.4890149e+000
1.5271059e+000
1.5655299e+000
1.6005821e+000
1.6267641e+000
1.6403580e+000
1.6482754e+000
1.6601893e+000
1.6806428e+000
1.7104244e+000
1.7429577e+000
1.7708629e+000
1.7921400e+000
1.8090086e+000
1.8297708e+000
1.8623495e+000
1.9024458e+000
1.9407686e+000
1.9653814e+000
1.9667341e+000
1.9481732e+000
1.9170445e+000
1.8769460e+000
1.8313835e+000
1.7892914e+000
1.7616336e+000
1.7582719e+000
1.7849157e+000
1.8313857e+000
1.8822126e+000
1.9270178e+000
1.9588151e+000
1.9763120e+000
1.9797050e+000
1.9660683e+000
1.9330182e+000
1.8853834e+000
1.8316020e+000
1.7823900e+000
1.7475377e+000
1.7292119e+000
1.7260292e+000
1.7348574e+000
1.7528129e+000
1.7821966e+000
1.8257947e+000
1.8800601e+000
1.9360631e+000
1.9741029e+000
1.9749544e+000
1.9395503e+000
1.8802875e+000
1.8203223e+000
1.7828571e+000
1.7739661e+000
1.7908175e+000
1.8258332e+000
1.8690993e+000
1.9098715e+000
1.9377027e+000
1.9450778e+000
1.9272320e+000
1.8874846e+000
1.8330929e+000
1.7742405e+000
1.7224857e+000
1.6894171e+000
1.6853830e+000
1.7148401e+000
1.7762431e+000
1.8538308e+000
1.9264365e+000
1.9760075e+000
1.9903330e+000
1.9746052e+000
1.9414229e+000
1.9002068e+000
1.8571955e+000
1.8115429e+000
1.7616799e+000
1.7156279e+000
1.6855829e+000
1.6795880e+000
1.7007550e+000
1.7399063e+000
1.7837641e+000
1.8260652e+000
1.8648685e+000
1.8996514e+000
1.9294990e+000
1.9496268e+000
1.9553111e+000
1.9499806e+000
1.9413978e+000
1.9373928e+000
1.9427391e+000
1.9507560e+000
1.9502726e+000
1.9353414e+000
1.9053324e+000
1.8691914e+000
1.8384930e+000
1.8146431e+000
1.7937250e+000
1.7705594e+000
1.7414880e+000
1.7081965e+000
1.6752363e+000
1.6456542e+000
1.6203574e+000
1.5964140e+000
1.5677475e+000
1.5250068e+000
1.4604378e+000
1.3815620e+000
1.3048358e+000
1.2491063e+000
1.2289190e+000
1.2373015e+000
1.2571063e+000
1.2795463e+000
1.3039795e+000
1.3405371e+000
1.4001635e+000
1.4729440e+000
1.5376892e+000
1.5756688e+000
1.5750251e+000
1.5432143e+000
1.4971126e+000
1.4481689e+000
1.4037540e+000
1.3712766e+000
1.3566357e+000
1.3576697e+000
1.3663133e+000
1.3685971e+000
1.3476079e+000
1.2870699e+000
1.1749938e+000
1.0154270e+000
8.2809579e-001
6.6056538e-001
5.6789362e-001
5.6910241e-001
6.5371621e-001
7.8299797e-001
9.0802187e-001
1.0000137e+000
1.0436441e+000
1.0223591e+000
9.2211533e-001
7.4970120e-001
5.3251642e-001
3.3142859e-001
2.1562092e-001
2.0477207e-001
2.7815616e-001
3.8195229e-001
4.5402721e-001
4.7224337e-001
4.4745898e-001
4.1621700e-001
4.2221788e-001
4.8105350e-001
5.8389109e-001
7.0011359e-001
7.9003799e-001
8.2681513e-001
7.9970920e-001
7.2678518e-001
6.4374000e-001
5.8549929e-001
5.7438350e-001
5.8750927e-001
5.7449168e-001
4.9552435e-001
3.3313715e-001
1.2293928e-001
-6.5162413e-002
-1.6262120e-001
-1.2136084e-001
3.6941305e-002
2.4306306e-001
4.2597577e-001
5.2743626e-001
5.2618331e-001
4.2942649e-001
2.5965714e-001
5.2166350e-002
-1.3344154e-001
-2.3243730e-001
-2.3060881e-001
-1.5588471e-001
-5.5482883e-002
1.6431835e-002
1.4066555e-002
-9.1415100e-002
-2.8381556e-001
-5.2187335e-001
-7.9466146e-001
-1.1090473e+000
-1.4319041e+000
-1.7028036e+000
-1.8876091e+000
-1.9824572e+000
-2.0109627e+000
-2.0036352e+000
-1.9443200e+000
-1.7859147e+000
-1.5118351e+000
-1.1431561e+000
-7.4316227e-001
-3.9578694e-001
-1.5102628e-001
-1.9183232e-002
3.4402780e-002
8.3907485e-002
2.4696386e-001
6.4056748e-001
1.2414439e+000
1.9254650e+000
2.6307139e+000
3.3794451e+000
4.2776251e+000
5.5160475e+000
7.4213295e+000
1.0316401e+001
1.4034286e+001
1.8008751e+001
2.1715960e+001
2.4827940e+001
2.7477823e+001
3.0158691e+001
3.3369701e+001
3.7425148e+001
4.2014080e+001
4.6411594e+001
5.0334259e+001
5.3985348e+001
5.7744160e+001
6.1974834e+001
6.6612495e+001
7.1238152e+001
7.5520561e+001
7.9291939e+001
8.2509499e+001
8.5221718e+001
8.7515114e+001
8.9493515e+001
9.1253738e+001
9.2853165e+001
9.4198051e+001
9.5087715e+001
9.5434288e+001
9.5265327e+001
9.4583244e+001
9.3345116e+001
9.1500740e+001
8.9024017e+001
8.5998856e+001
8.2587448e+001
7.8848671e+001
7.4738731e+001
7.0268318e+001
6.5534111e+001
6.0718094e+001
5.6054111e+001
5.1707371e+001
4.7761402e+001
4.4256397e+001
4.1197029e+001
3.8541759e+001
3.6214878e+001
3.4171085e+001
3.2401989e+001
3.0902588e+001
2.9662407e+001
2.8660500e+001
2.7868494e+001
2.7263474e+001
2.6828516e+001
2.6545212e+001
2.6392658e+001
2.6345016e+001
2.6378790e+001
2.6506853e+001
2.6781294e+001
2.7272085e+001
2.8047260e+001
2.9115740e+001
3.0419371e+001
3.1863241e+001
3.3333801e+001
3.4728554e+001
3.6003468e+001
3.7343418e+001
3.9117840e+001
4.1473515e+001
4.4232059e+001
4.6968483e+001
4.9136757e+001
5.0557644e+001
5.1465820e+001
5.2046787e+001
5.2335831e+001
5.2355560e+001
5.2150467e+001
5.1763401e+001
5.1226105e+001
5.0550468e+001
4.9724182e+001
4.8721912e+001
4.7512249e+001
4.6075089e+001
4.4416424e+001
4.2599174e+001
4.0739517e+001
3.8926373e+001
3.7177860e+001
3.5369881e+001
3.3252708e+001
3.0683449e+001
2.7710093e+001
2.4572372e+001
2.1649912e+001
1.9130693e+001
1.6928040e+001
1.4896286e+001
1.2904724e+001
1.0904763e+001
8.9438925e+000
7.0865183e+000
5.3902879e+000
3.9113379e+000
2.6947234e+000
1.7290062e+000
9.5282161e-001
3.9163056e-001
1.7773387e-001
3.7568104e-001
9.2603612e-001
1.7024803e+000
2.5367591e+000
3.3059545e+000
3.9628942e+000
4.5024476e+000
4.9581447e+000
5.3954802e+000
5.8942022e+000
6.4467015e+000
6.9335480e+000
7.2558470e+000
7.3790607e+000
7.3083692e+000
7.0794811e+000
6.7132325e+000
6.2032852e+000
5.5487099e+000
4.7710543e+000
3.9349928e+000
3.1497889e+000
2.4922040e+000
1.9783694e+000
1.5989451e+000
1.3315411e+000
1.1737818e+000
1.1531829e+000
1.2949200e+000
1.6068079e+000
2.0661850e+000
2.6147263e+000
3.1972497e+000
3.7744730e+000
4.3108311e+000
4.7724133e+000
5.1330199e+000
5.3814082e+000
5.5324783e+000
5.6311154e+000
5.7096395e+000
5.7702317e+000
5.7985244e+000
5.7677302e+000
5.6617808e+000
5.4831624e+000
5.2290559e+000
4.8851557e+000
4.4485512e+000
3.9396605e+000
3.3987219e+000
2.8816810e+000
2.4098966e+000
1.9489408e+000
1.4679580e+000
9.6651870e-001
4.8534662e-001
1.1166908e-001
-9.7750671e-002
-1.5211746e-001
-8.5411772e-002
5.4917783e-002
2.3257510e-001
4.3244857e-001
6.3598001e-001
8.1440014e-001
9.5405173e-001
1.0687551e+000
1.1749829e+000
1.2810444e+000
1.3784177e+000
1.4366320e+000
1.4378852e+000
1.3940436e+000
1.3295705e+000
1.2768018e+000
1.2589377e+000
1.2800480e+000
1.3355000e+000
1.4132459e+000
1.4999623e+000
1.5829898e+000
1.6518445e+000
1.7000835e+000
1.7266965e+000
1.7388140e+000
1.7466166e+000
1.7620242e+000
1.7963715e+000
1.8595446e+000
1.9607483e+000
2.1078985e+000
2.3047481e+000
2.5470765e+000
2.8229220e+000
3.1098995e+000
3.3852639e+000
3.6310191e+000
3.8391786e+000
4.0183930e+000
4.1859093e+000
4.3670645e+000
4.5839410e+000
4.8487334e+000
5.1670666e+000
5.5366230e+000
5.9570680e+000
6.4341364e+000
6.9730654e+000
7.5744748e+000
8.2327728e+000
8.9324865e+000
9.6558208e+000
1.0385000e+001
1.1103741e+001
1.1801822e+001
1.2463818e+001
1.3070846e+001
1.3593643e+001
1.3988668e+001
1.4213719e+001
1.4240554e+001
1.4058506e+001
1.3688849e+001
1.3162103e+001
1.2514576e+001
1.1784337e+001
1.1010450e+001
1.0232880e+001
9.4907808e+000
8.8165655e+000
8.2317286e+000
7.7418618e+000
7.3255672e+000
6.9471121e+000
6.5560865e+000
6.1090260e+000
5.5859089e+000
4.9860072e+000
4.3376861e+000
3.6769943e+000
3.0408609e+000
2.4607253e+000
1.9545779e+000
1.5333680e+000
1.1995398e+000
9.5095611e-001
7.7971005e-001
6.7440403e-001
6.1904156e-001
5.9667492e-001
5.9097636e-001
5.8829838e-001
5.8096439e-001
5.6533748e-001
5.4353839e-001
5.1876014e-001
4.9321228e-001
4.6654129e-001
4.3323386e-001
3.8733947e-001
3.2515615e-001
2.4726000e-001
1.6299573e-001
8.4708914e-002
2.6427163e-002
-7.7205937e-004
6.3443761e-003
4.9640201e-002
1.3228270e-001
2.5883371e-001
4.3595451e-001
6.6665488e-001
9.4352651e-001
1.2523839e+000
1.5692394e+000
1.8729401e+000
2.1551456e+000
2.4137073e+000
2.6540077e+000
2.8840468e+000
3.1140730e+000
3.3530328e+000
3.6050348e+000
3.8665195e+000
4.1184049e+000
4.3464642e+000
4.5585308e+000
4.7752428e+000
5.0348096e+000
5.3683701e+000
5.7774715e+000
6.2474957e+000
6.7407417e+000
7.2150145e+000
7.6310382e+000
7.9579744e+000
8.1857729e+000
8.3185539e+000
8.3849106e+000
8.4177942e+000
8.4456835e+000
8.4868441e+000
8.5354033e+000
8.5764084e+000
8.5864992e+000
8.5484333e+000
8.4672556e+000
8.3543110e+000
8.2240353e+000
8.0824356e+000
7.9119573e+000
7.6963010e+000
7.4393783e+000
7.1576285e+000
6.8873906e+000
6.6588511e+000
6.4699554e+000
6.3061399e+000
6.1402302e+000
5.9478664e+000
5.7221246e+000
5.4616289e+000
5.1691713e+000
4.8497696e+000
4.5109177e+000
4.1614137e+000
3.8104010e+000
3.4666772e+000
3.1371691e+000
2.8270962e+000
2.5396178e+000
2.2733159e+000
2.0163207e+000
1.7588285e+000
1.5050030e+000
1.2623891e+000
1.0379082e+000
8.3265859e-001
6.2945688e-001
4.1418558e-001
1.9646715e-001
-5.7621598e-003
-1.6707373e-001
-2.6760113e-001
-3.1153366e-001
-3.0791000e-001
-2.6230967e-001
-1.8038675e-001
-7.0917144e-002
5.3238034e-002
1.6846143e-001
2.5492659e-001
3.1450000e-001
3.5601103e-001
3.9335582e-001
4.3721378e-001
4.8286113e-001
5.2110112e-001
5.4030442e-001
5.2681035e-001
4.6242756e-001
3.4199920e-001
2.0959358e-001
1.0315760e-001
-4.3525845e-003
-1.3588628e-001
-2.4223471e-001
-2.7629915e-001
-2.6333597e-001
-2.3748878e-001
-1.9933753e-001
-1.4338011e-001
-7.2472595e-002
4.4086091e-003
6.3256785e-002
8.3140768e-002
6.8897583e-002
3.5520658e-002
1.2105070e-002
2.3064509e-002
6.1214939e-002
1.0888551e-001
1.3837086e-001
1.2856281e-001
9.4092458e-002
5.7194002e-002
3.4871370e-002
4.2817999e-002
