Image.
>Pix99999.
  .
5555
5555
2300
900
5555
2
1
0
701
5555
-1.1279000e-002
-1.1513664e-002
-1.1748329e-002
-1.1982993e-002
-1.2217657e-002
-1.2452322e-002
-1.2685994e-002
-1.2920651e-002
-1.3155314e-002
-1.3389979e-002
-1.3624643e-002
-1.3859307e-002
-1.4093971e-002
-1.4328636e-002
-1.4563300e-002
-1.4797964e-002
-1.5032629e-002
-1.5267293e-002
-1.5501957e-002
-1.5736623e-002
-1.5971284e-002
-1.6205950e-002
-1.6440615e-002
-1.6675279e-002
-1.6909942e-002
-1.7144607e-002
-6.3711143e-004
5.7180002e-002
1.1882696e-001
1.5290409e-001
1.8292686e-001
1.8258528e-001
1.7985709e-001
1.7225960e-001
1.6833165e-001
1.9564299e-001
2.2845925e-001
2.7925041e-001
3.2344064e-001
3.4463963e-001
3.6240086e-001
3.7546030e-001
4.0032101e-001
4.4490287e-001
4.9260914e-001
5.4271448e-001
5.8382595e-001
6.1610824e-001
6.3093537e-001
6.3313478e-001
6.1391568e-001
5.8285415e-001
5.5646145e-001
5.3247654e-001
5.2624947e-001
5.2574182e-001
5.3305316e-001
5.4207653e-001
5.6454712e-001
5.8912814e-001
6.2211287e-001
6.5545380e-001
6.8423545e-001
7.1277595e-001
7.4251628e-001
7.7342588e-001
8.0820018e-001
8.4017682e-001
8.6395764e-001
8.7977451e-001
8.8200700e-001
8.7596172e-001
8.5992885e-001
8.4192175e-001
8.2284182e-001
8.2105112e-001
8.3466536e-001
8.6548531e-001
9.0719199e-001
9.2924267e-001
9.3999600e-001
9.2272455e-001
8.9406383e-001
8.7051868e-001
8.4891760e-001
8.4171873e-001
8.3785212e-001
8.3173412e-001
8.2505476e-001
8.1505370e-001
8.0689675e-001
8.1599939e-001
8.3446449e-001
8.8317937e-001
9.3656576e-001
9.9069798e-001
1.0312296e+000
1.0415825e+000
1.0433459e+000
1.0380909e+000
1.0485142e+000
1.0809489e+000
1.1180502e+000
1.1567614e+000
1.1666720e+000
1.1525249e+000
1.1173997e+000
1.0705982e+000
1.0388434e+000
1.0159101e+000
1.0246372e+000
1.0460846e+000
1.0827119e+000
1.1239684e+000
1.1451826e+000
1.1607865e+000
1.1398566e+000
1.1111305e+000
1.0735418e+000
1.0380989e+000
1.0246600e+000
1.0190470e+000
1.0266223e+000
1.0350767e+000
1.0395446e+000
1.0455393e+000
1.0561301e+000
1.0702330e+000
1.0880172e+000
1.0974362e+000
1.0954614e+000
1.0904731e+000
1.0847126e+000
1.0899991e+000
1.1044371e+000
1.1228358e+000
1.1430976e+000
1.1717917e+000
1.2048564e+000
1.2348216e+000
1.2630000e+000
1.2556632e+000
1.2359788e+000
1.2188299e+000
1.2046183e+000
1.2272507e+000
1.2585926e+000
1.2861930e+000
1.3101736e+000
1.3248606e+000
1.3421929e+000
1.3756107e+000
1.4074990e+000
1.4251963e+000
1.4244000e+000
1.3950379e+000
1.3604217e+000
1.3281323e+000
1.2935902e+000
1.2570043e+000
1.2187457e+000
1.1800240e+000
1.1797849e+000
1.2094802e+000
1.2618052e+000
1.3249786e+000
1.3408339e+000
1.3301115e+000
1.3026080e+000
1.2690568e+000
1.2665542e+000
1.2755036e+000
1.2938663e+000
1.3141571e+000
1.3329263e+000
1.3466500e+000
1.3346537e+000
1.3100249e+000
1.2623111e+000
1.2193474e+000
1.2056857e+000
1.2091452e+000
1.2318900e+000
1.2491969e+000
1.2514468e+000
1.2542371e+000
1.2647254e+000
1.2890598e+000
1.3248600e+000
1.3403100e+000
1.3324372e+000
1.3173110e+000
1.3006629e+000
1.3030980e+000
1.3186669e+000
1.3189107e+000
1.3091800e+000
1.2886387e+000
1.2628675e+000
1.2600521e+000
1.2666142e+000
1.2814027e+000
1.2957774e+000
1.2820339e+000
1.2503835e+000
1.1843650e+000
1.1049546e+000
1.0227908e+000
9.4687361e-001
8.8972175e-001
8.5641301e-001
8.5924226e-001
8.9897996e-001
9.7870791e-001
1.0480711e+000
1.0839372e+000
1.0460274e+000
9.3594825e-001
8.0150098e-001
6.6372699e-001
5.5762655e-001
4.7864026e-001
4.4494036e-001
4.4003639e-001
4.7703561e-001
5.3829926e-001
5.8094847e-001
6.1321235e-001
6.0080475e-001
5.6936240e-001
5.6845385e-001
5.8988470e-001
6.6725987e-001
7.6643974e-001
8.5014659e-001
8.9571565e-001
8.4674895e-001
7.3696846e-001
5.8140880e-001
4.2665249e-001
3.0926257e-001
2.3762244e-001
2.1464774e-001
2.2563368e-001
2.5691736e-001
3.0724999e-001
3.7063864e-001
4.2436039e-001
4.6810269e-001
4.7839183e-001
4.6426785e-001
4.4599640e-001
4.2511722e-001
4.0119320e-001
3.7227291e-001
3.4557113e-001
3.1974578e-001
3.1121472e-001
3.1372169e-001
3.3504230e-001
3.7303942e-001
4.4040251e-001
5.0943983e-001
5.2482474e-001
4.8423675e-001
3.6408487e-001
2.1860041e-001
1.0186785e-001
2.3829795e-002
-6.5481216e-002
-1.3886414e-001
-1.6374773e-001
-1.1566857e-001
3.8416795e-003
1.2716325e-001
2.2894393e-001
2.3291354e-001
1.4397305e-001
4.9804941e-002
-3.0704703e-002
-3.9835982e-003
1.0704787e-001
1.8324341e-001
2.2221217e-001
1.2340991e-001
-6.1343491e-002
-1.6991846e-001
-1.8760580e-001
-6.0781687e-003
3.1372261e-001
8.1855059e-001
1.4051663e+000
1.8612092e+000
2.2412288e+000
2.6178958e+000
3.1692128e+000
4.0652204e+000
5.5308719e+000
7.6667328e+000
1.0584130e+001
1.4207714e+001
1.7836210e+001
2.1159191e+001
2.4164686e+001
2.6927650e+001
3.0284836e+001
3.4303295e+001
3.9025200e+001
4.4276760e+001
4.8813744e+001
5.2689541e+001
5.6554951e+001
6.0503803e+001
6.5159538e+001
7.0305313e+001
7.5174347e+001
7.9704781e+001
8.3634598e+001
8.7040771e+001
9.0056572e+001
9.2692085e+001
9.4976585e+001
9.6791977e+001
9.8019104e+001
9.8375175e+001
9.7658211e+001
9.6234138e+001
9.4480301e+001
9.2394440e+001
9.0032257e+001
8.7006912e+001
8.3237282e+001
7.9150833e+001
7.4937836e+001
7.0842300e+001
6.6909691e+001
6.2834759e+001
5.8591366e+001
5.4353004e+001
5.0141392e+001
4.6093658e+001
4.2239986e+001
3.8790413e+001
3.5765518e+001
3.3188919e+001
3.1040144e+001
2.9178549e+001
2.7613144e+001
2.6309269e+001
2.5271145e+001
2.4462502e+001
2.3878712e+001
2.3479359e+001
2.3253643e+001
2.3167126e+001
2.3201342e+001
2.3332035e+001
2.3551790e+001
2.3850740e+001
2.4290825e+001
2.4890285e+001
2.5665606e+001
2.6608786e+001
2.7635351e+001
2.8722641e+001
2.9827957e+001
3.0950741e+001
3.2248814e+001
3.3807354e+001
3.6170795e+001
3.9383743e+001
4.2818390e+001
4.6272137e+001
4.8918598e+001
5.0805477e+001
5.2467037e+001
5.3928574e+001
5.5310928e+001
5.6410500e+001
5.6916988e+001
5.6792427e+001
5.6097363e+001
5.5083992e+001
5.4074333e+001
5.3036556e+001
5.1944851e+001
5.0641609e+001
4.9021595e+001
4.7085850e+001
4.4802711e+001
4.2551788e+001
4.0462154e+001
3.8464680e+001
3.6572731e+001
3.4207943e+001
3.1216551e+001
2.8125771e+001
2.4968172e+001
2.2242855e+001
1.9998940e+001
1.7787571e+001
1.5604567e+001
1.3392400e+001
1.1148685e+001
8.8768749e+000
6.6373816e+000
4.5548563e+000
2.7509289e+000
1.3783492e+000
4.7323930e-001
8.8622347e-002
3.3210585e-001
1.1139308e+000
2.0924780e+000
3.0716808e+000
3.9098885e+000
4.5105524e+000
5.0400052e+000
5.5613236e+000
6.1038523e+000
6.6785998e+000
7.1223497e+000
7.3438468e+000
7.4041028e+000
7.2343831e+000
7.0172358e+000
6.7382126e+000
6.4556370e+000
6.1659851e+000
5.8478489e+000
5.4762402e+000
4.9934092e+000
4.4013200e+000
3.7841218e+000
3.1850219e+000
2.7118878e+000
2.3847880e+000
2.2095428e+000
2.1723256e+000
2.2362921e+000
2.3563857e+000
2.4842391e+000
2.6163166e+000
2.7637322e+000
2.9515944e+000
3.2144756e+000
3.5399623e+000
3.9462507e+000
4.3881841e+000
4.8705211e+000
5.3359289e+000
5.7571888e+000
6.1024947e+000
6.3037381e+000
6.3954301e+000
6.3084450e+000
6.1068478e+000
5.7510800e+000
5.3476567e+000
4.8974419e+000
4.4605656e+000
4.0469046e+000
3.6513820e+000
3.2733254e+000
2.9048057e+000
2.5214014e+000
2.0893962e+000
1.6176046e+000
1.1104392e+000
6.3955712e-001
2.9764056e-001
7.0377581e-002
9.8634511e-003
3.4510486e-002
1.3092485e-001
2.3611750e-001
4.0641320e-001
6.0636663e-001
8.5633761e-001
1.0829766e+000
1.2516600e+000
1.3667537e+000
1.3773569e+000
1.3890920e+000
1.4115920e+000
1.4898214e+000
1.6598958e+000
1.8929113e+000
2.2063737e+000
2.5423527e+000
2.8901401e+000
3.1986086e+000
3.4549234e+000
3.6524653e+000
3.7930119e+000
3.8891563e+000
3.9447212e+000
3.9533288e+000
3.9303708e+000
3.8710573e+000
3.8074715e+000
3.7609885e+000
3.7405605e+000
3.7777457e+000
3.8328359e+000
3.9122036e+000
3.9800901e+000
4.0121541e+000
4.0336065e+000
4.0325999e+000
4.0405116e+000
4.0691581e+000
4.1146860e+000
4.1918087e+000
4.2887969e+000
4.4150715e+000
4.5596037e+000
4.7240415e+000
4.8929582e+000
5.0671482e+000
5.2457261e+000
5.4308901e+000
5.6282282e+000
5.8296990e+000
6.0199399e+000
6.1929002e+000
6.3240590e+000
6.4252143e+000
6.4769616e+000
6.4968815e+000
6.4572630e+000
6.3799782e+000
6.2166719e+000
6.0069761e+000
5.6745105e+000
5.3002615e+000
4.8159342e+000
4.3179693e+000
3.7900093e+000
3.2755001e+000
2.7895143e+000
2.3245060e+000
1.8973606e+000
1.4951918e+000
1.1326628e+000
8.0538350e-001
5.2421165e-001
2.8267598e-001
8.1034102e-002
-9.8893821e-002
-2.6293215e-001
-4.2609018e-001
-5.8285767e-001
-7.1481991e-001
-8.2119298e-001
-8.6692572e-001
-8.7789607e-001
-8.2757139e-001
-7.3921764e-001
-5.5185270e-001
-3.1992421e-001
3.8084418e-002
4.0420824e-001
7.7069521e-001
1.0991771e+000
1.3085129e+000
1.4757493e+000
1.5386820e+000
1.5740057e+000
1.5527939e+000
1.5098186e+000
1.4285134e+000
1.3194138e+000
1.1717277e+000
1.0031226e+000
8.1188428e-001
6.1457074e-001
4.1419017e-001
2.2522846e-001
5.5110488e-002
-5.4942138e-002
-1.1438756e-001
-5.6197442e-002
6.6418841e-002
2.9148209e-001
5.4683334e-001
8.1498498e-001
1.0672219e+000
1.2234000e+000
1.3576548e+000
1.4231914e+000
1.5001961e+000
1.6307908e+000
1.7749537e+000
1.9597454e+000
2.1275501e+000
2.2516499e+000
2.3525577e+000
2.4074697e+000
2.4481847e+000
2.4647572e+000
2.4611542e+000
2.4335601e+000
2.4078882e+000
2.3902624e+000
2.4171379e+000
2.4797251e+000
2.5563061e+000
2.6313748e+000
2.6363811e+000
2.6041787e+000
2.5297604e+000
2.4438629e+000
2.3749843e+000
2.3023078e+000
2.1754286e+000
2.0359919e+000
1.8553859e+000
1.6881640e+000
1.6209695e+000
1.5765171e+000
1.6305346e+000
1.6805785e+000
1.7158030e+000
1.7257171e+000
1.6747321e+000
1.6177585e+000
1.5504305e+000
1.4941034e+000
1.4521040e+000
1.3973900e+000
1.3250964e+000
1.2196245e+000
1.0840788e+000
9.3699008e-001
7.8476363e-001
6.5941471e-001
5.5153716e-001
4.8122025e-001
4.2774370e-001
4.0166286e-001
3.8300791e-001
3.6511013e-001
3.4316850e-001
2.7327320e-001
1.9620419e-001
8.1663154e-002
-2.7963966e-002
-1.0185026e-001
-1.6755353e-001
-1.9737856e-001
-2.2550330e-001
-2.4787298e-001
-2.5747946e-001
-2.3718819e-001
-2.0158599e-001
-1.4050806e-001
-1.0017143e-001
-8.8968404e-002
-1.0749816e-001
-1.5645829e-001
-2.0058975e-001
-2.4036920e-001
-2.7036384e-001
-2.9317355e-001
-2.9586849e-001
-2.8676799e-001
-2.2441450e-001
-1.4442950e-001
-5.0798219e-002
4.3062441e-002
7.9726622e-002
1.0681188e-001
7.0327528e-002
3.2378882e-002
1.0671751e-002
4.6158861e-004
1.5010573e-002
6.4811110e-002
1.9929160e-001
3.1634542e-001
3.8126907e-001
3.9607608e-001
3.0373949e-001
1.8898672e-001
3.9182790e-002
-8.1399657e-002
-1.6618441e-001
-2.3881516e-001
-3.0067337e-001
-3.8756675e-001
-4.9167788e-001
-5.5651069e-001
-5.9913284e-001
-5.3013510e-001
-4.1758901e-001
-2.8600532e-001
-1.4958160e-001
-1.7565894e-001
-2.2792283e-001
-4.2561999e-001
