##TITLE=Methyl Ethyl Ketone
##JCAMP-DX=4.24
##DATA TYPE=INFRARED SPECTRUM
##XUNITS=cm-1
##YUNITS=Absorbance
##FIRSTX=900
##LASTX=2300
##XYDATA=(X++(Y..Y))
2296 0.0030121
2294 0.0030747103
2292 0.0031374204
2290 0.0032001308
2288 0.0032627417
2286 0.0033254514
2284 0.0033880626
2282 0.0034506731
2280 0.0035133823
2278 0.0035760927
2276 0.0036387043
2274 0.0037014131
2272 0.0037641234
2270 0.0038266375
2268 0.003889442
2266 0.0039519584
2264 0.0040147626
2262 0.0040773773
2260 0.0041400851
2258 0.0042026979
2256 0.0042653084
2254 0.0043280157
2252 0.0043906295
2250 0.0044533368
2248 0.004516047
2246 0.0045786607
2244 0.00017014772
2242 0.030306149
2240 0.071280397
2238 0.11678493
2236 0.16289999
2234 0.19086587
2232 0.21711046
2230 0.23428942
2228 0.24889474
2226 0.24652201
2224 0.23685531
2222 0.19788601
2220 0.15290861
2218 0.094435915
2216 0.049170084
2214 0.034433618
2212 0.043055259
2210 0.086858317
2208 0.12643513
2206 0.15806621
2204 0.17099179
2202 0.16637741
2200 0.17417726
2198 0.19210589
2196 0.22243714
2194 0.25952128
2192 0.2630561
2190 0.2516681
2188 0.2059899
2186 0.149489
2184 0.10974479
2182 0.074002743
2180 0.085014477
2178 0.10312839
2176 0.13430285
2174 0.16382672
2172 0.16108459
2170 0.15365399
2168 0.13691553
2166 0.12875949
2164 0.15526143
2162 0.19177464
2160 0.24508743
2158 0.29401505
2156 0.33136001
2154 0.36395893
2152 0.391417
2150 0.4053506
2148 0.40465572
2146 0.37546465
2144 0.32241765
2142 0.26588142
2140 0.20865378
2138 0.18258317
2136 0.17352572
2134 0.19171867
2132 0.2206957
2130 0.25773072
2128 0.29701757
2126 0.3299973
2124 0.36147738
2122 0.37010387
2120 0.37437332
2118 0.36465141
2116 0.35301659
2114 0.34187168
2112 0.3292515
2110 0.30975756
2108 0.28810549
2106 0.26299244
2104 0.2396384
2102 0.22131024
2100 0.20228919
2098 0.18089031
2096 0.15734142
2094 0.13147606
2092 0.11340635
2090 0.10376336
2088 0.10158343
2086 0.104548
2084 0.10443811
2082 0.10182093
2080 0.094956107
2078 0.086040519
2076 0.071455002
2074 0.054621983
2072 0.037017122
2070 0.019244205
2068 0.004558756
2066 -0.0096637746
2064 -0.039588653
2062 -0.073691465
2060 -0.11943936
2058 -0.1640534
2056 -0.18979999
2054 -0.2049863
2052 -0.19550449
2050 -0.17919321
2048 -0.15768634
2046 -0.14130285
2044 -0.13678961
2042 -0.14329875
2040 -0.1630768
2038 -0.18395555
2036 -0.20322143
2034 -0.20792051
2032 -0.1987693
2030 -0.1765406
2028 -0.14588486
2026 -0.11600193
2024 -0.087444492
2022 -0.073550969
2020 -0.067154288
2018 -0.097737223
2016 -0.143508
2014 -0.20843482
2012 -0.27935991
2010 -0.31157851
2008 -0.33207926
2006 -0.33027941
2004 -0.32492325
2002 -0.3343322
2000 -0.34677577
1998 -0.35581672
1996 -0.35729286
1994 -0.33827952
1992 -0.31100908
1990 -0.27689922
1988 -0.24490559
1986 -0.219887
1984 -0.20409423
1982 -0.19883922
1980 -0.20646937
1978 -0.22578238
1976 -0.24054714
1974 -0.2486475
1972 -0.22618215
1970 -0.18129095
1968 -0.13780721
1966 -0.097851217
1964 -0.11316811
1962 -0.15745233
1960 -0.23950361
1958 -0.33648655
1956 -0.41914302
1954 -0.49519977
1952 -0.53677624
1950 -0.56561339
1948 -0.57635963
1946 -0.58063
1944 -0.58122826
1942 -0.58049232
1940 -0.58023781
1938 -0.5823189
1936 -0.59039426
1934 -0.60171854
1932 -0.61553961
1930 -0.62175727
1928 -0.61419445
1926 -0.57810491
1924 -0.50948906
1922 -0.41817331
1920 -0.31176656
1918 -0.2409104
1916 -0.205862
1914 -0.22099507
1912 -0.26828748
1910 -0.31989411
1908 -0.37019408
1906 -0.41809815
1904 -0.46488279
1902 -0.5032565
1900 -0.5378871
1898 -0.52475864
1896 -0.49101287
1894 -0.43147099
1892 -0.36696726
1890 -0.33736119
1888 -0.33318558
1886 -0.38137549
1884 -0.45537534
1882 -0.5487448
1880 -0.63784033
1878 -0.7003963
1876 -0.72405398
1874 -0.6922009
1872 -0.61233515
1870 -0.48740047
1868 -0.37746823
1866 -0.30460736
1864 -0.31512079
1862 -0.40309459
1860 -0.52561587
1858 -0.66087186
1856 -0.7741583
1854 -0.86787677
1852 -0.91293758
1850 -0.92757648
1848 -0.87904161
1846 -0.79588175
1844 -0.7107234
1842 -0.62833601
1840 -0.61327171
1838 -0.62984872
1836 -0.64273983
1834 -0.6415391
1832 -0.57357317
1830 -0.47245434
1828 -0.36013171
1826 -0.27625343
1824 -0.28363451
1822 -0.35517079
1820 -0.48299658
1818 -0.60740435
1816 -0.68710315
1814 -0.70130897
1812 -0.64419276
1810 -0.55083388
1808 -0.44261628
1806 -0.35288548
1804 -0.2874324
1802 -0.24174853
1800 -0.20792978
1798 -0.18074219
1796 -0.15665643
1794 -0.15438695
1792 -0.1676704
1790 -0.20868541
1788 -0.26645064
1786 -0.29896507
1784 -0.31377405
1782 -0.28894734
1780 -0.23855369
1778 -0.16261341
1776 -0.067474514
1774 0.051690679
1772 0.1683296
1770 0.23662309
1768 0.25012133
1766 0.1860182
1764 0.10318412
1762 0.054720555
1760 0.016019508
1758 -0.029181778
1756 -0.048567671
1754 -0.02813898
1752 0.049922589
1750 0.18189755
1748 0.30801004
1746 0.40971178
1744 0.40147859
1742 0.29378736
1740 0.163213
1738 0.0310305
1736 -0.0083222585
1734 0.024436353
1732 0.04488894
1730 0.047658842
1728 -0.045864195
1726 -0.19365901
1724 -0.25813046
1722 -0.22599941
1720 0.035424113
1718 0.48931518
1716 1.1406466
1714 1.8540963
1712 2.4217999
1710 2.9077277
1708 3.386538
1706 4.037612
1704 5.0242581
1702 6.5752711
1700 8.7964172
1698 11.825047
1696 15.609858
1694 19.434629
1692 22.973551
1690 26.160191
1688 29.050446
1686 32.530319
1684 36.680027
1682 41.69949
1680 47.404762
1678 52.456841
1676 56.883202
1674 61.184006
1672 65.482689
1670 70.60051
1668 76.338715
1666 82.100304
1664 87.728828
1662 92.708595
1660 96.997604
1658 100.45111
1656 103.07658
1654 104.918
1652 105.9704
1650 106.2823
1648 105.52486
1646 103.48035
1644 100.53654
1642 97.107132
1640 93.290665
1638 89.202888
1636 84.526604
1634 79.204338
1632 73.900085
1630 68.835083
1628 64.197144
1626 59.969643
1624 55.752041
1622 51.480476
1620 47.350426
1618 43.370583
1616 39.606884
1614 36.082718
1612 32.95042
1610 30.23311
1608 27.962017
1606 26.115301
1604 24.551735
1602 23.282421
1600 22.278131
1598 21.548595
1596 21.063999
1594 20.794788
1592 20.672623
1590 20.661409
1588 20.709072
1586 20.828814
1584 21.023079
1582 21.30899
1580 21.690269
1578 22.213285
1576 22.888771
1574 23.736927
1572 24.755964
1570 25.876751
1568 27.0812
1566 28.316
1564 29.578495
1562 31.041201
1560 32.80275
1558 35.505402
1556 39.207756
1554 43.261009
1552 47.424549
1550 50.628471
1548 52.900959
1546 54.778717
1544 56.284885
1542 57.599792
1540 58.563221
1538 58.983521
1536 58.754715
1534 57.847965
1532 56.499374
1530 55.006092
1528 53.46899
1526 51.971199
1524 50.415306
1522 48.740044
1520 46.753593
1518 44.347176
1516 41.849514
1514 39.358192
1512 36.989841
1510 34.789967
1508 32.145969
1506 28.907928
1504 25.625223
1502 22.360649
1500 19.629723
1498 17.499121
1496 15.440143
1494 13.449142
1492 11.443206
1490 9.4246454
1488 7.4067059
1486 5.4425359
1484 3.62973
1482 2.0866206
1480 0.94936484
1478 0.25760421
1476 0.049155299
1474 0.38071814
1472 1.1801541
1470 2.1261549
1468 3.0156937
1466 3.7572672
1464 4.2731652
1462 4.7466874
1460 5.2517853
1458 5.7817965
1456 6.3414598
1454 6.7365189
1452 6.8657198
1450 6.827209
1448 6.55689
1446 6.2611713
1444 5.9345942
1442 5.624227
1440 5.3303671
1438 5.0212946
1436 4.674417
1434 4.2406855
1432 3.7194583
1430 3.1769898
1428 2.6518359
1426 2.2288835
1424 1.93282
1422 1.7785012
1420 1.7639089
1418 1.8770821
1416 2.0661027
1414 2.2804799
1412 2.4973047
1410 2.6996944
1408 2.9185131
1406 3.1798584
1404 3.4803355
1402 3.8360214
1400 4.2193637
1398 4.6379247
1396 5.0496573
1394 5.4390826
1392 5.753046
1390 5.9312515
1388 6.0031505
1386 5.9047899
1384 5.7023168
1382 5.3567309
1380 4.9558148
1378 4.4941611
1376 4.0317569
1374 3.5775447
1372 3.15026
1370 2.7606175
1368 2.4180822
1366 2.1017849
1364 1.7694746
1362 1.4104216
1360 1.0048354
1358 0.61141992
1356 0.301736
1354 0.085271738
1352 0.017891498
1350 0.029210035
1348 0.12318239
1346 0.25622106
1344 0.45722598
1342 0.69355375
1340 0.99072969
1338 1.2838262
1336 1.5599287
1334 1.7904409
1332 1.9382572
1330 2.076633
1328 2.206032
1326 2.3644915
1324 2.5702775
1322 2.8142431
1320 3.1106176
1318 3.4425433
1316 3.8031101
1314 4.1445642
1312 4.4483285
1310 4.680182
1308 4.8453674
1306 4.9536257
1304 5.018671
1302 5.047286
1300 5.0502782
1298 5.0239778
1296 4.9860573
1294 4.9416795
1292 4.9025073
1290 4.8809528
1288 4.8670759
1286 4.8666668
1284 4.866684
1282 4.8652415
1280 4.8649306
1278 4.8681555
1276 4.8796015
1274 4.9086771
1272 4.951972
1270 5.0208836
1268 5.106544
1266 5.2164364
1264 5.3364606
1262 5.4664583
1260 5.59268
1258 5.7133584
1256 5.8256826
1254 5.9321938
1252 6.0407462
1250 6.1512222
1248 6.2642884
1246 6.3718748
1244 6.4564161
1242 6.5173073
1240 6.5277157
1238 6.5062876
1236 6.4263487
1234 6.3140225
1232 6.1315479
1230 5.9131756
1228 5.6010938
1226 5.2603788
1224 4.8447766
1222 4.4160323
1220 3.957005
1218 3.4989362
1216 3.045943
1214 2.6128886
1212 2.2162931
1210 1.8463745
1208 1.5160446
1206 1.2087468
1204 0.9324072
1202 0.68525928
1200 0.47118458
1198 0.28972948
1196 0.14005807
1194 0.026984908
1192 -0.054721907
1190 -0.091743454
1188 -0.098977536
1186 -0.064109802
1184 -0.0078090355
1182 0.080018952
1180 0.18655327
1178 0.34030318
1176 0.52108198
1174 0.7853505
1172 1.0610386
1170 1.3600528
1168 1.628372
1166 1.8000071
1164 1.9281708
1162 1.9482991
1160 1.9357064
1158 1.8554295
1156 1.7442229
1154 1.5810944
1152 1.39596
1150 1.1816946
1148 0.96119678
1146 0.7359457
1144 0.51998448
1142 0.31915846
1140 0.15907893
1138 0.042397425
1136 0.015921086
1134 0.055250064
1132 0.17728314
1130 0.3387655
1128 0.5412845
1126 0.75051528
1124 0.93621582
1122 1.1053823
1120 1.20928
1118 1.2974195
1116 1.3339415
1114 1.3700548
1112 1.4084498
1110 1.4573274
1108 1.5390109
1106 1.6255901
1104 1.7221029
1102 1.8019629
1100 1.8460183
1098 1.8596251
1096 1.8252
1094 1.7752556
1092 1.708106
1090 1.6529583
1088 1.6122868
1086 1.5920757
1084 1.590356
1082 1.608992
1080 1.6416537
1078 1.687799
1076 1.7354857
1074 1.7509103
1072 1.746388
1070 1.6750865
1068 1.5823509
1066 1.4412893
1064 1.292908
1062 1.1366751
1060 0.98945302
1058 0.90299702
1056 0.83356774
1054 0.83787912
1052 0.83943772
1050 0.83075386
1048 0.80405235
1046 0.73353463
1044 0.6523065
1042 0.54938233
1040 0.42584097
1038 0.27217591
1036 0.1127097
1034 -0.049721487
1032 -0.17649519
1030 -0.2697618
1028 -0.34193158
1026 -0.40082508
1024 -0.47162005
1022 -0.54941189
1020 -0.63551182
1018 -0.72266293
1016 -0.78662682
1014 -0.83980262
1012 -0.84261525
1010 -0.83509791
1008 -0.80720961
1006 -0.77971119
1004 -0.77678812
1002 -0.77666104
1000 -0.79422927
998 -0.81205285
996 -0.8306514
994 -0.84326541
992 -0.83647263
990 -0.81311619
988 -0.75176024
986 -0.68519229
984 -0.61101234
982 -0.56018001
980 -0.54169422
978 -0.54570431
976 -0.572806
974 -0.59853446
972 -0.6229043
970 -0.64250219
968 -0.65942395
966 -0.68116754
964 -0.70407933
962 -0.70703781
960 -0.70054996
958 -0.62979472
956 -0.54382068
954 -0.42366421
952 -0.30135077
950 -0.2260199
948 -0.15065113
946 -0.049559463
944 0.003331989
942 0.10398071
940 0.31250763
938 0.5796926
936 0.81502914
934 0.95628208
932 1.0609891
930 1.0871874
928 1.0899
926 1.0543396
924 0.9902426
922 0.89107686
920 0.76847202
918 0.62408543
916 0.47697785
914 0.32888478
912 0.25358817
910 0.21804559
908 0.3129032
906 0.45783257
904 0.61618674
902 0.77741402
900 0.77128553
898 0.73804754
896 0.5546
