Image.
>Pix99999.
  .
5555
5555
2300
900
5555
2
1
0
701
5555
-2.7026000e-002
-2.7588196e-002
-2.8150391e-002
-2.8712587e-002
-2.9274784e-002
-2.9836979e-002
-3.0399173e-002
-3.0961370e-002
-3.1523567e-002
-3.2085761e-002
-3.2647956e-002
-3.3210151e-002
-3.3772349e-002
-3.4334544e-002
-3.4896739e-002
-3.5458937e-002
-3.6021132e-002
-3.6584303e-002
-3.7145551e-002
-3.7708692e-002
-3.8270913e-002
-3.8833108e-002
-3.9395306e-002
-3.9957501e-002
-4.0519696e-002
-4.1081894e-002
-1.5266457e-003
7.5046226e-002
1.1445348e-001
3.2393117e-002
-6.7462586e-002
-2.4419051e-001
-4.2299715e-001
-5.2487445e-001
-6.1606145e-001
-6.5199149e-001
-6.9160235e-001
-7.6122916e-001
-8.2510960e-001
-8.6683190e-001
-8.8712686e-001
-8.6334747e-001
-8.5877317e-001
-8.8976872e-001
-9.5714760e-001
-1.0671440e+000
-1.1491429e+000
-1.2015094e+000
-1.1857126e+000
-1.1203160e+000
-1.0469714e+000
-9.7083843e-001
-9.5158792e-001
-9.5738518e-001
-1.0111526e+000
-1.0800079e+000
-1.1859640e+000
-1.3002439e+000
-1.4270860e+000
-1.5549115e+000
-1.6232085e+000
-1.6825498e+000
-1.7030120e+000
-1.7195150e+000
-1.7353554e+000
-1.7455993e+000
-1.7356315e+000
-1.7291647e+000
-1.7365452e+000
-1.7586738e+000
-1.8059100e+000
-1.8385760e+000
-1.8466343e+000
-1.8434380e+000
-1.8306589e+000
-1.8353606e+000
-1.8565137e+000
-1.8803600e+000
-1.9051254e+000
-1.9439180e+000
-1.9902171e+000
-2.0492761e+000
-2.1132443e+000
-2.1309364e+000
-2.1336200e+000
-2.1371386e+000
-2.1411963e+000
-2.2177997e+000
-2.3051875e+000
-2.3790457e+000
-2.4425771e+000
-2.4429440e+000
-2.4304216e+000
-2.4008646e+000
-2.3677719e+000
-2.3315809e+000
-2.2945881e+000
-2.2570243e+000
-2.2359762e+000
-2.2429302e+000
-2.2679856e+000
-2.3114340e+000
-2.3356128e+000
-2.3369796e+000
-2.3147330e+000
-2.2751150e+000
-2.2570899e+000
-2.2547457e+000
-2.2892897e+000
-2.3425424e+000
-2.3962085e+000
-2.4493639e+000
-2.4576321e+000
-2.4516461e+000
-2.4109030e+000
-2.3629186e+000
-2.3318903e+000
-2.3053961e+000
-2.2826254e+000
-2.2581501e+000
-2.2198458e+000
-2.1836019e+000
-2.1672611e+000
-2.1596596e+000
-2.1671400e+000
-2.1755714e+000
-2.1814280e+000
-2.2045014e+000
-2.2522182e+000
-2.3142505e+000
-2.3852172e+000
-2.4143882e+000
-2.4018524e+000
-2.3496621e+000
-2.2737761e+000
-2.2123313e+000
-2.1637537e+000
-2.1466572e+000
-2.1455832e+000
-2.1878750e+000
-2.2463799e+000
-2.3019221e+000
-2.3540325e+000
-2.3216109e+000
-2.2642136e+000
-2.1795743e+000
-2.0923789e+000
-2.0415359e+000
-2.0000741e+000
-1.9675282e+000
-1.9360358e+000
-1.9061420e+000
-1.8882138e+000
-1.8886727e+000
-1.8900120e+000
-1.8748400e+000
-1.8357617e+000
-1.7691728e+000
-1.7064202e+000
-1.6592807e+000
-1.6352829e+000
-1.6321011e+000
-1.6170286e+000
-1.5913804e+000
-1.5593486e+000
-1.5241386e+000
-1.5304232e+000
-1.5563200e+000
-1.5832920e+000
-1.6086643e+000
-1.5840358e+000
-1.5395128e+000
-1.4715776e+000
-1.3958075e+000
-1.3497983e+000
-1.3284250e+000
-1.3817154e+000
-1.4731740e+000
-1.5867875e+000
-1.6857487e+000
-1.7213343e+000
-1.7109680e+000
-1.6569121e+000
-1.5877047e+000
-1.5254400e+000
-1.4621258e+000
-1.4015303e+000
-1.3277577e+000
-1.2330914e+000
-1.1539780e+000
-1.0828258e+000
-1.0325238e+000
-9.9770617e-001
-9.5017624e-001
-8.9572787e-001
-8.5905468e-001
-8.3091235e-001
-8.3340806e-001
-8.4666115e-001
-8.2644808e-001
-7.8900570e-001
-7.2536796e-001
-6.5985399e-001
-6.3527542e-001
-6.3829404e-001
-6.7528999e-001
-7.2659826e-001
-7.7915400e-001
-8.2289237e-001
-8.5335684e-001
-8.4931803e-001
-8.0808389e-001
-7.1948826e-001
-5.8863765e-001
-4.7819117e-001
-3.8815662e-001
-3.6748677e-001
-3.9446279e-001
-4.2409292e-001
-4.5284760e-001
-4.6165484e-001
-4.6408081e-001
-4.0682378e-001
-3.1873667e-001
-1.3496792e-001
9.2049427e-002
2.1290495e-001
2.6196420e-001
1.0174688e-001
-1.4841396e-001
-3.8447273e-001
-5.8249110e-001
-6.7217076e-001
-6.9208378e-001
-6.1815619e-001
-5.2382362e-001
-4.4099373e-001
-4.0844786e-001
-4.7553760e-001
-5.7462895e-001
-6.8418425e-001
-7.3855084e-001
-7.1808618e-001
-6.5253383e-001
-5.5688596e-001
-4.4697949e-001
-3.2931688e-001
-1.5950829e-001
4.7231689e-002
2.5051802e-001
4.4155145e-001
4.8149002e-001
4.2737082e-001
2.8214294e-001
1.0127121e-001
-1.8563848e-003
-4.7626503e-002
-4.6697415e-002
-5.3193187e-003
9.1895774e-002
2.1821542e-001
3.3781719e-001
3.9520165e-001
3.2035688e-001
1.7247075e-001
3.1036986e-002
-4.3858420e-002
-2.2510769e-002
4.2381052e-002
1.2676045e-004
-8.3673924e-002
-1.3833848e-001
-6.7461051e-002
1.3141683e-001
3.6743343e-001
6.1019212e-001
6.6754884e-001
5.6928670e-001
4.2463794e-001
2.6075661e-001
2.1643600e-001
2.5097841e-001
2.0442075e-001
9.7657219e-002
-1.2061211e-001
-3.7256151e-001
-4.6133780e-001
-3.6831331e-001
2.3803145e-002
6.5336877e-001
1.6299860e+000
2.7433295e+000
3.7389977e+000
4.6541252e+000
5.4806218e+000
6.4581041e+000
7.7632093e+000
9.6089735e+000
1.2103306e+001
1.5115871e+001
1.8553858e+001
2.1790630e+001
2.4581654e+001
2.7084934e+001
2.9376411e+001
3.2141815e+001
3.5435833e+001
3.9250980e+001
4.3480198e+001
4.7268024e+001
5.0647800e+001
5.3984749e+001
5.7327053e+001
6.1090080e+001
6.5156799e+001
6.9209351e+001
7.3214478e+001
7.7001244e+001
8.0551727e+001
8.3769577e+001
8.6714912e+001
8.9464333e+001
9.2047081e+001
9.4529190e+001
9.6396095e+001
9.7304718e+001
9.7347466e+001
9.6671921e+001
9.5412041e+001
9.3688942e+001
9.1179688e+001
8.7871857e+001
8.4134094e+001
8.0168518e+001
7.6301949e+001
7.2577850e+001
6.8703918e+001
6.4649559e+001
6.0506931e+001
5.6300686e+001
5.2163857e+001
4.8146343e+001
4.4528980e+001
4.1353180e+001
3.8678371e+001
3.6460106e+001
3.4493279e+001
3.2765835e+001
3.1213388e+001
2.9856672e+001
2.8692001e+001
2.7718779e+001
2.6914543e+001
2.6258564e+001
2.5716284e+001
2.5313765e+001
2.5045868e+001
2.4967831e+001
2.5083591e+001
2.5471029e+001
2.6149885e+001
2.7058903e+001
2.8191219e+001
2.9303686e+001
3.0349401e+001
3.1256929e+001
3.2012058e+001
3.2856743e+001
3.3860703e+001
3.5542107e+001
3.7873417e+001
4.0262070e+001
4.2599422e+001
4.4341995e+001
4.5585419e+001
4.6738358e+001
4.7807053e+001
4.8855274e+001
4.9624622e+001
4.9886120e+001
4.9639370e+001
4.8960438e+001
4.8145470e+001
4.7400246e+001
4.6697704e+001
4.6016300e+001
4.5214867e+001
4.4234818e+001
4.2852726e+001
4.1006084e+001
3.9022171e+001
3.6981403e+001
3.5119560e+001
3.3450340e+001
3.1375368e+001
2.8735929e+001
2.5876492e+001
2.2847742e+001
2.0243586e+001
1.8121861e+001
1.6060286e+001
1.4033347e+001
1.1951546e+001
9.8195448e+000
7.7273817e+000
5.7250805e+000
3.8833220e+000
2.3290260e+000
1.1350657e+000
3.5690212e-001
9.9735714e-002
4.2089698e-001
1.2187865e+000
2.0916040e+000
2.8505402e+000
3.5541842e+000
4.1700859e+000
4.8389983e+000
5.6189008e+000
6.2920642e+000
6.7783999e+000
6.9099669e+000
6.5652852e+000
6.1423869e+000
5.6517439e+000
5.1940322e+000
4.7805562e+000
4.4082141e+000
4.0817103e+000
3.8030658e+000
3.5326114e+000
3.1923199e+000
2.7575302e+000
2.2682991e+000
1.8042320e+000
1.4772507e+000
1.3272126e+000
1.3608665e+000
1.5097685e+000
1.7099115e+000
1.8877028e+000
1.9768291e+000
2.0757351e+000
2.2130995e+000
2.4410548e+000
2.8074200e+000
3.2391291e+000
3.7615969e+000
4.2762198e+000
4.7654686e+000
5.1673002e+000
5.4226437e+000
5.5602093e+000
5.5375977e+000
5.4381628e+000
5.2296448e+000
4.9671011e+000
4.6391835e+000
4.3302102e+000
4.0487614e+000
3.8280914e+000
3.6425848e+000
3.4533598e+000
3.2461603e+000
2.9864292e+000
2.6864944e+000
2.3276181e+000
1.9106812e+000
1.4511143e+000
9.9532568e-001
6.0579669e-001
3.0435055e-001
1.2106048e-001
1.2504092e-002
-3.5304427e-002
-9.1546394e-002
-2.9736044e-002
8.4732488e-002
2.7696165e-001
4.3483767e-001
5.2414513e-001
5.2961785e-001
4.3859208e-001
3.4166789e-001
2.5317565e-001
2.2337721e-001
2.6664567e-001
3.9448220e-001
6.0738391e-001
8.5654926e-001
1.1140800e+000
1.3050218e+000
1.4274732e+000
1.4609090e+000
1.4431405e+000
1.3996757e+000
1.3526314e+000
1.3268300e+000
1.3124046e+000
1.3194546e+000
1.3349571e+000
1.3691921e+000
1.4158992e+000
1.4919358e+000
1.5658960e+000
1.6275293e+000
1.6677756e+000
1.6631107e+000
1.6740817e+000
1.7273548e+000
1.8283828e+000
2.0123479e+000
2.2103548e+000
2.4222918e+000
2.6268959e+000
2.8307743e+000
3.0567331e+000
3.3232601e+000
3.6301000e+000
3.9854155e+000
4.3829775e+000
4.8279676e+000
5.3277173e+000
5.8745723e+000
6.4653225e+000
7.0738502e+000
7.6775665e+000
8.2622356e+000
8.7957926e+000
9.2854366e+000
9.6753101e+000
9.9972010e+000
1.0155320e+001
1.0239666e+001
1.0134491e+001
9.9752617e+000
9.6723347e+000
9.3356371e+000
8.9213467e+000
8.4963036e+000
8.0511456e+000
7.6016002e+000
7.1412916e+000
6.6664128e+000
6.1704016e+000
5.6632671e+000
5.1447258e+000
4.6228971e+000
4.0970359e+000
3.5668359e+000
3.0335286e+000
2.5033772e+000
1.9864926e+000
1.5178781e+000
1.0923413e+000
7.5798863e-001
4.7615087e-001
2.8796643e-001
1.4533916e-001
9.8844670e-002
8.2037196e-002
1.3033304e-001
1.7743072e-001
2.0708993e-001
2.1647629e-001
1.6742200e-001
1.1085951e-001
3.8256098e-002
-1.9362491e-002
-4.8224539e-002
-7.1745947e-002
-8.9584179e-002
-1.1881274e-001
-1.6292632e-001
-2.0430821e-001
-2.3630929e-001
-2.3216012e-001
-1.8323083e-001
-6.2145837e-002
9.8843858e-002
3.2652801e-001
6.0885841e-001
9.4300079e-001
1.3015811e+000
1.6827302e+000
2.0729384e+000
2.4766014e+000
2.8795505e+000
3.2667918e+000
3.6428943e+000
3.9677687e+000
4.2802329e+000
4.5447011e+000
4.8098960e+000
5.0789700e+000
5.3605199e+000
5.6749830e+000
6.0075045e+000
6.3789778e+000
6.7842097e+000
7.2422142e+000
7.7141433e+000
8.1975555e+000
8.6412020e+000
9.0405579e+000
9.3944740e+000
9.7110662e+000
1.0009523e+001
1.0290806e+001
1.0529860e+001
1.0742414e+001
1.0890274e+001
1.1011177e+001
1.1082582e+001
1.1135139e+001
1.1127057e+001
1.1106640e+001
1.1053479e+001
1.0998322e+001
1.0940825e+001
1.0872399e+001
1.0751200e+001
1.0599031e+001
1.0344541e+001
1.0046300e+001
9.6414499e+000
9.2057304e+000
8.7159700e+000
8.2379827e+000
7.7827229e+000
7.3787799e+000
7.0342345e+000
6.7113328e+000
6.3996019e+000
6.0191083e+000
5.5878286e+000
5.1206384e+000
4.6446810e+000
4.2699485e+000
3.9439139e+000
3.7185857e+000
3.5191977e+000
3.3068941e+000
3.0844676e+000
2.7731562e+000
2.4472563e+000
2.0388026e+000
1.6328197e+000
1.2490393e+000
8.8552880e-001
6.1184430e-001
3.5977170e-001
1.7630157e-001
8.3781928e-003
-1.2289432e-001
-2.4056958e-001
-3.3475783e-001
-4.0724462e-001
-4.4961801e-001
-4.5447218e-001
-4.1740456e-001
-3.3129677e-001
-2.0385979e-001
-3.5496250e-002
1.5721978e-001
3.5856351e-001
5.6065118e-001
7.0535237e-001
8.2619023e-001
8.1883544e-001
7.8079844e-001
6.5566099e-001
5.1985800e-001
3.7527990e-001
2.3180717e-001
1.0772035e-001
0.0000000e+000
-9.3015283e-004
-2.4502501e-002
9.6477889e-002
2.1875742e-001
3.4302169e-001
4.2495015e-001
4.1652593e-001
3.9659932e-001
3.5859364e-001
3.4252000e-001
3.5260934e-001
3.6826533e-001
3.8953558e-001
4.1022670e-001
4.3089968e-001
4.4635570e-001
4.5787191e-001
5.2211744e-001
6.0385448e-001
7.5275922e-001
9.1667467e-001
1.0319052e+000
1.1385056e+000
1.2122999e+000
