Image.
>Pix99999.
  .
5555
5555
2300
900
5555
2
1
0
701
5555
-9.7380998e-004
-9.9410105e-004
-1.0143422e-003
-1.0346130e-003
-1.0548841e-003
-1.0751550e-003
-1.0953269e-003
-1.1156960e-003
-1.1358692e-003
-1.1561390e-003
-1.1765086e-003
-1.1966826e-003
-1.2169520e-003
-1.2372230e-003
-1.2574940e-003
-1.2777649e-003
-1.2979383e-003
-1.3182070e-003
-1.3384779e-003
-1.3587490e-003
-1.3790200e-003
-1.3992910e-003
-1.4195620e-003
-1.4398331e-003
-1.4601039e-003
-1.4803750e-003
-5.5012286e-005
1.1912100e-002
1.0791600e-002
8.3813891e-003
5.8763316e-003
5.4744356e-003
6.0752644e-003
2.5804354e-002
4.5411777e-002
5.6829147e-002
5.9552230e-002
2.4527211e-002
-5.1102340e-003
-1.2136192e-002
5.9885858e-003
7.6275609e-002
1.4325914e-001
1.9982000e-001
2.2455189e-001
2.1040036e-001
1.8262811e-001
1.4410737e-001
1.3053504e-001
1.3614699e-001
1.6717072e-001
2.1211295e-001
2.1663566e-001
2.0303209e-001
1.3877735e-001
5.8445957e-002
7.6720081e-003
-3.6076851e-002
-2.6179608e-002
-7.9519367e-003
4.1274808e-002
9.3474478e-002
1.4735661e-001
1.9117080e-001
1.7638612e-001
1.3773444e-001
3.2896817e-002
-8.2310542e-002
-2.0718621e-001
-3.0814859e-001
-3.6191398e-001
-3.7341449e-001
-3.3074725e-001
-2.8334895e-001
-2.3698668e-001
-2.3284000e-001
-2.6593068e-001
-3.2161450e-001
-3.9029774e-001
-4.2225805e-001
-4.3350515e-001
-3.8606578e-001
-3.1479469e-001
-2.2076076e-001
-1.2015240e-001
-5.3646300e-002
4.8218598e-003
-3.6244232e-003
-2.4321910e-002
-7.6789595e-002
-1.3184722e-001
-1.7262121e-001
-2.1201199e-001
-2.5456652e-001
-3.0309090e-001
-3.6823350e-001
-4.2265961e-001
-4.4799170e-001
-4.4112319e-001
-3.8741469e-001
-3.2753000e-001
-2.6853564e-001
-2.5070974e-001
-2.7536240e-001
-3.4531379e-001
-4.4774801e-001
-5.4718214e-001
-6.4170837e-001
-6.8791270e-001
-7.0898467e-001
-6.8664068e-001
-6.4747667e-001
-5.8309561e-001
-5.1110590e-001
-4.3146098e-001
-3.5171878e-001
-3.5676068e-001
-3.8901863e-001
-5.3226334e-001
-6.9318074e-001
-8.3096969e-001
-9.3664527e-001
-9.4296801e-001
-9.1858387e-001
-8.6517507e-001
-8.2949680e-001
-8.3914900e-001
-8.8395518e-001
-9.6904624e-001
-1.0551780e+000
-1.1337442e+000
-1.1798826e+000
-1.1958011e+000
-1.1943980e+000
-1.1831694e+000
-1.1615707e+000
-1.1341983e+000
-1.0773866e+000
-1.0056250e+000
-9.6560860e-001
-9.3994796e-001
-9.9020338e-001
-1.0657989e+000
-1.1437249e+000
-1.2205423e+000
-1.2756257e+000
-1.3242052e+000
-1.3654261e+000
-1.3983034e+000
-1.4019089e+000
-1.3930857e+000
-1.3679205e+000
-1.3516577e+000
-1.3657788e+000
-1.3995939e+000
-1.4566164e+000
-1.5169731e+000
-1.5742830e+000
-1.6350057e+000
-1.6997768e+000
-1.7319800e+000
-1.7328651e+000
-1.6249223e+000
-1.4382974e+000
-1.2347349e+000
-1.0295788e+000
-1.0078739e+000
-1.0834342e+000
-1.2682800e+000
-1.4956851e+000
-1.6513157e+000
-1.7778399e+000
-1.8361577e+000
-1.8723781e+000
-1.8991089e+000
-1.9249500e+000
-1.9625909e+000
-2.0044546e+000
-2.0529823e+000
-2.1024444e+000
-2.1502857e+000
-2.1906743e+000
-2.2153001e+000
-2.2099383e+000
-2.1618977e+000
-2.0331678e+000
-1.8132874e+000
-1.5193088e+000
-1.1719006e+000
-9.2383158e-001
-7.7871370e-001
-7.6630533e-001
-8.3753294e-001
-9.3042302e-001
-1.0264447e+000
-1.1746886e+000
-1.3514880e+000
-1.4977137e+000
-1.6286438e+000
-1.5957894e+000
-1.4950286e+000
-1.3459687e+000
-1.1924086e+000
-1.1375589e+000
-1.1495348e+000
-1.2885942e+000
-1.4888183e+000
-1.7315578e+000
-1.9652290e+000
-2.1407721e+000
-2.2303901e+000
-2.1960180e+000
-2.0272880e+000
-1.7165040e+000
-1.4114701e+000
-1.1720250e+000
-1.1526999e+000
-1.3485940e+000
-1.6199067e+000
-1.9077770e+000
-2.0820029e+000
-2.1640680e+000
-2.0779426e+000
-1.8895568e+000
-1.5572920e+000
-1.1481965e+000
-8.9436245e-001
-7.3204374e-001
-8.4692228e-001
-1.0856681e+000
-1.2630771e+000
-1.3795689e+000
-1.3173280e+000
-1.1583203e+000
-9.4143724e-001
-7.5609756e-001
-7.2937363e-001
-8.4354740e-001
-1.1176895e+000
-1.4174244e+000
-1.6500857e+000
-1.7551693e+000
-1.7099577e+000
-1.5890213e+000
-1.4379108e+000
-1.2922349e+000
-1.1622448e+000
-1.0213428e+000
-8.6528695e-001
-6.7855668e-001
-4.6945572e-001
-2.7171549e-001
-8.6585440e-002
-5.8187723e-002
-1.3042380e-001
-2.8028387e-001
-4.6320301e-001
-5.3100932e-001
-5.1052940e-001
-3.2290310e-001
-2.3479253e-002
3.7366092e-001
7.5554651e-001
9.2544514e-001
9.0380013e-001
6.6133279e-001
3.7284499e-001
1.9783401e-001
5.7279255e-002
-1.0275040e-001
-1.6265985e-001
-7.0432961e-002
3.0032760e-001
9.4846809e-001
1.6418474e+000
2.2909391e+000
2.5621126e+000
2.4811316e+000
2.3324680e+000
2.1896167e+000
2.2949600e+000
2.5926874e+000
2.5865579e+000
2.3363528e+000
1.6616023e+000
7.4159300e-001
1.1170175e-001
-2.1916348e-001
1.0452983e-001
9.7880185e-001
2.2619958e+000
3.6076975e+000
4.5119243e+000
5.1584768e+000
5.7622623e+000
6.6762128e+000
8.2260504e+000
1.0618024e+001
1.3910034e+001
1.7731213e+001
2.1776285e+001
2.5274380e+001
2.7990194e+001
3.0449934e+001
3.2892605e+001
3.6208321e+001
4.0410374e+001
4.5156651e+001
5.0251080e+001
5.4439957e+001
5.7825642e+001
6.1267002e+001
6.4847725e+001
6.9123482e+001
7.3903969e+001
7.8555199e+001
8.3036430e+001
8.7187553e+001
9.1028435e+001
9.4584404e+001
9.7851112e+001
1.0082821e+002
1.0326480e+002
1.0487551e+002
1.0506548e+002
1.0339393e+002
1.0060020e+002
9.7398071e+001
9.4049217e+001
9.0737465e+001
8.6887772e+001
8.2315620e+001
7.7495399e+001
7.2623192e+001
6.8099480e+001
6.3972263e+001
5.9770317e+001
5.5432659e+001
5.1124664e+001
4.6866695e+001
4.2813087e+001
3.8985783e+001
3.5531555e+001
3.2482338e+001
2.9911669e+001
2.7806557e+001
2.6039797e+001
2.4612267e+001
2.3466257e+001
2.2603401e+001
2.1980000e+001
2.1571484e+001
2.1314007e+001
2.1176420e+001
2.1111677e+001
2.1172394e+001
2.1387617e+001
2.1829859e+001
2.2525063e+001
2.3523697e+001
2.4827200e+001
2.6298876e+001
2.7882469e+001
2.9333080e+001
3.0596680e+001
3.1750244e+001
3.2811203e+001
3.4164772e+001
3.5914314e+001
3.8512722e+001
4.1922714e+001
4.5046791e+001
4.7704784e+001
4.9482689e+001
5.0518135e+001
5.1593285e+001
5.2694904e+001
5.3780804e+001
5.4433838e+001
5.4029999e+001
5.2692028e+001
5.0744236e+001
4.8646397e+001
4.6910011e+001
4.5498451e+001
4.4367550e+001
4.3297321e+001
4.2148842e+001
4.0616364e+001
3.8527351e+001
3.6247742e+001
3.3877220e+001
3.1702240e+001
2.9820257e+001
2.7597898e+001
2.4893242e+001
2.1969629e+001
1.8844786e+001
1.6213745e+001
1.4157830e+001
1.2272429e+001
1.0573948e+001
8.9309263e+000
7.3464289e+000
5.7833138e+000
4.2477651e+000
2.7421520e+000
1.4004170e+000
4.2393559e-001
-7.9569519e-002
3.2284111e-003
6.5642709e-001
1.7557886e+000
2.8818810e+000
3.7212548e+000
4.3291245e+000
4.7135758e+000
5.1775122e+000
5.8797293e+000
6.6754131e+000
7.5459800e+000
8.0627708e+000
8.0070486e+000
7.7211285e+000
7.1331544e+000
6.5684819e+000
6.0455146e+000
5.5879478e+000
5.2330966e+000
4.9881229e+000
4.8583555e+000
4.7091856e+000
4.5126529e+000
4.2148499e+000
3.8703761e+000
3.6403036e+000
3.5763645e+000
3.7358248e+000
4.0540590e+000
4.4233532e+000
4.7438140e+000
4.8963003e+000
4.9682612e+000
5.0233002e+000
5.1419425e+000
5.4008093e+000
5.7404451e+000
6.1688466e+000
6.6002440e+000
7.0104523e+000
7.3297930e+000
7.4789085e+000
7.5113955e+000
7.3430328e+000
7.1095314e+000
6.7724452e+000
6.3827257e+000
5.9301677e+000
5.4906902e+000
5.0858703e+000
4.7527714e+000
4.4932623e+000
4.2399359e+000
3.9737980e+000
3.6548681e+000
3.2831485e+000
2.8738568e+000
2.4283609e+000
1.9416652e+000
1.4468430e+000
9.7837085e-001
5.6791043e-001
2.7669817e-001
6.9071516e-002
-2.5073729e-002
-4.4564821e-002
6.4677559e-002
2.5379670e-001
5.8595538e-001
8.8498604e-001
1.0940315e+000
1.1717434e+000
1.0115236e+000
8.3718240e-001
6.5769613e-001
5.6827861e-001
6.2294912e-001
7.8156966e-001
1.0726854e+000
1.4167150e+000
1.7865400e+000
2.0661864e+000
2.2270401e+000
2.2409391e+000
2.1399240e+000
1.9924358e+000
1.8266772e+000
1.6819500e+000
1.5574160e+000
1.4623790e+000
1.3898857e+000
1.3507872e+000
1.3256866e+000
1.3164145e+000
1.3061399e+000
1.2865843e+000
1.2652051e+000
1.2403035e+000
1.2245971e+000
1.2302558e+000
1.2517414e+000
1.3061430e+000
1.3763828e+000
1.4763597e+000
1.5972991e+000
1.7523614e+000
1.9407115e+000
2.1722369e+000
2.4343820e+000
2.7269938e+000
3.0285800e+000
3.3399587e+000
3.6627650e+000
4.0022030e+000
4.3761096e+000
4.7655249e+000
5.1487794e+000
5.5024271e+000
5.7641606e+000
5.9634643e+000
6.0411787e+000
6.0661793e+000
5.9926362e+000
5.8822684e+000
5.6839247e+000
5.4436107e+000
5.0876312e+000
4.6877589e+000
4.1843324e+000
3.6657910e+000
3.1204228e+000
2.5886981e+000
2.0853412e+000
1.6184000e+000
1.2071744e+000
8.3697474e-001
5.0797302e-001
1.6522282e-001
-1.9955903e-001
-6.0887587e-001
-1.0445029e+000
-1.4568789e+000
-1.8359222e+000
-2.1302540e+000
-2.3681395e+000
-2.5267293e+000
-2.6422625e+000
-2.6875265e+000
-2.6910591e+000
-2.5892739e+000
-2.4421401e+000
-2.1693213e+000
-1.8827112e+000
-1.5723135e+000
-1.2782582e+000
-1.0341412e+000
-7.9219550e-001
-5.5554521e-001
-3.2075614e-001
-9.3045138e-002
1.0997200e-001
2.6753587e-001
3.8202509e-001
4.3278086e-001
4.3012300e-001
3.6800712e-001
2.8045154e-001
1.7504881e-001
8.7434351e-002
2.1754375e-002
1.0716178e-002
4.8676655e-002
2.0300257e-001
4.2901728e-001
7.9808581e-001
1.2168715e+000
1.6921324e+000
2.1631324e+000
2.5591519e+000
2.9327235e+000
3.2233357e+000
3.5074217e+000
3.7693989e+000
4.0257177e+000
4.2629285e+000
4.4868999e+000
4.6766052e+000
4.8490853e+000
4.9906940e+000
5.1472845e+000
5.3361855e+000
5.5980706e+000
5.9584999e+000
6.3945742e+000
6.9055743e+000
7.4339113e+000
7.9671707e+000
8.4412441e+000
8.8610764e+000
9.1434689e+000
9.3442287e+000
9.4013090e+000
9.4062519e+000
9.3728924e+000
9.3402786e+000
9.3746338e+000
9.4308720e+000
9.5845127e+000
9.7490320e+000
9.9519186e+000
1.0135085e+001
1.0229577e+001
1.0293434e+001
1.0262691e+001
1.0246063e+001
1.0269107e+001
1.0335540e+001
1.0484207e+001
1.0652469e+001
1.0849054e+001
1.1024400e+001
1.1166451e+001
1.1190228e+001
1.1094646e+001
1.0839585e+001
1.0470371e+001
1.0052369e+001
9.6071911e+000
9.1471910e+000
8.6740065e+000
8.1208801e+000
7.5416579e+000
6.9112797e+000
6.2772694e+000
5.6997123e+000
5.1378450e+000
4.7041979e+000
4.2808824e+000
3.9198995e+000
3.5456820e+000
3.1128786e+000
2.6661720e+000
2.1787970e+000
1.7291533e+000
1.3696017e+000
1.0749679e+000
8.9501280e-001
7.5231981e-001
6.6039419e-001
5.8620411e-001
5.3035742e-001
4.7750252e-001
4.2557269e-001
3.4786737e-001
2.5552619e-001
1.7913651e-001
1.1619328e-001
1.7702916e-001
2.7927601e-001
4.1627017e-001
5.5312747e-001
5.2283663e-001
4.6807602e-001
3.1012279e-001
1.5290074e-001
6.6239446e-002
5.9346040e-004
3.8482249e-003
1.2835667e-001
4.8641598e-001
8.8122571e-001
1.3823690e+000
1.8346744e+000
2.1815705e+000
2.4615726e+000
2.6349936e+000
2.8023019e+000
2.9614954e+000
3.0843291e+000
3.1720157e+000
3.1721201e+000
3.1106658e+000
3.0536795e+000
3.0012779e+000
3.1294971e+000
3.3286572e+000
3.7283902e+000
4.1806645e+000
4.5452027e+000
4.8952742e+000
5.0169001e+000
