Image.
>Pix99999.
  .
5555
5555
2300
900
5555
2
1
0
701
5555
1.3533001e-001
1.3814598e-001
1.4095196e-001
1.4376791e-001
1.4658388e-001
1.4939985e-001
1.5221582e-001
1.5503180e-001
1.5784776e-001
1.6066374e-001
1.6347970e-001
1.6629568e-001
1.6911165e-001
1.7192762e-001
1.7474359e-001
1.7755957e-001
1.8036577e-001
1.8318151e-001
1.8599749e-001
1.8881345e-001
1.9162942e-001
1.9444540e-001
1.9726136e-001
2.0007734e-001
2.0289332e-001
2.0570928e-001
7.9607353e-002
2.8827901e-003
-7.8996480e-002
-1.0845892e-001
-1.3022600e-001
-3.9818119e-002
6.0981989e-002
2.1395071e-001
3.5259664e-001
3.5675400e-001
3.2791620e-001
1.7924030e-001
3.9303347e-002
-5.4624259e-002
-1.0634428e-001
-7.1504384e-002
-3.7529059e-002
-1.3268673e-002
-4.0282466e-002
-1.3047476e-001
-2.3309842e-001
-3.4378231e-001
-4.2338049e-001
-4.7932848e-001
-5.2973574e-001
-5.7790631e-001
-6.2726986e-001
-6.7725670e-001
-6.8996483e-001
-6.9052571e-001
-6.4936757e-001
-5.9877747e-001
-5.9505939e-001
-5.9921157e-001
-6.6878319e-001
-7.4078572e-001
-7.7221364e-001
-7.9138577e-001
-7.6249379e-001
-7.3411977e-001
-7.2488207e-001
-7.3671430e-001
-7.9761952e-001
-8.6357838e-001
-9.2957097e-001
-9.5935410e-001
-9.3667954e-001
-8.9200389e-001
-8.2874310e-001
-7.5810790e-001
-6.8271142e-001
-5.7745886e-001
-4.5186615e-001
-3.8234213e-001
-3.4445170e-001
-4.3843114e-001
-5.8649486e-001
-7.2013634e-001
-8.4756565e-001
-8.6932147e-001
-8.6668515e-001
-8.7112904e-001
-8.7707573e-001
-8.8530165e-001
-8.9085174e-001
-8.7329221e-001
-8.6503720e-001
-9.1222239e-001
-9.7417194e-001
-1.0562426e+000
-1.1347578e+000
-1.1990670e+000
-1.2703940e+000
-1.3570129e+000
-1.4169143e+000
-1.4391760e+000
-1.4199866e+000
-1.3634229e+000
-1.3431463e+000
-1.3566700e+000
-1.3834145e+000
-1.4157404e+000
-1.3917074e+000
-1.3379380e+000
-1.3145871e+000
-1.3055893e+000
-1.3373281e+000
-1.3818388e+000
-1.3496032e+000
-1.3001980e+000
-1.3123566e+000
-1.3517964e+000
-1.5408998e+000
-1.7507720e+000
-1.9118115e+000
-2.0366437e+000
-2.0680344e+000
-2.0765646e+000
-2.0761719e+000
-2.0680785e+000
-2.0497539e+000
-2.0360315e+000
-2.0304496e+000
-2.0527847e+000
-2.1044958e+000
-2.1535482e+000
-2.1951005e+000
-2.2175229e+000
-2.2272260e+000
-2.2066650e+000
-2.1691716e+000
-2.0248322e+000
-1.8269340e+000
-1.6062586e+000
-1.3780000e+000
-1.3432800e+000
-1.3725652e+000
-1.5374084e+000
-1.7346331e+000
-1.9038807e+000
-2.0599341e+000
-2.1787841e+000
-2.2738755e+000
-2.3136659e+000
-2.3191214e+000
-2.2671802e+000
-2.2253435e+000
-2.2319219e+000
-2.3049300e+000
-2.4650102e+000
-2.6263897e+000
-2.7611897e+000
-2.8154967e+000
-2.7893579e+000
-2.6914799e+000
-2.5453570e+000
-2.3392615e+000
-2.0962911e+000
-1.8967491e+000
-1.7287686e+000
-1.7510234e+000
-1.8688095e+000
-2.0358400e+000
-2.2181497e+000
-2.3304913e+000
-2.4159312e+000
-2.5015948e+000
-2.5810711e+000
-2.6272514e+000
-2.6645501e+000
-2.7060390e+000
-2.7795601e+000
-2.9367437e+000
-3.1124568e+000
-3.2633514e+000
-3.3596625e+000
-3.3703361e+000
-3.3233721e+000
-3.2330327e+000
-3.0525355e+000
-2.7756925e+000
-2.3981798e+000
-1.9342525e+000
-1.5790790e+000
-1.3319257e+000
-1.2588022e+000
-1.3007457e+000
-1.4001443e+000
-1.5251992e+000
-1.7564186e+000
-2.0420401e+000
-2.3189640e+000
-2.5862317e+000
-2.5993760e+000
-2.5011287e+000
-2.2740247e+000
-2.0252223e+000
-1.9550380e+000
-2.0115108e+000
-2.3036437e+000
-2.6820128e+000
-3.0522954e+000
-3.3489439e+000
-3.4878812e+000
-3.4662299e+000
-3.2644715e+000
-2.8820760e+000
-2.3263099e+000
-1.8721726e+000
-1.5940964e+000
-1.7179372e+000
-2.1959610e+000
-2.7479355e+000
-3.2907376e+000
-3.6288116e+000
-3.8177438e+000
-3.7398303e+000
-3.5091383e+000
-3.0322120e+000
-2.4330678e+000
-2.0484030e+000
-1.8007262e+000
-1.9677405e+000
-2.3107781e+000
-2.5401814e+000
-2.6461360e+000
-2.4296834e+000
-2.0535498e+000
-1.6072549e+000
-1.2674457e+000
-1.2597210e+000
-1.5021821e+000
-1.9879940e+000
-2.4790912e+000
-2.8342915e+000
-2.9770513e+000
-2.8936117e+000
-2.7105565e+000
-2.4935744e+000
-2.2860498e+000
-2.0972440e+000
-1.8498057e+000
-1.5516783e+000
-1.1938124e+000
-7.9940498e-001
-5.0892824e-001
-2.8681439e-001
-3.4614927e-001
-5.6596249e-001
-8.0960268e-001
-1.0379541e+000
-1.0564380e+000
-9.1951913e-001
-5.5927825e-001
-4.2060003e-002
6.3418257e-001
1.2749754e+000
1.5946546e+000
1.5874302e+000
1.1862414e+000
6.9698584e-001
3.6474368e-001
1.0040428e-001
-1.7808920e-001
-3.0626801e-001
-2.1574053e-001
3.1413913e-001
1.2764615e+000
2.3250294e+000
3.3314285e+000
3.7518473e+000
3.6441252e+000
3.4200697e+000
3.1841810e+000
3.2648001e+000
3.5770335e+000
3.4590316e+000
3.0082741e+000
2.0326560e+000
7.8250754e-001
-4.5262545e-002
-4.2096040e-001
1.6712976e-001
1.5668299e+000
3.5960884e+000
5.6443610e+000
6.8942509e+000
7.6405506e+000
8.1695261e+000
9.0272989e+000
1.0677582e+001
1.3255899e+001
1.6769268e+001
2.0595837e+001
2.4385571e+001
2.7517519e+001
2.9838177e+001
3.2062145e+001
3.4416702e+001
3.7751286e+001
4.2042156e+001
4.6777000e+001
5.1778439e+001
5.5806980e+001
5.8993343e+001
6.2274872e+001
6.5712128e+001
6.9804276e+001
7.4344391e+001
7.8659950e+001
8.2750580e+001
8.6509888e+001
9.0003357e+001
9.3320351e+001
9.6503029e+001
9.9597778e+001
1.0233460e+002
1.0440634e+002
1.0487771e+002
1.0309464e+002
9.9878860e+001
9.6005371e+001
9.2053757e+001
8.8345741e+001
8.4258598e+001
7.9581253e+001
7.4647438e+001
6.9618835e+001
6.5064964e+001
6.1036098e+001
5.7022560e+001
5.2937710e+001
4.8708878e+001
4.4355392e+001
4.0104141e+001
3.6012005e+001
3.2401337e+001
2.9306551e+001
2.6748623e+001
2.4679701e+001
2.2875261e+001
2.1340248e+001
2.0043743e+001
1.9015684e+001
1.8257500e+001
1.7740623e+001
1.7397217e+001
1.7188711e+001
1.7063974e+001
1.7097900e+001
1.7322937e+001
1.7858181e+001
1.8736778e+001
2.0027197e+001
2.1735172e+001
2.3595314e+001
2.5531918e+001
2.7218519e+001
2.8593920e+001
2.9870371e+001
3.1077545e+001
3.2626564e+001
3.4619781e+001
3.7474663e+001
4.1103745e+001
4.4375721e+001
4.7155823e+001
4.9108601e+001
5.0448765e+001
5.2005287e+001
5.3774601e+001
5.5692009e+001
5.7115219e+001
5.7192909e+001
5.5973198e+001
5.3735329e+001
5.1245384e+001
4.9227894e+001
4.7720432e+001
4.6730549e+001
4.5984737e+001
4.5340408e+001
4.4160633e+001
4.2175449e+001
3.9741787e+001
3.6920048e+001
3.4396400e+001
3.2305035e+001
2.9899454e+001
2.7017744e+001
2.3812771e+001
2.0328182e+001
1.7424795e+001
1.5208500e+001
1.3229571e+001
1.1497149e+001
9.8462429e+000
8.2551908e+000
6.6540675e+000
5.0123706e+000
3.2760680e+000
1.6654398e+000
4.7390789e-001
-1.3977091e-001
2.8070807e-004
7.8002238e-001
2.0192947e+000
3.1818581e+000
3.8950326e+000
4.3641424e+000
4.6282725e+000
5.0575356e+000
5.8427591e+000
6.7680435e+000
7.8262601e+000
8.4096069e+000
8.2611027e+000
7.7642155e+000
6.8205266e+000
5.9320464e+000
5.1411090e+000
4.5407839e+000
4.2043395e+000
4.0999184e+000
4.2118554e+000
4.2894320e+000
4.2542281e+000
3.9902942e+000
3.5944881e+000
3.3050427e+000
3.2149365e+000
3.4264338e+000
3.8187788e+000
4.2433758e+000
4.5292602e+000
4.4867339e+000
4.3220668e+000
4.1319504e+000
4.0727949e+000
4.2751608e+000
4.6295314e+000
5.1824903e+000
5.7958798e+000
6.4784865e+000
7.0444717e+000
7.3878579e+000
7.4735818e+000
7.1634641e+000
6.7327728e+000
6.1341500e+000
5.5103550e+000
4.8741651e+000
4.3310108e+000
3.9279633e+000
3.6981885e+000
3.6190295e+000
3.5529001e+000
3.4683018e+000
3.2895863e+000
3.0516992e+000
2.7894638e+000
2.4791410e+000
2.0969925e+000
1.6619840e+000
1.1856952e+000
7.4538922e-001
3.9829963e-001
1.2204751e-001
-6.6127598e-002
-1.7999285e-001
-9.2217438e-002
1.4471832e-001
6.4932024e-001
1.0990889e+000
1.4124829e+000
1.5091964e+000
1.2747762e+000
1.0602601e+000
9.1174936e-001
9.2652869e-001
1.1623180e+000
1.5202702e+000
2.0022571e+000
2.4981227e+000
2.9521301e+000
3.2333369e+000
3.3248634e+000
3.2136536e+000
2.9754748e+000
2.7174606e+000
2.4876750e+000
2.3649170e+000
2.3120580e+000
2.3409433e+000
2.3936572e+000
2.4520612e+000
2.5016556e+000
2.5303824e+000
2.5441999e+000
2.5300465e+000
2.5035634e+000
2.4566998e+000
2.4194858e+000
2.4103463e+000
2.4425228e+000
2.5528500e+000
2.7163405e+000
2.9643936e+000
3.2499897e+000
3.5916035e+000
3.9470708e+000
4.3189621e+000
4.6723461e+000
4.9990354e+000
5.2872801e+000
5.5497541e+000
5.8239341e+000
6.1220665e+000
6.4773202e+000
6.8530250e+000
7.2101517e+000
7.5302563e+000
7.7557411e+000
7.9386568e+000
8.0655079e+000
8.1665783e+000
8.2141962e+000
8.2246370e+000
8.1296167e+000
7.9947872e+000
7.7494469e+000
7.4496593e+000
7.0192795e+000
6.5422282e+000
5.9797916e+000
5.4367261e+000
4.9294319e+000
4.4558916e+000
4.0235395e+000
3.5737715e+000
3.1056039e+000
2.6334288e+000
2.1696913e+000
1.7602543e+000
1.3955786e+000
1.0602411e+000
7.4312919e-001
4.3312448e-001
1.4611785e-001
-5.7660937e-002
-2.1688721e-001
-3.0432481e-001
-3.6997676e-001
-4.1560286e-001
-4.4344598e-001
-4.1186127e-001
-3.7526578e-001
-3.3068177e-001
-2.9520035e-001
-2.8246415e-001
-2.5193551e-001
-1.7713340e-001
-8.9578927e-002
1.8684022e-002
1.0608203e-001
1.5487537e-001
1.7116594e-001
1.4269771e-001
9.8400101e-002
4.1584250e-002
5.3514130e-003
-9.6698869e-003
-5.8457674e-003
1.1176078e-002
4.1613460e-002
1.0305437e-001
2.9777601e-001
5.7526028e-001
1.0181842e+000
1.4980600e+000
1.9326726e+000
2.3291557e+000
2.5667279e+000
2.7844129e+000
2.9742143e+000
3.1692393e+000
3.3872337e+000
3.6016827e+000
3.8054519e+000
4.0099649e+000
4.2155805e+000
4.4110999e+000
4.5865278e+000
4.7539220e+000
4.9117999e+000
5.0899525e+000
5.2923741e+000
5.4905663e+000
5.6835299e+000
5.8667450e+000
6.0465317e+000
6.2568784e+000
6.4867921e+000
6.7332201e+000
6.9824343e+000
7.2002964e+000
7.3935895e+000
7.4808040e+000
7.5267572e+000
7.4395227e+000
7.3343959e+000
7.2231164e+000
7.1276894e+000
7.1368375e+000
7.1435199e+000
7.1358500e+000
7.0829268e+000
6.8853674e+000
6.6703844e+000
6.4199820e+000
6.2274928e+000
6.1462107e+000
6.1039915e+000
6.1139574e+000
6.0782399e+000
5.9814010e+000
5.7899885e+000
5.5070033e+000
5.1490331e+000
4.7464089e+000
4.4147377e+000
4.1324720e+000
3.9783354e+000
3.8692312e+000
3.7101970e+000
3.5240307e+000
3.1867898e+000
2.8192673e+000
2.3990760e+000
1.9803315e+000
1.6318095e+000
1.2983677e+000
1.0659947e+000
8.6192572e-001
7.8240502e-001
7.1741414e-001
6.9459176e-001
6.1534113e-001
4.0631929e-001
1.6952482e-001
-1.1186823e-001
-3.1992298e-001
-4.2853418e-001
-4.9049363e-001
-5.0377399e-001
-5.1272029e-001
-5.1620692e-001
-4.8560861e-001
-4.3392760e-001
-3.5936999e-001
-2.7510691e-001
-1.9907625e-001
-1.2375573e-001
-2.0699978e-002
8.7403871e-002
1.6532850e-001
2.3412919e-001
1.6750431e-001
9.6346304e-002
3.7394036e-002
2.0622499e-003
6.5133467e-002
2.2142029e-001
5.2543348e-001
8.2724398e-001
1.1202482e+000
1.3463626e+000
1.4284021e+000
1.4295789e+000
1.3031828e+000
1.2338940e+000
1.2374759e+000
1.4492514e+000
1.8542005e+000
2.2609415e+000
2.6658013e+000
2.8040578e+000
2.7997520e+000
2.7348218e+000
2.6453114e+000
2.7170410e+000
2.8288691e+000
2.8915551e+000
2.9452381e+000
2.6923001e+000
