Image.
>Pix99999.
  .
5555
5555
2300
900
5555
2
1
0
701
5555
2.4409001e-001
2.4916275e-001
2.5424546e-001
2.5931820e-001
2.6440090e-001
2.6947370e-001
2.7455637e-001
2.7962920e-001
2.8471184e-001
2.8978467e-001
2.9486728e-001
2.9994017e-001
3.0502275e-001
3.1009564e-001
3.1517819e-001
3.2025114e-001
3.2533365e-001
3.3040661e-001
3.3548909e-001
3.4056211e-001
3.4564456e-001
3.5071760e-001
3.5580003e-001
3.6087307e-001
3.6595547e-001
3.7102857e-001
1.4388907e-001
5.2117715e-003
-1.3422720e-001
-9.6341118e-002
-3.2263029e-002
7.0637852e-002
1.7219713e-001
1.8189968e-001
1.8002832e-001
1.2081100e-001
6.4461425e-002
3.4524601e-002
1.5438900e-002
2.5079653e-002
2.5319543e-002
1.4828671e-003
-4.9870681e-002
-1.4380071e-001
-2.3947144e-001
-3.3404601e-001
-4.0808994e-001
-4.6241403e-001
-5.0204492e-001
-5.3165144e-001
-5.1057720e-001
-4.6067199e-001
-3.6438337e-001
-2.4859674e-001
-1.2727909e-001
-4.5696255e-003
1.1495660e-001
2.3373733e-001
2.5474671e-001
2.5983578e-001
1.5496656e-001
4.3509040e-002
-2.8253641e-002
-8.4628023e-002
-7.4347541e-002
-5.7962071e-002
-4.2994861e-002
-4.0118303e-002
-6.7837715e-002
-1.1154822e-001
-1.7969301e-001
-2.4142112e-001
-2.9022223e-001
-2.9194811e-001
-2.4215284e-001
-1.7787251e-001
-1.0554325e-001
-9.4610944e-002
-1.2696642e-001
-1.7421176e-001
-2.2716543e-001
-2.2674628e-001
-2.0359784e-001
-1.7229325e-001
-1.3904400e-001
-1.2962678e-001
-1.2579246e-001
-1.2530746e-001
-1.2585080e-001
-1.3650030e-001
-1.5179114e-001
-1.9106470e-001
-2.4084029e-001
-3.2176608e-001
-4.0770397e-001
-4.9499872e-001
-5.5946392e-001
-5.7310057e-001
-5.6801599e-001
-5.4410899e-001
-5.3206718e-001
-5.3919578e-001
-5.4830998e-001
-5.5657935e-001
-5.5534494e-001
-5.4631799e-001
-5.0260901e-001
-4.3670338e-001
-3.4811056e-001
-2.4913749e-001
-2.1665287e-001
-2.1233200e-001
-2.3199280e-001
-2.5847176e-001
-2.2123399e-001
-1.6881371e-001
-1.3940136e-001
-1.2108146e-001
-1.6926308e-001
-2.3334420e-001
-3.1274027e-001
-3.9786711e-001
-4.9286035e-001
-5.9056824e-001
-6.9042128e-001
-7.7435148e-001
-8.2662225e-001
-8.5624743e-001
-8.6069214e-001
-8.5869676e-001
-8.5451424e-001
-8.2967257e-001
-7.8520954e-001
-7.4014741e-001
-6.9744891e-001
-7.2416824e-001
-7.9515040e-001
-8.6462164e-001
-9.2989117e-001
-9.0616494e-001
-8.4512001e-001
-7.9887545e-001
-7.5878763e-001
-7.9322702e-001
-8.4826255e-001
-9.1948724e-001
-9.9517155e-001
-1.0735680e+000
-1.1491063e+000
-1.2098459e+000
-1.2562571e+000
-1.2708547e+000
-1.2772319e+000
-1.2822727e+000
-1.2953900e+000
-1.3223907e+000
-1.3395914e+000
-1.3386438e+000
-1.3069156e+000
-1.2453685e+000
-1.1564599e+000
-1.0483830e+000
-8.9782244e-001
-7.1780694e-001
-5.7026440e-001
-4.4675800e-001
-4.9614596e-001
-6.3456279e-001
-8.1044561e-001
-9.9761003e-001
-1.0680100e+000
-1.0955729e+000
-1.1180416e+000
-1.1440789e+000
-1.2182280e+000
-1.3083000e+000
-1.4014153e+000
-1.4934635e+000
-1.5764809e+000
-1.6548054e+000
-1.7275915e+000
-1.7971327e+000
-1.8639879e+000
-1.9232247e+000
-1.9721560e+000
-1.9443507e+000
-1.8203712e+000
-1.5598902e+000
-1.1787097e+000
-8.2929075e-001
-5.3424531e-001
-3.8088092e-001
-3.2626846e-001
-3.3092400e-001
-3.6181673e-001
-4.8785150e-001
-6.6364163e-001
-8.6720049e-001
-1.0808243e+000
-1.1299055e+000
-1.1062286e+000
-9.8333812e-001
-8.3609343e-001
-7.8408140e-001
-8.0278116e-001
-9.6710533e-001
-1.1971134e+000
-1.4617393e+000
-1.7063005e+000
-1.8757252e+000
-1.9375700e+000
-1.8502053e+000
-1.5976263e+000
-1.1713005e+000
-7.4912560e-001
-3.9814109e-001
-3.3205697e-001
-5.4353666e-001
-9.0317917e-001
-1.3319473e+000
-1.6621714e+000
-1.9047592e+000
-1.9361480e+000
-1.8377048e+000
-1.5667520e+000
-1.2068821e+000
-9.9884629e-001
-8.8291341e-001
-1.0438790e+000
-1.3263944e+000
-1.5417129e+000
-1.6791149e+000
-1.5756308e+000
-1.3334771e+000
-9.7867143e-001
-6.5158504e-001
-5.2700156e-001
-5.8368689e-001
-8.4834218e-001
-1.1636510e+000
-1.4278886e+000
-1.5785927e+000
-1.5931171e+000
-1.5287352e+000
-1.4233966e+000
-1.2955251e+000
-1.1567677e+000
-1.0080942e+000
-8.5356605e-001
-6.9915223e-001
-5.4608428e-001
-3.6764863e-001
-1.7022200e-001
-4.8080590e-002
2.5454216e-002
-1.2694638e-002
-1.0912424e-001
-1.6631691e-001
-1.7638336e-001
-2.3175955e-002
2.3908669e-001
5.9532470e-001
9.2140752e-001
1.0062604e+000
9.0156019e-001
6.2179029e-001
3.3615479e-001
1.9556822e-001
6.3301601e-002
-1.5845406e-001
-3.1492701e-001
-3.3016318e-001
-4.1519761e-002
5.5729920e-001
1.2479473e+000
1.9355536e+000
2.1973805e+000
2.0562379e+000
1.7467543e+000
1.3646778e+000
1.2947400e+000
1.4721149e+000
1.5859983e+000
1.6217270e+000
1.2406901e+000
6.0503030e-001
1.2198685e-001
-1.6649213e-001
1.1869687e-001
9.0824008e-001
2.0392914e+000
3.1708343e+000
3.8431292e+000
4.2444544e+000
4.5837040e+000
5.1778193e+000
6.3114605e+000
8.2130461e+000
1.0967009e+001
1.4422465e+001
1.8386000e+001
2.2047710e+001
2.5107191e+001
2.7890793e+001
3.0565708e+001
3.4080791e+001
3.8471504e+001
4.3416553e+001
4.8725719e+001
5.3045586e+001
5.6491516e+001
5.9983456e+001
6.3608109e+001
6.7943283e+001
7.2781883e+001
7.7423950e+001
8.1848061e+001
8.5932068e+001
8.9714874e+001
9.3254761e+001
9.6550629e+001
9.9602806e+001
1.0219820e+002
1.0409940e+002
1.0464349e+002
1.0333215e+002
1.0079675e+002
9.7673271e+001
9.4324562e+001
9.0997223e+001
8.7202896e+001
8.2791306e+001
7.8156029e+001
7.3464615e+001
6.9053093e+001
6.4959694e+001
6.0712200e+001
5.6259357e+001
5.1798061e+001
4.7359871e+001
4.3205200e+001
3.9361195e+001
3.5981808e+001
3.3079250e+001
3.0619879e+001
2.8565191e+001
2.6726883e+001
2.5118904e+001
2.3731955e+001
2.2607555e+001
2.1770000e+001
2.1214638e+001
2.0894056e+001
2.0757830e+001
2.0730864e+001
2.0825308e+001
2.1037281e+001
2.1447321e+001
2.2085840e+001
2.3053596e+001
2.4374313e+001
2.5906366e+001
2.7594997e+001
2.9140224e+001
3.0477680e+001
3.1701351e+001
3.2830082e+001
3.4277386e+001
3.6155243e+001
3.8966217e+001
4.2669373e+001
4.6118870e+001
4.9107544e+001
5.1078129e+001
5.2169109e+001
5.3205963e+001
5.4210186e+001
5.5239655e+001
5.5934563e+001
5.5776257e+001
5.4799000e+001
5.3188358e+001
5.1368343e+001
4.9792206e+001
4.8408463e+001
4.7166149e+001
4.5829517e+001
4.4254318e+001
4.2316750e+001
3.9945168e+001
3.7606129e+001
3.5452522e+001
3.3487518e+001
3.1736202e+001
2.9493723e+001
2.6580999e+001
2.3465841e+001
2.0187754e+001
1.7468981e+001
1.5398100e+001
1.3501715e+001
1.1789857e+001
1.0120000e+001
8.4766588e+000
6.7986445e+000
5.0959392e+000
3.4027920e+000
1.8763156e+000
7.4226987e-001
9.2672534e-002
3.0806780e-002
5.4885739e-001
1.5140778e+000
2.5169439e+000
3.2765663e+000
3.8461642e+000
4.2254772e+000
4.6906013e+000
5.3855281e+000
6.1928048e+000
7.1121202e+000
7.7326784e+000
7.8677192e+000
7.7534847e+000
7.3037252e+000
6.8353143e+000
6.3483062e+000
5.9027848e+000
5.5236225e+000
5.2307167e+000
5.0234184e+000
4.8000941e+000
4.5415120e+000
4.2195654e+000
3.8793080e+000
3.6314864e+000
3.5129199e+000
3.5576265e+000
3.7340202e+000
3.9924316e+000
4.2658682e+000
4.4824090e+000
4.6760969e+000
4.8663101e+000
5.1009512e+000
5.4250779e+000
5.8007083e+000
6.2374887e+000
6.6659918e+000
7.0632205e+000
7.3553071e+000
7.4554024e+000
7.4278207e+000
7.1903682e+000
6.8891048e+000
6.4891300e+000
6.0404797e+000
5.5351396e+000
5.0505962e+000
4.6077576e+000
4.2388744e+000
3.9408445e+000
3.6490901e+000
3.3580222e+000
3.0528021e+000
2.7467406e+000
2.4622734e+000
2.1747181e+000
1.8480246e+000
1.4869150e+000
1.0863479e+000
6.9953758e-001
3.7722826e-001
1.1586473e-001
-5.1321372e-002
-1.4882536e-001
-1.1043544e-001
1.6799614e-002
3.0364338e-001
5.7179224e-001
7.8194517e-001
8.7468207e-001
7.6637661e-001
6.5522569e-001
5.5726111e-001
5.4965508e-001
6.7658609e-001
8.8539362e-001
1.1961474e+000
1.5530427e+000
1.9400799e+000
2.2809134e+000
2.5480616e+000
2.6917892e+000
2.7279129e+000
2.6809742e+000
2.5926526e+000
2.5133600e+000
2.4559660e+000
2.4506874e+000
2.4710572e+000
2.5167837e+000
2.5717158e+000
2.6365023e+000
2.7146881e+000
2.8249114e+000
2.9425273e+000
3.0728984e+000
3.1850955e+000
3.2569909e+000
3.3204658e+000
3.3746021e+000
3.4716725e+000
3.6462774e+000
3.8775210e+000
4.1847816e+000
4.4963784e+000
4.8068247e+000
5.0909524e+000
5.3550210e+000
5.6356230e+000
5.9457803e+000
6.3180876e+000
6.7396479e+000
7.1994343e+000
7.6752253e+000
8.1423368e+000
8.5919609e+000
8.9944773e+000
9.3496275e+000
9.5916414e+000
9.7610445e+000
9.7621317e+000
9.6867876e+000
9.4176445e+000
9.0885782e+000
8.6019526e+000
8.0901079e+000
7.5200386e+000
6.9485731e+000
6.3789287e+000
5.8372374e+000
5.3521633e+000
4.9355464e+000
4.6166711e+000
4.3387637e+000
4.0946360e+000
3.8017507e+000
3.4435394e+000
2.9858794e+000
2.4507287e+000
1.8878706e+000
1.3283331e+000
8.4904301e-001
4.2584792e-001
8.9068338e-002
-1.9749726e-001
-3.9377472e-001
-5.3074962e-001
-5.0977701e-001
-4.2999202e-001
-1.9955255e-001
4.3468922e-002
3.0001980e-001
5.2716619e-001
6.6430068e-001
7.8281146e-001
8.5749573e-001
9.3802971e-001
1.0263175e+000
1.0911371e+000
1.1081660e+000
1.0564755e+000
9.0909433e-001
7.1203440e-001
4.6982640e-001
2.6035485e-001
9.4223052e-002
1.6457312e-002
1.0108858e-002
7.5909972e-002
1.8781410e-001
3.5458153e-001
5.4847693e-001
7.7448773e-001
1.0084114e+000
1.2376454e+000
1.4643722e+000
1.6823840e+000
1.9011701e+000
2.1286614e+000
2.3494530e+000
2.5409274e+000
2.7166975e+000
2.8445368e+000
2.9833250e+000
3.1539371e+000
3.3701873e+000
3.6778102e+000
4.0196776e+000
4.4128571e+000
4.8026481e+000
5.1915760e+000
5.6028290e+000
6.0433369e+000
6.5403671e+000
7.0693846e+000
7.5218792e+000
7.8951750e+000
8.0285931e+000
8.0322971e+000
7.8771687e+000
7.6793032e+000
7.5454979e+000
7.4445295e+000
7.4797235e+000
7.5388479e+000
7.6443939e+000
7.7517061e+000
7.8558035e+000
7.9605856e+000
8.0676050e+000
8.1704178e+000
8.2611132e+000
8.3623133e+000
8.4914646e+000
8.6528740e+000
8.8712282e+000
9.0646410e+000
9.2141094e+000
9.2806301e+000
9.2477093e+000
9.1516533e+000
8.9952660e+000
8.7900562e+000
8.5474157e+000
8.2648144e+000
7.9524660e+000
7.5469780e+000
7.0917482e+000
6.4845886e+000
5.8315568e+000
5.1217093e+000
4.4117684e+000
3.8088160e+000
3.2310514e+000
2.8432467e+000
2.4654639e+000
2.1447217e+000
1.8030509e+000
1.3689443e+000
9.2928100e-001
4.7583103e-001
8.0725312e-002
-1.7788371e-001
-3.7657738e-001
-4.7094357e-001
-5.4953933e-001
-6.0604459e-001
-6.4262068e-001
-6.5837884e-001
-6.6931665e-001
-6.7423284e-001
-6.3965738e-001
-5.7622385e-001
-4.1833299e-001
-2.2148669e-001
-9.6328802e-002
-2.4074018e-003
-8.1118703e-002
-1.9451401e-001
-2.6053104e-001
-3.1467521e-001
-2.2146799e-001
-1.2331878e-001
-4.0642716e-002
1.8927082e-003
5.8011189e-002
1.4798988e-001
3.8157880e-001
6.1739111e-001
8.5810262e-001
1.0407248e+000
1.0997021e+000
1.1487657e+000
1.1836064e+000
1.2833741e+000
1.4623016e+000
1.6671257e+000
1.8966534e+000
2.1802030e+000
2.5037696e+000
2.9682658e+000
3.5062180e+000
3.9671011e+000
4.3959770e+000
4.5041375e+000
4.5276279e+000
4.4409008e+000
4.3367438e+000
4.4373002e+000
