Image.
>Pix99999.
  .
5555
5555
2300
900
5555
2
1
0
701
5555
2.3327000e-002
2.3812305e-002
2.4297612e-002
2.4782918e-002
2.5268223e-002
2.5753528e-002
2.6238834e-002
2.6724141e-002
2.7209446e-002
2.7694751e-002
2.8180057e-002
2.8665364e-002
2.9150669e-002
2.9635973e-002
3.0121280e-002
3.0606586e-002
3.1091891e-002
3.1577200e-002
3.2062501e-002
3.2547809e-002
3.3033118e-002
3.3518419e-002
3.4003727e-002
3.4489028e-002
3.4974337e-002
3.5459645e-002
6.8220827e-003
2.9030794e-003
-6.3802004e-003
-1.5760122e-002
-2.5073400e-002
-2.9963901e-002
-3.3773474e-002
-2.0492611e-002
-4.2599160e-003
2.9223541e-002
6.0154308e-002
7.5599439e-002
8.0174774e-002
5.4269336e-002
2.6889000e-002
3.5287114e-005
-2.1225359e-002
-3.3426683e-002
-3.6995661e-002
-3.0502258e-002
-6.8266541e-003
3.2759313e-002
7.0749298e-002
1.0675525e-001
1.3556714e-001
1.6033281e-001
1.9499211e-001
2.3413004e-001
2.5837338e-001
2.7766636e-001
2.6156959e-001
2.3738801e-001
2.0056526e-001
1.6219248e-001
1.4714657e-001
1.3649152e-001
1.5138416e-001
1.6539609e-001
1.6056074e-001
1.4701414e-001
1.0848326e-001
7.3370546e-002
5.3360239e-002
4.4335347e-002
5.3174999e-002
6.1525226e-002
6.6493593e-002
7.0670985e-002
7.4368827e-002
8.5829109e-002
1.0421281e-001
1.2999070e-001
1.6045684e-001
1.9176628e-001
2.2324543e-001
2.4292631e-001
2.5751358e-001
2.5659624e-001
2.5085562e-001
2.3477136e-001
2.1641408e-001
1.9771160e-001
1.7980897e-001
1.7725578e-001
1.7830800e-001
1.8958859e-001
2.0267172e-001
2.1689554e-001
2.2861855e-001
2.3232664e-001
2.2304051e-001
1.8782814e-001
1.3851559e-001
7.2032414e-002
1.1608486e-002
-3.7435804e-002
-6.6327699e-002
-7.6059707e-002
-6.4645521e-002
-3.8286399e-002
1.3810350e-004
4.5069464e-002
8.0595337e-002
1.1086653e-001
1.3188358e-001
1.4937049e-001
1.6779800e-001
1.8673123e-001
1.9543397e-001
2.0155264e-001
1.8811519e-001
1.7012531e-001
1.4047597e-001
1.1232140e-001
1.0500857e-001
1.1239230e-001
1.5889454e-001
2.1447878e-001
2.7484164e-001
3.2135358e-001
3.3975181e-001
3.4073937e-001
3.2247102e-001
3.0295143e-001
2.8501272e-001
2.7572924e-001
2.7479628e-001
2.7865839e-001
2.8591156e-001
2.9892179e-001
3.1581029e-001
3.5379624e-001
4.0280247e-001
4.5703289e-001
5.1231200e-001
5.2401286e-001
5.2011251e-001
4.6890226e-001
4.0490770e-001
3.4034041e-001
2.7902484e-001
2.4431951e-001
2.2128281e-001
2.2334710e-001
2.3433499e-001
2.5561580e-001
2.7206096e-001
2.6818058e-001
2.4630660e-001
1.9679415e-001
1.4575595e-001
1.0187099e-001
7.5024158e-002
6.7574553e-002
7.6381400e-002
9.7502664e-002
1.4043017e-001
1.9900435e-001
2.5107908e-001
2.9702812e-001
2.8272510e-001
2.3588064e-001
1.6181919e-001
7.7216849e-002
2.4398629e-002
-1.6524322e-002
-3.4696251e-002
-4.7181156e-002
-5.7208955e-002
-6.4890750e-002
-6.7176089e-002
-6.1337192e-002
-4.7183923e-002
-3.2094114e-002
-2.4640229e-002
-2.7911663e-002
-4.3028899e-002
-6.6561922e-002
-9.2833951e-002
-1.1198453e-001
-1.1764969e-001
-9.4451644e-002
-4.6711586e-002
5.7165800e-003
5.1866256e-002
6.3750736e-002
5.1021192e-002
2.1337613e-002
-1.4694664e-002
-5.2918486e-002
-9.2671275e-002
-1.2092140e-001
-1.4520738e-001
-1.2772551e-001
-9.3959287e-002
-5.0739467e-002
-9.3738521e-003
-1.2649680e-002
-3.7285447e-002
-8.8558577e-002
-1.4176869e-001
-1.7238207e-001
-1.8307926e-001
-1.6240144e-001
-1.2636401e-001
-7.3395878e-002
-2.2664342e-002
2.1362312e-002
3.6444392e-002
7.5831646e-003
-5.4104652e-002
-1.4642546e-001
-2.3878117e-001
-3.2026815e-001
-3.8507971e-001
-4.3462816e-001
-4.5841342e-001
-4.6288541e-001
-4.4996920e-001
-4.2378429e-001
-4.2622834e-001
-4.4039670e-001
-4.6648890e-001
-4.9636027e-001
-4.8349243e-001
-4.4963229e-001
-3.8204971e-001
-2.9919410e-001
-2.2393844e-001
-1.5818292e-001
-1.2963285e-001
-1.3121742e-001
-1.6284500e-001
-2.1330261e-001
-2.6534972e-001
-3.1395429e-001
-3.5184181e-001
-3.7233430e-001
-3.7866828e-001
-3.7046099e-001
-3.5258669e-001
-3.6803764e-001
-4.1204041e-001
-4.8069647e-001
-5.6266212e-001
-5.6112057e-001
-5.0426841e-001
-3.9155588e-001
-2.5498569e-001
-1.7735150e-001
-1.4073268e-001
-1.3867489e-001
-1.5702851e-001
-1.6485500e-001
-1.5794343e-001
-1.1007075e-001
-3.1003073e-002
5.5280481e-002
1.2639062e-001
1.3833214e-001
1.0673208e-001
5.6799665e-002
1.3538977e-002
-8.0960274e-002
-1.7559572e-001
-2.1389855e-001
-1.8946606e-001
-1.0618570e-001
-3.6742277e-002
-5.9159743e-003
-4.7732364e-002
-1.5995862e-001
-2.4413717e-001
-2.8846136e-001
-2.2138600e-001
-6.6001602e-002
6.0224075e-002
1.5155886e-001
1.0999926e-001
-2.2428099e-002
-1.0517374e-001
-1.2929550e-001
4.6066865e-003
2.7377257e-001
7.3352987e-001
1.3135349e+000
1.8621000e+000
2.3849545e+000
2.9108100e+000
3.5890563e+000
4.5743103e+000
6.1199865e+000
8.3460197e+000
1.1460477e+001
1.5410429e+001
1.9435610e+001
2.3187656e+001
2.6535381e+001
2.9542938e+001
3.3106178e+001
3.7316364e+001
4.2397861e+001
4.8159882e+001
5.3240429e+001
5.7668415e+001
6.1938110e+001
6.6179321e+001
7.1151749e+001
7.6657410e+001
8.2024055e+001
8.7137215e+001
9.1607834e+001
9.5474876e+001
9.8791061e+001
1.0153429e+002
1.0369081e+002
1.0503760e+002
1.0534613e+002
1.0443428e+002
1.0219714e+002
9.9237373e+001
9.6134377e+001
9.2858833e+001
8.9436371e+001
8.5398415e+001
8.0615761e+001
7.5642403e+001
7.0689072e+001
6.6033089e+001
6.1706848e+001
5.7365242e+001
5.2960102e+001
4.8740505e+001
4.4717564e+001
4.1002171e+001
3.7602825e+001
3.4592278e+001
3.1977480e+001
2.9739862e+001
2.7869593e+001
2.6263414e+001
2.4941208e+001
2.3894531e+001
2.3124529e+001
2.2590000e+001
2.2272846e+001
2.2115206e+001
2.2092384e+001
2.2158888e+001
2.2297771e+001
2.2493114e+001
2.2739260e+001
2.3033876e+001
2.3432751e+001
2.3954000e+001
2.4655096e+001
2.5535849e+001
2.6546236e+001
2.7667440e+001
2.8828285e+001
3.0028004e+001
3.1458103e+001
3.3223171e+001
3.5949154e+001
3.9695557e+001
4.3700977e+001
4.7707298e+001
5.0704754e+001
5.2733047e+001
5.4428535e+001
5.5807865e+001
5.7009727e+001
5.7847939e+001
5.8025272e+001
5.7519341e+001
5.6423138e+001
5.4968201e+001
5.3488411e+001
5.1951553e+001
5.0333797e+001
4.8494244e+001
4.6330692e+001
4.3955452e+001
4.1377750e+001
3.8994057e+001
3.6958378e+001
3.5033798e+001
3.3217377e+001
3.0911804e+001
2.7962643e+001
2.4974297e+001
2.1989954e+001
1.9498577e+001
1.7550781e+001
1.5612857e+001
1.3669111e+001
1.1636040e+001
9.5273933e+000
7.4168739e+000
5.3847580e+000
3.5797319e+000
2.0827403e+000
9.8453933e-001
3.0403826e-001
5.5158913e-002
3.4732729e-001
1.1328371e+000
2.1284540e+000
3.1519709e+000
4.0210786e+000
4.6267815e+000
5.1205792e+000
5.5540819e+000
6.0040779e+000
6.4900198e+000
6.9207220e+000
7.2359991e+000
7.4152708e+000
7.3891740e+000
7.2932534e+000
7.1023526e+000
6.8762312e+000
6.6008859e+000
6.2605882e+000
5.8317642e+000
5.2819338e+000
4.6261916e+000
3.9759963e+000
3.3739319e+000
2.9278457e+000
2.6481137e+000
2.5234835e+000
2.5445945e+000
2.6703193e+000
2.8608885e+000
3.0702319e+000
3.2631106e+000
3.4330568e+000
3.6059291e+000
3.8079050e+000
4.0579515e+000
4.3742113e+000
4.7289438e+000
5.1297674e+000
5.5319214e+000
5.9191914e+000
6.2441411e+000
6.4363918e+000
6.5135198e+000
6.4047303e+000
6.1987705e+000
5.8618021e+000
5.4810357e+000
5.0514617e+000
4.6027369e+000
4.1489792e+000
3.7046299e+000
3.2781668e+000
2.8862343e+000
2.4969735e+000
2.0719786e+000
1.6158644e+000
1.1225312e+000
6.6272599e-001
3.2525629e-001
9.3154520e-002
1.9826697e-002
2.7014945e-002
1.1688121e-001
2.4828464e-001
4.4056278e-001
6.6583401e-001
9.5201999e-001
1.2364800e+000
1.5035771e+000
1.7326559e+000
1.8689283e+000
1.9877510e+000
2.0833607e+000
2.2114072e+000
2.4037452e+000
2.6465938e+000
2.9612308e+000
3.3014543e+000
3.6650901e+000
4.0136390e+000
4.3302693e+000
4.6010423e+000
4.8129978e+000
4.9612513e+000
5.0565414e+000
5.1011686e+000
5.1194692e+000
5.1171198e+000
5.1048999e+000
5.0767579e+000
5.0412531e+000
4.9923286e+000
4.9425960e+000
4.8939238e+000
4.8492684e+000
4.8119845e+000
4.7828813e+000
4.7719717e+000
4.7757459e+000
4.8126559e+000
4.8658423e+000
4.9494557e+000
5.0421357e+000
5.1453352e+000
5.2505951e+000
5.3558035e+000
5.4640603e+000
5.5763235e+000
5.6940203e+000
5.8169503e+000
5.9446096e+000
6.0761356e+000
6.2121248e+000
6.3498001e+000
6.4815884e+000
6.6012521e+000
6.6845617e+000
6.7359867e+000
6.7164860e+000
6.6528473e+000
6.4897604e+000
6.2784319e+000
5.9433174e+000
5.5683165e+000
5.0885077e+000
4.5903215e+000
4.0502777e+000
3.5212610e+000
3.0186772e+000
2.5540979e+000
2.1589241e+000
1.8123478e+000
1.5368646e+000
1.3008322e+000
1.1106822e+000
9.3969536e-001
7.8679484e-001
6.3908815e-001
4.9889928e-001
3.7349591e-001
2.6582611e-001
1.9740850e-001
1.5767369e-001
1.6491556e-001
1.9778280e-001
2.7260816e-001
3.7266135e-001
5.3820938e-001
7.3218000e-001
1.0059609e+000
1.2880754e+000
1.5816288e+000
1.8492063e+000
2.0315921e+000
2.1633482e+000
2.1671360e+000
2.1178503e+000
1.9628489e+000
1.7822315e+000
1.5621676e+000
1.3436663e+000
1.1272200e+000
9.0754962e-001
6.8596357e-001
4.7195989e-001
2.7363545e-001
1.2858413e-001
3.4015946e-002
2.3001971e-002
6.9826536e-002
1.8327975e-001
3.2842761e-001
5.0696456e-001
6.9186640e-001
8.6348712e-001
1.0265341e+000
1.1560880e+000
1.2796781e+000
1.3870515e+000
1.4914281e+000
1.5840240e+000
1.6695064e+000
1.7330369e+000
1.7977101e+000
1.8643452e+000
1.9253013e+000
1.9713475e+000
1.9845624e+000
1.9460715e+000
1.8907938e+000
1.8158040e+000
1.7451712e+000
1.6803532e+000
1.6276236e+000
1.5883871e+000
1.5775635e+000
1.5820040e+000
1.5719811e+000
1.5486329e+000
1.4750190e+000
1.3828616e+000
1.2764286e+000
1.1683917e+000
1.0734440e+000
9.8436320e-001
9.2708653e-001
8.7463081e-001
8.4240347e-001
8.0402285e-001
7.3830295e-001
6.6534078e-001
5.7093585e-001
4.8819923e-001
4.3453929e-001
3.9705777e-001
3.8730332e-001
3.6388189e-001
3.1850481e-001
2.5295001e-001
1.6380906e-001
6.2959760e-002
-5.1240236e-002
-2.0157376e-001
-3.7835830e-001
-5.7569653e-001
-7.8046817e-001
-9.4887418e-001
-1.0984483e+000
-1.1927142e+000
-1.2679286e+000
-1.2971731e+000
-1.3179075e+000
-1.3314320e+000
-1.3483129e+000
-1.4121374e+000
-1.4786085e+000
-1.5598748e+000
-1.6295353e+000
-1.6480215e+000
-1.6464970e+000
-1.5820137e+000
-1.4904070e+000
-1.3366096e+000
-1.1712081e+000
-9.8765504e-001
-8.4843290e-001
-7.7079576e-001
-7.4511296e-001
-7.7343601e-001
-8.0717605e-001
-8.4478700e-001
-8.7346935e-001
-8.9527011e-001
-8.9732045e-001
-8.8899702e-001
-8.5398775e-001
-8.0966312e-001
-7.4289799e-001
-6.7000449e-001
-5.6134653e-001
-4.4806680e-001
-3.2538065e-001
-2.0134097e-001
-6.5188609e-002
2.4638772e-003
7.6903850e-002
2.3162542e-001
4.3280888e-001
6.1887997e-001
7.6065236e-001
8.8444245e-001
9.7037226e-001
1.0730622e+000
1.2021965e+000
1.3182141e+000
1.4171451e+000
1.4289137e+000
1.3594103e+000
1.2644843e+000
1.1526786e+000
1.1282583e+000
1.1515960e+000
1.2513194e+000
1.3818450e+000
1.5279663e+000
1.6791863e+000
1.7925076e+000
1.8999408e+000
1.9285001e+000
