Image.
>Pix99999.
  .
5555
5555
2300
900
5555
2
1
0
701
5555
9.8291999e-003
1.0033707e-002
1.0238415e-002
1.0443122e-002
1.0646834e-002
1.0851536e-002
1.1056243e-002
1.1260950e-002
1.1464668e-002
1.1669365e-002
1.1874071e-002
1.2078779e-002
1.2283486e-002
1.2487211e-002
1.2691900e-002
1.2896607e-002
1.3101314e-002
1.3305046e-002
1.3509729e-002
1.3714436e-002
1.3919143e-002
1.4123850e-002
1.4327588e-002
1.4532264e-002
1.4736971e-002
1.4941679e-002
1.8316112e-002
7.1148860e-004
-2.5763521e-002
-1.5398480e-001
-2.9718414e-001
-4.4535959e-001
-5.8865100e-001
-6.1512429e-001
-6.2614757e-001
-5.5863053e-001
-4.9520463e-001
-4.6880236e-001
-4.6446478e-001
-5.2132481e-001
-5.6346971e-001
-5.6589532e-001
-5.3851777e-001
-4.6633020e-001
-4.0547267e-001
-3.6219415e-001
-3.3329195e-001
-3.1717730e-001
-3.1751922e-001
-3.2954261e-001
-3.5210356e-001
-3.8030481e-001
-3.5775673e-001
-3.1278223e-001
-2.6713157e-001
-2.2174029e-001
-3.0076760e-001
-4.0840498e-001
-5.4441679e-001
-6.8257987e-001
-6.6885030e-001
-6.3372576e-001
-5.1442927e-001
-4.0010980e-001
-3.6020064e-001
-3.5938713e-001
-4.7477156e-001
-5.9672111e-001
-7.0576924e-001
-7.5441647e-001
-6.9096398e-001
-6.0251564e-001
-4.9464044e-001
-4.2414910e-001
-3.9805073e-001
-3.8499430e-001
-3.7935874e-001
-3.8307530e-001
-3.9277005e-001
-4.1850272e-001
-4.5262116e-001
-4.4866145e-001
-4.2828542e-001
-3.6853290e-001
-2.9667920e-001
-2.8810570e-001
-2.9449806e-001
-3.7257546e-001
-4.5951417e-001
-5.0074559e-001
-5.3006542e-001
-5.1919359e-001
-5.0819534e-001
-5.2235585e-001
-5.4516089e-001
-5.8297062e-001
-6.0469210e-001
-5.8610612e-001
-5.2072841e-001
-3.8683400e-001
-2.4115142e-001
-9.3287125e-002
-9.3855970e-003
7.9452014e-003
-4.4564389e-002
-1.4681770e-001
-2.6923051e-001
-4.0037948e-001
-5.0131118e-001
-5.8578485e-001
-6.1661971e-001
-6.2601143e-001
-5.6579638e-001
-4.8384610e-001
-3.6354244e-001
-2.3624986e-001
-2.0085183e-001
-1.9155867e-001
-2.6435861e-001
-3.4958139e-001
-4.1406372e-001
-4.6685416e-001
-4.9268842e-001
-5.0354022e-001
-4.8988360e-001
-4.6287072e-001
-4.1944879e-001
-3.9043838e-001
-3.8771674e-001
-4.0837604e-001
-4.5079800e-001
-4.7609359e-001
-4.8095241e-001
-4.6366972e-001
-4.3203622e-001
-4.1289631e-001
-4.0343428e-001
-3.9335456e-001
-3.8227996e-001
-3.5190779e-001
-3.1329799e-001
-2.7905312e-001
-2.4631155e-001
-2.3734652e-001
-2.3549503e-001
-2.4931458e-001
-2.6872778e-001
-3.0043310e-001
-3.3822253e-001
-3.9000559e-001
-4.4484928e-001
-4.9898067e-001
-5.4261971e-001
-5.6192988e-001
-5.6620723e-001
-5.5315965e-001
-5.5529290e-001
-5.8432841e-001
-6.3804454e-001
-7.1325952e-001
-7.3076117e-001
-6.9085109e-001
-5.1061136e-001
-2.3215297e-001
5.1020116e-002
3.2577908e-001
3.7604693e-001
3.0892920e-001
1.2027968e-001
-1.1482903e-001
-2.7851102e-001
-4.1279620e-001
-4.8028165e-001
-5.2423847e-001
-5.4976070e-001
-5.7275248e-001
-6.1260790e-001
-6.5915298e-001
-7.0638448e-001
-7.5074691e-001
-7.8603745e-001
-8.1795776e-001
-8.5005718e-001
-8.7040007e-001
-8.7333995e-001
-8.2383728e-001
-7.1306849e-001
-5.2470517e-001
-2.6903766e-001
-4.1037947e-002
1.4875579e-001
2.4847010e-001
2.8591651e-001
2.8509325e-001
2.6683605e-001
1.8735822e-001
7.6083198e-002
-3.6415957e-002
-1.4733320e-001
-1.4056106e-001
-8.3270714e-002
2.4169620e-002
1.3833973e-001
1.6845840e-001
1.3759857e-001
-1.4269684e-002
-2.1953104e-001
-4.4959259e-001
-6.5289074e-001
-7.7423704e-001
-8.0990100e-001
-7.4243486e-001
-5.9343934e-001
-3.7448984e-001
-1.7943147e-001
-3.8349219e-002
-2.5721572e-002
-1.2950407e-001
-2.8220445e-001
-4.5290309e-001
-6.0421431e-001
-7.3865253e-001
-7.8957051e-001
-7.8789347e-001
-6.5275526e-001
-4.4569322e-001
-3.2537627e-001
-2.6172805e-001
-4.1689807e-001
-6.6898990e-001
-8.7780130e-001
-1.0311837e+000
-1.0074511e+000
-8.7540340e-001
-6.3623220e-001
-3.9938980e-001
-2.8718114e-001
-3.1432405e-001
-5.2874178e-001
-7.9939890e-001
-1.0442171e+000
-1.1919518e+000
-1.2146339e+000
-1.1689286e+000
-1.0900577e+000
-9.8490000e-001
-8.6235905e-001
-6.9658369e-001
-4.9670178e-001
-3.0069330e-001
-1.1429851e-001
1.2089647e-002
9.8719761e-002
1.0453678e-001
6.4310811e-002
1.2639071e-002
-3.9423726e-002
-4.8069380e-002
-2.1197859e-002
7.5283952e-002
2.2033401e-001
4.1383410e-001
5.8375353e-001
6.0967469e-001
5.1862353e-001
3.1655359e-001
1.2790360e-001
6.2302269e-002
2.1842001e-002
-6.4736202e-002
-7.9918653e-002
3.0343965e-002
4.1167599e-001
1.0689069e+000
1.7696117e+000
2.4273465e+000
2.6513326e+000
2.4762590e+000
2.1488299e+000
1.7612727e+000
1.6224999e+000
1.6797942e+000
1.6553391e+000
1.5482674e+000
1.1262496e+000
5.1898301e-001
6.9472849e-002
-1.8430480e-001
8.9157552e-002
8.4104514e-001
2.0447016e+000
3.3523049e+000
4.2874231e+000
4.9681306e+000
5.5156021e+000
6.2772470e+000
7.5649157e+000
9.6083679e+000
1.2494517e+001
1.6010195e+001
1.9943714e+001
2.3514160e+001
2.6444592e+001
2.9053797e+001
3.1514423e+001
3.4723007e+001
3.8723419e+001
4.3357494e+001
4.8444000e+001
5.2711918e+001
5.6242329e+001
5.9754341e+001
6.3341599e+001
6.7640381e+001
7.2464539e+001
7.7236099e+001
8.1880814e+001
8.6129005e+001
8.9979248e+001
9.3392776e+001
9.6382912e+001
9.8975021e+001
1.0104280e+002
1.0246704e+002
1.0272829e+002
1.0146465e+002
9.9190247e+001
9.6422417e+001
9.3436462e+001
9.0416862e+001
8.6884758e+001
8.2701752e+001
7.8262558e+001
7.3741119e+001
6.9499596e+001
6.5581467e+001
6.1606441e+001
5.7522858e+001
5.3447330e+001
4.9391716e+001
4.5411541e+001
4.1541679e+001
3.8013416e+001
3.4870461e+001
3.2227680e+001
3.0056015e+001
2.8185043e+001
2.6611076e+001
2.5272617e+001
2.4181568e+001
2.3316000e+001
2.2671299e+001
2.2209543e+001
2.1917934e+001
2.1763020e+001
2.1770229e+001
2.1940485e+001
2.2297649e+001
2.2837654e+001
2.3635527e+001
2.4709143e+001
2.6022491e+001
2.7555948e+001
2.9064295e+001
3.0493519e+001
3.1785793e+001
3.2935715e+001
3.4227737e+001
3.5749279e+001
3.8046982e+001
4.1108742e+001
4.4125011e+001
4.6924286e+001
4.8923561e+001
5.0216194e+001
5.1401249e+001
5.2455173e+001
5.3376141e+001
5.3882179e+001
5.3615574e+001
5.2674744e+001
5.1304680e+001
4.9796822e+001
4.8451607e+001
4.7244339e+001
4.6147999e+001
4.5000694e+001
4.3706486e+001
4.2069008e+001
3.9986568e+001
3.7798828e+001
3.5603947e+001
3.3496361e+001
3.1498928e+001
2.9034037e+001
2.5949850e+001
2.2823750e+001
1.9734159e+001
1.7239014e+001
1.5418580e+001
1.3707286e+001
1.2111124e+001
1.0548529e+001
9.0125818e+000
7.4690027e+000
5.8940563e+000
4.2475181e+000
2.6691215e+000
1.3763955e+000
4.8173141e-001
8.3399855e-002
2.5560397e-001
1.0172042e+000
1.9386029e+000
2.7793341e+000
3.4677672e+000
3.9269338e+000
4.4035864e+000
5.0112600e+000
5.7140427e+000
6.5326200e+000
7.0937114e+000
7.2351952e+000
7.1255307e+000
6.6750827e+000
6.2086034e+000
5.7307429e+000
5.3215928e+000
5.0115161e+000
4.7935166e+000
4.6575756e+000
4.4751058e+000
4.2172503e+000
3.8614891e+000
3.4634399e+000
3.1655779e+000
3.0093503e+000
3.0325422e+000
3.2018309e+000
3.4671888e+000
3.7630999e+000
4.0223188e+000
4.2513504e+000
4.4402108e+000
4.6403470e+000
4.8858194e+000
5.1794705e+000
5.5491705e+000
5.9292560e+000
6.3095908e+000
6.5862856e+000
6.6707549e+000
6.6298823e+000
6.3903561e+000
6.1247683e+000
5.8220448e+000
5.5114646e+000
5.1923070e+000
4.8797889e+000
4.5780754e+000
4.2948399e+000
4.0181613e+000
3.7148361e+000
3.3825402e+000
3.0273595e+000
2.6562042e+000
2.2780013e+000
1.8873267e+000
1.4773989e+000
1.0751046e+000
7.1473277e-001
4.1197062e-001
2.0453283e-001
5.5411950e-002
-3.1417228e-002
-8.1739038e-002
-2.8034680e-002
1.1074013e-001
4.0765545e-001
6.8175697e-001
8.8815999e-001
9.5065421e-001
7.6784605e-001
5.6931221e-001
3.6940840e-001
2.8311428e-001
3.6652189e-001
5.6069732e-001
8.7949747e-001
1.2123245e+000
1.5299400e+000
1.7501034e+000
1.8695772e+000
1.9085515e+000
1.8922131e+000
1.8625520e+000
1.8217663e+000
1.7683580e+000
1.7024680e+000
1.6187136e+000
1.5276287e+000
1.4344202e+000
1.3485860e+000
1.2846766e+000
1.2371160e+000
1.2250865e+000
1.2207377e+000
1.2319292e+000
1.2520617e+000
1.2961346e+000
1.3772258e+000
1.5307760e+000
1.7189674e+000
1.9589725e+000
2.1913872e+000
2.4125857e+000
2.6251493e+000
2.8363299e+000
3.0783861e+000
3.3548391e+000
3.6536601e+000
3.9722164e+000
4.3004093e+000
4.6492467e+000
5.0495582e+000
5.4810500e+000
5.9339910e+000
6.3638883e+000
6.6907930e+000
6.9412684e+000
7.0336456e+000
7.0593228e+000
6.9625158e+000
6.8250389e+000
6.5947208e+000
6.3317828e+000
5.9812317e+000
5.6063457e+000
5.1747980e+000
4.7375221e+000
4.2867970e+000
3.8185782e+000
3.3161323e+000
2.7781255e+000
2.1953108e+000
1.6208714e+000
1.0662180e+000
5.6113535e-001
1.0169354e-001
-3.4959820e-001
-7.9975498e-001
-1.2696333e+000
-1.7362891e+000
-2.1424208e+000
-2.4938834e+000
-2.7290108e+000
-2.9066036e+000
-3.0038385e+000
-3.0556848e+000
-2.9976754e+000
-2.8935401e+000
-2.6632400e+000
-2.4202571e+000
-2.1554399e+000
-1.8872554e+000
-1.6071428e+000
-1.3143346e+000
-9.9310338e-001
-6.8743879e-001
-4.1616988e-001
-1.7332457e-001
1.9983426e-002
1.8256846e-001
2.9809433e-001
3.6744457e-001
3.8145822e-001
3.5122573e-001
2.7798706e-001
1.6895700e-001
4.1009467e-002
-6.3146994e-002
-1.3327941e-001
-7.7737667e-002
4.9638748e-002
3.0158389e-001
6.0044020e-001
9.6684843e-001
1.3506377e+000
1.7633440e+000
2.1716251e+000
2.5412643e+000
2.8800294e+000
3.0901778e+000
3.2632127e+000
3.3197985e+000
3.3731101e+000
3.4217582e+000
3.4986610e+000
3.6355524e+000
3.8210423e+000
4.0915713e+000
4.4473724e+000
4.9148941e+000
5.4461284e+000
6.0349231e+000
6.5969253e+000
7.1338291e+000
7.6366100e+000
8.1143703e+000
8.5578308e+000
8.9503822e+000
9.0904875e+000
9.1028442e+000
8.7879267e+000
8.4109421e+000
8.1069908e+000
7.8603201e+000
7.9664702e+000
8.1144161e+000
8.4200001e+000
8.7155914e+000
8.9664841e+000
9.1972761e+000
9.3623371e+000
9.5012379e+000
9.5760641e+000
9.6311083e+000
9.6531992e+000
9.7073059e+000
9.8093615e+000
9.9315901e+000
1.0068211e+001
1.0123348e+001
1.0097854e+001
9.9860086e+000
9.8150826e+000
9.6280346e+000
9.4264603e+000
9.1572361e+000
8.8464241e+000
8.3657284e+000
7.8321486e+000
7.2177911e+000
6.5922322e+000
5.9943881e+000
5.3988166e+000
4.8034472e+000
4.2209458e+000
3.7269096e+000
3.2566614e+000
2.8903000e+000
2.5258770e+000
2.1669481e+000
1.7992486e+000
1.4087536e+000
9.6910250e-001
4.4191429e-001
-1.2115169e-001
-7.2477943e-001
-1.2056987e+000
-1.5490743e+000
-1.6985381e+000
-1.6872112e+000
-1.5564488e+000
-1.3495595e+000
-1.0713590e+000
-7.6219636e-001
-4.7714514e-001
-2.0888966e-001
-1.3257909e-001
-1.0271265e-001
-1.9736803e-001
-3.0198839e-001
-2.8634340e-001
-2.5575617e-001
-8.4293999e-002
6.2660575e-003
1.8880111e-001
3.7255874e-001
5.6130493e-001
7.5203031e-001
9.4880861e-001
1.1588354e+000
1.3971455e+000
1.6375840e+000
1.8807635e+000
2.0878739e+000
2.2503152e+000
2.3577685e+000
2.4133456e+000
2.4157000e+000
2.3804622e+000
2.3230069e+000
2.2545450e+000
2.2692959e+000
2.3168242e+000
2.5581703e+000
2.8506532e+000
3.2824993e+000
3.7366838e+000
4.2147002e+000
