Image.
>Pix99999.
  .
5555
5555
2300
900
5555
2
1
0
701
5555
1.0065000e-001
1.0274700e-001
1.0483404e-001
1.0693100e-001
1.0902800e-001
1.1112500e-001
1.1321209e-001
1.1530900e-001
1.1740600e-001
1.1949313e-001
1.2159000e-001
1.2368700e-001
1.2577417e-001
1.2787101e-001
1.2996799e-001
1.3205521e-001
1.3415201e-001
1.3624899e-001
1.3834600e-001
1.4043327e-001
1.4252999e-001
1.4462700e-001
1.4671431e-001
1.4881100e-001
1.5090799e-001
1.5299536e-001
6.5377787e-002
2.3912357e-003
-6.2349122e-002
-8.6712323e-002
-1.0521370e-001
-1.1425737e-001
-1.2414469e-001
-1.6821226e-001
-2.2006311e-001
-3.2150447e-001
-4.3276030e-001
-5.7780629e-001
-7.1355408e-001
-8.1566846e-001
-8.8771260e-001
-8.9813232e-001
-8.8920522e-001
-8.5457742e-001
-7.9744279e-001
-7.1419621e-001
-6.0575306e-001
-4.7455195e-001
-3.7423822e-001
-2.9809478e-001
-2.6648927e-001
-2.5969449e-001
-2.9205325e-001
-3.4090352e-001
-4.5190755e-001
-5.8274734e-001
-6.5492719e-001
-7.1330154e-001
-6.8689972e-001
-6.4910972e-001
-7.0924085e-001
-7.8222936e-001
-8.9866674e-001
-1.0092233e+000
-1.0623480e+000
-1.1052536e+000
-1.1313900e+000
-1.1354182e+000
-1.0870262e+000
-1.0077477e+000
-8.7974298e-001
-7.8872055e-001
-7.5858003e-001
-7.9348129e-001
-8.9453804e-001
-9.8146105e-001
-1.0497822e+000
-1.0343050e+000
-9.6192485e-001
-8.6445910e-001
-7.5645000e-001
-7.5996673e-001
-8.1065243e-001
-9.3268174e-001
-1.0760676e+000
-1.1533307e+000
-1.2150179e+000
-1.2387007e+000
-1.2554258e+000
-1.2495570e+000
-1.2313200e+000
-1.1441491e+000
-1.0475960e+000
-9.5346659e-001
-8.8797367e-001
-9.0806401e-001
-9.6438497e-001
-1.0731329e+000
-1.1562940e+000
-1.1836846e+000
-1.1348000e+000
-9.9729520e-001
-8.7521559e-001
-7.8254539e-001
-8.1145990e-001
-9.3667501e-001
-1.0986145e+000
-1.2757775e+000
-1.3998652e+000
-1.4952588e+000
-1.5569686e+000
-1.6062727e+000
-1.5805520e+000
-1.5312651e+000
-1.4362720e+000
-1.3331543e+000
-1.3225405e+000
-1.3310459e+000
-1.3393177e+000
-1.3333130e+000
-1.2489429e+000
-1.1703433e+000
-1.1707114e+000
-1.2331783e+000
-1.4185355e+000
-1.6109500e+000
-1.7717180e+000
-1.8682781e+000
-1.8740211e+000
-1.8431052e+000
-1.7854629e+000
-1.7121042e+000
-1.6286851e+000
-1.5668350e+000
-1.5253743e+000
-1.5698379e+000
-1.6685725e+000
-1.7576034e+000
-1.8382679e+000
-1.8051128e+000
-1.7232400e+000
-1.5981525e+000
-1.4580448e+000
-1.3621417e+000
-1.2807217e+000
-1.2587879e+000
-1.2564503e+000
-1.2928560e+000
-1.3384800e+000
-1.3909206e+000
-1.4396644e+000
-1.4779558e+000
-1.5300097e+000
-1.6098155e+000
-1.7203500e+000
-1.8607279e+000
-1.9739674e+000
-2.0396867e+000
-2.0303974e+000
-1.9535382e+000
-1.8082143e+000
-1.6159140e+000
-1.3595263e+000
-1.0635948e+000
-8.2817066e-001
-6.3536358e-001
-6.5212762e-001
-7.7277774e-001
-9.4261760e-001
-1.1269860e+000
-1.2310085e+000
-1.3037313e+000
-1.3634155e+000
-1.4108528e+000
-1.4187441e+000
-1.4146249e+000
-1.4058149e+000
-1.4197118e+000
-1.4841368e+000
-1.5580119e+000
-1.6075515e+000
-1.6303853e+000
-1.6268300e+000
-1.6125044e+000
-1.6061885e+000
-1.5189536e+000
-1.3310566e+000
-1.0037951e+000
-5.4755068e-001
-1.8403524e-001
8.0246635e-002
1.2187080e-001
9.6974187e-003
-1.7135619e-001
-3.8163882e-001
-6.0616887e-001
-8.3383799e-001
-9.9368703e-001
-1.1180025e+000
-1.0473479e+000
-8.9230716e-001
-6.5724444e-001
-4.1483235e-001
-3.1469798e-001
-3.1733495e-001
-5.0669110e-001
-7.7595741e-001
-1.0722759e+000
-1.3357029e+000
-1.5098758e+000
-1.5733401e+000
-1.5109156e+000
-1.3100971e+000
-9.7622550e-001
-6.7838848e-001
-4.5165065e-001
-4.5925823e-001
-6.6951066e-001
-9.4285089e-001
-1.2349999e+000
-1.4298229e+000
-1.5568036e+000
-1.5225414e+000
-1.3987700e+000
-1.1346520e+000
-8.0805433e-001
-6.5274590e-001
-6.0742933e-001
-8.4352070e-001
-1.1992915e+000
-1.5177085e+000
-1.7657390e+000
-1.8035995e+000
-1.7105126e+000
-1.4640986e+000
-1.2281036e+000
-1.1477474e+000
-1.2401450e+000
-1.5666500e+000
-1.9404172e+000
-2.2647085e+000
-2.4353290e+000
-2.4225457e+000
-2.2947834e+000
-2.0948920e+000
-1.8555800e+000
-1.5950072e+000
-1.2935908e+000
-9.7062349e-001
-6.5742302e-001
-3.5933071e-001
-1.4566319e-001
2.3855761e-002
5.4541893e-002
1.7576700e-002
-8.5393101e-002
-2.1038908e-001
-2.9176685e-001
-3.0986273e-001
-1.1974155e-001
2.1565257e-001
6.9301343e-001
1.1235566e+000
1.2421565e+000
1.1083760e+000
7.6145667e-001
4.2779481e-001
2.7808455e-001
9.5430970e-002
-1.3010043e-001
-2.5617972e-001
-2.7365953e-001
1.9878343e-002
6.3171029e-001
1.3446167e+000
2.0718999e+000
2.3802702e+000
2.3131509e+000
2.1293581e+000
1.9040302e+000
1.9787999e+000
2.2708285e+000
2.3224134e+000
2.1775837e+000
1.5283246e+000
6.0509890e-001
-4.2829961e-002
-3.5490710e-001
1.1563325e-001
1.2269682e+000
2.8742929e+000
4.5521836e+000
5.6040988e+000
6.2715459e+000
6.7670078e+000
7.5688429e+000
9.0637674e+000
1.1446878e+001
1.4776323e+001
1.8462250e+001
2.2186857e+001
2.5262199e+001
2.7501280e+001
2.9608744e+001
3.1803137e+001
3.4902721e+001
3.8892731e+001
4.3322258e+001
4.8033840e+001
5.1985016e+001
5.5276756e+001
5.8744133e+001
6.2410740e+001
6.6656456e+001
7.1291672e+001
7.5719353e+001
7.9964127e+001
8.3982895e+001
8.7816353e+001
9.1492104e+001
9.5028229e+001
9.8425423e+001
1.0142546e+002
1.0375637e+002
1.0457331e+002
1.0332214e+002
1.0070073e+002
9.7383446e+001
9.3877945e+001
9.0458107e+001
8.6656197e+001
8.2336510e+001
7.7812752e+001
7.3236626e+001
6.8977165e+001
6.5053169e+001
6.1038681e+001
5.6872478e+001
5.2631458e+001
4.8340881e+001
4.4197285e+001
4.0243649e+001
3.6694313e+001
3.3584778e+001
3.0938862e+001
2.8725685e+001
2.6784000e+001
2.5117691e+001
2.3693886e+001
2.2539001e+001
2.1646000e+001
2.0991316e+001
2.0516582e+001
2.0155970e+001
1.9835209e+001
1.9620422e+001
1.9539274e+001
1.9734190e+001
2.0252518e+001
2.1181236e+001
2.2535744e+001
2.4101442e+001
2.5824276e+001
2.7348860e+001
2.8608040e+001
2.9751366e+001
3.0801020e+001
3.2302437e+001
3.4372993e+001
3.7401390e+001
4.1241516e+001
4.4423931e+001
4.6829269e+001
4.8334293e+001
4.9201180e+001
5.0374855e+001
5.1874786e+001
5.3655170e+001
5.5124123e+001
5.5518822e+001
5.4785801e+001
5.3035557e+001
5.0965668e+001
4.9198616e+001
4.7755253e+001
4.6639500e+001
4.5604691e+001
4.4533566e+001
4.3013527e+001
4.0904461e+001
3.8577057e+001
3.6114914e+001
3.3918640e+001
3.2037872e+001
2.9778864e+001
2.6974987e+001
2.3913830e+001
2.0663038e+001
1.7975924e+001
1.5959080e+001
1.4185857e+001
1.2651451e+001
1.1161457e+001
9.6514406e+000
7.9925885e+000
6.1673555e+000
4.2074900e+000
2.3631294e+000
9.5956701e-001
1.3188145e-001
3.9264411e-002
5.7083291e-001
1.5352949e+000
2.3956170e+000
2.8069789e+000
3.0226543e+000
3.0991390e+000
3.4088621e+000
4.1534619e+000
5.0688000e+000
6.1485801e+000
6.7668948e+000
6.6841097e+000
6.3095517e+000
5.5760078e+000
4.9180036e+000
4.3735080e+000
3.9618809e+000
3.7191188e+000
3.6034479e+000
3.5727944e+000
3.4622242e+000
3.2090027e+000
2.7827563e+000
2.2822340e+000
1.9007243e+000
1.7161652e+000
1.7959571e+000
2.0484302e+000
2.3807216e+000
2.6550114e+000
2.7332251e+000
2.7543266e+000
2.7543352e+000
2.8510602e+000
3.1323059e+000
3.5147557e+000
4.0413027e+000
4.5834680e+000
5.1315732e+000
5.5821214e+000
5.8642821e+000
5.9897718e+000
5.9000802e+000
5.7356663e+000
5.4704847e+000
5.1712394e+000
4.8301926e+000
4.5029798e+000
4.1885343e+000
3.9067829e+000
3.6225080e+000
3.3122718e+000
2.9855218e+000
2.6641920e+000
2.3767700e+000
2.1155901e+000
1.8364893e+000
1.4952058e+000
1.1159818e+000
7.2360343e-001
3.8939354e-001
1.6521046e-001
2.2585075e-002
-1.5174933e-002
-3.1858236e-003
1.4021260e-001
3.5651225e-001
6.8950284e-001
9.7828126e-001
1.1730086e+000
1.2239503e+000
1.0829529e+000
9.2997140e-001
7.8447282e-001
7.3513693e-001
8.1152272e-001
1.0084773e+000
1.3352057e+000
1.7296184e+000
2.1561100e+000
2.4995980e+000
2.7440915e+000
2.8347840e+000
2.8161860e+000
2.7156386e+000
2.5822475e+000
2.4716640e+000
2.3860140e+000
2.3610106e+000
2.3625286e+000
2.4009097e+000
2.4558296e+000
2.5410688e+000
2.6258080e+000
2.7027078e+000
2.7607319e+000
2.7795596e+000
2.7913611e+000
2.7944019e+000
2.8251429e+000
2.9053829e+000
3.0323610e+000
3.2260935e+000
3.4286635e+000
3.6488807e+000
3.8742754e+000
4.1226234e+000
4.4108858e+000
4.7392612e+000
5.0785661e+000
5.4278927e+000
5.7815561e+000
6.1493449e+000
6.5547271e+000
6.9843001e+000
7.4433804e+000
7.9055524e+000
8.3487663e+000
8.7619867e+000
9.0917912e+000
9.3669796e+000
9.5110559e+000
9.5874910e+000
9.4841337e+000
9.3179369e+000
8.9836245e+000
8.6164474e+000
8.1738968e+000
7.7207561e+000
7.2466202e+000
6.7591209e+000
6.2444878e+000
5.7038131e+000
5.1261697e+000
4.5323620e+000
3.9296000e+000
3.3581004e+000
2.8263125e+000
2.3494153e+000
1.9181215e+000
1.5190949e+000
1.1482040e+000
8.1964040e-001
5.3382105e-001
3.4941056e-001
2.2702292e-001
2.2385791e-001
2.6861545e-001
3.9509562e-001
5.3255200e-001
6.6669339e-001
7.7831560e-001
8.0613625e-001
8.1216383e-001
7.5519615e-001
6.8442142e-001
5.8003992e-001
4.7107360e-001
3.5513738e-001
2.5930202e-001
1.9624920e-001
1.4751525e-001
1.1391237e-001
6.8962321e-002
1.4742607e-002
-2.6797641e-002
-4.7862917e-002
-2.0228775e-002
4.2060435e-002
1.3577543e-001
2.8501949e-001
5.5767435e-001
9.0004885e-001
1.3585485e+000
1.8357435e+000
2.2413516e+000
2.6049359e+000
2.8145959e+000
3.0047472e+000
3.1676400e+000
3.3347564e+000
3.5206268e+000
3.7008309e+000
3.8637586e+000
4.0275502e+000
4.1941328e+000
4.3592548e+000
4.5188351e+000
4.6548862e+000
4.7584000e+000
4.8863029e+000
5.0583239e+000
5.3359571e+000
5.7246027e+000
6.1787000e+000
6.6749163e+000
7.1209950e+000
7.5210395e+000
7.8110037e+000
8.0333185e+000
8.1268501e+000
8.1632099e+000
8.0859728e+000
7.9817538e+000
7.8574905e+000
7.7425199e+000
7.7143440e+000
7.7023435e+000
7.7671571e+000
7.8111057e+000
7.7593122e+000
7.6467586e+000
7.3410678e+000
7.0283580e+000
6.7087893e+000
6.4868340e+000
6.4520278e+000
6.4834042e+000
6.6032481e+000
6.6484799e+000
6.5976849e+000
6.4292316e+000
6.1513176e+000
5.8245349e+000
5.4641223e+000
5.1075702e+000
4.7531610e+000
4.3965530e+000
4.0361733e+000
3.6372657e+000
3.2270327e+000
2.8066516e+000
2.3899720e+000
2.0381322e+000
1.6914257e+000
1.3432842e+000
9.8874831e-001
5.9211534e-001
2.1502902e-001
-7.4949294e-002
-3.4308019e-001
-5.4357350e-001
-7.5893259e-001
-1.0068134e+000
-1.2415636e+000
-1.4520389e+000
-1.6084951e+000
-1.6933720e+000
-1.7581654e+000
-1.8007828e+000
-1.8240458e+000
-1.8231857e+000
-1.6630844e+000
-1.3982457e+000
-9.5412749e-001
-4.3523881e-001
-3.1799823e-002
3.2053703e-001
3.6198473e-001
3.3168799e-001
1.6574642e-001
-9.9148881e-003
-3.1722859e-002
-4.2575996e-002
1.2121323e-002
4.8869971e-002
-2.8467774e-003
-8.3214439e-002
2.9020920e-002
2.6008087e-001
8.3792907e-001
1.4193687e+000
2.0059028e+000
2.4872680e+000
2.7984293e+000
3.0164881e+000
3.1225271e+000
3.3245039e+000
3.6196280e+000
4.1448417e+000
4.8321428e+000
5.4720125e+000
6.0826511e+000
6.4864554e+000
6.8058667e+000
6.8986750e+000
6.9281845e+000
6.7147746e+000
6.4615030e+000
6.3938999e+000
