##TITLE=Methyl Ethyl Ketone
##JCAMP-DX=4.24
##DATA TYPE=INFRARED SPECTRUM
##XUNITS=cm-1
##YUNITS=Absorbance
##FIRSTX=900
##LASTX=2300
##XYDATA=(X++(Y..Y))
2296 -0.022599
2294 -0.023079313
2292 -0.023559626
2290 -0.024038944
2288 -0.024519252
2286 -0.024999563
2284 -0.025479877
2282 -0.02596019
2280 -0.026440503
2278 -0.026919829
2276 -0.027400129
2274 -0.027881427
2272 -0.028360771
2270 -0.028838122
2268 -0.02932132
2266 -0.029812457
2264 -0.030281281
2262 -0.030718386
2260 -0.031240501
2258 -0.031882465
2256 -0.032206971
2254 -0.03208214
2252 -0.033142459
2250 -0.03587243
2248 -0.03420157
2246 -0.022070965
2244 -0.00080317719
2242 0.023680946
2240 0.035273559
2238 0.024164297
2236 0.017430171
2234 0.042533815
2232 0.086025894
2230 0.11994227
2228 0.10557406
2226 0.016713999
2224 -0.11033314
2222 -0.22086211
2220 -0.25981674
2218 -0.19341038
2216 -0.073301084
2214 0.028576339
2212 0.061271701
2210 -0.0018067406
2208 -0.11559244
2206 -0.21836415
2204 -0.26876602
2202 -0.24256761
2200 -0.15858743
2198 -0.048383258
2196 0.05822457
2194 0.13699691
2192 0.1832844
2190 0.20074703
2188 0.20190078
2186 0.20146692
2184 0.2120744
2182 0.24249533
2180 0.28862843
2178 0.3394812
2176 0.37283769
2174 0.36681482
2172 0.31544128
2170 0.22454411
2168 0.12629132
2166 0.057493798
2164 0.038591843
2162 0.076520562
2160 0.14620897
2158 0.21421461
2156 0.25658301
2154 0.2608735
2152 0.24763229
2150 0.24810743
2148 0.29121205
2146 0.39367288
2144 0.5266121
2142 0.64801085
2140 0.72702426
2138 0.74935895
2136 0.75064516
2134 0.77556992
2132 0.83358598
2130 0.9123956
2128 0.96425116
2126 0.94348592
2124 0.86420149
2122 0.762851
2120 0.67649502
2118 0.63034362
2116 0.6026597
2114 0.5623911
2112 0.51187795
2110 0.46600521
2108 0.43752876
2106 0.43263984
2104 0.43564707
2102 0.42775247
2100 0.41168538
2098 0.3985922
2096 0.39911857
2094 0.42035377
2092 0.45684543
2090 0.49806824
2088 0.53269029
2086 0.55103052
2084 0.55075091
2082 0.53426898
2080 0.51174253
2078 0.49487939
2076 0.48938727
2074 0.49791583
2072 0.52092403
2070 0.55759203
2068 0.60499048
2066 0.65877044
2064 0.71200383
2062 0.75724417
2060 0.78912038
2058 0.8041845
2056 0.8031677
2054 0.7910741
2052 0.7838496
2050 0.79838425
2048 0.83650684
2046 0.88995075
2044 0.93579859
2042 0.94967008
2040 0.92617524
2038 0.8717016
2036 0.80640227
2034 0.75255799
2032 0.71792877
2030 0.70002288
2028 0.68107516
2026 0.64353758
2024 0.59767586
2022 0.56450385
2020 0.55667496
2018 0.5744065
2016 0.58424801
2014 0.5479992
2012 0.47094619
2010 0.38040903
2008 0.3094272
2006 0.28470108
2004 0.30013907
2002 0.3346208
2000 0.36821532
1998 0.38537434
1996 0.38297215
1994 0.36419591
1992 0.33462691
1990 0.30015776
1988 0.26464081
1986 0.23066336
1984 0.19981469
1982 0.17255908
1980 0.1464034
1978 0.12105718
1976 0.11169115
1974 0.1392155
1972 0.21632427
1970 0.34268996
1968 0.48156655
1966 0.58348429
1964 0.62050146
1962 0.58410054
1960 0.49768561
1958 0.39659747
1956 0.30211499
1954 0.22573398
1952 0.1722604
1950 0.14249907
1948 0.13194369
1946 0.13338
1944 0.13874166
1942 0.14089738
1940 0.13790852
1938 0.13046125
1936 0.11863771
1934 0.10434169
1932 0.099545419
1930 0.1218897
1928 0.19019617
1926 0.31786829
1924 0.4937987
1922 0.68812078
1920 0.84670544
1918 0.9161213
1916 0.89857316
1914 0.83006579
1912 0.75721991
1910 0.71738994
1908 0.69370157
1906 0.64607733
1904 0.56549925
1902 0.4683201
1900 0.39452991
1898 0.38559946
1896 0.43908998
1894 0.52494651
1892 0.6055159
1890 0.64625919
1888 0.63498151
1886 0.57415134
1884 0.47338289
1882 0.34708944
1880 0.21797159
1878 0.11501
1876 0.074696705
1874 0.12961958
1872 0.27755544
1870 0.48668393
1868 0.68699455
1866 0.79978645
1864 0.79941207
1862 0.70142788
1860 0.55404836
1858 0.41655225
1856 0.32486942
1854 0.29963666
1852 0.36380655
1850 0.53300869
1848 0.7766664
1846 1.0298808
1844 1.2031748
1842 1.2144901
1840 1.0690697
1838 0.83136201
1836 0.57986355
1834 0.38729361
1832 0.28745154
1830 0.2823323
1828 0.34364125
1826 0.42460799
1824 0.46990794
1822 0.43220344
1820 0.3163552
1818 0.16496547
1816 0.036506779
1814 -0.016697733
1812 0.00093535986
1810 0.048305795
1808 0.090336382
1806 0.11171649
1804 0.14841186
1802 0.26198781
1800 0.47954267
1798 0.78417462
1796 1.0821893
1794 1.2452166
1792 1.2087561
1790 0.98116452
1788 0.67721701
1786 0.45506993
1784 0.36555606
1782 0.37776482
1780 0.46407905
1778 0.60766029
1776 0.78285313
1774 0.94605553
1772 1.0074555
1770 0.87386239
1768 0.58217728
1766 0.2636252
1764 0.039539941
1762 -0.017507534
1760 0.031616531
1758 0.056719374
1756 0.038435057
1754 0.050999962
1752 0.17209575
1750 0.44630259
1748 0.81192541
1746 1.1378229
1744 1.3263663
1742 1.3392055
1740 1.2475169
1738 1.1774603
1736 1.1549801
1734 1.1147667
1732 0.9672811
1730 0.6444093
1728 0.20538726
1726 -0.19557039
1724 -0.41690177
1722 -0.3565529
1720 0.014809191
1718 0.65647858
1716 1.4458061
1714 2.2188625
1712 2.8797028
1710 3.4231815
1708 3.9807639
1706 4.7805443
1704 6.0421863
1702 7.9273272
1700 10.426713
1698 13.362265
1696 16.385715
1694 19.09285
1692 21.367411
1690 23.383062
1688 25.498028
1686 28.134256
1684 31.479309
1682 35.431141
1680 39.512039
1678 43.085213
1676 46.068871
1674 48.881676
1672 51.915051
1670 55.389442
1668 59.231209
1666 63.1618
1664 67.018997
1662 70.778915
1660 74.416016
1658 77.89756
1656 81.280884
1654 84.685677
1652 88.124756
1650 91.43943
1648 94.160645
1646 95.67907
1644 95.932693
1642 95.36647
1640 94.334625
1638 92.971817
1636 91.196289
1634 88.809647
1632 85.823364
1630 82.456047
1628 78.880959
1626 75.174347
1624 71.330963
1622 67.303261
1620 63.120281
1618 58.893623
1616 54.748684
1614 50.804321
1612 47.17197
1610 43.939758
1608 41.111305
1606 38.613144
1604 36.375862
1602 34.355755
1600 32.542618
1598 30.951387
1596 29.5865
1594 28.436497
1592 27.478983
1590 26.687565
1588 26.050694
1586 25.57332
1584 25.268816
1582 25.159039
1580 25.283052
1578 25.686827
1576 26.370314
1574 27.275286
1572 28.288826
1570 29.268766
1568 30.153679
1566 30.978642
1564 31.810387
1562 32.755169
1560 34.054214
1558 36.00489
1556 38.51107
1554 41.064751
1552 43.242161
1550 44.86409
1548 46.079273
1546 47.299927
1544 48.751389
1542 50.353436
1540 51.799801
1538 52.652931
1536 52.715542
1534 52.117592
1532 51.157181
1530 50.20443
1528 49.432224
1526 48.761349
1524 48.040695
1522 47.104458
1520 45.81908
1518 44.123085
1516 42.129299
1514 40.103153
1512 38.158001
1510 36.178299
1508 33.966114
1506 31.33433
1504 28.364126
1502 25.424566
1500 22.762606
1498 20.393829
1496 18.229429
1494 16.124458
1492 13.990883
1490 11.820118
1488 9.607728
1486 7.3528447
1484 5.1495323
1482 3.1975205
1480 1.6423874
1478 0.54911768
1476 0.047261283
1474 0.31024149
1472 1.2088557
1470 2.2598341
1468 3.1455269
1466 3.8677936
1464 4.5384421
1462 5.2990327
1460 6.1682043
1458 6.9889288
1456 7.5325398
1454 7.5716057
1452 7.1205945
1450 6.4881573
1448 5.9030304
1446 5.4011073
1444 4.9715428
1442 4.5986791
1440 4.2769136
1438 4.008986
1436 3.7639387
1434 3.469785
1432 3.0867953
1430 2.6379843
1428 2.192754
1426 1.8586349
1424 1.7108537
1422 1.7594304
1420 1.9539754
1418 2.1843052
1416 2.3560257
1414 2.4261892
1412 2.4208033
1410 2.4415653
1408 2.5696099
1406 2.8293343
1404 3.2145009
1402 3.6909561
1400 4.2098279
1398 4.710011
1396 5.1288714
1394 5.4115257
1392 5.5385022
1390 5.5384879
1388 5.4407392
1386 5.2611499
1384 5.0181608
1382 4.7399268
1380 4.464911
1378 4.2370682
1376 4.0632286
1374 3.8940847
1372 3.6816721
1370 3.403255
1368 3.0664365
1366 2.711633
1364 2.3567519
1362 1.9770949
1360 1.5588681
1358 1.1226668
1356 0.71210557
1354 0.38760313
1352 0.1709473
1350 0.020254016
1348 -0.10186894
1346 -0.19899072
1344 -0.243854
1342 -0.18083543
1340 -0.00072778761
1338 0.21989787
1336 0.38233057
1334 0.3948212
1332 0.23630388
1330 -0.0039057434
1328 -0.2290808
1326 -0.37470356
1324 -0.40374622
1322 -0.31453386
1320 -0.12338647
1318 0.13445596
1316 0.40690702
1314 0.62438834
1312 0.73608977
1310 0.73323566
1308 0.63748503
1306 0.50381184
1304 0.37922502
1302 0.282417
1300 0.21612325
1298 0.16799198
1296 0.13127285
1294 0.11440894
1292 0.12536769
1290 0.16387527
1288 0.2197084
1286 0.26991594
1284 0.29921257
1282 0.31219342
1280 0.32444075
1278 0.36184716
1276 0.44434026
1274 0.5753085
1272 0.74518824
1270 0.92899942
1268 1.1071763
1266 1.2784078
1264 1.4567971
1262 1.6750047
1260 1.955508
1258 2.2934351
1256 2.6759114
1254 3.088964
1252 3.53005
1250 4.0166922
1248 4.5589008
1246 5.1424999
1244 5.7409091
1242 6.3163853
1240 6.8409028
1238 7.3108382
1236 7.7302885
1234 8.1065102
1232 8.4367962
1230 8.6975584
1228 8.8616943
1226 8.9061346
1224 8.8157673
1222 8.5910168
1220 8.2461243
1218 7.8153801
1216 7.3394055
1214 6.859951
1212 6.4041567
1210 5.9683833
1208 5.5391121
1206 5.0981655
1204 4.6317101
1202 4.1370077
1200 3.6174893
1198 3.0839555
1196 2.5536358
1194 2.0521195
1192 1.6024594
1190 1.2168207
1188 0.89881414
1186 0.63986558
1184 0.42873526
1182 0.25548324
1180 0.11472824
1178 0.010352001
1176 -0.051194999
1174 -0.063813947
1172 -0.030612839
1170 0.025725037
1168 0.081957936
1166 0.12496857
1164 0.1527569
1162 0.18168309
1160 0.22325988
1158 0.26812148
1156 0.30112714
1154 0.30613512
1152 0.27417389
1150 0.21321
1148 0.13465139
1146 0.04939054
1144 -0.02531746
1142 -0.058574468
1140 -0.027819335
1138 0.063416079
1136 0.21448028
1134 0.44416362
1132 0.75832194
1130 1.122314
1128 1.5026469
1126 1.8919363
1124 2.2920647
1122 2.7111056
1120 3.148016
1118 3.577198
1116 3.9690843
1114 4.3007503
1112 4.5704637
1110 4.8233814
1108 5.1051784
1106 5.4325848
1104 5.8010883
1102 6.171329
1100 6.5098963
1098 6.8208261
1096 7.1193428
1094 7.4258165
1092 7.7582803
1090 8.1246958
1088 8.524581
1086 8.9420166
1084 9.3513889
1082 9.7135725
1080 9.9993534
1078 10.216101
1076 10.382643
1074 10.527435
1072 10.671851
1070 10.812406
1068 10.94262
1066 11.059628
1064 11.1612
1062 11.243114
1060 11.297288
1058 11.299942
1056 11.230228
1054 11.083848
1052 10.863803
1050 10.58901
1048 10.276956
1046 9.9325361
1044 9.5526323
1042 9.1286201
1040 8.66082
1038 8.1811876
1036 7.7332897
1034 7.3692207
1032 7.1165805
1030 6.9234667
1028 6.7153478
1026 6.4118543
1024 5.964767
1022 5.4277658
1020 4.8825006
1018 4.4170332
1016 4.0933113
1014 3.8873906
1012 3.7454305
1010 3.5873842
1008 3.3492401
1006 3.0363557
1004 2.6791458
1002 2.3318129
1000 2.0391448
998 1.7977238
996 1.5906571
994 1.3952529
992 1.1928595
990 0.98229849
988 0.76836199
986 0.56108403
984 0.36991882
982 0.19869703
980 0.055759024
978 -0.03129752
976 -0.030775994
974 0.086100101
972 0.33241779
970 0.67117977
968 1.0516903
966 1.4194601
964 1.7288369
962 1.9687945
960 2.1368344
958 2.2300067
956 2.2388098
954 2.1329246
952 1.8843679
950 1.4948378
948 0.9993937
946 0.52566504
944 0.19123074
942 -0.0026739165
940 -0.080709316
938 -0.05673442
936 0.055120692
934 0.23003356
932 0.44302005
930 0.67793965
928 0.91041732
926 1.0775129
924 1.117008
922 1.0047722
920 0.74379241
918 0.40317357
916 0.063702345
914 -0.21209483
912 -0.384848
910 -0.48663598
908 -0.56210864
906 -0.63534892
904 -0.70894349
902 -0.72125465
900 -0.61014831
898 -0.37523833
896 -0.03156
