##TITLE=Methyl Ethyl Ketone
##JCAMP-DX=4.24
##DATA TYPE=INFRARED SPECTRUM
##XUNITS=cm-1
##YUNITS=Absorbance
##FIRSTX=900
##LASTX=2300
##XYDATA=(X++(Y..Y))
2296 0.041710999
2294 0.042596735
2292 0.043483462
2290 0.044369198
2288 0.045255926
2286 0.046141662
2284 0.047027398
2282 0.047914118
2280 0.048799865
2278 0.049685597
2276 0.050572317
2274 0.051461015
2272 0.052344825
2270 0.053221695
2268 0.054117057
2266 0.055039201
2264 0.055890549
2262 0.056641787
2260 0.057658643
2258 0.059046999
2256 0.059449285
2254 0.058465749
2252 0.061147001
2250 0.068997286
2248 0.063224323
2246 0.030321678
2244 0.00072424789
2242 0.0085455859
2240 0.053085092
2238 0.11976761
2236 0.1780843
2234 0.20098406
2232 0.19322692
2230 0.1679309
2228 0.13468443
2226 0.10038615
2224 0.065484077
2222 0.028546
2220 -0.01190368
2218 -0.055692732
2216 -0.096046969
2214 -0.12015314
2212 -0.098683983
2210 -0.0078321071
2208 0.13385877
2206 0.28996137
2204 0.40407404
2202 0.42868516
2200 0.37659639
2198 0.2824693
2196 0.19353858
2194 0.14841908
2192 0.1359092
2190 0.12896654
2188 0.10014305
2186 0.031492114
2184 -0.056913078
2182 -0.13419692
2180 -0.17510551
2178 -0.16502625
2176 -0.12433115
2174 -0.08525952
2172 -0.082075313
2170 -0.13840115
2168 -0.23265564
2166 -0.32630715
2164 -0.37292942
2162 -0.33756167
2160 -0.2415704
2158 -0.12736768
2156 -0.045647498
2154 -0.035998318
2152 -0.083084777
2150 -0.15143362
2148 -0.2006394
2146 -0.20076856
2144 -0.17000623
2142 -0.14101839
2140 -0.13685037
2138 -0.16742402
2136 -0.2045
2134 -0.21250284
2132 -0.18111002
2130 -0.11630823
2128 -0.052443679
2126 -0.027513543
2124 -0.053444449
2122 -0.12684564
2120 -0.22161064
2118 -0.30693924
2116 -0.36577129
2114 -0.38936651
2112 -0.38112918
2110 -0.35050407
2108 -0.31390736
2106 -0.28929207
2104 -0.29074863
2102 -0.32722789
2100 -0.39272419
2098 -0.47379726
2096 -0.54969859
2094 -0.60149854
2092 -0.62867659
2090 -0.64008719
2088 -0.65341407
2086 -0.6851055
2084 -0.73343742
2082 -0.78957808
2080 -0.84562081
2078 -0.89682734
2076 -0.94897211
2074 -1.0087001
2072 -1.0689681
2070 -1.115581
2068 -1.1287274
2066 -1.0928779
2064 -1.0181062
2062 -0.92676121
2060 -0.84952778
2058 -0.81324393
2056 -0.81701195
2054 -0.84505349
2052 -0.86845797
2050 -0.86050218
2048 -0.82446855
2046 -0.77960396
2044 -0.75752097
2042 -0.7853629
2040 -0.8519268
2038 -0.92756164
2036 -0.97565085
2034 -0.96731544
2032 -0.9153949
2030 -0.85156429
2028 -0.80956161
2026 -0.81231451
2024 -0.83761287
2022 -0.84765399
2020 -0.8236928
2018 -0.76582378
2016 -0.71288997
2014 -0.71158838
2012 -0.76989287
2010 -0.8750087
2008 -1.0050582
2006 -1.1374365
2004 -1.2598505
2002 -1.363742
2000 -1.4355628
1998 -1.4636047
1996 -1.4543785
1994 -1.4242911
1992 -1.3948451
1990 -1.3851054
1988 -1.39502
1986 -1.4146836
1984 -1.4319898
1982 -1.4373841
1980 -1.434106
1978 -1.428131
1976 -1.4118115
1974 -1.369747
1972 -1.2858701
1970 -1.1529944
1968 -1.0019772
1966 -0.87965459
1964 -0.82094479
1962 -0.8441478
1960 -0.92725676
1958 -1.032434
1956 -1.1387814
1954 -1.2368975
1952 -1.3244143
1950 -1.3986022
1948 -1.4437526
1946 -1.4410501
1944 -1.3885926
1942 -1.2977352
1940 -1.1965863
1938 -1.1179302
1936 -1.0795943
1934 -1.087132
1932 -1.1297179
1930 -1.1884699
1928 -1.2424154
1926 -1.2705407
1924 -1.2525966
1922 -1.1747985
1920 -1.0494405
1918 -0.90374017
1916 -0.76762557
1914 -0.66681439
1912 -0.60679096
1910 -0.58196872
1908 -0.58724678
1906 -0.61764449
1904 -0.6633696
1902 -0.71158832
1900 -0.74843019
1898 -0.75971556
1896 -0.73141861
1894 -0.65539902
1892 -0.54869437
1890 -0.4449797
1888 -0.38795474
1886 -0.41503
1884 -0.51641852
1882 -0.65294003
1880 -0.7781136
1878 -0.84983277
1876 -0.85262197
1874 -0.78975332
1872 -0.67768985
1870 -0.5419426
1868 -0.42033774
1866 -0.35172158
1864 -0.34970269
1862 -0.40841228
1860 -0.50571251
1858 -0.61344254
1856 -0.71324712
1854 -0.79349178
1852 -0.84199595
1850 -0.84866202
1848 -0.81718999
1846 -0.76044106
1844 -0.69379795
1842 -0.63159907
1840 -0.58065206
1838 -0.5407638
1836 -0.50176489
1834 -0.44627312
1832 -0.35043961
1830 -0.19760078
1828 -0.018853839
1826 0.12500523
1824 0.17859663
1822 0.1069475
1820 -0.064314403
1818 -0.27222082
1816 -0.45901573
1814 -0.58286935
1812 -0.6386925
1810 -0.64265281
1808 -0.60202789
1806 -0.51721352
1804 -0.39638722
1802 -0.25621489
1800 -0.12360828
1798 -0.02441694
1796 0.048132107
1794 0.11886751
1792 0.1911208
1790 0.25132069
1788 0.28816125
1786 0.29724628
1784 0.2888324
1782 0.28226915
1780 0.29434213
1778 0.33936861
1776 0.43421942
1774 0.58712018
1772 0.7567817
1770 0.86890692
1768 0.85901564
1766 0.6956827
1764 0.44629961
1762 0.22682893
1760 0.058841314
1758 -0.10012745
1756 -0.23237827
1754 -0.27569583
1752 -0.21142846
1750 -0.067550309
1748 0.093362406
1746 0.19617535
1744 0.20051599
1742 0.10805275
1740 -0.0166559
1738 -0.079447828
1736 -0.047754202
1734 0.048469502
1732 0.13155416
1730 0.11204712
1728 -0.021303006
1726 -0.2064198
1724 -0.33583361
1722 -0.280393
1720 0.07130143
1718 0.77579844
1716 1.7142115
1714 2.6537986
1712 3.453619
1710 4.1003547
1708 4.7476697
1706 5.6638827
1704 7.1036711
1702 9.2641163
1700 12.205786
1698 15.823832
1696 19.724857
1694 23.362101
1692 26.484152
1690 29.178513
1688 31.841806
1686 35.039829
1684 39.161324
1682 44.290157
1680 49.913239
1678 55.185863
1676 59.896286
1674 64.431503
1672 69.150276
1670 74.196938
1668 79.280838
1666 83.826599
1664 87.555099
1662 90.511627
1660 92.811798
1658 94.571114
1656 95.864799
1654 96.721344
1652 97.120125
1650 97.0065
1648 96.34214
1646 95.138824
1644 93.560852
1642 91.863548
1640 90.105583
1638 88.138702
1636 85.758446
1634 82.787811
1632 79.264153
1630 75.402962
1628 71.328026
1626 67.039673
1624 62.512398
1622 57.742702
1620 52.842072
1618 48.020546
1616 43.458
1614 39.280983
1612 35.587662
1610 32.44281
1608 29.829651
1606 27.65835
1604 25.845549
1602 24.334606
1600 23.098852
1598 22.135317
1596 21.436001
1594 20.983477
1592 20.758331
1590 20.74412
1588 20.939756
1586 21.356693
1584 21.999994
1582 22.87257
1580 24.013655
1578 25.497374
1576 27.384371
1574 29.696665
1572 32.358898
1570 35.206623
1568 38.086678
1566 40.883976
1564 43.533779
1562 46.05249
1560 48.642326
1558 51.589672
1556 54.706314
1554 57.32003
1552 58.964119
1550 59.56596
1548 59.3857
1546 58.897251
1544 58.27256
1542 57.300907
1540 55.72718
1538 53.400261
1536 50.516373
1534 47.59766
1532 44.997349
1530 42.778587
1528 40.862427
1526 39.077599
1524 37.255199
1522 35.268635
1520 33.078087
1518 30.750378
1516 28.435785
1514 26.321125
1512 24.421921
1510 22.546488
1508 20.494663
1506 18.148899
1504 15.610703
1502 13.196534
1500 11.110463
1498 9.3560085
1496 7.8482003
1494 6.4601011
1492 5.1287742
1490 3.8785393
1488 2.7328615
1486 1.6969085
1484 0.80185604
1482 0.11479619
1480 -0.29885891
1478 -0.37975442
1476 -0.040800005
1474 0.81177324
1472 2.1161692
1470 3.6230171
1468 5.1158342
1466 6.4891829
1464 7.7488098
1462 9.0048656
1460 10.339822
1458 11.746845
1456 13.0788
1454 14.056848
1452 14.521146
1450 14.51728
1448 14.164309
1446 13.613214
1444 12.9777
1442 12.3078
1440 11.622943
1438 10.914999
1436 10.147629
1434 9.2671652
1432 8.2803879
1430 7.2838144
1428 6.3873577
1426 5.6842093
1424 5.2170515
1422 4.9626398
1420 4.8797326
1418 4.9230247
1416 5.053443
1414 5.2441959
1412 5.4842515
1410 5.7804866
1408 6.1374936
1406 6.5488958
1404 6.9912257
1402 7.4190125
1400 7.7762041
1398 8.0010939
1396 8.0462494
1394 7.8932528
1392 7.5642591
1390 7.1300216
1388 6.6615071
1386 6.2108102
1384 5.8089395
1382 5.4597902
1380 5.1532655
1378 4.8644786
1376 4.5537033
1374 4.1682429
1372 3.6795721
1370 3.1025653
1368 2.4751401
1366 1.8523108
1364 1.2713456
1362 0.73870099
1360 0.26987311
1358 -0.095820978
1356 -0.31768528
1354 -0.36228058
1352 -0.20417371
1350 0.16655639
1348 0.7247231
1346 1.3981571
1344 2.1239161
1342 2.8677483
1340 3.5855322
1338 4.2066712
1336 4.6559687
1334 4.8680029
1332 4.8237324
1330 4.5772252
1328 4.202734
1326 3.7793851
1324 3.3784542
1322 3.052794
1320 2.8302536
1318 2.7010119
1316 2.63167
1314 2.566139
1312 2.4595361
1310 2.2971699
1308 2.0875149
1306 1.86569
1304 1.6658411
1302 1.5100211
1300 1.416786
1298 1.4040205
1296 1.4926858
1294 1.7066374
1292 2.0549653
1290 2.5178261
1288 3.0595961
1286 3.6296093
1284 4.182888
1282 4.6918278
1280 5.1368022
1278 5.5066862
1276 5.7986255
1274 6.0219049
1272 6.1974249
1270 6.3616438
1268 6.5476956
1266 6.7763195
1264 7.0608587
1262 7.4071517
1260 7.8252802
1258 8.3356972
1256 8.9582052
1254 9.7054825
1252 10.579623
1250 11.564523
1248 12.636349
1246 13.75875
1244 14.889909
1242 15.983288
1240 16.985142
1238 17.834511
1236 18.465456
1234 18.809971
1232 18.81036
1230 18.429579
1228 17.661846
1226 16.559801
1224 15.209599
1222 13.737508
1220 12.27848
1218 10.9618
1216 9.8881826
1214 9.101758
1212 8.6119642
1210 8.3864918
1208 8.3772116
1206 8.5216475
1204 8.7394686
1202 8.9212694
1200 8.9573555
1198 8.7573757
1196 8.2784786
1194 7.5697551
1192 6.7147951
1190 5.8217578
1188 4.9804735
1186 4.228014
1184 3.5802629
1182 3.0344696
1180 2.5856357
1178 2.2326021
1176 1.9703001
1174 1.7835951
1172 1.6580343
1170 1.5860938
1168 1.566168
1166 1.6044557
1164 1.6992731
1162 1.827545
1160 1.9569303
1158 2.0479312
1156 2.0666428
1154 1.9972285
1152 1.8354161
1150 1.5947865
1148 1.297748
1146 0.9779464
1144 0.67019999
1142 0.40487507
1140 0.19886628
1138 0.041149624
1136 -0.077126481
1134 -0.14509749
1132 -0.15606475
1130 -0.12400305
1128 -0.064251088
1126 0.01725883
1124 0.12386081
1122 0.27461797
1120 0.48130882
1118 0.72768348
1116 0.98153514
1114 1.1893477
1112 1.3058052
1110 1.3196318
1108 1.238624
1106 1.0985451
1104 0.94681257
1102 0.8413918
1100 0.82906961
1098 0.92029309
1096 1.1068857
1094 1.3575597
1092 1.656576
1090 2.0412445
1088 2.5460539
1086 3.161252
1084 3.8359404
1082 4.4408278
1080 4.8547373
1078 5.0301218
1076 4.9679031
1074 4.7502546
1072 4.4751654
1070 4.2286205
1068 4.071475
1066 4.0043173
1064 4.0009403
1062 4.002274
1060 3.9533503
1058 3.8330605
1056 3.6370459
1054 3.385745
1052 3.1062551
1050 2.8274281
1048 2.5785966
1046 2.387532
1044 2.2772024
1042 2.2580914
1040 2.3364961
1038 2.5164452
1036 2.79265
1034 3.1340802
1032 3.4919646
1030 3.7848427
1028 3.9386299
1026 3.9263394
1024 3.7491241
1022 3.458112
1020 3.1158895
1018 2.7836041
1016 2.5085542
1014 2.2980866
1012 2.1348238
1010 1.9572653
1008 1.7128279
1006 1.4097021
1004 1.076332
1002 0.75667244
1000 0.48225522
998 0.23440263
996 -0.01041235
994 -0.25196952
992 -0.4860726
990 -0.71411759
988 -0.9338755
986 -1.1268599
984 -1.2665761
982 -1.3146775
980 -1.249706
978 -1.1139357
976 -0.96272141
974 -0.84147632
972 -0.77873218
970 -0.75493717
968 -0.74218726
966 -0.72438103
964 -0.68889666
962 -0.62531507
960 -0.52756721
958 -0.40285736
956 -0.26650885
954 -0.15001263
952 -0.078709997
950 -0.042283282
948 -0.023423135
946 -0.011434043
944 -0.00029768422
942 0.0052941167
940 0.0019091193
938 0.00025683269
936 0.016331226
934 0.072288506
932 0.18131594
930 0.31819877
928 0.45311901
926 0.574669
924 0.6829778
922 0.80394107
920 0.96508205
918 1.1756511
916 1.4333614
914 1.7100866
912 1.9726304
910 2.1931589
908 2.3586736
906 2.5072036
904 2.6754656
902 2.8440895
900 2.9813256
898 3.0599918
896 3.0544
