Image.
>Pix99999.
  .
5555
5555
2300
900
5555
2
1
0
701
5555
5.4736999e-003
5.5874377e-003
5.7013743e-003
5.8153109e-003
5.9291488e-003
6.0428865e-003
6.1567230e-003
6.2707583e-003
6.3845972e-003
6.4980392e-003
6.6122655e-003
6.7275846e-003
6.8401680e-003
6.9485852e-003
7.0677102e-003
7.2016199e-003
7.2961561e-003
7.3356703e-003
7.5213243e-003
7.9121320e-003
7.7592144e-003
6.8419208e-003
7.9455720e-003
1.1898939e-002
8.3415229e-003
-6.8614786e-003
-2.7558886e-004
5.6317601e-002
1.2773828e-001
1.7134969e-001
1.8690242e-001
1.8729062e-001
1.8905498e-001
2.0502412e-001
2.2931029e-001
2.5476351e-001
2.9121304e-001
3.4954131e-001
4.2460212e-001
5.0317752e-001
5.5889916e-001
5.6771505e-001
5.3072381e-001
4.6180466e-001
3.9588907e-001
3.6970520e-001
4.0181494e-001
4.9146745e-001
5.8248210e-001
6.0869640e-001
5.3269213e-001
3.4317428e-001
9.7447328e-002
-1.3135758e-001
-2.9273951e-001
-3.5423386e-001
-3.2591879e-001
-2.3387834e-001
-1.1438123e-001
-3.7054899e-003
7.4182995e-002
1.0672745e-001
1.1138009e-001
1.1401970e-001
1.3525710e-001
1.8562093e-001
2.4266574e-001
2.7704522e-001
2.7611935e-001
2.3990329e-001
1.9590400e-001
1.7393684e-001
1.7553960e-001
1.8765698e-001
1.7806500e-001
1.1905572e-001
2.7492423e-002
-5.9873093e-002
-8.9355201e-002
-1.5778404e-002
1.4832428e-001
3.6484441e-001
5.7549328e-001
7.2475213e-001
7.9594040e-001
7.8959274e-001
7.1874654e-001
5.9942430e-001
4.4296011e-001
2.6520166e-001
1.0822383e-001
1.6849436e-002
6.7936298e-003
7.1415089e-002
1.5792450e-001
2.0673229e-001
2.0042412e-001
1.4541876e-001
7.8108460e-002
3.9228514e-002
4.2594288e-002
8.4370248e-002
1.3229735e-001
1.4959545e-001
1.2499274e-001
6.3386455e-002
-6.4692814e-003
-5.4197416e-002
-8.0260165e-002
-9.6852727e-002
-1.1221487e-001
-1.2944755e-001
-1.3913640e-001
-1.3252550e-001
-1.2429448e-001
-1.3576807e-001
-1.7486343e-001
-2.3757330e-001
-2.9496899e-001
-3.1605300e-001
-3.0346113e-001
-2.7619091e-001
-2.6088464e-001
-2.7825558e-001
-3.1358984e-001
-3.3935714e-001
-3.3780101e-001
-3.0164611e-001
-2.4669549e-001
-1.9739173e-001
-1.7363271e-001
-1.9001934e-001
-2.4929464e-001
-3.4627429e-001
-4.6364266e-001
-5.7685137e-001
-6.5235478e-001
-6.6056037e-001
-6.0449058e-001
-5.0671577e-001
-4.0976599e-001
-3.5355255e-001
-3.3220488e-001
-3.2277837e-001
-3.2040924e-001
-3.3191463e-001
-3.7301397e-001
-4.5363441e-001
-5.4390764e-001
-6.0201210e-001
-6.1514068e-001
-5.9074503e-001
-5.5948532e-001
-5.5455077e-001
-5.7700920e-001
-6.1200714e-001
-6.4504528e-001
-6.6459697e-001
-6.6661817e-001
-6.4722496e-001
-5.8809972e-001
-4.6896529e-001
-2.9236042e-001
-8.2312994e-002
9.5236704e-002
1.6626821e-001
1.0780359e-001
-6.3177794e-002
-2.7346721e-001
-4.3719202e-001
-5.2737159e-001
-5.5449289e-001
-5.5365002e-001
-5.6308818e-001
-5.9065568e-001
-6.2800246e-001
-6.6755575e-001
-7.0464140e-001
-7.3991746e-001
-7.7581525e-001
-8.1073344e-001
-8.4112626e-001
-8.6497664e-001
-8.8025492e-001
-8.8065189e-001
-8.5629731e-001
-7.9220510e-001
-6.7764068e-001
-5.3142381e-001
-3.8561499e-001
-2.5933215e-001
-1.6115353e-001
-9.0348125e-002
-4.5228425e-002
-3.9076179e-002
-8.5919753e-002
-1.6520801e-001
-2.3569408e-001
-2.5332779e-001
-1.8171749e-001
-1.7169997e-002
2.1602929e-001
4.5199004e-001
6.0653293e-001
6.1184430e-001
4.3079856e-001
1.1114467e-001
-2.5337887e-001
-5.7773316e-001
-7.9692024e-001
-8.9193797e-001
-8.7125772e-001
-7.4970990e-001
-5.5007541e-001
-3.2478309e-001
-1.4035222e-001
-4.8126590e-002
-7.7433340e-002
-2.0801200e-001
-3.9404273e-001
-6.0428143e-001
-8.1985044e-001
-1.0245063e+000
-1.2036747e+000
-1.3481040e+000
-1.4533678e+000
-1.5221711e+000
-1.5592470e+000
-1.5614246e+000
-1.5202508e+000
-1.4292185e+000
-1.2850261e+000
-1.0896292e+000
-8.5526955e-001
-6.2486255e-001
-4.5629677e-001
-3.8814875e-001
-4.3500572e-001
-5.6925058e-001
-7.3899758e-001
-8.9874429e-001
-1.0140730e+000
-1.0686952e+000
-1.0578681e+000
-9.7930902e-001
-8.3782148e-001
-6.6835284e-001
-5.2303785e-001
-4.4130325e-001
-4.3922102e-001
-4.7645286e-001
-4.8516610e-001
-4.3972000e-001
-3.5036135e-001
-2.3959196e-001
-1.3075288e-001
-3.1376690e-002
6.3206658e-002
1.6116272e-001
2.7209380e-001
4.0757200e-001
5.7154560e-001
7.2728342e-001
8.1301892e-001
7.8441370e-001
6.2933815e-001
4.0964019e-001
2.1841413e-001
5.9136115e-002
-1.1801396e-001
-2.8013331e-001
-3.3501199e-001
-2.3758073e-001
-2.4459958e-003
2.8258836e-001
4.9345928e-001
5.5923897e-001
4.7781020e-001
3.5310131e-001
3.3858201e-001
4.8073199e-001
7.1843112e-001
9.1117978e-001
9.0013570e-001
6.6016650e-001
2.8774798e-001
-5.9431374e-002
-1.9311510e-001
7.2668567e-002
8.6376822e-001
2.0540028e+000
3.3355708e+000
4.4623008e+000
5.3154893e+000
6.0116739e+000
6.8415871e+000
8.0999622e+000
1.0028981e+001
1.2732977e+001
1.6149290e+001
1.9918428e+001
2.3512960e+001
2.6663717e+001
2.9413408e+001
3.2125565e+001
3.5346344e+001
3.9438114e+001
4.4456383e+001
4.9884441e+001
5.4898350e+001
5.9313244e+001
6.3545788e+001
6.8004898e+001
7.2892998e+001
7.7940765e+001
8.2550705e+001
8.6379410e+001
8.9385010e+001
9.1634773e+001
9.3241341e+001
9.4312340e+001
9.4940392e+001
9.5205017e+001
9.5155212e+001
9.4727448e+001
9.3789001e+001
9.2355377e+001
9.0577911e+001
8.8544899e+001
8.6248039e+001
8.3608086e+001
8.0523941e+001
7.7025635e+001
7.3249725e+001
6.9237328e+001
6.4930214e+001
6.0314240e+001
5.5455887e+001
5.0522106e+001
4.5749508e+001
4.1324059e+001
3.7359119e+001
3.3926327e+001
3.1054001e+001
2.8680470e+001
2.6673193e+001
2.4935238e+001
2.3427496e+001
2.2160246e+001
2.1178316e+001
2.0506001e+001
2.0132328e+001
2.0019983e+001
2.0115204e+001
2.0381506e+001
2.0805908e+001
2.1382395e+001
2.2120720e+001
2.3094597e+001
2.4439251e+001
2.6284000e+001
2.8706522e+001
3.1615789e+001
3.4759163e+001
3.7896320e+001
4.0845264e+001
4.3492882e+001
4.5835999e+001
4.8120277e+001
5.0751328e+001
5.3719788e+001
5.6537071e+001
5.8708130e+001
5.9914700e+001
6.0239426e+001
6.0112179e+001
5.9727428e+001
5.8939655e+001
5.7567822e+001
5.5527760e+001
5.3032227e+001
5.0563389e+001
4.8429138e+001
4.6658314e+001
4.5155743e+001
4.3748249e+001
4.2228065e+001
4.0386837e+001
3.8134857e+001
3.5544769e+001
3.2838570e+001
3.0326445e+001
2.8076962e+001
2.5860111e+001
2.3450232e+001
2.0744965e+001
1.7896658e+001
1.5289352e+001
1.3126363e+001
1.1329520e+001
9.7470713e+000
8.2288933e+000
6.7239637e+000
5.2947383e+000
3.9838314e+000
2.7864680e+000
1.7235699e+000
8.5786140e-001
2.4568835e-001
-6.8015285e-002
7.1971118e-004
5.5936688e-001
1.5679777e+000
2.8035550e+000
4.0692415e+000
5.2642636e+000
6.3704100e+000
7.4488549e+000
8.5711918e+000
9.7816343e+000
1.1020000e+001
1.2103685e+001
1.2865103e+001
1.3206721e+001
1.3126138e+001
1.2725929e+001
1.2119566e+001
1.1398430e+001
1.0624474e+001
9.8252201e+000
9.0044231e+000
8.1519737e+000
7.2885518e+000
6.4807777e+000
5.7947717e+000
5.2769065e+000
4.9394603e+000
4.7527475e+000
4.6749449e+000
4.6642132e+000
4.7010002e+000
4.7970219e+000
4.9682708e+000
5.2257333e+000
5.5705152e+000
5.9895892e+000
6.4577584e+000
6.9316030e+000
7.3363237e+000
7.5639944e+000
7.5370641e+000
7.2439742e+000
6.7488971e+000
6.1983442e+000
5.7120404e+000
5.3365450e+000
5.0670776e+000
4.8479462e+000
4.6223898e+000
4.3510742e+000
4.0083313e+000
3.5859165e+000
3.0942681e+000
2.5656471e+000
2.0319932e+000
1.5158494e+000
1.0289574e+000
5.7240713e-001
1.6281965e-001
-1.5616274e-001
-3.4007242e-001
-3.5570925e-001
-1.9031040e-001
1.3861918e-001
5.9594297e-001
1.1326175e+000
1.7164000e+000
2.3426590e+000
2.9872780e+000
3.5828762e+000
4.0445743e+000
4.2850199e+000
4.2751040e+000
4.0810208e+000
3.7836435e+000
3.4515021e+000
3.1450830e+000
2.9125838e+000
2.7799141e+000
2.7360468e+000
2.7380500e+000
2.7078793e+000
2.5873189e+000
2.3689973e+000
2.0788710e+000
1.7775149e+000
1.5194211e+000
1.3339430e+000
1.2382911e+000
1.2391753e+000
1.3448572e+000
1.5701872e+000
1.9268888e+000
2.4159944e+000
3.0195360e+000
3.6896701e+000
4.3690176e+000
4.9977303e+000
5.5306339e+000
5.9516349e+000
6.2621512e+000
6.4833350e+000
6.6435471e+000
6.7756019e+000
6.9140053e+000
7.0944238e+000
7.3515158e+000
7.7154684e+000
8.2023563e+000
8.8046713e+000
9.5108690e+000
1.0314006e+001
1.1219522e+001
1.2248981e+001
1.3400743e+001
1.4623500e+001
1.5837608e+001
1.6938751e+001
1.7845074e+001
1.8528097e+001
1.8979029e+001
1.9197174e+001
1.9168159e+001
1.8851400e+001
1.8217974e+001
1.7279985e+001
1.6080544e+001
1.4704426e+001
1.3259445e+001
1.1874280e+001
1.0670440e+001
9.7368431e+000
9.1233253e+000
8.8086863e+000
8.7402353e+000
8.8327169e+000
8.9883337e+000
9.1004248e+000
9.0700169e+000
8.8224459e+000
8.3191566e+000
7.5891371e+000
6.6985102e+000
5.7571902e+000
4.8739381e+000
4.1298223e+000
3.5710263e+000
3.1814065e+000
2.9181333e+000
2.7145977e+000
2.5134599e+000
2.2925422e+000
2.0587268e+000
1.8624831e+000
1.7502720e+000
1.7343471e+000
1.7978457e+000
1.8791269e+000
1.9211309e+000
1.9021392e+000
1.8175800e+000
1.6817400e+000
1.5059344e+000
1.2854742e+000
1.0201514e+000
7.3017824e-001
4.4862372e-001
2.2462463e-001
8.7219507e-002
1.0629375e-002
-3.3099573e-002
-4.6707623e-002
-3.0640520e-002
5.4883584e-003
4.7004085e-002
7.3117711e-002
6.8543993e-002
3.5968818e-002
-7.5358562e-003
-2.2509487e-002
1.5851345e-002
8.3066113e-002
1.4192189e-001
1.5561788e-001
1.1281221e-001
6.3917398e-002
5.9544574e-002
1.1317287e-001
2.2538830e-001
3.8754678e-001
5.9689713e-001
8.7027764e-001
1.2174380e+000
1.6182549e+000
2.0521994e+000
2.5155642e+000
3.0067260e+000
3.5162039e+000
4.0153766e+000
4.4303131e+000
4.6815853e+000
4.7072024e+000
4.4768224e+000
4.0352211e+000
3.4601820e+000
2.8668172e+000
2.3616600e+000
2.0005646e+000
1.8073163e+000
1.7510011e+000
1.7807457e+000
1.8289655e+000
1.8320003e+000
1.7522739e+000
1.5812868e+000
1.3754286e+000
1.2048134e+000
1.1327418e+000
1.1991898e+000
1.3821975e+000
1.6428399e+000
1.9356464e+000
2.2111177e+000
2.4134343e+000
2.4907243e+000
2.4092815e+000
2.1601944e+000
1.7946341e+000
1.3787603e+000
9.7844136e-001
6.4895630e-001
4.1390061e-001
2.7405843e-001
1.8454242e-001
8.7600000e-002
-7.7955738e-002
-3.4623882e-001
-6.6496110e-001
-9.6713376e-001
-1.2070823e+000
-1.3596286e+000
-1.4466370e+000
-1.4925606e+000
-1.4927160e+000
-1.4390630e+000
-1.3356292e+000
-1.1937441e+000
-1.0377141e+000
-8.9111102e-001
-7.6291370e-001
-6.5594429e-001
-5.6397760e-001
-4.7877282e-001
-3.9277184e-001
-3.0052623e-001
-2.0278901e-001
-9.6269265e-002
4.0722921e-002
2.2083235e-001
4.0999269e-001
5.6119251e-001
6.2327898e-001
5.6476438e-001
4.2625916e-001
2.6172662e-001
1.0947593e-001
1.2487017e-002
4.3803632e-002
2.6416805e-001
6.6277391e-001
1.1927514e+000
1.7407504e+000
2.1952028e+000
2.5100994e+000
2.6767907e+000
2.7636657e+000
2.8465140e+000
2.9576855e+000
3.1016779e+000
3.2213938e+000
3.2578428e+000
3.2040198e+000
3.0814302e+000
2.9714081e+000
2.9531507e+000
3.0413001e+000
3.2232640e+000
3.4441156e+000
3.6574717e+000
3.8923352e+000
4.1964998e+000
