##TITLE=Methyl Ethyl Ketone
##JCAMP-DX=4.24
##DATA TYPE=INFRARED SPECTRUM
##XUNITS=cm-1
##YUNITS=Absorbance
##FIRSTX=900
##LASTX=2300
##XYDATA=(X++(Y..Y))
2296 -0.029113
2294 -0.029719133
2292 -0.030325266
2290 -0.030930404
2288 -0.031536531
2286 -0.032141671
2284 -0.032747794
2282 -0.033352938
2280 -0.033959065
2278 -0.034564212
2276 -0.035170328
2274 -0.035776462
2272 -0.03638161
2270 -0.036985766
2268 -0.037592839
2266 -0.038202904
2264 -0.038804241
2262 -0.039393671
2260 -0.040014982
2258 -0.040682811
2256 -0.041228484
2254 -0.041603871
2252 -0.042430535
2250 -0.043895144
2248 -0.043679394
2246 -0.035677999
2244 -0.0013141886
2242 0.067927815
2240 0.12600371
2238 0.12400601
2236 0.063561156
2234 -0.035516962
2232 -0.13880596
2230 -0.21472797
2228 -0.25962764
2226 -0.28043598
2224 -0.29404548
2222 -0.31536824
2220 -0.33979401
2218 -0.35652187
2216 -0.35309285
2214 -0.32049194
2212 -0.26519141
2210 -0.19975044
2208 -0.14261961
2206 -0.10908907
2204 -0.094674073
2202 -0.087760083
2200 -0.072492935
2198 -0.036067512
2196 0.017016215
2194 0.076169401
2192 0.12808268
2190 0.16182837
2188 0.17923951
2186 0.18734543
2184 0.1978016
2182 0.22073327
2180 0.25415719
2178 0.29159567
2176 0.32410115
2174 0.3424142
2172 0.33894181
2170 0.3091853
2168 0.25912604
2166 0.19984257
2164 0.1491373
2162 0.12227596
2160 0.11531641
2158 0.11863305
2156 0.126178
2154 0.13647687
2152 0.16125251
2150 0.21170262
2148 0.27833077
2146 0.34378213
2144 0.3882724
2142 0.39623088
2140 0.37216985
2138 0.32642844
2136 0.264146
2134 0.18977229
2132 0.11330251
2130 0.047868028
2128 0.011025175
2126 0.015192742
2124 0.04527273
2122 0.076153755
2120 0.082973786
2118 0.047397278
2116 -0.023701858
2114 -0.11191984
2112 -0.18970485
2110 -0.23032749
2108 -0.2232203
2106 -0.16932543
2104 -0.09147083
2102 -0.018910242
2100 0.02611365
2098 0.028800527
2096 -0.0071358574
2094 -0.069912776
2092 -0.14342649
2090 -0.21246926
2088 -0.27139753
2086 -0.31931901
2084 -0.35919455
2082 -0.39332223
2080 -0.41547808
2078 -0.41721383
2076 -0.39517215
2074 -0.35033438
2072 -0.2927624
2070 -0.23625807
2068 -0.19526464
2066 -0.18276542
2064 -0.20496508
2062 -0.26223159
2060 -0.34193993
2058 -0.42860991
2056 -0.51666111
2054 -0.60473746
2052 -0.69066942
2050 -0.76923311
2048 -0.82450241
2046 -0.84107822
2044 -0.82467359
2042 -0.79140514
2040 -0.76214439
2038 -0.75599772
2036 -0.77802259
2034 -0.8263765
2032 -0.8960855
2030 -0.97804236
2028 -1.049955
2026 -1.084105
2024 -1.0550989
2022 -0.94971013
2020 -0.80278933
2018 -0.67123544
2016 -0.61502004
2014 -0.67589319
2012 -0.81750047
2010 -0.9706912
2008 -1.0779132
2006 -1.102595
2004 -1.0655158
2002 -1.0093588
2000 -0.95971018
1998 -0.92822248
1996 -0.90770358
1994 -0.88629454
1992 -0.86750466
1990 -0.86274481
1988 -0.88390321
1986 -0.93823481
1984 -1.0143201
1982 -1.0920851
1980 -1.1519858
1978 -1.1776158
1976 -1.1609029
1974 -1.0988981
1972 -0.99389118
1970 -0.8564555
1968 -0.72376484
1966 -0.64225286
1964 -0.64225113
1962 -0.73348314
1960 -0.87569284
1958 -1.009491
1956 -1.0986485
1954 -1.1282579
1952 -1.1170161
1950 -1.097971
1948 -1.0951786
1946 -1.12205
1944 -1.1695012
1942 -1.2179146
1940 -1.2507054
1938 -1.2585443
1936 -1.2527828
1934 -1.2525536
1932 -1.26504
1930 -1.2853009
1928 -1.2887149
1926 -1.2444193
1924 -1.1380423
1922 -0.97467083
1920 -0.8028276
1918 -0.68468177
1916 -0.64371842
1914 -0.67421091
1912 -0.74325603
1910 -0.81355315
1908 -0.88527375
1906 -0.97470731
1904 -1.072968
1902 -1.1526809
1900 -1.1746495
1898 -1.1065915
1896 -0.96818572
1894 -0.81077355
1892 -0.69257623
1890 -0.66340238
1888 -0.73081595
1886 -0.87309664
1884 -1.0468404
1882 -1.2039455
1880 -1.3208268
1878 -1.3906293
1876 -1.41266
1874 -1.387616
1872 -1.311872
1870 -1.1865609
1868 -1.0457973
1866 -0.93938375
1864 -0.899661
1862 -0.9388001
1860 -1.0347965
1858 -1.1508325
1856 -1.2695315
1854 -1.3844296
1852 -1.4764674
1850 -1.5205897
1848 -1.5073761
1846 -1.4446785
1844 -1.3698268
1842 -1.3288369
1840 -1.3301075
1838 -1.3534727
1836 -1.3646142
1834 -1.328616
1832 -1.235052
1830 -1.0956272
1828 -0.94803166
1826 -0.84198278
1824 -0.81414628
1822 -0.88201082
1820 -1.0220102
1818 -1.1847351
1816 -1.3194286
1814 -1.3851204
1812 -1.3760506
1810 -1.3091683
1808 -1.2
1806 -1.0602551
1804 -0.89963669
1802 -0.72843361
1800 -0.56286234
1798 -0.4190329
1796 -0.29420501
1794 -0.17801209
1792 -0.085650958
1790 -0.045047056
1788 -0.055633616
1786 -0.092084967
1784 -0.1158748
1782 -0.087348565
1780 0.0092144683
1778 0.16894966
1776 0.37259686
1774 0.58771485
1772 0.75739485
1770 0.81812811
1768 0.75054097
1766 0.5786615
1764 0.37220681
1762 0.2072165
1760 0.058940858
1758 -0.14674935
1756 -0.35998699
1754 -0.44472936
1752 -0.32905719
1750 -0.022378594
1748 0.36907399
1746 0.68812931
1744 0.83270842
1742 0.77622521
1740 0.61282349
1738 0.50021374
1736 0.50574398
1734 0.60055125
1732 0.67831284
1730 0.60959744
1728 0.37684342
1726 0.065451965
1724 -0.18745562
1722 -0.22420809
1720 0.086569712
1718 0.81268084
1716 1.8372043
1714 2.9225519
1712 3.92208
1710 4.8148098
1708 5.7384338
1706 6.9352942
1704 8.6178303
1702 10.934723
1700 13.924934
1698 17.495138
1696 21.306715
1694 24.88928
1692 28.019484
1690 30.767645
1688 33.515114
1686 36.821415
1684 41.059612
1682 46.286316
1680 51.945122
1678 57.147045
1676 61.687515
1674 66.013138
1672 70.581291
1670 75.642097
1668 80.91996
1666 85.761696
1664 89.756889
1662 92.809799
1660 94.989471
1658 96.457352
1656 97.374374
1654 97.867882
1652 97.992241
1650 97.723717
1648 96.951836
1646 95.549644
1644 93.623055
1642 91.459785
1640 89.195213
1638 86.770691
1636 84.027939
1634 80.790199
1632 77.064995
1630 73.017303
1628 68.720314
1626 64.139557
1624 59.26672
1622 54.16291
1620 49.006573
1618 44.058182
1616 39.507572
1614 35.451603
1612 31.949642
1610 29.029129
1608 26.646114
1606 24.696384
1604 23.089174
1602 21.765875
1600 20.706348
1598 19.923584
1596 19.421001
1594 19.183657
1592 19.185177
1590 19.393688
1588 19.795143
1586 20.391521
1584 21.176474
1582 22.143379
1580 23.343105
1578 24.883526
1576 26.865572
1574 29.342426
1572 32.226299
1570 35.296799
1568 38.35424
1566 41.262913
1564 43.94696
1562 46.418201
1560 48.87875
1558 51.632114
1556 54.565899
1554 57.125652
1552 58.882214
1550 59.698414
1548 59.758144
1546 59.475105
1544 58.991158
1542 58.09713
1540 56.556461
1538 54.250267
1536 51.403599
1534 48.55695
1532 46.063774
1530 43.972725
1528 42.198593
1526 40.573101
1524 38.907001
1522 37.024017
1520 34.838451
1518 32.38752
1516 29.844427
1514 27.471767
1512 25.335239
1510 23.247772
1508 20.999731
1506 18.462242
1504 15.74448
1502 13.190785
1500 11.016887
1498 9.2139063
1496 7.6881142
1494 6.3138685
1492 5.0236669
1490 3.826678
1488 2.7258356
1486 1.7056272
1484 0.795941
1482 0.085763082
1480 -0.34006816
1478 -0.4120965
1476 -0.034278423
1474 0.89375067
1472 2.298687
1470 3.8993201
1468 5.4537783
1466 6.8453302
1464 8.0731468
1462 9.2444468
1460 10.449169
1458 11.704828
1456 12.9134
1454 13.861181
1452 14.39842
1450 14.503247
1448 14.230628
1446 13.700178
1444 13.026431
1442 12.29579
1440 11.563675
1438 10.846128
1436 10.11454
1434 9.3016157
1432 8.3895121
1430 7.4399037
1428 6.545414
1426 5.8088078
1424 5.2903214
1422 4.9862475
1420 4.869236
1418 4.8991604
1416 5.0398002
1414 5.2656922
1412 5.5608244
1410 5.9183583
1408 6.3281803
1406 6.7710862
1404 7.2171545
1402 7.6225505
1400 7.9343638
1398 8.093812
1396 8.0577002
1394 7.8146491
1392 7.3966179
1390 6.8860335
1388 6.3570356
1386 5.8519802
1384 5.3903456
1382 4.9679914
1380 4.5751815
1378 4.1995258
1376 3.8159542
1374 3.3836973
1372 2.875392
1370 2.2925127
1368 1.6597743
1366 1.027168
1364 0.44304833
1362 -0.055370301
1360 -0.43381652
1358 -0.66030401
1356 -0.71174669
1354 -0.58053231
1352 -0.27596492
1350 0.17040241
1348 0.71622372
1346 1.31295
1344 1.9284519
1342 2.5550592
1340 3.1669936
1338 3.6992352
1336 4.0718083
1334 4.2053785
1332 4.0798979
1330 3.772306
1328 3.3773131
1326 2.9798608
1324 2.6459126
1322 2.4092448
1320 2.2748013
1318 2.2104883
1316 2.16939
1314 2.0973282
1312 1.9599068
1310 1.7606888
1308 1.5213286
1306 1.2790657
1304 1.0707582
1302 0.92525262
1300 0.8653791
1298 0.90577847
1296 1.0556142
1294 1.3171405
1292 1.687826
1290 2.1580799
1288 2.705596
1286 3.2882414
1284 3.8573065
1282 4.3622632
1280 4.7663236
1278 5.0601006
1276 5.2521
1274 5.3726788
1272 5.4594479
1270 5.5542049
1268 5.6953235
1266 5.9127669
1264 6.2301006
1262 6.6622057
1260 7.215282
1258 7.8825011
1256 8.6505804
1254 9.5008354
1252 10.419911
1250 11.40596
1248 12.452046
1246 13.53525
1244 14.613514
1242 15.621384
1240 16.492338
1238 17.174318
1236 17.623686
1234 17.806826
1232 17.68992
1230 17.238989
1228 16.441238
1226 15.329386
1224 13.970852
1222 12.477195
1220 10.970077
1218 9.5696554
1216 8.3793993
1214 7.4658141
1212 6.8710766
1210 6.6011891
1208 6.6257739
1206 6.8555655
1204 7.1714401
1202 7.4247074
1200 7.4866295
1198 7.2896156
1196 6.8144569
1194 6.1144686
1192 5.2655602
1190 4.354352
1188 3.4606786
1186 2.6433072
1184 1.9460429
1182 1.3902293
1180 0.98224568
1178 0.70744747
1176 0.54633796
1174 0.47921741
1172 0.488253
1170 0.55943584
1168 0.67840195
1166 0.82821172
1164 0.99318838
1162 1.161546
1160 1.3200926
1158 1.450485
1156 1.5324442
1154 1.5446984
1152 1.4745057
1150 1.3284413
1148 1.1224006
1146 0.88241106
1144 0.63549078
1142 0.40461385
1140 0.20616232
1138 0.043967575
1136 -0.075794369
1134 -0.13628401
1132 -0.13515957
1130 -0.10975491
1128 -0.099433824
1126 -0.12369757
1124 -0.18011986
1122 -0.2258441
1120 -0.21919321
1118 -0.14625524
1116 -0.012657061
1114 0.14579228
1112 0.29956284
1110 0.45197654
1108 0.60926604
1106 0.76492798
1104 0.9069019
1102 1.0186892
1100 1.1002917
1098 1.1953185
1096 1.3498714
1094 1.5886863
1092 1.9165361
1090 2.3022003
1088 2.7135034
1086 3.1380436
1084 3.5659194
1082 3.9801233
1080 4.3534126
1078 4.637599
1076 4.7919741
1074 4.8104882
1072 4.7073498
1070 4.5282106
1068 4.3216338
1066 4.1233845
1064 3.9565439
1062 3.8179595
1060 3.7002685
1058 3.6015999
1056 3.52196
1054 3.462265
1052 3.4152365
1050 3.351089
1048 3.248548
1046 3.125982
1044 3.0208244
1042 2.9949901
1040 3.0997148
1038 3.3366351
1036 3.6800401
1034 4.0591369
1032 4.3924317
1030 4.6013827
1028 4.6277189
1026 4.4732614
1024 4.1642809
1022 3.7561162
1020 3.3107939
1018 2.888895
1016 2.5459542
1014 2.3214028
1012 2.2250669
1010 2.1878853
1008 2.1211162
1006 1.9382329
1004 1.5917345
1002 1.1546054
1000 0.722363
998 0.36810157
996 0.132781
994 -0.026351586
992 -0.16435988
990 -0.30896437
988 -0.46591538
986 -0.59262222
984 -0.64675331
982 -0.6259222
980 -0.54414099
978 -0.4366287
976 -0.33832055
974 -0.26593012
972 -0.23050548
970 -0.23905206
968 -0.29132664
966 -0.36604798
964 -0.43612689
962 -0.47273043
960 -0.45460355
958 -0.38808218
956 -0.28871685
954 -0.18040508
952 -0.086440481
950 -0.0207485
948 0.0089737512
946 0.0090913074
944 -0.0033486765
942 0.014215872
940 0.10627204
938 0.30111682
936 0.61178398
934 1.0101908
932 1.4522901
930 1.8732033
928 2.2121325
926 2.442605
924 2.5576658
922 2.5901031
920 2.5792251
918 2.5515633
916 2.5236742
914 2.4867353
912 2.4353092
910 2.4017279
908 2.4252386
906 2.5353141
904 2.7474229
902 3.0311632
900 3.348845
898 3.6791663
896 4.0050998
