Image.
>Pix99999.
  .
5555
5555
2300
900
5555
2
1
0
701
5555
4.1747998e-002
4.2615760e-002
4.3484516e-002
4.4353273e-002
4.5222025e-002
4.6089794e-002
4.6958543e-002
4.7827300e-002
4.8696056e-002
4.9563829e-002
5.0432574e-002
5.1304281e-002
5.2170135e-002
5.3027067e-002
5.3906381e-002
5.4815479e-002
5.5645052e-002
5.6360658e-002
5.7376642e-002
5.8812667e-002
5.9134685e-002
5.7890728e-002
6.0786769e-002
6.9520518e-002
6.2868588e-002
2.6689820e-002
9.4190566e-004
2.7574733e-002
9.5492199e-002
1.7479300e-001
2.2062586e-001
2.0122713e-001
1.5423389e-001
1.3149594e-001
1.6160123e-001
2.5445649e-001
3.7264273e-001
4.7475451e-001
5.5904877e-001
6.3478857e-001
7.0770544e-001
7.7640492e-001
8.1549144e-001
8.0097651e-001
7.4352026e-001
6.6682911e-001
6.0439879e-001
5.8583540e-001
6.1364561e-001
6.7771733e-001
7.5093645e-001
8.0698037e-001
8.4363848e-001
8.7028223e-001
9.1212666e-001
9.8981011e-001
1.0855280e+000
1.1675206e+000
1.1990463e+000
1.1525841e+000
1.0463400e+000
9.1601986e-001
8.0977434e-001
7.6982111e-001
7.9938865e-001
8.8295215e-001
9.8140633e-001
1.0563607e+000
1.1033869e+000
1.1322188e+000
1.1634300e+000
1.2153925e+000
1.2837898e+000
1.3571037e+000
1.4270422e+000
1.4869893e+000
1.5324336e+000
1.5604290e+000
1.5736964e+000
1.5786374e+000
1.5914999e+000
1.6272335e+000
1.6820228e+000
1.7418501e+000
1.7783920e+000
1.7685186e+000
1.7314266e+000
1.7023302e+000
1.7176096e+000
1.7988571e+000
1.9053729e+000
1.9801260e+000
1.9944984e+000
1.9410169e+000
1.8525349e+000
1.7719078e+000
1.7213360e+000
1.7125019e+000
1.7469300e+000
1.8218867e+000
1.9323000e+000
2.0700548e+000
2.2168489e+000
2.3511477e+000
2.4530184e+000
2.5094750e+000
2.5333622e+000
2.5484989e+000
2.5817378e+000
2.6520722e+000
2.7438185e+000
2.8276970e+000
2.8777440e+000
2.8767498e+000
2.8376124e+000
2.7842522e+000
2.7354045e+000
2.7053461e+000
2.6999855e+000
2.7210479e+000
2.7680714e+000
2.8369505e+000
2.9126673e+000
2.9785070e+000
3.0290325e+000
3.0661678e+000
3.1004441e+000
3.1417985e+000
3.1808965e+000
3.2014408e+000
3.1924484e+000
3.1505203e+000
3.0943561e+000
3.0488942e+000
3.0267310e+000
3.0309064e+000
3.0501840e+000
3.0692794e+000
3.0796440e+000
3.0781744e+000
3.0702801e+000
3.0654655e+000
3.0755410e+000
3.1096513e+000
3.1617827e+000
3.2195029e+000
3.2726750e+000
3.3145468e+000
3.3460629e+000
3.3702466e+000
3.3828001e+000
3.3763514e+000
3.3450341e+000
3.2875354e+000
3.2166040e+000
3.1508272e+000
3.1044486e+000
3.0869000e+000
3.0992889e+000
3.1386104e+000
3.2031314e+000
3.2916570e+000
3.4025311e+000
3.5304327e+000
3.6563549e+000
3.7541327e+000
3.7964311e+000
3.7636342e+000
3.6689160e+000
3.5442858e+000
3.4312043e+000
3.3665342e+000
3.3537228e+000
3.3750565e+000
3.3959265e+000
3.3817501e+000
3.3303611e+000
3.2590895e+000
3.1950588e+000
3.1626558e+000
3.1580629e+000
3.1636159e+000
3.1675460e+000
3.1652720e+000
3.1625047e+000
3.1676385e+000
3.1767492e+000
3.1800330e+000
3.1729858e+000
3.1584740e+000
3.1567228e+000
3.1911485e+000
3.2582011e+000
3.3375397e+000
3.4034884e+000
3.4344120e+000
3.4337800e+000
3.4176035e+000
3.3937693e+000
3.3627384e+000
3.3165143e+000
3.2439160e+000
3.1372917e+000
2.9966450e+000
2.8455098e+000
2.7163014e+000
2.6230197e+000
2.5641491e+000
2.5221887e+000
2.4774225e+000
2.4354401e+000
2.4150474e+000
2.4236000e+000
2.4551980e+000
2.4830158e+000
2.4738486e+000
2.4197211e+000
2.3307660e+000
2.2256966e+000
2.1253471e+000
2.0426114e+000
1.9850016e+000
1.9599400e+000
1.9704232e+000
1.9987520e+000
2.0158572e+000
1.9985472e+000
1.9348456e+000
1.8410320e+000
1.7469701e+000
1.6667086e+000
1.6020010e+000
1.5517462e+000
1.5141172e+000
1.4856580e+000
1.4603928e+000
1.4260823e+000
1.3699071e+000
1.2947700e+000
1.2149119e+000
1.1485343e+000
1.1105269e+000
1.0947572e+000
1.0829434e+000
1.0637777e+000
1.0349700e+000
1.0067010e+000
9.9576211e-001
1.0139848e+000
1.0645746e+000
1.1304142e+000
1.1821531e+000
1.1935320e+000
1.1493459e+000
1.0668554e+000
9.7967577e-001
8.9684051e-001
8.1263846e-001
7.4367416e-001
7.1697569e-001
7.2496516e-001
7.3011452e-001
6.7926031e-001
5.2910501e-001
3.1658107e-001
1.2935998e-001
2.2134116e-002
2.2458886e-003
2.6595171e-003
-7.1595252e-002
-2.1670955e-001
-3.5338026e-001
-4.1477439e-001
-3.6720499e-001
-2.3911348e-001
-1.0109964e-001
-2.0116586e-002
-3.9147303e-002
-1.3011503e-001
-2.2183290e-001
-2.8317001e-001
-3.2422659e-001
-3.7309527e-001
-4.5590335e-001
-5.5123419e-001
-6.0151571e-001
-5.5478668e-001
-3.7231070e-001
-3.1587303e-002
4.7187379e-001
1.1101193e+000
1.8267624e+000
2.5427413e+000
3.1881270e+000
3.8029599e+000
4.5201144e+000
5.4924245e+000
6.8717041e+000
8.7945004e+000
1.1333131e+001
1.4314571e+001
1.7387360e+001
2.0283176e+001
2.2891947e+001
2.5392862e+001
2.8158722e+001
3.1446707e+001
3.5298611e+001
3.9348442e+001
4.3010883e+001
4.6160717e+001
4.9119804e+001
5.2266468e+001
5.5887852e+001
5.9958645e+001
6.4203850e+001
6.8397278e+001
7.2401306e+001
7.6093369e+001
7.9375031e+001
8.2267975e+001
8.4903267e+001
8.7453697e+001
9.0042747e+001
9.2462036e+001
9.4254066e+001
9.5172142e+001
9.5227028e+001
9.4519379e+001
9.3173866e+001
9.1260773e+001
8.8814407e+001
8.5955444e+001
8.2866158e+001
7.9597404e+001
7.6071754e+001
7.2256401e+001
6.8198669e+001
6.4016312e+001
5.9868572e+001
5.5865971e+001
5.2067532e+001
4.8547531e+001
4.5391361e+001
4.2618748e+001
4.0182655e+001
3.8023342e+001
3.6087616e+001
3.4347794e+001
3.2801926e+001
3.1446999e+001
3.0271059e+001
2.9256189e+001
2.8382463e+001
2.7650749e+001
2.7081444e+001
2.6692520e+001
2.6496939e+001
2.6512026e+001
2.6759216e+001
2.7239973e+001
2.7926197e+001
2.8748638e+001
2.9607658e+001
3.0437840e+001
3.1217407e+001
3.1937752e+001
3.2634808e+001
3.3553326e+001
3.5090111e+001
3.7330086e+001
3.9963039e+001
4.2526199e+001
4.4551041e+001
4.5952171e+001
4.7045071e+001
4.8066948e+001
4.9061741e+001
4.9962982e+001
5.0631287e+001
5.0958687e+001
5.0909336e+001
5.0554668e+001
5.0056892e+001
4.9504364e+001
4.8868999e+001
4.8052921e+001
4.6919804e+001
4.5399349e+001
4.3527435e+001
4.1468086e+001
3.9463871e+001
3.7550880e+001
3.5509583e+001
3.3121819e+001
3.0285414e+001
2.7175251e+001
2.4226627e+001
2.1687832e+001
1.9505110e+001
1.7519714e+001
1.5538629e+001
1.3453437e+001
1.1268254e+001
9.0266800e+000
6.8031836e+000
4.7282939e+000
2.9767547e+000
1.6304870e+000
6.6258061e-001
1.2915586e-001
1.7557575e-001
7.2776461e-001
1.4398741e+000
2.0856128e+000
2.6670513e+000
3.2301617e+000
3.8015838e+000
4.3368278e+000
4.7146420e+000
4.8548398e+000
4.7661209e+000
4.5450387e+000
4.3572030e+000
4.2646151e+000
4.1803679e+000
4.0346723e+000
3.8240261e+000
3.5589325e+000
3.2462132e+000
2.8747227e+000
2.4174247e+000
1.8857377e+000
1.3481899e+000
8.8444722e-001
5.6542182e-001
4.2370337e-001
4.3923813e-001
5.7076764e-001
7.6623052e-001
9.8722857e-001
1.2197860e+000
1.4646547e+000
1.7348160e+000
2.0398641e+000
2.3800807e+000
2.7526400e+000
3.1506579e+000
3.5535760e+000
3.9238195e+000
4.2270861e+000
4.4423313e+000
4.5697618e+000
4.6337857e+000
4.6472468e+000
4.5998950e+000
4.4865336e+000
4.3183432e+000
4.1164470e+000
3.9080410e+000
3.7017372e+000
3.4783232e+000
3.2263460e+000
2.9553788e+000
2.6789520e+000
2.4057221e+000
2.1239762e+000
1.7970107e+000
1.4118189e+000
1.0021497e+000
6.1902773e-001
3.1852129e-001
1.2328404e-001
3.2200590e-003
-7.2942518e-002
-1.1750178e-001
-1.2637520e-001
-7.9777218e-002
2.3494959e-002
1.4907193e-001
2.5568143e-001
3.0848971e-001
3.0217716e-001
2.7584392e-001
2.6900497e-001
3.0422100e-001
3.9340055e-001
5.3630018e-001
7.2509569e-001
9.4328487e-001
1.1689700e+000
1.3756011e+000
1.5423685e+000
1.6604781e+000
1.7303069e+000
1.7631999e+000
1.7747320e+000
1.7829920e+000
1.8038309e+000
1.8473613e+000
1.9155142e+000
1.9987602e+000
2.0847378e+000
2.1623120e+000
2.2273719e+000
2.2880778e+000
2.3543026e+000
2.4335003e+000
2.5278418e+000
2.6316321e+000
2.7406070e+000
2.8568878e+000
2.9868577e+000
3.1408644e+000
3.3270783e+000
3.5479314e+000
3.8040047e+000
4.0954175e+000
4.4251800e+000
4.8018312e+000
5.2364173e+000
5.7410693e+000
6.3225579e+000
6.9752517e+000
7.6828718e+000
8.4137754e+000
9.1355247e+000
9.8213530e+000
1.0451006e+001
1.1013853e+001
1.1498272e+001
1.1888601e+001
1.2168840e+001
1.2329985e+001
1.2372937e+001
1.2320364e+001
1.2192063e+001
1.1999114e+001
1.1742100e+001
1.1406850e+001
1.0983000e+001
1.0477799e+001
9.9092331e+000
9.3059673e+000
8.6925297e+000
8.0744162e+000
7.4526463e+000
6.8271184e+000
6.1991906e+000
5.5727725e+000
4.9491143e+000
4.3228936e+000
3.6966772e+000
3.0920219e+000
2.5355763e+000
2.0528364e+000
1.6583377e+000
1.3438104e+000
1.0984843e+000
9.1727453e-001
7.9624403e-001
7.3054767e-001
7.0955026e-001
7.1077979e-001
7.1214330e-001
6.9924039e-001
6.6514188e-001
6.1546379e-001
5.5809188e-001
4.9891704e-001
4.3996215e-001
3.7571979e-001
3.0145204e-001
2.1859309e-001
1.3234723e-001
5.3311754e-002
-6.7913476e-003
-3.6524180e-002
-2.3547288e-002
4.6739370e-002
1.8952285e-001
4.1934869e-001
7.4411130e-001
1.1554419e+000
1.6337811e+000
2.1423106e+000
2.6418495e+000
3.0993400e+000
3.4972081e+000
3.8517847e+000
4.1858411e+000
4.5165315e+000
4.8553905e+000
5.2026963e+000
5.5574231e+000
5.9208798e+000
6.2911782e+000
6.6574979e+000
7.0119233e+000
7.3597856e+000
7.7117715e+000
8.0834322e+000
8.4828577e+000
8.8965921e+000
9.3043003e+000
9.6826706e+000
1.0017966e+001
1.0322795e+001
1.0615034e+001
1.0913301e+001
1.1219900e+001
1.1498989e+001
1.1716228e+001
1.1849836e+001
1.1897386e+001
1.1889114e+001
1.1854280e+001
1.1795040e+001
1.1706825e+001
1.1580791e+001
1.1410686e+001
1.1202914e+001
1.0957462e+001
1.0658510e+001
1.0294225e+001
9.8792219e+000
9.4388895e+000
9.0139484e+000
8.6357880e+000
8.2983084e+000
7.9813700e+000
7.6517410e+000
7.2845092e+000
6.8890028e+000
6.4878917e+000
6.1170950e+000
5.8011627e+000
5.5206771e+000
5.2436504e+000
4.9336410e+000
4.5676546e+000
4.1669369e+000
3.7611532e+000
3.3730195e+000
3.0215080e+000
2.7190492e+000
2.4735417e+000
2.2816720e+000
2.1260645e+000
1.9541024e+000
1.7151000e+000
1.3920770e+000
9.9206281e-001
5.7161677e-001
1.8855302e-001
-1.3369194e-001
-3.8557011e-001
-5.7445782e-001
-7.0220959e-001
-7.3938394e-001
-6.5907687e-001
-4.6875334e-001
-1.9478190e-001
1.0210204e-001
3.6368778e-001
5.6899899e-001
7.1140075e-001
8.0161721e-001
8.5171175e-001
8.6377072e-001
8.3641112e-001
7.6478964e-001
6.4569885e-001
4.8490766e-001
3.0052441e-001
1.4559317e-001
5.8811035e-002
-2.7601942e-003
-8.7181039e-002
-1.8821570e-001
-2.9500771e-001
-4.2869744e-001
-6.1025357e-001
-8.3069676e-001
-1.0713737e+000
-1.3053793e+000
-1.5034900e+000
-1.6362751e+000
-1.6879355e+000
-1.6959044e+000
-1.7096256e+000
-1.7753887e+000
-1.9226618e+000
-2.1203330e+000
-2.3230288e+000
-2.4890273e+000
-2.5904310e+000
-2.6481791e+000
-2.6898844e+000
-2.7193215e+000
-2.7342999e+000
