Image.
>Pix99999.
  .
5555
5555
2300
900
5555
2
1
0
701
5555
-7.8180000e-002
-7.9840623e-002
-8.1502244e-002
-8.3162867e-002
-8.4823504e-002
-8.6485118e-002
-8.8145748e-002
-8.9807361e-002
-9.1467991e-002
-9.3128614e-002
-9.4790228e-002
-9.6454807e-002
-9.8112546e-002
-9.9761344e-002
-1.0143644e-001
-1.0314336e-001
-1.0475320e-001
-1.0624381e-001
-1.0807269e-001
-1.1036731e-001
-1.1142086e-001
-1.1071280e-001
-1.1464177e-001
-1.2512809e-001
-1.1835303e-001
-7.2538465e-002
-2.6316084e-003
6.9543011e-002
1.3608372e-001
1.9650352e-001
2.6404741e-001
3.4785163e-001
4.2484143e-001
4.6977070e-001
4.8605335e-001
4.8475650e-001
4.7365606e-001
4.5951584e-001
4.4927448e-001
4.5212001e-001
4.8608372e-001
5.6612736e-001
6.8404317e-001
8.2283831e-001
9.5828295e-001
1.0683243e+000
1.1481743e+000
1.1991966e+000
1.2270896e+000
1.2381999e+000
1.2382499e+000
1.2332861e+000
1.2325296e+000
1.2453476e+000
1.2769465e+000
1.3308235e+000
1.4086159e+000
1.5101640e+000
1.6292992e+000
1.7552295e+000
1.8661971e+000
1.9428777e+000
1.9896764e+000
2.0211730e+000
2.0618784e+000
2.1331913e+000
2.2307620e+000
2.3416610e+000
2.4527075e+000
2.5522907e+000
2.6342700e+000
2.6949563e+000
2.7324793e+000
2.7466695e+000
2.7410140e+000
2.7207358e+000
2.6939747e+000
2.6705301e+000
2.6645346e+000
2.6888511e+000
2.7443457e+000
2.8267064e+000
2.9273577e+000
3.0367980e+000
3.1491640e+000
3.2592549e+000
3.3615422e+000
3.4515884e+000
3.5301824e+000
3.5982068e+000
3.6468730e+000
3.6659372e+000
3.6526132e+000
3.6105850e+000
3.5577514e+000
3.5140271e+000
3.4848304e+000
3.4701598e+000
3.4689162e+000
3.4805908e+000
3.5070143e+000
3.5478101e+000
3.5904779e+000
3.6212623e+000
3.6415918e+000
3.6608050e+000
3.6953516e+000
3.7586904e+000
3.8415778e+000
3.9247913e+000
3.9869227e+000
4.0106568e+000
3.9971039e+000
3.9571028e+000
3.9112403e+000
3.8803000e+000
3.8729470e+000
3.8902233e+000
3.9237316e+000
3.9642448e+000
4.0140543e+000
4.0774088e+000
4.1473432e+000
4.2105584e+000
4.2496243e+000
4.2535644e+000
4.2463760e+000
4.2626634e+000
4.3182435e+000
4.4129214e+000
4.5167112e+000
4.5938945e+000
4.6382780e+000
4.6568403e+000
4.6548910e+000
4.6344285e+000
4.5899172e+000
4.5187721e+000
4.4443884e+000
4.3987045e+000
4.4000397e+000
4.4530091e+000
4.5343542e+000
4.6129904e+000
4.6782637e+000
4.7308221e+000
4.7749939e+000
4.8135252e+000
4.8361464e+000
4.8297887e+000
4.7960429e+000
4.7480717e+000
4.7171588e+000
4.7369184e+000
4.8152919e+000
4.9428430e+000
5.0899715e+000
5.2226138e+000
5.3257861e+000
5.3947215e+000
5.4278855e+000
5.4258232e+000
5.3949862e+000
5.3471990e+000
5.3063560e+000
5.2977295e+000
5.3296876e+000
5.3984585e+000
5.4862881e+000
5.5713134e+000
5.6412959e+000
5.6897960e+000
5.7130475e+000
5.7086930e+000
5.6779470e+000
5.6275253e+000
5.5810871e+000
5.5653186e+000
5.5830140e+000
5.6203389e+000
5.6491742e+000
5.6401525e+000
5.5862560e+000
5.4930534e+000
5.3655539e+000
5.2104406e+000
5.0479851e+000
4.9085493e+000
4.8337102e+000
4.8588848e+000
4.9673672e+000
5.1128983e+000
5.2463479e+000
5.3299165e+000
5.3723540e+000
5.4042249e+000
5.4392080e+000
5.4739752e+000
5.4815922e+000
5.4304852e+000
5.3236427e+000
5.1861062e+000
5.0487285e+000
4.9394388e+000
4.8662014e+000
4.8243523e+000
4.8050022e+000
4.7975492e+000
4.7915316e+000
4.7736073e+000
4.7167501e+000
4.5921211e+000
4.3972263e+000
4.1563711e+000
3.9387293e+000
3.8248050e+000
3.8325684e+000
3.9322741e+000
4.0596571e+000
4.1421967e+000
4.1444945e+000
4.0558858e+000
3.8678935e+000
3.5787525e+000
3.2215722e+000
2.8566000e+000
2.5680993e+000
2.4338024e+000
2.4455485e+000
2.5348921e+000
2.6113286e+000
2.5933762e+000
2.4754179e+000
2.3066814e+000
2.1622546e+000
2.1139872e+000
2.1691663e+000
2.2888527e+000
2.4181600e+000
2.5025558e+000
2.5129943e+000
2.4440548e+000
2.3192346e+000
2.1783555e+000
2.0585852e+000
1.9807601e+000
1.9101681e+000
1.7799277e+000
1.5446017e+000
1.1952286e+000
8.0277711e-001
4.8568371e-001
3.4243920e-001
4.2571136e-001
6.7039323e-001
9.4058692e-001
1.1342949e+000
1.1934783e+000
1.1082312e+000
9.0040159e-001
6.0270971e-001
2.6002112e-001
-4.4111945e-002
-2.1535714e-001
-2.3280336e-001
-1.3855797e-001
-8.8603571e-003
6.8713948e-002
3.2907721e-002
-1.4347991e-001
-4.2844659e-001
-7.5993818e-001
-1.1221368e+000
-1.5295191e+000
-1.9551038e+000
-2.3392823e+000
-2.6364138e+000
-2.8230021e+000
-2.9074166e+000
-2.9099810e+000
-2.8061001e+000
-2.5444167e+000
-2.1210649e+000
-1.5830259e+000
-1.0219858e+000
-5.4747570e-001
-2.2074401e-001
-4.9352355e-002
1.7811954e-002
8.1120446e-002
2.8820059e-001
7.7955496e-001
1.5172366e+000
2.3335154e+000
3.1273239e+000
3.8944664e+000
4.7369218e+000
5.8698316e+000
7.7001967e+000
1.0655395e+001
1.4586143e+001
1.8863710e+001
2.2887650e+001
2.6263950e+001
2.9120178e+001
3.1991037e+001
3.5409527e+001
3.9696449e+001
4.4486279e+001
4.8960270e+001
5.2793999e+001
5.6212193e+001
5.9658138e+001
6.3591011e+001
6.8057861e+001
7.2742699e+001
7.7327637e+001
8.1573669e+001
8.5333099e+001
8.8532021e+001
9.1141373e+001
9.3175201e+001
9.4720001e+001
9.5910271e+001
9.6838463e+001
9.7529785e+001
9.7911133e+001
9.7822571e+001
9.7052582e+001
9.5387573e+001
9.2757469e+001
8.9263374e+001
8.5198761e+001
8.0958405e+001
7.6706924e+001
7.2376755e+001
6.7914841e+001
6.3347866e+001
5.8807060e+001
5.4493599e+001
5.0534515e+001
4.6967594e+001
4.3811218e+001
4.1074150e+001
3.8726368e+001
3.6702541e+001
3.4944122e+001
3.3407333e+001
3.2057384e+001
3.0868906e+001
2.9833500e+001
2.8960627e+001
2.8268206e+001
2.7773680e+001
2.7470718e+001
2.7322586e+001
2.7270189e+001
2.7246750e+001
2.7226183e+001
2.7237486e+001
2.7365828e+001
2.7733765e+001
2.8408152e+001
2.9372015e+001
3.0520960e+001
3.1683435e+001
3.2722763e+001
3.3599621e+001
3.4512207e+001
3.5855820e+001
3.7858402e+001
4.0462601e+001
4.3276165e+001
4.5674488e+001
4.7361141e+001
4.8447788e+001
4.9058647e+001
4.9254387e+001
4.9164360e+001
4.8990711e+001
4.8843113e+001
4.8698631e+001
4.8456997e+001
4.7969040e+001
4.7120422e+001
4.5863049e+001
4.4221214e+001
4.2304642e+001
4.0322433e+001
3.8545029e+001
3.7087616e+001
3.5842789e+001
3.4543118e+001
3.2828735e+001
3.0534494e+001
2.7777157e+001
2.4851612e+001
2.2146276e+001
1.9829645e+001
1.7778339e+001
1.5810143e+001
1.3766758e+001
1.1603043e+001
9.4086876e+000
7.3201118e+000
5.4821162e+000
3.9823918e+000
2.8209975e+000
1.9188268e+000
1.1478341e+000
5.1239502e-001
1.8282574e-001
2.8200728e-001
8.0823803e-001
1.6377940e+000
2.5383871e+000
3.3313422e+000
3.9433169e+000
4.3535218e+000
4.5917616e+000
4.7581601e+000
5.0110292e+000
5.4119630e+000
5.8783445e+000
6.3012090e+000
6.5852680e+000
6.6789451e+000
6.5834751e+000
6.3005776e+000
5.8208041e+000
5.1518097e+000
4.3356686e+000
3.4643526e+000
2.6770597e+000
2.0640841e+000
1.6307635e+000
1.3477902e+000
1.1700091e+000
1.0865952e+000
1.1370963e+000
1.3595114e+000
1.7662771e+000
2.3230140e+000
2.9406347e+000
3.5416155e+000
4.0832009e+000
4.5377851e+000
4.8903012e+000
5.1368480e+000
5.2904196e+000
5.3924999e+000
5.5135989e+000
5.6905370e+000
5.8981943e+000
6.0829239e+000
6.1746597e+000
6.1288972e+000
5.9446120e+000
5.6277423e+000
5.1837320e+000
4.6358175e+000
4.0357018e+000
3.4487240e+000
2.9414647e+000
2.5259080e+000
2.1336179e+000
1.7007809e+000
1.2071505e+000
6.9280648e-001
2.6855326e-001
1.1390612e-002
-8.2651846e-002
-5.4300904e-002
2.9350776e-002
1.1385512e-001
1.7397678e-001
1.8908200e-001
1.4035186e-001
3.8272638e-002
-6.0431451e-002
-9.1378853e-002
-3.2357350e-003
2.0127051e-001
4.3996167e-001
6.3885909e-001
7.7011883e-001
8.3475095e-001
8.6357826e-001
8.8911724e-001
9.3491602e-001
1.0191910e+000
1.1527556e+000
1.3334062e+000
1.5391001e+000
1.7407660e+000
1.9070393e+000
2.0182412e+000
2.0772882e+000
2.0986779e+000
2.1074467e+000
2.1252713e+000
2.1628642e+000
2.2237689e+000
2.3040633e+000
2.4001441e+000
2.5115252e+000
2.6373420e+000
2.7748132e+000
2.9205704e+000
3.0714381e+000
3.2266827e+000
3.3898940e+000
3.5681593e+000
3.7731168e+000
4.0162230e+000
4.3062973e+000
4.6482172e+000
5.0413494e+000
5.4855442e+000
5.9833441e+000
6.5324030e+000
7.1193652e+000
7.7244921e+000
8.3226128e+000
8.9001875e+000
9.4685249e+000
1.0043882e+001
1.0637757e+001
1.1240989e+001
1.1806852e+001
1.2283014e+001
1.2626839e+001
1.2809919e+001
1.2828712e+001
1.2685394e+001
1.2385708e+001
1.1939080e+001
1.1369643e+001
1.0707380e+001
9.9979401e+000
9.2782516e+000
8.5669632e+000
7.8734431e+000
7.1967607e+000
6.5379491e+000
5.9065137e+000
5.3094058e+000
4.7427697e+000
4.1958528e+000
3.6497903e+000
3.0913856e+000
2.5238354e+000
1.9597486e+000
1.4237360e+000
9.4024128e-001
5.2793300e-001
2.0119861e-001
-3.2841176e-002
-1.7365758e-001
-2.3220249e-001
-2.2748600e-001
-1.8945968e-001
-1.4400472e-001
-1.0171055e-001
-6.4049654e-002
-2.0714130e-002
3.8121477e-002
1.1446659e-001
2.0449355e-001
2.9520985e-001
3.7008485e-001
4.1043702e-001
4.0505147e-001
3.6097652e-001
2.9001379e-001
2.0497680e-001
1.1932060e-001
4.7534965e-002
5.1636044e-003
9.3304813e-003
7.5338341e-002
2.1207510e-001
4.1656274e-001
6.6240162e-001
9.2790490e-001
1.2152150e+000
1.5247279e+000
1.8383353e+000
2.1338360e+000
2.3898442e+000
2.5969501e+000
2.7733264e+000
2.9392490e+000
3.1040177e+000
3.2742968e+000
3.4562652e+000
3.6569018e+000
3.8842099e+000
4.1440783e+000
4.4350643e+000
4.7521715e+000
5.0848737e+000
5.4226804e+000
5.7580347e+000
6.0838475e+000
6.3915601e+000
6.6717029e+000
6.9131441e+000
7.1084523e+000
7.2614083e+000
7.3795943e+000
7.4738989e+000
7.5532365e+000
7.6207075e+000
7.6804066e+000
7.7426457e+000
7.8140678e+000
7.8858228e+000
7.9342537e+000
7.9074645e+000
7.7640514e+000
7.5122085e+000
7.1851034e+000
6.8510222e+000
6.5678029e+000
6.3398929e+000
6.1531906e+000
5.9790072e+000
5.7928314e+000
5.5930505e+000
5.3829498e+000
5.1639242e+000
4.9362478e+000
4.6978898e+000
4.4440203e+000
4.1644077e+000
3.8470478e+000
3.4801240e+000
3.0620251e+000
2.6213937e+000
2.1963570e+000
1.8295124e+000
1.5523617e+000
1.3580954e+000
1.2214040e+000
1.0893797e+000
9.1101462e-001
6.6431481e-001
3.4885794e-001
1.0051847e-002
-3.0100715e-001
-5.5151320e-001
-7.2657418e-001
-8.5389858e-001
-9.6719337e-001
-1.0853829e+000
-1.2150623e+000
-1.3345153e+000
-1.4155079e+000
-1.4322515e+000
-1.3628114e+000
-1.1968341e+000
-9.3574083e-001
-6.1044145e-001
-2.6159257e-001
6.2059253e-002
3.2011208e-001
5.0739092e-001
6.2869823e-001
6.9303149e-001
7.0630914e-001
6.6026866e-001
5.5049884e-001
3.9814174e-001
2.3315164e-001
9.4110928e-002
2.1419309e-002
5.3591624e-002
2.0594421e-001
4.1222149e-001
5.9392428e-001
7.0205301e-001
7.0726210e-001
6.2569284e-001
4.9382240e-001
3.8120151e-001
3.4935862e-001
3.9872172e-001
5.0049508e-001
5.7325351e-001
5.5042458e-001
4.7182834e-001
3.9926472e-001
3.7678781e-001
4.2358333e-001
4.7949722e-001
4.8017174e-001
4.2263901e-001
3.2692066e-001
2.4337079e-001
2.2994000e-001
