##TITLE=Methyl Ethyl Ketone
##JCAMP-DX=4.24
##DATA TYPE=INFRARED SPECTRUM
##XUNITS=cm-1
##YUNITS=Absorbance
##FIRSTX=900
##LASTX=2300
##XYDATA=(X++(Y..Y))
2296 0.022859
2294 0.023334321
2292 0.02380964
2290 0.024285955
2288 0.02476128
2286 0.025236601
2284 0.02571192
2282 0.02618823
2280 0.026663559
2278 0.02713888
2276 0.027614199
2274 0.028090505
2272 0.028565839
2270 0.02904116
2268 0.029516481
2266 0.0299918
2264 0.030468099
2262 0.03094344
2260 0.031418759
2258 0.03189408
2256 0.032370374
2254 0.032845721
2252 0.033321038
2250 0.033796363
2248 0.034272645
2246 0.034748003
2244 0.018972218
2242 0.00070828717
2240 -0.0070567681
2238 -0.040451422
2236 -0.077650428
2234 -0.11146722
2232 -0.14301045
2230 -0.12923287
2228 -0.10964172
2226 -0.0608912
2224 -0.012600789
2222 0.026950277
2220 0.056709517
2218 0.058156412
2216 0.05797923
2214 0.057734586
2212 0.06662932
2210 0.090421073
2208 0.10819012
2206 0.11729907
2204 0.12339031
2202 0.12707298
2200 0.14172852
2198 0.16469149
2196 0.18657358
2194 0.2075351
2192 0.22809269
2190 0.24852164
2188 0.25941855
2186 0.26722127
2184 0.2427132
2182 0.21080503
2180 0.17999537
2178 0.14983207
2176 0.15441228
2174 0.16253804
2172 0.17470665
2170 0.1834276
2168 0.17030612
2166 0.15121163
2164 0.11816192
2162 0.086940445
2160 0.063921221
2158 0.053025451
2156 0.063500002
2154 0.086082317
2152 0.12301184
2150 0.16049658
2148 0.19693412
2146 0.21712822
2144 0.22306578
2142 0.2085713
2140 0.18093365
2138 0.15551256
2136 0.1319997
2134 0.11897501
2132 0.110204
2130 0.088851072
2128 0.063333958
2126 0.032003894
2124 -0.00056246715
2122 -0.0072153267
2120 -0.0083147446
2118 0.017119054
2116 0.046923473
2114 0.080799177
2112 0.10777679
2110 0.10132839
2108 0.079709321
2106 0.027115693
2104 -0.02080692
2102 -0.048228532
2100 -0.061320677
2098 -0.055388499
2096 -0.058356144
2094 -0.076524697
2092 -0.10370608
2090 -0.13791174
2088 -0.169622
2086 -0.198645
2084 -0.23253968
2082 -0.26997754
2080 -0.30450889
2078 -0.33713862
2076 -0.35517845
2074 -0.3672007
2072 -0.37238681
2070 -0.3754954
2068 -0.3822737
2066 -0.39011049
2064 -0.4171477
2062 -0.44846168
2060 -0.4884488
2058 -0.52697194
2056 -0.54812711
2054 -0.56456971
2052 -0.57553631
2050 -0.59142125
2048 -0.62171769
2046 -0.65753925
2044 -0.69808823
2042 -0.73054278
2040 -0.75028193
2038 -0.76572019
2036 -0.77997959
2034 -0.80570948
2032 -0.84259456
2030 -0.8703177
2028 -0.88864356
2026 -0.87705511
2024 -0.84685087
2022 -0.80925393
2020 -0.76898569
2018 -0.75357884
2016 -0.74923003
2014 -0.78931916
2012 -0.84473222
2010 -0.9232589
2008 -1.0064195
2006 -1.0636979
2004 -1.1115555
2002 -1.1372
2000 -1.1597737
1998 -1.1902821
1996 -1.2220286
1994 -1.2493483
1992 -1.2636898
1990 -1.2543786
1988 -1.232302
1986 -1.2020079
1984 -1.1732178
1982 -1.1491586
1980 -1.1365669
1978 -1.1340137
1976 -1.1418457
1974 -1.156366
1972 -1.1497011
1970 -1.1250433
1968 -1.0785297
1966 -1.02029
1964 -0.99950892
1962 -1.0005362
1960 -1.034332
1958 -1.0817183
1956 -1.1148515
1954 -1.1427845
1952 -1.1661943
1950 -1.1906472
1948 -1.224252
1946 -1.25985
1944 -1.2932531
1942 -1.3206269
1940 -1.3412685
1938 -1.3611345
1936 -1.3873972
1934 -1.4187964
1932 -1.452508
1930 -1.4813415
1928 -1.4969509
1926 -1.4952178
1924 -1.4728665
1922 -1.4281709
1920 -1.3675691
1918 -1.30796
1916 -1.2569643
1914 -1.2286028
1912 -1.2156429
1910 -1.2224605
1908 -1.2389668
1906 -1.2735506
1904 -1.317904
1902 -1.349311
1900 -1.3753175
1898 -1.3562186
1896 -1.3193429
1894 -1.2721592
1892 -1.22752
1890 -1.233434
1888 -1.2686468
1886 -1.3534307
1884 -1.45049
1882 -1.5303466
1880 -1.5860777
1878 -1.5971032
1876 -1.58219
1874 -1.5409824
1872 -1.4844989
1870 -1.4137256
1868 -1.3447077
1866 -1.2919357
1864 -1.2728674
1862 -1.2921211
1860 -1.3361286
1858 -1.3903861
1856 -1.4459885
1854 -1.4973406
1852 -1.5415435
1850 -1.578173
1848 -1.605284
1846 -1.6235536
1844 -1.6347619
1842 -1.6389163
1840 -1.62534
1838 -1.6027552
1836 -1.5515915
1834 -1.487018
1832 -1.3991103
1830 -1.3011203
1828 -1.2110492
1826 -1.1350685
1824 -1.1047378
1822 -1.1072867
1820 -1.138548
1818 -1.1783891
1816 -1.2047743
1814 -1.2169456
1812 -1.2115868
1810 -1.1896075
1808 -1.1566834
1806 -1.102955
1804 -1.0317681
1802 -0.96670794
1800 -0.90799093
1798 -0.8654809
1796 -0.83369786
1794 -0.76824707
1792 -0.68221241
1790 -0.57861263
1788 -0.47134981
1786 -0.39574865
1784 -0.34232399
1782 -0.29848421
1780 -0.26016191
1778 -0.20751861
1776 -0.14245144
1774 -0.055311225
1772 0.041000728
1770 0.11010853
1768 0.15033995
1766 0.14112258
1764 0.10888458
1762 0.087709606
1760 0.031365957
1758 -0.083780244
1756 -0.18931013
1754 -0.24822259
1752 -0.24380657
1750 -0.1767545
1748 -0.10267381
1746 -0.045309573
1744 -0.055294905
1742 -0.13418323
1740 -0.21014509
1738 -0.2685242
1736 -0.22488199
1734 -0.09883099
1732 0.024268854
1730 0.13180241
1728 0.1096078
1726 -0.0025372878
1724 -0.086352967
1722 -0.1227835
1720 0.021444961
1718 0.33875832
1716 0.88151526
1714 1.5424644
1712 2.1368532
1710 2.6698685
1708 3.1633639
1706 3.783185
1704 4.6968312
1702 6.173377
1700 8.3448219
1698 11.421822
1696 15.356
1694 19.375191
1692 23.122383
1690 26.458174
1688 29.441532
1686 32.969044
1684 37.134907
1682 42.190247
1680 47.947319
1678 53.02631
1676 57.452301
1674 61.646641
1672 65.747391
1670 70.502708
1668 75.742592
1666 80.905052
1664 85.879837
1662 90.304588
1660 94.166321
1658 97.405113
1656 100.01194
1654 101.99794
1652 103.2846
1650 103.81001
1648 103.33823
1646 101.71214
1644 99.327415
1642 96.594772
1640 93.456024
1638 89.952629
1636 85.707741
1634 80.653358
1632 75.500877
1630 70.50116
1628 65.88781
1626 61.667816
1624 57.43428
1622 53.127884
1620 48.935368
1618 44.869812
1616 41.049915
1614 37.499462
1612 34.388618
1610 31.727631
1608 29.497784
1606 27.675428
1604 26.111631
1602 24.826361
1600 23.812618
1598 23.079594
1596 22.598499
1594 22.338774
1592 22.226593
1590 22.231316
1588 22.304899
1586 22.448685
1584 22.659451
1582 22.93976
1580 23.290169
1578 23.755339
1576 24.347
1574 25.085548
1572 25.962538
1570 26.921501
1568 27.944481
1566 29.011608
1564 30.127878
1562 31.481327
1560 33.173126
1558 35.800991
1556 39.430229
1554 43.366638
1552 47.365044
1550 50.417671
1548 52.560867
1546 54.38607
1544 55.91346
1542 57.28286
1540 58.281342
1538 58.58334
1536 58.154541
1534 57.077492
1532 55.613205
1530 54.118355
1528 52.602154
1526 51.07365
1524 49.412422
1522 47.531204
1520 45.387287
1518 42.921848
1516 40.490959
1514 38.217842
1512 36.052082
1510 34.023403
1508 31.544163
1506 28.468435
1504 25.345196
1502 22.216324
1500 19.558743
1498 17.425671
1496 15.333714
1494 13.28195
1492 11.203723
1490 9.112298
1488 7.040761
1486 5.0630665
1484 3.3073821
1482 1.8623011
1480 0.82535815
1478 0.21615925
1476 0.048817515
1474 0.4160856
1472 1.2560985
1470 2.2713299
1468 3.2693999
1466 4.1028943
1464 4.678216
1462 5.1621776
1460 5.6165724
1458 6.0841479
1456 6.5742998
1454 6.9596047
1452 7.1583834
1450 7.2119656
1448 7.0544233
1446 6.8490963
1444 6.583014
1442 6.317265
1440 6.0511837
1438 5.7572145
1436 5.4131212
1434 4.9527798
1432 4.3781075
1430 3.7703404
1428 3.169672
1426 2.6927164
1424 2.3600023
1422 2.1827323
1420 2.1541376
1418 2.2400441
1416 2.4001343
1414 2.590281
1412 2.7846618
1410 2.9851427
1408 3.2057476
1406 3.469883
1404 3.7798915
1402 4.1480742
1400 4.5509958
1398 4.9965577
1396 5.4344573
1394 5.8425937
1392 6.1802039
1390 6.375803
1388 6.4608269
1386 6.36379
1384 6.1498976
1382 5.7752643
1380 5.3352265
1378 4.8251534
1376 4.3078427
1374 3.8060579
1372 3.3502581
1370 2.9523797
1368 2.6184046
1366 2.306447
1364 1.9519749
1362 1.5519805
1360 1.0890229
1358 0.6426841
1356 0.30727771
1354 0.077114791
1352 0.012631395
1350 0.029428281
1348 0.12491661
1346 0.25229642
1344 0.42759678
1342 0.62906379
1340 0.87920618
1338 1.1325077
1336 1.3816285
1334 1.6085477
1332 1.7757235
1330 1.93446
1328 2.0825658
1326 2.2539065
1324 2.472537
1322 2.7271986
1320 3.0345206
1318 3.3616877
1316 3.7037899
1314 4.0219011
1312 4.2986283
1310 4.5183277
1308 4.6778736
1306 4.7882657
1304 4.8601561
1302 4.9003682
1300 4.9170022
1298 4.899262
1296 4.8632717
1294 4.801909
1292 4.7381659
1290 4.6808243
1288 4.6317
1286 4.6001658
1284 4.5757465
1282 4.5642705
1280 4.5605283
1278 4.5734472
1276 4.5941501
1274 4.633297
1272 4.6790385
1270 4.7393179
1268 4.807374
1266 4.8861551
1264 4.9752865
1262 5.0757036
1260 5.1862998
1258 5.3076544
1256 5.434917
1254 5.5670123
1252 5.7004757
1250 5.833622
1248 5.96346
1246 6.0880499
1244 6.1967521
1242 6.2904172
1240 6.3512545
1238 6.385776
1236 6.3647013
1234 6.3005023
1232 6.1308322
1230 5.9082346
1228 5.5490923
1226 5.1580844
1224 4.6869359
1222 4.2105002
1220 3.7227273
1218 3.2465961
1216 2.79656
1214 2.3726723
1212 1.9956203
1210 1.6466882
1208 1.3401731
1206 1.0617931
1204 0.82111502
1202 0.61733866
1200 0.45267612
1198 0.31676325
1196 0.20342286
1194 0.097550079
1192 -0.0014740303
1190 -0.089557469
1188 -0.16330406
1186 -0.19794643
1184 -0.20333949
1182 -0.14140287
1180 -0.04171256
1178 0.15082537
1176 0.37774599
1174 0.69326293
1172 1.0143867
1170 1.334265
1168 1.6210343
1166 1.8026199
1164 1.9392705
1162 1.96356
1160 1.9511485
1158 1.8635886
1156 1.7445443
1154 1.5741996
1152 1.3898079
1150 1.1877062
1148 0.9850232
1146 0.78059536
1144 0.57072073
1142 0.36182934
1140 0.18458977
1138 0.045576267
1136 -0.00065000972
1134 0.018929556
1132 0.14705837
1130 0.32475245
1128 0.54536361
1126 0.76746529
1124 0.93679762
1122 1.0796041
1120 1.13126
1118 1.1704956
1116 1.1877072
1114 1.2118642
1112 1.2673103
1110 1.3292342
1108 1.4114654
1106 1.4970701
1104 1.5887302
1102 1.6632358
1100 1.7006068
1098 1.7043897
1096 1.6572715
1094 1.6102387
1092 1.5663841
1090 1.5455385
1088 1.5458239
1086 1.5410328
1084 1.5303502
1082 1.5048828
1080 1.4708132
1078 1.4359241
1076 1.3991286
1074 1.3506123
1072 1.294844
1070 1.2157979
1068 1.1302023
1066 1.0357672
1064 0.9402228
1062 0.84556365
1060 0.75110912
1058 0.6577279
1056 0.57120633
1054 0.51521909
1052 0.46906194
1050 0.45305368
1048 0.42394686
1046 0.36175537
1044 0.28006619
1042 0.16354305
1040 0.061326668
1038 -0.018759057
1036 -0.079074904
1034 -0.11798888
1032 -0.16723526
1030 -0.2276701
1028 -0.31355312
1026 -0.41817245
1024 -0.53863072
1022 -0.66622663
1020 -0.78032178
1018 -0.88605088
1016 -0.95502913
1014 -1.0123872
1012 -1.0510415
1010 -1.0888277
1008 -1.1531199
1006 -1.2220551
1004 -1.3204751
1002 -1.4149879
1000 -1.4812675
998 -1.5319542
996 -1.5139215
994 -1.479755
992 -1.3964428
990 -1.314242
988 -1.2356929
986 -1.17541
984 -1.1472211
982 -1.1380644
980 -1.153466
978 -1.164269
976 -1.1688399
974 -1.1436812
972 -1.0941745
970 -1.0306795
968 -0.95870948
966 -0.89063501
964 -0.82415473
962 -0.75619203
960 -0.68802863
958 -0.61985636
956 -0.55162072
954 -0.47704753
952 -0.40087038
950 -0.30269092
948 -0.20110512
946 -0.065314934
944 0.0020517595
942 0.063940518
940 0.18926586
938 0.33914709
936 0.49064714
934 0.6467346
932 0.78808117
930 0.89720005
928 0.97199082
926 0.99160147
924 0.9868784
922 0.95292157
920 0.92295587
918 0.89659822
916 0.87620556
914 0.85979033
912 0.84117126
910 0.82216668
908 0.81389499
906 0.81115669
904 0.83310807
902 0.86264116
900 0.93050259
898 1.0049002
896 1.1449
