Image.
>Pix99999.
  .
5555
5555
2300
900
5555
2
1
0
701
5555
-2.2820000e-002
-2.3294322e-002
-2.3768643e-002
-2.4243960e-002
-2.4718286e-002
-2.5193600e-002
-2.5667928e-002
-2.6142251e-002
-2.6617559e-002
-2.7091892e-002
-2.7567200e-002
-2.8041536e-002
-2.8515857e-002
-2.8991159e-002
-2.9465500e-002
-2.9940801e-002
-3.0415142e-002
-3.0890441e-002
-3.1364784e-002
-3.1839106e-002
-3.2314397e-002
-3.2788750e-002
-3.3264041e-002
-3.3738393e-002
-3.4212712e-002
-3.4688003e-002
-1.2890429e-003
7.1658157e-002
1.5253012e-001
2.2848764e-001
3.0372199e-001
3.2414329e-001
3.3892983e-001
3.1579763e-001
2.9111019e-001
2.6866800e-001
2.4785766e-001
2.3409829e-001
2.2502042e-001
2.2912923e-001
2.4285457e-001
2.7596098e-001
3.1181940e-001
3.5032147e-001
3.7768421e-001
3.9095351e-001
3.9672974e-001
3.9612848e-001
3.8981012e-001
3.7953851e-001
3.5150927e-001
3.1340903e-001
2.9198241e-001
2.7817851e-001
3.2588762e-001
3.9342800e-001
4.8210001e-001
5.7533669e-001
6.2126905e-001
6.5964615e-001
6.6091257e-001
6.5870351e-001
6.5572101e-001
6.5162802e-001
6.4164639e-001
6.3208032e-001
6.2618232e-001
6.2509936e-001
6.3543189e-001
6.4361721e-001
6.4550602e-001
6.4352733e-001
6.3688439e-001
6.3198495e-001
6.2961304e-001
6.2420249e-001
6.1587805e-001
6.0150987e-001
5.8318037e-001
5.7009834e-001
5.6009084e-001
5.7268643e-001
5.9460914e-001
6.3490820e-001
6.8078440e-001
7.1967423e-001
7.5685710e-001
7.7156079e-001
7.8147185e-001
7.6811332e-001
7.4942416e-001
7.1543378e-001
6.7939067e-001
6.4384037e-001
6.1121804e-001
5.8725339e-001
5.6832796e-001
5.5777287e-001
5.5488044e-001
5.6283653e-001
5.8170140e-001
6.1285001e-001
6.4884269e-001
6.8799430e-001
7.1982414e-001
7.4504900e-001
7.6186132e-001
7.7366412e-001
7.7606344e-001
7.7395266e-001
7.5690198e-001
7.3390859e-001
7.1485519e-001
6.9733208e-001
6.9471258e-001
6.9576120e-001
6.8889356e-001
6.8036908e-001
6.6828108e-001
6.5772039e-001
6.5936399e-001
6.6485745e-001
6.7628056e-001
6.8556887e-001
6.8720341e-001
6.7455536e-001
6.3749939e-001
5.8682311e-001
5.2193123e-001
4.7084436e-001
4.3874627e-001
4.3233079e-001
4.4758639e-001
4.6674198e-001
4.8647249e-001
5.0462294e-001
5.2207750e-001
5.5269307e-001
5.9045482e-001
6.1569136e-001
6.3490599e-001
6.0938430e-001
5.6840247e-001
5.1464546e-001
4.5892537e-001
4.2722663e-001
4.0408328e-001
3.9989349e-001
4.0230897e-001
4.1506562e-001
4.3028498e-001
4.4673952e-001
4.5905972e-001
4.5890692e-001
4.5336178e-001
4.4042265e-001
4.2562053e-001
4.1073859e-001
3.9619383e-001
3.8340840e-001
3.8497627e-001
4.0026090e-001
4.3461409e-001
4.8202646e-001
5.1045978e-001
5.2519178e-001
4.9642277e-001
4.4500884e-001
3.9445361e-001
3.4524792e-001
3.1562772e-001
2.9271728e-001
2.7204919e-001
2.5291604e-001
2.5364527e-001
2.6362753e-001
2.8727508e-001
3.1410673e-001
3.2715604e-001
3.3493936e-001
3.3771688e-001
3.3819535e-001
3.4053180e-001
3.3400336e-001
3.1591526e-001
2.8878942e-001
2.5621113e-001
2.2843954e-001
2.0550588e-001
1.9190580e-001
1.8221143e-001
1.9462460e-001
2.2347012e-001
2.6364776e-001
3.1014535e-001
3.1867906e-001
3.0526799e-001
2.6169127e-001
2.0421483e-001
1.7614289e-001
1.6251428e-001
1.9171420e-001
2.3760881e-001
2.7862099e-001
3.0784434e-001
2.8908521e-001
2.4762788e-001
1.9023350e-001
1.3489521e-001
1.0044426e-001
7.4279703e-002
5.5867102e-002
3.8299449e-002
2.1567965e-002
1.0618519e-002
-3.9662234e-004
-1.6518367e-002
-4.4271961e-002
-7.4145958e-002
-1.0068432e-001
-1.1912715e-001
-1.2901108e-001
-1.3964306e-001
-1.4916630e-001
-1.5844320e-001
-1.6446428e-001
-1.7307189e-001
-1.8045266e-001
-1.8610926e-001
-1.9029173e-001
-1.6978642e-001
-1.3730109e-001
-8.3500102e-002
-2.3069687e-002
2.1365874e-002
4.3656964e-002
1.1078026e-002
-5.8992509e-002
-1.5973008e-001
-2.6000011e-001
-3.3156401e-001
-3.6798272e-001
-3.6551046e-001
-3.4055418e-001
-3.0586839e-001
-2.6651049e-001
-2.2607988e-001
-2.0001671e-001
-1.8447834e-001
-1.8807833e-001
-2.0423071e-001
-1.9965288e-001
-1.8259320e-001
-1.4554869e-001
-1.0157251e-001
-7.5262912e-002
-6.2611654e-002
-5.8868315e-002
-6.0370460e-002
-5.1087700e-002
-3.1027600e-002
1.1822520e-002
6.9136858e-002
1.1847010e-001
1.5019868e-001
1.3925979e-001
9.9521898e-002
5.1049605e-002
1.2071486e-002
-9.2086226e-002
-2.0794171e-001
-2.7343494e-001
-2.7956206e-001
-2.3045491e-001
-1.7829438e-001
-1.4400285e-001
-1.6676526e-001
-2.4670073e-001
-3.2308316e-001
-3.8396415e-001
-3.4904200e-001
-2.3735364e-001
-1.1029607e-001
1.5495677e-002
2.7555155e-002
-4.0182736e-002
-9.3373068e-002
-1.1265700e-001
1.3535433e-002
2.7976283e-001
7.4763829e-001
1.3324280e+000
1.8861463e+000
2.4139988e+000
2.9364121e+000
3.6045451e+000
4.5684042e+000
6.0776339e+000
8.2525835e+000
1.1304095e+001
1.5192857e+001
1.9183350e+001
2.2932205e+001
2.6284515e+001
2.9287846e+001
3.2835896e+001
3.7021603e+001
4.2098721e+001
4.7881439e+001
5.2939354e+001
5.7305313e+001
6.1459305e+001
6.5554939e+001
7.0536964e+001
7.6193153e+001
8.1875298e+001
8.7393768e+001
9.2142982e+001
9.6145897e+001
9.9403542e+001
1.0194485e+002
1.0382214e+002
1.0483400e+002
1.0479763e+002
1.0359000e+002
1.0118143e+002
9.8246033e+001
9.5376884e+001
9.2371468e+001
8.9143349e+001
8.5138489e+001
8.0215607e+001
7.5118759e+001
7.0121964e+001
6.5519447e+001
6.1330021e+001
5.7109680e+001
5.2796215e+001
4.8583855e+001
4.4489372e+001
4.0680599e+001
3.7179104e+001
3.4130463e+001
3.1539291e+001
2.9357040e+001
2.7561092e+001
2.6010149e+001
2.4721317e+001
2.3684515e+001
2.2909023e+001
2.2369499e+001
2.2047354e+001
2.1884222e+001
2.1855906e+001
2.1917912e+001
2.2070049e+001
2.2305687e+001
2.2621851e+001
2.3013689e+001
2.3517876e+001
2.4143057e+001
2.4908688e+001
2.5807194e+001
2.6791426e+001
2.7846800e+001
2.8954100e+001
3.0118734e+001
3.1516405e+001
3.3240932e+001
3.5838543e+001
3.9360714e+001
4.3122658e+001
4.6908016e+001
4.9844254e+001
5.1979179e+001
5.3874966e+001
5.5542740e+001
5.7081608e+001
5.8259079e+001
5.8721584e+001
5.8414772e+001
5.7403267e+001
5.5961567e+001
5.4456127e+001
5.2889942e+001
5.1267799e+001
4.9469063e+001
4.7408901e+001
4.5141350e+001
4.2659294e+001
4.0306583e+001
3.8211800e+001
3.6189960e+001
3.4233349e+001
3.1782858e+001
2.8688593e+001
2.5582121e+001
2.2515160e+001
1.9919491e+001
1.7844030e+001
1.5780429e+001
1.3723533e+001
1.1630507e+001
9.5171938e+000
7.4316592e+000
5.4392886e+000
3.6495519e+000
2.1484523e+000
1.0299444e+000
3.2307741e-001
5.7214744e-002
3.3795744e-001
1.1224010e+000
2.1138549e+000
3.1252077e+000
3.9851179e+000
4.5824547e+000
5.0734410e+000
5.5102234e+000
5.9537134e+000
6.4184198e+000
6.8097439e+000
7.0665121e+000
7.1853509e+000
7.0994291e+000
6.9417109e+000
6.6884112e+000
6.4182692e+000
6.1259422e+000
5.8026967e+000
5.4288430e+000
4.9560633e+000
4.3909965e+000
3.8146315e+000
3.2614939e+000
2.8222141e+000
2.5055342e+000
2.3048103e+000
2.2170801e+000
2.2185395e+000
2.3029144e+000
2.4661310e+000
2.6802869e+000
2.9525714e+000
3.2574441e+000
3.5966387e+000
3.9620886e+000
4.3540521e+000
4.7665439e+000
5.2051229e+000
5.6283784e+000
6.0109692e+000
6.3168578e+000
6.4743824e+000
6.5279708e+000
6.4118800e+000
6.1918788e+000
5.8287020e+000
5.4065199e+000
4.9180818e+000
4.4131975e+000
3.9071562e+000
3.4259081e+000
2.9833558e+000
2.5988674e+000
2.2403686e+000
1.8580246e+000
1.4483774e+000
9.9695194e-001
5.7240915e-001
2.6018363e-001
5.2052833e-002
3.2589578e-003
3.1595483e-002
1.3159542e-001
2.5531179e-001
4.1889361e-001
6.0134089e-001
8.1806111e-001
1.0410267e+000
1.2687657e+000
1.4835567e+000
1.6583903e+000
1.8242509e+000
1.9779235e+000
2.1500642e+000
2.3621697e+000
2.6125553e+000
2.9177508e+000
3.2463140e+000
3.5931101e+000
3.9176283e+000
4.2052231e+000
4.4433613e+000
4.6259351e+000
4.7541466e+000
4.8317270e+000
4.8492599e+000
4.8286953e+000
4.7677684e+000
4.6955857e+000
4.6235871e+000
4.5596037e+000
4.5146646e+000
4.4795761e+000
4.4620824e+000
4.4480453e+000
4.4375944e+000
4.4235835e+000
4.4016972e+000
4.3862557e+000
4.3888402e+000
4.4151378e+000
4.4837642e+000
4.5691390e+000
4.6747031e+000
4.7781491e+000
4.8779702e+000
4.9813418e+000
5.0918455e+000
5.2176056e+000
5.3548374e+000
5.4925165e+000
5.6233397e+000
5.7295356e+000
5.8149748e+000
5.8676667e+000
5.9007478e+000
5.9078259e+000
5.8924298e+000
5.8273826e+000
5.7238455e+000
5.5261760e+000
5.2878823e+000
4.9490385e+000
4.5819855e+000
4.1413488e+000
3.6864095e+000
3.1991191e+000
2.7202029e+000
2.2613542e+000
1.8304412e+000
1.4504460e+000
1.1049348e+000
8.1163132e-001
5.5365622e-001
3.3908337e-001
1.5154123e-001
-8.8025033e-003
-1.5448378e-001
-2.8480786e-001
-3.9509135e-001
-4.8716074e-001
-5.5041599e-001
-5.9516007e-001
-6.1594665e-001
-6.1819273e-001
-5.7670259e-001
-4.9962813e-001
-3.1712446e-001
-9.1209993e-002
2.5273994e-001
6.0418868e-001
9.5506728e-001
1.2666389e+000
1.4543194e+000
1.5961640e+000
1.6253730e+000
1.6319606e+000
1.5919569e+000
1.5300343e+000
1.4278718e+000
1.2880960e+000
1.0969902e+000
8.8392723e-001
6.5136319e-001
4.3581831e-001
2.4453127e-001
1.1018710e-001
2.7143490e-002
1.8325973e-002
5.6774631e-002
1.5435071e-001
2.7773836e-001
4.1850305e-001
5.6110179e-001
6.8917924e-001
8.0923200e-001
9.0017039e-001
9.8727894e-001
1.0682329e+000
1.1549153e+000
1.2662960e+000
1.3819185e+000
1.5094017e+000
1.6238800e+000
1.7037965e+000
1.7566619e+000
1.7563614e+000
1.7450167e+000
1.7184429e+000
1.7044274e+000
1.7076499e+000
1.7277163e+000
1.7651538e+000
1.8118286e+000
1.8638983e+000
1.9029115e+000
1.9277058e+000
1.9040109e+000
1.8519485e+000
1.7513623e+000
1.6372303e+000
1.5402793e+000
1.4539034e+000
1.4182543e+000
1.3904761e+000
1.3728368e+000
1.3540677e+000
1.3245550e+000
1.2906314e+000
1.2368286e+000
1.1730143e+000
1.0781896e+000
9.8383033e-001
8.9169210e-001
8.1042051e-001
7.4798876e-001
6.7874825e-001
5.9910893e-001
5.1542103e-001
4.2881683e-001
3.5697937e-001
2.9702246e-001
2.2224703e-001
1.3499211e-001
2.2027105e-002
-1.0226338e-001
-2.0355853e-001
-2.9263961e-001
-3.4334713e-001
-3.8426614e-001
-4.3098062e-001
-4.8107281e-001
-5.5930042e-001
-6.3834518e-001
-6.9987893e-001
-7.5359476e-001
-7.5504094e-001
-7.5020528e-001
-7.1774858e-001
-6.8223172e-001
-6.3713169e-001
-5.8435321e-001
-5.1427323e-001
-4.4528043e-001
-3.7891829e-001
-3.3212140e-001
-3.1174901e-001
-3.0371407e-001
-3.0864400e-001
-3.1507900e-001
-3.2335645e-001
-3.4221247e-001
-3.6750686e-001
-3.9864799e-001
-4.3098083e-001
-4.3591744e-001
-4.3032119e-001
-3.8386074e-001
-3.2878315e-001
-2.7199817e-001
-2.1554561e-001
-1.7047228e-001
-1.2324898e-001
-3.9830785e-002
1.3676919e-003
4.2597078e-002
1.2525457e-001
2.2070691e-001
3.1577572e-001
4.0970674e-001
4.9286109e-001
5.5278701e-001
5.9988189e-001
6.2659198e-001
6.5229380e-001
6.7642945e-001
6.7272103e-001
6.4250743e-001
5.7652360e-001
4.8579282e-001
4.4047171e-001
4.2050841e-001
4.8554590e-001
5.8409327e-001
6.8241668e-001
7.8112853e-001
8.0638915e-001
8.1995708e-001
7.4801999e-001
