Image.
>Pix99999.
  .
5555
5555
2300
900
5555
2
1
0
701
5555
1.2666000e-001
1.2929623e-001
1.3193247e-001
1.3456869e-001
1.3720492e-001
1.3984115e-001
1.4247736e-001
1.4511360e-001
1.4773995e-001
1.5037605e-001
1.5301229e-001
1.5565835e-001
1.5828490e-001
1.6090135e-001
1.6355680e-001
1.6625214e-001
1.6883102e-001
1.7123172e-001
1.7408620e-001
1.7759418e-001
1.7939001e-001
1.7879011e-001
1.8453300e-001
1.9920780e-001
1.9033256e-001
1.3116892e-001
5.7275437e-002
1.0972725e-002
-8.4957881e-003
-1.8249372e-002
-5.1777199e-002
-1.3087361e-001
-2.1177669e-001
-2.4215047e-001
-2.1119754e-001
-1.2931301e-001
-4.3109715e-002
9.9395518e-004
-4.1004369e-004
-3.3448908e-002
-6.6257022e-002
-6.6748805e-002
-2.2977440e-002
6.2627725e-002
1.5421079e-001
2.0847870e-001
1.9272254e-001
9.1852538e-002
-5.1523115e-002
-1.8166886e-001
-2.6169929e-001
-2.7206460e-001
-2.3853183e-001
-1.9796973e-001
-1.7491783e-001
-1.8412286e-001
-2.1764560e-001
-2.5750759e-001
-2.7432704e-001
-2.4253850e-001
-1.6670457e-001
-6.6345006e-002
1.8300928e-002
5.0779551e-002
3.7038732e-002
-3.3265506e-003
-5.3064018e-002
-1.0054836e-001
-1.5261446e-001
-2.1479943e-001
-2.6208001e-001
-2.6407909e-001
-2.1201590e-001
-1.1321234e-001
-9.6648065e-003
5.1573839e-002
5.1232394e-002
-1.3939950e-002
-1.2256614e-001
-2.4492957e-001
-3.5137630e-001
-4.1515568e-001
-4.2018312e-001
-3.5859376e-001
-2.4075361e-001
-8.7040521e-002
6.7606695e-002
1.8607002e-001
2.4328354e-001
2.2816482e-001
1.6849558e-001
1.0386013e-001
6.3813023e-002
6.4615600e-002
8.5131504e-002
9.5268145e-002
8.5558183e-002
5.7684168e-002
2.4953380e-002
1.4451250e-003
-1.2717485e-002
-2.1001818e-002
-1.8733220e-002
-3.9939722e-004
2.8911138e-002
5.6881301e-002
5.8989398e-002
1.2424473e-002
-7.9126149e-002
-1.9657786e-001
-3.0151257e-001
-3.5351422e-001
-3.3428359e-001
-2.4280621e-001
-1.1127475e-001
1.7258856e-002
1.0946193e-001
1.4475127e-001
1.3665992e-001
1.1053820e-001
8.2789168e-002
6.2224101e-002
4.4315070e-002
2.0957220e-002
-8.2769990e-003
-4.0408716e-002
-7.3010020e-002
-1.0334873e-001
-1.2567669e-001
-1.3374250e-001
-1.2471057e-001
-9.8529562e-002
-6.0393777e-002
-1.7634615e-002
2.2732534e-002
5.4668128e-002
7.5146802e-002
8.1936337e-002
7.0528589e-002
3.6603466e-002
-1.8724801e-002
-8.5952453e-002
-1.3068648e-001
-1.1698002e-001
-4.9804688e-002
4.0707015e-002
1.0013986e-001
7.7389672e-002
-2.1725561e-002
-1.6052970e-001
-2.8657570e-001
-3.5366714e-001
-3.6665750e-001
-3.5533604e-001
-3.5133019e-001
-3.7773380e-001
-4.2434365e-001
-4.6799588e-001
-4.9831668e-001
-5.1205581e-001
-5.0551343e-001
-4.7398880e-001
-4.1156536e-001
-3.1972203e-001
-2.3400205e-001
-2.0076771e-001
-2.4025089e-001
-3.4870592e-001
-4.8070842e-001
-5.7892990e-001
-6.2058002e-001
-6.0734230e-001
-5.6467658e-001
-5.2530789e-001
-5.0698739e-001
-5.1561999e-001
-5.4251611e-001
-5.7300544e-001
-5.9639984e-001
-6.0638690e-001
-6.0416919e-001
-5.9470910e-001
-5.8281243e-001
-5.7221472e-001
-5.6356758e-001
-5.5301815e-001
-5.2413112e-001
-4.6067780e-001
-3.7611887e-001
-2.9874989e-001
-2.4897386e-001
-2.3282906e-001
-2.1857931e-001
-1.6475722e-001
-7.5924188e-002
1.4824301e-002
6.8635359e-002
5.7408858e-002
3.7398133e-003
-4.4307895e-002
-5.2129716e-002
-5.4434473e-003
6.5469138e-002
1.0852139e-001
8.3287634e-002
-3.0023709e-002
-1.9982199e-001
-3.6960262e-001
-5.0034130e-001
-5.7146025e-001
-5.8699399e-001
-5.6150216e-001
-4.9763563e-001
-3.9506638e-001
-2.7692875e-001
-1.7991985e-001
-1.3527891e-001
-1.6119660e-001
-2.3893853e-001
-3.3183578e-001
-4.2038229e-001
-4.9798027e-001
-5.5904198e-001
-5.9644365e-001
-5.9912044e-001
-5.5955714e-001
-4.9647450e-001
-4.4322956e-001
-4.2468068e-001
-4.5035163e-001
-4.9288398e-001
-5.0461048e-001
-4.4753432e-001
-3.0505472e-001
-1.1786184e-001
4.0644024e-002
1.1035096e-001
5.6721617e-002
-9.6114844e-002
-2.8836691e-001
-4.6443027e-001
-5.8242631e-001
-6.3118494e-001
-6.1965144e-001
-5.6016314e-001
-4.6771199e-001
-3.6944771e-001
-2.9650846e-001
-2.6143047e-001
-2.5555801e-001
-2.3514713e-001
-1.4795421e-001
-3.4515187e-003
1.4573741e-001
2.5397989e-001
2.9479659e-001
2.8206441e-001
2.5458565e-001
2.4359128e-001
2.7096051e-001
3.5523057e-001
5.0289130e-001
6.7095262e-001
7.8556389e-001
7.9044533e-001
6.6252255e-001
4.5315540e-001
2.4936691e-001
6.7800172e-002
-1.1912224e-001
-2.7816156e-001
-3.3167705e-001
-2.3620144e-001
2.9129982e-003
3.0236000e-001
5.3421646e-001
6.0894984e-001
4.9755928e-001
2.8607523e-001
1.2489948e-001
8.8606998e-002
1.6548026e-001
2.6017934e-001
2.4549559e-001
9.4548613e-002
-1.2438034e-001
-2.9105020e-001
-2.6601130e-001
5.1357999e-002
6.9642782e-001
1.5579886e+000
2.4316449e+000
3.1858120e+000
3.7960720e+000
4.3974242e+000
5.2354240e+000
6.5373068e+000
8.4799547e+000
1.1154092e+001
1.4521502e+001
1.8237572e+001
2.1772480e+001
2.4842840e+001
2.7476410e+001
3.0041748e+001
3.3115345e+001
3.7117409e+001
4.2165031e+001
4.7724159e+001
5.2894253e+001
5.7462044e+001
6.1870594e+001
6.6578857e+001
7.1830200e+001
7.7296814e+001
8.2254204e+001
8.6296799e+001
8.9404381e+001
9.1726524e+001
9.3483559e+001
9.4824142e+001
9.5802971e+001
9.6399857e+001
9.6538452e+001
9.6125374e+001
9.5099930e+001
9.3583984e+001
9.1830460e+001
8.9942932e+001
8.7852112e+001
8.5434540e+001
8.2578712e+001
7.9320534e+001
7.5804802e+001
7.2052040e+001
6.7953903e+001
6.3448841e+001
5.8573845e+001
5.3515812e+001
4.8572712e+001
4.3974659e+001
3.9852730e+001
3.6273148e+001
3.3244850e+001
3.0703503e+001
2.8530542e+001
2.6639404e+001
2.4992426e+001
2.3593874e+001
2.2476614e+001
2.1659000e+001
2.1136541e+001
2.0886349e+001
2.0872589e+001
2.1065331e+001
2.1444643e+001
2.1997023e+001
2.2724779e+001
2.3690712e+001
2.5012226e+001
2.6788942e+001
2.9065569e+001
3.1745384e+001
3.4605255e+001
3.7454800e+001
4.0177036e+001
4.2722385e+001
4.5134396e+001
4.7645290e+001
5.0576855e+001
5.3797001e+001
5.6689510e+001
5.8754070e+001
5.9791622e+001
5.9971142e+001
5.9742893e+001
5.9292896e+001
5.8448971e+001
5.6997440e+001
5.4819675e+001
5.2107456e+001
4.9344635e+001
4.6862415e+001
4.4728741e+001
4.2878513e+001
4.1154049e+001
3.9388527e+001
3.7446732e+001
3.5288120e+001
3.2986485e+001
3.0693314e+001
2.8588125e+001
2.6665161e+001
2.4702034e+001
2.2495354e+001
1.9957321e+001
1.7234480e+001
1.4689010e+001
1.2536068e+001
1.0750248e+001
9.2109861e+000
7.7596302e+000
6.3165908e+000
4.9075403e+000
3.5730281e+000
2.3480887e+000
1.2866794e+000
4.6419960e-001
-6.0314804e-002
-2.4589966e-001
-1.3233840e-002
7.4032122e-001
1.9643972e+000
3.4182901e+000
4.8854046e+000
6.2483735e+000
7.4908862e+000
8.6946325e+000
9.9327621e+000
1.1222281e+001
1.2477600e+001
1.3507821e+001
1.4169211e+001
1.4421979e+001
1.4307898e+001
1.3942179e+001
1.3427971e+001
1.2825010e+001
1.2163554e+001
1.1444546e+001
1.0657542e+001
9.7930698e+000
8.8825150e+000
8.0101976e+000
7.2501082e+000
6.6414213e+000
6.1963921e+000
5.9001236e+000
5.7322307e+000
5.6731219e+000
5.7032685e+000
5.8051548e+000
5.9709630e+000
6.2048430e+000
6.5055404e+000
6.8579087e+000
7.2327194e+000
7.5845175e+000
7.8630519e+000
8.0185537e+000
8.0141430e+000
7.8365431e+000
7.5036283e+000
7.0699692e+000
6.5879941e+000
6.0939450e+000
5.6153479e+000
5.1703677e+000
4.7683644e+000
4.4048967e+000
4.0547771e+000
3.6696222e+000
3.2159519e+000
2.6934443e+000
2.1207125e+000
1.5336850e+000
9.6824062e-001
4.5542097e-001
3.2852918e-002
-2.5359958e-001
-3.7843728e-001
-3.5008171e-001
-1.7925210e-001
1.3034016e-001
5.6893754e-001
1.1156640e+000
1.7535040e+000
2.4709249e+000
3.2297010e+000
3.9453623e+000
4.5163054e+000
4.8395157e+000
4.8696513e+000
4.6584349e+000
4.2909164e+000
3.8681812e+000
3.4770432e+000
3.1699362e+000
2.9641709e+000
2.8310337e+000
2.7269199e+000
2.6042929e+000
2.4353120e+000
2.2278574e+000
2.0055697e+000
1.8039436e+000
1.6520051e+000
1.5629840e+000
1.5416874e+000
1.5859439e+000
1.6993715e+000
1.8979719e+000
2.2000415e+000
2.6191561e+000
3.1486561e+000
3.7464256e+000
4.3551860e+000
4.9078879e+000
5.3531280e+000
5.6747298e+000
5.8811884e+000
6.0109868e+000
6.1094036e+000
6.2202544e+000
6.3784919e+000
6.6032228e+000
6.9062376e+000
7.2929568e+000
7.7664442e+000
8.3282413e+000
8.9800510e+000
9.7245140e+000
1.0564925e+001
1.1504650e+001
1.2538816e+001
1.3647249e+001
1.4791874e+001
1.5906748e+001
1.6913492e+001
1.7726458e+001
1.8272715e+001
1.8513792e+001
1.8431280e+001
1.8030745e+001
1.7332201e+001
1.6367872e+001
1.5182743e+001
1.3841808e+001
1.2427686e+001
1.1048220e+001
9.8161249e+000
8.8310328e+000
8.1642799e+000
7.8259740e+000
7.7842431e+000
7.9481840e+000
8.2013044e+000
8.4052629e+000
8.4355440e+000
8.2132263e+000
7.7125430e+000
6.9987459e+000
6.1657658e+000
5.3199768e+000
4.5447745e+000
3.8672779e+000
3.2950034e+000
2.8219492e+000
2.4430170e+000
2.1608870e+000
1.9707201e+000
1.8480037e+000
1.7665743e+000
1.7083819e+000
1.6664588e+000
1.6529015e+000
1.6733446e+000
1.7091800e+000
1.7350812e+000
1.7246697e+000
1.6590371e+000
1.5380720e+000
1.3693211e+000
1.1679353e+000
9.5230681e-001
7.4235606e-001
5.5147696e-001
3.7655059e-001
2.0947003e-001
4.1468970e-002
-1.2215461e-001
-2.4513981e-001
-3.0739966e-001
-3.4359562e-001
-3.8996765e-001
-4.5416212e-001
-5.2741903e-001
-5.7928157e-001
-5.8667558e-001
-5.5734813e-001
-5.0699472e-001
-4.5216042e-001
-4.0349582e-001
-3.5664931e-001
-3.0476725e-001
-2.4421500e-001
-1.7694624e-001
-1.1622059e-001
-6.9403812e-002
-2.1854825e-002
4.8728578e-002
1.7002174e-001
3.6467761e-001
6.3893080e-001
9.9440205e-001
1.4290342e+000
1.9214759e+000
2.4024916e+000
2.7884777e+000
2.9927711e+000
2.9641986e+000
2.7489963e+000
2.4233115e+000
2.0788882e+000
1.7890322e+000
1.5661000e+000
1.4038119e+000
1.2845749e+000
1.1884040e+000
1.0981336e+000
1.0007383e+000
8.9507818e-001
7.9039681e-001
7.1686071e-001
7.0249248e-001
7.5404644e-001
8.6399829e-001
9.9985772e-001
1.1350309e+000
1.2773619e+000
1.4432200e+000
1.6466333e+000
1.8780040e+000
2.0601895e+000
2.1115150e+000
1.9884857e+000
1.6879429e+000
1.2989635e+000
9.2077649e-001
6.1426795e-001
4.0476370e-001
2.3898545e-001
5.5031762e-002
-1.7558506e-001
-4.5739320e-001
-7.4678004e-001
-9.9656737e-001
-1.1856476e+000
-1.3081131e+000
-1.3866305e+000
-1.4553357e+000
-1.5613840e+000
-1.7346846e+000
-1.9380589e+000
-2.1099570e+000
-2.1647193e+000
-2.0454223e+000
-1.8083054e+000
-1.5382659e+000
-1.3212107e+000
-1.2127228e+000
-1.1680326e+000
-1.1281080e+000
-1.0680447e+000
-9.8454833e-001
-9.1586703e-001
-8.9424765e-001
-8.9563155e-001
-8.8210475e-001
-8.1657642e-001
-6.7607403e-001
-4.8600018e-001
-2.8560442e-001
-1.2018350e-001
-2.5127508e-002
4.8858933e-003
-5.2023474e-003
3.0960143e-003
8.2715049e-002
2.3640560e-001
4.4584998e-001
6.6173971e-001
8.3485383e-001
9.4471705e-001
9.8354441e-001
9.6408206e-001
9.0458083e-001
8.2481319e-001
7.5000715e-001
7.2454846e-001
7.9497331e-001
9.9761772e-001
1.3388714e+000
1.7200580e+000
2.0240111e+000
2.1636264e+000
2.0968287e+000
1.9271824e+000
1.7836059e+000
1.7510177e+000
1.9032000e+000
