##TITLE=Methyl Ethyl Ketone
##JCAMP-DX=4.24
##DATA TYPE=INFRARED SPECTRUM
##XUNITS=cm-1
##YUNITS=Absorbance
##FIRSTX=900
##LASTX=2300
##XYDATA=(X++(Y..Y))
2296 0.075055003
2294 0.076616764
2292 0.078177534
2290 0.079739295
2288 0.081300065
2286 0.082861833
2284 0.084423594
2282 0.085984372
2280 0.087546125
2278 0.089107893
2276 0.090668671
2274 0.092230417
2272 0.093791209
2270 0.095352955
2268 0.096914724
2266 0.098475508
2264 0.10003432
2262 0.10160187
2260 0.10315989
2258 0.10471766
2256 0.10628514
2254 0.10784321
2252 0.10940097
2250 0.11096841
2248 0.11252651
2246 0.11409393
2244 0.063461348
2242 0.0023723743
2240 0.016128
2238 -0.018839685
2236 -0.061565857
2234 -0.12018898
2232 -0.17761509
2230 -0.18260309
2228 -0.18169245
2226 -0.15428001
2224 -0.13340376
2222 -0.14901972
2220 -0.17834035
2218 -0.24369983
2216 -0.2923117
2214 -0.29985952
2212 -0.2530472
2210 -0.1214651
2208 0.034307279
2206 0.2137415
2204 0.35200441
2202 0.44918627
2200 0.49883279
2198 0.51501215
2196 0.50495857
2194 0.48101488
2192 0.44196779
2190 0.39665696
2188 0.38070375
2186 0.37445393
2184 0.4407008
2182 0.52351302
2180 0.66224349
2178 0.80900812
2176 0.93939942
2174 1.0617738
2172 1.1098597
2170 1.1484441
2168 1.1726154
2166 1.2114393
2164 1.3082168
2162 1.4178236
2160 1.5457715
2158 1.6594502
2156 1.7429501
2154 1.7983547
2152 1.8174263
2150 1.8210602
2148 1.8113734
2146 1.833325
2144 1.8845046
2142 1.9787769
2140 2.1006825
2138 2.1880555
2136 2.25506
2134 2.2177551
2132 2.1376517
2130 2.0122447
2128 1.873764
2126 1.7900529
2124 1.7193123
2122 1.7144656
2120 1.7227811
2118 1.7832543
2116 1.8530743
2114 1.9378771
2112 2.0176435
2110 2.0669348
2108 2.1087406
2106 2.1411793
2104 2.1665399
2102 2.1790311
2100 2.1660521
2098 2.1133876
2096 2.0583
2094 2.0071154
2092 1.9943326
2090 2.0206914
2088 2.070015
2086 2.1342402
2084 2.1793308
2082 2.2106755
2080 2.1978629
2078 2.1623638
2076 2.1198199
2074 2.075304
2072 2.098608
2070 2.1436453
2068 2.2255383
2066 2.3139608
2064 2.3370931
2062 2.3414652
2060 2.2938604
2058 2.2390311
2056 2.2009656
2054 2.179698
2052 2.2040787
2050 2.2512791
2048 2.3310301
2046 2.4030607
2044 2.4461501
2042 2.4468424
2040 2.3945103
2038 2.328284
2036 2.2606914
2034 2.2256651
2032 2.2218792
2030 2.2423692
2028 2.2757235
2026 2.2975936
2024 2.3093376
2022 2.3061526
2020 2.2951052
2018 2.2594407
2016 2.2151201
2014 2.1369436
2012 2.0497501
2010 1.9731171
2008 1.9016851
2006 1.8506285
2004 1.8096012
2002 1.796165
2000 1.8001623
1998 1.839619
1996 1.8895786
1994 1.9385947
1992 1.9703938
1990 1.9729398
1988 1.9402541
1986 1.87026
1984 1.7760406
1982 1.6602937
1980 1.5594106
1978 1.4760715
1976 1.4408514
1974 1.443731
1972 1.4847591
1970 1.5471082
1968 1.585012
1966 1.6053514
1964 1.5535827
1962 1.4682045
1960 1.3601841
1958 1.245185
1956 1.1606658
1954 1.090129
1952 1.0656571
1950 1.0622213
1948 1.0800095
1946 1.0948501
1944 1.0646384
1942 1.0052196
1940 0.92775381
1938 0.85853887
1936 0.8336817
1934 0.83415157
1932 0.84635079
1930 0.87548172
1928 0.91353714
1926 1.006011
1924 1.1586397
1922 1.3378258
1920 1.5355994
1918 1.630788
1916 1.6417201
1914 1.5731574
1912 1.4571406
1910 1.3505162
1908 1.2520154
1906 1.1285615
1904 0.99286079
1902 0.87508756
1900 0.7699824
1898 0.76203525
1896 0.79620576
1894 0.85437548
1892 0.91307312
1890 0.93032378
1888 0.91970128
1886 0.87761313
1884 0.81486064
1882 0.72927707
1880 0.646752
1878 0.58079392
1876 0.57172501
1874 0.63598263
1872 0.7746225
1870 0.97643018
1868 1.1174498
1866 1.1831493
1864 1.0848206
1862 0.85882258
1860 0.61218333
1858 0.36754772
1856 0.22302315
1854 0.14513327
1852 0.22589077
1850 0.39471385
1848 0.69181716
1846 1.0447233
1844 1.2220192
1842 1.2874695
1840 1.0672212
1838 0.72423136
1836 0.41015702
1834 0.15622555
1832 0.080779985
1830 0.10980914
1828 0.24760336
1826 0.37395272
1824 0.39290133
1822 0.31160915
1820 0.10796372
1818 -0.099896051
1816 -0.25865343
1814 -0.32852602
1812 -0.3080318
1810 -0.26455212
1808 -0.22343537
1806 -0.184209
1804 -0.1435046
1802 -0.00041098148
1800 0.22559333
1798 0.52161437
1796 0.85568929
1794 1.0157168
1792 1.06118
1790 0.8880499
1788 0.60248893
1786 0.34768099
1784 0.13247696
1782 0.027718758
1780 0.011662995
1778 0.12976025
1776 0.32347029
1774 0.53014374
1772 0.65875667
1770 0.58285582
1768 0.38404655
1766 0.16036549
1764 0.0088761207
1762 -0.011836872
1760 0.025768183
1758 -0.030090004
1756 -0.11082885
1754 -0.15216632
1752 -0.014992058
1750 0.30835187
1748 0.69132125
1746 1.0875617
1744 1.2226251
1742 1.1321435
1740 0.9522382
1738 0.72756833
1736 0.61527401
1734 0.57670975
1732 0.41640076
1730 0.17065334
1728 -0.14841777
1726 -0.46429342
1724 -0.55004185
1722 -0.40957561
1720 0.014695093
1718 0.62657034
1716 1.4852554
1714 2.4123993
1712 3.1915076
1710 3.9264505
1708 4.6840701
1706 5.7132459
1704 7.1874962
1702 9.2574062
1700 11.979817
1698 15.032013
1696 18.253143
1694 21.1322
1692 23.501484
1690 25.729862
1688 27.925297
1686 30.718727
1684 34.121502
1682 37.932152
1680 42.043961
1678 45.623653
1676 48.732258
1674 51.865391
1672 55.060127
1670 58.703899
1668 62.666695
1666 66.5895
1664 70.461548
1662 74.166977
1660 77.710999
1658 81.048805
1656 84.232658
1654 87.319572
1652 90.269997
1650 93.06514
1648 95.125397
1646 96.072182
1644 96.085968
1642 95.383598
1640 94.161461
1638 92.560905
1636 90.259644
1634 87.236694
1632 83.786568
1630 80.087402
1628 76.451042
1626 72.920357
1624 69.204041
1622 65.274788
1620 61.209583
1618 57.036644
1616 52.916428
1614 48.901344
1612 45.276821
1610 42.083981
1608 39.375469
1606 37.108242
1604 35.08189
1602 33.282509
1600 31.648138
1598 30.194019
1596 28.907501
1594 27.800964
1592 26.868902
1590 26.121307
1588 25.551765
1586 25.181814
1584 24.99452
1582 25.020731
1580 25.245358
1578 25.731873
1576 26.495256
1574 27.428436
1572 28.515215
1570 29.537025
1568 30.455959
1566 31.334257
1564 32.176342
1562 33.228729
1560 34.560795
1558 36.54414
1556 39.115643
1554 41.557491
1552 43.774445
1550 45.373318
1548 46.47686
1546 47.552105
1544 48.618713
1542 49.746723
1540 50.663902
1538 51.124802
1536 51.072201
1534 50.506985
1532 49.745373
1530 49.000565
1528 48.270061
1526 47.553947
1524 46.735146
1522 45.775337
1520 44.416748
1518 42.592079
1516 40.579773
1514 38.438057
1512 36.44276
1510 34.600273
1508 32.320454
1506 29.440922
1504 26.392075
1502 23.252623
1500 20.620472
1498 18.567259
1496 16.607857
1494 14.71871
1492 12.795471
1490 10.817028
1488 8.8091908
1486 6.7899284
1484 4.8006978
1482 3.0107965
1480 1.580614
1478 0.60172087
1476 0.13711572
1474 0.28149426
1472 1.0858757
1470 1.990301
1468 2.7861626
1466 3.5492036
1464 4.2508359
1462 5.0342069
1460 5.9619694
1458 6.7657099
1456 7.3480201
1454 7.5094481
1452 7.1047721
1450 6.5992937
1448 6.0027847
1446 5.4579964
1444 4.9885378
1442 4.6075568
1440 4.3321514
1438 4.1319189
1436 3.9521744
1434 3.6543131
1432 3.198632
1430 2.636265
1428 2.0680001
1426 1.6600842
1424 1.4583702
1422 1.469611
1420 1.6054968
1418 1.7799546
1416 1.9243942
1414 1.980432
1412 2.0603082
1410 2.1980429
1408 2.4201686
1406 2.7526371
1404 3.1340232
1402 3.5918221
1400 4.061852
1398 4.5501609
1396 4.9517288
1394 5.2029243
1392 5.3068857
1390 5.2135034
1388 5.0738792
1386 4.8795099
1384 4.6836777
1382 4.4878182
1380 4.3093433
1378 4.14361
1376 3.9949143
1374 3.8186173
1372 3.580828
1370 3.2770338
1368 2.9169462
1366 2.5377042
1364 2.1571279
1362 1.7581319
1360 1.3368891
1358 0.91953629
1356 0.54592544
1354 0.25665474
1352 0.090467587
1350 0.0051101865
1348 -0.012929063
1346 -0.048759203
1344 0.029647477
1342 0.16781579
1340 0.39859688
1338 0.59168369
1336 0.7077266
1334 0.70770764
1332 0.5644576
1330 0.4207491
1328 0.30129001
1326 0.27539408
1324 0.3667956
1322 0.55445874
1320 0.83392262
1318 1.1374395
1316 1.42708
1314 1.616708
1312 1.7049897
1310 1.677346
1308 1.587948
1306 1.4870499
1304 1.4010553
1302 1.366874
1300 1.3617572
1298 1.3938391
1296 1.4316143
1294 1.4690373
1292 1.5017009
1290 1.5302045
1288 1.565344
1286 1.6245292
1284 1.6974787
1282 1.8099282
1280 1.9283172
1278 2.0632908
1276 2.2008729
1274 2.335932
1272 2.4796395
1270 2.6324832
1268 2.8043401
1266 3.0136836
1264 3.2580702
1262 3.5618687
1260 3.9198921
1258 4.3394966
1256 4.8020968
1254 5.3067589
1252 5.8439441
1250 6.4164877
1248 7.0397978
1246 7.6939001
1244 8.3783579
1242 9.0597563
1240 9.7006683
1238 10.297921
1236 10.7859
1234 11.204495
1232 11.46208
1230 11.645761
1228 11.641443
1226 11.579085
1224 11.358239
1222 11.081693
1220 10.671022
1218 10.213098
1216 9.6658173
1214 9.1138725
1212 8.5552311
1210 8.0053997
1208 7.4652739
1206 6.9143238
1204 6.3503242
1202 5.7715869
1200 5.1756992
1198 4.5627904
1196 3.9375286
1194 3.3150241
1192 2.7073114
1190 2.1555991
1188 1.6513631
1186 1.2428269
1184 0.89127684
1182 0.64546341
1180 0.45499393
1178 0.38878626
1176 0.36820999
1174 0.46150261
1172 0.55928439
1170 0.65028
1168 0.70677412
1166 0.66143745
1164 0.59693611
1162 0.48775899
1160 0.38794482
1158 0.30488622
1156 0.22040686
1154 0.13290316
1152 0.046370149
1150 -0.035139807
1148 -0.088392913
1146 -0.1082375
1144 -0.1042899
1142 -0.07534121
1140 -0.022497959
1138 0.051515058
1136 0.15587057
1134 0.2882762
1132 0.5509938
1130 0.88856089
1128 1.355304
1126 1.8585093
1124 2.3649499
1122 2.8565829
1120 3.2682681
1118 3.6649258
1116 4.0210285
1114 4.3677025
1112 4.6771507
1110 4.9827857
1108 5.2783918
1106 5.5911698
1104 5.9466696
1102 6.3040361
1100 6.664372
1098 7.0172453
1096 7.3620286
1094 7.7313571
1092 8.1298466
1090 8.5223522
1088 8.9016056
1086 9.223115
1084 9.4969921
1082 9.7450762
1080 9.9726753
1078 10.16866
1076 10.339857
1074 10.436281
1072 10.508046
1070 10.571706
1068 10.640497
1066 10.759058
1064 10.8764
1062 10.94547
1060 10.992214
1058 10.916742
1056 10.830114
1054 10.689845
1052 10.530151
1050 10.302959
1048 10.024876
1046 9.6256714
1044 9.1993647
1042 8.7266998
1040 8.2732239
1038 7.8507171
1036 7.4532404
1034 7.0825286
1032 6.7051902
1030 6.3160462
1028 5.8801608
1026 5.4119101
1024 4.9465771
1022 4.4937072
1020 4.1506929
1018 3.8589833
1016 3.6559057
1014 3.4747248
1012 3.2732811
1010 3.0647953
1008 2.8179522
1006 2.5672228
1004 2.3107202
1002 2.0525632
1000 1.7842131
998 1.513347
996 1.2314899
994 0.94705778
992 0.65613759
990 0.36726066
988 0.085598961
986 -0.16247836
984 -0.34988442
982 -0.46807009
980 -0.49065721
978 -0.43424845
976 -0.2907483
974 -0.057212055
972 0.24993291
970 0.59215289
968 0.94936484
966 1.2086551
964 1.4165894
962 1.488253
960 1.512784
958 1.4504395
956 1.3661001
954 1.190886
952 1.0005568
950 0.70482218
948 0.40979189
946 0.18422678
944 0.0014682189
942 0.047483355
940 0.19772959
938 0.61284566
936 1.0229914
934 1.4153551
932 1.7215602
930 1.8426576
928 1.8959428
926 1.841135
924 1.791626
922 1.7479291
920 1.7010531
918 1.6514833
916 1.5867243
914 1.5119909
912 1.4726394
910 1.450141
908 1.4542917
906 1.4650065
904 1.4798754
902 1.4937351
900 1.66506
898 1.8612163
896 2.3619001
