Image.
>Pix99999.
  .
5555
5555
2300
900
5555
2
1
0
701
5555
4.2478999e-004
4.3358744e-004
4.4243468e-004
4.5130192e-004
4.6013942e-004
4.6894699e-004
4.7778417e-004
4.8668092e-004
4.9549906e-004
5.0417829e-004
5.1315158e-004
5.2253227e-004
5.3084758e-004
5.3765392e-004
5.4845220e-004
5.6483597e-004
5.6637236e-004
5.4715894e-004
5.8308907e-004
6.9629826e-004
6.0457003e-004
2.2473130e-004
6.0668774e-004
2.0629594e-003
6.8774528e-004
-4.7726361e-003
-1.8471143e-004
2.6420057e-002
6.0936000e-002
8.4468201e-002
8.8621862e-002
7.5126000e-002
7.4224889e-002
1.1697432e-001
2.0477566e-001
3.2630399e-001
4.5391560e-001
5.6075507e-001
6.4204496e-001
7.0023322e-001
7.4048316e-001
7.6805443e-001
7.8563821e-001
7.9594243e-001
8.0491871e-001
8.1815892e-001
8.3578175e-001
8.5582238e-001
8.7476540e-001
8.9115387e-001
9.1376787e-001
9.5529640e-001
1.0311633e+000
1.1526281e+000
1.3103108e+000
1.4847792e+000
1.6436839e+000
1.7556895e+000
1.8094400e+000
1.8058995e+000
1.7688115e+000
1.7279729e+000
1.7089057e+000
1.7294221e+000
1.7827525e+000
1.8514907e+000
1.9073615e+000
1.9254313e+000
1.9087429e+000
1.8728161e+000
1.8469599e+000
1.8586974e+000
1.9109886e+000
1.9965186e+000
2.1008625e+000
2.2094214e+000
2.3160372e+000
2.4167778e+000
2.5042171e+000
2.5717304e+000
2.6211715e+000
2.6591415e+000
2.6995087e+000
2.7540126e+000
2.8140280e+000
2.8654044e+000
2.9014983e+000
2.9225137e+000
2.9440470e+000
2.9824998e+000
3.0339730e+000
3.0880408e+000
3.1386154e+000
3.1832676e+000
3.2275376e+000
3.2777514e+000
3.3311217e+000
3.3802793e+000
3.4155521e+000
3.4285281e+000
3.4194429e+000
3.3939967e+000
3.3649693e+000
3.3473954e+000
3.3527629e+000
3.3888650e+000
3.4522786e+000
3.5332365e+000
3.6134033e+000
3.6742463e+000
3.7100871e+000
3.7225888e+000
3.7214799e+000
3.7169750e+000
3.7100053e+000
3.6986043e+000
3.6869223e+000
3.6825848e+000
3.6964006e+000
3.7365670e+000
3.7952399e+000
3.8559248e+000
3.8949697e+000
3.8914382e+000
3.8474343e+000
3.7784357e+000
3.7147238e+000
3.6853459e+000
3.6902885e+000
3.7154663e+000
3.7414644e+000
3.7517273e+000
3.7485371e+000
3.7423160e+000
3.7423937e+000
3.7569864e+000
3.7942400e+000
3.8582981e+000
3.9371724e+000
4.0120249e+000
4.0655603e+000
4.0882368e+000
4.0971594e+000
4.1172991e+000
4.1548247e+000
4.2034979e+000
4.2437577e+000
4.2543650e+000
4.2308908e+000
4.1790605e+000
4.1138430e+000
4.0511665e+000
3.9946079e+000
3.9418094e+000
3.8907759e+000
3.8412166e+000
3.7989035e+000
3.7712052e+000
3.7592185e+000
3.7616282e+000
3.7793314e+000
3.8130751e+000
3.8578229e+000
3.9045255e+000
3.9396732e+000
3.9506156e+000
3.9359088e+000
3.9009995e+000
3.8549681e+000
3.8075955e+000
3.7649300e+000
3.7298858e+000
3.7007556e+000
3.6737235e+000
3.6444068e+000
3.6097498e+000
3.5738263e+000
3.5428340e+000
3.5176520e+000
3.4955978e+000
3.4717515e+000
3.4419708e+000
3.4093060e+000
3.3800941e+000
3.3576887e+000
3.3428092e+000
3.3329384e+000
3.3248105e+000
3.3183115e+000
3.3158970e+000
3.3223755e+000
3.3416243e+000
3.3677845e+000
3.3894236e+000
3.3953784e+000
3.3782856e+000
3.3443120e+000
3.3063943e+000
3.2733252e+000
3.2496846e+000
3.2348714e+000
3.2253833e+000
3.2175932e+000
3.2073770e+000
3.1878736e+000
3.1519244e+000
3.0986569e+000
3.0321295e+000
2.9616377e+000
2.8979533e+000
2.8455000e+000
2.8038352e+000
2.7691245e+000
2.7368371e+000
2.7069657e+000
2.6826494e+000
2.6683326e+000
2.6670010e+000
2.6741660e+000
2.6797485e+000
2.6702342e+000
2.6320436e+000
2.5592716e+000
2.4531453e+000
2.3258319e+000
2.1970179e+000
2.0910943e+000
2.0305715e+000
2.0186253e+000
2.0441918e+000
2.0870528e+000
2.1240420e+000
2.1385438e+000
2.1201856e+000
2.0670283e+000
1.9842193e+000
1.8870143e+000
1.7948959e+000
1.7195261e+000
1.6638299e+000
1.6187772e+000
1.5689849e+000
1.5027717e+000
1.4156744e+000
1.3214355e+000
1.2418649e+000
1.1827148e+000
1.1362787e+000
1.0882623e+000
1.0250711e+000
9.5195645e-001
8.8592249e-001
8.3840477e-001
8.1415129e-001
8.1166929e-001
8.2394838e-001
8.3529168e-001
8.2634205e-001
7.8648520e-001
7.1504414e-001
6.2584633e-001
5.3998226e-001
4.6945053e-001
4.1537198e-001
3.6394829e-001
2.9640606e-001
2.1532360e-001
1.3406934e-001
3.9702285e-002
-9.3329974e-002
-2.5127858e-001
-3.9562288e-001
-5.1805121e-001
-6.3559949e-001
-7.6097041e-001
-8.9763820e-001
-1.0377578e+000
-1.1651934e+000
-1.2594420e+000
-1.3000431e+000
-1.2772200e+000
-1.1933535e+000
-1.0689886e+000
-9.3329006e-001
-7.9789591e-001
-6.5704501e-001
-4.9399406e-001
-2.8768438e-001
-2.6005082e-002
2.9822260e-001
7.0568913e-001
1.2182581e+000
1.8087578e+000
2.4259253e+000
3.0937560e+000
3.9090621e+000
5.0038610e+000
6.5403175e+000
8.7391148e+000
1.1779882e+001
1.5442286e+001
1.9200001e+001
2.2640564e+001
2.5582092e+001
2.8250618e+001
3.1161392e+001
3.4745724e+001
3.9187069e+001
4.4055359e+001
4.8549389e+001
5.2421329e+001
5.5986446e+001
5.9664154e+001
6.3785965e+001
6.8266235e+001
7.2694000e+001
7.6787300e+001
8.0448021e+001
8.3641869e+001
8.6366966e+001
8.8647484e+001
9.0530548e+001
9.2090820e+001
9.3398438e+001
9.4405739e+001
9.4976608e+001
9.5071487e+001
9.4738846e+001
9.3952942e+001
9.2602089e+001
9.0570526e+001
8.7799568e+001
8.4450562e+001
8.0844589e+001
7.7136536e+001
7.3286011e+001
6.9205643e+001
6.4832909e+001
6.0260696e+001
5.5722271e+001
5.1425770e+001
4.7515968e+001
4.4066666e+001
4.1078789e+001
3.8490257e+001
3.6196442e+001
3.4127251e+001
3.2259903e+001
3.0597549e+001
2.9159109e+001
2.7952499e+001
2.6968752e+001
2.6193926e+001
2.5614082e+001
2.5219725e+001
2.5005886e+001
2.4959709e+001
2.5063730e+001
2.5323534e+001
2.5769903e+001
2.6437201e+001
2.7350563e+001
2.8492605e+001
2.9803335e+001
3.1207359e+001
3.2625828e+001
3.3993168e+001
3.5299721e+001
3.6749508e+001
3.8698410e+001
4.1192043e+001
4.3889771e+001
4.6345921e+001
4.8156322e+001
4.9281597e+001
5.0046322e+001
5.0664036e+001
5.1130730e+001
5.1367260e+001
5.1273430e+001
5.0822544e+001
5.0082619e+001
4.9160076e+001
4.8167786e+001
4.7139130e+001
4.6015099e+001
4.4726448e+001
4.3228394e+001
4.1536182e+001
3.9731956e+001
3.7918613e+001
3.6177868e+001
3.4446079e+001
3.2506966e+001
3.0187418e+001
2.7444443e+001
2.4459406e+001
2.1613794e+001
1.9128775e+001
1.6971710e+001
1.5017858e+001
1.3108479e+001
1.1160491e+001
9.1937265e+000
7.2592864e+000
5.4243245e+000
3.7762640e+000
2.4118738e+000
1.3596065e+000
5.7962692e-001
1.2321672e-001
1.4212607e-001
6.3338143e-001
1.3814781e+000
2.1960716e+000
2.9849565e+000
3.7137799e+000
4.3975201e+000
5.0677943e+000
5.7568135e+000
6.4580197e+000
7.1109467e+000
7.6311431e+000
7.9302649e+000
7.9846683e+000
7.8566036e+000
7.6160684e+000
7.3133092e+000
6.9641833e+000
6.5437393e+000
6.0188227e+000
5.3665652e+000
4.6172557e+000
3.8669846e+000
3.2023001e+000
2.6730707e+000
2.2995770e+000
2.0733502e+000
1.9851520e+000
2.0314240e+000
2.1990399e+000
2.4601080e+000
2.7860539e+000
3.1533906e+000
3.5495715e+000
3.9746885e+000
4.4240050e+000
4.8813500e+000
5.3240356e+000
5.7246256e+000
6.0599713e+000
6.3155293e+000
6.4805622e+000
6.5475883e+000
6.5128055e+000
6.3780699e+000
6.1537123e+000
5.8600039e+000
5.5152450e+000
5.1312542e+000
4.7175341e+000
4.2827644e+000
3.8394880e+000
3.4034653e+000
2.9757218e+000
2.5346351e+000
2.0621269e+000
1.5580813e+000
1.0522739e+000
6.1139190e-001
2.8630555e-001
8.8158213e-002
8.0030970e-003
2.0604465e-002
1.0616870e-001
2.5850606e-001
4.6945560e-001
7.2210687e-001
9.9338913e-001
1.2530928e+000
1.4674343e+000
1.6022676e+000
1.6400652e+000
1.5920440e+000
1.4847400e+000
1.3584350e+000
1.2518684e+000
1.1948528e+000
1.2034937e+000
1.2731022e+000
1.3861700e+000
1.5120794e+000
1.6221972e+000
1.6972636e+000
1.7289300e+000
1.7239321e+000
1.6945051e+000
1.6560990e+000
1.6241574e+000
1.6131586e+000
1.6367143e+000
1.7074136e+000
1.8352928e+000
2.0255578e+000
2.2768118e+000
2.5770206e+000
2.9052055e+000
3.2300684e+000
3.5218623e+000
3.7598341e+000
3.9380329e+000
4.0739141e+000
4.1950607e+000
4.3372307e+000
4.5321393e+000
4.7996764e+000
5.1489930e+000
5.5741968e+000
6.0643640e+000
6.6057615e+000
7.1870971e+000
7.8031898e+000
8.4522190e+000
9.1355057e+000
9.8529339e+000
1.0598750e+001
1.1360660e+001
1.2116391e+001
1.2839577e+001
1.3498861e+001
1.4059199e+001
1.4479498e+001
1.4723320e+001
1.4764894e+001
1.4596588e+001
1.4240386e+001
1.3728617e+001
1.3095836e+001
1.2380966e+001
1.1629580e+001
1.0884428e+001
1.0179358e+001
9.5357876e+000
8.9539223e+000
8.4257298e+000
7.9363842e+000
7.4674940e+000
6.9966216e+000
6.5031905e+000
5.9734998e+000
5.4003358e+000
4.7876353e+000
4.1457624e+000
3.4944341e+000
2.8605576e+000
2.2811699e+000
1.7899303e+000
1.4069388e+000
1.1388253e+000
9.7005701e-001
8.7934399e-001
8.4412122e-001
8.4275931e-001
8.5663223e-001
8.7033969e-001
8.7476647e-001
8.6710608e-001
8.5506701e-001
8.4641612e-001
8.4297192e-001
8.4149057e-001
8.3049715e-001
7.9781359e-001
7.3441720e-001
6.3532382e-001
5.0390822e-001
3.5195351e-001
2.0568672e-001
9.0099871e-002
1.9110875e-002
3.0849297e-003
4.9706772e-002
1.6223054e-001
3.3464962e-001
5.5681646e-001
8.1402642e-001
1.0905908e+000
1.3717642e+000
1.6485400e+000
1.9255805e+000
2.2090385e+000
2.5017078e+000
2.8017857e+000
3.0996909e+000
3.3862579e+000
3.6587000e+000
3.9162040e+000
4.1596551e+000
4.3907819e+000
4.6138749e+000
4.8386998e+000
5.0867624e+000
5.3814139e+000
5.7415175e+000
6.1748867e+000
6.6628757e+000
7.1719704e+000
7.6469946e+000
8.0337315e+000
8.2957268e+000
8.4193125e+000
8.4394388e+000
8.4033279e+000
8.3571939e+000
8.3341703e+000
8.3319263e+000
8.3379965e+000
8.3362579e+000
8.3122311e+000
8.2581406e+000
8.1687088e+000
8.0410585e+000
7.8736024e+000
7.6680751e+000
7.4274940e+000
7.1563282e+000
6.8637037e+000
6.5714240e+000
6.3050508e+000
6.0925493e+000
5.9513903e+000
5.8677559e+000
5.8132720e+000
5.7402244e+000
5.6026516e+000
5.3744836e+000
5.0469122e+000
4.6473479e+000
4.2166810e+000
3.8071954e+000
3.4628656e+000
3.1918905e+000
2.9824500e+000
2.7876439e+000
2.5588920e+000
2.2686443e+000
1.9113777e+000
1.5326047e+000
1.1834015e+000
8.9135247e-001
6.6563213e-001
4.7537699e-001
2.8571656e-001
8.0810532e-002
-1.4116615e-001
-3.5226306e-001
-5.2110845e-001
-6.2933004e-001
-6.6667479e-001
-6.3889253e-001
-5.5323482e-001
-4.0912467e-001
-2.0934850e-001
2.5472522e-002
2.6653332e-001
4.7264051e-001
6.0967779e-001
6.7802525e-001
6.8937707e-001
6.6489673e-001
6.2165469e-001
5.5477637e-001
4.5720920e-001
3.3361542e-001
1.9854890e-001
9.0524748e-002
3.6048185e-002
-1.9573346e-003
-6.1696485e-002
-1.2892652e-001
-1.8668972e-001
-2.5543952e-001
-3.5945174e-001
-5.0282997e-001
-6.7799348e-001
-8.5253656e-001
-9.8940378e-001
-1.0572970e+000
-1.0341882e+000
-9.2756301e-001
-7.5223517e-001
-5.2360666e-001
-2.6330927e-001
-1.6619399e-002
1.6507246e-001
2.2957429e-001
1.5152971e-001
1.1825636e-002
-9.4038345e-002
-1.1775421e-001
-2.2840001e-002
