##TITLE=Methyl Ethyl Ketone
##JCAMP-DX=4.24
##DATA TYPE=INFRARED SPECTRUM
##XUNITS=cm-1
##YUNITS=Absorbance
##FIRSTX=900
##LASTX=2300
##XYDATA=(X++(Y..Y))
2296 0.0024421001
2294 0.0024929272
2292 0.002543655
2290 0.0025944819
2288 0.0026453091
2286 0.0026960373
2284 0.0027468638
2282 0.0027977901
2280 0.0028486184
2278 0.0028991494
2276 0.0029500714
2274 0.0030014906
2272 0.0030517378
2270 0.0031003957
2268 0.0031532398
2266 0.0032117423
2264 0.0032551149
2262 0.0032772732
2260 0.0033558405
2258 0.0035136545
2256 0.0034612685
2254 0.0031136009
2252 0.0035468931
2250 0.0050817453
2248 0.0037135105
2246 -0.0022157643
2244 -9.0387141e-05
2242 0.022260917
2240 0.05911272
2238 0.1014356
2236 0.14731471
2234 0.19577594
2232 0.24100646
2230 0.27581018
2228 0.29282412
2226 0.28457549
2224 0.24320708
2222 0.16681924
2220 0.077976152
2218 0.003975213
2216 -0.038031377
2214 -0.040758349
2212 -0.024238179
2210 -0.013491251
2208 -0.020623103
2206 -0.047783788
2204 -0.073103808
2202 -0.072325908
2200 -0.041097168
2198 0.015778141
2196 0.081774428
2194 0.13949803
2192 0.18241966
2190 0.20696418
2188 0.20727111
2186 0.179931
2184 0.134784
2182 0.086610332
2180 0.053149007
2178 0.047646035
2176 0.061528999
2174 0.07906004
2172 0.084381223
2170 0.065769039
2168 0.027910754
2166 -0.02054463
2164 -0.077004261
2162 -0.14203803
2160 -0.22029868
2158 -0.31281936
2156 -0.400336
2154 -0.45866707
2152 -0.47185084
2150 -0.43441927
2148 -0.37149161
2146 -0.31493714
2144 -0.2811496
2142 -0.2747696
2140 -0.27561736
2138 -0.26006755
2136 -0.22585657
2134 -0.1801032
2132 -0.13633516
2130 -0.10555635
2128 -0.079828963
2126 -0.046863467
2124 -0.0048771896
2122 0.039916996
2120 0.065027311
2118 0.047005631
2116 -0.017380057
2114 -0.11974646
2112 -0.23546052
2110 -0.3394213
2108 -0.42854956
2106 -0.51009566
2104 -0.59878618
2102 -0.70631063
2100 -0.82118219
2098 -0.9229123
2096 -0.99081999
2094 -1.0103239
2092 -0.9913494
2090 -0.95343131
2088 -0.91757226
2086 -0.9001525
2084 -0.89783031
2082 -0.89902836
2080 -0.89045453
2078 -0.8616218
2076 -0.81506401
2074 -0.75884533
2072 -0.70198119
2070 -0.65338492
2068 -0.62081641
2066 -0.61132175
2064 -0.63105857
2062 -0.68230808
2060 -0.75262225
2058 -0.8238402
2056 -0.87950772
2054 -0.90812504
2052 -0.91485399
2050 -0.91275579
2048 -0.91889632
2046 -0.94771004
2044 -0.99690682
2042 -1.0551869
2040 -1.1029348
2038 -1.1219674
2036 -1.1121857
2034 -1.0818442
2032 -1.0397972
2030 -0.99342185
2028 -0.94420695
2026 -0.89183491
2024 -0.83966261
2022 -0.79357433
2020 -0.76250058
2018 -0.75572973
2016 -0.778786
2014 -0.83180958
2012 -0.89974916
2010 -0.96342385
2008 -1.0151014
2006 -1.0553286
2004 -1.0950946
2002 -1.146476
2000 -1.2061605
1998 -1.2629439
1996 -1.3038714
1994 -1.3190938
1992 -1.3133497
1990 -1.2986971
1988 -1.2867759
1986 -1.28767
1984 -1.3069406
1982 -1.3454782
1980 -1.3936594
1978 -1.4341913
1976 -1.4390199
1974 -1.381844
1972 -1.2644941
1970 -1.1109968
1968 -0.98011398
1966 -0.93555176
1964 -0.99361914
1962 -1.1354854
1960 -1.297224
1958 -1.4072024
1956 -1.4502429
1954 -1.4456154
1952 -1.4306858
1950 -1.4405515
1948 -1.4706988
1946 -1.497125
1944 -1.5026509
1942 -1.4798616
1940 -1.4413275
1938 -1.4076527
1936 -1.3910086
1934 -1.3977869
1932 -1.4314661
1930 -1.4921013
1928 -1.5694349
1926 -1.6450694
1924 -1.6889783
1922 -1.6717103
1920 -1.5911052
1918 -1.461413
1916 -1.3009186
1914 -1.1299679
1912 -0.97243905
1910 -0.85550916
1908 -0.81189793
1906 -0.86584818
1904 -0.99193197
1902 -1.136624
1900 -1.2460154
1898 -1.2787257
1896 -1.2380714
1894 -1.1547469
1892 -1.0693361
1890 -1.0215731
1888 -1.0339074
1886 -1.1127243
1884 -1.2379301
1882 -1.377686
1880 -1.5108714
1878 -1.6273586
1876 -1.73169
1874 -1.8302408
1872 -1.9028926
1870 -1.9164821
1868 -1.8517143
1866 -1.7088393
1864 -1.5303389
1862 -1.3768311
1860 -1.2813439
1858 -1.2545017
1856 -1.2924972
1854 -1.3836133
1852 -1.5103052
1850 -1.6507399
1848 -1.7771879
1846 -1.8611035
1844 -1.8859149
1842 -1.8481411
1840 -1.7662543
1838 -1.6699272
1836 -1.5802243
1834 -1.504832
1832 -1.4226989
1830 -1.3023683
1828 -1.1452597
1826 -0.98048961
1824 -0.8574149
1822 -0.8247112
1820 -0.88052964
1818 -0.98597437
1816 -1.0879686
1814 -1.1347914
1812 -1.1049094
1810 -1.0005877
1808 -0.8397283
1806 -0.65292597
1804 -0.49166471
1802 -0.41378829
1800 -0.44727093
1798 -0.58235526
1796 -0.736085
1794 -0.79257947
1792 -0.699242
1790 -0.46675432
1788 -0.17173709
1786 0.08033406
1784 0.23100136
1782 0.26592222
1780 0.20176351
1778 0.076411635
1776 -0.052156601
1774 -0.12182239
1772 -0.10604516
1770 -0.01573219
1768 0.088571094
1766 0.13131142
1764 0.1138148
1762 0.084455378
1760 0.036091812
1758 -0.071029663
1756 -0.20663899
1754 -0.29454765
1752 -0.31045887
1750 -0.28028691
1748 -0.25108734
1746 -0.27429998
1744 -0.37877062
1742 -0.56085652
1740 -0.74972618
1738 -0.8377499
1736 -0.76717401
1734 -0.54290146
1732 -0.25590473
1730 -0.04093226
1728 0.036861427
1726 -0.012161829
1724 -0.11185689
1722 -0.1404696
1720 0.043485656
1718 0.55974138
1716 1.3835388
1714 2.3735919
1712 3.3743916
1710 4.2706952
1708 5.108294
1706 6.0661016
1704 7.3576508
1702 9.1951389
1700 11.747389
1698 15.074375
1696 18.890429
1694 22.675461
1692 26.086662
1690 29.048254
1688 31.866943
1686 35.111652
1684 39.255024
1682 44.500214
1680 50.3484
1678 55.875511
1676 60.804371
1674 65.496635
1672 70.366508
1670 75.657562
1668 81.089584
1666 86.007797
1664 90.026276
1662 93.088272
1660 95.272469
1658 96.7164
1656 97.532486
1654 97.798157
1652 97.586357
1650 96.966293
1648 95.985046
1646 94.682426
1644 93.15287
1642 91.516792
1640 89.762238
1638 87.742416
1636 85.276222
1634 82.216003
1632 78.608513
1630 74.653435
1628 70.444847
1626 65.952965
1624 61.160679
1622 56.115765
1620 50.999676
1618 46.095512
1616 41.618401
1614 37.679916
1612 34.318756
1610 31.510481
1608 29.166573
1606 27.161137
1604 25.418226
1602 23.925632
1600 22.702909
1598 21.782911
1596 21.172001
1594 20.842781
1592 20.758417
1590 20.882057
1588 21.195164
1586 21.696236
1584 22.374943
1582 23.221661
1580 24.282331
1578 25.658327
1576 27.450457
1574 29.720274
1572 32.401108
1570 35.305363
1568 38.255722
1566 41.117302
1564 43.782421
1562 46.206093
1560 48.570255
1558 51.219559
1556 54.163887
1554 57.00861
1552 59.292011
1550 60.638363
1548 61.035755
1546 60.80764
1544 60.080795
1542 58.707043
1540 56.608742
1538 53.895576
1536 50.919487
1534 48.199059
1532 45.963337
1530 44.071445
1528 42.326092
1526 40.559849
1524 38.634529
1522 36.457134
1520 34.046597
1518 31.543177
1516 29.120358
1514 26.921396
1512 24.8848
1510 22.739723
1508 20.316799
1506 17.650328
1504 14.966714
1502 12.626538
1500 10.77673
1498 9.2764606
1496 7.9439425
1494 6.6404781
1492 5.3238993
1490 4.0547929
1488 2.8873692
1486 1.8445793
1484 0.96149385
1482 0.29298005
1480 -0.1200508
1478 -0.24898969
1476 -0.011943877
1474 0.71580791
1472 1.9206731
1470 3.404664
1468 4.9550066
1466 6.4064212
1464 7.6862178
1462 8.8295879
1460 9.8988209
1458 10.951916
1456 11.9946
1454 12.959134
1452 13.73108
1450 14.171164
1448 14.222365
1446 13.945571
1444 13.432922
1442 12.77732
1440 12.039914
1438 11.235089
1436 10.359021
1434 9.4068289
1432 8.4181633
1430 7.4902701
1428 6.7044477
1426 6.0976677
1424 5.6694541
1422 5.3831973
1420 5.2071185
1418 5.129724
1416 5.1549911
1414 5.2990017
1412 5.5620546
1410 5.9174142
1408 6.3264651
1406 6.7422876
1404 7.1177235
1402 7.4081526
1400 7.5742798
1398 7.5877604
1396 7.4451571
1394 7.1775808
1392 6.8325248
1390 6.4665065
1388 6.1172528
1386 5.7913351
1384 5.4840984
1382 5.1835113
1380 4.8696165
1378 4.5138941
1376 4.0905571
1374 3.5851831
1372 3.0118499
1370 2.4211962
1368 1.8528109
1366 1.316303
1364 0.81002957
1362 0.33016902
1360 -0.09780404
1358 -0.40625569
1356 -0.541798
1354 -0.48917559
1352 -0.24734822
1350 0.17262053
1348 0.73903221
1346 1.3927786
1344 2.0756159
1342 2.7406831
1340 3.3446672
1338 3.8456533
1336 4.2006431
1334 4.3687339
1332 4.3347058
1330 4.1260209
1328 3.7880714
1326 3.3803806
1324 2.9640262
1322 2.5948672
1320 2.3095446
1318 2.1124508
1316 1.9864701
1314 1.8924314
1312 1.79462
1310 1.6733466
1308 1.5242963
1306 1.3631307
1304 1.2107698
1302 1.088974
1300 1.0184588
1298 1.018587
1296 1.1119429
1294 1.3261225
1292 1.6806052
1290 2.1753554
1288 2.7862761
1286 3.4547257
1284 4.114584
1282 4.7032113
1280 5.1770434
1278 5.5270157
1276 5.7640414
1274 5.9205871
1272 6.035027
1270 6.146575
1268 6.2902727
1266 6.4929237
1264 6.7748747
1262 7.1480494
1260 7.620626
1258 8.1981506
1256 8.8863916
1254 9.6924076
1252 10.618846
1250 11.656936
1248 12.784423
1246 13.95475
1244 15.113903
1242 16.201391
1240 17.158697
1238 17.932037
1236 18.47257
1234 18.737724
1232 18.689999
1230 18.309315
1228 17.597425
1226 16.591671
1224 15.352732
1222 13.972781
1220 12.555397
1218 11.21317
1216 10.048657
1214 9.1364756
1212 8.5218515
1210 8.1958961
1208 8.1160717
1206 8.1948872
1204 8.3307686
1202 8.4167652
1200 8.3603163
1198 8.1047716
1196 7.6289787
1194 6.969851
1192 6.1871433
1190 5.3586569
1188 4.5535398
1186 3.8121343
1184 3.160579
1182 2.608547
1180 2.1615686
1178 1.8232415
1176 1.59242
1174 1.4573773
1172 1.4014988
1170 1.402776
1168 1.4419041
1166 1.507625
1164 1.5882589
1162 1.66637
1160 1.7206622
1158 1.7251931
1156 1.6620042
1154 1.5338974
1152 1.3542777
1150 1.1483439
1148 0.93865103
1146 0.73480785
1144 0.54215604
1142 0.36317083
1140 0.19741452
1138 0.040521033
1136 -0.10255057
1134 -0.20408189
1132 -0.24401772
1130 -0.23340088
1128 -0.19029891
1126 -0.1312204
1124 -0.06710083
1122 0.0032180026
1120 0.079438955
1118 0.15106758
1116 0.20906857
1114 0.25446236
1112 0.29443684
1110 0.34540412
1108 0.42368993
1106 0.53940302
1104 0.69637018
1102 0.88618231
1100 1.0959431
1098 1.3101876
1096 1.5240287
1094 1.7622243
1092 2.0567198
1090 2.4389105
1088 2.9233909
1086 3.4809201
1084 4.0574822
1082 4.5639405
1080 4.9131222
1078 5.0485363
1076 4.9536486
1074 4.698504
1072 4.3771853
1070 4.0905733
1068 3.9157457
1066 3.8602166
1064 3.8978601
1062 3.9578357
1060 3.9657817
1058 3.8703959
1056 3.6496716
1054 3.3474844
1052 3.0252197
1050 2.7482469
1048 2.5678606
1046 2.4938643
1044 2.5194955
1042 2.6200736
1040 2.7682562
1038 2.9427948
1036 3.12921
1034 3.3290606
1032 3.5354662
1030 3.707314
1028 3.7937398
1026 3.7412136
1024 3.5228295
1022 3.1909709
1020 2.8142967
1018 2.4513588
1016 2.1402941
1014 1.8665857
1012 1.6074212
1010 1.3534497
1008 1.1001848
1006 0.84685349
1004 0.59801793
1002 0.37154594
1000 0.18623893
998 0.053039744
996 -0.028587643
994 -0.0887824
992 -0.15377319
990 -0.21412861
988 -0.25206757
986 -0.25189012
984 -0.21215342
982 -0.17557216
980 -0.1840916
978 -0.24094197
976 -0.33033028
974 -0.40560058
972 -0.42319104
970 -0.37554705
968 -0.26990661
966 -0.13331099
964 0.0023654625
962 0.10586368
960 0.15230566
958 0.13854502
956 0.074382581
954 -0.0042590424
952 -0.060787641
950 -0.079091683
948 -0.056866728
946 -0.022127325
944 0.0046540201
942 0.056512363
940 0.17387781
938 0.37552851
936 0.65870857
934 0.96204674
932 1.2133311
930 1.3547291
928 1.3537332
926 1.2584879
924 1.13763
922 1.0609972
920 1.0781177
918 1.1610405
916 1.2651172
914 1.3567971
912 1.4187611
910 1.4857309
908 1.5992223
906 1.7770529
904 2.0223057
902 2.3028951
900 2.5812163
898 2.8315859
896 3.0314
