Image.
>Pix99999.
  .
5555
5555
2300
900
5555
2
1
0
701
5555
-7.3209000e-003
-7.4731819e-003
-7.6255640e-003
-7.7778464e-003
-7.9301279e-003
-8.0825100e-003
-8.2346937e-003
-8.3868764e-003
-8.5393544e-003
-8.6921332e-003
-8.8439286e-003
-8.9945309e-003
-9.1485549e-003
-9.3073454e-003
-9.4532818e-003
-9.5812613e-003
-9.7572478e-003
-1.0000058e-002
-1.0064457e-002
-9.8797949e-003
-1.0356816e-002
-1.1764890e-002
-1.0711578e-002
-6.1872001e-003
-1.0811413e-002
-2.7020928e-002
-1.0257000e-003
1.1152571e-001
2.5357762e-001
3.5329795e-001
3.9511928e-001
3.8857174e-001
3.7858987e-001
4.0848804e-001
4.7456345e-001
5.5526602e-001
6.1238414e-001
6.1288267e-001
5.6375259e-001
4.7956145e-001
3.5741201e-001
1.9278017e-001
-3.7885997e-003
-2.1018200e-001
-3.7606725e-001
-4.5487171e-001
-4.4977000e-001
-3.8044971e-001
-2.7117136e-001
-1.4449650e-001
-1.1375515e-002
1.1622350e-001
2.0730537e-001
2.3340015e-001
2.0077123e-001
1.3235036e-001
7.3434956e-002
6.6572301e-002
1.1467633e-001
2.0415564e-001
3.0683801e-001
3.9465562e-001
4.5818818e-001
4.9629900e-001
5.1626587e-001
5.2908969e-001
5.5026436e-001
5.9372109e-001
6.6107428e-001
7.4450749e-001
8.1471097e-001
8.3905721e-001
8.0088288e-001
6.9629145e-001
5.5037302e-001
3.9858928e-001
2.7811658e-001
2.2148180e-001
2.4058346e-001
3.3372274e-001
4.7323659e-001
6.2190765e-001
7.4035776e-001
7.9590344e-001
7.8552759e-001
7.2188389e-001
6.3802588e-001
5.6912994e-001
5.2972543e-001
5.2057147e-001
5.1766789e-001
4.9248409e-001
4.3457115e-001
3.4926367e-001
2.7804470e-001
2.6787928e-001
3.3316907e-001
4.6499696e-001
6.1099297e-001
7.1335894e-001
7.5885290e-001
7.5719881e-001
7.3948961e-001
7.3469990e-001
7.3126078e-001
7.0269549e-001
6.2809080e-001
4.9854249e-001
3.4317824e-001
2.0461011e-001
1.1896500e-001
1.1111031e-001
1.7263201e-001
2.7895018e-001
3.9372092e-001
4.7910643e-001
5.0854361e-001
4.6561641e-001
3.5617119e-001
1.9802190e-001
2.1374298e-002
-1.4046565e-001
-2.6106012e-001
-3.2104582e-001
-3.1756046e-001
-2.5791177e-001
-1.6318199e-001
-6.0180757e-002
2.3621384e-002
6.6413447e-002
7.0181333e-002
4.9683820e-002
2.9886093e-002
3.4407072e-002
6.4629346e-002
1.1116385e-001
1.6154583e-001
2.0254999e-001
2.2124957e-001
2.0651686e-001
1.5423000e-001
6.7139946e-002
-3.6337607e-002
-1.3475578e-001
-2.2340427e-001
-3.0418700e-001
-3.7259522e-001
-4.2150033e-001
-4.4727805e-001
-4.5042843e-001
-4.4130573e-001
-4.3058872e-001
-4.1116327e-001
-3.6931559e-001
-3.0033860e-001
-2.0776692e-001
-1.0970256e-001
-2.7561197e-002
3.1590421e-002
6.9221325e-002
9.1691546e-002
1.0642536e-001
1.1728563e-001
1.2341201e-001
1.1159646e-001
6.4587720e-002
-2.6583869e-002
-1.6081096e-001
-3.1323200e-001
-4.5033073e-001
-5.5129772e-001
-6.0560787e-001
-6.1565810e-001
-5.9081864e-001
-5.4439217e-001
-4.9090499e-001
-4.4341967e-001
-4.1019353e-001
-3.8262096e-001
-3.4574530e-001
-2.9496172e-001
-2.3676828e-001
-1.9926359e-001
-2.1502350e-001
-2.8860927e-001
-4.0149736e-001
-5.0355726e-001
-5.3904140e-001
-4.9608025e-001
-3.9163929e-001
-2.5928801e-001
-1.3589448e-001
-4.2453084e-002
8.8783111e-003
3.7937174e-003
-6.6785313e-002
-1.8035220e-001
-2.9527408e-001
-3.6396387e-001
-3.4343833e-001
-2.1860287e-001
1.3145730e-003
2.7026448e-001
5.2067238e-001
6.7624390e-001
6.7483491e-001
5.3075188e-001
3.0452931e-001
6.4417966e-002
-1.3069360e-001
-2.6453200e-001
-3.4306535e-001
-3.6011863e-001
-3.0611569e-001
-1.9895945e-001
-7.6626748e-002
1.0531697e-002
1.8428640e-002
-4.3923594e-002
-1.3738272e-001
-2.3381029e-001
-3.1799227e-001
-3.8769299e-001
-4.4634426e-001
-4.9191958e-001
-5.1845896e-001
-5.2062851e-001
-4.9534488e-001
-4.4585034e-001
-3.7862515e-001
-2.9731801e-001
-2.0086040e-001
-7.6834425e-002
8.5871488e-002
2.6126990e-001
3.9909914e-001
4.4982874e-001
3.8050196e-001
2.1821940e-001
2.8191175e-002
-1.2632966e-001
-1.9844219e-001
-1.8946762e-001
-1.3079709e-001
-4.9593117e-002
3.3015698e-002
9.4050206e-002
1.1129875e-001
7.5011097e-002
-6.6347979e-003
-8.3165720e-002
-8.8439807e-002
-1.0244159e-002
1.2185048e-001
2.7040762e-001
4.0211371e-001
5.0443912e-001
5.7964855e-001
6.3170707e-001
6.6771936e-001
7.1190882e-001
7.9098314e-001
8.8773859e-001
9.5064741e-001
9.1992146e-001
7.5442535e-001
5.0632501e-001
2.7565473e-001
7.4875377e-002
-1.3920069e-001
-3.3491302e-001
-4.2790526e-001
-3.8541874e-001
-2.3299211e-001
-5.1398255e-002
5.5012286e-002
3.1140499e-002
-1.1763721e-001
-2.9648462e-001
-3.6992109e-001
-2.9650199e-001
-1.2626937e-001
3.3483814e-002
6.5972388e-002
-4.1027442e-002
-2.0872857e-001
-3.2637700e-001
-2.7146831e-001
7.6437891e-002
7.9746044e-001
1.7988515e+000
2.8660147e+000
3.8408291e+000
4.6656370e+000
5.4515018e+000
6.4359698e+000
7.8722215e+000
9.9824400e+000
1.2872091e+001
1.6488445e+001
2.0461287e+001
2.4234301e+001
2.7525219e+001
3.0384554e+001
3.3206886e+001
3.6585426e+001
4.0922344e+001
4.6293076e+001
5.2138802e+001
5.7556282e+001
6.2342487e+001
6.6954742e+001
7.1831680e+001
7.7177048e+001
8.2676079e+001
8.7656700e+001
9.1730347e+001
9.4845818e+001
9.7077934e+001
9.8553917e+001
9.9387543e+001
9.9668907e+001
9.9471306e+001
9.8849297e+001
9.7815315e+001
9.6365288e+001
9.4588997e+001
9.2637085e+001
9.0527130e+001
8.8135666e+001
8.5310867e+001
8.1939346e+001
7.8089691e+001
7.3968285e+001
6.9649223e+001
6.5062386e+001
6.0170639e+001
5.5026981e+001
4.9832611e+001
4.4895935e+001
4.0433372e+001
3.6537071e+001
3.3226837e+001
3.0463881e+001
2.8161440e+001
2.6203506e+001
2.4508476e+001
2.3042675e+001
2.1813343e+001
2.0855335e+001
2.0188499e+001
1.9807844e+001
1.9685509e+001
1.9781656e+001
2.0077726e+001
2.0580629e+001
2.1294954e+001
2.2224070e+001
2.3413128e+001
2.4945705e+001
2.6883171e+001
2.9237129e+001
3.1919312e+001
3.4755661e+001
3.7612038e+001
4.0414333e+001
4.3090755e+001
4.5595802e+001
4.8080017e+001
5.0822510e+001
5.3737957e+001
5.6334251e+001
5.8166481e+001
5.9000790e+001
5.8953384e+001
5.8434284e+001
5.7646675e+001
5.6492001e+001
5.4818459e+001
5.2531582e+001
4.9797199e+001
4.7033081e+001
4.4537239e+001
4.2395100e+001
4.0563671e+001
3.8897400e+001
3.7224625e+001
3.5382763e+001
3.3300190e+001
3.1026264e+001
2.8709499e+001
2.6547224e+001
2.4542480e+001
2.2469774e+001
2.0144270e+001
1.7525585e+001
1.4801931e+001
1.2357998e+001
1.0393198e+001
8.8269186e+000
7.5024858e+000
6.2593780e+000
5.0272417e+000
3.8433840e+000
2.7439766e+000
1.7412400e+000
8.7120700e-001
2.0307544e-001
-2.0450634e-001
-3.0801427e-001
-2.8986007e-002
7.3123741e-001
1.9284344e+000
3.3388100e+000
4.7481875e+000
6.0201645e+000
7.1187925e+000
8.1175995e+000
9.1163225e+000
1.0198548e+001
1.1339800e+001
1.2381091e+001
1.3151223e+001
1.3520802e+001
1.3470543e+001
1.3109393e+001
1.2551529e+001
1.1878981e+001
1.1141412e+001
1.0353201e+001
9.5100346e+000
8.5967941e+000
7.6353683e+000
6.6995811e+000
5.8641100e+000
5.1844530e+000
4.6871738e+000
4.3634787e+000
4.1943078e+000
4.1586380e+000
4.2434545e+000
4.4464269e+000
4.7607989e+000
5.1684146e+000
5.6384239e+000
6.1258936e+000
6.5847335e+000
6.9721808e+000
7.2504082e+000
7.3903885e+000
7.3796287e+000
7.2295456e+000
6.9699821e+000
6.6478229e+000
6.2986746e+000
5.9357200e+000
5.5681791e+000
5.2056479e+000
4.8529987e+000
4.5056477e+000
4.1450343e+000
3.7376037e+000
3.2647719e+000
2.7368834e+000
2.1781142e+000
1.6218107e+000
1.0906348e+000
5.9044039e-001
1.4023897e-001
-2.1507190e-001
-4.2572001e-001
-4.4562835e-001
-2.4270239e-001
1.8756038e-001
8.0428958e-001
1.5086607e+000
2.2155919e+000
2.8830214e+000
3.4788370e+000
3.9706328e+000
4.3189173e+000
4.4777727e+000
4.4311805e+000
4.2162848e+000
3.8932204e+000
3.5388021e+000
3.2213686e+000
2.9840584e+000
2.8351302e+000
2.7344797e+000
2.6348200e+000
2.4988201e+000
2.3145211e+000
2.1085377e+000
1.9118583e+000
1.7468278e+000
1.6258006e+000
1.5487020e+000
1.5194783e+000
1.5546597e+000
1.6770144e+000
1.9127731e+000
2.2751594e+000
2.7510164e+000
3.3099041e+000
3.9018784e+000
4.4759860e+000
4.9888406e+000
5.4068828e+000
5.7132835e+000
5.9081016e+000
6.0159483e+000
6.0759759e+000
6.1424079e+000
6.2672510e+000
6.4903007e+000
6.8362994e+000
7.3063645e+000
7.8904061e+000
8.5677605e+000
9.3207798e+000
1.0141951e+001
1.1026995e+001
1.1971823e+001
1.2967714e+001
1.3994249e+001
1.5024549e+001
1.6023279e+001
1.6943205e+001
1.7721876e+001
1.8291586e+001
1.8587036e+001
1.8557440e+001
1.8178213e+001
1.7446939e+001
1.6392757e+001
1.5069726e+001
1.3572414e+001
1.2018543e+001
1.0558218e+001
9.3265314e+000
8.4138584e+000
7.8625164e+000
7.6378055e+000
7.6675911e+000
7.8393340e+000
8.0313797e+000
8.1253424e+000
8.0267563e+000
7.6930933e+000
7.1216288e+000
6.3691287e+000
5.5139699e+000
4.6485100e+000
3.8546867e+000
3.1828015e+000
2.6585019e+000
2.2715182e+000
2.0039177e+000
1.8395073e+000
1.7604201e+000
1.7441735e+000
1.7657620e+000
1.7989562e+000
1.8289223e+000
1.8673686e+000
1.9258040e+000
2.0013800e+000
2.0776811e+000
2.1173553e+000
2.0868371e+000
1.9730150e+000
1.7739559e+000
1.5028150e+000
1.1789974e+000
8.2933712e-001
4.9293435e-001
2.2945631e-001
7.6270372e-002
7.1020406e-003
-1.7023601e-002
-2.8629171e-002
-5.2727632e-002
-9.8767146e-002
-1.6079983e-001
-2.0628443e-001
-2.0909680e-001
-1.7396222e-001
-1.1269984e-001
-3.5554484e-002
5.4939255e-002
1.7329071e-001
3.2844067e-001
5.0537056e-001
6.8307281e-001
8.4055549e-001
9.6280479e-001
1.0504172e+000
1.1139905e+000
1.1800032e+000
1.2824857e+000
1.4625676e+000
1.7490040e+000
2.1334748e+000
2.5964308e+000
3.1114500e+000
3.6485252e+000
4.1700764e+000
4.6159844e+000
4.8743153e+000
4.8524046e+000
4.5460806e+000
4.0147090e+000
3.4284437e+000
2.9539986e+000
2.6738555e+000
2.6152160e+000
2.7110813e+000
2.8751349e+000
3.0317526e+000
3.1231999e+000
3.1355476e+000
3.0757029e+000
2.9798732e+000
2.8873606e+000
2.8248072e+000
2.8074760e+000
2.8269842e+000
2.8724017e+000
2.9422052e+000
3.0410500e+000
3.1831539e+000
3.3696613e+000
3.5568159e+000
3.6904542e+000
3.7208941e+000
3.6200719e+000
3.4211121e+000
3.1648018e+000
2.8706582e+000
2.5528400e+000
2.2238133e+000
1.8993754e+000
1.6051311e+000
1.3540521e+000
1.1145525e+000
8.5236001e-001
5.6041658e-001
2.4399096e-001
-7.3536336e-002
-3.6092070e-001
-5.7684129e-001
-6.8805569e-001
-6.9626236e-001
-6.3253808e-001
-5.9319603e-001
-6.5943331e-001
-8.1039822e-001
-9.8573738e-001
-1.0795631e+000
-1.0076046e+000
-7.9482579e-001
-4.9833387e-001
-1.9292942e-001
5.4416895e-002
2.1772051e-001
2.8632617e-001
2.6740533e-001
1.7763704e-001
5.0991707e-002
-7.6884530e-002
-1.7968760e-001
-2.3643240e-001
-2.3689517e-001
-1.7710462e-001
-6.5571181e-002
9.4290748e-002
3.2743010e-001
6.4113647e-001
9.5427018e-001
1.1811657e+000
1.2994751e+000
1.3156643e+000
1.2836261e+000
1.2703005e+000
1.3477658e+000
1.5727100e+000
1.9397140e+000
2.4140234e+000
2.9095073e+000
3.3407016e+000
3.6750085e+000
3.9081290e+000
4.0942707e+000
4.2913218e+000
4.5153313e+000
4.7571068e+000
4.9500613e+000
5.0339923e+000
5.0313349e+000
4.9857001e+000
