Image.
>Pix99999.
  .
5555
5555
2300
900
5555
2
1
0
701
5555
4.4025999e-002
4.4942688e-002
4.5858379e-002
4.6774071e-002
4.7689758e-002
4.8605449e-002
4.9522132e-002
5.0437827e-002
5.1353522e-002
5.2269209e-002
5.3185888e-002
5.4101590e-002
5.5017278e-002
5.5932973e-002
5.6848660e-002
5.7765327e-002
5.8681041e-002
5.9596729e-002
6.0512420e-002
6.1428111e-002
6.2344771e-002
6.3260496e-002
6.4176179e-002
6.5091871e-002
6.6008531e-002
6.6924244e-002
4.1487504e-002
1.5623356e-003
-4.1034240e-002
-1.0857485e-001
-1.7979829e-001
-2.0751743e-001
-2.2870000e-001
-1.7359388e-001
-1.1276383e-001
-3.5478652e-002
3.1352691e-002
4.6543617e-002
5.0452366e-002
2.8402960e-002
5.0768885e-003
-1.7832678e-002
-3.7263419e-002
-5.1048353e-002
-4.7879960e-002
-2.4000185e-002
4.8379297e-003
3.7199538e-002
2.9280342e-002
-8.9095198e-003
-7.9515569e-002
-1.6766293e-001
-1.7738298e-001
-1.5220366e-001
-4.3634284e-002
9.1293551e-002
1.7088360e-001
2.3737630e-001
2.4864641e-001
2.5157917e-001
2.3824115e-001
2.1790954e-001
1.3473588e-001
4.0746730e-002
-8.1109464e-002
-1.9715847e-001
-2.8218386e-001
-3.5255986e-001
-3.9331800e-001
-4.2651179e-001
-4.5103398e-001
-4.7230595e-001
-4.9017587e-001
-4.8284370e-001
-4.4754675e-001
-3.8373214e-001
-2.9729417e-001
-2.3796910e-001
-1.9914834e-001
-2.1403486e-001
-2.5703344e-001
-3.3124429e-001
-4.1740522e-001
-4.9270707e-001
-5.6418639e-001
-5.7629818e-001
-5.7468486e-001
-5.3691816e-001
-4.9451280e-001
-4.7042230e-001
-4.5266658e-001
-4.6246472e-001
-4.7959897e-001
-5.1142019e-001
-5.4355627e-001
-5.7020772e-001
-5.9379870e-001
-6.1247849e-001
-6.2991685e-001
-6.4650786e-001
-6.4667141e-001
-6.2556750e-001
-5.8791566e-001
-5.3635132e-001
-4.9255526e-001
-4.5671001e-001
-4.1968554e-001
-3.8111544e-001
-3.5794434e-001
-3.4303066e-001
-3.8482344e-001
-4.4979960e-001
-5.2914482e-001
-6.1240005e-001
-6.5105778e-001
-6.7809641e-001
-6.6720760e-001
-6.4906365e-001
-6.3028270e-001
-6.1302978e-001
-6.0486370e-001
-6.0013056e-001
-6.0172331e-001
-6.1258948e-001
-6.4461213e-001
-6.8571073e-001
-7.3663616e-001
-7.8238994e-001
-8.1699347e-001
-8.4513557e-001
-8.6753500e-001
-8.7768584e-001
-8.7708956e-001
-8.6463201e-001
-8.4464592e-001
-8.2706845e-001
-8.1204432e-001
-7.8476578e-001
-7.5103313e-001
-7.5061345e-001
-7.6436001e-001
-8.5028374e-001
-9.5970476e-001
-1.0409298e+000
-1.1108851e+000
-1.1270030e+000
-1.1252840e+000
-1.0945220e+000
-1.0453366e+000
-9.4969004e-001
-8.4499359e-001
-7.4927866e-001
-6.9620216e-001
-7.3267639e-001
-8.3328140e-001
-1.0058640e+000
-1.1922154e+000
-1.3740042e+000
-1.4984552e+000
-1.5602291e+000
-1.5282314e+000
-1.4226379e+000
-1.2739269e+000
-1.1040938e+000
-9.8958606e-001
-9.1262221e-001
-8.9222354e-001
-8.9800382e-001
-8.8633037e-001
-8.6536247e-001
-8.6679584e-001
-8.7808657e-001
-9.4838262e-001
-1.0333943e+000
-1.0855098e+000
-1.1229000e+000
-1.1360921e+000
-1.1578224e+000
-1.2315160e+000
-1.3224766e+000
-1.4152828e+000
-1.4872704e+000
-1.5183560e+000
-1.5252464e+000
-1.5144006e+000
-1.4694679e+000
-1.3876863e+000
-1.2725990e+000
-1.1309559e+000
-1.0548919e+000
-1.0417914e+000
-1.1005805e+000
-1.2036623e+000
-1.2742805e+000
-1.3192095e+000
-1.3285800e+000
-1.3203120e+000
-1.2952679e+000
-1.2627192e+000
-1.1893152e+000
-1.0983286e+000
-9.8946559e-001
-8.8599753e-001
-8.6294729e-001
-9.0181440e-001
-1.0708421e+000
-1.2874577e+000
-1.5002972e+000
-1.6627760e+000
-1.7127157e+000
-1.6682600e+000
-1.5252007e+000
-1.3163491e+000
-1.0595397e+000
-8.7196422e-001
-7.8551114e-001
-8.6095446e-001
-1.0728889e+000
-1.2921408e+000
-1.4876693e+000
-1.5937228e+000
-1.6364181e+000
-1.6217854e+000
-1.5783728e+000
-1.4966919e+000
-1.3970357e+000
-1.3153362e+000
-1.2473379e+000
-1.2384069e+000
-1.2499847e+000
-1.2077143e+000
-1.1177621e+000
-9.1963089e-001
-6.8822640e-001
-5.0780457e-001
-4.2234606e-001
-5.2549314e-001
-7.2440612e-001
-9.6228141e-001
-1.1587107e+000
-1.2614400e+000
-1.2764790e+000
-1.2162203e+000
-1.1148552e+000
-9.9292397e-001
-8.4660703e-001
-6.8073893e-001
-5.1246893e-001
-3.4843481e-001
-2.1920851e-001
-1.1772443e-001
-4.8350029e-002
3.8792398e-003
-1.8184694e-002
-8.3081543e-002
-1.3473621e-001
-1.6758445e-001
-9.4019681e-002
4.8399854e-002
2.4904160e-001
4.9022657e-001
7.7132255e-001
1.0330880e+000
1.1803337e+000
1.1740291e+000
9.3359476e-001
5.9688538e-001
2.7584547e-001
6.4153850e-002
-1.0849863e-001
-1.6558428e-001
-3.9532244e-002
2.6060021e-001
6.9264424e-001
1.0555414e+000
1.3024929e+000
1.2676656e+000
9.9764806e-001
7.0814508e-001
4.4228101e-001
3.5474199e-001
3.9858454e-001
3.6735952e-001
2.6977485e-001
1.7611131e-002
-3.1037530e-001
-4.5637423e-001
-4.0398991e-001
7.2732031e-002
8.8178182e-001
1.9476314e+000
2.9950149e+000
3.6046944e+000
3.9642324e+000
4.2772422e+000
4.8484921e+000
5.9460969e+000
7.7433500e+000
1.0292734e+001
1.3547226e+001
1.7380142e+001
2.1126530e+001
2.4507208e+001
2.7591234e+001
3.0459051e+001
3.3849419e+001
3.7820583e+001
4.2210590e+001
4.6892559e+001
5.0856621e+001
5.4186802e+001
5.7629456e+001
6.1237915e+001
6.5470406e+001
7.0132423e+001
7.4553352e+001
7.8688522e+001
8.2321121e+001
8.5485886e+001
8.8210045e+001
9.0553314e+001
9.2614716e+001
9.4337036e+001
9.5675430e+001
9.6182732e+001
9.5532181e+001
9.4119659e+001
9.2336388e+001
9.0304306e+001
8.8123329e+001
8.5216774e+001
8.1434929e+001
7.7130325e+001
7.2502762e+001
6.8002602e+001
6.3716194e+001
5.9318798e+001
5.4773685e+001
5.0318188e+001
4.5979504e+001
4.2011486e+001
3.8433640e+001
3.5331585e+001
3.2698280e+001
3.0411703e+001
2.8444258e+001
2.6655502e+001
2.5089674e+001
2.3805361e+001
2.2837801e+001
2.2192001e+001
2.1838861e+001
2.1700068e+001
2.1721708e+001
2.1830143e+001
2.2036114e+001
2.2335611e+001
2.2803940e+001
2.3469168e+001
2.4428032e+001
2.5705572e+001
2.7221022e+001
2.8941761e+001
3.0647877e+001
3.2290680e+001
3.3872387e+001
3.5395073e+001
3.7086914e+001
3.9017673e+001
4.1565956e+001
4.4689941e+001
4.7586590e+001
5.0099804e+001
5.1810158e+001
5.2820992e+001
5.3752609e+001
5.4643215e+001
5.5597660e+001
5.6351501e+001
5.6530960e+001
5.6036343e+001
5.4849277e+001
5.3333019e+001
5.1877602e+001
5.0563473e+001
4.9448849e+001
4.8413216e+001
4.7389229e+001
4.6097267e+001
4.4406059e+001
4.2497742e+001
4.0406822e+001
3.8368443e+001
3.6427486e+001
3.4020264e+001
3.0985971e+001
2.7746553e+001
2.4334122e+001
2.1403847e+001
1.9016180e+001
1.6687572e+001
1.4419949e+001
1.2169826e+001
9.9590149e+000
7.8359013e+000
5.8249049e+000
3.9290400e+000
2.2801986e+000
1.0286644e+000
2.5431466e-001
4.6195485e-002
4.1942614e-001
1.2705414e+000
2.2141230e+000
2.9990129e+000
3.6240029e+000
4.0521865e+000
4.5358005e+000
5.1988010e+000
5.9773374e+000
6.8906198e+000
7.5724239e+000
7.8742099e+000
7.9468784e+000
7.7104459e+000
7.4696250e+000
7.2275977e+000
7.0223823e+000
6.8631806e+000
6.7269044e+000
6.5836115e+000
6.3376746e+000
5.9489989e+000
5.4160342e+000
4.7950664e+000
4.2496052e+000
3.8524938e+000
3.6966279e+000
3.7468879e+000
3.9490645e+000
4.1828599e+000
4.3211870e+000
4.4187655e+000
4.5013938e+000
4.6575861e+000
4.9662485e+000
5.3706059e+000
5.8960218e+000
6.4293799e+000
6.9468775e+000
7.3601999e+000
7.5818920e+000
7.6589785e+000
7.4980626e+000
7.2296538e+000
6.7966051e+000
6.2881794e+000
5.6915812e+000
5.1257701e+000
4.6133795e+000
4.1817827e+000
3.8211055e+000
3.4535499e+000
3.0724068e+000
2.6658931e+000
2.2565801e+000
1.8792562e+000
1.5189717e+000
1.1589994e+000
8.0558026e-001
4.6935412e-001
1.9949967e-001
6.5481909e-002
3.3816516e-002
1.5122344e-001
3.2929462e-001
5.8041960e-001
8.4425229e-001
1.1155235e+000
1.3394479e+000
1.4619771e+000
1.4920504e+000
1.3673422e+000
1.2183950e+000
1.0446296e+000
9.2655009e-001
9.0008163e-001
9.7690481e-001
1.1862160e+000
1.4762133e+000
1.8260900e+000
2.1216550e+000
2.3347042e+000
2.4122090e+000
2.3830812e+000
2.2924027e+000
2.1707280e+000
2.0536151e+000
1.9440341e+000
1.8530196e+000
1.7877856e+000
1.7797793e+000
1.8151891e+000
1.9333295e+000
2.0796881e+000
2.2698529e+000
2.4531150e+000
2.6114082e+000
2.7498217e+000
2.8462675e+000
2.9491529e+000
3.0672050e+000
3.2153566e+000
3.4120841e+000
3.6240644e+000
3.8556893e+000
4.0823383e+000
4.3047724e+000
4.5274577e+000
4.7541881e+000
4.9956088e+000
5.2518992e+000
5.5209389e+000
5.7990046e+000
6.0806046e+000
6.3630753e+000
6.6443238e+000
6.9181252e+000
7.1695967e+000
7.3946476e+000
7.5528302e+000
7.6618376e+000
7.6508040e+000
7.5701785e+000
7.3013363e+000
6.9591866e+000
6.4207478e+000
5.8508263e+000
5.2124100e+000
4.6039629e+000
4.0613084e+000
3.5718119e+000
3.1748953e+000
2.8265338e+000
2.5485160e+000
2.3047309e+000
2.1002400e+000
1.9046867e+000
1.7156394e+000
1.5210729e+000
1.3213072e+000
1.1169960e+000
9.1404569e-001
7.2774696e-001
5.5985755e-001
4.3814886e-001
3.4166697e-001
2.8698242e-001
2.5116780e-001
2.5311828e-001
2.7511999e-001
3.5730267e-001
4.5599836e-001
6.0512203e-001
7.4966413e-001
8.7853742e-001
9.8304403e-001
1.0282090e+000
1.0657805e+000
1.0911430e+000
1.1346529e+000
1.2035199e+000
1.2542468e+000
1.2700509e+000
1.2174059e+000
1.0828160e+000
8.8418186e-001
6.2944806e-001
3.5691306e-001
8.7214500e-002
-1.0569794e-001
-2.2864661e-001
-1.7060618e-001
-2.1728843e-002
2.4022731e-001
5.2022529e-001
7.3235333e-001
9.0635699e-001
9.4264877e-001
9.6321547e-001
9.6764070e-001
9.7684479e-001
1.0052778e+000
1.0127894e+000
9.5679891e-001
9.1615105e-001
9.2182118e-001
1.0052968e+000
1.2385814e+000
1.4851242e+000
1.7416571e+000
1.9227710e+000
2.0099459e+000
2.0754080e+000
2.1314721e+000
2.2683122e+000
2.4731908e+000
2.7266321e+000
2.9935749e+000
3.1533470e+000
3.2470872e+000
3.2129753e+000
3.1407902e+000
3.0930550e+000
3.0544412e+000
3.0414221e+000
3.0218720e+000
2.9295223e+000
2.8289831e+000
2.6996043e+000
2.5761116e+000
2.4781256e+000
2.3771758e+000
2.2641599e+000
2.1218829e+000
1.9083107e+000
1.6748677e+000
1.4088886e+000
1.1792222e+000
1.0079308e+000
8.9884299e-001
8.6090332e-001
8.3679873e-001
8.2054806e-001
7.6256448e-001
6.7726815e-001
6.0525799e-001
5.4269177e-001
5.0573593e-001
4.7119099e-001
3.5560086e-001
2.1573339e-001
4.8058473e-002
-1.1651870e-001
-1.9213800e-001
-2.6143613e-001
-3.4363210e-001
-4.4329891e-001
-6.6135222e-001
-8.8802969e-001
-1.1518357e+000
-1.4058870e+000
-1.6285697e+000
-1.8334718e+000
-1.9951595e+000
-2.1088865e+000
-2.1353297e+000
-2.0898139e+000
-1.9472541e+000
-1.7819358e+000
-1.5972029e+000
-1.4798398e+000
-1.4174426e+000
-1.3804584e+000
-1.3544097e+000
-1.2438650e+000
-1.0961818e+000
-9.6448231e-001
-8.4310091e-001
-8.3197564e-001
-8.4230143e-001
-8.0831730e-001
-7.6319242e-001
-5.7945275e-001
-3.8528731e-001
-1.2698679e-001
7.4043423e-003
2.2220482e-001
4.0798301e-001
4.6912020e-001
4.8667145e-001
3.7764806e-001
3.0727625e-001
3.2078713e-001
4.0172225e-001
5.8974802e-001
7.6071817e-001
9.1087747e-001
1.0591166e+000
1.2053705e+000
1.3303742e+000
1.4397432e+000
1.4971405e+000
1.5284370e+000
1.7123742e+000
1.9546270e+000
2.2800846e+000
2.6258492e+000
2.7303877e+000
2.7958376e+000
2.7521999e+000
