Image.
>Pix99999.
  .
5555
5555
2300
900
5555
2
1
0
701
5555
1.4381000e-001
1.4680570e-001
1.4980143e-001
1.5278718e-001
1.5578286e-001
1.5876865e-001
1.6176428e-001
1.6476001e-001
1.6774583e-001
1.7074144e-001
1.7373714e-001
1.7672302e-001
1.7971857e-001
1.8270448e-001
1.8570000e-001
1.8872507e-001
1.9168235e-001
1.9456005e-001
1.9766003e-001
2.0108663e-001
2.0366685e-001
2.0506890e-001
2.0958480e-001
2.1850199e-001
2.1582560e-001
1.8327178e-001
1.1247468e-001
7.2119166e-003
-9.1206700e-002
-1.3943543e-001
-1.2850514e-001
-6.6401117e-002
1.0513069e-002
6.1313190e-002
5.9231617e-002
-5.1757144e-003
-8.8283308e-002
-1.3776009e-001
-1.2870446e-001
-5.6141142e-002
3.7802543e-002
1.0307714e-001
1.1407560e-001
6.3220792e-002
-1.4396263e-002
-7.7268712e-002
-1.0985757e-001
-1.1145021e-001
-1.0833698e-001
-1.2635660e-001
-1.5612571e-001
-1.7566611e-001
-1.5709011e-001
-7.8244671e-002
5.2859746e-002
2.1639457e-001
3.8349482e-001
5.2561861e-001
6.2643307e-001
6.7824453e-001
6.9225401e-001
6.8545806e-001
6.7356408e-001
6.6770250e-001
6.6247815e-001
6.4723170e-001
6.1199117e-001
5.5139244e-001
4.7755444e-001
4.0882766e-001
3.6520100e-001
3.6190870e-001
3.9314878e-001
4.4366437e-001
4.8898831e-001
5.0678933e-001
4.9552342e-001
4.6248069e-001
4.2082572e-001
3.8309714e-001
3.5150486e-001
3.2559758e-001
3.0941832e-001
3.0736032e-001
3.1818798e-001
3.3956963e-001
3.7319541e-001
4.2146334e-001
4.8329583e-001
5.5383897e-001
6.1798942e-001
6.6145808e-001
6.8895805e-001
7.1183074e-001
7.3916388e-001
7.7597302e-001
8.1489772e-001
8.4582722e-001
8.6643481e-001
8.7687290e-001
8.7451571e-001
8.5534102e-001
8.1451887e-001
7.5103384e-001
6.8101954e-001
6.2630302e-001
6.0443920e-001
6.2677670e-001
6.8706870e-001
7.7184266e-001
8.6651433e-001
9.5801854e-001
1.0402752e+000
1.1107260e+000
1.1692660e+000
1.2156893e+000
1.2457761e+000
1.2540479e+000
1.2367580e+000
1.1951690e+000
1.1462200e+000
1.1140437e+000
1.1252015e+000
1.1983346e+000
1.3158926e+000
1.4428965e+000
1.5376960e+000
1.5646327e+000
1.5222389e+000
1.4263868e+000
1.3027714e+000
1.1799940e+000
1.0840092e+000
1.0350860e+000
1.0356048e+000
1.0769693e+000
1.1372405e+000
1.1915641e+000
1.2252433e+000
1.2316411e+000
1.2177200e+000
1.1962321e+000
1.1780689e+000
1.1695870e+000
1.1609132e+000
1.1389407e+000
1.1080577e+000
1.0806019e+000
1.0681605e+000
1.0776349e+000
1.1001071e+000
1.1214778e+000
1.1371732e+000
1.1488177e+000
1.1631340e+000
1.1852636e+000
1.2031897e+000
1.1975690e+000
1.1541725e+000
1.0691878e+000
9.7145200e-001
9.0356857e-001
8.9909375e-001
9.7531229e-001
1.1035030e+000
1.2341107e+000
1.3236740e+000
1.3414147e+000
1.2902800e+000
1.1901503e+000
1.0618671e+000
9.2593342e-001
8.0566400e-001
7.2247165e-001
6.8347013e-001
6.8429250e-001
7.0329612e-001
7.1405494e-001
7.0582998e-001
6.7859542e-001
6.4054710e-001
6.0350376e-001
5.7941961e-001
5.7965851e-001
6.1416173e-001
6.8926477e-001
7.9881847e-001
9.2619962e-001
1.0379974e+000
1.0996341e+000
1.1088672e+000
1.0827590e+000
1.0435731e+000
1.0072107e+000
9.5610291e-001
8.6146212e-001
7.2658360e-001
5.7870322e-001
4.6444786e-001
4.2865688e-001
4.6806714e-001
5.4874796e-001
6.2526155e-001
6.5515965e-001
6.2680209e-001
5.4912394e-001
4.4222558e-001
3.3081558e-001
2.3887131e-001
1.8791521e-001
1.9250400e-001
2.5760755e-001
3.6350429e-001
4.7444850e-001
5.4666579e-001
5.4210812e-001
4.6320960e-001
3.3696961e-001
1.9043426e-001
4.5419455e-002
-8.8632993e-002
-2.0509040e-001
-2.7753177e-001
-2.7465254e-001
-2.0082560e-001
-8.8476606e-002
8.8952463e-003
3.9548021e-002
7.0990846e-003
-4.9150202e-002
-9.0175256e-002
-8.6722210e-002
-3.5224635e-002
4.7830503e-002
1.2714371e-001
1.6009657e-001
1.1728974e-001
-1.1797555e-002
-1.9613010e-001
-3.8046059e-001
-5.1680714e-001
-5.7459062e-001
-5.6708080e-001
-5.3212464e-001
-4.9237755e-001
-4.5260999e-001
-3.9695090e-001
-3.0123228e-001
-1.5877891e-001
1.8638939e-002
1.9539537e-001
3.2331535e-001
3.6318320e-001
2.9745975e-001
1.7139775e-001
6.3680522e-002
1.3717424e-002
2.7470697e-002
1.0587631e-001
2.4528900e-001
4.1846484e-001
5.7751930e-001
6.5606225e-001
5.9515977e-001
4.2004183e-001
2.1649286e-001
6.7672759e-002
2.1714874e-002
1.1376329e-002
-8.2057759e-002
-2.3806942e-001
-3.3389500e-001
-2.9109001e-001
-9.6288212e-002
1.8278235e-001
4.3166465e-001
5.6522614e-001
5.4762584e-001
4.3693602e-001
3.4098560e-001
2.9262602e-001
2.5365242e-001
1.6045797e-001
-4.0580854e-002
-3.1086594e-001
-5.3978378e-001
-6.1461705e-001
-4.3951029e-001
4.3922216e-002
8.4084338e-001
1.8361357e+000
2.8384347e+000
3.7178285e+000
4.4362516e+000
5.0985761e+000
5.9109869e+000
7.0706449e+000
8.7351141e+000
1.0982628e+001
1.3787048e+001
1.6904142e+001
1.9958340e+001
2.2735302e+001
2.5229202e+001
2.7688166e+001
3.0503508e+001
3.3892620e+001
3.7820683e+001
4.1876198e+001
4.5475052e+001
4.8540699e+001
5.1465359e+001
5.4636303e+001
5.8288460e+001
6.2322327e+001
6.6396751e+001
7.0299706e+001
7.3981415e+001
7.7419044e+001
8.0601501e+001
8.3591026e+001
8.6505554e+001
8.9429214e+001
9.2337318e+001
9.4878647e+001
9.6502251e+001
9.7031647e+001
9.6671944e+001
9.5633919e+001
9.4038269e+001
9.1874298e+001
8.9061302e+001
8.5693893e+001
8.2023163e+001
7.8196945e+001
7.4229340e+001
7.0110519e+001
6.5848549e+001
6.1523769e+001
5.7275249e+001
5.3207798e+001
4.9382942e+001
4.5868740e+001
4.2734112e+001
3.9984428e+001
3.7562714e+001
3.5409870e+001
3.3481159e+001
3.1759373e+001
3.0253504e+001
2.8969000e+001
2.7899879e+001
2.7020275e+001
2.6288862e+001
2.5681625e+001
2.5197508e+001
2.4857702e+001
2.4703970e+001
2.4789928e+001
2.5166595e+001
2.5831543e+001
2.6719568e+001
2.7714169e+001
2.8676544e+001
2.9550800e+001
3.0374079e+001
3.1200232e+001
3.2107201e+001
3.3316303e+001
3.5126812e+001
3.7491440e+001
3.9980869e+001
4.2180527e+001
4.3840832e+001
4.5034275e+001
4.6118893e+001
4.7317219e+001
4.8607315e+001
4.9796619e+001
5.0582573e+001
5.0786770e+001
5.0429710e+001
4.9710941e+001
4.8954247e+001
4.8329006e+001
4.7779198e+001
4.7137291e+001
4.6178982e+001
4.4765755e+001
4.2906330e+001
4.0789871e+001
3.8731510e+001
3.6823997e+001
3.4865719e+001
3.2615387e+001
2.9913086e+001
2.6893742e+001
2.3983524e+001
2.1445086e+001
1.9256109e+001
1.7279285e+001
1.5326714e+001
1.3291257e+001
1.1177089e+001
9.0096321e+000
6.8267870e+000
4.7387877e+000
2.9284878e+000
1.5127017e+000
5.2180272e-001
5.4901347e-002
2.7032647e-001
1.0716829e+000
2.0569439e+000
2.9537349e+000
3.7459135e+000
4.4952793e+000
5.2733865e+000
6.0478959e+000
6.6534257e+000
6.9257197e+000
6.7710686e+000
6.2749257e+000
5.7130218e+000
5.2563610e+000
4.8848357e+000
4.5579057e+000
4.2628460e+000
3.9923763e+000
3.7355173e+000
3.4642413e+000
3.1339338e+000
2.7257080e+000
2.2644906e+000
1.8021340e+000
1.4106300e+000
1.1443063e+000
1.0223788e+000
1.0336558e+000
1.1366067e+000
1.2919171e+000
1.4755981e+000
1.6830660e+000
1.9311343e+000
2.2342720e+000
2.5966878e+000
3.0181336e+000
3.4912758e+000
3.9876361e+000
4.4505014e+000
4.8178644e+000
5.0369396e+000
5.0984769e+000
5.0518312e+000
4.9458871e+000
4.8076448e+000
4.6501126e+000
4.4736123e+000
4.2801771e+000
4.0768166e+000
3.8575742e+000
3.5986445e+000
3.2909780e+000
2.9537189e+000
2.6111853e+000
2.2822151e+000
1.9617511e+000
1.6147809e+000
1.2287490e+000
8.3749914e-001
4.8987931e-001
2.3542161e-001
8.6734414e-002
9.4899908e-004
-5.8128882e-002
-9.3789965e-002
-8.7285355e-002
-3.1062067e-003
1.5802409e-001
3.3235884e-001
4.5176199e-001
4.7100592e-001
3.9188778e-001
2.8169131e-001
2.0322703e-001
1.8694870e-001
2.5180775e-001
4.0805662e-001
6.5357780e-001
9.6678472e-001
1.3096499e+000
1.6267698e+000
1.8764024e+000
2.0487309e+000
2.1523821e+000
2.2136543e+000
2.2571783e+000
2.2970700e+000
2.3435292e+000
2.4036753e+000
2.4805570e+000
2.5709178e+000
2.6685898e+000
2.7654448e+000
2.8575959e+000
2.9496429e+000
3.0499954e+000
3.1694517e+000
3.3170755e+000
3.4967356e+000
3.7072928e+000
3.9408121e+000
4.1879144e+000
4.4404545e+000
4.6976519e+000
4.9724665e+000
5.2806654e+000
5.6360826e+000
6.0438938e+000
6.4936700e+000
6.9755311e+000
7.4876118e+000
8.0323353e+000
8.6159592e+000
9.2373676e+000
9.8805752e+000
1.0527086e+001
1.1160240e+001
1.1766760e+001
1.2333982e+001
1.2838885e+001
1.3242636e+001
1.3510240e+001
1.3622375e+001
1.3581511e+001
1.3423965e+001
1.3180777e+001
1.2859514e+001
1.2460848e+001
1.1978499e+001
1.1413743e+001
1.0786178e+001
1.0118904e+001
9.4380999e+000
8.7641907e+000
8.1081295e+000
7.4713564e+000
6.8409419e+000
6.2039433e+000
5.5548067e+000
4.8962069e+000
4.2441802e+000
3.6166699e+000
3.0286260e+000
2.4918160e+000
2.0126250e+000
1.5973868e+000
1.2549430e+000
9.9330103e-001
8.1642556e-001
7.2000802e-001
6.8266815e-001
6.7634898e-001
6.6798967e-001
6.3103229e-001
5.5728114e-001
4.5284849e-001
3.4542120e-001
2.6144949e-001
2.1163011e-001
1.9135271e-001
1.7071766e-001
1.2279203e-001
4.2382810e-002
-6.0128056e-002
-1.5085857e-001
-1.9521326e-001
-1.7098317e-001
-6.7684643e-002
1.0478039e-001
3.3373401e-001
6.1132860e-001
9.3016171e-001
1.2815448e+000
1.6601982e+000
2.0690627e+000
2.5062554e+000
2.9535544e+000
3.3899240e+000
3.7961447e+000
4.1561117e+000
4.4606495e+000
4.7136254e+000
4.9478168e+000
5.2036314e+000
5.5217848e+000
5.9250469e+000
6.3901649e+000
6.8864646e+000
7.3926177e+000
7.8925571e+000
8.3778601e+000
8.8401480e+000
9.2667150e+000
9.6521044e+000
1.0011538e+001
1.0357583e+001
1.0684725e+001
1.0974886e+001
1.1198110e+001
1.1335643e+001
1.1405323e+001
1.1438269e+001
1.1466718e+001
1.1514249e+001
1.1572800e+001
1.1627160e+001
1.1667134e+001
1.1680891e+001
1.1657131e+001
1.1580657e+001
1.1426914e+001
1.1176337e+001
1.0829690e+001
1.0403831e+001
9.9317780e+000
9.4481773e+000
8.9685106e+000
8.5019341e+000
8.0506878e+000
7.6183400e+000
7.2159977e+000
6.8493915e+000
6.5031071e+000
6.1575327e+000
5.7966266e+000
5.4135251e+000
5.0264750e+000
4.6571908e+000
4.3187475e+000
4.0167284e+000
3.7393091e+000
3.4677708e+000
3.1761832e+000
2.8461120e+000
2.4871678e+000
2.1197925e+000
1.7752084e+000
1.4796361e+000
1.2332987e+000
1.0305085e+000
8.6650360e-001
7.3297191e-001
6.0978490e-001
4.8003691e-001
3.4675622e-001
2.2285914e-001
1.3680339e-001
1.1030820e-001
1.3068877e-001
1.8477972e-001
2.8572020e-001
4.5207876e-001
6.9798630e-001
1.0207251e+000
1.3649199e+000
1.6692365e+000
1.8975182e+000
2.0240457e+000
2.0372050e+000
1.9305571e+000
1.7011225e+000
1.3593196e+000
9.5803273e-001
5.6345642e-001
2.5156891e-001
7.5518854e-002
-8.0158375e-004
-2.3564734e-002
4.3463185e-003
8.1029311e-002
1.6916409e-001
2.2627300e-001
2.2343367e-001
1.4784554e-001
3.3801332e-002
-7.0995376e-002
-1.1283727e-001
-5.8058642e-002
4.5838408e-002
1.3133529e-001
1.3212344e-001
3.1561702e-003
-2.1980819e-001
-4.7586036e-001
-6.8480480e-001
-7.8281784e-001
-7.8919536e-001
-7.4143654e-001
-6.6684031e-001
-5.9017998e-001
