Image.
>Pix99999.
  .
5555
5555
2300
900
5555
2
1
0
701
5555
-3.0122999e-002
-3.0749105e-002
-3.1376205e-002
-3.2002315e-002
-3.2629412e-002
-3.3256516e-002
-3.3882625e-002
-3.4509718e-002
-3.5135832e-002
-3.5762928e-002
-3.6389045e-002
-3.7016131e-002
-3.7642252e-002
-3.8269337e-002
-3.8896438e-002
-3.9522562e-002
-4.0149648e-002
-4.0775772e-002
-4.1402850e-002
-4.2028982e-002
-4.2656057e-002
-4.3282192e-002
-4.3909263e-002
-4.4536367e-002
-4.5162503e-002
-4.5789570e-002
-1.7015885e-003
2.9864855e-002
5.7438999e-002
3.9411623e-002
1.4687057e-002
-2.4310522e-002
-6.3412063e-002
-8.2035132e-002
-9.8132722e-002
-1.0183610e-001
-1.0190462e-001
-8.8185370e-002
-7.4057057e-002
-6.0903806e-002
-5.5816054e-002
-6.8233043e-002
-7.9291500e-002
-8.6453177e-002
-8.8575229e-002
-8.4712215e-002
-9.3698710e-002
-1.1545123e-001
-1.3737760e-001
-1.5880990e-001
-1.6198143e-001
-1.5463722e-001
-1.4508909e-001
-1.3488683e-001
-1.1763700e-001
-9.8121680e-002
-7.1807683e-002
-4.3965232e-002
-4.7051452e-002
-5.5004563e-002
-8.2118511e-002
-1.0850738e-001
-1.0668857e-001
-9.9163786e-002
-7.4225582e-002
-5.4068688e-002
-5.7513576e-002
-7.0259817e-002
-1.0081170e-001
-1.2221393e-001
-1.2283300e-001
-1.0852750e-001
-7.5702250e-002
-5.4539129e-002
-4.8687711e-002
-5.9546039e-002
-8.3752096e-002
-9.4449766e-002
-9.4773121e-002
-8.1912600e-002
-6.2454030e-002
-5.5386700e-002
-5.3845711e-002
-6.6793822e-002
-8.4208965e-002
-1.0667942e-001
-1.3023442e-001
-1.4463814e-001
-1.5713738e-001
-1.6151060e-001
-1.6578914e-001
-1.7813981e-001
-1.9071372e-001
-1.9912238e-001
-2.0453186e-001
-2.0272951e-001
-2.0640406e-001
-2.2446810e-001
-2.4804761e-001
-2.7729017e-001
-2.9608712e-001
-3.0005026e-001
-2.9516721e-001
-2.8335637e-001
-2.8006515e-001
-2.8470749e-001
-3.0261782e-001
-3.2860065e-001
-3.6553681e-001
-4.0763012e-001
-4.5668572e-001
-5.0836116e-001
-5.4033160e-001
-5.6582266e-001
-5.6338054e-001
-5.5456519e-001
-5.6726283e-001
-5.8832788e-001
-6.5326631e-001
-7.2736728e-001
-8.0436343e-001
-8.6996371e-001
-8.9220232e-001
-8.9229846e-001
-8.5701960e-001
-8.2006538e-001
-7.9312718e-001
-7.8308648e-001
-7.9606193e-001
-8.1825429e-001
-8.4670985e-001
-8.7182611e-001
-8.9250368e-001
-9.1148800e-001
-9.2950106e-001
-9.4966012e-001
-9.7111982e-001
-9.7489566e-001
-9.6925831e-001
-9.5174319e-001
-9.2991596e-001
-9.4214213e-001
-9.6627855e-001
-1.0128465e+000
-1.0642469e+000
-1.0973171e+000
-1.1239355e+000
-1.1371419e+000
-1.1455085e+000
-1.1467277e+000
-1.1451857e+000
-1.1402512e+000
-1.1405658e+000
-1.1557690e+000
-1.1792440e+000
-1.2124171e+000
-1.2411274e+000
-1.2605199e+000
-1.2704394e+000
-1.2713499e+000
-1.2636172e+000
-1.2493880e+000
-1.2301980e+000
-1.2080091e+000
-1.2002497e+000
-1.2020986e+000
-1.2205982e+000
-1.2474961e+000
-1.2680320e+000
-1.2854475e+000
-1.3120872e+000
-1.3428783e+000
-1.3906280e+000
-1.4411923e+000
-1.4614651e+000
-1.4665749e+000
-1.4433708e+000
-1.4173685e+000
-1.4181606e+000
-1.4338971e+000
-1.4683629e+000
-1.4984220e+000
-1.5065579e+000
-1.5001312e+000
-1.4789029e+000
-1.4479949e+000
-1.4086803e+000
-1.3626428e+000
-1.3125240e+000
-1.2857330e+000
-1.2826486e+000
-1.2950070e+000
-1.3150754e+000
-1.3198411e+000
-1.3132557e+000
-1.3197736e+000
-1.3347200e+000
-1.3583859e+000
-1.3861952e+000
-1.3748757e+000
-1.3470571e+000
-1.3034284e+000
-1.2585086e+000
-1.2493659e+000
-1.2621788e+000
-1.3130057e+000
-1.3788888e+000
-1.4483339e+000
-1.5100657e+000
-1.5496756e+000
-1.5650101e+000
-1.5468922e+000
-1.4965200e+000
-1.4125463e+000
-1.3276712e+000
-1.2581028e+000
-1.2387531e+000
-1.2707399e+000
-1.3245928e+000
-1.3848966e+000
-1.4280628e+000
-1.4554229e+000
-1.4666191e+000
-1.4676867e+000
-1.4645439e+000
-1.4581107e+000
-1.4560386e+000
-1.4547135e+000
-1.4463806e+000
-1.4340202e+000
-1.4063672e+000
-1.3688370e+000
-1.3078629e+000
-1.2332305e+000
-1.1497166e+000
-1.0753286e+000
-1.0426234e+000
-1.0430899e+000
-1.0769861e+000
-1.1162475e+000
-1.1387485e+000
-1.1392821e+000
-1.1153703e+000
-1.0738075e+000
-1.0216109e+000
-9.5288700e-001
-8.7047040e-001
-7.9101479e-001
-7.1619695e-001
-6.6114128e-001
-6.2068433e-001
-5.6403148e-001
-4.9591041e-001
-4.1927078e-001
-3.4054506e-001
-2.9587236e-001
-2.7317148e-001
-2.6634741e-001
-2.6651323e-001
-2.4886380e-001
-2.1301086e-001
-1.3932741e-001
-4.7523700e-002
3.2403424e-002
8.6835518e-002
8.8657945e-002
6.9162935e-002
5.9776746e-002
2.2218730e-002
-6.6023044e-002
-1.4708486e-001
-1.8993188e-001
-1.5977183e-001
-5.4664843e-002
7.3976807e-002
2.0173679e-001
2.2679584e-001
1.5081470e-001
3.6269166e-002
-9.2101634e-002
-1.2680000e-001
-8.5514203e-002
-2.9427543e-002
2.7015669e-002
-9.9210441e-003
-1.0678001e-001
-1.6234408e-001
-1.5888250e-001
2.6628852e-002
3.8921142e-001
9.9145758e-001
1.7157059e+000
2.3851125e+000
3.0050666e+000
3.5867779e+000
4.2991123e+000
5.3021307e+000
6.8415780e+000
9.0374012e+000
1.2067940e+001
1.5893000e+001
1.9794920e+001
2.3442074e+001
2.6715487e+001
2.9662863e+001
3.3190716e+001
3.7385921e+001
4.2521496e+001
4.8405918e+001
5.3604076e+001
5.8139698e+001
6.2410320e+001
6.6566208e+001
7.1465363e+001
7.6929726e+001
8.2424652e+001
8.7816330e+001
9.2677254e+001
9.7004265e+001
1.0075285e+002
1.0385258e+002
1.0621037e+002
1.0752660e+002
1.0749684e+002
1.0602663e+002
1.0315357e+002
9.9601532e+001
9.6019714e+001
9.2273933e+001
8.8313332e+001
8.3752586e+001
7.8504021e+001
7.3302162e+001
6.8385918e+001
6.3891117e+001
5.9792389e+001
5.5594440e+001
5.1235214e+001
4.6937901e+001
4.2729061e+001
3.8832714e+001
3.5275459e+001
3.2223431e+001
2.9680340e+001
2.7581491e+001
2.5893850e+001
2.4440662e+001
2.3235653e+001
2.2263662e+001
2.1546616e+001
2.1078501e+001
2.0843218e+001
2.0785892e+001
2.0865477e+001
2.1021408e+001
2.1240723e+001
2.1508532e+001
2.1835321e+001
2.2224781e+001
2.2735106e+001
2.3384171e+001
2.4197588e+001
2.5172754e+001
2.6246643e+001
2.7401241e+001
2.8581244e+001
2.9784866e+001
3.1177191e+001
3.2856857e+001
3.5483776e+001
3.9125244e+001
4.3150539e+001
4.7308861e+001
5.0487385e+001
5.2714603e+001
5.4548141e+001
5.6024090e+001
5.7344944e+001
5.8374138e+001
5.8928394e+001
5.8890545e+001
5.8208881e+001
5.7073055e+001
5.5745209e+001
5.4284378e+001
5.2744400e+001
5.1000557e+001
4.8970844e+001
4.6564144e+001
4.3706917e+001
4.0869255e+001
3.8206982e+001
3.5760559e+001
3.3580246e+001
3.1042894e+001
2.8016043e+001
2.4957279e+001
2.1917847e+001
1.9340080e+001
1.7278780e+001
1.5266286e+001
1.3296976e+001
1.1298078e+001
9.2713003e+000
7.2324901e+000
5.2483029e+000
3.4465082e+000
1.9393610e+000
8.5342813e-001
2.1572649e-001
5.1924311e-002
4.3589282e-001
1.2919472e+000
2.2954421e+000
3.2430201e+000
4.0180292e+000
4.5301661e+000
4.9637108e+000
5.3868966e+000
5.8305740e+000
6.3074198e+000
6.6747880e+000
6.8568144e+000
6.8994679e+000
6.7443047e+000
6.5557857e+000
6.3246975e+000
6.0968661e+000
5.8675661e+000
5.6029382e+000
5.2758584e+000
4.8379402e+000
4.2893171e+000
3.7126026e+000
3.1503201e+000
2.7057571e+000
2.3979793e+000
2.2317064e+000
2.1963987e+000
2.2634091e+000
2.4009285e+000
2.5779929e+000
2.7753215e+000
2.9904916e+000
3.2317686e+000
3.5168028e+000
3.8358586e+000
4.1965117e+000
4.5699563e+000
4.9532313e+000
5.3291497e+000
5.6845961e+000
5.9836783e+000
6.1711335e+000
6.2355347e+000
6.1014152e+000
5.8438144e+000
5.4229817e+000
4.9650455e+000
4.4740267e+000
4.0065856e+000
3.5748243e+000
3.1758080e+000
2.8093812e+000
2.4617481e+000
2.1096222e+000
1.7160697e+000
1.2925522e+000
8.4994143e-001
4.4880110e-001
1.7107876e-001
9.9308044e-004
-1.6510559e-002
4.1142128e-002
1.7596042e-001
3.4738749e-001
5.6219882e-001
7.9073918e-001
1.0395423e+000
1.2714275e+000
1.4630057e+000
1.6220901e+000
1.7177266e+000
1.8190379e+000
1.9359018e+000
2.0953565e+000
2.3243093e+000
2.6000404e+000
2.9346919e+000
3.2843516e+000
3.6387901e+000
3.9559422e+000
4.2263255e+000
4.4470549e+000
4.6237855e+000
4.7741871e+000
4.8984189e+000
4.9886012e+000
5.0447292e+000
5.0428720e+000
5.0111856e+000
4.9464598e+000
4.8822150e+000
4.8383741e+000
4.8093400e+000
4.8108144e+000
4.8184671e+000
4.8360558e+000
4.8590355e+000
4.8940139e+000
4.9360628e+000
4.9927983e+000
5.0517273e+000
5.1167202e+000
5.1900935e+000
5.2767277e+000
5.3759713e+000
5.4883366e+000
5.6008019e+000
5.7127719e+000
5.8224459e+000
5.9316235e+000
6.0460038e+000
6.1632590e+000
6.2800169e+000
6.3873501e+000
6.4623098e+000
6.5081191e+000
6.4961200e+000
6.4528675e+000
6.3594098e+000
6.2394428e+000
6.0636921e+000
5.8581796e+000
5.5743237e+000
5.2627444e+000
4.8767962e+000
4.4699402e+000
4.0142288e+000
3.5547521e+000
3.0906086e+000
2.6441727e+000
2.2313879e+000
1.8484335e+000
1.5120474e+000
1.2138157e+000
9.6261221e-001
7.4069571e-001
5.4633856e-001
3.5965022e-001
1.8214899e-001
2.0175673e-002
-1.2232503e-001
-2.1990949e-001
-2.8398660e-001
-2.9107374e-001
-2.6561660e-001
-1.8309706e-001
-6.6981763e-002
1.3375445e-001
3.7089401e-001
7.0888609e-001
1.0525193e+000
1.3924899e+000
1.6904588e+000
1.8568028e+000
1.9736363e+000
1.9681671e+000
1.9352583e+000
1.8470296e+000
1.7402614e+000
1.6024179e+000
1.4513618e+000
1.2826673e+000
1.1091232e+000
9.2707032e-001
7.2516358e-001
5.0582880e-001
2.8151238e-001
6.9368273e-002
-6.0897745e-002
-1.2519789e-001
-5.0672930e-002
8.8766247e-002
2.9044652e-001
5.0203699e-001
6.7678303e-001
8.3124375e-001
9.1282481e-001
9.7885174e-001
9.9781597e-001
1.0206244e+000
1.0634365e+000
1.1185074e+000
1.2114438e+000
1.2991350e+000
1.3703029e+000
1.4105779e+000
1.3886362e+000
1.3394710e+000
1.2508714e+000
1.1739758e+000
1.1156560e+000
1.0913639e+000
1.1016172e+000
1.1251736e+000
1.1574019e+000
1.1795655e+000
1.1905457e+000
1.1640841e+000
1.1110715e+000
9.8790157e-001
8.3768070e-001
6.5769976e-001
4.7913092e-001
3.5915715e-001
2.5688079e-001
2.2959523e-001
2.1042123e-001
2.1970862e-001
2.3022029e-001
2.4600041e-001
2.6132557e-001
2.7444470e-001
2.7719578e-001
2.5276965e-001
2.0177752e-001
9.9591047e-002
-2.6415750e-002
-1.8570484e-001
-3.3536699e-001
-4.7151944e-001
-5.8123118e-001
-6.6648853e-001
-7.4158931e-001
-8.0839396e-001
-8.6194980e-001
-9.0733927e-001
-9.3854308e-001
-9.6538347e-001
-1.0028177e+000
-1.0437542e+000
-1.0918932e+000
-1.1409295e+000
-1.1866319e+000
-1.2323207e+000
-1.2819952e+000
-1.3275174e+000
-1.3440754e+000
-1.3451477e+000
-1.2782643e+000
-1.2049761e+000
-1.1133628e+000
-1.0453130e+000
-1.0315080e+000
-1.0317621e+000
-1.0544560e+000
-1.0515332e+000
-1.0135549e+000
-9.5668918e-001
-8.8160825e-001
-8.2330066e-001
-7.8024775e-001
-7.7180439e-001
-7.8581035e-001
-8.3082151e-001
-8.8808370e-001
-9.1188997e-001
-9.1895533e-001
-7.9832572e-001
-6.4782691e-001
-4.3657336e-001
-2.2296280e-001
-1.2768435e-001
-4.1249644e-002
-1.3595465e-002
1.5926734e-003
5.0153926e-002
1.6543952e-001
3.6690399e-001
5.5859053e-001
7.2109473e-001
8.5582787e-001
9.3059754e-001
9.6902406e-001
9.4921130e-001
9.1394001e-001
8.6005485e-001
8.0819046e-001
7.5714469e-001
6.4433259e-001
4.8735029e-001
2.8516638e-001
6.0407601e-002
-6.6623442e-002
-1.5488221e-001
-1.1585358e-001
-4.2752482e-002
1.0722485e-001
2.6972699e-001
4.5636001e-001
