Image.
>Pix99999.
  .
5555
5555
2300
900
5555
2
1
0
701
5555
3.5902999e-002
3.6649931e-002
3.7396863e-002
3.8143791e-002
3.8890727e-002
3.9636664e-002
4.0383589e-002
4.1130520e-002
4.1877452e-002
4.2624380e-002
4.3371316e-002
4.4118248e-002
4.4865176e-002
4.5612108e-002
4.6359040e-002
4.7105972e-002
4.7852904e-002
4.8599835e-002
4.9346767e-002
5.0093696e-002
5.0840627e-002
5.1587559e-002
5.2334491e-002
5.3081423e-002
5.3828355e-002
5.4575287e-002
3.2458212e-002
1.2190114e-003
1.0537920e-003
2.0542582e-003
3.0959100e-003
1.7291293e-002
3.2910198e-002
5.9209310e-002
8.5157916e-002
1.0453640e-001
1.2067663e-001
1.2385838e-001
1.2591925e-001
1.2683265e-001
1.3621429e-001
1.6420382e-001
1.9466460e-001
2.2732268e-001
2.4711759e-001
2.5069606e-001
2.5135517e-001
2.5015864e-001
2.5735375e-001
2.7090070e-001
2.8549287e-001
3.0046570e-001
3.0249497e-001
2.9885438e-001
2.9137942e-001
2.8277278e-001
2.9248601e-001
3.0642453e-001
3.1692567e-001
3.2646012e-001
3.0205315e-001
2.7450427e-001
2.4697192e-001
2.2385480e-001
2.2612572e-001
2.2918165e-001
2.2617131e-001
2.1825208e-001
1.9927548e-001
1.8323068e-001
1.7481400e-001
1.7046469e-001
1.7085846e-001
1.8134028e-001
2.0265354e-001
2.4417286e-001
3.0257857e-001
3.6741498e-001
4.3555823e-001
4.7033769e-001
4.8673913e-001
4.5707092e-001
4.0861523e-001
3.7773269e-001
3.5295960e-001
3.8520044e-001
4.3065417e-001
4.7231436e-001
5.1109749e-001
5.0898331e-001
5.0054544e-001
4.8800948e-001
4.7762299e-001
4.7904152e-001
4.8268044e-001
4.8789901e-001
4.9639708e-001
5.1177466e-001
5.3266901e-001
5.6119961e-001
5.8625430e-001
6.0547513e-001
6.1511803e-001
6.1572152e-001
6.1627561e-001
6.1753750e-001
6.1881769e-001
6.1993343e-001
6.1395162e-001
6.0443783e-001
6.0746670e-001
6.1596018e-001
6.4195317e-001
6.7353135e-001
6.8458670e-001
6.9019270e-001
6.6033494e-001
6.2405556e-001
5.8796877e-001
5.5447340e-001
5.3486544e-001
5.1479852e-001
4.8459724e-001
4.4547278e-001
3.9008588e-001
3.3679679e-001
2.9457980e-001
2.8293973e-001
3.1297058e-001
3.7794808e-001
4.7381586e-001
5.6032783e-001
6.3251334e-001
6.5801442e-001
6.4972746e-001
6.1626327e-001
5.7094282e-001
5.4024321e-001
5.1850128e-001
5.1243842e-001
5.1181996e-001
5.1871359e-001
5.2687699e-001
5.3520995e-001
5.4241055e-001
5.3969920e-001
5.3380811e-001
5.2680463e-001
5.1886892e-001
5.1286006e-001
5.0558716e-001
4.9599087e-001
4.8300657e-001
4.5918491e-001
4.2609900e-001
3.7544844e-001
3.2534429e-001
2.8196982e-001
2.6098669e-001
2.6601097e-001
2.9001829e-001
3.2779291e-001
3.6330143e-001
3.9601776e-001
4.0774846e-001
4.0627855e-001
3.8677052e-001
3.5732001e-001
3.3132797e-001
3.0684465e-001
2.7610844e-001
2.4193427e-001
1.9333954e-001
1.3978134e-001
1.0316040e-001
7.8492999e-002
8.5210897e-002
1.0724039e-001
1.3081428e-001
1.4656247e-001
1.3642971e-001
1.0997683e-001
7.2612017e-002
3.0901827e-002
-6.2297946e-003
-3.1073114e-002
-3.7569985e-002
-1.7877610e-002
2.1439284e-002
6.1688632e-002
9.2151970e-002
1.0767901e-001
1.1397845e-001
1.1010379e-001
1.0270243e-001
6.4851671e-002
9.5372945e-003
-4.7429692e-002
-1.0606103e-001
-1.0484328e-001
-7.8154713e-002
-1.2553670e-002
6.3584141e-002
9.9604845e-002
1.0748731e-001
5.0419450e-002
-3.3441208e-002
-1.2745379e-001
-2.1294269e-001
-2.6514667e-001
-2.8335300e-001
-2.4944773e-001
-1.7799920e-001
-6.9696754e-002
2.1682296e-002
6.4853251e-002
4.1801017e-002
-4.7970518e-002
-1.4863372e-001
-2.3892562e-001
-2.9891571e-001
-3.3202779e-001
-3.4480760e-001
-3.4243435e-001
-3.2392761e-001
-2.9142213e-001
-2.6792127e-001
-2.4576852e-001
-2.4839607e-001
-2.6458195e-001
-2.6341015e-001
-2.5435090e-001
-2.1260595e-001
-1.5401193e-001
-9.7568676e-002
-4.7540046e-002
-3.7465297e-002
-5.7870030e-002
-1.0630353e-001
-1.6809073e-001
-2.2085656e-001
-2.6293644e-001
-2.8828949e-001
-2.9581308e-001
-2.9172155e-001
-2.6507449e-001
-2.1976872e-001
-1.8769576e-001
-1.6698131e-001
-1.7833859e-001
-2.1170643e-001
-2.1046008e-001
-1.8884760e-001
-1.3727653e-001
-7.6980896e-002
-4.5995474e-002
-3.7307668e-002
-3.4041271e-002
-3.3420686e-002
-6.9269007e-003
4.0325712e-002
1.1973201e-001
2.1184891e-001
2.6159015e-001
2.7189943e-001
2.1947935e-001
1.3665260e-001
6.8105705e-002
1.7227806e-002
-8.7893210e-002
-2.0660500e-001
-2.8603929e-001
-2.9982314e-001
-2.4244060e-001
-1.6597643e-001
-9.7885758e-002
-9.6691757e-002
-1.7042410e-001
-2.4899492e-001
-3.1410897e-001
-2.7075401e-001
-1.3657546e-001
-7.9580806e-003
1.0099562e-001
6.8799794e-002
-6.2216878e-002
-1.4391063e-001
-1.6248059e-001
-2.0811364e-002
2.2496945e-001
6.3937372e-001
1.1507872e+000
1.5560548e+000
1.8861829e+000
2.2028179e+000
2.6787286e+000
3.4950383e+000
4.9080219e+000
7.0346603e+000
1.0039236e+001
1.3839000e+001
1.7668919e+001
2.1187220e+001
2.4337070e+001
2.7204222e+001
3.0680450e+001
3.4842850e+001
3.9799629e+001
4.5357479e+001
5.0165241e+001
5.4270786e+001
5.8274963e+001
6.2297375e+001
6.7024132e+001
7.2257111e+001
7.7301048e+001
8.2062958e+001
8.6219711e+001
8.9807983e+001
9.2884583e+001
9.5506401e+001
9.7786293e+001
9.9666618e+001
1.0108551e+002
1.0151720e+002
1.0050768e+002
9.8466774e+001
9.5861023e+001
9.2915924e+001
8.9837402e+001
8.6277863e+001
8.2139542e+001
7.7855095e+001
7.3586159e+001
6.9504494e+001
6.5635803e+001
6.1589478e+001
5.7333664e+001
5.3064148e+001
4.8808792e+001
4.4774029e+001
4.0985886e+001
3.7626156e+001
3.4701950e+001
3.2191772e+001
3.0074808e+001
2.8210894e+001
2.6620041e+001
2.5294714e+001
2.4240124e+001
2.3423500e+001
2.2824751e+001
2.2383520e+001
2.2093952e+001
2.1926146e+001
2.1888714e+001
2.1981239e+001
2.2189770e+001
2.2503908e+001
2.2939341e+001
2.3493029e+001
2.4167511e+001
2.4943907e+001
2.5789694e+001
2.6691000e+001
2.7655279e+001
2.8693182e+001
3.0000095e+001
3.1672373e+001
3.4198933e+001
3.7637470e+001
4.1295151e+001
4.4968315e+001
4.7877342e+001
5.0061726e+001
5.2051109e+001
5.3874126e+001
5.5641037e+001
5.7143738e+001
5.8010189e+001
5.8130287e+001
5.7490650e+001
5.6376213e+001
5.5202099e+001
5.3993938e+001
5.2772953e+001
5.1418995e+001
4.9840473e+001
4.7995987e+001
4.5813141e+001
4.3578243e+001
4.1384678e+001
3.9249958e+001
3.7222839e+001
3.4782196e+001
3.1794214e+001
2.8703388e+001
2.5526649e+001
2.2769871e+001
2.0479441e+001
1.8225430e+001
1.6003492e+001
1.3734175e+001
1.1418839e+001
9.0659761e+000
6.7506876e+000
4.6291142e+000
2.8082130e+000
1.4345607e+000
5.2191508e-001
9.2547841e-002
2.5427097e-001
8.9600372e-001
1.7191250e+000
2.5479600e+000
3.2545307e+000
3.7757595e+000
4.2710948e+000
4.8176942e+000
5.4420066e+000
6.1645799e+000
6.7708645e+000
7.1501737e+000
7.3394613e+000
7.2509646e+000
7.1085429e+000
6.8958941e+000
6.6674180e+000
6.4184480e+000
6.1247363e+000
5.7681384e+000
5.2966061e+000
4.7138720e+000
4.0964665e+000
3.4773421e+000
2.9725664e+000
2.6059206e+000
2.4004171e+000
2.3496916e+000
2.4118969e+000
2.5428400e+000
2.6898160e+000
2.8398366e+000
3.0166075e+000
3.2326035e+000
3.5207415e+000
3.8635585e+000
4.2634988e+000
4.6927319e+000
5.1520586e+000
5.6039429e+000
6.0251188e+000
6.3761649e+000
6.5773969e+000
6.6604662e+000
6.5494351e+000
6.3254685e+000
5.9501085e+000
5.5280390e+000
5.0596166e+000
4.5891743e+000
4.1331739e+000
3.6887701e+000
3.2626619e+000
2.8678417e+000
2.4774642e+000
2.0677028e+000
1.6398816e+000
1.1821569e+000
7.4980867e-001
4.1048384e-001
1.5750168e-001
4.7470387e-002
2.5853679e-002
1.0176484e-001
2.0351036e-001
3.7942398e-001
5.8434808e-001
8.3895731e-001
1.0817058e+000
1.2860315e+000
1.4510927e+000
1.5170069e+000
1.5743470e+000
1.6222737e+000
1.7093999e+000
1.8728405e+000
2.0890603e+000
2.3808990e+000
2.6948130e+000
3.0250499e+000
3.3235319e+000
3.5734720e+000
3.7707443e+000
3.9118426e+000
4.0163417e+000
4.0865579e+000
4.1190290e+000
4.1226230e+000
4.0812540e+000
4.0240431e+000
3.9542158e+000
3.8912938e+000
3.8502715e+000
3.8186080e+000
3.8007100e+000
3.7849162e+000
3.7682886e+000
3.7534635e+000
3.7411892e+000
3.7307301e+000
3.7293620e+000
3.7358429e+000
3.7627454e+000
3.8110628e+000
3.8909299e+000
3.9960661e+000
4.1271544e+000
4.2651701e+000
4.4088173e+000
4.5498686e+000
4.6923499e+000
4.8479266e+000
5.0112157e+000
5.1745358e+000
5.3259249e+000
5.4312477e+000
5.5051942e+000
5.5287852e+000
5.5297418e+000
5.5031557e+000
5.4502840e+000
5.3305440e+000
5.1641507e+000
4.8689032e+000
4.5358720e+000
4.1054606e+000
3.6661365e+000
3.2067769e+000
2.7584450e+000
2.3338485e+000
1.9303344e+000
1.5652097e+000
1.2244925e+000
9.2110401e-001
6.4566451e-001
4.0592879e-001
1.9627383e-001
1.7635584e-002
-1.4170545e-001
-2.8343716e-001
-4.1057786e-001
-5.2308881e-001
-6.0895729e-001
-6.7688692e-001
-7.1956605e-001
-7.4402058e-001
-7.2790349e-001
-6.7598325e-001
-5.1399910e-001
-3.0794579e-001
1.6753972e-002
3.4848696e-001
6.7758304e-001
9.7661239e-001
1.1794293e+000
1.3435637e+000
1.4113901e+000
1.4487400e+000
1.4246447e+000
1.3796815e+000
1.2982503e+000
1.1895331e+000
1.0426970e+000
8.7287617e-001
6.8021464e-001
4.9285531e-001
3.1436345e-001
1.6288157e-001
3.8289003e-002
-3.8685028e-002
-7.4130118e-002
7.1088970e-003
1.5460210e-001
4.1679034e-001
7.1046263e-001
1.0065351e+000
1.2799793e+000
1.4311481e+000
1.5560088e+000
1.6002243e+000
1.6505595e+000
1.7325611e+000
1.8249530e+000
1.9497409e+000
2.0711200e+000
2.1823325e+000
2.2813094e+000
2.3556960e+000
2.4221635e+000
2.4762430e+000
2.5277028e+000
2.5758600e+000
2.6248732e+000
2.6759245e+000
2.7378545e+000
2.8091879e+000
2.8878937e+000
2.9672921e+000
3.0185440e+000
3.0475943e+000
3.0077028e+000
2.9370606e+000
2.8102374e+000
2.6715355e+000
2.5386229e+000
2.4141760e+000
2.3471417e+000
2.2918639e+000
2.2932737e+000
2.2948856e+000
2.2963665e+000
2.2847054e+000
2.2313859e+000
2.1723852e+000
2.1007464e+000
2.0413251e+000
2.0039353e+000
1.9680721e+000
1.9320459e+000
1.8780999e+000
1.8023131e+000
1.7075074e+000
1.5958866e+000
1.4774028e+000
1.3562872e+000
1.2527325e+000
1.1589500e+000
1.0743814e+000
9.9276084e-001
9.0860289e-001
8.2765579e-001
7.8893083e-001
7.6094490e-001
7.7221203e-001
7.8345698e-001
7.5471735e-001
7.1656919e-001
6.1585855e-001
5.0879115e-001
3.7430072e-001
2.4813901e-001
1.4864931e-001
7.6161221e-002
6.6005006e-002
7.4093163e-002
1.1417080e-001
1.4921081e-001
1.7754020e-001
1.9550058e-001
2.0176342e-001
1.9527790e-001
1.7825803e-001
1.5561897e-001
1.3070029e-001
1.1719950e-001
1.0908574e-001
1.0263032e-001
9.6436091e-002
9.3462154e-002
9.1289170e-002
9.8958664e-002
1.0620072e-001
7.7451639e-002
4.7346577e-002
1.9933576e-002
2.3168451e-003
8.4337778e-004
2.8613552e-002
1.2249471e-001
2.2674200e-001
3.6143336e-001
4.8529637e-001
5.8532244e-001
6.5202379e-001
6.6562068e-001
6.7391360e-001
6.7638409e-001
6.9459850e-001
7.2718465e-001
7.6309299e-001
8.0090249e-001
8.2744765e-001
8.4872049e-001
8.3368772e-001
8.0630481e-001
7.3422867e-001
6.5189832e-001
5.7928813e-001
5.0876695e-001
4.6467000e-001
