Image.
>Pix99999.
  .
5555
5555
2300
900
5555
2
1
0
701
5555
8.4106997e-003
8.5857492e-003
8.7607000e-003
8.9356489e-003
9.1105988e-003
9.2856484e-003
9.4606979e-003
9.6355490e-003
9.8104980e-003
9.9857431e-003
1.0160500e-002
1.0335250e-002
1.0510000e-002
1.0687695e-002
1.0860540e-002
1.1028401e-002
1.1209840e-002
1.1410119e-002
1.1561142e-002
1.1643801e-002
1.1907315e-002
1.2427161e-002
1.2271563e-002
1.1162491e-002
1.2564880e-002
1.9184714e-002
2.6485743e-002
2.2936322e-002
-2.3011880e-002
-1.3551039e-001
-2.8618729e-001
-4.3121254e-001
-5.2483261e-001
-5.3372663e-001
-4.7626537e-001
-3.8571101e-001
-2.9476103e-001
-2.3006904e-001
-1.9509532e-001
-1.8590513e-001
-1.9620915e-001
-2.2057459e-001
-2.5942442e-001
-3.1597495e-001
-3.9746216e-001
-5.0751811e-001
-6.3032848e-001
-7.4306130e-001
-8.1862152e-001
-8.3878899e-001
-8.2626140e-001
-8.1417704e-001
-8.2618672e-001
-8.7166893e-001
-9.1492826e-001
-9.1319978e-001
-8.5285038e-001
-7.3920262e-001
-6.1569917e-001
-5.2926838e-001
-4.9158570e-001
-4.9663359e-001
-5.1426053e-001
-5.1326102e-001
-4.8959517e-001
-4.5042816e-001
-4.1102919e-001
-3.8671133e-001
-3.8273332e-001
-4.0121758e-001
-4.4557801e-001
-5.1785254e-001
-6.1223370e-001
-7.1946353e-001
-8.2740861e-001
-9.2429429e-001
-1.0038586e+000
-1.0602710e+000
-1.0823721e+000
-1.0601810e+000
-9.9713719e-001
-9.0603834e-001
-8.1721783e-001
-7.6319641e-001
-7.5995117e-001
-8.1025678e-001
-8.8795424e-001
-9.5875841e-001
-9.9756283e-001
-9.9133843e-001
-9.6159184e-001
-9.3867278e-001
-9.3697309e-001
-9.5879257e-001
-9.8280925e-001
-9.8484462e-001
-9.6469349e-001
-9.3319625e-001
-9.0790540e-001
-9.0492493e-001
-9.2496145e-001
-9.6338284e-001
-1.0182506e+000
-1.0866412e+000
-1.1560891e+000
-1.2104299e+000
-1.2346623e+000
-1.2211654e+000
-1.1931669e+000
-1.1820990e+000
-1.2034886e+000
-1.2571760e+000
-1.3058120e+000
-1.3056691e+000
-1.2486974e+000
-1.1490636e+000
-1.0514252e+000
-1.0018109e+000
-1.0032395e+000
-1.0374360e+000
-1.0745087e+000
-1.0882443e+000
-1.0830292e+000
-1.0775610e+000
-1.0950497e+000
-1.1531321e+000
-1.2413241e+000
-1.3339816e+000
-1.3928012e+000
-1.3858042e+000
-1.3262401e+000
-1.2490405e+000
-1.1963874e+000
-1.2000740e+000
-1.2399517e+000
-1.2729143e+000
-1.2570262e+000
-1.1666261e+000
-1.0356677e+000
-9.2468244e-001
-8.9354599e-001
-9.8266792e-001
-1.1568586e+000
-1.3488728e+000
-1.5006914e+000
-1.5719800e+000
-1.5708911e+000
-1.5261461e+000
-1.4594269e+000
-1.3863301e+000
-1.3154429e+000
-1.2531860e+000
-1.2099035e+000
-1.1938421e+000
-1.1974720e+000
-1.2075086e+000
-1.2199252e+000
-1.2369181e+000
-1.2670161e+000
-1.3133202e+000
-1.3437543e+000
-1.3141340e+000
-1.2029171e+000
-1.0157117e+000
-8.2203001e-001
-7.1174896e-001
-7.3048675e-001
-8.8370031e-001
-1.1084024e+000
-1.3183280e+000
-1.4680785e+000
-1.5424421e+000
-1.5572823e+000
-1.5406101e+000
-1.5102780e+000
-1.4782500e+000
-1.4569006e+000
-1.4553139e+000
-1.4655468e+000
-1.4717516e+000
-1.4624000e+000
-1.4339621e+000
-1.4031740e+000
-1.3911902e+000
-1.3918377e+000
-1.3803136e+000
-1.3177446e+000
-1.1738731e+000
-9.8225838e-001
-8.0673659e-001
-6.8931085e-001
-6.4700639e-001
-6.5274805e-001
-6.6755593e-001
-7.0076507e-001
-7.8458178e-001
-9.2580402e-001
-1.1033162e+000
-1.2468206e+000
-1.2740682e+000
-1.1643857e+000
-9.4682229e-001
-7.0556426e-001
-5.4180902e-001
-5.0907695e-001
-6.1680478e-001
-8.1195807e-001
-1.0156198e+000
-1.1815045e+000
-1.2893375e+000
-1.3353200e+000
-1.3207567e+000
-1.2351207e+000
-1.0721015e+000
-8.7770367e-001
-7.2657585e-001
-6.7983764e-001
-7.7158868e-001
-9.6593934e-001
-1.1900318e+000
-1.3890285e+000
-1.5273825e+000
-1.5889560e+000
-1.5723571e+000
-1.4961641e+000
-1.3924000e+000
-1.3022484e+000
-1.2637696e+000
-1.2817698e+000
-1.3345461e+000
-1.3766229e+000
-1.3538330e+000
-1.2297268e+000
-9.9743223e-001
-7.2684604e-001
-5.2769750e-001
-4.7495577e-001
-5.9645212e-001
-8.3235699e-001
-1.0744934e+000
-1.2384028e+000
-1.2756183e+000
-1.2014989e+000
-1.0681994e+000
-9.1616768e-001
-7.7006805e-001
-6.3901293e-001
-5.2566451e-001
-4.4387937e-001
-4.0938210e-001
-4.0738288e-001
-4.0461004e-001
-3.8207641e-001
-3.3516639e-001
-2.6831025e-001
-1.8980943e-001
-1.0424569e-001
-1.0028789e-002
1.0820615e-001
2.7219301e-001
4.9082145e-001
7.4957150e-001
9.7321379e-001
1.0583366e+000
9.6315175e-001
7.1275449e-001
4.1442239e-001
1.9735576e-001
5.0866403e-002
-1.1832797e-001
-2.8827885e-001
-3.4711850e-001
-2.2015458e-001
1.0361890e-001
5.2769655e-001
8.9098394e-001
1.0735177e+000
1.0280285e+000
8.5585058e-001
7.3860687e-001
7.4253196e-001
8.1707656e-001
8.4038454e-001
6.8093175e-001
3.4557956e-001
-4.0243000e-002
-3.1552643e-001
-3.1477532e-001
9.6866131e-002
9.8115414e-001
2.1757686e+000
3.3740757e+000
4.3912086e+000
5.2024593e+000
5.9683299e+000
6.9701972e+000
8.4584846e+000
1.0611177e+001
1.3471169e+001
1.6928698e+001
2.0624001e+001
2.4069920e+001
2.7054039e+001
2.9681231e+001
3.2364880e+001
3.5678421e+001
3.9953876e+001
4.5172176e+001
5.0740997e+001
5.5785385e+001
6.0171413e+001
6.4434799e+001
6.9031883e+001
7.4128044e+001
7.9364883e+001
8.4046249e+001
8.7822197e+001
9.0732574e+001
9.2928856e+001
9.4581314e+001
9.5790085e+001
9.6571732e+001
9.6873482e+001
9.6598785e+001
9.5669182e+001
9.4074677e+001
9.2017570e+001
8.9838295e+001
8.7673332e+001
8.5431107e+001
8.2933777e+001
7.9998634e+001
7.6612473e+001
7.2902794e+001
6.8922310e+001
6.4634598e+001
6.0035561e+001
5.5187477e+001
5.0250416e+001
4.5454456e+001
4.0973484e+001
3.6910065e+001
3.3344681e+001
3.0331110e+001
2.7838102e+001
2.5760401e+001
2.4002237e+001
2.2502563e+001
2.1242239e+001
2.0234243e+001
1.9483000e+001
1.8976055e+001
1.8692011e+001
1.8609436e+001
1.8734640e+001
1.9098965e+001
1.9730858e+001
2.0657631e+001
2.1937040e+001
2.3650799e+001
2.5833372e+001
2.8446655e+001
3.1356850e+001
3.4359287e+001
3.7310841e+001
4.0148163e+001
4.2826370e+001
4.5342598e+001
4.7902725e+001
5.0837345e+001
5.4016884e+001
5.6821869e+001
5.8766621e+001
5.9687973e+001
5.9802895e+001
5.9611641e+001
5.9332222e+001
5.8790775e+001
5.7709019e+001
5.5849613e+001
5.3317516e+001
5.0569546e+001
4.7978634e+001
4.5713570e+001
4.3783459e+001
4.2058651e+001
4.0360794e+001
3.8502373e+001
3.6370304e+001
3.3966625e+001
3.1443758e+001
2.9060848e+001
2.6890759e+001
2.4763544e+001
2.2489923e+001
1.9963673e+001
1.7310606e+001
1.4874983e+001
1.2842820e+001
1.1145930e+001
9.6434994e+000
8.1898136e+000
6.7293520e+000
5.3124681e+000
3.9727547e+000
2.7047222e+000
1.5461488e+000
5.9721279e-001
-4.1872948e-002
-2.8401908e-001
-2.7433991e-002
8.1652290e-001
2.1496892e+000
3.6599791e+000
5.1051073e+000
6.4053144e+000
7.5861816e+000
8.7577457e+000
1.0009264e+001
1.1358000e+001
1.2697200e+001
1.3793764e+001
1.4470078e+001
1.4671782e+001
1.4443726e+001
1.3924571e+001
1.3254954e+001
1.2543050e+001
1.1852268e+001
1.1189583e+001
1.0516914e+001
9.7648106e+000
8.9177713e+000
8.0456314e+000
7.2411962e+000
6.5950999e+000
6.1533060e+000
5.8981161e+000
5.7876420e+000
5.7684741e+000
5.8011684e+000
5.8723540e+000
5.9896765e+000
6.1801252e+000
6.4617257e+000
6.8306270e+000
7.2629628e+000
7.7098541e+000
8.0994282e+000
8.3395185e+000
8.3602428e+000
8.1396294e+000
7.7166243e+000
7.1987038e+000
6.6777883e+000
6.1972451e+000
5.7721114e+000
5.3914757e+000
5.0406637e+000
4.7058940e+000
4.3600111e+000
3.9595547e+000
3.4815280e+000
2.9415143e+000
2.3740144e+000
1.8253651e+000
1.3191462e+000
8.4355980e-001
4.0004557e-001
2.4151906e-002
-2.3354098e-001
-3.1499699e-001
-1.8476777e-001
1.5110093e-001
6.5909934e-001
1.2797500e+000
1.9650400e+000
2.6903615e+000
3.4111476e+000
4.0413027e+000
4.4833055e+000
4.6465096e+000
4.5060463e+000
4.1425581e+000
3.6613879e+000
3.1665514e+000
2.7459545e+000
2.4556634e+000
2.3135486e+000
2.2828999e+000
2.3004699e+000
2.2844100e+000
2.1792915e+000
1.9846488e+000
1.7290720e+000
1.4680808e+000
1.2506616e+000
1.1036249e+000
1.0416443e+000
1.0678716e+000
1.1859857e+000
1.4046780e+000
1.7302328e+000
2.1614399e+000
2.6828642e+000
3.2566457e+000
3.8372831e+000
4.3763523e+000
4.8362122e+000
5.2011199e+000
5.4720230e+000
5.6708622e+000
5.8243299e+000
5.9591174e+000
6.0998902e+000
6.2685647e+000
6.4919462e+000
6.8057284e+000
7.2416363e+000
7.8170114e+000
8.5289688e+000
9.3439302e+000
1.0225807e+001
1.1149709e+001
1.2107417e+001
1.3112500e+001
1.4167462e+001
1.5235747e+001
1.6255024e+001
1.7128687e+001
1.7772371e+001
1.8135145e+001
1.8185480e+001
1.7909512e+001
1.7313595e+001
1.6431135e+001
1.5314440e+001
1.4042971e+001
1.2709283e+001
1.1418230e+001
1.0270223e+001
9.3535309e+000
8.7244205e+000
8.3799667e+000
8.2813387e+000
8.3441963e+000
8.4714298e+000
8.5636330e+000
8.5299006e+000
8.3025494e+000
7.8467355e+000
7.1874447e+000
6.3814874e+000
5.5215759e+000
4.6954226e+000
3.9594152e+000
3.3467364e+000
2.8552523e+000
2.4713707e+000
2.1749973e+000
1.9474400e+000
1.7775446e+000
1.6584257e+000
1.5892656e+000
1.5684783e+000
1.5892957e+000
1.6404706e+000
1.7035480e+000
1.7571572e+000
1.7770834e+000
1.7397928e+000
1.6265836e+000
1.4306920e+000
1.1709235e+000
8.7843096e-001
5.9770179e-001
3.6709780e-001
2.0165952e-001
9.6341088e-002
1.4022663e-002
-7.3091574e-002
-1.5337870e-001
-2.1099013e-001
-2.4293754e-001
-2.5377497e-001
-2.5859287e-001
-2.7312621e-001
-3.0768371e-001
-3.6324641e-001
-4.2157891e-001
-4.6311057e-001
-4.7685671e-001
-4.5989773e-001
-4.2369837e-001
-3.7929738e-001
-3.2804251e-001
-2.6853621e-001
-1.9807568e-001
-1.1156224e-001
1.6358346e-003
1.5543571e-001
3.6822894e-001
6.5370417e-001
1.0099615e+000
1.4252617e+000
1.8716629e+000
2.3152392e+000
2.7163742e+000
3.0341127e+000
3.2277260e+000
3.2679887e+000
3.1570003e+000
2.9227588e+000
2.6411858e+000
2.3917298e+000
2.2288322e+000
2.1762760e+000
2.1905148e+000
2.2162747e+000
2.2132218e+000
2.1578770e+000
2.0645165e+000
1.9515600e+000
1.8247830e+000
1.6915566e+000
1.5729036e+000
1.4958843e+000
1.4951212e+000
1.5964943e+000
1.7947857e+000
2.0673299e+000
2.3632946e+000
2.6239662e+000
2.7902050e+000
2.8178883e+000
2.7090178e+000
2.4817126e+000
2.1692181e+000
1.8088071e+000
1.4391224e+000
1.0987086e+000
8.2288700e-001
6.2911093e-001
4.8250738e-001
3.3802402e-001
1.5966822e-001
-7.3031411e-002
-3.3910131e-001
-6.0631704e-001
-8.3916497e-001
-1.0052414e+000
-1.0855650e+000
-1.0834818e+000
-1.0630442e+000
-1.0909926e+000
-1.1943636e+000
-1.3652120e+000
-1.5143688e+000
-1.5529799e+000
-1.4586949e+000
-1.2419457e+000
-9.6689248e-001
-6.9747102e-001
-4.5309576e-001
-2.3713759e-001
-3.6338851e-002
1.5959740e-001
3.3683258e-001
4.7552860e-001
5.5599207e-001
5.6566113e-001
5.1666903e-001
4.2697400e-001
3.1369674e-001
1.9355923e-001
8.3303139e-002
1.3024114e-002
5.9691459e-002
2.8175747e-001
6.2910736e-001
1.0211343e+000
1.3650125e+000
1.5869466e+000
1.6955942e+000
1.7280097e+000
1.7513814e+000
1.8262441e+000
1.9591633e+000
2.1405103e+000
2.3510280e+000
2.5755372e+000
2.8231628e+000
3.0998497e+000
3.3745699e+000
3.6001854e+000
3.7020979e+000
3.6313605e+000
3.4672709e+000
3.3210447e+000
3.3020108e+000
3.5191000e+000
