##TITLE=Methyl Ethyl Ketone
##JCAMP-DX=4.24
##DATA TYPE=INFRARED SPECTRUM
##XUNITS=cm-1
##YUNITS=Absorbance
##FIRSTX=900
##LASTX=2300
##XYDATA=(X++(Y..Y))
2296 -0.060013
2294 -0.061261214
2292 -0.062509432
2290 -0.063757643
2288 -0.065006852
2286 -0.066255078
2284 -0.067503288
2282 -0.06875249
2280 -0.070000716
2278 -0.071247943
2276 -0.072497129
2274 -0.073747322
2272 -0.074994586
2270 -0.07623592
2268 -0.077490859
2266 -0.078765631
2264 -0.079989024
2262 -0.081142001
2260 -0.08248236
2258 -0.084087193
2256 -0.084992662
2254 -0.084916152
2252 -0.087436125
2250 -0.093618743
2248 -0.090149529
2246 -0.061871499
2244 -0.0022593627
2242 0.0853239
2240 0.16750827
2238 0.21028315
2236 0.21102329
2234 0.1771955
2232 0.12057726
2230 0.0553087
2228 0.0004774034
2226 -0.03035428
2224 -0.051635634
2222 -0.082300588
2220 -0.12620462
2218 -0.17852606
2216 -0.21773228
2214 -0.22410995
2212 -0.20527861
2210 -0.17451377
2208 -0.13444765
2206 -0.08426027
2204 -0.02286048
2202 0.047216449
2200 0.10850744
2198 0.14351811
2196 0.15325929
2194 0.14468837
2192 0.12492806
2190 0.10059417
2188 0.076307952
2186 0.056644902
2184 0.048553679
2182 0.056196783
2180 0.069220215
2178 0.076513901
2176 0.083089858
2174 0.099762194
2172 0.13914251
2170 0.2075028
2168 0.28317857
2166 0.34037849
2164 0.37431267
2162 0.3904312
2160 0.40641016
2158 0.4378894
2156 0.475999
2154 0.50574881
2152 0.52155298
2150 0.52194619
2148 0.50794959
2146 0.47995287
2144 0.43230769
2142 0.36188442
2140 0.28455034
2138 0.22028938
2136 0.17815457
2134 0.16079901
2132 0.16121237
2130 0.17168812
2128 0.19538561
2126 0.24009186
2124 0.31601265
2122 0.4289028
2120 0.56310606
2118 0.69133615
2116 0.77086288
2114 0.766029
2112 0.69297379
2110 0.58973318
2108 0.50407797
2106 0.47388926
2104 0.48377246
2102 0.50054181
2100 0.50169742
2098 0.47600043
2096 0.43891141
2094 0.41267893
2092 0.40557492
2090 0.41868249
2088 0.44724846
2086 0.48410299
2084 0.52050978
2082 0.54632992
2080 0.54800415
2078 0.51567537
2076 0.46059087
2074 0.40307993
2072 0.36579642
2070 0.36573815
2068 0.39395037
2066 0.43172422
2064 0.46400625
2062 0.48193434
2060 0.49422771
2058 0.51402837
2056 0.54295969
2054 0.57509696
2052 0.59455073
2050 0.58631742
2048 0.55574894
2046 0.51726639
2044 0.48619398
2042 0.47228408
2040 0.46200246
2038 0.43556067
2036 0.38926315
2034 0.33047512
2032 0.28157577
2030 0.2648896
2028 0.27629673
2026 0.2999253
2024 0.32087788
2022 0.33021915
2020 0.33945012
2018 0.36565727
2016 0.41101402
2014 0.46692756
2012 0.51003712
2010 0.51652223
2008 0.48732126
2006 0.43628457
2004 0.38221034
2002 0.3416194
2000 0.31463405
1998 0.29510891
1996 0.283135
1994 0.28193387
1992 0.29339704
1990 0.31760639
1988 0.35045901
1986 0.38526329
1984 0.41269279
1982 0.42263746
1980 0.40652052
1978 0.36294854
1976 0.317718
1974 0.30594519
1972 0.34601825
1970 0.43790013
1968 0.54160708
1966 0.60563701
1964 0.61122787
1962 0.56383216
1960 0.49703801
1958 0.45162705
1956 0.44403484
1954 0.47402042
1952 0.52668005
1950 0.57971293
1948 0.60685474
1946 0.58552998
1944 0.51586139
1942 0.41340348
1940 0.30910498
1938 0.23552202
1936 0.201322
1934 0.20019396
1932 0.2178922
1930 0.23744161
1928 0.2438764
1926 0.22651008
1924 0.1873896
1922 0.13772991
1920 0.099321574
1918 0.09520366
1916 0.13130766
1914 0.19999002
1912 0.27696612
1910 0.3336345
1908 0.35885304
1906 0.35637102
1904 0.349792
1902 0.36745867
1900 0.41403994
1898 0.47738856
1896 0.53382999
1894 0.55678827
1892 0.52992368
1890 0.4468478
1888 0.31702068
1886 0.16015257
1884 0.0033914819
1882 -0.12608625
1880 -0.2165513
1878 -0.26985908
1876 -0.306665
1874 -0.35398731
1872 -0.42200869
1870 -0.50338697
1868 -0.56147152
1866 -0.55193037
1864 -0.46897358
1862 -0.33685839
1860 -0.20354545
1858 -0.1212982
1856 -0.10906428
1854 -0.1615591
1852 -0.26115558
1850 -0.38636243
1848 -0.52227437
1846 -0.65736002
1844 -0.77464229
1842 -0.85471475
1840 -0.88446397
1838 -0.85912323
1836 -0.79171985
1834 -0.70286059
1832 -0.5989722
1830 -0.47701877
1828 -0.3370024
1826 -0.18576379
1824 -0.046956118
1822 0.049723037
1820 0.09454786
1818 0.093361229
1816 0.058458257
1814 0.0038069263
1812 -0.060825147
1810 -0.1260917
1808 -0.17069584
1806 -0.172535
1804 -0.14310637
1802 -0.11748072
1800 -0.13169548
1798 -0.2070414
1796 -0.30762857
1794 -0.36637434
1792 -0.34870201
1790 -0.25579664
1788 -0.12974912
1786 -0.028907618
1784 0.026918795
1782 0.049735211
1780 0.061331969
1778 0.082621083
1776 0.11652932
1774 0.15308951
1772 0.18261465
1770 0.19734168
1768 0.18970554
1766 0.15617299
1764 0.1124224
1762 0.077819683
1760 0.025570264
1758 -0.091525927
1756 -0.25329971
1754 -0.39478365
1752 -0.49133804
1750 -0.55643392
1748 -0.61010438
1746 -0.66972858
1744 -0.74143952
1742 -0.81674594
1740 -0.85763574
1738 -0.8134172
1736 -0.67127401
1734 -0.4582248
1732 -0.24081339
1730 -0.099038109
1728 -0.057263784
1726 -0.088192046
1724 -0.13797435
1722 -0.1343873
1720 0.017063946
1718 0.40863788
1716 1.0511386
1714 1.8827469
1712 2.8086486
1710 3.7425609
1708 4.7139702
1706 5.8547649
1704 7.3382812
1702 9.3465681
1700 12.015925
1698 15.376366
1696 19.143715
1694 22.828911
1692 26.134375
1690 29.027166
1688 31.811234
1686 35.010792
1684 39.035713
1682 44.035732
1680 49.55632
1678 54.788399
1676 59.49807
1674 64.017715
1672 68.715622
1670 73.795639
1668 78.98362
1666 83.667244
1664 87.49411
1662 90.428841
1660 92.580299
1658 94.118942
1656 95.15786
1654 95.741287
1652 95.867401
1650 95.514702
1648 94.720528
1646 93.586716
1644 92.256943
1642 90.870865
1640 89.408913
1638 87.701958
1636 85.565468
1634 82.8563
1632 79.581436
1630 75.867332
1628 71.778831
1626 67.308578
1624 62.483242
1622 57.394505
1620 52.231266
1618 47.250458
1616 42.648258
1614 38.543064
1612 35.005299
1610 32.058399
1608 29.648857
1606 27.658522
1604 25.984707
1602 24.562881
1600 23.378965
1598 22.460888
1596 21.838001
1594 21.52672
1592 21.503693
1590 21.710184
1588 22.095337
1586 22.626715
1584 23.288759
1582 24.08824
1580 25.083178
1578 26.379921
1576 28.094944
1574 30.31765
1572 33.007355
1570 35.991169
1568 39.065598
1566 42.032627
1564 44.74176
1562 47.135319
1560 49.382103
1558 51.813469
1556 54.460201
1554 56.98785
1552 59.012424
1550 60.232613
1548 60.647942
1546 60.529572
1544 59.963036
1542 58.783478
1540 56.896641
1538 54.384415
1536 51.550541
1534 48.858639
1532 46.532375
1530 44.483643
1528 42.574474
1526 40.682549
1524 38.69252
1522 36.509865
1520 34.128193
1518 31.648174
1516 29.2246
1514 27.011776
1512 24.975601
1510 22.878126
1508 20.546825
1506 17.971006
1504 15.336228
1502 12.981164
1500 11.058277
1498 9.4533424
1496 7.9996285
1494 6.5541296
1492 5.0803981
1490 3.6630082
1488 2.3909721
1486 1.3241937
1484 0.50351441
1482 -0.049097195
1480 -0.32992354
1478 -0.34061435
1476 -0.018928975
1474 0.75045782
1472 1.9397217
1470 3.331903
1468 4.7165294
1466 5.9615598
1464 7.0464745
1462 8.0720186
1460 9.1544209
1458 10.373262
1456 11.679999
1454 12.873905
1452 13.755583
1450 14.192422
1448 14.179372
1446 13.854465
1444 13.342143
1442 12.70283
1440 11.957314
1438 11.093924
1436 10.108532
1434 9.0256653
1432 7.9182549
1430 6.9101949
1428 6.0885859
1426 5.4718485
1424 5.0465651
1422 4.7784438
1420 4.6439376
1418 4.6405048
1416 4.7674456
1414 5.01899
1412 5.3809795
1410 5.8289075
1408 6.3358741
1406 6.8718328
1404 7.3871312
1402 7.8067594
1400 8.0601606
1398 8.0992556
1396 7.924407
1394 7.5999627
1392 7.2042494
1390 6.8101664
1388 6.4595451
1386 6.1493998
1384 5.8645897
1382 5.585907
1380 5.2878737
1378 4.937799
1376 4.5068259
1374 3.9787476
1372 3.3659379
1370 2.717464
1368 2.0778949
1366 1.4707543
1364 0.90653533
1362 0.38662946
1360 -0.066765547
1358 -0.39789018
1356 -0.55691999
1354 -0.51674706
1352 -0.26534492
1350 0.18989846
1348 0.81666207
1346 1.5497644
1344 2.3165081
1342 3.045949
1340 3.6800773
1338 4.1818333
1336 4.5240059
1334 4.6892262
1332 4.671226
1330 4.480876
1328 4.1478572
1326 3.7266264
1324 3.2779138
1322 2.8601451
1320 2.5098584
1318 2.227046
1316 1.9993501
1314 1.8080604
1312 1.6363685
1310 1.4737562
1308 1.3162391
1306 1.169335
1304 1.0443686
1302 0.95838541
1300 0.92589515
1298 0.95578551
1296 1.0634999
1294 1.277861
1292 1.6293286
1290 2.1409161
1288 2.804188
1286 3.5570843
1284 4.3159924
1282 4.9853621
1280 5.4966116
1278 5.8374014
1276 6.026763
1274 6.1168761
1272 6.164022
1270 6.2175999
1268 6.3203764
1266 6.5048141
1264 6.7951446
1262 7.2041893
1260 7.7376261
1258 8.3919563
1256 9.1592913
1254 10.027051
1252 10.980575
1250 12.002798
1248 13.079337
1246 14.1955
1244 15.329885
1242 16.444679
1240 17.485708
1238 18.376307
1236 19.043442
1234 19.427559
1232 19.48044
1230 19.170856
1228 18.486818
1226 17.456879
1224 16.142834
1222 14.659865
1220 13.140957
1218 11.72497
1216 10.52984
1214 9.6246347
1212 9.0400486
1210 8.7499161
1208 8.7004566
1206 8.8063555
1204 8.9663877
1202 9.0630293
1200 8.9891376
1198 8.6724558
1196 8.0894432
1194 7.3032546
1192 6.4062834
1190 5.5067062
1188 4.6876574
1186 3.9705682
1184 3.3560441
1182 2.8314629
1180 2.3885112
1178 2.0341218
1176 1.7738601
1174 1.6031678
1172 1.5152729
1170 1.5033723
1168 1.5570571
1166 1.656955
1164 1.7744362
1162 1.86578
1160 1.8921251
1158 1.8344907
1156 1.6904757
1154 1.4838215
1152 1.2446721
1150 1.0026686
1148 0.78056622
1146 0.58570683
1144 0.41978437
1142 0.27948546
1140 0.15606582
1138 0.032041267
1136 -0.10199414
1134 -0.231673
1132 -0.33833471
1130 -0.40679467
1128 -0.42437634
1126 -0.38340044
1124 -0.28635755
1122 -0.15807255
1120 -0.034986001
1118 0.03337834
1116 0.014859743
1114 -0.071421571
1112 -0.18574971
1110 -0.27040616
1108 -0.28766733
1106 -0.26028898
1104 -0.22340314
1102 -0.20461673
1100 -0.20873371
1098 -0.18878302
1096 -0.10014999
1094 0.063791052
1092 0.29853681
1090 0.59517145
1088 0.95098519
1086 1.3801585
1084 1.8805643
1082 2.3962331
1080 2.8562703
1078 3.1873071
1076 3.3390372
1074 3.3252425
1072 3.1846173
1070 2.9804137
1068 2.7727787
1066 2.5967443
1064 2.470536
1062 2.3837268
1060 2.3175507
1058 2.2507124
1056 2.1717229
1054 2.0981586
1052 2.0549901
1050 2.065701
1048 2.1380353
1046 2.2362142
1044 2.3169324
1042 2.3472903
1040 2.3177228
1038 2.277303
1036 2.27845
1034 2.3391147
1032 2.4447742
1030 2.5128458
1028 2.4675045
1026 2.3037236
1024 2.0471144
1022 1.762473
1020 1.5049806
1018 1.2738116
1016 1.0572437
1014 0.85276592
1012 0.66385269
1010 0.50393581
1008 0.37858278
1006 0.26177329
1004 0.12246202
1002 -0.060995117
1000 -0.293419
998 -0.53447723
996 -0.73959786
994 -0.8867172
992 -0.97439057
990 -1.0483351
988 -1.1518101
986 -1.2812021
984 -1.4070828
982 -1.4553338
980 -1.363704
978 -1.1474628
976 -0.85163599
974 -0.55535662
972 -0.32420507
970 -0.14996459
968 -0.011051722
966 0.097318947
964 0.16612428
962 0.15433684
960 0.03212294
958 -0.16454078
956 -0.3782073
954 -0.53418225
952 -0.57054603
950 -0.48554647
948 -0.30597755
946 -0.10585047
944 0.059669897
942 0.24343048
940 0.49261212
938 0.73792481
936 0.89661342
934 0.94241464
932 0.88388258
930 0.80514783
928 0.79041654
926 0.8540709
924 0.97831118
922 1.0901572
920 1.1184721
918 1.0514648
916 0.90267098
914 0.72640043
912 0.59033942
910 0.57469219
908 0.74630332
906 1.1076357
904 1.6013839
902 1.9991858
900 2.0882249
898 1.8869058
896 1.4715
