Image.
>Pix99999.
  .
5555
5555
2300
900
5555
2
1
0
701
5555
7.4822001e-002
7.6378770e-002
7.7935547e-002
7.9491325e-002
8.1048086e-002
8.2604863e-002
8.4161632e-002
8.5718416e-002
8.7274194e-002
8.8830955e-002
9.0387732e-002
9.1945484e-002
9.3500309e-002
9.5053121e-002
9.6613735e-002
9.8184295e-002
9.9727683e-002
1.0123340e-001
1.0283860e-001
1.0458250e-001
1.0596085e-001
1.0680510e-001
1.0904802e-001
1.1325937e-001
1.1227012e-001
9.7806215e-002
6.5696068e-002
1.4569283e-002
-5.0430119e-002
-1.1882738e-001
-1.6599528e-001
-1.7086627e-001
-1.4281040e-001
-1.0000119e-001
-6.0552195e-002
-3.8475450e-002
-3.1670399e-002
-3.4149282e-002
-4.3282665e-002
-5.6933012e-002
-7.0696801e-002
-8.1940442e-002
-9.8007001e-002
-1.2738185e-001
-1.7098033e-001
-2.2412142e-001
-2.6894081e-001
-2.8647721e-001
-2.6958138e-001
-2.1813300e-001
-1.4525571e-001
-6.8316363e-002
-5.2235913e-003
2.9331142e-002
3.4205578e-002
1.5210036e-002
-1.1045280e-002
-2.7251165e-002
-2.6997553e-002
-9.0112491e-003
2.1688897e-002
5.9020326e-002
1.0061859e-001
1.4434360e-001
1.8379790e-001
2.1258856e-001
2.3012334e-001
2.3909514e-001
2.4741885e-001
2.6278809e-001
2.8493601e-001
3.1122983e-001
3.4054926e-001
3.7149253e-001
3.9898407e-001
4.1613570e-001
4.1369596e-001
3.8595599e-001
3.4474576e-001
3.0759266e-001
2.8993630e-001
3.0288681e-001
3.4353212e-001
4.0355656e-001
4.7283921e-001
5.3939748e-001
5.8583134e-001
5.9628916e-001
5.6973231e-001
5.1290613e-001
4.4217831e-001
3.7475529e-001
3.1732577e-001
2.7350396e-001
2.5078750e-001
2.5734326e-001
2.9753226e-001
3.6997694e-001
4.5587280e-001
5.3200632e-001
5.8425570e-001
6.0605669e-001
6.0653538e-001
5.9893215e-001
5.8891881e-001
5.7854998e-001
5.6836849e-001
5.5951917e-001
5.5775177e-001
5.6865418e-001
5.8925653e-001
6.1352855e-001
6.3719004e-001
6.5777177e-001
6.7675668e-001
6.9558990e-001
7.0898509e-001
7.1020544e-001
6.9844157e-001
6.7713279e-001
6.5678626e-001
6.4914501e-001
6.5920073e-001
6.8711227e-001
7.2524565e-001
7.6258248e-001
7.8716075e-001
7.8887534e-001
7.6649696e-001
7.2534150e-001
6.8228227e-001
6.5709740e-001
6.6165811e-001
7.0080280e-001
7.6540041e-001
8.4052175e-001
9.1198397e-001
9.6667665e-001
9.9318278e-001
9.8382407e-001
9.4358003e-001
8.8427162e-001
8.2266355e-001
7.7499759e-001
7.4715924e-001
7.3976076e-001
7.5157291e-001
7.7995825e-001
8.1864595e-001
8.6129755e-001
9.0832645e-001
9.6177572e-001
1.0167441e+000
1.0637081e+000
1.0887879e+000
1.0797086e+000
1.0393744e+000
9.7902930e-001
9.1449821e-001
8.6204320e-001
8.3287632e-001
8.3251190e-001
8.5309899e-001
8.8005382e-001
8.9734781e-001
8.9266795e-001
8.7083107e-001
8.4482247e-001
8.2605040e-001
8.2078767e-001
8.1924939e-001
8.0660963e-001
7.8100711e-001
7.5026006e-001
7.3295188e-001
7.4697495e-001
7.8554732e-001
8.2871461e-001
8.5627162e-001
8.5455436e-001
8.3425570e-001
8.1756687e-001
8.2130480e-001
8.5471582e-001
9.1091746e-001
9.7424400e-001
1.0270305e+000
1.0536311e+000
1.0491645e+000
1.0172300e+000
9.7356462e-001
9.3745697e-001
9.1629720e-001
9.0849763e-001
9.0395039e-001
8.9067262e-001
8.6644876e-001
8.3684170e-001
8.1595969e-001
8.1926483e-001
8.4925717e-001
8.9722109e-001
9.3900818e-001
9.4633424e-001
9.0827101e-001
8.2799017e-001
7.2354901e-001
6.1957079e-001
5.3608096e-001
4.8883373e-001
4.8971200e-001
5.4469854e-001
6.4229465e-001
7.5758213e-001
8.5107768e-001
8.8371658e-001
8.5221571e-001
7.7772880e-001
6.9139314e-001
6.2359619e-001
5.8453345e-001
5.7264602e-001
5.9023076e-001
6.3939321e-001
7.0500559e-001
7.6115286e-001
7.8282487e-001
7.5450581e-001
6.9539988e-001
6.4404422e-001
6.2917459e-001
6.6447300e-001
7.3432595e-001
8.0549228e-001
8.4494913e-001
8.2837647e-001
7.6114357e-001
6.6837817e-001
5.7924420e-001
5.2012300e-001
5.0262225e-001
5.2535814e-001
5.7205147e-001
6.1936229e-001
6.5113664e-001
6.5962845e-001
6.4896125e-001
6.3091189e-001
6.1912757e-001
6.2498987e-001
6.4777285e-001
6.7496389e-001
6.7792678e-001
6.2685907e-001
5.3190207e-001
4.3042400e-001
3.5352612e-001
3.2058069e-001
3.3356088e-001
3.8292161e-001
4.5718428e-001
5.4163188e-001
6.0647613e-001
6.1527610e-001
5.4972696e-001
4.1483971e-001
2.5717819e-001
1.3556987e-001
3.7269231e-002
-9.0497687e-002
-2.3058429e-001
-3.1675652e-001
-3.2425451e-001
-2.7172029e-001
-2.0200026e-001
-1.6539714e-001
-1.8864492e-001
-2.7111039e-001
-3.7420639e-001
-4.4208270e-001
-4.5754400e-001
-4.3960470e-001
-4.2397675e-001
-4.4503939e-001
-4.9404716e-001
-5.2592355e-001
-4.8437038e-001
-3.1237099e-001
3.3409476e-002
5.7024789e-001
1.2452536e+000
1.9594631e+000
2.6452572e+000
3.2884302e+000
3.9724860e+000
4.8536677e+000
6.0915885e+000
7.8376775e+000
1.0244886e+001
1.3397689e+001
1.7038713e+001
2.0668949e+001
2.3947590e+001
2.6776989e+001
2.9406960e+001
3.2311134e+001
3.5813797e+001
3.9975796e+001
4.4387077e+001
4.8387833e+001
5.1865028e+001
5.5223873e+001
5.8881424e+001
6.3092857e+001
6.7696167e+001
7.2225098e+001
7.6375053e+001
8.0055305e+001
8.3265511e+001
8.6057487e+001
8.8521286e+001
9.0761566e+001
9.2833542e+001
9.4705658e+001
9.6159660e+001
9.6881966e+001
9.6838654e+001
9.6244179e+001
9.5196678e+001
9.3625153e+001
9.1364159e+001
8.8247009e+001
8.4382187e+001
8.0113007e+001
7.5679893e+001
7.1168633e+001
6.6591599e+001
6.1939308e+001
5.7297558e+001
5.2837864e+001
4.8689598e+001
4.4919483e+001
4.1563465e+001
3.8630188e+001
3.6079060e+001
3.3832363e+001
3.1837763e+001
3.0077938e+001
2.8557503e+001
2.7291876e+001
2.6274500e+001
2.5474003e+001
2.4852549e+001
2.4375269e+001
2.4032059e+001
2.3837814e+001
2.3805555e+001
2.3947149e+001
2.4296629e+001
2.4905279e+001
2.5804943e+001
2.6986258e+001
2.8359900e+001
2.9771185e+001
3.1116961e+001
3.2373550e+001
3.3565166e+001
3.4783157e+001
3.6273308e+001
3.8355904e+001
4.0979942e+001
4.3682529e+001
4.6006046e+001
4.7658257e+001
4.8702282e+001
4.9518997e+001
5.0334007e+001
5.1109074e+001
5.1685299e+001
5.1855850e+001
5.1541630e+001
5.0830414e+001
4.9888988e+001
4.8913406e+001
4.7989456e+001
4.7062351e+001
4.6026871e+001
4.4764271e+001
4.3206806e+001
4.1371090e+001
3.9384628e+001
3.7446823e+001
3.5581799e+001
3.3589142e+001
3.1254675e+001
2.8454258e+001
2.5341223e+001
2.2343164e+001
1.9733789e+001
1.7514540e+001
1.5566143e+001
1.3702826e+001
1.1803668e+001
9.8511753e+000
7.8644123e+000
5.8933015e+000
4.0464859e+000
2.4832890e+000
1.2925611e+000
4.7304061e-001
6.9928430e-002
1.7735103e-001
7.1947491e-001
1.4142300e+000
2.0670414e+000
2.6582878e+000
3.2319715e+000
3.8595762e+000
4.5820093e+000
5.3798413e+000
6.1548800e+000
6.7380157e+000
7.0287580e+000
7.0429621e+000
6.8492384e+000
6.5480962e+000
6.2180023e+000
5.8944030e+000
5.5824714e+000
5.2565966e+000
4.8725214e+000
4.3795052e+000
3.7777362e+000
3.1392341e+000
2.5507479e+000
2.0910993e+000
1.8031503e+000
1.6800048e+000
1.6936154e+000
1.8024743e+000
1.9687057e+000
2.1671770e+000
2.3934221e+000
2.6674194e+000
3.0068903e+000
3.4164314e+000
3.8881073e+000
4.3991389e+000
4.9192562e+000
5.4122300e+000
5.8409071e+000
6.1706381e+000
6.3777251e+000
6.4539304e+000
6.3960671e+000
6.2056599e+000
5.8975616e+000
5.5052729e+000
5.0687580e+000
4.6286144e+000
4.2083516e+000
3.8055675e+000
3.4133799e+000
3.0264421e+000
2.6374938e+000
2.2362130e+000
1.8138480e+000
1.3688513e+000
9.2300081e-001
5.2925771e-001
2.3383002e-001
5.8088005e-002
-2.0991862e-003
1.9546323e-002
9.3989357e-002
2.1106929e-001
3.6998719e-001
5.7483697e-001
8.1108731e-001
1.0331616e+000
1.1931000e+000
1.2555133e+000
1.2183106e+000
1.1279280e+000
1.0337660e+000
9.7080892e-001
9.6260613e-001
1.0178207e+000
1.1336315e+000
1.2926446e+000
1.4679000e+000
1.6236110e+000
1.7318840e+000
1.7828797e+000
1.7794943e+000
1.7386607e+000
1.6792320e+000
1.6173310e+000
1.5676309e+000
1.5433575e+000
1.5569857e+000
1.6202089e+000
1.7394459e+000
1.9115994e+000
2.1259720e+000
2.3625143e+000
2.6018684e+000
2.8298304e+000
3.0383308e+000
3.2286777e+000
3.4060214e+000
3.5791659e+000
3.7595222e+000
3.9617078e+000
4.1997614e+000
4.4847665e+000
4.8241329e+000
5.2202673e+000
5.6727319e+000
6.1779494e+000
6.7297831e+000
7.3188252e+000
7.9374175e+000
8.5828514e+000
9.2529573e+000
9.9436750e+000
1.0643011e+001
1.1323643e+001
1.1954531e+001
1.2504059e+001
1.2944757e+001
1.3259941e+001
1.3434880e+001
1.3459336e+001
1.3327477e+001
1.3040771e+001
1.2605018e+001
1.2036547e+001
1.1359974e+001
1.0613520e+001
9.8421717e+000
9.0972042e+000
8.4196959e+000
7.8244634e+000
7.3103943e+000
6.8556485e+000
6.4338059e+000
6.0188975e+000
5.5866446e+000
5.1170940e+000
4.5978861e+000
4.0325007e+000
3.4368486e+000
2.8453238e+000
2.2941933e+000
1.8134507e+000
1.4230268e+000
1.1240919e+000
9.0971810e-001
7.6545328e-001
6.7562401e-001
6.2580168e-001
6.0336870e-001
5.9931755e-001
6.0765862e-001
6.2706810e-001
6.5652460e-001
6.9281787e-001
7.2911197e-001
7.5192654e-001
7.4883813e-001
7.1373576e-001
6.4429855e-001
5.4366505e-001
4.1848701e-001
2.8089821e-001
1.4833400e-001
4.6793830e-002
-1.5457371e-003
1.1049375e-002
8.2931377e-002
1.9895171e-001
3.4554964e-001
5.2115494e-001
7.3200583e-001
9.9507827e-001
1.3200966e+000
1.6922804e+000
2.0840960e+000
2.4530771e+000
2.7693386e+000
3.0425622e+000
3.2932091e+000
3.5432944e+000
3.8057952e+000
4.0698948e+000
4.3227801e+000
4.5626698e+000
4.7977433e+000
5.0536613e+000
5.3527713e+000
5.6973853e+000
6.0800543e+000
6.4808030e+000
6.8829002e+000
7.2843771e+000
7.6792603e+000
8.0422707e+000
8.3431053e+000
8.5534658e+000
8.6618414e+000
8.7005186e+000
8.7087154e+000
8.7145128e+000
8.7322493e+000
8.7474785e+000
8.7440081e+000
8.7204351e+000
8.6810760e+000
8.6345873e+000
8.5840654e+000
8.5129147e+000
8.4001141e+000
8.2252026e+000
7.9756408e+000
7.6620536e+000
7.3066678e+000
6.9480481e+000
6.6257634e+000
6.3698006e+000
6.1946201e+000
6.0750442e+000
5.9705653e+000
5.8239727e+000
5.5883589e+000
5.2593298e+000
4.8514590e+000
4.4054599e+000
3.9623733e+000
3.5463252e+000
3.1722031e+000
2.8413117e+000
2.5506063e+000
2.2953320e+000
2.0711679e+000
1.8755307e+000
1.7042500e+000
1.5471264e+000
1.3907342e+000
1.2183431e+000
1.0169015e+000
7.8934222e-001
5.4820883e-001
3.2452431e-001
1.4688332e-001
2.1158703e-002
-5.8285337e-002
-1.1606541e-001
-1.7455681e-001
-2.3319802e-001
-2.8083485e-001
-2.9015756e-001
-2.3629826e-001
-1.1619024e-001
6.0318381e-002
2.5816751e-001
4.4127035e-001
5.9134829e-001
6.9777650e-001
7.6091617e-001
7.8145444e-001
7.5169516e-001
6.6511518e-001
5.2678478e-001
3.5395825e-001
1.9610193e-001
8.9564204e-002
-3.7660822e-003
-1.1735932e-001
-2.0193061e-001
-2.0486799e-001
-1.3619125e-001
-2.6387878e-002
7.6426491e-002
1.2692097e-001
1.0669420e-001
1.8569857e-002
-8.0717869e-002
-1.3272721e-001
-1.2353743e-001
-5.9637062e-002
1.7095201e-002
6.5594241e-002
8.1962183e-002
7.3084235e-002
5.1665440e-002
2.8786069e-002
3.4521613e-003
-2.3508675e-002
-3.2071408e-002
2.5927001e-003
