##TITLE=Methyl Ethyl Ketone
##JCAMP-DX=4.24
##DATA TYPE=INFRARED SPECTRUM
##XUNITS=cm-1
##YUNITS=Absorbance
##FIRSTX=900
##LASTX=2300
##XYDATA=(X++(Y..Y))
2296 0.054111
2294 0.055237386
2292 0.056362782
2290 0.05748817
2288 0.058614556
2286 0.059739951
2284 0.060865339
2282 0.061991721
2280 0.063117117
2278 0.064242512
2276 0.065368883
2274 0.066494294
2272 0.067619681
2270 0.068746053
2268 0.069871463
2266 0.070996851
2264 0.072123215
2262 0.073248625
2260 0.07437402
2258 0.075499408
2256 0.076625772
2254 0.077751189
2252 0.078876577
2250 0.080002934
2248 0.081128359
2246 0.082253754
2244 0.021860272
2242 0.00075326144
2240 0.0096211201
2238 0.052727316
2236 0.10077141
2234 0.12960956
2232 0.15691154
2230 0.18122868
2228 0.20981871
2226 0.273844
2224 0.33793396
2222 0.39431736
2220 0.43298072
2218 0.41902435
2216 0.39411256
2214 0.35177374
2212 0.31794679
2210 0.29969394
2208 0.29268852
2206 0.2984938
2204 0.31699842
2202 0.34692737
2200 0.38661042
2198 0.43301561
2196 0.47126073
2194 0.50456423
2192 0.52611375
2190 0.54266965
2188 0.56588244
2186 0.59136385
2184 0.62296724
2182 0.65593553
2180 0.67369866
2178 0.68885982
2176 0.67734832
2174 0.66265798
2172 0.63963246
2170 0.61912888
2168 0.61762798
2166 0.62283975
2164 0.64588606
2162 0.67337817
2160 0.70763999
2158 0.74030036
2156 0.768574
2154 0.77863842
2152 0.76297945
2150 0.72860247
2148 0.67617083
2146 0.63695574
2144 0.61111784
2142 0.60485548
2140 0.61129647
2138 0.60548872
2136 0.59227544
2134 0.57019109
2132 0.54455572
2130 0.5522899
2128 0.57074159
2126 0.62713605
2124 0.69221199
2122 0.74659652
2120 0.79700667
2118 0.80561435
2116 0.80598485
2114 0.78908592
2112 0.77055222
2110 0.75554776
2108 0.73840076
2106 0.71325743
2104 0.68187875
2102 0.63947958
2100 0.60081899
2098 0.57123959
2096 0.55728859
2094 0.56217623
2092 0.57225853
2090 0.58487719
2088 0.59453797
2086 0.60116851
2084 0.61090815
2082 0.6228829
2080 0.6229586
2078 0.61677063
2076 0.5954867
2074 0.56831145
2072 0.55677676
2070 0.55057305
2068 0.56436533
2066 0.58289963
2064 0.58261782
2062 0.57553697
2060 0.53217971
2058 0.4801414
2056 0.41951886
2054 0.36083743
2052 0.31646028
2050 0.28021163
2048 0.25898817
2046 0.24715786
2044 0.2485536
2042 0.25702187
2040 0.27111155
2038 0.28367674
2036 0.29167143
2034 0.29787526
2032 0.30340606
2030 0.3078725
2028 0.31244794
2026 0.31157237
2024 0.30779824
2022 0.3151696
2020 0.32893792
2018 0.34924504
2016 0.37136802
2014 0.3586587
2012 0.3331818
2010 0.284354
2008 0.23041183
2006 0.19855714
2004 0.17522788
2002 0.1752816
2000 0.18264565
1998 0.20016454
1996 0.22074786
1994 0.24550299
1992 0.26951063
1990 0.28552091
1988 0.29500502
1986 0.29118314
1984 0.28252354
1982 0.27165687
1980 0.26316124
1978 0.26010069
1976 0.26701543
1974 0.28334031
1972 0.31815147
1970 0.3666147
1968 0.41345423
1966 0.4574858
1964 0.46800649
1962 0.45971191
1960 0.44456518
1958 0.42697847
1956 0.41738543
1954 0.40981299
1952 0.39167023
1950 0.37011829
1948 0.36680135
1946 0.37395
1944 0.40275913
1942 0.43773299
1940 0.45450422
1938 0.46205041
1936 0.45636314
1934 0.44932693
1932 0.453199
1930 0.45241421
1928 0.44482571
1926 0.42052835
1924 0.3803708
1922 0.35052246
1920 0.33321384
1918 0.3382909
1916 0.35520786
1914 0.36431292
1912 0.3659316
1910 0.36280489
1908 0.35922182
1906 0.36612308
1904 0.37785921
1902 0.39751846
1900 0.41900021
1898 0.44783422
1896 0.47873428
1894 0.51189673
1892 0.54323226
1890 0.54825801
1888 0.53479642
1886 0.47625029
1884 0.40056098
1882 0.32184669
1880 0.25210878
1878 0.21016623
1876 0.185123
1874 0.18291894
1872 0.19819422
1870 0.2339505
1868 0.27503666
1866 0.30353129
1864 0.31157812
1862 0.29171851
1860 0.26776063
1858 0.25071913
1856 0.22878115
1854 0.20651685
1852 0.1689634
1850 0.12557796
1848 0.098114885
1846 0.085615426
1844 0.084093474
1842 0.091031253
1840 0.079619125
1838 0.058345802
1836 0.057764843
1834 0.069151141
1832 0.12266888
1830 0.19728909
1828 0.27104026
1826 0.33275986
1824 0.34074229
1822 0.31023461
1820 0.24651441
1818 0.16813432
1816 0.098503344
1814 0.039345235
1812 -0.0039415145
1810 -0.02239375
1808 -0.019936617
1806 0.0108482
1804 0.063575402
1802 0.092083395
1800 0.097795136
1798 0.06346377
1796 0.0025617871
1794 -0.011646478
1792 0.0044467994
1790 0.051599286
1788 0.1082994
1786 0.12053157
1784 0.10258815
1782 0.082110368
1780 0.062643453
1778 0.079791442
1776 0.12551077
1774 0.21202838
1772 0.31475365
1770 0.37570667
1768 0.38861087
1766 0.31891465
1764 0.2073922
1762 0.1034973
1760 0.025161754
1758 -0.073029876
1756 -0.15746358
1754 -0.18888335
1752 -0.16515149
1750 -0.08985205
1748 -0.027380783
1746 -0.00044392888
1744 -0.033896223
1742 -0.12785096
1740 -0.19369157
1738 -0.22105345
1736 -0.140652
1734 0.026092134
1732 0.15597762
1730 0.24493915
1728 0.18954611
1726 0.034888104
1724 -0.070514135
1722 -0.11656
1720 -0.0041093454
1718 0.23623654
1716 0.66394842
1714 1.2036566
1712 1.6808423
1710 2.1026974
1708 2.5000339
1706 3.0244229
1704 3.8354354
1702 5.1850314
1700 7.1940608
1698 10.113946
1696 13.910429
1694 17.8568
1692 21.605459
1690 24.972725
1688 28.001949
1686 31.575178
1684 35.782547
1682 40.857368
1680 46.61084
1678 51.627659
1676 55.944901
1674 60.08353
1672 64.187706
1670 69.116669
1668 74.67025
1666 80.2173
1664 85.621521
1662 90.458542
1660 94.773544
1658 98.640343
1656 102.08772
1654 105.16931
1652 107.5214
1650 108.74469
1648 108.33097
1646 105.92
1644 102.5274
1642 99.053276
1640 95.492729
1638 91.883278
1636 87.637573
1634 82.575615
1632 77.352112
1630 72.206169
1628 67.43586
1626 63.068729
1624 58.688801
1622 54.235691
1620 49.913898
1618 45.736599
1616 41.833572
1614 38.222153
1612 35.035614
1610 32.284203
1608 29.956909
1606 28.0327
1604 26.368565
1602 24.974352
1600 23.822668
1598 22.924345
1596 22.2575
1594 21.819
1592 21.567434
1590 21.481581
1588 21.515991
1586 21.639364
1584 21.82369
1582 22.05007
1580 22.308846
1578 22.657036
1576 23.113972
1574 23.732635
1572 24.511665
1570 25.413799
1568 26.423679
1566 27.497093
1564 28.636852
1562 30.013744
1560 31.729034
1558 34.377029
1556 38.025127
1554 41.977341
1552 45.986198
1550 49.048409
1548 51.203316
1546 53.06493
1544 54.67028
1542 56.178688
1540 57.410278
1538 58.052685
1536 57.982342
1534 57.161812
1532 55.834187
1530 54.366753
1528 52.787338
1526 51.12175
1524 49.298306
1522 47.257446
1520 45.084339
1518 42.777374
1516 40.585716
1514 38.608269
1512 36.684879
1510 34.822449
1508 32.44072
1506 29.379101
1504 26.225845
1502 23.012829
1500 20.293642
1498 18.125189
1496 16.000713
1494 13.918427
1492 11.80114
1490 9.6650114
1488 7.5506897
1486 5.5257092
1484 3.705266
1482 2.1738019
1480 1.0365031
1478 0.3216975
1476 0.065267503
1474 0.37963229
1472 1.1933463
1470 2.1939139
1468 3.1828015
1466 4.0063186
1464 4.5744195
1462 5.0574074
1460 5.522378
1458 6.0087209
1456 6.5250201
1454 6.9403634
1452 7.1688552
1450 7.2618408
1448 7.1566052
1446 7.0107894
1444 6.8117304
1442 6.5961127
1440 6.3561125
1438 6.0608621
1436 5.6867986
1434 5.1855197
1432 4.5671029
1430 3.9350302
1428 3.3305261
1426 2.870755
1424 2.5682869
1422 2.4193408
1420 2.4063053
1418 2.474967
1416 2.5937514
1414 2.7234042
1412 2.8620417
1410 3.0405104
1408 3.260011
1406 3.5458565
1404 3.8726773
1402 4.2348189
1400 4.6161361
1398 5.0159068
1396 5.4215569
1394 5.8236179
1392 6.1658497
1390 6.3754907
1388 6.4524937
1386 6.3154001
1384 6.0647087
1382 5.6650329
1380 5.2336135
1378 4.7720432
1376 4.3102603
1374 3.864886
1372 3.4369481
1370 3.0361319
1368 2.6782503
1366 2.3275292
1364 1.9395466
1362 1.514954
1360 1.0405365
1358 0.59261703
1356 0.2639811
1354 0.044941925
1352 -0.0011834388
1350 0.03542497
1348 0.14692388
1346 0.27800894
1344 0.44103879
1342 0.61436838
1340 0.80641037
1338 0.99334246
1336 1.1608858
1334 1.3173271
1332 1.4292586
1330 1.547904
1328 1.678404
1326 1.8354486
1324 2.0462577
1322 2.2902906
1320 2.5868223
1318 2.9050982
1316 3.2412701
1314 3.554599
1312 3.8267636
1310 4.044477
1308 4.2047396
1306 4.3247828
1304 4.4118686
1302 4.4701262
1300 4.5052867
1298 4.5018244
1296 4.4755573
1294 4.4129424
1292 4.3385067
1290 4.2510219
1288 4.1650438
1286 4.0857663
1284 4.0177226
1282 3.9747818
1280 3.9492817
1278 3.9616292
1276 3.9856715
1274 4.0359511
1272 4.0911794
1270 4.1601696
1268 4.2425337
1266 4.3448572
1264 4.467526
1262 4.610682
1260 4.7593617
1258 4.9096103
1256 5.0471373
1254 5.1728139
1252 5.2916665
1250 5.4054947
1248 5.5174108
1246 5.6227498
1244 5.7041702
1242 5.7683215
1240 5.8014708
1238 5.8164043
1236 5.8005571
1234 5.7552662
1232 5.6343398
1230 5.4671144
1228 5.175015
1226 4.8427639
1224 4.4054456
1222 3.9533889
1220 3.4679911
1218 2.9961441
1216 2.5534914
1214 2.1358399
1212 1.7632555
1210 1.4174575
1208 1.1143
1206 0.85002506
1204 0.63536918
1202 0.46034253
1200 0.32349175
1198 0.20035271
1196 0.086763754
1194 -0.029627249
1192 -0.14277452
1190 -0.2356579
1188 -0.30647135
1186 -0.32320735
1184 -0.30779022
1182 -0.23320231
1180 -0.13007313
1178 0.036357284
1176 0.228714
1174 0.49209833
1172 0.76589525
1170 1.0612354
1168 1.3356972
1166 1.5414414
1164 1.7040325
1162 1.758113
1160 1.7735308
1158 1.7107602
1156 1.62017
1154 1.4831964
1152 1.3249714
1150 1.1392796
1148 0.94800878
1146 0.75108641
1144 0.55481559
1142 0.36252785
1140 0.19119346
1138 0.046027899
1136 -0.033903114
1134 -0.066540256
1132 -0.0052316636
1130 0.10204703
1128 0.26294947
1126 0.43997028
1124 0.62611181
1122 0.80410534
1120 0.9302392
1118 1.0384891
1116 1.0767086
1114 1.1157652
1112 1.163692
1110 1.2203094
1108 1.3027027
1106 1.3724201
1104 1.4082377
1102 1.4190851
1100 1.38107
1098 1.3331534
1096 1.2724143
1094 1.2256855
1092 1.200002
1090 1.203862
1088 1.2395817
1086 1.3007793
1084 1.380664
1082 1.4542532
1080 1.5179943
1078 1.535358
1076 1.5242357
1074 1.4581563
1072 1.3692765
1070 1.2481043
1068 1.1197972
1066 0.99300158
1064 0.87151963
1062 0.78810483
1060 0.71293044
1058 0.67848772
1056 0.64835602
1054 0.63728845
1052 0.63054562
1050 0.63761318
1048 0.64189643
1046 0.63799357
1044 0.61925417
1042 0.57100713
1040 0.50603843
1038 0.4155286
1036 0.313151
1034 0.19827804
1032 0.089036956
1030 -0.01456853
1028 -0.116777
1026 -0.21969907
1024 -0.34237382
1022 -0.47566938
1020 -0.61021405
1018 -0.74336404
1016 -0.85305226
1014 -0.95220011
1012 -1.0049037
1010 -1.0451345
1008 -1.035364
1006 -1.0204645
1004 -0.99720579
1002 -0.97599357
1000 -0.97013956
998 -0.96993518
996 -0.99486005
994 -1.0252321
992 -1.0722908
990 -1.1116838
988 -1.1326154
986 -1.1351843
984 -1.104748
982 -1.0632108
980 -1.0071555
978 -0.96221137
976 -0.9299649
974 -0.91459465
972 -0.91250604
970 -0.90676492
968 -0.89755523
966 -0.87321401
964 -0.84104407
962 -0.79111111
960 -0.73406184
958 -0.63937807
956 -0.535321
954 -0.39442462
952 -0.25079679
950 -0.14576627
948 -0.047019117
946 -0.015496072
944 0.0001683156
942 0.0058404971
940 0.036209077
938 0.13005468
936 0.22119227
934 0.30458063
932 0.37954932
930 0.43679273
928 0.50175095
926 0.57936072
924 0.66821879
922 0.77069753
920 0.85631758
918 0.92504692
916 0.92863101
914 0.88602251
912 0.84038979
910 0.79523957
908 0.86649793
906 0.98401874
904 1.115279
902 1.2508386
900 1.2597685
898 1.2487941
896 1.2446001
