Image.
>Pix99999.
  .
5555
5555
2300
900
5555
2
1
0
701
5555
6.6992000e-002
6.8385012e-002
6.9779016e-002
7.1173020e-002
7.2566025e-002
7.3960029e-002
7.5354032e-002
7.6747052e-002
7.8141049e-002
7.9534069e-002
8.0928057e-002
8.2324028e-002
8.3715118e-002
8.5100241e-002
8.6502895e-002
8.7930359e-002
8.9290895e-002
9.0559207e-002
9.2073843e-002
9.3934186e-002
9.4878711e-002
9.4537370e-002
9.7596370e-002
1.0544668e-001
1.0066897e-001
6.9226898e-002
3.1903122e-002
1.5729882e-002
3.3664040e-002
8.7689437e-002
1.5188847e-001
1.9986528e-001
2.3521686e-001
2.6668206e-001
2.8872037e-001
2.9455799e-001
2.8955492e-001
2.8194860e-001
2.7688709e-001
2.7664834e-001
2.7565998e-001
2.6964077e-001
2.6910079e-001
2.8538361e-001
3.1509846e-001
3.4924600e-001
3.7451816e-001
3.8280991e-001
3.9220378e-001
4.2763269e-001
5.0863999e-001
6.4521176e-001
8.1559080e-001
9.8738015e-001
1.1251702e+000
1.1999156e+000
1.2114720e+000
1.1722258e+000
1.1086271e+000
1.0486234e+000
1.0084000e+000
9.9730420e-001
1.0128199e+000
1.0477970e+000
1.0925308e+000
1.1366143e+000
1.1706791e+000
1.1898962e+000
1.2051429e+000
1.2312992e+000
1.2754900e+000
1.3377883e+000
1.4001023e+000
1.4456427e+000
1.4887437e+000
1.5523179e+000
1.6480080e+000
1.7747670e+000
1.8969727e+000
1.9733984e+000
1.9884857e+000
1.9426212e+000
1.8623400e+000
1.7828671e+000
1.7364520e+000
1.7478293e+000
1.8151840e+000
1.9222925e+000
2.0309725e+000
2.1008995e+000
2.1128471e+000
2.0622439e+000
1.9731281e+000
1.8771207e+000
1.7946100e+000
1.7385979e+000
1.7114817e+000
1.7135547e+000
1.7518100e+000
1.8309644e+000
1.9347999e+000
2.0389230e+000
2.1194236e+000
2.1580620e+000
2.1582022e+000
2.1324949e+000
2.0978060e+000
2.0696964e+000
2.0541828e+000
2.0525219e+000
2.0612814e+000
2.0767837e+000
2.1007359e+000
2.1352401e+000
2.1745019e+000
2.2085786e+000
2.2235944e+000
2.2070105e+000
2.1581533e+000
2.0838449e+000
2.0032201e+000
1.9381826e+000
1.9023982e+000
1.9013863e+000
1.9210612e+000
1.9400500e+000
1.9390360e+000
1.9047842e+000
1.8430600e+000
1.7695583e+000
1.7068429e+000
1.6752161e+000
1.6741514e+000
1.6932250e+000
1.7181994e+000
1.7360142e+000
1.7429674e+000
1.7389939e+000
1.7219837e+000
1.6905308e+000
1.6518600e+000
1.6161097e+000
1.5880555e+000
1.5692524e+000
1.5590485e+000
1.5564278e+000
1.5632436e+000
1.5797939e+000
1.5951343e+000
1.5938708e+000
1.5636286e+000
1.4989177e+000
1.4143302e+000
1.3333890e+000
1.2776461e+000
1.2603378e+000
1.2653389e+000
1.2656710e+000
1.2481657e+000
1.2110491e+000
1.1692001e+000
1.1418900e+000
1.1337563e+000
1.1401879e+000
1.1512823e+000
1.1560636e+000
1.1470118e+000
1.1196343e+000
1.0724800e+000
1.0071654e+000
9.3214083e-001
8.5979164e-001
8.0532157e-001
7.8080034e-001
7.7956039e-001
7.8580248e-001
7.8620756e-001
7.7342212e-001
7.5716197e-001
7.5214684e-001
7.5701028e-001
7.6103169e-001
7.5260437e-001
7.2558802e-001
6.9652259e-001
6.9297838e-001
7.3812813e-001
8.4222066e-001
9.7394472e-001
1.0832810e+000
1.1358458e+000
1.1158780e+000
1.0434046e+000
9.5344257e-001
8.6566913e-001
7.8904521e-001
7.3005480e-001
6.9427049e-001
6.8527943e-001
7.0327663e-001
7.3813140e-001
7.7582800e-001
8.1050956e-001
8.4065378e-001
8.6115199e-001
8.6342043e-001
8.3478832e-001
7.6441354e-001
6.5900606e-001
5.3739679e-001
4.2611101e-001
3.5192782e-001
3.2741937e-001
3.5144544e-001
4.0089220e-001
4.4311413e-001
4.5742622e-001
4.3635261e-001
3.9387205e-001
3.5331160e-001
3.2572800e-001
3.1234512e-001
3.0912760e-001
3.0885461e-001
3.0053440e-001
2.7305964e-001
2.2420022e-001
1.5987600e-001
9.6880220e-002
5.4565124e-002
3.6144730e-002
3.5550099e-002
5.3631589e-002
9.5475331e-002
1.6017477e-001
2.3707728e-001
2.9172605e-001
2.8416577e-001
2.1624020e-001
1.2160768e-001
4.7687057e-002
3.6563341e-002
8.0658220e-002
1.4095023e-001
1.8666445e-001
2.0137699e-001
1.9133994e-001
1.7468154e-001
1.5997016e-001
1.4834212e-001
1.4402786e-001
1.5394720e-001
1.8331160e-001
2.3381956e-001
2.9828218e-001
3.6250964e-001
4.0738806e-001
4.1640654e-001
3.9710721e-001
3.7117839e-001
3.4717685e-001
3.2012963e-001
2.7516365e-001
1.9908625e-001
1.1173763e-001
5.2085813e-002
3.6018837e-002
4.8341997e-002
2.1356154e-002
-1.2177597e-001
-3.3799684e-001
-5.0469410e-001
-5.5485690e-001
-4.8693758e-001
-3.5683590e-001
-2.4968785e-001
-2.2425456e-001
-3.0058485e-001
-4.3215463e-001
-5.3363609e-001
-5.5393600e-001
-4.8640150e-001
-3.8117188e-001
-3.1542668e-001
-3.1395641e-001
-3.4893516e-001
-3.5878044e-001
-2.6664281e-001
-1.4236167e-002
4.2975613e-001
1.0506010e+000
1.7909756e+000
2.5492451e+000
3.2225046e+000
3.8414922e+000
4.5582185e+000
5.5799890e+000
7.1297092e+000
9.3776369e+000
1.2370302e+001
1.5794714e+001
1.9106049e+001
2.1993614e+001
2.4449055e+001
2.6768429e+001
2.9426558e+001
3.2754997e+001
3.6829971e+001
4.1236759e+001
4.5285019e+001
4.8783897e+001
5.2036736e+001
5.5419975e+001
5.9223202e+001
6.3401592e+001
6.7652649e+001
7.1774162e+001
7.5700844e+001
7.9394936e+001
8.2832664e+001
8.6050484e+001
8.9127693e+001
9.2102821e+001
9.4916374e+001
9.7245285e+001
9.8616714e+001
9.8913773e+001
9.8364952e+001
9.7166016e+001
9.5401337e+001
9.3046585e+001
9.0033867e+001
8.6476738e+001
8.2642044e+001
7.8681679e+001
7.4604202e+001
7.0390205e+001
6.6037361e+001
6.1621193e+001
5.7281837e+001
5.3130688e+001
4.9239223e+001
4.5676769e+001
4.2507832e+001
3.9734257e+001
3.7298656e+001
3.5150471e+001
3.3259407e+001
3.1612131e+001
3.0205658e+001
2.9022999e+001
2.8031792e+001
2.7201164e+001
2.6508692e+001
2.5952272e+001
2.5546822e+001
2.5303864e+001
2.5230841e+001
2.5343065e+001
2.5663906e+001
2.6208542e+001
2.6971783e+001
2.7902925e+001
2.8912426e+001
2.9927879e+001
3.0908514e+001
3.1849789e+001
3.2805958e+001
3.3980465e+001
3.5669739e+001
3.7897057e+001
4.0363182e+001
4.2704144e+001
4.4612568e+001
4.6061993e+001
4.7299931e+001
4.8487080e+001
4.9606422e+001
5.0542942e+001
5.1129044e+001
5.1270000e+001
5.0982864e+001
5.0379097e+001
4.9633038e+001
4.8823029e+001
4.7898151e+001
4.6766380e+001
4.5331604e+001
4.3577904e+001
4.1596439e+001
3.9557072e+001
3.7654255e+001
3.5882961e+001
3.4005455e+001
3.1796999e+001
2.9152250e+001
2.6217525e+001
2.3373405e+001
2.0848888e+001
1.8619440e+001
1.6567715e+001
1.4542513e+001
1.2460912e+001
1.0333483e+001
8.1992588e+000
6.1146135e+000
4.1758699e+000
2.5161786e+000
1.2353160e+000
3.8993049e-001
7.4137539e-002
4.0200245e-001
1.2853174e+000
2.3939819e+000
3.4661272e+000
4.4090590e+000
5.2410073e+000
6.0550723e+000
6.8448396e+000
7.4585371e+000
7.7445402e+000
7.6222405e+000
7.1805797e+000
6.6853056e+000
6.2919893e+000
5.9622178e+000
5.6404462e+000
5.3048167e+000
4.9432211e+000
4.5443964e+000
4.0854545e+000
3.5365019e+000
2.9170747e+000
2.3140349e+000
1.8131640e+000
1.4716264e+000
1.3010074e+000
1.2601149e+000
1.3068980e+000
1.4161966e+000
1.5780600e+000
1.7963090e+000
2.0664601e+000
2.3686929e+000
2.6859818e+000
3.0115507e+000
3.3461139e+000
3.6957927e+000
4.0561919e+000
4.4056606e+000
4.7197499e+000
4.9765825e+000
5.1617308e+000
5.2702894e+000
5.2961488e+000
5.2305751e+000
5.0772538e+000
4.8590574e+000
4.6036487e+000
4.3371677e+000
4.0729485e+000
3.8067753e+000
3.5358839e+000
3.2635345e+000
2.9814560e+000
2.6620464e+000
2.2762458e+000
1.8068842e+000
1.2815928e+000
7.8979409e-001
4.0864870e-001
1.6863440e-001
5.6141499e-002
8.4175356e-003
-2.3892108e-002
-4.9952395e-002
-6.2108122e-002
-4.3337539e-002
6.6768602e-003
6.0015243e-002
9.5183253e-002
1.1326952e-001
1.3113812e-001
1.8072170e-001
2.8243056e-001
4.3192834e-001
6.1845028e-001
8.3013695e-001
1.0568477e+000
1.2913783e+000
1.5249000e+000
1.7446190e+000
1.9375389e+000
2.0926278e+000
2.2037899e+000
2.2730758e+000
2.3092034e+000
2.3284111e+000
2.3465970e+000
2.3749421e+000
2.4165857e+000
2.4628654e+000
2.5045698e+000
2.5375581e+000
2.5659802e+000
2.6060064e+000
2.6708126e+000
2.7629766e+000
2.8762965e+000
2.9947329e+000
3.1072857e+000
3.2169402e+000
3.3351452e+000
3.4825926e+000
3.6775882e+000
3.9294343e+000
4.2381597e+000
4.5919781e+000
4.9815378e+000
5.4078965e+000
5.8804798e+000
6.4179502e+000
7.0266452e+000
7.6847405e+000
8.3591232e+000
9.0093002e+000
9.6088705e+000
1.0161008e+001
1.0675629e+001
1.1163569e+001
1.1619271e+001
1.2014430e+001
1.2313200e+001
1.2481645e+001
1.2502317e+001
1.2393507e+001
1.2181103e+001
1.1888897e+001
1.1528957e+001
1.1096840e+001
1.0589314e+001
1.0014671e+001
9.3925171e+000
8.7545633e+000
8.1292915e+000
7.5288930e+000
6.9530740e+000
6.3837934e+000
5.8063149e+000
5.2219186e+000
4.6387858e+000
4.0714331e+000
3.5280275e+000
3.0013680e+000
2.4866016e+000
1.9928193e+000
1.5401874e+000
1.1646874e+000
8.9772636e-001
7.5087535e-001
7.1692395e-001
7.5768650e-001
8.2609570e-001
8.7337995e-001
8.6416548e-001
7.9498774e-001
6.7971516e-001
5.5338252e-001
4.4964007e-001
3.8631892e-001
3.6611915e-001
3.6608061e-001
3.5893932e-001
3.2285085e-001
2.4843881e-001
1.5235911e-001
5.9324484e-002
-2.5226939e-003
-1.2778684e-002
2.9249437e-002
1.2198123e-001
2.6958311e-001
4.7793603e-001
7.5340140e-001
1.0997314e+000
1.5133957e+000
1.9811094e+000
2.4711607e+000
2.9494760e+000
3.3885868e+000
3.7737699e+000
4.1164236e+000
4.4280167e+000
4.7041373e+000
4.9410181e+000
5.1472850e+000
5.3466430e+000
5.5918183e+000
5.9250679e+000
6.3428645e+000
6.8190427e+000
7.2995043e+000
7.7393818e+000
8.1350231e+000
8.4967566e+000
8.8436384e+000
9.1885347e+000
9.5227299e+000
9.8341990e+000
1.0117539e+001
1.0371058e+001
1.0592411e+001
1.0778229e+001
1.0915812e+001
1.0997405e+001
1.1038671e+001
1.1061359e+001
1.1092641e+001
1.1149732e+001
1.1213786e+001
1.1257886e+001
1.1247746e+001
1.1155389e+001
1.0968860e+001
1.0686131e+001
1.0321421e+001
9.8918829e+000
9.4198666e+000
8.9268770e+000
8.4308767e+000
7.9495602e+000
7.5027642e+000
7.1063676e+000
6.7619696e+000
6.4605646e+000
6.1717086e+000
5.8660555e+000
5.5331717e+000
5.1738648e+000
4.8095388e+000
4.4612513e+000
4.1352592e+000
3.8315964e+000
3.5431325e+000
3.2653561e+000
3.0061064e+000
2.7748017e+000
2.5751998e+000
2.4045773e+000
2.2434759e+000
2.0697286e+000
1.8657780e+000
1.6184074e+000
1.3261032e+000
9.9673212e-001
6.5856194e-001
3.5078591e-001
1.3117090e-001
5.2011944e-002
1.3195725e-001
3.6510256e-001
6.9175959e-001
1.0397006e+000
1.3397410e+000
1.5393795e+000
1.6397049e+000
1.6594129e+000
1.6320785e+000
1.5863246e+000
1.5223674e+000
1.4320015e+000
1.3017180e+000
1.1190801e+000
8.7964267e-001
5.9681273e-001
3.3862108e-001
1.5625256e-001
-6.4045191e-003
-2.0007743e-001
-3.6077589e-001
-4.1621798e-001
-3.6750618e-001
-2.4081381e-001
-8.7045014e-002
3.9414242e-002
9.4656363e-002
5.8005620e-002
-1.4257155e-002
-5.6374487e-002
-3.9397944e-002
4.3220289e-002
1.4768089e-001
2.1987107e-001
2.1452740e-001
1.0273469e-001
-8.9121997e-002
-3.0528146e-001
-4.2879939e-001
-3.6299711e-001
-1.5220496e-001
1.2394000e-001
