##TITLE=Methyl Ethyl Ketone
##JCAMP-DX=4.24
##DATA TYPE=INFRARED SPECTRUM
##XUNITS=cm-1
##YUNITS=Absorbance
##FIRSTX=900
##LASTX=2300
##XYDATA=(X++(Y..Y))
2296 0.066992
2294 0.068385012
2292 0.069779016
2290 0.07117302
2288 0.072566025
2286 0.073960029
2284 0.075354032
2282 0.076747052
2280 0.078141049
2278 0.079534069
2276 0.080928057
2274 0.082324028
2272 0.083715118
2270 0.085100241
2268 0.086502895
2266 0.087930359
2264 0.089290895
2262 0.090559207
2260 0.092073843
2258 0.093934186
2256 0.094878711
2254 0.09453737
2252 0.09759637
2250 0.10544668
2248 0.10066897
2246 0.069226898
2244 0.031903122
2242 0.015729882
2240 0.03366404
2238 0.087689437
2236 0.15188847
2234 0.19986528
2232 0.23521686
2230 0.26668206
2228 0.28872037
2226 0.29455799
2224 0.28955492
2222 0.2819486
2220 0.27688709
2218 0.27664834
2216 0.27565998
2214 0.26964077
2212 0.26910079
2210 0.28538361
2208 0.31509846
2206 0.349246
2204 0.37451816
2202 0.38280991
2200 0.39220378
2198 0.42763269
2196 0.50863999
2194 0.64521176
2192 0.8155908
2190 0.98738015
2188 1.1251702
2186 1.1999156
2184 1.211472
2182 1.1722258
2180 1.1086271
2178 1.0486234
2176 1.0084
2174 0.9973042
2172 1.0128199
2170 1.047797
2168 1.0925308
2166 1.1366143
2164 1.1706791
2162 1.1898962
2160 1.2051429
2158 1.2312992
2156 1.27549
2154 1.3377883
2152 1.4001023
2150 1.4456427
2148 1.4887437
2146 1.5523179
2144 1.648008
2142 1.774767
2140 1.8969727
2138 1.9733984
2136 1.9884857
2134 1.9426212
2132 1.86234
2130 1.7828671
2128 1.736452
2126 1.7478293
2124 1.815184
2122 1.9222925
2120 2.0309725
2118 2.1008995
2116 2.1128471
2114 2.0622439
2112 1.9731281
2110 1.8771207
2108 1.79461
2106 1.7385979
2104 1.7114817
2102 1.7135547
2100 1.75181
2098 1.8309644
2096 1.9347999
2094 2.038923
2092 2.1194236
2090 2.158062
2088 2.1582022
2086 2.1324949
2084 2.097806
2082 2.0696964
2080 2.0541828
2078 2.0525219
2076 2.0612814
2074 2.0767837
2072 2.1007359
2070 2.1352401
2068 2.1745019
2066 2.2085786
2064 2.2235944
2062 2.2070105
2060 2.1581533
2058 2.0838449
2056 2.0032201
2054 1.9381826
2052 1.9023982
2050 1.9013863
2048 1.9210612
2046 1.94005
2044 1.939036
2042 1.9047842
2040 1.84306
2038 1.7695583
2036 1.7068429
2034 1.6752161
2032 1.6741514
2030 1.693225
2028 1.7181994
2026 1.7360142
2024 1.7429674
2022 1.7389939
2020 1.7219837
2018 1.6905308
2016 1.65186
2014 1.6161097
2012 1.5880555
2010 1.5692524
2008 1.5590485
2006 1.5564278
2004 1.5632436
2002 1.5797939
2000 1.5951343
1998 1.5938708
1996 1.5636286
1994 1.4989177
1992 1.4143302
1990 1.333389
1988 1.2776461
1986 1.2603378
1984 1.2653389
1982 1.265671
1980 1.2481657
1978 1.2110491
1976 1.1692001
1974 1.14189
1972 1.1337563
1970 1.1401879
1968 1.1512823
1966 1.1560636
1964 1.1470118
1962 1.1196343
1960 1.07248
1958 1.0071654
1956 0.93214083
1954 0.85979164
1952 0.80532157
1950 0.78080034
1948 0.77956039
1946 0.78580248
1944 0.78620756
1942 0.77342212
1940 0.75716197
1938 0.75214684
1936 0.75701028
1934 0.76103169
1932 0.75260437
1930 0.72558802
1928 0.69652259
1926 0.69297838
1924 0.73812813
1922 0.84222066
1920 0.97394472
1918 1.083281
1916 1.1358458
1914 1.115878
1912 1.0434046
1910 0.95344257
1908 0.86566913
1906 0.78904521
1904 0.7300548
1902 0.69427049
1900 0.68527943
1898 0.70327663
1896 0.7381314
1894 0.775828
1892 0.81050956
1890 0.84065378
1888 0.86115199
1886 0.86342043
1884 0.83478832
1882 0.76441354
1880 0.65900606
1878 0.53739679
1876 0.42611101
1874 0.35192782
1872 0.32741937
1870 0.35144544
1868 0.4008922
1866 0.44311413
1864 0.45742622
1862 0.43635261
1860 0.39387205
1858 0.3533116
1856 0.325728
1854 0.31234512
1852 0.3091276
1850 0.30885461
1848 0.3005344
1846 0.27305964
1844 0.22420022
1842 0.159876
1840 0.09688022
1838 0.054565124
1836 0.03614473
1834 0.035550099
1832 0.053631589
1830 0.095475331
1828 0.16017477
1826 0.23707728
1824 0.29172605
1822 0.28416577
1820 0.2162402
1818 0.12160768
1816 0.047687057
1814 0.036563341
1812 0.08065822
1810 0.14095023
1808 0.18666445
1806 0.20137699
1804 0.19133994
1802 0.17468154
1800 0.15997016
1798 0.14834212
1796 0.14402786
1794 0.1539472
1792 0.1833116
1790 0.23381956
1788 0.29828218
1786 0.36250964
1784 0.40738806
1782 0.41640654
1780 0.39710721
1778 0.37117839
1776 0.34717685
1774 0.32012963
1772 0.27516365
1770 0.19908625
1768 0.11173763
1766 0.052085813
1764 0.036018837
1762 0.048341997
1760 0.021356154
1758 -0.12177597
1756 -0.33799684
1754 -0.5046941
1752 -0.5548569
1750 -0.48693758
1748 -0.3568359
1746 -0.24968785
1744 -0.22425456
1742 -0.30058485
1740 -0.43215463
1738 -0.53363609
1736 -0.553936
1734 -0.4864015
1732 -0.38117188
1730 -0.31542668
1728 -0.31395641
1726 -0.34893516
1724 -0.35878044
1722 -0.26664281
1720 -0.014236167
1718 0.42975613
1716 1.050601
1714 1.7909756
1712 2.5492451
1710 3.2225046
1708 3.8414922
1706 4.5582185
1704 5.579989
1702 7.1297092
1700 9.3776369
1698 12.370302
1696 15.794714
1694 19.106049
1692 21.993614
1690 24.449055
1688 26.768429
1686 29.426558
1684 32.754997
1682 36.829971
1680 41.236759
1678 45.285019
1676 48.783897
1674 52.036736
1672 55.419975
1670 59.223202
1668 63.401592
1666 67.652649
1664 71.774162
1662 75.700844
1660 79.394936
1658 82.832664
1656 86.050484
1654 89.127693
1652 92.102821
1650 94.916374
1648 97.245285
1646 98.616714
1644 98.913773
1642 98.364952
1640 97.166016
1638 95.401337
1636 93.046585
1634 90.033867
1632 86.476738
1630 82.642044
1628 78.681679
1626 74.604202
1624 70.390205
1622 66.037361
1620 61.621193
1618 57.281837
1616 53.130688
1614 49.239223
1612 45.676769
1610 42.507832
1608 39.734257
1606 37.298656
1604 35.150471
1602 33.259407
1600 31.612131
1598 30.205658
1596 29.022999
1594 28.031792
1592 27.201164
1590 26.508692
1588 25.952272
1586 25.546822
1584 25.303864
1582 25.230841
1580 25.343065
1578 25.663906
1576 26.208542
1574 26.971783
1572 27.902925
1570 28.912426
1568 29.927879
1566 30.908514
1564 31.849789
1562 32.805958
1560 33.980465
1558 35.669739
1556 37.897057
1554 40.363182
1552 42.704144
1550 44.612568
1548 46.061993
1546 47.299931
1544 48.48708
1542 49.606422
1540 50.542942
1538 51.129044
1536 51.27
1534 50.982864
1532 50.379097
1530 49.633038
1528 48.823029
1526 47.898151
1524 46.76638
1522 45.331604
1520 43.577904
1518 41.596439
1516 39.557072
1514 37.654255
1512 35.882961
1510 34.005455
1508 31.796999
1506 29.15225
1504 26.217525
1502 23.373405
1500 20.848888
1498 18.61944
1496 16.567715
1494 14.542513
1492 12.460912
1490 10.333483
1488 8.1992588
1486 6.1146135
1484 4.1758699
1482 2.5161786
1480 1.235316
1478 0.38993049
1476 0.074137539
1474 0.40200245
1472 1.2853174
1470 2.3939819
1468 3.4661272
1466 4.409059
1464 5.2410073
1462 6.0550723
1460 6.8448396
1458 7.4585371
1456 7.7445402
1454 7.6222405
1452 7.1805797
1450 6.6853056
1448 6.2919893
1446 5.9622178
1444 5.6404462
1442 5.3048167
1440 4.9432211
1438 4.5443964
1436 4.0854545
1434 3.5365019
1432 2.9170747
1430 2.3140349
1428 1.813164
1426 1.4716264
1424 1.3010074
1422 1.2601149
1420 1.306898
1418 1.4161966
1416 1.57806
1414 1.796309
1412 2.0664601
1410 2.3686929
1408 2.6859818
1406 3.0115507
1404 3.3461139
1402 3.6957927
1400 4.0561919
1398 4.4056606
1396 4.7197499
1394 4.9765825
1392 5.1617308
1390 5.2702894
1388 5.2961488
1386 5.2305751
1384 5.0772538
1382 4.8590574
1380 4.6036487
1378 4.3371677
1376 4.0729485
1374 3.8067753
1372 3.5358839
1370 3.2635345
1368 2.981456
1366 2.6620464
1364 2.2762458
1362 1.8068842
1360 1.2815928
1358 0.78979409
1356 0.4086487
1354 0.1686344
1352 0.056141499
1350 0.0084175356
1348 -0.023892108
1346 -0.049952395
1344 -0.062108122
1342 -0.043337539
1340 0.0066768602
1338 0.060015243
1336 0.095183253
1334 0.11326952
1332 0.13113812
1330 0.1807217
1328 0.28243056
1326 0.43192834
1324 0.61845028
1322 0.83013695
1320 1.0568477
1318 1.2913783
1316 1.5249
1314 1.744619
1312 1.9375389
1310 2.0926278
1308 2.2037899
1306 2.2730758
1304 2.3092034
1302 2.3284111
1300 2.346597
1298 2.3749421
1296 2.4165857
1294 2.4628654
1292 2.5045698
1290 2.5375581
1288 2.5659802
1286 2.6060064
1284 2.6708126
1282 2.7629766
1280 2.8762965
1278 2.9947329
1276 3.1072857
1274 3.2169402
1272 3.3351452
1270 3.4825926
1268 3.6775882
1266 3.9294343
1264 4.2381597
1262 4.5919781
1260 4.9815378
1258 5.4078965
1256 5.8804798
1254 6.4179502
1252 7.0266452
1250 7.6847405
1248 8.3591232
1246 9.0093002
1244 9.6088705
1242 10.161008
1240 10.675629
1238 11.163569
1236 11.619271
1234 12.01443
1232 12.3132
1230 12.481645
1228 12.502317
1226 12.393507
1224 12.181103
1222 11.888897
1220 11.528957
1218 11.09684
1216 10.589314
1214 10.014671
1212 9.3925171
1210 8.7545633
1208 8.1292915
1206 7.528893
1204 6.953074
1202 6.3837934
1200 5.8063149
1198 5.2219186
1196 4.6387858
1194 4.0714331
1192 3.5280275
1190 3.001368
1188 2.4866016
1186 1.9928193
1184 1.5401874
1182 1.1646874
1180 0.89772636
1178 0.75087535
1176 0.71692395
1174 0.7576865
1172 0.8260957
1170 0.87337995
1168 0.86416548
1166 0.79498774
1164 0.67971516
1162 0.55338252
1160 0.44964007
1158 0.38631892
1156 0.36611915
1154 0.36608061
1152 0.35893932
1150 0.32285085
1148 0.24843881
1146 0.15235911
1144 0.059324484
1142 -0.0025226939
1140 -0.012778684
1138 0.029249437
1136 0.12198123
1134 0.26958311
1132 0.47793603
1130 0.7534014
1128 1.0997314
1126 1.5133957
1124 1.9811094
1122 2.4711607
1120 2.949476
1118 3.3885868
1116 3.7737699
1114 4.1164236
1112 4.4280167
1110 4.7041373
1108 4.9410181
1106 5.147285
1104 5.346643
1102 5.5918183
1100 5.9250679
1098 6.3428645
1096 6.8190427
1094 7.2995043
1092 7.7393818
1090 8.1350231
1088 8.4967566
1086 8.8436384
1084 9.1885347
1082 9.5227299
1080 9.834199
1078 10.117539
1076 10.371058
1074 10.592411
1072 10.778229
1070 10.915812
1068 10.997405
1066 11.038671
1064 11.061359
1062 11.092641
1060 11.149732
1058 11.213786
1056 11.257886
1054 11.247746
1052 11.155389
1050 10.96886
1048 10.686131
1046 10.321421
1044 9.8918829
1042 9.4198666
1040 8.926877
1038 8.4308767
1036 7.9495602
1034 7.5027642
1032 7.1063676
1030 6.7619696
1028 6.4605646
1026 6.1717086
1024 5.8660555
1022 5.5331717
1020 5.1738648
1018 4.8095388
1016 4.4612513
1014 4.1352592
1012 3.8315964
1010 3.5431325
1008 3.2653561
1006 3.0061064
1004 2.7748017
1002 2.5751998
1000 2.4045773
998 2.2434759
996 2.0697286
994 1.865778
992 1.6184074
990 1.3261032
988 0.99673212
986 0.65856194
984 0.35078591
982 0.1311709
980 0.052011944
978 0.13195725
976 0.36510256
974 0.69175959
972 1.0397006
970 1.339741
968 1.5393795
966 1.6397049
964 1.6594129
962 1.6320785
960 1.5863246
958 1.5223674
956 1.4320015
954 1.301718
952 1.1190801
950 0.87964267
948 0.59681273
946 0.33862108
944 0.15625256
942 -0.0064045191
940 -0.20007743
938 -0.36077589
936 -0.41621798
934 -0.36750618
932 -0.24081381
930 -0.087045014
928 0.039414242
926 0.094656363
924 0.05800562
922 -0.014257155
920 -0.056374487
918 -0.039397944
916 0.043220289
914 0.14768089
912 0.21987107
910 0.2145274
908 0.10273469
906 -0.089121997
904 -0.30528146
902 -0.42879939
900 -0.36299711
898 -0.15220496
896 0.12394
