Image.
>Pix99999.
  .
5555
5555
2300
900
5555
2
1
0
701
5555
3.8334001e-002
3.9131861e-002
3.9929718e-002
4.0726580e-002
4.1524433e-002
4.2322293e-002
4.3119159e-002
4.3917008e-002
4.4713881e-002
4.5511726e-002
4.6309587e-002
4.7106460e-002
4.7904301e-002
4.8702162e-002
4.9499042e-002
5.0296880e-002
5.1094737e-002
5.1891621e-002
5.2689455e-002
5.3486340e-002
5.4284170e-002
5.5082031e-002
5.5878922e-002
5.6676749e-002
5.7474606e-002
5.8271501e-002
2.1654286e-003
4.7918562e-002
1.1212485e-001
2.1426764e-001
3.2199886e-001
3.8542554e-001
4.4458646e-001
4.7995394e-001
5.1567870e-001
5.6364697e-001
6.1325246e-001
6.6784602e-001
7.1829104e-001
7.5546753e-001
7.8464484e-001
7.9795432e-001
8.1139821e-001
8.2657015e-001
8.5044187e-001
8.8501072e-001
9.2851007e-001
9.7992790e-001
1.0232666e+000
1.0600520e+000
1.0557286e+000
1.0278493e+000
9.9223542e-001
9.5386332e-001
9.5622796e-001
9.7188276e-001
9.8769760e-001
1.0033265e+000
1.0167062e+000
1.0303453e+000
1.0870886e+000
1.1488972e+000
1.2219280e+000
1.2928370e+000
1.3456280e+000
1.3973807e+000
1.4517425e+000
1.5097103e+000
1.5763332e+000
1.6331096e+000
1.6694700e+000
1.6752363e+000
1.6396142e+000
1.5848922e+000
1.5134488e+000
1.4620392e+000
1.4299680e+000
1.4232290e+000
1.4327520e+000
1.4548478e+000
1.4829199e+000
1.5349241e+000
1.5966551e+000
1.6761889e+000
1.7611400e+000
1.8215665e+000
1.8762165e+000
1.8723915e+000
1.8574359e+000
1.8054852e+000
1.7493129e+000
1.7007750e+000
1.6614206e+000
1.6574407e+000
1.6703260e+000
1.7185394e+000
1.7755007e+000
1.8405128e+000
1.8966559e+000
1.9358954e+000
1.9659572e+000
1.9875566e+000
2.0184352e+000
2.0601287e+000
2.1029410e+000
2.1450000e+000
2.1547792e+000
2.1432011e+000
2.0888193e+000
2.0137835e+000
1.9364628e+000
1.8593417e+000
1.8624719e+000
1.8916473e+000
1.9844325e+000
2.0914230e+000
2.1322098e+000
2.1548729e+000
2.1181755e+000
2.0758040e+000
2.0659001e+000
2.0767145e+000
2.1408634e+000
2.2195132e+000
2.3104370e+000
2.3797357e+000
2.4034181e+000
2.3939850e+000
2.3457851e+000
2.3004427e+000
2.2651401e+000
2.2462194e+000
2.2419207e+000
2.2407091e+000
2.2412276e+000
2.2581079e+000
2.2861910e+000
2.3340642e+000
2.3919897e+000
2.4094703e+000
2.4083400e+000
2.3518798e+000
2.2759418e+000
2.2043409e+000
2.1343999e+000
2.0775030e+000
2.0256414e+000
1.9901730e+000
1.9656206e+000
1.9766216e+000
1.9985000e+000
2.0302010e+000
2.0517697e+000
2.0384305e+000
2.0103559e+000
1.9628471e+000
1.9216685e+000
1.8960568e+000
1.8688006e+000
1.8389597e+000
1.8148201e+000
1.7983810e+000
1.8334286e+000
1.9082125e+000
1.9778606e+000
2.0393865e+000
2.0196528e+000
1.9556477e+000
1.8828881e+000
1.8080038e+000
1.7558043e+000
1.7102883e+000
1.6452440e+000
1.5723650e+000
1.5139986e+000
1.4680750e+000
1.4586972e+000
1.4676427e+000
1.4762419e+000
1.4763393e+000
1.4486600e+000
1.4023769e+000
1.3444340e+000
1.2827348e+000
1.2293479e+000
1.1900556e+000
1.1717416e+000
1.1804456e+000
1.2076205e+000
1.2387760e+000
1.2606057e+000
1.2669089e+000
1.2636263e+000
1.2525671e+000
1.2402980e+000
1.2082871e+000
1.1640080e+000
1.1306926e+000
1.1005403e+000
1.1519200e+000
1.2365143e+000
1.3551823e+000
1.4725243e+000
1.4784300e+000
1.4175332e+000
1.2389950e+000
1.0320337e+000
8.6916715e-001
7.5635260e-001
7.2983962e-001
7.3710698e-001
7.6636350e-001
8.0540413e-001
8.5698396e-001
9.1169727e-001
9.4765007e-001
9.4044936e-001
8.7738651e-001
7.8216094e-001
6.7750227e-001
5.6289947e-001
4.4963744e-001
3.1875783e-001
1.8280910e-001
6.0389161e-002
-4.5519289e-002
-7.3941335e-002
-5.4968402e-002
2.0072337e-002
1.1588542e-001
2.1412772e-001
3.0665299e-001
4.0999418e-001
5.1615626e-001
6.0079515e-001
6.6192752e-001
6.4948946e-001
5.8774549e-001
4.8808801e-001
3.6981899e-001
2.6341113e-001
1.5845974e-001
5.7837002e-002
-1.1430457e-002
-4.8788138e-002
-1.7951619e-002
7.2571546e-002
1.2976965e-001
1.4940360e-001
1.0580350e-001
2.0522786e-002
5.4928049e-002
1.6978359e-001
3.6113736e-001
5.8236188e-001
7.2130626e-001
8.0214894e-001
8.3911252e-001
8.4226966e-001
8.1595439e-001
7.8042912e-001
7.7594215e-001
8.0220079e-001
8.3207303e-001
8.2340252e-001
6.9299996e-001
4.8297060e-001
2.5015956e-001
6.0717314e-002
-1.2894288e-001
-2.5960100e-001
-2.7161503e-001
-1.9105235e-001
-3.7317585e-002
6.4074054e-002
7.7648394e-002
-4.4072114e-002
-2.9149553e-001
-5.1531059e-001
-6.9073153e-001
-6.6056198e-001
-4.6539459e-001
-2.2826102e-001
1.2546919e-002
3.1227242e-002
-1.0823712e-001
-2.0505363e-001
-2.2988720e-001
5.1674113e-002
5.9958214e-001
1.3785622e+000
2.2157431e+000
2.7841868e+000
3.1772428e+000
3.5375018e+000
4.0946798e+000
5.0918770e+000
6.7900229e+000
9.2959290e+000
1.2799866e+001
1.7198999e+001
2.1589621e+001
2.5577391e+001
2.9028799e+001
3.2049675e+001
3.5546288e+001
3.9632629e+001
4.4372219e+001
4.9593239e+001
5.4053093e+001
5.7811230e+001
6.1507141e+001
6.5242203e+001
6.9531509e+001
7.4202698e+001
7.8591850e+001
8.2660408e+001
8.6258644e+001
8.9437988e+001
9.2307587e+001
9.4891228e+001
9.7254303e+001
9.9244423e+001
1.0067935e+002
1.0114017e+002
1.0024268e+002
9.8383240e+001
9.6021828e+001
9.3268883e+001
9.0279610e+001
8.6632156e+001
8.2218643e+001
7.7535164e+001
7.2779816e+001
6.8213882e+001
6.3889156e+001
5.9372681e+001
5.4629120e+001
5.0012924e+001
4.5559448e+001
4.1558399e+001
3.8014641e+001
3.4967896e+001
3.2404469e+001
3.0213240e+001
2.8371693e+001
2.6739038e+001
2.5352436e+001
2.4244862e+001
2.3435501e+001
2.2913000e+001
2.2649755e+001
2.2567457e+001
2.2634981e+001
2.2797823e+001
2.3056757e+001
2.3409130e+001
2.3863310e+001
2.4425539e+001
2.5190042e+001
2.6184771e+001
2.7465240e+001
2.9018055e+001
3.0639395e+001
3.2274479e+001
3.3766071e+001
3.5099831e+001
3.6481689e+001
3.7979614e+001
4.0056110e+001
4.2741459e+001
4.5417740e+001
4.7913990e+001
4.9744667e+001
5.0943119e+001
5.2008179e+001
5.2952717e+001
5.3829906e+001
5.4488422e+001
5.4607109e+001
5.4133514e+001
5.3107319e+001
5.1748173e+001
5.0415928e+001
4.9139164e+001
4.7936951e+001
4.6678345e+001
4.5257408e+001
4.3629765e+001
4.1711208e+001
3.9691227e+001
3.7630116e+001
3.5463802e+001
3.3212898e+001
3.0478764e+001
2.7135635e+001
2.3818514e+001
2.0579470e+001
1.7897669e+001
1.5844510e+001
1.3884143e+001
1.2034922e+001
1.0218994e+001
8.4565887e+000
6.7366576e+000
5.0861540e+000
3.5380299e+000
2.1629009e+000
1.0955760e+000
3.7709272e-001
4.9749017e-002
1.8669949e-001
7.0863318e-001
1.3746051e+000
2.0064194e+000
2.5005808e+000
2.8213716e+000
3.1360838e+000
3.5344443e+000
4.0747776e+000
4.8023400e+000
5.5006819e+000
6.0811629e+000
6.4643116e+000
6.5457940e+000
6.5386572e+000
6.4115596e+000
6.2348652e+000
6.0001392e+000
5.7179275e+000
5.3866544e+000
4.9827242e+000
4.5187407e+000
4.0477824e+000
3.5903862e+000
3.2411549e+000
3.0131383e+000
2.9189751e+000
2.9669712e+000
3.1274626e+000
3.3752685e+000
3.6764889e+000
3.9732544e+000
4.2629089e+000
4.5444832e+000
4.8295226e+000
5.1265187e+000
5.4226503e+000
5.7085724e+000
5.9642234e+000
6.1823144e+000
6.3212619e+000
6.4102139e+000
6.3778272e+000
6.2672524e+000
6.0242400e+000
5.7088394e+000
5.2984266e+000
4.8635941e+000
4.4053578e+000
3.9310887e+000
3.4626746e+000
3.0047979e+000
2.5692437e+000
2.1812639e+000
1.8036864e+000
1.4030780e+000
9.9291813e-001
5.7569265e-001
2.1760020e-001
7.7132732e-003
-9.7295806e-002
-5.5724997e-002
4.3966658e-002
1.8280753e-001
3.2512107e-001
4.5863241e-001
5.9973836e-001
7.6534265e-001
9.2285991e-001
1.0481943e+000
1.1362121e+000
1.1173649e+000
1.0945621e+000
1.0706983e+000
1.1009557e+000
1.2339582e+000
1.4276913e+000
1.7074445e+000
1.9982262e+000
2.2907300e+000
2.5315821e+000
2.6993217e+000
2.7953796e+000
2.8123014e+000
2.7725143e+000
2.6923697e+000
2.5905890e+000
2.4955175e+000
2.4328609e+000
2.4024000e+000
2.4195993e+000
2.4531255e+000
2.4952924e+000
2.5403559e+000
2.5865221e+000
2.6488769e+000
2.7473197e+000
2.8560297e+000
2.9841070e+000
3.1066084e+000
3.2266750e+000
3.3564930e+000
3.5122082e+000
3.6942236e+000
3.9106400e+000
4.1406116e+000
4.3796892e+000
4.6157579e+000
4.8507419e+000
5.0933743e+000
5.3473010e+000
5.6227379e+000
5.9134765e+000
6.2134137e+000
6.5160999e+000
6.8057656e+000
7.0799956e+000
7.3137469e+000
7.5125976e+000
7.6349554e+000
7.7057805e+000
7.6575561e+000
7.5499482e+000
7.2893052e+000
6.9810419e+000
6.5477567e+000
6.0887046e+000
5.5679007e+000
5.0413609e+000
4.5062828e+000
3.9933939e+000
3.5253146e+000
3.1063664e+000
2.7618041e+000
2.4691558e+000
2.2374780e+000
2.0349567e+000
1.8555646e+000
1.6636277e+000
1.4586428e+000
1.2334741e+000
1.0079936e+000
8.2930273e-001
6.9220358e-001
6.4127511e-001
6.2264693e-001
6.2081963e-001
6.1950266e-001
6.0739207e-001
6.1017400e-001
6.8095124e-001
7.6959974e-001
9.0905333e-001
1.0395811e+000
1.1401578e+000
1.2351588e+000
1.3150370e+000
1.3813503e+000
1.4134462e+000
1.3854357e+000
1.2567931e+000
1.0832045e+000
8.5788989e-001
6.5910441e-001
4.9249786e-001
3.5403258e-001
2.3922373e-001
1.3028421e-001
2.9684596e-002
-4.8668515e-002
-1.0513535e-001
-7.7550113e-002
-1.7216355e-003
1.6021349e-001
3.4928250e-001
5.5938053e-001
7.6114112e-001
8.9867043e-001
1.0091988e+000
1.0062062e+000
9.8398852e-001
8.9048129e-001
8.0983484e-001
7.7206618e-001
7.6182801e-001
8.1633246e-001
8.5941970e-001
8.7872428e-001
8.8285476e-001
8.7115711e-001
9.1142452e-001
1.0202552e+000
1.1735600e+000
1.3638766e+000
1.5157200e+000
1.6329563e+000
1.7093414e+000
1.7629623e+000
1.8215430e+000
1.8767828e+000
1.8909509e+000
1.8793823e+000
1.7819586e+000
1.6705559e+000
1.5985399e+000
1.5487040e+000
1.6261599e+000
1.7105788e+000
1.7978026e+000
1.8632286e+000
1.8328115e+000
1.7901077e+000
1.7105460e+000
1.6425269e+000
1.6002822e+000
1.5461388e+000
1.4658893e+000
1.3531224e+000
1.1933540e+000
1.0356981e+000
8.8188809e-001
7.3815924e-001
6.0225254e-001
4.4650155e-001
2.7468270e-001
7.2863966e-002
-1.4411640e-001
-3.5250419e-001
-5.5366892e-001
-7.0750058e-001
-8.4666699e-001
-9.6464300e-001
-1.0788317e+000
-1.1932521e+000
-1.3043377e+000
-1.3781074e+000
-1.4408277e+000
-1.4299216e+000
-1.4052925e+000
-1.3202786e+000
-1.2364560e+000
-1.1582674e+000
-1.0947058e+000
-1.0656923e+000
-1.0469586e+000
-1.0465217e+000
-1.0747421e+000
-1.1412220e+000
-1.2206705e+000
-1.3097142e+000
-1.3257600e+000
-1.2795315e+000
-1.1560397e+000
-9.8568463e-001
-8.3059746e-001
-6.8440431e-001
-5.8285224e-001
-4.9346933e-001
-3.4522951e-001
-1.8308882e-001
1.9620210e-002
2.1914481e-001
2.2854246e-001
2.2203994e-001
9.9990919e-002
3.2406475e-003
4.4987947e-003
1.5058547e-001
5.8573914e-001
1.0550029e+000
1.6227547e+000
2.1134138e+000
2.4375014e+000
2.6513731e+000
2.6891692e+000
2.7106400e+000
2.7133095e+000
2.7520289e+000
2.8239222e+000
2.9144773e+000
3.0175676e+000
3.1081760e+000
3.1932671e+000
3.2598341e+000
3.3220007e+000
3.3780236e+000
3.4348953e+000
3.5736368e+000
3.7266798e+000
4.1320000e+000
