##TITLE=Methyl Ethyl Ketone
##JCAMP-DX=4.24
##DATA TYPE=INFRARED SPECTRUM
##XUNITS=cm-1
##YUNITS=Absorbance
##FIRSTX=900
##LASTX=2300
##XYDATA=(X++(Y..Y))
2296 0.035270002
2294 0.036002953
2292 0.036736898
2290 0.037470847
2288 0.0382048
2286 0.03893875
2284 0.039671708
2282 0.04040565
2280 0.041139599
2278 0.041873548
2276 0.042607497
2274 0.043340467
2272 0.044074401
2270 0.044808351
2268 0.0455423
2266 0.046276249
2264 0.047009222
2262 0.047743149
2260 0.048477102
2258 0.049211051
2256 0.049944032
2254 0.050677951
2252 0.051411901
2250 0.05214585
2248 0.052879799
2246 0.053612784
2244 0.0019923057
2242 0.079546675
2240 0.19162312
2238 0.26023093
2236 0.32218015
2234 0.24001992
2232 0.15057646
2230 0.1306054
2228 0.12778394
2226 0.2348115
2224 0.32541355
2222 0.31512144
2220 0.2579065
2218 0.074036643
2216 -0.082237743
2214 -0.16257109
2212 -0.1846638
2210 -0.11898249
2208 -0.094870962
2206 -0.12931281
2204 -0.23186004
2202 -0.39641294
2200 -0.56305641
2198 -0.72820038
2196 -0.81712002
2194 -0.86219543
2192 -0.75247175
2190 -0.57617974
2188 -0.32796356
2186 -0.05778487
2184 0.10984176
2182 0.25357586
2180 0.27063781
2178 0.26758617
2176 0.14813772
2174 0.0095031923
2172 -0.22650731
2170 -0.45877942
2168 -0.61689425
2166 -0.72115213
2164 -0.65548027
2162 -0.55376989
2160 -0.4031468
2158 -0.28077605
2156 -0.22130501
2154 -0.20008631
2152 -0.22486337
2150 -0.23907956
2148 -0.23602484
2146 -0.20967071
2144 -0.16432521
2142 -0.1427862
2140 -0.13926721
2138 -0.19000201
2136 -0.26925912
2134 -0.36989942
2132 -0.47816852
2130 -0.54485816
2128 -0.59800202
2126 -0.60009557
2124 -0.59065211
2122 -0.54174489
2120 -0.48661453
2118 -0.43017772
2116 -0.37835285
2114 -0.36158231
2112 -0.35103554
2110 -0.34498742
2108 -0.34139583
2106 -0.34336135
2104 -0.34141028
2102 -0.3292298
2100 -0.3002916
2098 -0.2458782
2096 -0.21682
2094 -0.22611725
2092 -0.27112952
2090 -0.3473253
2088 -0.37296909
2086 -0.35268348
2084 -0.27945355
2082 -0.17527819
2080 -0.14644714
2078 -0.15964353
2076 -0.26429871
2074 -0.40495899
2072 -0.4640184
2070 -0.4956798
2068 -0.41496933
2066 -0.30910242
2064 -0.26139224
2062 -0.23010613
2060 -0.2412678
2058 -0.25194699
2056 -0.21366371
2054 -0.16702574
2052 -0.12716046
2050 -0.1082076
2048 -0.14201966
2046 -0.18526356
2044 -0.22795761
2042 -0.24387483
2040 -0.21729612
2038 -0.18656646
2036 -0.15806457
2034 -0.17045088
2032 -0.22249788
2030 -0.29099801
2028 -0.36837566
2026 -0.41677234
2024 -0.44669989
2022 -0.44965148
2020 -0.44065002
2018 -0.43789077
2016 -0.43739998
2014 -0.45117521
2012 -0.46804607
2010 -0.51109248
2008 -0.56401843
2006 -0.67908907
2004 -0.81561959
2002 -0.99711543
2000 -1.1859515
1998 -1.3642372
1996 -1.5205785
1994 -1.6233504
1992 -1.6804336
1990 -1.6578455
1988 -1.5692741
1986 -1.3903294
1984 -1.1721864
1982 -0.92948759
1980 -0.74822152
1978 -0.64634132
1976 -0.60061288
1974 -0.59305799
1972 -0.49385825
1970 -0.32023579
1968 -0.127736
1966 0.068383113
1964 0.072119072
1962 -0.023633707
1960 -0.18219024
1958 -0.36178073
1956 -0.42833701
1954 -0.45027575
1952 -0.40225527
1950 -0.33390582
1948 -0.3117373
1946 -0.32684249
1944 -0.45694247
1942 -0.62495738
1940 -0.77252489
1938 -0.88396639
1936 -0.91102487
1934 -0.90799427
1932 -0.9048416
1930 -0.90883994
1928 -0.93417698
1926 -0.94931501
1924 -0.94937766
1922 -0.89306003
1920 -0.77488708
1918 -0.646429
1916 -0.51267529
1914 -0.42460275
1912 -0.37291446
1910 -0.35348302
1908 -0.35322049
1906 -0.43794671
1904 -0.56599516
1902 -0.69464821
1900 -0.8184821
1898 -0.77770644
1896 -0.66419858
1894 -0.46810174
1892 -0.25666311
1890 -0.14486189
1888 -0.1072996
1886 -0.20913036
1884 -0.37513351
1882 -0.57506531
1880 -0.7629537
1878 -0.90172887
1876 -0.98722404
1874 -1.0220318
1872 -1.0081593
1870 -0.95564741
1868 -0.89950007
1866 -0.83455676
1864 -0.82729948
1862 -0.86623043
1860 -0.94859165
1858 -1.0662705
1856 -1.16878
1854 -1.2613754
1852 -1.2784402
1850 -1.2535518
1848 -1.1678281
1846 -1.0590929
1844 -1.021382
1842 -1.0324358
1840 -1.1604109
1838 -1.3404815
1836 -1.5499343
1834 -1.747751
1832 -1.8645251
1830 -1.8872966
1828 -1.6867169
1826 -1.3906379
1824 -1.0584184
1822 -0.81681859
1820 -0.80182797
1818 -0.89437336
1816 -1.0400383
1814 -1.1234696
1812 -1.0983971
1810 -1.0197783
1808 -0.91513693
1806 -0.8250165
1804 -0.75637358
1802 -0.65351075
1800 -0.52210051
1798 -0.33166352
1796 -0.10150892
1794 0.13321508
1792 0.37673
1790 0.57618511
1788 0.75960743
1786 0.88035357
1784 0.9696753
1782 1.0110614
1780 1.0360634
1778 1.091203
1776 1.1566286
1774 1.19357
1772 1.149278
1770 0.94254464
1768 0.65659773
1766 0.39490035
1764 0.2296198
1762 0.20687051
1760 0.084301315
1758 -0.14503765
1756 -0.32566959
1754 -0.43771359
1752 -0.31554559
1750 0.0519609
1748 0.53738934
1746 1.0766132
1744 1.3432177
1742 1.3572153
1740 1.266364
1738 1.1243067
1736 1.2127
1734 1.47052
1732 1.6201748
1730 1.6718563
1728 1.3319767
1726 0.76262307
1724 0.27687189
1722 -0.060083255
1720 0.071468964
1718 0.67366087
1716 1.8622028
1714 3.2776139
1712 4.516489
1710 5.551578
1708 6.294096
1706 7.0744138
1704 8.1632442
1702 9.8830547
1700 12.410585
1698 15.675683
1696 19.578285
1694 23.32778
1692 26.597178
1690 29.508942
1688 32.146793
1686 35.290993
1684 39.011803
1682 43.285782
1680 47.993561
1678 52.144958
1676 55.790215
1674 59.542835
1672 63.442654
1670 67.976891
1668 72.949913
1666 77.740799
1664 82.32235
1662 86.504158
1660 90.294411
1658 93.642326
1656 96.530685
1654 98.914337
1652 100.7448
1650 102.0178
1648 102.3572
1646 101.56893
1644 99.914787
1642 97.682037
1640 95.013245
1638 92.016632
1636 88.343971
1634 83.95356
1632 79.370804
1630 74.813454
1628 70.542458
1626 66.561874
1624 62.41468
1622 58.047729
1620 53.704285
1618 49.414551
1616 45.379658
1614 41.624172
1612 38.246006
1610 35.269981
1608 32.690998
1606 30.498363
1604 28.598837
1602 27.005058
1600 25.694286
1598 24.658142
1596 23.834
1594 23.215767
1592 22.77001
1590 22.494345
1588 22.368309
1586 22.400635
1584 22.571589
1582 22.892269
1580 23.345446
1578 24.022686
1576 24.954372
1574 26.106615
1572 27.47814
1570 28.774826
1568 29.938721
1566 30.908672
1564 31.671968
1562 32.541103
1560 33.611439
1558 35.586411
1556 38.474857
1554 41.62463
1552 44.852402
1550 47.232128
1548 48.81778
1546 50.046394
1544 50.921154
1542 51.588406
1540 51.911121
1538 51.869694
1536 51.469173
1534 50.768494
1532 49.939762
1530 49.073616
1528 48.159168
1526 47.190449
1524 45.980469
1522 44.437954
1520 42.491074
1518 40.139717
1516 37.841644
1514 35.740929
1512 33.6912
1510 31.615826
1508 28.998243
1506 25.685764
1504 22.537754
1502 19.70097
1500 17.456282
1498 15.858
1496 14.218286
1494 12.512033
1492 10.749817
1490 8.9546843
1488 7.2549701
1486 5.6747584
1484 4.2116261
1482 2.9379058
1480 1.8652234
1478 1.0279619
1476 0.44080928
1474 0.18903197
1472 0.43064588
1470 0.95788062
1468 1.6179258
1466 2.2639158
1464 2.7474737
1462 3.1710589
1460 3.5509598
1458 3.9524655
1456 4.4190001
1454 4.8185525
1452 5.1359725
1450 5.3129454
1448 5.2949862
1446 5.1866074
1444 4.9494586
1442 4.6840439
1440 4.3842683
1438 4.1365156
1436 3.9285228
1434 3.7452078
1432 3.5546286
1430 3.3005114
1428 3.024724
1426 2.7797358
1424 2.6100411
1422 2.5584786
1420 2.6107812
1418 2.7770422
1416 3.02968
1414 3.3632619
1412 3.7401528
1410 4.087369
1408 4.3940701
1406 4.6223173
1404 4.803268
1402 4.952106
1400 5.0635958
1398 5.127553
1396 5.1527357
1394 5.1272593
1392 5.0928712
1390 5.0755548
1388 5.0364952
1386 4.9673848
1384 4.853765
1382 4.6732912
1380 4.4508395
1378 4.1621914
1376 3.8288085
1374 3.437094
1372 3.05828
1370 2.7068021
1368 2.3992953
1366 2.1196899
1364 1.7899514
1362 1.4115927
1360 0.99987781
1358 0.61327398
1356 0.33379686
1354 0.14899248
1352 0.065720275
1350 0.018717285
1348 -0.01258594
1346 -0.036590606
1344 -0.026982559
1342 0.025033131
1340 0.15424289
1338 0.28326541
1336 0.41301599
1334 0.48381978
1332 0.49826312
1330 0.52158391
1328 0.57575953
1326 0.69297093
1324 0.88793647
1322 1.1527058
1320 1.4892372
1318 1.8668503
1316 2.25981
1314 2.5920548
1312 2.8485806
1310 2.9807031
1308 3.0197551
1306 2.9813108
1304 2.8945589
1302 2.7805519
1300 2.6547916
1298 2.5414648
1296 2.4505
1294 2.4230652
1292 2.4356883
1290 2.523186
1288 2.6265922
1286 2.7472057
1284 2.8523784
1282 2.9217551
1280 2.9981635
1278 3.09636
1276 3.2293172
1274 3.419764
1272 3.6112378
1270 3.7977276
1268 3.9819229
1266 4.1764317
1264 4.4147434
1262 4.7145095
1260 5.044054
1258 5.402658
1256 5.7662058
1254 6.1426997
1252 6.5514922
1250 6.9958496
1248 7.4928699
1246 8.0188751
1244 8.5628891
1242 9.0885992
1240 9.5363674
1238 9.9099798
1236 10.109043
1234 10.224929
1232 10.16972
1230 10.068431
1228 9.8719683
1226 9.649601
1224 9.3563938
1222 9.0317879
1220 8.6325359
1218 8.2045708
1216 7.7191429
1214 7.2091804
1212 6.6588445
1210 6.1047568
1208 5.5487742
1206 5.0059414
1204 4.4789581
1202 3.954025
1200 3.4351554
1198 2.9365706
1196 2.4660785
1194 2.0574489
1192 1.6993868
1190 1.4070389
1188 1.1505767
1186 0.9241538
1184 0.71079522
1182 0.51137859
1180 0.33836421
1178 0.25712624
1176 0.224178
1174 0.33448085
1172 0.46026623
1170 0.61521232
1168 0.74957025
1166 0.82429332
1164 0.89195073
1162 0.94222498
1160 0.9887681
1158 1.0226574
1156 1.0255104
1154 0.97295833
1152 0.88413793
1150 0.74734074
1148 0.60429102
1146 0.45693678
1144 0.32084394
1142 0.19847189
1140 0.096222803
1138 0.019445259
1136 0.0066759288
1134 0.045681626
1132 0.23842719
1130 0.51472628
1128 0.91934693
1126 1.37233
1124 1.8933005
1122 2.4073157
1120 2.82196
1118 3.1838839
1116 3.3138084
1114 3.4197257
1112 3.4433606
1110 3.4878838
1108 3.6010551
1106 3.7488899
1104 3.9849017
1102 4.2528691
1100 4.5791025
1098 4.8841333
1096 5.1488857
1094 5.3526421
1092 5.4862022
1090 5.6440783
1088 5.8323212
1086 6.0690312
1084 6.3370705
1082 6.5684199
1080 6.7722378
1078 6.938674
1076 7.0696683
1074 7.0686822
1072 6.9981394
1070 6.7326951
1068 6.4494824
1066 6.3444309
1064 6.319376
1062 6.7137122
1060 7.1220374
1058 7.4855647
1056 7.7612629
1054 7.6525512
1052 7.5090413
1050 7.2609658
1048 7.081882
1046 7.0727143
1044 7.1244216
1042 7.2849712
1040 7.4044461
1038 7.4553776
1036 7.3982801
1034 7.2144666
1032 6.9814234
1030 6.7068195
1028 6.4595709
1026 6.2336464
1024 6.040163
1022 5.8600178
1020 5.6390438
1018 5.390007
1016 5.0039001
1014 4.5712953
1012 4.0317159
1010 3.4707544
1008 2.8739359
1006 2.2769406
1004 1.7152631
1002 1.1754768
1000 0.78463691
998 0.41599673
996 0.14413789
994 -0.13501909
992 -0.43545696
990 -0.73161441
988 -1.0149729
986 -1.2548971
984 -1.416628
982 -1.506156
980 -1.4970061
978 -1.4283389
976 -1.2980971
974 -1.1742588
972 -1.0568137
970 -0.96794403
968 -0.8965314
966 -0.81298351
964 -0.71938121
962 -0.53035462
960 -0.30683565
958 -0.017730594
956 0.27955914
954 0.43538478
952 0.564574
950 0.45936483
948 0.34011132
946 0.15401572
944 0.0011322163
942 0.036819875
940 0.15980786
938 0.51626158
936 0.86259431
934 1.1785414
932 1.488768
930 1.7881861
928 2.156112
926 2.6334128
924 3.1379578
922 3.6719084
920 4.0352297
918 4.2369366
916 4.1922846
914 3.9741435
912 3.7288103
910 3.4688261
908 3.3320053
906 3.2416563
904 3.4596982
902 3.7582998
900 4.4807606
898 5.270515
896 5.8401999
