Image.
>Pix99999.
  .
5555
5555
2300
900
5555
2
1
0
701
5555
3.6687002e-002
3.7450910e-002
3.8213816e-002
3.8976725e-002
3.9740629e-002
4.0503543e-002
4.1266453e-002
4.2029358e-002
4.2793255e-002
4.3557167e-002
4.4320084e-002
4.5079056e-002
4.5845836e-002
4.6621569e-002
4.7372960e-002
4.8089638e-002
4.8897464e-002
4.9833171e-002
5.0429855e-002
5.0551042e-002
5.1933426e-002
5.5087700e-002
5.3554863e-002
4.5413785e-002
5.4691847e-002
9.4645783e-002
1.0620086e-001
2.7780740e-002
-1.3057365e-001
-3.3108363e-001
-5.0606072e-001
-5.9446901e-001
-5.9546214e-001
-5.2886820e-001
-4.2798245e-001
-3.2393402e-001
-2.2421382e-001
-1.2942399e-001
-4.0390451e-002
4.0457442e-002
1.0491531e-001
1.4139643e-001
1.3169001e-001
6.2265668e-002
-5.3276680e-002
-1.8935297e-001
-3.0525914e-001
-3.6344412e-001
-3.5760805e-001
-2.9714820e-001
-2.1586643e-001
-1.5079901e-001
-1.2180372e-001
-1.3579392e-001
-1.6951075e-001
-1.9448172e-001
-1.9971040e-001
-1.8536717e-001
-1.7347699e-001
-1.8671358e-001
-2.2190343e-001
-2.6591209e-001
-2.9981422e-001
-3.0687049e-001
-2.8638285e-001
-2.4289614e-001
-1.8043163e-001
-1.0428695e-001
-2.6044372e-002
4.0838618e-002
8.4025502e-002
9.3100056e-002
6.3739799e-002
-4.5675859e-003
-1.0523313e-001
-2.2460607e-001
-3.2986394e-001
-3.8573352e-001
-3.7417164e-001
-2.9231134e-001
-1.7411286e-001
-6.4116232e-002
2.7580727e-003
5.1353103e-003
-3.8321622e-002
-9.4475664e-002
-1.2963891e-001
-1.2043677e-001
-8.4903881e-002
-5.3090841e-002
-4.1723486e-002
-5.6151152e-002
-7.7211291e-002
-8.1907891e-002
-6.8487011e-002
-4.5359723e-002
-2.8564326e-002
-3.2146640e-002
-5.1149499e-002
-7.3682167e-002
-8.9680426e-002
-9.4627723e-002
-1.0295986e-001
-1.3214579e-001
-1.8173514e-001
-2.3924099e-001
-2.7245733e-001
-2.4910995e-001
-1.6793650e-001
-4.3750115e-002
9.4472155e-002
2.1659683e-001
3.0909601e-001
3.6647415e-001
3.8763666e-001
3.7298116e-001
3.2299012e-001
2.3939750e-001
1.2940614e-001
5.4686572e-003
-1.0740252e-001
-1.8221004e-001
-2.0522705e-001
-1.7385726e-001
-1.0766772e-001
-3.2497536e-002
3.7756480e-002
9.4991684e-002
1.3200012e-001
1.4395761e-001
1.3562444e-001
1.1693526e-001
1.0200314e-001
1.0234315e-001
1.1177066e-001
1.1988550e-001
1.3177206e-001
1.5598962e-001
1.8462510e-001
2.0108311e-001
1.8505999e-001
1.2496915e-001
5.1200300e-002
5.7115727e-003
-2.1062715e-003
1.7672487e-002
4.0656473e-002
4.3113720e-002
2.8155172e-002
1.0649512e-002
7.5955846e-004
1.7826976e-003
6.0977635e-004
-1.9056965e-002
-5.4797020e-002
-9.4987340e-002
-1.2894960e-001
-1.5067016e-001
-1.6960691e-001
-1.9561729e-001
-2.0849542e-001
-1.7480750e-001
-6.9332130e-002
1.1558022e-001
3.3406228e-001
5.1936805e-001
6.2746567e-001
6.3853562e-001
5.8002043e-001
4.9665841e-001
4.0931371e-001
3.2339132e-001
2.3688468e-001
1.4812928e-001
6.8839811e-002
1.4964274e-002
-9.9195782e-003
-1.1077738e-002
-1.9845273e-003
6.3254760e-004
-1.7813325e-002
-6.7992568e-002
-1.4974420e-001
-2.5312421e-001
-3.5013697e-001
-4.0356565e-001
-3.7609291e-001
-2.4234800e-001
-2.5971394e-002
2.2369194e-001
4.6066415e-001
6.5087175e-001
7.9450077e-001
9.0393698e-001
9.6414620e-001
9.4850528e-001
8.5297197e-001
6.9561654e-001
5.2983075e-001
4.1995427e-001
3.9669999e-001
4.5957422e-001
5.6180269e-001
6.3561642e-001
6.2868017e-001
5.1416719e-001
3.2857272e-001
1.3797931e-001
-1.7814286e-002
-1.2067480e-001
-1.6577899e-001
-1.4998133e-001
-5.0925493e-002
1.4828426e-001
3.8767716e-001
5.6639421e-001
6.1005861e-001
4.8537549e-001
2.5028369e-001
4.3690428e-003
-2.0301615e-001
-3.6231926e-001
-4.8135689e-001
-5.7264781e-001
-6.3870478e-001
-6.7606390e-001
-6.8532860e-001
-6.6896880e-001
-6.2338787e-001
-5.3880918e-001
-3.9629486e-001
-1.7761979e-001
1.0848930e-001
4.2490664e-001
6.8646580e-001
7.9525793e-001
7.2520012e-001
5.1035893e-001
2.3312861e-001
-9.8025352e-003
-1.7331068e-001
-2.5277144e-001
-2.6118964e-001
-2.1391122e-001
-1.0364273e-001
8.1744045e-002
3.0466071e-001
4.9620971e-001
6.0428649e-001
6.1017674e-001
5.7671070e-001
6.0164398e-001
6.9952482e-001
8.2179934e-001
9.1987622e-001
9.6065485e-001
9.4630921e-001
9.0064460e-001
8.3956879e-001
7.7911937e-001
7.7439427e-001
8.8845623e-001
1.0907627e+000
1.2765834e+000
1.3203977e+000
1.1272243e+000
7.6859522e-001
4.1116130e-001
1.0883097e-001
-1.6929680e-001
-3.9794001e-001
-5.0555158e-001
-4.5517552e-001
-2.5653240e-001
1.5508965e-002
2.4996287e-001
3.6964434e-001
3.5378841e-001
2.9938641e-001
3.6289698e-001
5.8969003e-001
9.0815115e-001
1.1448394e+000
1.1014993e+000
7.5855851e-001
2.5956437e-001
-1.6829567e-001
-2.7121559e-001
1.2913468e-001
1.0858299e+000
2.3675416e+000
3.5698559e+000
4.4675069e+000
5.0556808e+000
5.5568161e+000
6.3297043e+000
7.6562366e+000
9.7022181e+000
1.2486691e+001
1.5875025e+001
1.9508572e+001
2.2920660e+001
2.5910116e+001
2.8580692e+001
3.1334005e+001
3.4723179e+001
3.9046074e+001
4.4245296e+001
4.9723919e+001
5.4639862e+001
5.8922516e+001
6.3177917e+001
6.7863510e+001
7.3082603e+001
7.8400803e+001
8.3059250e+001
8.6715271e+001
8.9471222e+001
9.1545021e+001
9.3167923e+001
9.4512398e+001
9.5669449e+001
9.6596298e+001
9.7117645e+001
9.6935699e+001
9.5755432e+001
9.3715637e+001
9.1316368e+001
8.8886597e+001
8.6492012e+001
8.3998772e+001
8.1166214e+001
7.7905556e+001
7.4282150e+001
7.0325172e+001
6.6010620e+001
6.1363041e+001
5.6484776e+001
5.1577583e+001
4.6900581e+001
4.2595631e+001
3.8678993e+001
3.5153362e+001
3.2027679e+001
2.9294651e+001
2.6930849e+001
2.4918463e+001
2.3249058e+001
2.1918171e+001
2.0919806e+001
2.0229500e+001
1.9804434e+001
1.9601789e+001
1.9589170e+001
1.9759480e+001
2.0127613e+001
2.0703646e+001
2.1497879e+001
2.2571760e+001
2.4034706e+001
2.5973057e+001
2.8405792e+001
3.1195633e+001
3.4072071e+001
3.6836880e+001
3.9415943e+001
4.1837830e+001
4.4240120e+001
4.6896954e+001
5.0093025e+001
5.3543831e+001
5.6415279e+001
5.8186325e+001
5.8861530e+001
5.8797077e+001
5.8549000e+001
5.8338932e+001
5.7952141e+001
5.7031662e+001
5.5240025e+001
5.2631203e+001
4.9681885e+001
4.6840790e+001
4.4388226e+001
4.2397873e+001
4.0735001e+001
3.9200787e+001
3.7581547e+001
3.5719646e+001
3.3557148e+001
3.1197470e+001
2.8882029e+001
2.6716240e+001
2.4606474e+001
2.2406385e+001
1.9991829e+001
1.7435400e+001
1.5012609e+001
1.2899343e+001
1.1092070e+001
9.5201855e+000
8.0866098e+000
6.7281837e+000
5.4265084e+000
4.1511273e+000
2.8621984e+000
1.6089369e+000
5.4990083e-001
-1.5866062e-001
-3.9310682e-001
-3.9401859e-002
9.7112501e-001
2.4798338e+000
4.0781093e+000
5.4570212e+000
6.5288544e+000
7.3752766e+000
8.2251902e+000
9.2755165e+000
1.0606150e+001
1.2091400e+001
1.3388493e+001
1.4223954e+001
1.4498926e+001
1.4267292e+001
1.3727428e+001
1.3058434e+001
1.2364410e+001
1.1704589e+001
1.1093908e+001
1.0491843e+001
9.8083296e+000
9.0052967e+000
8.1353273e+000
7.2972422e+000
6.6171074e+000
6.1743302e+000
5.9685388e+000
5.9480205e+000
6.0176253e+000
6.0954914e+000
6.1405048e+000
6.1662693e+000
6.2460194e+000
6.4362578e+000
6.7462034e+000
7.1506729e+000
7.5886116e+000
7.9845004e+000
8.2568092e+000
8.3429718e+000
8.2175846e+000
7.9049129e+000
7.4865789e+000
7.0383167e+000
6.6047850e+000
6.2049642e+000
5.8294291e+000
5.4606104e+000
5.0780005e+000
4.6578112e+000
4.1766500e+000
3.6352501e+000
3.0702536e+000
2.5219755e+000
2.0201986e+000
1.5688229e+000
1.1394738e+000
7.2039789e-001
3.3878550e-001
3.9492860e-002
-1.2120930e-001
-1.0132492e-001
1.1148618e-001
5.0506037e-001
1.0396607e+000
1.6748080e+000
2.3746917e+000
3.0811367e+000
3.6993878e+000
4.1346025e+000
4.3145247e+000
4.2259722e+000
3.9440038e+000
3.5586789e+000
3.1504443e+000
2.7874069e+000
2.5168900e+000
2.3606565e+000
2.3018310e+000
2.2971098e+000
2.2766733e+000
2.1858125e+000
2.0097299e+000
1.7644606e+000
1.5024208e+000
1.2773714e+000
1.1290380e+000
1.0813894e+000
1.1366533e+000
1.2913429e+000
1.5411764e+000
1.8835300e+000
2.3172951e+000
2.8308759e+000
3.3925471e+000
3.9610019e+000
4.4876132e+000
4.9342093e+000
5.2861547e+000
5.5479712e+000
5.7490854e+000
5.9239855e+000
6.1054430e+000
6.3182154e+000
6.5740414e+000
6.8847389e+000
7.2673755e+000
7.7393241e+000
8.3145142e+000
8.9963665e+000
9.7702656e+000
1.0621128e+001
1.1541018e+001
1.2526737e+001
1.3583500e+001
1.4697383e+001
1.5817139e+001
1.6869690e+001
1.7756466e+001
1.8389814e+001
1.8718624e+001
1.8707520e+001
1.8347654e+001
1.7645241e+001
1.6628601e+001
1.5357829e+001
1.3943659e+001
1.2513331e+001
1.1200270e+001
1.0110663e+001
9.2858887e+000
8.7353973e+000
8.4352379e+000
8.3470955e+000
8.4173441e+000
8.5736084e+000
8.7125492e+000
8.7300596e+000
8.5395985e+000
8.0910568e+000
7.4051633e+000
6.5415244e+000
5.6043100e+000
4.6946788e+000
3.8822374e+000
3.2091503e+000
2.6750140e+000
2.2692926e+000
1.9812530e+000
1.8011600e+000
1.7207108e+000
1.7260159e+000
1.7903014e+000
1.8851503e+000
1.9860042e+000
2.0737298e+000
2.1390901e+000
2.1697733e+000
2.1413648e+000
2.0299702e+000
1.8225179e+000
1.5257006e+000
1.1855091e+000
8.5326719e-001
5.7014394e-001
3.6097720e-001
2.1786807e-001
1.1672395e-001
1.6515754e-002
-1.0485329e-001
-2.1631010e-001
-2.8325370e-001
-2.9422814e-001
-2.5521988e-001
-1.9994099e-001
-1.6065240e-001
-1.4833151e-001
-1.5383840e-001
-1.3331595e-001
-5.2533533e-002
7.7870205e-002
2.2813714e-001
3.4956756e-001
4.0519506e-001
3.9946750e-001
3.5448259e-001
3.1104699e-001
3.0909908e-001
3.7394798e-001
5.1887143e-001
7.3536837e-001
1.0095352e+000
1.3268855e+000
1.6710565e+000
2.0209541e+000
2.3492465e+000
2.6157060e+000
2.7842133e+000
2.8388989e+000
2.7797215e+000
2.6358063e+000
2.4459486e+000
2.2567723e+000
2.1120608e+000
2.0421200e+000
2.0571921e+000
2.1220305e+000
2.1868672e+000
2.1939313e+000
2.1048830e+000
1.9412754e+000
1.7450097e+000
1.5739180e+000
1.4775869e+000
1.4705750e+000
1.5509261e+000
1.6935102e+000
1.8650583e+000
2.0242105e+000
2.1387300e+000
2.2068853e+000
2.2347503e+000
2.2276618e+000
2.1808965e+000
2.0602863e+000
1.8412955e+000
1.5495960e+000
1.2255877e+000
9.1745782e-001
6.5647888e-001
4.1758436e-001
1.6879040e-001
-1.0043597e-001
-3.8628078e-001
-6.5758139e-001
-8.8722616e-001
-1.0815272e+000
-1.2556063e+000
-1.4255084e+000
-1.6006286e+000
-1.7686739e+000
-1.9149548e+000
-2.0363731e+000
-2.1324708e+000
-2.2029743e+000
-2.2407184e+000
-2.2163796e+000
-2.1010580e+000
-1.8851591e+000
-1.5791543e+000
-1.2450991e+000
-9.5505822e-001
-7.7209449e-001
-7.3491693e-001
-8.0758202e-001
-9.3346053e-001
-1.0490862e+000
-1.1057154e+000
-1.1112372e+000
-1.0868043e+000
-1.0515357e+000
-1.0032156e+000
-8.6811578e-001
-5.8854598e-001
-2.2508107e-001
1.4953789e-001
5.2317035e-001
8.7665701e-001
1.1127681e+000
1.1546056e+000
1.0700088e+000
9.5332241e-001
8.6551046e-001
8.5204583e-001
9.3218309e-001
1.1103959e+000
1.3604186e+000
1.6403245e+000
1.8789293e+000
2.0126214e+000
2.0340955e+000
1.9802377e+000
2.0033638e+000
2.2620111e+000
2.8246980e+000
3.6918736e+000
4.6830435e+000
5.6013823e+000
6.3637896e+000
6.9157000e+000
