##TITLE=Methyl Ethyl Ketone
##JCAMP-DX=4.24
##DATA TYPE=INFRARED SPECTRUM
##XUNITS=cm-1
##YUNITS=Absorbance
##FIRSTX=900
##LASTX=2300
##XYDATA=(X++(Y..Y))
2296 0.069231004
2294 0.07067094
2292 0.072110876
2290 0.07355082
2288 0.074991755
2286 0.076431707
2284 0.077871643
2282 0.07931257
2280 0.080752522
2278 0.082192466
2276 0.083633386
2274 0.085074328
2272 0.086513296
2270 0.087951258
2268 0.0893941
2266 0.090844862
2264 0.092274293
2262 0.093673974
2260 0.095153838
2258 0.096748568
2256 0.098040283
2254 0.098905377
2252 0.10089623
2250 0.1044804
2248 0.10387571
2246 0.091707714
2244 0.061138865
2242 0.012259377
2240 -0.02752988
2238 -0.031398028
2236 -0.0058769658
2234 0.032583963
2232 0.06612125
2230 0.081920706
2228 0.088801771
2226 0.099119551
2224 0.11415345
2222 0.13385445
2220 0.16629826
2218 0.22282135
2216 0.318252
2214 0.46062016
2212 0.62638259
2210 0.78389776
2208 0.90724421
2206 0.97891963
2204 1.0078731
2202 1.010906
2200 1.0036417
2198 1.000682
2196 1.0127572
2194 1.0489315
2192 1.1154817
2190 1.2140453
2188 1.3303204
2186 1.445825
2184 1.544692
2182 1.6166164
2180 1.6688908
2178 1.7143987
2176 1.7646458
2174 1.8291574
2172 1.9120069
2170 2.0140491
2168 2.128885
2166 2.246815
2164 2.3519943
2162 2.4288075
2160 2.4684029
2158 2.4666717
2156 2.42659
2154 2.3562448
2152 2.2738886
2150 2.201525
2148 2.164499
2146 2.1828749
2144 2.2520897
2142 2.354718
2140 2.4565899
2138 2.5244997
2136 2.5528686
2134 2.5502059
2132 2.5416427
2130 2.5525873
2128 2.5855279
2126 2.6324108
2124 2.6744385
2122 2.6919353
2120 2.6755149
2118 2.6236708
2116 2.5497487
2114 2.4744761
2112 2.4250932
2110 2.4252567
2108 2.4745934
2106 2.5601451
2104 2.6563559
2102 2.7360301
2100 2.7853999
2098 2.7978816
2096 2.7750714
2094 2.7234366
2092 2.6572232
2090 2.5943377
2088 2.554719
2086 2.5551801
2084 2.5963373
2082 2.6689842
2080 2.7511635
2078 2.8187096
2076 2.8581314
2074 2.8638525
2072 2.842648
2070 2.805141
2068 2.7579312
2066 2.7055399
2064 2.6526663
2062 2.6035898
2060 2.5614946
2058 2.5290358
2056 2.5084715
2054 2.5033977
2052 2.5225694
2050 2.573602
2048 2.6484411
2046 2.7312357
2044 2.8014681
2042 2.8422499
2040 2.8577521
2038 2.8601263
2036 2.8559656
2034 2.8477657
2032 2.8328736
2030 2.8102791
2028 2.7945416
2026 2.8035228
2024 2.838448
2022 2.8892293
2020 2.9303691
2018 2.9359765
2016 2.9045401
2014 2.849205
2012 2.7967052
2010 2.774544
2008 2.7906423
2006 2.840317
2004 2.905184
2002 2.9648619
2000 3.0131166
1998 3.0512159
1996 3.0819216
1994 3.1061602
1992 3.1165018
1990 3.104872
1988 3.07897
1986 3.0531578
1984 3.0371087
1982 3.036272
1980 3.0486691
1978 3.0690255
1976 3.0910487
1974 3.1068799
1972 3.101953
1970 3.0619867
1968 2.9877348
1966 2.8904665
1964 2.7949965
1962 2.7292464
1960 2.7086079
1958 2.7370462
1956 2.7988157
1954 2.8687024
1952 2.922483
1950 2.9409499
1948 2.922586
1946 2.87605
1944 2.8154902
1942 2.7554438
1940 2.7018719
1938 2.6555793
1936 2.6165657
1934 2.5856469
1932 2.5674701
1930 2.5677621
1928 2.5874813
1926 2.6241643
1924 2.6716409
1922 2.7217627
1920 2.7637258
1918 2.786464
1916 2.7837873
1914 2.7549956
1912 2.7110913
1910 2.6675627
1908 2.6326239
1906 2.6070349
1904 2.579504
1902 2.5366647
1900 2.4841592
1898 2.4386685
1896 2.4152715
1894 2.4213929
1892 2.439146
1890 2.4394882
1888 2.4060104
1886 2.3348315
1884 2.2399168
1882 2.1437042
1880 2.0646727
1878 2.015604
1876 1.99921
1874 2.0111713
1872 2.0405543
1870 2.0735891
1868 2.0975552
1866 2.1021757
1864 2.0840068
1862 2.0439081
1860 1.9848495
1858 1.911309
1856 1.8309085
1854 1.7532628
1852 1.6889431
1850 1.6462137
1848 1.62072
1846 1.6009715
1844 1.5788871
1842 1.5507582
1840 1.518716
1838 1.4883527
1836 1.4661772
1834 1.458124
1832 1.4679641
1830 1.4945152
1828 1.5222088
1826 1.5290065
1824 1.5052314
1822 1.4523931
1820 1.3808761
1818 1.3033997
1816 1.2199886
1814 1.1239105
1812 1.0184091
1810 0.91703856
1808 0.84553242
1806 0.82994598
1804 0.86522257
1802 0.92418534
1800 0.97740763
1798 1.001065
1796 0.9920457
1794 0.95877689
1792 0.89914799
1790 0.80661756
1788 0.69484621
1786 0.59090966
1784 0.51486009
1782 0.47708249
1780 0.47445074
1778 0.49497637
1776 0.52520943
1774 0.54980338
1772 0.54445404
1770 0.48458093
1768 0.3733584
1766 0.23838663
1764 0.12516496
1762 0.07027036
1760 0.022690028
1758 -0.10901837
1756 -0.305931
1754 -0.47250292
1752 -0.56855404
1750 -0.61182028
1748 -0.64554137
1746 -0.71692497
1744 -0.83806378
1742 -0.98580134
1740 -1.1014805
1738 -1.1148456
1736 -1.006454
1734 -0.80758226
1732 -0.59216005
1730 -0.4466185
1728 -0.39363647
1726 -0.3960318
1724 -0.38123611
1722 -0.26012459
1720 0.042777896
1718 0.57235205
1716 1.2928352
1714 2.1091495
1712 2.9323125
1710 3.7113764
1708 4.5081401
1706 5.4757233
1704 6.7891049
1702 8.6279879
1700 11.175878
1698 14.531446
1696 18.385572
1694 22.14698
1692 25.447083
1690 28.228422
1688 30.81312
1686 33.75592
1684 37.425003
1682 41.877243
1680 46.612801
1678 50.836853
1676 54.385372
1674 57.694637
1672 61.2234
1670 65.265892
1668 69.714172
1666 74.165604
1664 78.360748
1662 82.226631
1660 85.737144
1658 88.882607
1656 91.685997
1654 94.185188
1652 96.364418
1650 98.130859
1648 99.256844
1646 99.467499
1644 98.789948
1642 97.505585
1640 95.748116
1638 93.459076
1636 90.52504
1634 86.867577
1632 82.654755
1630 78.244987
1628 73.835289
1626 69.425682
1624 64.971115
1622 60.443611
1620 55.926716
1618 51.598515
1616 47.590141
1614 43.962822
1612 40.747555
1610 37.947983
1608 35.520069
1606 33.38512
1604 31.49283
1602 29.829845
1600 28.400251
1598 27.214479
1596 26.2665
1594 25.532408
1592 24.983824
1590 24.592867
1588 24.336603
1586 24.198586
1584 24.165354
1582 24.231331
1580 24.42145
1578 24.790854
1576 25.386684
1574 26.230179
1572 27.282492
1570 28.447752
1568 29.64452
1566 30.826014
1564 31.988916
1562 33.19878
1560 34.671131
1558 36.699074
1556 39.236629
1554 41.86039
1552 44.155266
1550 45.86084
1548 47.025017
1546 47.968929
1544 48.881573
1542 49.726299
1540 50.369259
1538 50.637257
1536 50.448143
1534 49.842419
1532 48.945351
1530 47.931557
1528 46.896709
1526 45.83215
1524 44.70034
1522 43.461349
1520 42.07991
1518 40.538036
1516 38.877586
1514 37.181454
1512 35.42252
1510 33.437107
1508 31.060194
1506 28.207779
1504 25.052588
1502 22.019014
1500 19.377277
1498 17.132509
1496 15.157144
1494 13.249906
1492 11.299086
1490 9.3215322
1488 7.3692565
1486 5.5079803
1484 3.821094
1482 2.401618
1480 1.2934062
1478 0.49301857
1476 0.076968715
1474 0.19769251
1472 0.82318926
1470 1.6800439
1468 2.5269713
1466 3.2460585
1464 3.8258405
1462 4.3532629
1460 4.9051433
1458 5.5036526
1456 6.0875001
1454 6.5157928
1452 6.7112274
1450 6.7050815
1448 6.5584221
1446 6.3353181
1444 6.0696287
1442 5.7550392
1440 5.3836069
1438 4.9550562
1436 4.4593687
1434 3.877811
1432 3.2269497
1430 2.5745885
1428 1.9996641
1426 1.5751029
1424 1.3400365
1422 1.2862614
1420 1.3819157
1418 1.5779365
1416 1.8302685
1414 2.110522
1412 2.4140491
1410 2.7627046
1408 3.1725349
1406 3.6410265
1404 4.1509547
1402 4.6703596
1400 5.1675282
1398 5.616312
1396 5.9964356
1394 6.2936668
1392 6.4918399
1390 6.5710478
1388 6.5148077
1386 6.3165202
1384 5.9898491
1382 5.5752401
1380 5.1170216
1378 4.6551437
1376 4.2189031
1374 3.8221226
1372 3.4680059
1370 3.1472986
1368 2.8372481
1366 2.5011537
1364 2.1135952
1362 1.6748562
1360 1.2122215
1358 0.78314459
1356 0.43654627
1354 0.19445089
1352 0.056981742
1350 0.00031914935
1348 0.0026383214
1346 0.054525215
1344 0.15354079
1342 0.30120319
1340 0.48356658
1338 0.6617825
1336 0.800322
1334 0.88131917
1332 0.90947998
1330 0.91824013
1328 0.93687195
1326 0.97737712
1324 1.0494409
1322 1.1644733
1320 1.3292291
1318 1.539629
1316 1.7765
1314 2.0016663
1312 2.1853228
1310 2.3199713
1308 2.4086163
1306 2.4625499
1304 2.4893107
1302 2.4880519
1300 2.4644294
1298 2.4391651
1296 2.4359
1294 2.4758017
1292 2.5656621
1290 2.6887462
1288 2.8243961
1286 2.9567266
1284 3.0804331
1282 3.206449
1280 3.3466225
1278 3.506923
1276 3.6890628
1274 3.8898101
1272 4.1076083
1270 4.3455548
1268 4.608954
1266 4.9053454
1264 5.2416205
1262 5.6229773
1260 6.054472
1258 6.5412273
1256 7.086894
1254 7.690917
1252 8.3451214
1250 9.0284529
1248 9.7157412
1246 10.3815
1244 11.00616
1242 11.579974
1240 12.099206
1238 12.560378
1236 12.955357
1234 13.263804
1232 13.45448
1230 13.486518
1228 13.33062
1226 12.988092
1224 12.477211
1222 11.837973
1220 11.112106
1218 10.333908
1216 9.5352688
1214 8.7460222
1212 7.9933529
1210 7.2954283
1208 6.6610599
1206 6.0837846
1204 5.5516157
1202 5.0482225
1200 4.5536556
1198 4.0443711
1196 3.5020216
1194 2.9238896
1192 2.324044
1190 1.743646
1188 1.2252929
1186 0.79879338
1184 0.47938418
1182 0.2569581
1180 0.11612035
1178 0.043123636
1176 0.026144601
1174 0.056296416
1172 0.12247746
1170 0.20735157
1168 0.29348931
1166 0.36722913
1164 0.42128813
1162 0.46055809
1160 0.49148601
1158 0.5172171
1156 0.53732485
1154 0.54513705
1152 0.53315187
1150 0.49544698
1148 0.42730498
1146 0.32704824
1144 0.20341812
1142 0.087424643
1140 0.013909983
1138 0.01340922
1136 0.10796075
1134 0.30078781
1132 0.58075982
1130 0.91391802
1128 1.2668109
1126 1.6209729
1124 1.9670459
1122 2.3086956
1120 2.6480198
1118 2.9760888
1116 3.28
1114 3.5449176
1112 3.7610857
1110 3.9328752
1108 4.072504
1106 4.203115
1104 4.3511629
1102 4.5436411
1100 4.797895
1098 5.1062303
1096 5.4457998
1094 5.7717919
1092 6.0518603
1090 6.299922
1088 6.5528207
1086 6.8740373
1084 7.3016391
1082 7.7898469
1080 8.2680359
1078 8.6567945
1076 8.9051104
1074 9.0422382
1072 9.1136179
1070 9.153965
1068 9.1847868
1066 9.1992712
1064 9.1861439
1062 9.1405869
1060 9.0575037
1058 8.9264059
1056 8.7370739
1054 8.4838886
1052 8.1662169
1050 7.7957268
1048 7.3911686
1046 6.9824677
1044 6.6023989
1042 6.2820015
1040 6.0393939
1038 5.8547106
1036 5.6911201
1034 5.4901676
1032 5.2034636
1030 4.82797
1028 4.3832006
1026 3.921042
1024 3.4902709
1022 3.1067891
1020 2.7724893
1018 2.4719298
1016 2.1910858
1014 1.9322182
1012 1.7000326
1010 1.4939253
1008 1.312152
1006 1.1533056
1004 1.0125165
1002 0.87279713
1000 0.71208131
998 0.50151044
996 0.22330683
994 -0.10025984
992 -0.43824378
990 -0.76369894
988 -1.0551717
986 -1.3053592
984 -1.5050337
982 -1.6280384
980 -1.649938
978 -1.566568
976 -1.38678
974 -1.1456926
972 -0.88254458
970 -0.62909633
968 -0.40966976
966 -0.23014644
964 -0.090905815
962 0.011026494
960 0.080734581
958 0.12768848
956 0.16224
954 0.1936838
952 0.2239392
950 0.23024806
948 0.19435039
946 0.1351006
944 0.07233876
942 -0.0030706674
940 -0.095810734
938 -0.1688939
936 -0.18302715
934 -0.12840897
932 -0.010631904
930 0.13517156
928 0.26821318
926 0.35436386
924 0.3779822
922 0.38630727
920 0.43402177
918 0.5447095
916 0.7230407
914 0.93120801
912 1.12472
910 1.2743829
908 1.3621119
906 1.3982464
904 1.4047921
902 1.4210708
900 1.4843488
898 1.6063659
896 1.7923
