Image.
>Pix99999.
  .
5555
5555
2300
900
5555
2
1
0
701
5555
3.3675000e-002
3.4390975e-002
3.5105955e-002
3.5821926e-002
3.6536910e-002
3.7252877e-002
3.7967864e-002
3.8683828e-002
3.9398815e-002
4.0114779e-002
4.0829770e-002
4.1545734e-002
4.2260725e-002
4.2976685e-002
4.3691680e-002
4.4407636e-002
4.5122635e-002
4.5838587e-002
4.6553589e-002
4.7269538e-002
4.7984544e-002
4.8700489e-002
4.9415495e-002
5.0131440e-002
5.0846450e-002
5.1562391e-002
4.2743195e-002
1.6355057e-003
-4.5195840e-002
1.2728765e-003
6.1706584e-002
1.5396596e-001
2.4412023e-001
2.3582427e-001
2.2354548e-001
2.1789600e-001
2.3969376e-001
3.8597333e-001
5.5355525e-001
7.6608080e-001
9.5017970e-001
1.0666054e+000
1.1451100e+000
1.1682837e+000
1.1720302e+000
1.1558250e+000
1.1306888e+000
1.0979359e+000
1.0581634e+000
1.0134571e+000
9.4959933e-001
8.7491214e-001
8.2551265e-001
7.8758812e-001
8.1647015e-001
8.6678553e-001
9.5656639e-001
1.0551239e+000
1.1865557e+000
1.3222371e+000
1.4116886e+000
1.4822609e+000
1.3885897e+000
1.2685170e+000
1.0874245e+000
9.3340307e-001
8.9995342e-001
9.1726363e-001
1.0336930e+000
1.1420022e+000
1.2157700e+000
1.2465223e+000
1.2204018e+000
1.2237282e+000
1.2669785e+000
1.3892322e+000
1.5776634e+000
1.7352480e+000
1.8667258e+000
1.8734705e+000
1.8137772e+000
1.7418240e+000
1.6670974e+000
1.7296076e+000
1.8359120e+000
2.0211241e+000
2.2241004e+000
2.3455286e+000
2.4481149e+000
2.4414353e+000
2.4174242e+000
2.3794999e+000
2.3543229e+000
2.3930097e+000
2.4453695e+000
2.5105801e+000
2.5444639e+000
2.5055008e+000
2.4269619e+000
2.3003373e+000
2.1830857e+000
2.0878031e+000
2.0195694e+000
1.9760857e+000
1.9442314e+000
1.9181100e+000
1.9251617e+000
1.9532766e+000
2.0272641e+000
2.1244974e+000
2.2066016e+000
2.2814341e+000
2.2905960e+000
2.2790308e+000
2.2760627e+000
2.2778220e+000
2.3308434e+000
2.3886895e+000
2.3779962e+000
2.3382099e+000
2.2124143e+000
2.0819430e+000
1.9998531e+000
1.9585973e+000
2.0022006e+000
2.0518358e+000
2.0833418e+000
2.0891366e+000
2.0573497e+000
2.0489764e+000
2.0727215e+000
2.1206312e+000
2.1868753e+000
2.2076139e+000
2.1927435e+000
2.1393223e+000
2.0669909e+000
2.0465288e+000
2.0556977e+000
2.1133583e+000
2.1878800e+000
2.2347236e+000
2.2685275e+000
2.2929239e+000
2.3128297e+000
2.3225086e+000
2.3230503e+000
2.2878819e+000
2.2345190e+000
2.1553206e+000
2.0523999e+000
1.9059318e+000
1.7755520e+000
1.6926153e+000
1.7107520e+000
1.8676835e+000
2.0640182e+000
2.2699587e+000
2.3947480e+000
2.4326479e+000
2.4269171e+000
2.4022632e+000
2.4495232e+000
2.5578337e+000
2.6817441e+000
2.8078585e+000
2.7403593e+000
2.5660377e+000
2.3048320e+000
2.0099390e+000
1.8911600e+000
1.8376585e+000
1.8804137e+000
1.9392048e+000
1.9229186e+000
1.8716249e+000
1.7506794e+000
1.6348305e+000
1.5628334e+000
1.5291162e+000
1.5482057e+000
1.5509944e+000
1.5076081e+000
1.4125957e+000
1.2750028e+000
1.2049056e+000
1.2498728e+000
1.4864662e+000
1.8874213e+000
2.2677701e+000
2.5749657e+000
2.6780956e+000
2.6397207e+000
2.5562971e+000
2.4668489e+000
2.3711836e+000
2.2694962e+000
2.1657250e+000
2.0559366e+000
2.0561209e+000
2.1012287e+000
2.2076557e+000
2.3301024e+000
2.3727360e+000
2.3604407e+000
2.2137735e+000
2.0086997e+000
1.7714695e+000
1.5456423e+000
1.3878294e+000
1.3029200e+000
1.3401842e+000
1.4945474e+000
1.7825338e+000
2.0737565e+000
2.2798278e+000
2.2823122e+000
2.0623431e+000
1.7725617e+000
1.4851832e+000
1.2898571e+000
1.1806723e+000
1.1286634e+000
1.1184540e+000
1.1665680e+000
1.2623535e+000
1.3451772e+000
1.4276980e+000
1.3590680e+000
1.2058558e+000
1.0344238e+000
8.5940421e-001
8.0659622e-001
8.6237818e-001
1.0822204e+000
1.3814751e+000
1.6305228e+000
1.7456132e+000
1.6251920e+000
1.3530846e+000
1.0161120e+000
7.0157802e-001
4.7117895e-001
3.4986493e-001
3.1770930e-001
3.8697299e-001
5.3058237e-001
6.4507508e-001
7.3036653e-001
7.0572400e-001
6.0301501e-001
6.0746437e-001
6.7739481e-001
8.6177754e-001
1.0879155e+000
1.1761435e+000
1.1660622e+000
1.1043627e+000
1.0200824e+000
1.0429727e+000
1.1407743e+000
1.3217479e+000
1.4945508e+000
1.4185474e+000
1.1793063e+000
7.8761345e-001
4.0108880e-001
2.1494251e-001
6.8378285e-002
-1.2227470e-001
-2.8386515e-001
-3.7716603e-001
-2.5413084e-001
1.2678099e-001
6.0972577e-001
1.1014296e+000
1.2956874e+000
1.1656743e+000
9.3725049e-001
6.9500828e-001
8.0102402e-001
1.2026942e+000
1.5346240e+000
1.7647510e+000
1.4670074e+000
8.0227649e-001
2.5862101e-001
-1.2597233e-001
7.4537486e-002
7.9437184e-001
1.9675400e+000
3.2880492e+000
4.1718946e+000
4.7171259e+000
5.1059599e+000
5.6818805e+000
6.8337541e+000
8.8523607e+000
1.1839488e+001
1.5603071e+001
1.9799856e+001
2.3463739e+001
2.6279583e+001
2.8655773e+001
3.0895937e+001
3.3968399e+001
3.7919540e+001
4.2608692e+001
4.7786682e+001
5.2168240e+001
5.5810913e+001
5.9476261e+001
6.3263794e+001
6.7619972e+001
7.2398582e+001
7.7024399e+001
8.1479332e+001
8.5766884e+001
8.9869324e+001
9.3799866e+001
9.7514343e+001
1.0098737e+002
1.0400960e+002
1.0631483e+002
1.0731743e+002
1.0642964e+002
1.0424429e+002
1.0143774e+002
9.8272453e+001
9.5029556e+001
9.1189972e+001
8.6576683e+001
8.1748222e+001
7.6904297e+001
7.2453125e+001
6.8469902e+001
6.4362839e+001
6.0067734e+001
5.5694576e+001
5.1272339e+001
4.7054028e+001
4.3060802e+001
3.9507008e+001
3.6405270e+001
3.3805141e+001
3.1683342e+001
2.9864376e+001
2.8357403e+001
2.7116961e+001
2.6139221e+001
2.5386002e+001
2.4834702e+001
2.4416492e+001
2.4127491e+001
2.3936857e+001
2.3867901e+001
2.3943800e+001
2.4181110e+001
2.4598774e+001
2.5236919e+001
2.6094114e+001
2.7136318e+001
2.8302288e+001
2.9424240e+001
3.0450720e+001
3.1392843e+001
3.2272205e+001
3.3521820e+001
3.5254189e+001
3.7786018e+001
4.1106358e+001
4.3940281e+001
4.6101177e+001
4.7481533e+001
4.8167892e+001
4.8954678e+001
4.9821449e+001
5.0659752e+001
5.1251522e+001
5.1039444e+001
5.0057430e+001
4.8500637e+001
4.6597031e+001
4.4819389e+001
4.3161720e+001
4.1610897e+001
4.0144665e+001
3.8699318e+001
3.7263680e+001
3.5724812e+001
3.4061401e+001
3.2272999e+001
3.0402081e+001
2.8551661e+001
2.6337780e+001
2.3653564e+001
2.0804846e+001
1.7764414e+001
1.5235263e+001
1.3295540e+001
1.1527143e+001
9.9603252e+000
8.4245224e+000
6.9610929e+000
5.5691633e+000
4.2529292e+000
2.9938879e+000
1.8153288e+000
8.5829008e-001
2.2221491e-001
3.1352073e-002
3.9290294e-001
1.2057006e+000
2.1547320e+000
2.9641848e+000
3.5628293e+000
3.9785028e+000
4.4622498e+000
5.1755691e+000
5.9972615e+000
6.8903799e+000
7.4385452e+000
7.3643360e+000
7.1053939e+000
6.5935559e+000
6.1436253e+000
5.7853351e+000
5.4285889e+000
5.1042299e+000
4.8184390e+000
4.6082897e+000
4.3692551e+000
4.0966992e+000
3.7336009e+000
3.2984540e+000
2.9799020e+000
2.8268056e+000
2.9272265e+000
3.2482860e+000
3.6601126e+000
4.0547485e+000
4.2789459e+000
4.3711052e+000
4.4311013e+000
4.5321231e+000
4.7667565e+000
5.0809760e+000
5.4425101e+000
5.8103681e+000
6.1523600e+000
6.4585929e+000
6.6731367e+000
6.8106537e+000
6.7470241e+000
6.5894980e+000
6.2686000e+000
5.8767138e+000
5.4016218e+000
4.9403543e+000
4.5299401e+000
4.1934943e+000
3.9722972e+000
3.7745321e+000
3.5766811e+000
3.3339200e+000
3.0012555e+000
2.5886750e+000
2.1182148e+000
1.5822486e+000
1.0617055e+000
6.4226604e-001
3.0468911e-001
1.2988526e-001
3.4139253e-002
2.5447661e-002
8.1412107e-002
1.9247440e-001
3.4809774e-001
6.0009390e-001
8.3799356e-001
1.0138680e+000
1.1386504e+000
1.0872056e+000
1.0317583e+000
9.6993607e-001
9.6359491e-001
1.0842115e+000
1.2754246e+000
1.5844171e+000
1.9186133e+000
2.2716100e+000
2.5627213e+000
2.7569399e+000
2.8639805e+000
2.8777583e+000
2.8678565e+000
2.8392582e+000
2.8084810e+000
2.7761281e+000
2.7165596e+000
2.6617427e+000
2.6185079e+000
2.6033959e+000
2.6442468e+000
2.6994560e+000
2.7640443e+000
2.8142059e+000
2.8143616e+000
2.8212838e+000
2.8428309e+000
2.9041700e+000
3.0560269e+000
3.2357993e+000
3.4718020e+000
3.7130980e+000
3.9565022e+000
4.2099867e+000
4.4639516e+000
4.7201538e+000
4.9772458e+000
5.2322574e+000
5.4931040e+000
5.7839251e+000
6.1060343e+000
6.4772725e+000
6.8777499e+000
7.2803183e+000
7.6701307e+000
8.0033426e+000
8.3032494e+000
8.5486050e+000
8.7633877e+000
8.9170074e+000
9.0177164e+000
8.9682417e+000
8.8401756e+000
8.4980316e+000
8.0999994e+000
7.5691013e+000
7.0303741e+000
6.4769115e+000
5.9367852e+000
5.4217567e+000
4.9175634e+000
4.4274569e+000
3.9398429e+000
3.4554441e+000
2.9849067e+000
2.5372372e+000
2.1351662e+000
1.7710214e+000
1.4243671e+000
1.0803303e+000
7.0471561e-001
3.2653299e-001
-6.4725280e-003
-2.8490332e-001
-4.0118369e-001
-4.3817171e-001
-2.9647538e-001
-1.0547599e-001
1.8934090e-001
4.7811973e-001
7.1361125e-001
9.1027784e-001
9.8363626e-001
1.0463594e+000
1.0862330e+000
1.1463269e+000
1.2460160e+000
1.3390558e+000
1.4149239e+000
1.4400063e+000
1.3858501e+000
1.2355721e+000
9.7611964e-001
6.5927446e-001
3.1808418e-001
1.0960637e-001
2.9723920e-002
1.7150800e-001
4.5031360e-001
8.5443610e-001
1.3121666e+000
1.8028743e+000
2.2920992e+000
2.7310753e+000
3.1333840e+000
3.3880720e+000
3.5969038e+000
3.6321630e+000
3.6472712e+000
3.5918093e+000
3.5508573e+000
3.5584979e+000
3.5984650e+000
3.7168834e+000
3.8478777e+000
4.0056620e+000
4.1887317e+000
4.4271998e+000
4.7911491e+000
5.3210659e+000
5.9586368e+000
6.6818213e+000
7.2828007e+000
7.7598376e+000
8.0097237e+000
8.1188107e+000
8.1689463e+000
8.1962872e+000
8.2460203e+000
8.2905502e+000
8.2532654e+000
8.1863899e+000
8.0443068e+000
7.8990278e+000
7.8042998e+000
7.7313104e+000
7.7820778e+000
7.8542457e+000
8.0194187e+000
8.1914616e+000
8.3848658e+000
8.5597687e+000
8.6879177e+000
8.7927322e+000
8.8547678e+000
8.9394007e+000
9.0559082e+000
9.1823997e+000
9.3085747e+000
9.3075981e+000
9.1797876e+000
8.8817568e+000
8.4729462e+000
8.1124163e+000
7.7911282e+000
7.6263294e+000
7.5133953e+000
7.3223114e+000
7.0907507e+000
6.6426058e+000
6.1441283e+000
5.4860320e+000
4.8115606e+000
4.0992775e+000
3.4193714e+000
2.9632673e+000
2.5685618e+000
2.4419641e+000
2.3155050e+000
2.1829989e+000
1.9824839e+000
1.6261880e+000
1.2603464e+000
8.8798857e-001
6.3788325e-001
5.6112456e-001
6.3504946e-001
8.6458570e-001
1.1188713e+000
1.3862989e+000
1.5407356e+000
1.6222984e+000
1.5904649e+000
1.5074168e+000
1.4150460e+000
1.3188536e+000
1.2282966e+000
1.1345345e+000
9.6249962e-001
7.7784801e-001
5.2366436e-001
2.7331382e-001
1.2166376e-001
6.7746788e-003
5.9021264e-003
1.9339696e-001
6.3084388e-001
1.0694857e+000
1.5121158e+000
1.9268544e+000
2.2814641e+000
2.5993452e+000
2.8566113e+000
2.9987700e+000
3.0005620e+000
2.9109931e+000
2.7368982e+000
2.6294200e+000
2.5694599e+000
2.6292400e+000
2.7555659e+000
2.9321270e+000
3.1328316e+000
3.2629628e+000
3.3784363e+000
3.4101563e+000
3.4300468e+000
3.6025000e+000
