Image.
>Pix99999.
  .
5555
5555
2300
900
5555
2
1
0
701
5555
-6.2099998e-003
-6.3391151e-003
-6.4683300e-003
-6.5975455e-003
-6.7267604e-003
-6.8559758e-003
-6.9850916e-003
-7.1142069e-003
-7.2435201e-003
-7.3728347e-003
-7.5018541e-003
-7.6305745e-003
-7.7602733e-003
-7.8910673e-003
-8.0186464e-003
-8.1419563e-003
-8.2769049e-003
-8.4282113e-003
-8.5359532e-003
-8.5826730e-003
-8.7913973e-003
-9.2277927e-003
-9.0619139e-003
-8.0467891e-003
-9.2703430e-003
-1.2507750e-002
-4.6896571e-004
4.0375192e-002
8.9173242e-002
1.1692553e-001
1.0106985e-001
2.8856976e-002
-8.0544800e-002
-2.0034432e-001
-3.0994454e-001
-3.8995799e-001
-4.1822085e-001
-3.7729743e-001
-2.7209356e-001
-1.2168595e-001
2.4412286e-002
1.1621705e-001
1.3829240e-001
9.2346631e-002
6.8603116e-003
-8.5328184e-002
-1.6606970e-001
-2.2508122e-001
-2.6521051e-001
-2.9277608e-001
-3.1201428e-001
-3.2709950e-001
-3.4489840e-001
-3.7211075e-001
-4.1120887e-001
-4.5841798e-001
-4.8999161e-001
-4.7994497e-001
-4.1904229e-001
-3.1037492e-001
-1.8460943e-001
-7.6627642e-002
-2.2390666e-003
3.3329148e-002
4.1670613e-002
3.8572285e-002
3.4763623e-002
3.9624631e-002
6.4467467e-002
1.1765024e-001
1.9253400e-001
2.7452490e-001
3.3722302e-001
3.5677823e-001
3.3574036e-001
2.8847179e-001
2.3987681e-001
2.1093601e-001
1.9255775e-001
1.6782042e-001
1.3153744e-001
8.9317136e-002
7.2738484e-002
1.1099615e-001
1.8566760e-001
2.6167178e-001
3.0735913e-001
3.0264449e-001
2.6774737e-001
2.3114927e-001
1.9439915e-001
1.5028380e-001
9.8790444e-002
4.4300202e-002
-3.0800640e-003
-3.3485968e-002
-4.6520025e-002
-4.4705097e-002
-2.7463760e-002
5.0843726e-003
4.4415671e-002
8.0117404e-002
1.0761209e-001
1.2735431e-001
1.5070458e-001
1.8927750e-001
2.3837075e-001
2.8596431e-001
3.1717983e-001
3.2037801e-001
3.0100188e-001
2.7071464e-001
2.3832120e-001
2.0859016e-001
1.7556620e-001
1.2881750e-001
5.7200834e-002
-4.7798678e-002
-1.8333015e-001
-3.3820659e-001
-4.8596686e-001
-5.9644043e-001
-6.4956629e-001
-6.3744968e-001
-5.8418012e-001
-5.2448040e-001
-4.8173800e-001
-4.6691537e-001
-4.6190506e-001
-4.4284907e-001
-4.1330430e-001
-3.9057004e-001
-3.9700761e-001
-4.4720000e-001
-5.1643312e-001
-5.6554705e-001
-5.6790072e-001
-5.1452947e-001
-4.4355637e-001
-4.0853712e-001
-4.4036999e-001
-5.4760271e-001
-6.9242549e-001
-8.2409346e-001
-9.2383116e-001
-9.9047971e-001
-1.0299668e+000
-1.0472120e+000
-1.0327880e+000
-9.7609901e-001
-8.9051789e-001
-8.0339104e-001
-7.5102538e-001
-7.6220375e-001
-8.1877476e-001
-8.7961411e-001
-9.0215796e-001
-8.5615391e-001
-7.6077998e-001
-6.5501803e-001
-5.6028342e-001
-4.8265719e-001
-4.0604043e-001
-3.1377223e-001
-2.3059841e-001
-1.9822407e-001
-2.4008997e-001
-3.5898176e-001
-5.1449519e-001
-6.5381622e-001
-7.6076955e-001
-8.4024918e-001
-9.0125477e-001
-9.4803172e-001
-9.6165043e-001
-9.1972995e-001
-8.3675110e-001
-7.4729633e-001
-6.8629897e-001
-6.7675489e-001
-6.9575173e-001
-7.0273036e-001
-6.8488258e-001
-6.5035564e-001
-6.2621474e-001
-6.3825065e-001
-6.6864347e-001
-6.8160462e-001
-6.6817230e-001
-6.3877249e-001
-6.1625469e-001
-6.2133998e-001
-6.4198929e-001
-6.5375316e-001
-6.5857857e-001
-6.7199808e-001
-6.9806761e-001
-7.2794306e-001
-7.3036879e-001
-6.7096186e-001
-5.5363142e-001
-4.0895975e-001
-2.8492251e-001
-2.3086651e-001
-2.6772156e-001
-3.9219323e-001
-5.6930649e-001
-7.4981916e-001
-8.9551103e-001
-9.7919017e-001
-9.8713797e-001
-9.1389823e-001
-7.5896370e-001
-5.3420609e-001
-2.9635456e-001
-1.2317625e-001
-6.8502992e-002
-1.5501083e-001
-3.4238178e-001
-5.5904812e-001
-7.5594062e-001
-9.0431827e-001
-9.8869467e-001
-1.0039301e+000
-9.6243680e-001
-8.8911104e-001
-8.1880420e-001
-7.8390568e-001
-7.8307188e-001
-7.9110825e-001
-7.7288598e-001
-6.9448054e-001
-5.4474580e-001
-3.3621225e-001
-1.2077778e-001
3.1767085e-002
7.6848626e-002
7.9127401e-004
-1.5586816e-001
-3.2402596e-001
-4.5449716e-001
-5.2329993e-001
-5.4443747e-001
-5.4946095e-001
-5.4514450e-001
-5.2036703e-001
-4.6936142e-001
-3.9438713e-001
-3.0761206e-001
-2.2117686e-001
-1.2027014e-001
1.9603692e-002
1.8084919e-001
3.1961286e-001
4.1340771e-001
4.6320835e-001
4.9277639e-001
5.3418553e-001
5.9606802e-001
6.7140383e-001
7.6389515e-001
8.7868470e-001
9.8265612e-001
1.0169879e+000
9.3361121e-001
7.1526164e-001
4.3328500e-001
2.0254001e-001
5.4085761e-002
-3.9502703e-002
-5.9359901e-002
4.7257416e-002
2.9211920e-001
6.3838434e-001
9.8952585e-001
1.2247678e+000
1.2915732e+000
1.2123616e+000
1.0982234e+000
1.0909206e+000
1.2047200e+000
1.3401221e+000
1.3520023e+000
1.1111162e+000
6.5488070e-001
1.5371805e-001
-2.0616104e-001
-2.6046830e-001
8.4171250e-002
8.3269405e-001
1.8272042e+000
2.8140960e+000
3.6466560e+000
4.3140736e+000
4.9675899e+000
5.8646369e+000
7.2344995e+000
9.2439852e+000
1.1953175e+001
1.5284110e+001
1.8890285e+001
2.2275848e+001
2.5209610e+001
2.7773262e+001
3.0359257e+001
3.3532135e+001
3.7654015e+001
4.2761139e+001
4.8293999e+001
5.3380280e+001
5.7851784e+001
6.2195145e+001
6.6862793e+001
7.2058495e+001
7.7459068e+001
8.2381050e+001
8.6430412e+001
8.9563156e+001
9.1890434e+001
9.3599648e+001
9.4858452e+001
9.5781723e+001
9.6379982e+001
9.6562149e+001
9.6165703e+001
9.5044075e+001
9.3348869e+001
9.1464432e+001
8.9593010e+001
8.7694389e+001
8.5570396e+001
8.2959808e+001
7.9793686e+001
7.6190628e+001
7.2248329e+001
6.8002884e+001
6.3463760e+001
5.8647591e+001
5.3667908e+001
4.8725800e+001
4.4008629e+001
3.9668926e+001
3.5827087e+001
3.2559219e+001
2.9840778e+001
2.7561029e+001
2.5625299e+001
2.3980520e+001
2.2619526e+001
2.1565218e+001
2.0819000e+001
2.0352978e+001
2.0119377e+001
2.0065392e+001
2.0171913e+001
2.0456270e+001
2.0944366e+001
2.1668440e+001
2.2705454e+001
2.4168476e+001
2.6139372e+001
2.8632145e+001
3.1512264e+001
3.4519691e+001
3.7450798e+001
4.0203342e+001
4.2743843e+001
4.5128742e+001
4.7623661e+001
5.0596157e+001
5.3905670e+001
5.6872128e+001
5.8937172e+001
5.9875683e+001
5.9902821e+001
5.9577179e+001
5.9152332e+001
5.8445797e+001
5.7146420e+001
5.4980610e+001
5.2090683e+001
4.9048466e+001
4.6309284e+001
4.4061928e+001
4.2291676e+001
4.0806549e+001
3.9364937e+001
3.7727989e+001
3.5741646e+001
3.3387516e+001
3.0840385e+001
2.8427433e+001
2.6284321e+001
2.4275295e+001
2.2182106e+001
1.9803064e+001
1.7182325e+001
1.4630680e+001
1.2368492e+001
1.0427750e+001
8.7551718e+000
7.2514873e+000
5.8623967e+000
4.5949087e+000
3.4306052e+000
2.3179872e+000
1.2745700e+000
4.1077754e-001
-1.5761907e-001
-3.3271128e-001
-1.9659966e-002
8.4460026e-001
2.1467919e+000
3.5787849e+000
4.9096298e+000
6.0757141e+000
7.1211228e+000
8.1764679e+000
9.3527622e+000
1.0684430e+001
1.2048200e+001
1.3154793e+001
1.3785717e+001
1.3882964e+001
1.3529354e+001
1.2939643e+001
1.2293703e+001
1.1677190e+001
1.1111452e+001
1.0554780e+001
9.9353533e+000
9.1725044e+000
8.2597609e+000
7.2938027e+000
6.3960037e+000
5.6802936e+000
5.2053347e+000
4.9519567e+000
4.8682036e+000
4.8834920e+000
4.9442201e+000
5.0304632e+000
5.1523714e+000
5.3483062e+000
5.6402655e+000
6.0158272e+000
6.4419217e+000
6.8654571e+000
7.2225800e+000
7.4432011e+000
7.4728932e+000
7.2902226e+000
6.9252343e+000
6.4693456e+000
6.0066009e+000
5.5858750e+000
5.2243109e+000
4.9040341e+000
4.6028576e+000
4.3017678e+000
3.9741514e+000
3.5836840e+000
3.1111360e+000
2.5690703e+000
1.9915303e+000
1.4312450e+000
9.2569387e-001
4.8351982e-001
1.1340266e-001
-1.6477466e-001
-3.2436928e-001
-3.3457261e-001
-1.7898914e-001
1.3188052e-001
5.6615531e-001
1.0716525e+000
1.6160920e+000
2.2015622e+000
2.8087780e+000
3.3699000e+000
3.7966685e+000
3.9949956e+000
3.9269960e+000
3.6499219e+000
3.2467055e+000
2.8053272e+000
2.4038815e+000
2.0981526e+000
1.9149269e+000
1.8376728e+000
1.8219399e+000
1.7957180e+000
1.7019588e+000
1.5236200e+000
1.2774256e+000
1.0206472e+000
8.0773580e-001
6.7032921e-001
6.2362736e-001
6.6461229e-001
7.9472286e-001
1.0293454e+000
1.3803692e+000
1.8450402e+000
2.3993721e+000
2.9885302e+000
3.5557265e+000
4.0561771e+000
4.4638038e+000
4.7822523e+000
5.0262384e+000
5.2180710e+000
5.3840575e+000
5.5540166e+000
5.7563181e+000
6.0143290e+000
6.3434687e+000
6.7473140e+000
7.2291479e+000
7.7973719e+000
8.4617319e+000
9.2319546e+000
1.0110216e+001
1.1084719e+001
1.2136817e+001
1.3238000e+001
1.4349192e+001
1.5416389e+001
1.6374435e+001
1.7145151e+001
1.7656485e+001
1.7853584e+001
1.7700480e+001
1.7194822e+001
1.6352072e+001
1.5220386e+001
1.3863726e+001
1.2375729e+001
1.0869159e+001
9.4854078e+000
8.3471146e+000
7.5258121e+000
7.0455098e+000
6.8570704e+000
6.8872495e+000
7.0486455e+000
7.2490478e+000
7.3948355e+000
7.4012966e+000
7.2071519e+000
6.7850499e+000
6.1690092e+000
5.4187884e+000
4.6165857e+000
3.8373969e+000
3.1282272e+000
2.5203698e+000
2.0257041e+000
1.6513752e+000
1.4028504e+000
1.2787800e+000
1.2615249e+000
1.3223877e+000
1.4172776e+000
1.5060114e+000
1.5662965e+000
1.5891852e+000
1.5854701e+000
1.5651188e+000
1.5255527e+000
1.4578500e+000
1.3466542e+000
1.1847892e+000
9.8757184e-001
7.7599043e-001
5.7043785e-001
3.8841075e-001
2.3934549e-001
1.2204765e-001
1.6693637e-002
-8.5927770e-002
-1.6080269e-001
-1.8644400e-001
-1.6885641e-001
-1.1779911e-001
-3.6903895e-002
6.6672444e-002
1.7340572e-001
2.5848800e-001
2.9283330e-001
2.5917369e-001
1.7235966e-001
5.9449363e-002
-4.2140603e-002
-1.0105708e-001
-1.0783785e-001
-6.3571885e-002
1.8027000e-002
1.2732223e-001
2.7277774e-001
4.6795428e-001
7.2736621e-001
1.0557899e+000
1.4322623e+000
1.8305063e+000
2.2261357e+000
2.6016936e+000
2.9548497e+000
3.2739933e+000
3.5130429e+000
3.6234872e+000
3.5740292e+000
3.3664069e+000
3.0787318e+000
2.7967358e+000
2.5755448e+000
2.4406681e+000
2.3592150e+000
2.2934427e+000
2.2327309e+000
2.1752400e+000
2.1262324e+000
2.0875432e+000
2.0475419e+000
2.0011675e+000
1.9700106e+000
1.9783403e+000
2.0384758e+000
2.1534829e+000
2.3067849e+000
2.4779799e+000
2.6470211e+000
2.7854183e+000
2.8400753e+000
2.7655635e+000
2.5584636e+000
2.2420230e+000
1.8861501e+000
1.5548526e+000
1.2593893e+000
9.9311829e-001
7.3552495e-001
4.7648084e-001
2.4715087e-001
7.6121718e-002
-4.7880679e-002
-1.5637572e-001
-3.1185111e-001
-5.5971217e-001
-8.6778510e-001
-1.1814643e+000
-1.4362640e+000
-1.5847486e+000
-1.6405361e+000
-1.6285139e+000
-1.5618258e+000
-1.4471668e+000
-1.2818229e+000
-1.0746677e+000
-8.7993300e-001
-7.5182313e-001
-7.0766801e-001
-7.4215418e-001
-8.0563200e-001
-8.5035944e-001
-8.7184000e-001
-8.7709397e-001
-8.7554920e-001
-8.6881417e-001
-8.2987005e-001
-7.3360962e-001
-5.8612943e-001
-4.0704039e-001
-2.3570877e-001
-1.0746269e-001
-2.5890464e-002
1.6418839e-002
3.7698366e-002
4.8187599e-002
2.0134613e-002
-6.8831086e-002
-1.8726900e-001
-2.9145232e-001
-3.4189099e-001
-3.0693239e-001
-1.8005255e-001
4.1970044e-002
3.7328124e-001
8.2114881e-001
1.3564546e+000
1.9311886e+000
2.4599929e+000
2.8615046e+000
3.1049490e+000
3.1888902e+000
3.1758149e+000
3.1215680e+000
2.9931946e+000
2.7587979e+000
2.4785526e+000
2.2356999e+000
