Image.
>Pix99999.
  .
5555
5555
2300
900
5555
2
1
0
701
5555
1.5060000e-001
1.5372553e-001
1.5686102e-001
1.5999654e-001
1.6313206e-001
1.6625765e-001
1.6939309e-001
1.7252861e-001
1.7566411e-001
1.7878975e-001
1.8192515e-001
1.8506067e-001
1.8819618e-001
1.9132186e-001
1.9445720e-001
1.9759272e-001
2.0072822e-001
2.0385399e-001
2.0698924e-001
2.1012476e-001
2.1325058e-001
2.1638580e-001
2.1952131e-001
2.2265683e-001
2.2578268e-001
2.2891785e-001
9.1775678e-002
3.3356957e-003
-5.9034240e-002
-9.5016204e-002
-1.2739508e-001
-1.5509082e-001
-1.8026257e-001
-1.5646420e-001
-1.3011229e-001
-1.0289500e-001
-8.7793738e-002
-1.2887578e-001
-1.6835766e-001
-1.9414435e-001
-2.0007515e-001
-1.6430269e-001
-1.2705441e-001
-9.1360867e-002
-5.6043003e-002
-2.1053221e-002
2.3963060e-002
7.8766026e-002
1.3276879e-001
1.8575999e-001
2.5143355e-001
3.2440060e-001
4.1948950e-001
5.2401727e-001
5.6766766e-001
5.9135449e-001
5.3258401e-001
4.5516619e-001
3.9978540e-001
3.4807250e-001
3.1293601e-001
2.7606434e-001
2.0184706e-001
1.2715499e-001
6.9661766e-002
3.6295317e-002
8.4505208e-002
1.6525599e-001
3.0862343e-001
4.3904158e-001
5.3301603e-001
5.7551277e-001
5.4887688e-001
5.1707649e-001
4.8752376e-001
4.7827712e-001
4.8672172e-001
4.9600130e-001
5.0442958e-001
5.2836359e-001
5.6085515e-001
5.7981783e-001
5.9309173e-001
5.8263785e-001
5.6487322e-001
5.6903964e-001
5.7827038e-001
5.7941377e-001
5.7982093e-001
5.9230953e-001
6.1316943e-001
6.8477964e-001
7.5334984e-001
7.7691144e-001
7.7287626e-001
7.0526361e-001
6.3642770e-001
5.8512092e-001
5.3678763e-001
4.8883432e-001
4.2865857e-001
3.5192755e-001
2.9841644e-001
2.7143666e-001
2.8671736e-001
3.3464751e-001
3.7729597e-001
4.1379383e-001
3.9194342e-001
3.3935073e-001
2.8500515e-001
2.3128322e-001
2.6737240e-001
3.3216330e-001
4.4626155e-001
5.6908435e-001
6.0822660e-001
6.1840302e-001
5.1247728e-001
3.8332969e-001
2.5277057e-001
1.4208694e-001
1.0012705e-001
8.5460983e-002
1.0190482e-001
1.1235464e-001
9.7131215e-002
4.5218848e-002
-5.0938889e-002
-1.5480511e-001
-2.5335914e-001
-3.0452079e-001
-3.1140780e-001
-2.6811558e-001
-1.9411477e-001
-8.0929406e-002
5.2229621e-002
1.8516919e-001
3.1528282e-001
3.4171149e-001
3.2648000e-001
1.9591865e-001
3.0878592e-002
-1.0732365e-001
-2.3032182e-001
-2.5598529e-001
-2.4884346e-001
-1.9484900e-001
-1.2591252e-001
-5.6853116e-002
1.3356571e-002
7.8801163e-002
1.2533124e-001
1.4425381e-001
1.1504560e-001
2.9817123e-002
-8.7875575e-002
-2.3273680e-001
-3.5521504e-001
-4.5217150e-001
-4.8037001e-001
-4.5393988e-001
-3.4513217e-001
-1.8467915e-001
-6.4622082e-002
2.4327114e-002
-7.4318863e-002
-2.6510325e-001
-4.7116163e-001
-6.7716712e-001
-7.4996287e-001
-7.7194774e-001
-7.6972055e-001
-7.5756747e-001
-7.7469122e-001
-8.1076252e-001
-8.8834560e-001
-9.9082518e-001
-1.0865549e+000
-1.1664913e+000
-1.1989743e+000
-1.2132127e+000
-1.2368020e+000
-1.2476667e+000
-1.2515063e+000
-1.1683079e+000
-9.8478854e-001
-7.2603738e-001
-4.0486342e-001
-2.0028919e-001
-9.7339913e-002
-1.0829417e-001
-1.9028103e-001
-2.8669778e-001
-3.8884291e-001
-5.9268475e-001
-8.4885556e-001
-1.0948756e+000
-1.3283035e+000
-1.3191942e+000
-1.2003857e+000
-9.2973518e-001
-6.2184644e-001
-4.3663162e-001
-3.6005947e-001
-5.1997691e-001
-7.9406607e-001
-1.1415236e+000
-1.4725863e+000
-1.7171683e+000
-1.8184201e+000
-1.7398230e+000
-1.4482681e+000
-9.4271505e-001
-4.8252693e-001
-1.2726061e-001
-1.4287522e-001
-4.8659909e-001
-9.6124732e-001
-1.4900247e+000
-1.8781257e+000
-2.1625149e+000
-2.1894207e+000
-2.0705435e+000
-1.7426120e+000
-1.3211929e+000
-1.1383771e+000
-1.1065724e+000
-1.4051589e+000
-1.8309703e+000
-2.1091430e+000
-2.2407081e+000
-2.0533793e+000
-1.6975564e+000
-1.2210715e+000
-8.2333058e-001
-7.0889705e-001
-8.3195686e-001
-1.2162688e+000
-1.6350158e+000
-1.9735000e+000
-2.1481206e+000
-2.1453478e+000
-2.0599184e+000
-1.9369617e+000
-1.7781301e+000
-1.5897126e+000
-1.2972592e+000
-9.3121964e-001
-5.3501678e-001
-1.3241507e-001
1.2297925e-001
2.9201159e-001
2.2056887e-001
2.6982840e-002
-1.6985451e-001
-3.3960497e-001
-3.6275983e-001
-2.7326110e-001
-4.1506439e-002
2.8508732e-001
6.8659449e-001
1.0258322e+000
1.1344087e+000
1.0300285e+000
7.2446221e-001
4.2573678e-001
2.7453193e-001
9.1376513e-002
-1.0335380e-001
-1.3613215e-001
6.0991272e-003
5.2172446e-001
1.3978598e+000
2.3340652e+000
3.2306144e+000
3.5478153e+000
3.3598964e+000
3.0097585e+000
2.5990412e+000
2.5189400e+000
2.6752453e+000
2.5587132e+000
2.2268021e+000
1.4388678e+000
4.2760333e-001
-2.2439554e-001
-4.6918511e-001
1.3297668e-001
1.4035835e+000
3.1754558e+000
4.8918014e+000
5.8367920e+000
6.3331385e+000
6.6672101e+000
7.3391733e+000
8.7368479e+000
1.1026331e+001
1.4247705e+001
1.7847015e+001
2.1551287e+001
2.4692049e+001
2.7071800e+001
2.9342487e+001
3.1681942e+001
3.4902920e+001
3.8993515e+001
4.3442486e+001
4.8113201e+001
5.1984688e+001
5.5174156e+001
5.8575901e+001
6.2194805e+001
6.6316940e+001
7.0750916e+001
7.4871902e+001
7.8752487e+001
8.2461975e+001
8.6057297e+001
8.9589119e+001
9.3074463e+001
9.6501328e+001
9.9593941e+001
1.0205716e+002
1.0294331e+002
1.0164393e+002
9.8933708e+001
9.5530685e+001
9.1994980e+001
8.8609612e+001
8.4834373e+001
8.0510658e+001
7.5962357e+001
7.1352325e+001
6.7132065e+001
6.3321259e+001
5.9467121e+001
5.5495049e+001
5.1456089e+001
4.7369476e+001
4.3381458e+001
3.9531322e+001
3.5989491e+001
3.2810612e+001
3.0092703e+001
2.7816835e+001
2.5862633e+001
2.4228870e+001
2.2865108e+001
2.1784603e+001
2.0953501e+001
2.0341768e+001
1.9887560e+001
1.9560217e+001
1.9322098e+001
1.9251122e+001
1.9372847e+001
1.9782640e+001
2.0492483e+001
2.1563387e+001
2.3003799e+001
2.4601021e+001
2.6315483e+001
2.7824713e+001
2.9072121e+001
3.0211929e+001
3.1260496e+001
3.2661110e+001
3.4520397e+001
3.7312611e+001
4.0917286e+001
4.4134869e+001
4.6839436e+001
4.8648975e+001
4.9800076e+001
5.1122250e+001
5.2648506e+001
5.4413406e+001
5.5796379e+001
5.6063080e+001
5.5192173e+001
5.3337021e+001
5.1274277e+001
4.9645660e+001
4.8454319e+001
4.7684998e+001
4.7037605e+001
4.6374107e+001
4.5173908e+001
4.3268764e+001
4.1012627e+001
3.8465302e+001
3.6163078e+001
3.4153664e+001
3.1779083e+001
2.8876928e+001
2.5729206e+001
2.2417336e+001
1.9640427e+001
1.7489870e+001
1.5510286e+001
1.3688152e+001
1.1893100e+001
1.0075350e+001
8.1731138e+000
6.1764464e+000
4.1008720e+000
2.2112694e+000
8.0879837e-001
3.0191898e-002
2.3374707e-002
6.4645606e-001
1.7202897e+000
2.6982388e+000
3.2358544e+000
3.5855708e+000
3.7783761e+000
4.1835918e+000
4.9886250e+000
5.9600883e+000
7.1080203e+000
7.8032022e+000
7.8250995e+000
7.5141468e+000
6.7837925e+000
6.0723071e+000
5.3959618e+000
4.8444366e+000
4.4618478e+000
4.2785349e+000
4.2644143e+000
4.2399821e+000
4.1218381e+000
3.7941749e+000
3.3610680e+000
3.0161815e+000
2.8602338e+000
2.9946024e+000
3.3194301e+000
3.7467663e+000
4.1209860e+000
4.2923241e+000
4.3994670e+000
4.4520059e+000
4.5746512e+000
4.8417401e+000
5.1997838e+000
5.7115440e+000
6.2679758e+000
6.8874865e+000
7.4001002e+000
7.7216945e+000
7.8143835e+000
7.5874157e+000
7.2455401e+000
6.7512302e+000
6.2313633e+000
5.6938238e+000
5.2338910e+000
4.8761625e+000
4.6397057e+000
4.4748139e+000
4.2804122e+000
4.0311699e+000
3.6771011e+000
3.2717829e+000
2.8474731e+000
2.3823051e+000
1.8716137e+000
1.3373228e+000
8.0918920e-001
3.8186607e-001
1.3464811e-001
1.4180366e-002
7.1200565e-002
2.3098287e-001
5.5766159e-001
9.4682384e-001
1.4163043e+000
1.7754713e+000
1.9110457e+000
1.8464565e+000
1.5200640e+000
1.2286370e+000
1.0304788e+000
9.9353963e-001
1.1599866e+000
1.4581047e+000
1.8838788e+000
2.3522074e+000
2.8080099e+000
3.1177692e+000
3.2684388e+000
3.2164857e+000
3.0417058e+000
2.8222799e+000
2.6076446e+000
2.4638691e+000
2.3632894e+000
2.3238153e+000
2.2974856e+000
2.2768202e+000
2.2520893e+000
2.2245195e+000
2.1915441e+000
2.1519759e+000
2.1058874e+000
2.0569448e+000
2.0303926e+000
2.0621793e+000
2.1412015e+000
2.3005519e+000
2.4936099e+000
2.7302539e+000
2.9770443e+000
3.2446587e+000
3.5162137e+000
3.8034883e+000
4.0943260e+000
4.3846345e+000
4.6582713e+000
4.9205108e+000
5.1853213e+000
5.4651580e+000
5.7881360e+000
6.1324749e+000
6.4914832e+000
6.8443651e+000
7.1689110e+000
7.4645996e+000
7.6881342e+000
7.8559704e+000
7.8814759e+000
7.8474803e+000
7.6637244e+000
7.4514570e+000
7.1663632e+000
6.8676457e+000
6.5359097e+000
6.1720338e+000
5.7436399e+000
5.2841072e+000
4.7769198e+000
4.2876053e+000
3.8264492e+000
3.3867514e+000
2.9729400e+000
2.5608361e+000
2.1565120e+000
1.7817352e+000
1.4302071e+000
1.0931572e+000
7.6723552e-001
4.5441890e-001
1.6874215e-001
-2.6729882e-002
-1.7246023e-001
-2.3404334e-001
-2.6863953e-001
-2.7574185e-001
-2.6923400e-001
-2.2560877e-001
-1.6726486e-001
-5.5178579e-002
7.0097715e-002
2.4053335e-001
4.1401285e-001
5.8899581e-001
7.1903664e-001
7.5190634e-001
7.2463018e-001
6.0588396e-001
5.1144052e-001
4.5507586e-001
4.4922942e-001
4.8490393e-001
4.6175256e-001
3.7892604e-001
2.2877692e-001
5.7061985e-002
6.2640915e-003
6.5146327e-002
3.8610807e-001
8.3311445e-001
1.4124622e+000
2.0059764e+000
2.4800394e+000
2.8978910e+000
3.1314721e+000
3.3356683e+000
3.4750171e+000
3.6121321e+000
3.7439029e+000
3.8691111e+000
3.9739215e+000
4.0748501e+000
4.1702580e+000
4.2874250e+000
4.4541497e+000
4.6816993e+000
5.0051003e+000
5.3611765e+000
5.7511883e+000
6.0983691e+000
6.4041429e+000
6.7027507e+000
6.9995027e+000
7.3262763e+000
7.6560216e+000
7.8898039e+000
8.0571375e+000
8.0598555e+000
8.0036783e+000
7.9021416e+000
7.8014283e+000
7.7720833e+000
7.7607560e+000
7.8122792e+000
7.8627110e+000
7.8874712e+000
7.8965569e+000
7.8374496e+000
7.7756329e+000
7.7055769e+000
7.6508894e+000
7.6336679e+000
7.6204982e+000
7.6168079e+000
7.6143513e+000
7.6132989e+000
7.5964398e+000
7.5554500e+000
7.4593687e+000
7.3112397e+000
7.1443624e+000
6.9619246e+000
6.7590075e+000
6.5329719e+000
6.1692276e+000
5.7388649e+000
5.1512313e+000
4.5254793e+000
3.9453731e+000
3.3913538e+000
3.0501642e+000
2.7305207e+000
2.4583929e+000
2.1748915e+000
1.8142554e+000
1.4697152e+000
1.1973943e+000
9.5208222e-001
7.9061675e-001
6.1047149e-001
3.8683316e-001
1.3699408e-001
-1.5956557e-001
-4.4506648e-001
-7.1619260e-001
-9.6613669e-001
-1.1893115e+000
-1.3398758e+000
-1.4220303e+000
-1.3131970e+000
-1.0828750e+000
-7.1409202e-001
-2.9277989e-001
-5.8873311e-002
9.8344289e-002
-1.1246282e-001
-4.0104356e-001
-6.9237840e-001
-9.6673679e-001
-8.3232474e-001
-6.6160136e-001
-2.1805392e-001
1.5428215e-002
4.6415406e-001
8.9160895e-001
1.2248211e+000
1.5001029e+000
1.6045045e+000
1.6881081e+000
1.7290249e+000
1.8438166e+000
2.0770056e+000
2.3532560e+000
2.6800251e+000
2.9766250e+000
3.2464986e+000
3.5453801e+000
3.8659949e+000
4.2230768e+000
4.5961990e+000
4.9154210e+000
5.2083154e+000
5.3920665e+000
5.5434108e+000
5.6856995e+000
5.8257308e+000
6.1967001e+000
