Image.
>Pix99999.
  .
5555
5555
2300
900
5555
2
1
0
701
5555
8.2970999e-002
8.4697530e-002
8.6423062e-002
8.8149585e-002
8.9875124e-002
9.1601647e-002
9.3328178e-002
9.5053725e-002
9.6780241e-002
9.8505780e-002
1.0023525e-001
1.0196281e-001
1.0368051e-001
1.0540787e-001
1.0713540e-001
1.0888250e-001
1.1059091e-001
1.1223993e-001
1.1404346e-001
1.1605517e-001
1.1749914e-001
1.1813170e-001
1.2091043e-001
1.2671581e-001
1.2454399e-001
1.0302392e-001
6.2768266e-002
1.0463728e-002
-3.6130466e-002
-5.9005596e-002
-5.1589731e-002
-1.4069341e-002
3.9349474e-002
9.2412233e-002
1.3671602e-001
1.6873701e-001
1.9535229e-001
2.2352362e-001
2.4838860e-001
2.6160911e-001
2.5476715e-001
2.2414662e-001
1.8480161e-001
1.5637402e-001
1.5425766e-001
1.8710163e-001
2.4163328e-001
2.9690632e-001
3.2797605e-001
3.1513789e-001
2.6463857e-001
1.9426188e-001
1.3587549e-001
1.1734828e-001
1.3290216e-001
1.6452286e-001
1.8816800e-001
1.8380882e-001
1.5470016e-001
1.1173700e-001
6.6198744e-002
2.8455729e-002
5.3623230e-003
1.8087038e-004
6.2059481e-003
1.4768856e-002
2.2592945e-002
3.1927280e-002
5.9944484e-002
1.2319271e-001
2.1520001e-001
3.1890523e-001
4.0643412e-001
4.5286104e-001
4.5974401e-001
4.3794179e-001
3.9858097e-001
3.4976131e-001
2.8799787e-001
2.1013713e-001
1.3126485e-001
7.2834343e-002
5.5412628e-002
9.0853840e-002
1.5729645e-001
2.2340214e-001
2.6899189e-001
2.8394541e-001
2.8135073e-001
2.7727982e-001
2.6547629e-001
2.3446490e-001
1.8663405e-001
1.3229777e-001
9.1837861e-002
8.3360858e-002
1.0064033e-001
1.2875292e-001
1.5561859e-001
1.7344491e-001
1.8621001e-001
2.0062312e-001
2.1598433e-001
2.2839753e-001
2.3354720e-001
2.2762901e-001
2.0922855e-001
1.7719465e-001
1.2755309e-001
5.8008797e-002
-2.1894485e-002
-9.5674999e-002
-1.3799800e-001
-1.2597488e-001
-6.0995813e-002
4.0805928e-002
1.4366642e-001
2.1051979e-001
2.3074995e-001
2.0942231e-001
1.6980514e-001
1.3845570e-001
1.2601985e-001
1.3304906e-001
1.4714880e-001
1.5237750e-001
1.3941820e-001
1.0480484e-001
5.6662567e-002
4.5450875e-003
-5.6307498e-002
-1.3544621e-001
-2.3529553e-001
-3.4972480e-001
-4.5118576e-001
-5.0817436e-001
-5.1158142e-001
-4.6820825e-001
-4.0767494e-001
-3.6759859e-001
-3.7877798e-001
-4.5958552e-001
-5.9132278e-001
-7.3619592e-001
-8.4628671e-001
-8.8132560e-001
-8.4911913e-001
-7.8347313e-001
-7.3315680e-001
-7.4140435e-001
-8.0409145e-001
-8.9258331e-001
-9.7015131e-001
-1.0049368e+000
-9.9640960e-001
-9.5918155e-001
-9.0910983e-001
-8.6152339e-001
-8.3121538e-001
-8.2775176e-001
-8.3932483e-001
-8.4229589e-001
-8.0687344e-001
-7.1318680e-001
-5.9389669e-001
-5.0320286e-001
-4.7538289e-001
-5.2268827e-001
-6.1342520e-001
-7.0238996e-001
-7.7774245e-001
-8.4555036e-001
-9.0950352e-001
-9.6769691e-001
-1.0051446e+000
-1.0056250e+000
-9.7611666e-001
-9.3528885e-001
-8.9867371e-001
-8.7720460e-001
-8.7309033e-001
-8.8521820e-001
-9.1689616e-001
-9.7018480e-001
-1.0300575e+000
-1.0698843e+000
-1.0527999e+000
-9.4965029e-001
-7.8487271e-001
-6.1015093e-001
-4.6735814e-001
-3.8238788e-001
-3.4562925e-001
-3.3671373e-001
-3.7049535e-001
-4.7417107e-001
-6.3664520e-001
-8.1746113e-001
-9.4923455e-001
-9.6788538e-001
-8.8104290e-001
-7.4150848e-001
-6.1729312e-001
-5.7073087e-001
-6.1791313e-001
-7.4254876e-001
-9.0457982e-001
-1.0572169e+000
-1.1735674e+000
-1.2406937e+000
-1.2523900e+000
-1.2049038e+000
-1.0932165e+000
-9.2116296e-001
-7.3488545e-001
-6.0215807e-001
-5.7433248e-001
-6.7613989e-001
-8.6900139e-001
-1.0807374e+000
-1.2540514e+000
-1.3508579e+000
-1.3620108e+000
-1.2995555e+000
-1.1970160e+000
-1.0964607e+000
-1.0277799e+000
-1.0057808e+000
-1.0171834e+000
-1.0336928e+000
-1.0329599e+000
-9.9835491e-001
-9.1460943e-001
-7.7411377e-001
-6.0262579e-001
-4.4879857e-001
-3.6853361e-001
-4.0698779e-001
-5.5083799e-001
-7.4580276e-001
-9.2490798e-001
-1.0270892e+000
-1.0357206e+000
-9.6706915e-001
-8.5239822e-001
-7.2646147e-001
-6.1064857e-001
-5.1372778e-001
-4.3095234e-001
-3.5006857e-001
-2.6067713e-001
-1.5974171e-001
-6.7619361e-002
-1.2356734e-002
1.4170917e-002
4.3837100e-002
9.5004626e-002
1.7237538e-001
2.7600718e-001
4.0449581e-001
5.5719572e-001
7.2404462e-001
8.4848464e-001
8.5378069e-001
7.2138840e-001
4.8889327e-001
2.4255860e-001
7.9339907e-002
1.3056960e-002
4.3372144e-003
6.1978422e-002
2.3015943e-001
5.1574552e-001
8.7886530e-001
1.2167399e+000
1.4006250e+000
1.3738205e+000
1.1604396e+000
8.8371783e-001
7.0810241e-001
6.8488801e-001
7.5715852e-001
8.0310965e-001
6.9225037e-001
4.1916066e-001
8.5890755e-002
-1.7192557e-001
-2.1395960e-001
7.0382565e-002
7.3312730e-001
1.6671971e+000
2.6619618e+000
3.5837560e+000
4.4105353e+000
5.2762599e+000
6.4229908e+000
8.0786581e+000
1.0409510e+001
1.3424271e+001
1.6964903e+001
2.0660713e+001
2.4052450e+001
2.6970789e+001
2.9559887e+001
3.2232052e+001
3.5528751e+001
3.9768112e+001
4.4938541e+001
5.0465961e+001
5.5496502e+001
5.9899570e+001
6.4200806e+001
6.8858353e+001
7.4046761e+001
7.9390892e+001
8.4155998e+001
8.7969421e+001
9.0869064e+001
9.3033401e+001
9.4678940e+001
9.5928284e+001
9.6798286e+001
9.7226616e+001
9.7102417e+001
9.6343407e+001
9.4939285e+001
9.3077156e+001
9.1069359e+001
8.9016724e+001
8.6787323e+001
8.4170929e+001
8.0970512e+001
7.7201515e+001
7.3060677e+001
6.8674141e+001
6.4068985e+001
5.9269161e+001
5.4331253e+001
4.9398170e+001
4.4676060e+001
4.0314430e+001
3.6392456e+001
3.2965679e+001
3.0068130e+001
2.7663754e+001
2.5653830e+001
2.3959625e+001
2.2539454e+001
2.1387600e+001
2.0523476e+001
1.9949501e+001
1.9643257e+001
1.9568909e+001
1.9688604e+001
1.9991220e+001
2.0493643e+001
2.1211378e+001
2.2162220e+001
2.3409679e+001
2.5058264e+001
2.7188286e+001
2.9817648e+001
3.2819759e+001
3.5939209e+001
3.8965160e+001
4.1777092e+001
4.4329639e+001
4.6679203e+001
4.9093338e+001
5.1943539e+001
5.5113556e+001
5.7968182e+001
5.9982079e+001
6.0942646e+001
6.1049393e+001
6.0818035e+001
6.0453754e+001
5.9732803e+001
5.8328503e+001
5.5983852e+001
5.2883228e+001
4.9651730e+001
4.6754688e+001
4.4341602e+001
4.2365490e+001
4.0628349e+001
3.8914272e+001
3.7039562e+001
3.4903423e+001
3.2519619e+001
3.0038013e+001
2.7700829e+001
2.5570599e+001
2.3475388e+001
2.1209492e+001
1.8632278e+001
1.5853080e+001
1.3234680e+001
1.1020380e+001
9.2267284e+000
7.7599716e+000
6.4617357e+000
5.2278137e+000
4.0377889e+000
2.8874910e+000
1.7813851e+000
7.7901840e-001
1.3307929e-003
-4.4485885e-001
-4.8462099e-001
-3.6705703e-002
9.6129835e-001
2.3834989e+000
3.8937480e+000
5.2475019e+000
6.3922620e+000
7.3984928e+000
8.4314022e+000
9.6156845e+000
1.0970466e+001
1.2357600e+001
1.3484365e+001
1.4142205e+001
1.4292643e+001
1.4008406e+001
1.3452893e+001
1.2774911e+001
1.2071120e+001
1.1392543e+001
1.0737357e+001
1.0058123e+001
9.2747040e+000
8.3779612e+000
7.4659872e+000
6.6541939e+000
6.0384994e+000
5.6448956e+000
5.4103937e+000
5.2651172e+000
5.1629376e+000
5.0987511e+000
5.1152530e+000
5.2498693e+000
5.5142088e+000
5.8947682e+000
6.3500237e+000
6.8325791e+000
7.2926903e+000
7.6667318e+000
7.8757529e+000
7.8613214e+000
7.6085339e+000
7.1597719e+000
6.6226110e+000
6.0900908e+000
5.6087050e+000
5.1957965e+000
4.8404746e+000
4.5267019e+000
4.2377114e+000
3.9437373e+000
3.5991528e+000
3.1766419e+000
2.6841171e+000
2.1484177e+000
1.6106222e+000
1.0981894e+000
6.1596918e-001
1.8173248e-001
-1.5951076e-001
-3.6006343e-001
-3.8099647e-001
-2.0512447e-001
1.5215486e-001
6.6081572e-001
1.2796321e+000
1.9677440e+000
2.6853113e+000
3.3728533e+000
3.9413245e+000
4.3105173e+000
4.4326658e+000
4.3103909e+000
4.0159316e+000
3.6315067e+000
3.2280965e+000
2.8661981e+000
2.5887344e+000
2.4091063e+000
2.2974195e+000
2.2100701e+000
2.0997295e+000
1.9396702e+000
1.7392428e+000
1.5188509e+000
1.3036507e+000
1.1194314e+000
9.9168617e-001
9.4451314e-001
9.9908078e-001
1.1692001e+000
1.4566700e+000
1.8577168e+000
2.3628399e+000
2.9545841e+000
3.6020758e+000
4.2625933e+000
4.8784356e+000
5.3960261e+000
5.7793355e+000
6.0203271e+000
6.1548748e+000
6.2339535e+000
6.3155670e+000
6.4472260e+000
6.6530104e+000
6.9484262e+000
7.3427682e+000
7.8416057e+000
8.4462366e+000
9.1548491e+000
9.9610796e+000
1.0857368e+001
1.1835708e+001
1.2883308e+001
1.3979750e+001
1.5089197e+001
1.6149437e+001
1.7087818e+001
1.7825869e+001
1.8305815e+001
1.8506413e+001
1.8413280e+001
1.8007736e+001
1.7276363e+001
1.6227228e+001
1.4912051e+001
1.3455207e+001
1.1997323e+001
1.0675260e+001
9.5931911e+000
8.7896156e+000
8.2714090e+000
8.0101318e+000
7.9587345e+000
8.0474701e+000
8.1911821e+000
8.2858667e+000
8.2370424e+000
7.9832644e+000
7.5001216e+000
6.8263621e+000
6.0272541e+000
5.1912012e+000
4.3985233e+000
3.6995308e+000
3.1208320e+000
2.6538942e+000
2.2832966e+000
1.9970784e+000
1.7877799e+000
1.6545262e+000
1.5900503e+000
1.5698694e+000
1.5681583e+000
1.5663557e+000
1.5543735e+000
1.5357959e+000
1.5110401e+000
1.4661947e+000
1.3844800e+000
1.2522392e+000
1.0653679e+000
8.4055376e-001
6.0204458e-001
3.7952894e-001
2.0083648e-001
8.4393054e-002
2.9738326e-002
-1.1240914e-003
-4.2558201e-002
-9.9167004e-002
-1.6780388e-001
-2.4356356e-001
-3.1950784e-001
-3.8479215e-001
-4.2740843e-001
-4.3558633e-001
-4.0446439e-001
-3.4607357e-001
-2.7809528e-001
-2.2129935e-001
-1.8993314e-001
-1.7963122e-001
-1.7746162e-001
-1.6055050e-001
-1.0813233e-001
-1.1396542e-002
1.2926845e-001
2.9828554e-001
4.8431569e-001
6.9611412e-001
9.4677603e-001
1.2472121e+000
1.5979618e+000
1.9742050e+000
2.3486965e+000
2.7036927e+000
3.0166183e+000
3.2465930e+000
3.3535230e+000
3.3126154e+000
3.1293075e+000
2.8785992e+000
2.6434159e+000
2.4795656e+000
2.4132400e+000
2.4069824e+000
2.4098480e+000
2.3772666e+000
2.2829514e+000
2.1477823e+000
2.0089231e+000
1.9160440e+000
1.9037898e+000
1.9554644e+000
2.0399961e+000
2.1226075e+000
2.1862760e+000
2.2675393e+000
2.4073100e+000
2.6205311e+000
2.8899429e+000
3.1251633e+000
3.2306900e+000
3.1523507e+000
2.8784554e+000
2.4940560e+000
2.0972898e+000
1.7516760e+000
1.4864485e+000
1.2534095e+000
9.9804324e-001
7.0544964e-001
3.8419560e-001
8.4166288e-002
-1.4980371e-001
-3.2021430e-001
-4.4295794e-001
-5.3921765e-001
-6.2718284e-001
-7.1152198e-001
-7.9411983e-001
-8.7853318e-001
-9.6610618e-001
-1.0496578e+000
-1.1187092e+000
-1.1592966e+000
-1.1602180e+000
-1.1238279e+000
-1.0589560e+000
-9.8514199e-001
-9.1696954e-001
-8.4267920e-001
-7.4368143e-001
-6.0066551e-001
-4.1110644e-001
-2.2969219e-001
-1.1417758e-001
-8.3456457e-002
-1.2588499e-001
-1.5844867e-001
-1.0949872e-001
-8.8798255e-003
8.9351758e-002
1.3502619e-001
9.5357522e-002
-3.4269989e-003
-1.0410386e-001
-9.1830432e-002
1.1922687e-001
4.5772624e-001
8.1749493e-001
1.1083542e+000
1.2638720e+000
1.2911793e+000
1.2244220e+000
1.1314510e+000
1.0819411e+000
1.1210210e+000
1.2694200e+000
1.4805013e+000
1.6894953e+000
1.8276570e+000
1.8423899e+000
1.7475550e+000
1.5876828e+000
1.4629656e+000
1.4788560e+000
1.7085273e+000
2.2169001e+000
