Image.
>Pix99999.
  .
5555
5555
2300
900
5555
2
1
0
701
5555
2.6848000e-002
2.7418185e-002
2.7988369e-002
2.8558552e-002
2.9129731e-002
2.9699922e-002
3.0270105e-002
3.0840289e-002
3.1411462e-002
3.1981658e-002
3.2551840e-002
3.3122025e-002
3.3692211e-002
3.4263376e-002
3.4833577e-002
3.5404745e-002
3.5973974e-002
3.6543157e-002
3.7115265e-002
3.7693284e-002
3.8255915e-002
3.8798708e-002
3.9396141e-002
4.0070724e-002
4.0541094e-002
3.8955320e-002
2.7465923e-002
5.6628376e-004
-3.1092128e-002
-5.5556759e-002
-7.4065141e-002
-9.1342717e-002
-1.1086158e-001
-1.3563861e-001
-1.6850257e-001
-2.1108399e-001
-2.6048833e-001
-3.1179944e-001
-3.5744599e-001
-3.8957947e-001
-4.0255001e-001
-3.9276132e-001
-3.6214280e-001
-3.1585434e-001
-2.6546496e-001
-2.2342914e-001
-1.9805685e-001
-1.9296178e-001
-1.9807503e-001
-2.0080429e-001
-1.9534357e-001
-1.8184656e-001
-1.7559898e-001
-1.9235322e-001
-2.3054509e-001
-2.8134999e-001
-3.2921201e-001
-3.6239591e-001
-3.9301872e-001
-4.3856108e-001
-5.0675774e-001
-5.9544837e-001
-6.7568010e-001
-7.1513331e-001
-7.0351213e-001
-6.4548683e-001
-5.7629091e-001
-5.3583354e-001
-5.4199183e-001
-5.9756738e-001
-6.7503500e-001
-7.4017406e-001
-7.7272791e-001
-7.6430857e-001
-7.3441648e-001
-7.0986140e-001
-7.0831841e-001
-7.3855758e-001
-7.8682411e-001
-8.3450496e-001
-8.7513798e-001
-9.0964961e-001
-9.5073831e-001
-1.0110501e+000
-1.0860840e+000
-1.1636529e+000
-1.2262549e+000
-1.2587454e+000
-1.2641360e+000
-1.2530528e+000
-1.2405943e+000
-1.2405660e+000
-1.2552183e+000
-1.2798591e+000
-1.2987963e+000
-1.2954957e+000
-1.2660394e+000
-1.2154136e+000
-1.1648279e+000
-1.1375377e+000
-1.1413143e+000
-1.1745038e+000
-1.2214183e+000
-1.2637230e+000
-1.2922777e+000
-1.3043599e+000
-1.3086852e+000
-1.3167396e+000
-1.3344222e+000
-1.3637418e+000
-1.3991957e+000
-1.4335085e+000
-1.4631760e+000
-1.4877580e+000
-1.5108544e+000
-1.5379164e+000
-1.5745366e+000
-1.6247915e+000
-1.6861463e+000
-1.7519950e+000
-1.8118542e+000
-1.8551512e+000
-1.8780363e+000
-1.8817297e+000
-1.8766983e+000
-1.8751893e+000
-1.8819879e+000
-1.8952055e+000
-1.9003332e+000
-1.8813229e+000
-1.8372443e+000
-1.7765024e+000
-1.7178618e+000
-1.6810800e+000
-1.6724935e+000
-1.6911907e+000
-1.7321377e+000
-1.7897202e+000
-1.8629383e+000
-1.9503690e+000
-2.0404601e+000
-2.1174345e+000
-2.1660988e+000
-2.1766098e+000
-2.1583550e+000
-2.1277323e+000
-2.0937750e+000
-2.0595820e+000
-2.0195954e+000
-1.9664838e+000
-1.9011500e+000
-1.8309941e+000
-1.7737389e+000
-1.7485031e+000
-1.7597541e+000
-1.8016828e+000
-1.8551430e+000
-1.8974978e+000
-1.9163431e+000
-1.9059296e+000
-1.8660514e+000
-1.8006530e+000
-1.7219689e+000
-1.6476588e+000
-1.6029280e+000
-1.6102972e+000
-1.6676846e+000
-1.7567165e+000
-1.8445560e+000
-1.8968841e+000
-1.9013214e+000
-1.8611852e+000
-1.7966789e+000
-1.7350556e+000
-1.6992097e+000
-1.7033750e+000
-1.7352463e+000
-1.7698786e+000
-1.7862300e+000
-1.7720791e+000
-1.7391114e+000
-1.7087917e+000
-1.6916580e+000
-1.6878307e+000
-1.6819503e+000
-1.6520164e+000
-1.5787045e+000
-1.4532000e+000
-1.3014046e+000
-1.1653759e+000
-1.0763943e+000
-1.0508192e+000
-1.0731840e+000
-1.1152825e+000
-1.1661837e+000
-1.2241136e+000
-1.2792480e+000
-1.3142482e+000
-1.3020201e+000
-1.2173754e+000
-1.0663286e+000
-8.7787384e-001
-7.0277351e-001
-5.9677368e-001
-5.9042627e-001
-6.8862706e-001
-8.5110617e-001
-1.0164989e+000
-1.1390245e+000
-1.1912519e+000
-1.1763401e+000
-1.1129689e+000
-1.0128751e+000
-8.8467634e-001
-7.4772626e-001
-6.2866974e-001
-5.5593753e-001
-5.5045378e-001
-5.9825617e-001
-6.6415387e-001
-7.1228683e-001
-7.1203965e-001
-6.4844978e-001
-5.2299362e-001
-3.6845040e-001
-2.3521107e-001
-1.7053181e-001
-2.0565461e-001
-3.1751361e-001
-4.5050082e-001
-5.5353057e-001
-5.8694524e-001
-5.3344476e-001
-3.9544451e-001
-2.0335600e-001
-5.8400333e-003
1.4023833e-001
1.8578236e-001
1.3217720e-001
1.5438804e-002
-1.2142880e-001
-2.3996207e-001
-3.2566950e-001
-3.7811244e-001
-3.8879716e-001
-3.4697002e-001
-2.6400840e-001
-1.6717646e-001
-8.5044488e-002
-3.7932318e-002
-1.3179929e-002
2.0250289e-002
7.6177478e-002
1.5310398e-001
2.4543940e-001
3.4417701e-001
4.2938000e-001
4.7856987e-001
4.9158454e-001
4.8606870e-001
4.8591286e-001
5.0761110e-001
5.2337837e-001
4.8275548e-001
3.7581006e-001
2.3135693e-001
1.0522175e-001
4.7661260e-002
1.4501862e-002
-8.4525257e-002
-2.2987744e-001
-3.2278737e-001
-3.0959287e-001
-1.9514611e-001
-4.6816431e-002
3.7216000e-002
2.2140890e-004
-1.6070053e-001
-3.6656764e-001
-4.9700448e-001
-4.9911001e-001
-3.9257789e-001
-2.6258513e-001
-2.1714877e-001
-2.7917862e-001
-3.9110765e-001
-4.4955435e-001
-3.3527181e-001
2.9418513e-002
6.6141266e-001
1.4601762e+000
2.2494190e+000
2.9003830e+000
3.3682246e+000
3.7676501e+000
4.3318815e+000
5.2968044e+000
6.8638496e+000
9.1469936e+000
1.2127670e+001
1.5485143e+001
1.8716730e+001
2.1559105e+001
2.4040787e+001
2.6479074e+001
2.9346371e+001
3.2908642e+001
3.7135868e+001
4.1538280e+001
4.5402000e+001
4.8607285e+001
5.1588028e+001
5.4796692e+001
5.8531483e+001
6.2722198e+001
6.7024651e+001
7.1199501e+001
7.5159332e+001
7.8867844e+001
8.2324898e+001
8.5609222e+001
8.8842148e+001
9.2046364e+001
9.5089554e+001
9.7562477e+001
9.8927643e+001
9.9107300e+001
9.8451523e+001
9.7230774e+001
9.5533524e+001
9.3302589e+001
9.0418602e+001
8.6965050e+001
8.3206070e+001
7.9307579e+001
7.5299347e+001
7.1151321e+001
6.6822250e+001
6.2364925e+001
5.7922794e+001
5.3638741e+001
4.9633526e+001
4.6006844e+001
4.2825439e+001
4.0070480e+001
3.7648163e+001
3.5480240e+001
3.3525028e+001
3.1777309e+001
3.0257998e+001
2.8976500e+001
2.7925343e+001
2.7085617e+001
2.6431435e+001
2.5943331e+001
2.5608856e+001
2.5418028e+001
2.5367290e+001
2.5479134e+001
2.5798368e+001
2.6351343e+001
2.7126139e+001
2.8041645e+001
2.8966360e+001
2.9828440e+001
3.0638029e+001
3.1454662e+001
3.2399830e+001
3.3721870e+001
3.5715424e+001
3.8305698e+001
4.1016689e+001
4.3398624e+001
4.5183876e+001
4.6434120e+001
4.7502892e+001
4.8610119e+001
4.9734726e+001
5.0699081e+001
5.1232262e+001
5.1189342e+001
5.0612656e+001
4.9687630e+001
4.8687088e+001
4.7735012e+001
4.6763351e+001
4.5671097e+001
4.4380161e+001
4.2870163e+001
4.1190281e+001
3.9438671e+001
3.7723492e+001
3.6005802e+001
3.4081860e+001
3.1768921e+001
2.8995735e+001
2.5935280e+001
2.2985449e+001
2.0382710e+001
1.8098949e+001
1.6008572e+001
1.3952980e+001
1.1857189e+001
9.7549038e+000
7.6930962e+000
5.7124624e+000
3.8868639e+000
2.3283384e+000
1.1283331e+000
3.4746423e-001
6.8606183e-002
3.7519386e-001
1.1635398e+000
2.1155629e+000
3.0022371e+000
3.7786627e+000
4.4915962e+000
5.2369070e+000
6.0207400e+000
6.7165194e+000
7.1608596e+000
7.2114162e+000
6.9010739e+000
6.4669890e+000
6.0724812e+000
5.7243571e+000
5.3996043e+000
5.0820632e+000
4.7651892e+000
4.4484468e+000
4.1064758e+000
3.6865683e+000
3.1730742e+000
2.6123970e+000
2.0795479e+000
1.6632829e+000
1.4164017e+000
1.3342837e+000
1.3806012e+000
1.4961205e+000
1.6387628e+000
1.8001020e+000
1.9946134e+000
2.2544625e+000
2.5913692e+000
2.9826601e+000
3.3995161e+000
3.8157122e+000
4.2088399e+000
4.5617013e+000
4.8593860e+000
5.0899448e+000
5.2495389e+000
5.3437896e+000
5.3712792e+000
5.3189349e+000
5.1805391e+000
4.9649692e+000
4.6899409e+000
4.3805089e+000
4.0569744e+000
3.7309844e+000
3.4177980e+000
3.1374784e+000
2.8911016e+000
2.6479506e+000
2.3654180e+000
2.0006399e+000
1.5522143e+000
1.0822192e+000
6.6018641e-001
3.3932963e-001
1.3670149e-001
2.0360032e-002
-3.8824324e-002
-4.7334071e-002
-2.5688782e-003
1.0069513e-001
2.4573879e-001
3.8216886e-001
4.6830601e-001
4.9241993e-001
4.6999645e-001
4.4762108e-001
4.6385235e-001
5.3224587e-001
6.5957797e-001
8.4912384e-001
1.0936589e+000
1.3687932e+000
1.6409100e+000
1.8697712e+000
2.0307040e+000
2.1288793e+000
2.1812055e+000
2.2118485e+000
2.2381730e+000
2.2631469e+000
2.2879317e+000
2.3158896e+000
2.3527715e+000
2.4061735e+000
2.4787338e+000
2.5636442e+000
2.6535239e+000
2.7441664e+000
2.8377855e+000
2.9456539e+000
3.0766590e+000
3.2305584e+000
3.4005287e+000
3.5720658e+000
3.7361789e+000
3.8976586e+000
4.0702419e+000
4.2774935e+000
4.5414214e+000
4.8759060e+000
5.2852564e+000
5.7591867e+000
6.2821259e+000
6.8354669e+000
7.4055414e+000
7.9893475e+000
8.5851879e+000
9.1895256e+000
9.7948189e+000
1.0386860e+001
1.0949720e+001
1.1467035e+001
1.1926543e+001
1.2324983e+001
1.2661120e+001
1.2931770e+001
1.3123086e+001
1.3199457e+001
1.3131423e+001
1.2910760e+001
1.2549320e+001
1.2085629e+001
1.1556171e+001
1.0981260e+001
1.0375470e+001
9.7524137e+000
9.1263609e+000
8.5097466e+000
7.9071217e+000
7.3057842e+000
6.6925211e+000
6.0624309e+000
5.4217000e+000
4.7943087e+000
4.2048836e+000
3.6696560e+000
3.1955266e+000
2.7747087e+000
2.3992131e+000
2.0691528e+000
1.7928294e+000
1.5903114e+000
1.4747601e+000
1.4364042e+000
1.4511157e+000
1.4759743e+000
1.4747772e+000
1.4363194e+000
1.3623077e+000
1.2697030e+000
1.1729748e+000
1.0727444e+000
9.6606857e-001
8.4932101e-001
7.2169936e-001
5.8927691e-001
4.5774201e-001
3.2845643e-001
2.0405897e-001
9.3670547e-002
1.7192196e-002
1.4182061e-002
1.1182299e-001
2.9688320e-001
5.4566181e-001
8.3363831e-001
1.1466914e+000
1.4955236e+000
1.8917383e+000
2.3335140e+000
2.8089559e+000
3.2892723e+000
3.7486987e+000
4.1789618e+000
4.5771790e+000
4.9440689e+000
5.2827573e+000
5.6005597e+000
5.9101982e+000
6.2338853e+000
6.5864038e+000
6.9580970e+000
7.3346715e+000
7.7066345e+000
8.0737600e+000
8.4564037e+000
8.8661156e+000
9.2795038e+000
9.6652975e+000
9.9956522e+000
1.0258835e+001
1.0484600e+001
1.0705057e+001
1.0932006e+001
1.1165908e+001
1.1382371e+001
1.1555971e+001
1.1679229e+001
1.1749360e+001
1.1772340e+001
1.1753557e+001
1.1693775e+001
1.1590743e+001
1.1432509e+001
1.1207240e+001
1.0904531e+001
1.0521120e+001
1.0077171e+001
9.6050978e+000
9.1538057e+000
8.7708731e+000
8.4814196e+000
8.2814302e+000
8.0993242e+000
7.8541055e+000
7.4887300e+000
6.9865379e+000
6.4313030e+000
5.9200997e+000
5.5126338e+000
5.2323585e+000
5.0214005e+000
4.8103886e+000
4.5553236e+000
4.2364502e+000
3.8870921e+000
3.5489359e+000
3.2472894e+000
2.9904544e+000
2.7479415e+000
2.4905212e+000
2.2235804e+000
1.9616071e+000
1.7205130e+000
1.5072949e+000
1.3008548e+000
1.0787135e+000
8.3618397e-001
5.7725835e-001
3.1899112e-001
8.4406570e-002
-9.4759561e-002
-1.8658143e-001
-1.6621611e-001
-2.3507833e-002
2.0843121e-001
4.8374587e-001
7.5009900e-001
9.6216249e-001
1.1040378e+000
1.1718611e+000
1.1775753e+000
1.1345487e+000
1.0476354e+000
9.1607159e-001
7.2825432e-001
4.8809296e-001
2.6337788e-001
1.1140480e-001
-4.0479973e-003
-1.2696922e-001
-2.4620199e-001
-3.4882313e-001
-4.6486822e-001
-6.1437720e-001
-7.4201316e-001
-7.8919506e-001
-7.5495517e-001
-6.6352040e-001
-5.7943946e-001
-5.6412661e-001
-6.2913084e-001
-7.6495230e-001
-9.2916209e-001
-1.0764148e+000
-1.1819969e+000
-1.2311854e+000
-1.2291957e+000
-1.1864886e+000
-1.1144855e+000
-1.0177861e+000
-8.7302083e-001
-6.4991999e-001
