Image.
>Pix99999.
  .
5555
5555
2300
900
5555
2
1
0
701
5555
1.0113000e-001
1.0322700e-001
1.0533397e-001
1.0744096e-001
1.0953800e-001
1.1164493e-001
1.1375192e-001
1.1584900e-001
1.1795589e-001
1.2006287e-001
1.2216985e-001
1.2426700e-001
1.2637383e-001
1.2848081e-001
1.3057800e-001
1.3268480e-001
1.3479176e-001
1.3688900e-001
1.3899575e-001
1.4110273e-001
1.4320000e-001
1.4530671e-001
1.4741369e-001
1.4951099e-001
1.5161766e-001
1.5372464e-001
8.1855312e-002
3.0502286e-003
-6.5992318e-002
-1.1456938e-001
-1.6016699e-001
-1.2219025e-001
-7.6349340e-002
1.1226427e-002
9.1995530e-002
1.0263565e-001
9.9943183e-002
5.2701212e-002
1.7384440e-002
2.5713840e-002
4.2970628e-002
7.4355192e-002
7.9837680e-002
4.1680366e-002
-1.2675680e-002
-8.3886549e-002
-1.2809765e-001
-1.4525533e-001
-1.2753102e-001
-8.5039355e-002
-2.9214215e-002
3.3358622e-002
9.9047661e-002
1.6590488e-001
2.1747354e-001
2.6404980e-001
2.9357880e-001
3.1925359e-001
3.3520636e-001
3.4896865e-001
2.9913944e-001
2.4069312e-001
1.5077068e-001
6.6790700e-002
3.4056254e-002
9.6545834e-003
-2.5278523e-003
-1.3077000e-002
-2.2571759e-002
-1.2991469e-002
3.2552101e-002
6.9962963e-002
9.0213582e-002
6.3735187e-002
-1.3368139e-002
-1.1134022e-001
-2.2308451e-001
-3.1404820e-001
-3.8955984e-001
-4.2768899e-001
-4.4631687e-001
-4.4831842e-001
-4.4414523e-001
-4.4959253e-001
-4.5828480e-001
-4.7712469e-001
-4.9824557e-001
-5.3165007e-001
-5.6625277e-001
-5.8714932e-001
-5.9682769e-001
-5.3741759e-001
-4.5493358e-001
-3.1470242e-001
-1.6812749e-001
-2.7924035e-002
9.3792595e-002
1.7683043e-001
2.3377641e-001
2.5654823e-001
2.6026857e-001
2.4569182e-001
2.0217720e-001
1.3145451e-001
2.9424407e-002
-9.5328152e-002
-1.9492517e-001
-2.7588084e-001
-3.0724150e-001
-3.1375033e-001
-3.0433744e-001
-2.8953883e-001
-2.6512557e-001
-2.3777027e-001
-2.2538225e-001
-2.1804850e-001
-2.8162554e-001
-3.5955945e-001
-4.4379029e-001
-5.1653582e-001
-5.1929116e-001
-5.0295639e-001
-4.6737382e-001
-4.3661219e-001
-4.2764434e-001
-4.3387428e-001
-4.6115798e-001
-5.0584769e-001
-5.7110345e-001
-6.3660383e-001
-6.9813818e-001
-7.3907053e-001
-7.6065803e-001
-7.6703840e-001
-7.6386505e-001
-7.5339347e-001
-7.3906457e-001
-7.0793760e-001
-6.6824919e-001
-6.4543569e-001
-6.3037205e-001
-6.4876205e-001
-6.7844880e-001
-6.4551473e-001
-5.9523940e-001
-5.3407717e-001
-4.9069032e-001
-5.9137499e-001
-7.4291229e-001
-9.5487493e-001
-1.1537642e+000
-1.2666405e+000
-1.3374423e+000
-1.3629307e+000
-1.3830260e+000
-1.4146607e+000
-1.4378428e+000
-1.4454029e+000
-1.4295754e+000
-1.3908489e+000
-1.3240457e+000
-1.2355130e+000
-1.0951251e+000
-9.1798460e-001
-7.6099861e-001
-6.2114590e-001
-6.3223994e-001
-7.2196901e-001
-8.5470480e-001
-1.0019705e+000
-1.0499386e+000
-1.0610548e+000
-1.0501245e+000
-1.0363894e+000
-1.0543400e+000
-1.0836500e+000
-1.1206685e+000
-1.1574224e+000
-1.1892443e+000
-1.2166492e+000
-1.2374400e+000
-1.2552009e+000
-1.2690240e+000
-1.2850034e+000
-1.3047588e+000
-1.2866572e+000
-1.2166668e+000
-1.0540578e+000
-8.0714780e-001
-5.7881641e-001
-3.8741016e-001
-2.9762352e-001
-2.7884081e-001
-3.0735472e-001
-3.5709757e-001
-4.6140864e-001
-5.9409559e-001
-7.0048994e-001
-7.9355568e-001
-7.5081819e-001
-6.5208572e-001
-5.1587719e-001
-3.8217992e-001
-3.6611581e-001
-4.2253989e-001
-5.9944540e-001
-8.2121974e-001
-1.0435030e+000
-1.2421697e+000
-1.3842951e+000
-1.4633900e+000
-1.4595950e+000
-1.3538944e+000
-1.1344842e+000
-8.9510083e-001
-6.7815751e-001
-6.2490326e-001
-7.4054253e-001
-9.5959485e-001
-1.2310050e+000
-1.4535514e+000
-1.6277387e+000
-1.6818486e+000
-1.6604491e+000
-1.5286200e+000
-1.3372107e+000
-1.2263354e+000
-1.1635950e+000
-1.2533994e+000
-1.4068940e+000
-1.4821528e+000
-1.4887019e+000
-1.3159834e+000
-1.0369675e+000
-6.6647422e-001
-3.2455707e-001
-1.7259875e-001
-2.1460199e-001
-5.0180042e-001
-8.7546605e-001
-1.2298257e+000
-1.4849607e+000
-1.6055368e+000
-1.6272564e+000
-1.5842205e+000
-1.4751050e+000
-1.3173240e+000
-1.1256711e+000
-9.1334736e-001
-7.2489101e-001
-5.5885285e-001
-3.7725294e-001
-1.8367240e-001
-3.1854548e-003
1.6537879e-001
2.4351642e-001
2.6829392e-001
2.8021336e-001
2.9678813e-001
3.9633390e-001
5.5016142e-001
7.4765092e-001
9.1196626e-001
8.9433014e-001
7.4378216e-001
4.7988015e-001
2.3103979e-001
1.1958489e-001
3.8105387e-002
-8.6360082e-002
-1.4317785e-001
-8.0966428e-002
2.0620754e-001
7.1952057e-001
1.2637589e+000
1.7651857e+000
1.8942182e+000
1.6759465e+000
1.3537214e+000
1.0055400e+000
9.8263597e-001
1.2151124e+000
1.3861160e+000
1.4791592e+000
1.1696273e+000
6.0671180e-001
1.6555515e-001
-1.1649179e-001
8.1646800e-002
7.1582389e-001
1.7338572e+000
2.8526158e+000
3.6742601e+000
4.2996387e+000
4.8469419e+000
5.6067505e+000
6.8502336e+000
8.7888317e+000
1.1500383e+001
1.4831663e+001
1.8587143e+001
2.2041540e+001
2.4932220e+001
2.7545275e+001
3.0043709e+001
3.3308994e+001
3.7378071e+001
4.2139938e+001
4.7399559e+001
5.1924221e+001
5.5775169e+001
5.9676632e+001
6.3702713e+001
6.8359024e+001
7.3447884e+001
7.8263855e+001
8.2779465e+001
8.6845276e+001
9.0507751e+001
9.3839706e+001
9.6849426e+001
9.9556145e+001
1.0176760e+002
1.0327397e+002
1.0355292e+002
1.0221500e+002
9.9836967e+001
9.6996780e+001
9.3933701e+001
9.0828873e+001
8.7244019e+001
8.3049278e+001
7.8648407e+001
7.4206734e+001
6.9966331e+001
6.5958801e+001
6.1749798e+001
5.7301430e+001
5.2872055e+001
4.8491783e+001
4.4343086e+001
4.0448448e+001
3.6943634e+001
3.3856449e+001
3.1243275e+001
2.9086143e+001
2.7245789e+001
2.5726862e+001
2.4481960e+001
2.3511242e+001
2.2771000e+001
2.2243149e+001
2.1871325e+001
2.1646687e+001
2.1541286e+001
2.1599293e+001
2.1839800e+001
2.2296940e+001
2.2974384e+001
2.3937265e+001
2.5195372e+001
2.6686947e+001
2.8377342e+001
3.0025917e+001
3.1577198e+001
3.3009235e+001
3.4323967e+001
3.5853493e+001
3.7700691e+001
4.0438309e+001
4.4040356e+001
4.7427891e+001
5.0372772e+001
5.2245926e+001
5.3160843e+001
5.3932678e+001
5.4563549e+001
5.5104332e+001
5.5278061e+001
5.4681660e+001
5.3412285e+001
5.1714825e+001
4.9901798e+001
4.8329830e+001
4.6992897e+001
4.5875950e+001
4.4768574e+001
4.3535130e+001
4.1864017e+001
3.9577164e+001
3.7121727e+001
3.4627014e+001
3.2308041e+001
3.0243683e+001
2.7823351e+001
2.4916328e+001
2.1979565e+001
1.9070148e+001
1.6667583e+001
1.4832820e+001
1.3052285e+001
1.1336440e+001
9.6521225e+000
8.0117512e+000
6.4187660e+000
4.8713908e+000
3.3460841e+000
1.9573870e+000
8.8035023e-001
2.0469889e-001
3.6754161e-002
4.1872513e-001
1.2708993e+000
2.2516241e+000
3.1275163e+000
3.8633463e+000
4.4249864e+000
5.0432253e+000
5.8388438e+000
6.7497687e+000
7.7891002e+000
8.5559912e+000
8.8643026e+000
8.8749266e+000
8.4714603e+000
8.0167398e+000
7.4980359e+000
6.9972262e+000
6.5320702e+000
6.1259713e+000
5.7902374e+000
5.4697700e+000
5.1584792e+000
4.8242154e+000
4.4960399e+000
4.2495742e+000
4.1174421e+000
4.1348414e+000
4.2789688e+000
4.5036817e+000
4.7592916e+000
4.9909859e+000
5.2036467e+000
5.4058514e+000
5.6168847e+000
5.8549242e+000
6.1077766e+000
6.3729324e+000
6.6291757e+000
6.8634076e+000
7.0448642e+000
7.1266632e+000
7.1264315e+000
6.9804020e+000
6.7688169e+000
6.4565701e+000
6.1117954e+000
5.7292328e+000
5.3593826e+000
5.0051684e+000
4.6518688e+000
4.2941008e+000
3.9071500e+000
3.4966276e+000
3.0883389e+000
2.6754649e+000
2.2532599e+000
1.8174169e+000
1.3568674e+000
9.1556072e-001
5.4933542e-001
2.6237983e-001
1.0304766e-001
1.5333809e-002
1.8771403e-002
9.4376072e-002
2.5905281e-001
4.7647050e-001
7.8702569e-001
1.0538714e+000
1.2156143e+000
1.2756555e+000
1.1512829e+000
1.0283465e+000
9.2013603e-001
8.8389230e-001
9.6267426e-001
1.1205802e+000
1.3789788e+000
1.6732206e+000
1.9864099e+000
2.2421134e+000
2.4234869e+000
2.5181022e+000
2.5351899e+000
2.4986007e+000
2.4224782e+000
2.3165960e+000
2.2024825e+000
2.0982282e+000
2.0161142e+000
1.9834869e+000
1.9835632e+000
2.0396521e+000
2.1173320e+000
2.2301307e+000
2.3445015e+000
2.4554012e+000
2.5590549e+000
2.6466296e+000
2.7357516e+000
2.8305840e+000
2.9361150e+000
3.0628185e+000
3.2077730e+000
3.3855994e+000
3.6069086e+000
3.8875239e+000
4.2182503e+000
4.5926766e+000
4.9571772e+000
5.3095942e+000
5.6458497e+000
5.9935770e+000
6.4177866e+000
6.8997002e+000
7.4490523e+000
8.0024796e+000
8.4835463e+000
8.8886948e+000
9.1104546e+000
9.2336655e+000
9.1466074e+000
8.9807043e+000
8.6276035e+000
8.2271929e+000
7.7060232e+000
7.1744218e+000
6.6186647e+000
6.0654840e+000
5.5162230e+000
4.9617505e+000
4.4072905e+000
3.8970985e+000
3.4624853e+000
3.1169651e+000
2.8702819e+000
2.6370645e+000
2.3959560e+000
2.0660734e+000
1.6633357e+000
1.2191317e+000
7.7621329e-001
4.3723881e-001
1.6898073e-001
4.4216737e-003
-1.2861681e-001
-2.7102077e-001
-4.0849489e-001
-5.1685739e-001
-5.8357400e-001
-4.9711832e-001
-3.7683433e-001
-1.6162343e-001
3.9714560e-002
1.9815893e-001
3.4939587e-001
4.8616961e-001
6.4453852e-001
8.4288073e-001
1.0286459e+000
1.1840476e+000
1.2725583e+000
1.2632536e+000
1.1788579e+000
1.0080179e+000
7.8591841e-001
5.2458668e-001
2.8048998e-001
6.8107367e-002
-3.6347456e-002
-5.7355225e-002
9.6290484e-002
3.3806258e-001
6.9204158e-001
1.0736257e+000
1.4397800e+000
1.7859064e+000
2.0404398e+000
2.2746632e+000
2.4458916e+000
2.6243360e+000
2.8372023e+000
3.0546477e+000
3.2814918e+000
3.4621201e+000
3.5276127e+000
3.5656960e+000
3.5582941e+000
3.6049552e+000
3.7408857e+000
3.9329996e+000
4.1985264e+000
4.5054121e+000
4.8567104e+000
5.2407889e+000
5.6449289e+000
6.0145869e+000
6.3536959e+000
6.6200333e+000
6.8431787e+000
6.9908514e+000
7.1007514e+000
7.1172905e+000
7.1060948e+000
7.0433607e+000
6.9772720e+000
6.9357638e+000
6.9033265e+000
6.9212036e+000
6.9496489e+000
7.0248837e+000
7.1071668e+000
7.2126303e+000
7.3284650e+000
7.4701180e+000
7.6250439e+000
7.8007236e+000
7.9428682e+000
8.0283356e+000
8.0289097e+000
7.9273834e+000
7.7576575e+000
7.5259471e+000
7.2735257e+000
7.0065823e+000
6.7362947e+000
6.4617820e+000
6.1610188e+000
5.8425345e+000
5.4432545e+000
5.0159450e+000
4.5202088e+000
4.0171523e+000
3.5619559e+000
3.1165843e+000
2.7389708e+000
2.3620391e+000
1.9868840e+000
1.6157159e+000
1.2630651e+000
9.2299867e-001
6.2267542e-001
3.3590940e-001
8.0606431e-002
-1.6406685e-001
-3.9027390e-001
-6.1794686e-001
-8.4602159e-001
-1.0505897e+000
-1.2256800e+000
-1.3065510e+000
-1.3067403e+000
-1.1970707e+000
-1.0172989e+000
-7.7105153e-001
-4.9792057e-001
-2.8529775e-001
-9.9400550e-002
-6.3329145e-002
-5.9298057e-002
-5.4801412e-002
-4.9337760e-002
-2.1299753e-002
5.4870551e-003
1.8078429e-003
2.0846054e-003
6.5797880e-002
2.2212660e-001
5.1546299e-001
7.9278743e-001
1.0227022e+000
1.2273854e+000
1.3786024e+000
1.5436902e+000
1.7316236e+000
1.9430060e+000
2.1819561e+000
2.3669143e+000
2.5007424e+000
2.5727072e+000
2.6018724e+000
2.6854880e+000
2.7982671e+000
2.9348547e+000
3.0810678e+000
3.2303617e+000
3.3817110e+000
3.7105229e+000
4.0682788e+000
4.6127000e+000
