Image.
>Pix99999.
  .
5555
5555
2300
900
5555
2
1
0
701
5555
-2.7749000e-002
-2.8326174e-002
-2.8903348e-002
-2.9480522e-002
-3.0057697e-002
-3.0634871e-002
-3.1212045e-002
-3.1789217e-002
-3.2366395e-002
-3.2943569e-002
-3.3521730e-002
-3.4098919e-002
-3.4676090e-002
-3.5253268e-002
-3.5830442e-002
-3.6407612e-002
-3.6984790e-002
-3.7561964e-002
-3.8139135e-002
-3.8716312e-002
-3.9294455e-002
-3.9871659e-002
-4.0448837e-002
-4.1026007e-002
-4.1603182e-002
-4.2180359e-002
-1.5674657e-003
1.8906493e-002
3.7077483e-002
1.3846188e-003
-4.2235341e-002
-7.2087936e-002
-9.8783270e-002
-7.7353448e-002
-5.4776385e-002
-4.1344300e-002
-3.2837037e-002
-4.4609252e-002
-4.9638394e-002
-3.0787934e-002
-1.9584901e-003
4.5717284e-002
8.5152514e-002
1.0932098e-001
1.2378566e-001
1.2731743e-001
1.3816954e-001
1.5670958e-001
1.8540193e-001
2.2129060e-001
2.5611714e-001
2.9005796e-001
3.0612874e-001
3.1439245e-001
3.0314896e-001
2.8574014e-001
2.8364998e-001
2.8517914e-001
3.2311547e-001
3.6641851e-001
4.0603057e-001
4.4208941e-001
4.4181037e-001
4.3666610e-001
4.2331553e-001
4.1472659e-001
4.2641544e-001
4.4547921e-001
4.7822869e-001
5.0997204e-001
5.3715503e-001
5.5448568e-001
5.5821240e-001
5.5271745e-001
5.3845686e-001
5.2331430e-001
5.0821161e-001
5.0726420e-001
5.1618242e-001
5.3939760e-001
5.6983542e-001
5.9170473e-001
6.0960299e-001
6.2347996e-001
6.3618439e-001
6.6037595e-001
6.8728060e-001
7.1899194e-001
7.5125068e-001
7.7981108e-001
8.0629855e-001
8.2105958e-001
8.3273989e-001
8.3815217e-001
8.4421265e-001
8.5504252e-001
8.6692119e-001
8.7962937e-001
8.9222020e-001
9.0443742e-001
9.2150283e-001
9.4504213e-001
9.7004819e-001
9.9559432e-001
1.0123373e+000
1.0215700e+000
1.0267035e+000
1.0297720e+000
1.0393337e+000
1.0524822e+000
1.0706985e+000
1.0908651e+000
1.1086320e+000
1.1255718e+000
1.1410246e+000
1.1562028e+000
1.1716315e+000
1.1868594e+000
1.1983794e+000
1.2078360e+000
1.2098143e+000
1.2093210e+000
1.2057320e+000
1.2009610e+000
1.1954919e+000
1.1857928e+000
1.1685660e+000
1.1524303e+000
1.1395491e+000
1.1372185e+000
1.1464014e+000
1.1624811e+000
1.1833080e+000
1.2038430e+000
1.2238715e+000
1.2327043e+000
1.2347863e+000
1.2338740e+000
1.2321548e+000
1.2322007e+000
1.2328601e+000
1.2147925e+000
1.1900324e+000
1.1633362e+000
1.1366719e+000
1.1202586e+000
1.1046580e+000
1.0768100e+000
1.0449868e+000
1.0111223e+000
9.8238927e-001
9.7197759e-001
9.7196472e-001
9.8354691e-001
1.0014398e+000
1.0235071e+000
1.0442983e+000
1.0622199e+000
1.0706683e+000
1.0700679e+000
1.0663371e+000
1.0619349e+000
1.0639743e+000
1.0714208e+000
1.0669681e+000
1.0542235e+000
1.0087292e+000
9.4616526e-001
8.8426441e-001
8.2342058e-001
7.8447628e-001
7.5336355e-001
7.2899193e-001
7.0710528e-001
6.9618195e-001
6.8886745e-001
6.8095410e-001
6.7127424e-001
6.4979362e-001
6.2607515e-001
6.0454744e-001
5.8707213e-001
5.7859021e-001
5.7339716e-001
5.7151502e-001
5.7037562e-001
5.7034105e-001
5.7492042e-001
5.8297926e-001
5.8840603e-001
5.8853453e-001
5.7790732e-001
5.6014085e-001
5.2864641e-001
4.8983246e-001
4.3599927e-001
3.7420639e-001
3.3116975e-001
2.9669806e-001
3.0855152e-001
3.3932856e-001
3.8563076e-001
4.3367472e-001
4.4972670e-001
4.4585291e-001
4.0555358e-001
3.5138264e-001
2.9550925e-001
2.4468549e-001
2.0873211e-001
1.8776500e-001
1.8860593e-001
2.1194577e-001
2.6043394e-001
3.0850932e-001
3.4195808e-001
3.3871838e-001
2.9731509e-001
2.4214308e-001
1.8505426e-001
1.3750143e-001
9.9456258e-002
7.0275970e-002
4.7510087e-002
3.1120520e-002
1.9909143e-002
4.0829703e-003
-1.2678326e-002
-2.9010726e-002
-4.4364210e-002
-4.1291229e-002
-2.5512090e-002
2.3580823e-002
9.1363087e-002
1.6929826e-001
2.3432559e-001
2.4417235e-001
2.1140282e-001
1.3701920e-001
5.3602878e-002
-1.2866601e-002
-5.7828650e-002
-7.8629032e-002
-7.9399809e-002
-6.6718683e-002
-3.8838550e-002
2.8954074e-004
2.2970440e-002
2.9675204e-002
1.5665432e-002
-1.1543714e-002
-5.3412006e-003
2.3855776e-002
6.4729974e-002
1.0819334e-001
1.2687643e-001
1.2989485e-001
1.3554285e-001
1.4325359e-001
1.6296810e-001
1.9215058e-001
2.3527224e-001
2.7939132e-001
2.9380330e-001
2.7537698e-001
2.0627943e-001
1.2050956e-001
5.3664669e-002
1.9729646e-002
-4.3423608e-002
-1.1083718e-001
-1.4357617e-001
-1.3584417e-001
-9.0851560e-002
-5.1498145e-002
-3.2313891e-002
-7.4986979e-002
-1.7609522e-001
-2.6631689e-001
-3.3545059e-001
-2.9591200e-001
-1.7223029e-001
-4.9210951e-002
6.1177276e-002
4.6807349e-002
-5.0144702e-002
-1.1642407e-001
-1.3284349e-001
6.3662231e-004
2.6004100e-001
7.1675569e-001
1.2819176e+000
1.7921388e+000
2.2578199e+000
2.6986840e+000
3.2745378e+000
4.1386042e+000
5.5379753e+000
7.5935292e+000
1.0495941e+001
1.4208286e+001
1.8021740e+001
2.1604097e+001
2.4816757e+001
2.7701788e+001
3.1112993e+001
3.5137608e+001
4.0042351e+001
4.5648319e+001
5.0625561e+001
5.4993771e+001
5.9141304e+001
6.3203442e+001
6.7964828e+001
7.3246300e+001
7.8478645e+001
8.3544754e+001
8.8053268e+001
9.2020721e+001
9.5446022e+001
9.8355370e+001
1.0080481e+002
1.0266860e+002
1.0383086e+002
1.0384011e+002
1.0235143e+002
9.9950478e+001
9.7209106e+001
9.4187065e+001
9.0970421e+001
8.7067513e+001
8.2354111e+001
7.7422279e+001
7.2502892e+001
6.7851067e+001
6.3492992e+001
5.9075039e+001
5.4551758e+001
5.0176350e+001
4.5965031e+001
4.2047657e+001
3.8441715e+001
3.5260681e+001
3.2517300e+001
3.0195925e+001
2.8278786e+001
2.6638266e+001
2.5285053e+001
2.4190863e+001
2.3360943e+001
2.2761501e+001
2.2379435e+001
2.2164856e+001
2.2087624e+001
2.2098703e+001
2.2187593e+001
2.2339966e+001
2.2564770e+001
2.2862297e+001
2.3283751e+001
2.3844429e+001
2.4573843e+001
2.5470091e+001
2.6481979e+001
2.7593559e+001
2.8743151e+001
2.9927799e+001
3.1299725e+001
3.2952679e+001
3.5501774e+001
3.9013954e+001
4.2897221e+001
4.6927414e+001
5.0098763e+001
5.2445530e+001
5.4490002e+001
5.6256023e+001
5.7889675e+001
5.9184540e+001
5.9843685e+001
5.9744541e+001
5.8856091e+001
5.7465931e+001
5.5948654e+001
5.4346302e+001
5.2696198e+001
5.0868607e+001
4.8775360e+001
4.6440994e+001
4.3850647e+001
4.1360630e+001
3.9099083e+001
3.6929840e+001
3.4850842e+001
3.2295135e+001
2.9115686e+001
2.5934498e+001
2.2809486e+001
2.0162508e+001
1.8046549e+001
1.5954714e+001
1.3884115e+001
1.1791615e+001
9.6829872e+000
7.5815620e+000
5.5502644e+000
3.7010539e+000
2.1413002e+000
9.9392581e-001
2.8911069e-001
5.6378774e-002
3.8217258e-001
1.2040490e+000
2.2203820e+000
3.2468631e+000
4.1341949e+000
4.7796011e+000
5.3252831e+000
5.8163495e+000
6.3035002e+000
6.7972398e+000
7.2012892e+000
7.4530115e+000
7.5578976e+000
7.4487672e+000
7.2777247e+000
7.0257940e+000
6.7711349e+000
6.5099926e+000
6.2206821e+000
5.8756042e+000
5.4118972e+000
4.8270135e+000
4.2015405e+000
3.5779660e+000
3.0686793e+000
2.6958473e+000
2.4708052e+000
2.3890228e+000
2.4279246e+000
2.5519314e+000
2.7266259e+000
2.9266591e+000
3.1482086e+000
3.4000199e+000
3.7023065e+000
4.0444632e+000
4.4354415e+000
4.8391919e+000
5.2503147e+000
5.6441641e+000
5.9997363e+000
6.3043361e+000
6.5061202e+000
6.6002274e+000
6.5161147e+000
6.3025765e+000
5.9138007e+000
5.4671769e+000
4.9592142e+000
4.4529257e+000
3.9606726e+000
3.4950280e+000
3.0649989e+000
2.6781263e+000
2.3063250e+000
1.9030664e+000
1.4677558e+000
9.9192417e-001
5.4773611e-001
2.2733165e-001
2.2431174e-002
-1.0075177e-002
3.4166746e-002
1.4332800e-001
2.6958963e-001
4.1532922e-001
5.8282602e-001
7.9479998e-001
1.0166403e+000
1.2505372e+000
1.4619454e+000
1.6236023e+000
1.7827740e+000
1.9420561e+000
2.1286671e+000
2.3626535e+000
2.6288636e+000
2.9422851e+000
3.2850916e+000
3.6549900e+000
4.0166764e+000
4.3495770e+000
4.6177964e+000
4.8155231e+000
4.9377384e+000
5.0025854e+000
5.0197492e+000
5.0067420e+000
4.9628391e+000
4.9010572e+000
4.8146310e+000
4.7263713e+000
4.6471329e+000
4.5811920e+000
4.5462022e+000
4.5183272e+000
4.5019612e+000
4.4868441e+000
4.4749990e+000
4.4715185e+000
4.4879260e+000
4.5226765e+000
4.5907307e+000
4.6760845e+000
4.7837920e+000
4.8938084e+000
5.0052538e+000
5.1170721e+000
5.2315164e+000
5.3553114e+000
5.4860454e+000
5.6161060e+000
5.7412200e+000
5.8506465e+000
5.9467001e+000
6.0216784e+000
6.0779362e+000
6.0968885e+000
6.0881057e+000
6.0225945e+000
5.9261751e+000
5.7638922e+000
5.5680232e+000
5.2843390e+000
4.9647727e+000
4.5484223e+000
4.1059165e+000
3.6020970e+000
3.0947502e+000
2.5856972e+000
2.1096005e+000
1.6960092e+000
1.3385907e+000
1.0611495e+000
8.1701791e-001
6.0979342e-001
4.0854847e-001
2.1703503e-001
4.5275703e-002
-1.0329171e-001
-2.1328825e-001
-2.9321265e-001
-3.3867720e-001
-3.6266547e-001
-3.6060843e-001
-3.4158045e-001
-2.8796503e-001
-2.0646966e-001
-4.2833567e-002
1.6139638e-001
4.8506239e-001
8.2323760e-001
1.1878589e+000
1.5149354e+000
1.7234714e+000
1.8793429e+000
1.9047589e+000
1.8952178e+000
1.8143355e+000
1.7052114e+000
1.5483080e+000
1.3685012e+000
1.1591830e+000
9.4570279e-001
7.2963679e-001
5.2281344e-001
3.2926655e-001
1.6735244e-001
4.2417910e-002
4.2115143e-003
3.1064555e-002
1.6671807e-001
3.5160634e-001
5.7677650e-001
8.0215544e-001
9.7130084e-001
1.1157448e+000
1.1821040e+000
1.2392626e+000
1.2852328e+000
1.3370899e+000
1.4141034e+000
1.4927094e+000
1.5763140e+000
1.6591799e+000
1.7378571e+000
1.7960398e+000
1.8103288e+000
1.7854656e+000
1.7018000e+000
1.6204696e+000
1.5483080e+000
1.5227190e+000
1.5452949e+000
1.5942779e+000
1.6601906e+000
1.7042717e+000
1.7287794e+000
1.7048720e+000
1.6541300e+000
1.5663857e+000
1.4634485e+000
1.3384180e+000
1.2075195e+000
1.0701967e+000
9.3893123e-001
8.5882115e-001
7.9009891e-001
7.7819616e-001
7.6404405e-001
7.3973531e-001
7.1022546e-001
6.6409039e-001
6.1350131e-001
5.5105895e-001
4.7582477e-001
3.7735605e-001
2.8378788e-001
1.9885202e-001
1.3192460e-001
8.4447548e-002
2.8021375e-002
-3.7577890e-002
-1.1851243e-001
-2.0947893e-001
-2.9682267e-001
-3.8153780e-001
-4.5753419e-001
-5.2831584e-001
-5.7780689e-001
-6.1916620e-001
-6.3399512e-001
-6.4417738e-001
-6.5296119e-001
-6.6107816e-001
-6.6309243e-001
-6.6189039e-001
-6.3953578e-001
-6.2084764e-001
-6.1877429e-001
-6.2623769e-001
-6.6280919e-001
-6.9151253e-001
-7.0111436e-001
-6.8987322e-001
-6.4274377e-001
-6.0134894e-001
-5.6875741e-001
-5.5956918e-001
-5.7369202e-001
-5.7285190e-001
-5.5869651e-001
-5.1818085e-001
-4.6211901e-001
-4.1731799e-001
-3.7811098e-001
-3.5036141e-001
-3.2600531e-001
-2.9217589e-001
-2.5638887e-001
-2.1907642e-001
-1.8191680e-001
-1.5158114e-001
-1.1817962e-001
-3.8457643e-002
1.5677139e-003
4.8804209e-002
1.4274535e-001
2.4777620e-001
3.5320514e-001
4.6046907e-001
5.8618879e-001
7.5085366e-001
9.0180659e-001
1.0296872e+000
1.0975059e+000
1.0921237e+000
1.0497832e+000
9.7315055e-001
9.0078616e-001
8.3179098e-001
7.9947531e-001
7.8705722e-001
7.9684234e-001
8.1524730e-001
7.6303804e-001
6.9267023e-001
5.9252024e-001
4.8795751e-001
5.2816999e-001
