Image.
>Pix99999.
  .
5555
5555
2300
900
5555
2
1
0
701
5555
1.6212000e-001
1.6549517e-001
1.6887034e-001
1.7224552e-001
1.7561075e-001
1.7898586e-001
1.8236104e-001
1.8573621e-001
1.8910149e-001
1.9247654e-001
1.9585171e-001
1.9922689e-001
2.0259222e-001
2.0595741e-001
2.0934220e-001
2.1274692e-001
2.1608366e-001
2.1934083e-001
2.2283000e-001
2.2666550e-001
2.2959685e-001
2.3124170e-001
2.3626846e-001
2.4605307e-001
2.4329938e-001
2.0719323e-001
1.2378605e-001
-3.5985908e-003
-1.0973528e-001
-1.3064831e-001
-7.7700123e-002
1.4260118e-002
1.0263526e-001
1.4961527e-001
1.4481360e-001
8.7644301e-002
-1.4989635e-002
-1.4714624e-001
-2.6478344e-001
-3.2371727e-001
-3.1274316e-001
-2.3766777e-001
-1.3280839e-001
-3.5811577e-002
3.6522068e-002
7.5651698e-002
8.0343552e-002
5.3794570e-002
8.5221035e-003
-3.9295070e-002
-7.0171282e-002
-6.8037979e-002
-3.4735613e-002
1.7358361e-002
5.5961695e-002
4.8604637e-002
-1.2644000e-002
-1.2010895e-001
-2.3504497e-001
-3.1749171e-001
-3.6289257e-001
-3.8155475e-001
-3.9637890e-001
-4.2551690e-001
-4.5176566e-001
-4.5146298e-001
-4.2294076e-001
-3.7664855e-001
-3.4138089e-001
-3.4413761e-001
-3.7995398e-001
-4.3204141e-001
-4.8038137e-001
-5.0828403e-001
-5.1599485e-001
-5.1031321e-001
-5.0054765e-001
-4.9473301e-001
-4.9264833e-001
-4.9326730e-001
-5.0417572e-001
-5.3466296e-001
-5.8785701e-001
-6.5952998e-001
-7.2466278e-001
-7.5659853e-001
-7.5261712e-001
-7.2164059e-001
-6.8358135e-001
-6.5780634e-001
-6.4588016e-001
-6.4262122e-001
-6.4271218e-001
-6.4225841e-001
-6.4262152e-001
-6.4713246e-001
-6.5923697e-001
-6.8174148e-001
-7.1485180e-001
-7.5705642e-001
-8.0379570e-001
-8.5059887e-001
-8.9810795e-001
-9.4995439e-001
-1.0136389e+000
-1.0937799e+000
-1.1771406e+000
-1.2447796e+000
-1.2830315e+000
-1.2860893e+000
-1.2690114e+000
-1.2517639e+000
-1.2409520e+000
-1.2355425e+000
-1.2265123e+000
-1.2060964e+000
-1.1836286e+000
-1.1742365e+000
-1.1866523e+000
-1.2235960e+000
-1.2742658e+000
-1.3240782e+000
-1.3658763e+000
-1.3959800e+000
-1.4121732e+000
-1.4132857e+000
-1.4010279e+000
-1.3794092e+000
-1.3555886e+000
-1.3370066e+000
-1.3254129e+000
-1.3195982e+000
-1.3150486e+000
-1.3051280e+000
-1.2797132e+000
-1.2298878e+000
-1.1566960e+000
-1.0701795e+000
-9.9877572e-001
-9.7590083e-001
-1.0218240e+000
-1.1405092e+000
-1.2931094e+000
-1.4275084e+000
-1.5154365e+000
-1.5490807e+000
-1.5567074e+000
-1.5755119e+000
-1.6134989e+000
-1.6610487e+000
-1.6948357e+000
-1.6921808e+000
-1.6565069e+000
-1.6044776e+000
-1.5534220e+000
-1.5180308e+000
-1.5032510e+000
-1.5087572e+000
-1.5311314e+000
-1.5628908e+000
-1.5843858e+000
-1.5731771e+000
-1.5188735e+000
-1.4242706e+000
-1.3213845e+000
-1.2513665e+000
-1.2351403e+000
-1.2750841e+000
-1.3405440e+000
-1.3896668e+000
-1.4006814e+000
-1.3680264e+000
-1.3086731e+000
-1.2504895e+000
-1.2227737e+000
-1.2495500e+000
-1.3336594e+000
-1.4620287e+000
-1.5997849e+000
-1.7070701e+000
-1.7672600e+000
-1.7796483e+000
-1.7552800e+000
-1.7071126e+000
-1.6321383e+000
-1.5207900e+000
-1.3720689e+000
-1.1977658e+000
-1.0414948e+000
-9.5413828e-001
-9.4547874e-001
-9.9563348e-001
-1.0594280e+000
-1.0898647e+000
-1.0834512e+000
-1.0611365e+000
-1.0396560e+000
-1.0267425e+000
-1.0112783e+000
-9.7522366e-001
-9.1574430e-001
-8.4105188e-001
-7.6666129e-001
-7.0986152e-001
-6.8113112e-001
-6.8401074e-001
-7.0993882e-001
-7.4437892e-001
-7.7557296e-001
-7.9467416e-001
-7.9586303e-001
-7.7512962e-001
-7.2949678e-001
-6.6069704e-001
-5.8921498e-001
-5.4312110e-001
-5.3490186e-001
-5.6269503e-001
-6.0727519e-001
-6.4237255e-001
-6.5215117e-001
-6.2820733e-001
-5.6272870e-001
-4.5384103e-001
-3.2791439e-001
-2.2750179e-001
-1.8945111e-001
-2.3433717e-001
-3.3402085e-001
-4.3405643e-001
-4.9596384e-001
-4.9933439e-001
-4.4531605e-001
-3.5098639e-001
-2.5016728e-001
-1.8258736e-001
-1.7269634e-001
-2.2657061e-001
-3.1662560e-001
-3.9768180e-001
-4.3801171e-001
-4.2357311e-001
-3.6997694e-001
-3.0656454e-001
-2.4241303e-001
-1.6897450e-001
-6.8208411e-002
7.5901076e-002
2.4986155e-001
4.1684067e-001
5.2632284e-001
5.3103763e-001
4.2932200e-001
2.5875407e-001
9.0410292e-002
1.3006479e-004
-1.2993524e-003
5.4006323e-002
1.5384141e-001
3.0129141e-001
4.7888428e-001
6.4609790e-001
7.3422873e-001
6.7612171e-001
4.9272776e-001
2.7051634e-001
9.9086918e-002
3.5238635e-002
1.3806542e-002
-8.7290496e-002
-2.5185585e-001
-3.6259869e-001
-3.5197079e-001
-2.1780089e-001
-2.1959096e-002
1.4031124e-001
2.0440291e-001
1.5065046e-001
3.6843549e-002
-4.0285561e-002
-5.2797999e-002
-3.7591718e-002
-5.7693101e-002
-1.7010486e-001
-3.5125491e-001
-5.1286077e-001
-5.5826849e-001
-3.9889210e-001
2.9070511e-002
7.4640095e-001
1.6599571e+000
2.5981832e+000
3.4239457e+000
4.0723748e+000
4.6304860e+000
5.3019724e+000
6.3036175e+000
7.8287230e+000
9.9930630e+000
1.2795671e+001
1.5973858e+001
1.9099390e+001
2.1920223e+001
2.4414860e+001
2.6827827e+001
2.9562029e+001
3.2870094e+001
3.6767242e+001
4.0873600e+001
4.4608128e+001
4.7859459e+001
5.0961941e+001
5.4274590e+001
5.8037193e+001
6.2173779e+001
6.6375504e+001
7.0441902e+001
7.4313843e+001
7.7959373e+001
8.1356522e+001
8.4541740e+001
8.7590530e+001
9.0515564e+001
9.3223595e+001
9.5407639e+001
9.6657288e+001
9.6914581e+001
9.6446152e+001
9.5446342e+001
9.3963707e+001
9.1939529e+001
8.9278526e+001
8.6061119e+001
8.2520508e+001
7.8808510e+001
7.4962128e+001
7.0973640e+001
6.6827965e+001
6.2573456e+001
5.8321560e+001
5.4182915e+001
5.0254528e+001
4.6635082e+001
4.3409801e+001
4.0585846e+001
3.8097244e+001
3.5882034e+001
3.3904995e+001
3.2158337e+001
3.0654026e+001
2.9387501e+001
2.8328381e+001
2.7430376e+001
2.6644674e+001
2.5962564e+001
2.5416836e+001
2.5052719e+001
2.4920509e+001
2.5072435e+001
2.5553514e+001
2.6354885e+001
2.7400476e+001
2.8543905e+001
2.9600060e+001
3.0485960e+001
3.1240393e+001
3.1940569e+001
3.2702698e+001
3.3776070e+001
3.5478672e+001
3.7792728e+001
4.0321991e+001
4.2642342e+001
4.4444897e+001
4.5750790e+001
4.6888393e+001
4.8063671e+001
4.9252796e+001
5.0286499e+001
5.0912621e+001
5.1005772e+001
5.0622105e+001
4.9937382e+001
4.9193924e+001
4.8497673e+001
4.7774250e+001
4.6881935e+001
4.5660194e+001
4.4036995e+001
4.2069672e+001
3.9944931e+001
3.7928024e+001
3.6064838e+001
3.4128471e+001
3.1879513e+001
2.9184364e+001
2.6189640e+001
2.3310078e+001
2.0798008e+001
1.8628130e+001
1.6665714e+001
1.4731966e+001
1.2721751e+001
1.0633865e+001
8.4982424e+000
6.3677130e+000
4.3509140e+000
2.6121645e+000
1.2758901e+000
4.0683165e-001
8.6894542e-002
3.9590114e-001
1.2061691e+000
2.1568780e+000
3.0067172e+000
3.7394650e+000
4.4210153e+000
5.1407104e+000
5.8850956e+000
6.5032659e+000
6.8334599e+000
6.7690210e+000
6.3748398e+000
5.9024258e+000
5.5074730e+000
5.1676178e+000
4.8437996e+000
4.5262942e+000
4.2124324e+000
3.8973367e+000
3.5566115e+000
3.1474612e+000
2.6631222e+000
2.1528652e+000
1.6813539e+000
1.3131428e+000
1.0874006e+000
1.0058786e+000
1.0508826e+000
1.1884990e+000
1.3811285e+000
1.5939170e+000
1.8104386e+000
2.0403969e+000
2.3024521e+000
2.6177592e+000
2.9975903e+000
3.4346681e+000
3.8990521e+000
4.3349981e+000
4.6866856e+000
4.9125319e+000
5.0050211e+000
5.0006394e+000
4.9341841e+000
4.8229799e+000
4.6766095e+000
4.4993987e+000
4.3001022e+000
4.0940905e+000
3.8871486e+000
3.6692348e+000
3.4339280e+000
3.1846194e+000
2.9218531e+000
2.6371393e+000
2.3120186e+000
1.9216105e+000
1.4722216e+000
1.0198860e+000
6.2428546e-001
3.2790601e-001
1.3780183e-001
1.4681015e-002
-7.0802510e-002
-1.1494036e-001
-1.0239032e-001
-1.6229510e-002
1.3016814e-001
2.7648658e-001
3.6738828e-001
3.7812537e-001
3.2256341e-001
2.6308781e-001
2.5203794e-001
3.0602229e-001
4.2679536e-001
6.0416085e-001
8.2142305e-001
1.0551097e+000
1.2779200e+000
1.4607464e+000
1.5870268e+000
1.6630802e+000
1.7019917e+000
1.7194992e+000
1.7279571e+000
1.7328631e+000
1.7401246e+000
1.7586153e+000
1.7943001e+000
1.8467383e+000
1.9117283e+000
1.9815030e+000
2.0497520e+000
2.1147778e+000
2.1789241e+000
2.2494192e+000
2.3335235e+000
2.4351878e+000
2.5529742e+000
2.6777310e+000
2.8042755e+000
2.9389632e+000
3.0956104e+000
3.2962179e+000
3.5563240e+000
3.8758588e+000
4.2494183e+000
4.6685276e+000
5.1286745e+000
5.6336694e+000
6.1860166e+000
6.7824163e+000
7.4152846e+000
8.0713005e+000
8.7320452e+000
9.3717852e+000
9.9613628e+000
1.0469776e+001
1.0877628e+001
1.1187184e+001
1.1409120e+001
1.1555187e+001
1.1628371e+001
1.1614550e+001
1.1498377e+001
1.1274280e+001
1.0945660e+001
1.0530440e+001
1.0047183e+001
9.5159178e+000
8.9546852e+000
8.3823328e+000
7.8156700e+000
7.2661123e+000
6.7347841e+000
6.2043500e+000
5.6545300e+000
5.0692220e+000
4.4459715e+000
3.8087640e+000
3.1898584e+000
2.6241500e+000
2.1374958e+000
1.7345614e+000
1.4107012e+000
1.1535037e+000
9.5396280e-001
8.1479406e-001
7.3956603e-001
7.2665775e-001
7.6388842e-001
8.1900769e-001
8.5852730e-001
8.5805744e-001
8.0609292e-001
7.1523535e-001
6.0438168e-001
4.9319521e-001
3.9619771e-001
3.1555244e-001
2.4723896e-001
1.8028840e-001
1.0632518e-001
2.7729031e-002
-4.2172063e-002
-7.1602181e-002
-3.4129545e-002
7.3958501e-002
2.5161028e-001
4.9884591e-001
8.1214482e-001
1.1790750e+000
1.5860875e+000
2.0214944e+000
2.4700620e+000
2.9078314e+000
3.3167760e+000
3.6990101e+000
4.0617399e+000
4.4132729e+000
4.7601666e+000
5.1040149e+000
5.4474545e+000
5.7986803e+000
6.1624455e+000
6.5326076e+000
6.9054356e+000
7.2908521e+000
7.7021856e+000
8.1520042e+000
8.6400757e+000
9.1338978e+000
9.5953598e+000
9.9929838e+000
1.0309914e+001
1.0564095e+001
1.0779234e+001
1.0969010e+001
1.1143057e+001
1.1295402e+001
1.1422960e+001
1.1542785e+001
1.1671937e+001
1.1820279e+001
1.1986320e+001
1.2142585e+001
1.2257794e+001
1.2305066e+001
1.2257971e+001
1.2094288e+001
1.1798869e+001
1.1372590e+001
1.0836160e+001
1.0249857e+001
9.6758347e+000
9.1526451e+000
8.6965046e+000
8.2754307e+000
7.8559799e+000
7.4335623e+000
7.0146194e+000
6.6156893e+000
6.2429900e+000
5.8659515e+000
5.4564376e+000
5.0217447e+000
4.5873632e+000
4.2078505e+000
3.9276173e+000
3.7377019e+000
3.6101193e+000
3.4968803e+000
3.3486559e+000
3.1269464e+000
2.8085980e+000
2.4114571e+000
1.9715543e+000
1.5514232e+000
1.2035364e+000
9.3000591e-001
7.1302950e-001
5.1333207e-001
3.0125725e-001
9.5425352e-002
-7.0590146e-002
-1.5397248e-001
-1.2425892e-001
9.7368658e-004
1.9020087e-001
4.0539956e-001
6.1533082e-001
8.1661463e-001
1.0114223e+000
1.1974800e+000
1.3670669e+000
1.4992168e+000
1.5699480e+000
1.5580120e+000
1.4512343e+000
1.2681264e+000
1.0337608e+000
7.7049363e-001
5.0462735e-001
2.7935502e-001
1.2284852e-001
-4.2579621e-003
-1.3170359e-001
-1.9518010e-001
-1.3800797e-001
-1.5971340e-002
9.1180131e-002
1.1862829e-001
2.3345202e-002
-1.7079744e-001
-4.2104059e-001
-6.7657083e-001
-8.9831620e-001
-1.0990068e+000
-1.2961915e+000
-1.4767768e+000
-1.6137005e+000
-1.6560429e+000
-1.5593148e+000
-1.3272412e+000
-9.8316199e-001
-5.8158320e-001
-1.7932725e-001
1.8852457e-001
4.9228999e-001
