##TITLE=Methyl Ethyl Ketone
##JCAMP-DX=4.24
##DATA TYPE=INFRARED SPECTRUM
##XUNITS=cm-1
##YUNITS=Absorbance
##FIRSTX=900
##LASTX=2300
##XYDATA=(X++(Y..Y))
2296 0.050758
2294 0.051814489
2292 0.052869979
2290 0.053926468
2288 0.054981962
2286 0.056038443
2284 0.057093941
2282 0.058150422
2280 0.05920592
2278 0.06026141
2276 0.061317887
2274 0.062373389
2272 0.063429862
2270 0.064485371
2268 0.065541841
2266 0.06659735
2264 0.067653812
2262 0.068709336
2260 0.069765799
2258 0.070821308
2256 0.07187777
2254 0.072933294
2252 0.073989749
2250 0.075045273
2248 0.076100759
2246 0.077157214
2244 0.063066036
2242 0.0024115243
2240 -0.051768959
2238 -0.10502169
2236 -0.15814044
2234 -0.13563833
2232 -0.10613818
2230 -0.041888572
2228 0.020267706
2226 0.052753847
2224 0.081676975
2222 0.1014115
2220 0.12830473
2218 0.17861901
2216 0.22873715
2214 0.27550822
2212 0.30844221
2210 0.31908932
2208 0.33203027
2206 0.34951571
2204 0.35849866
2202 0.35896605
2200 0.32486972
2198 0.265351
2196 0.23326786
2194 0.21801092
2192 0.26641312
2190 0.34227094
2188 0.39859414
2186 0.44795999
2184 0.4466764
2182 0.43383849
2180 0.4148649
2178 0.39548513
2176 0.41087401
2174 0.43380347
2172 0.50615674
2170 0.57864648
2168 0.62514442
2166 0.65456092
2164 0.63103014
2162 0.60910302
2160 0.60480386
2158 0.61103225
2156 0.63378102
2154 0.63661635
2152 0.60813987
2150 0.55682391
2148 0.48345208
2146 0.43823466
2144 0.41995284
2142 0.45937908
2140 0.53704745
2138 0.62246203
2136 0.70995343
2134 0.75551176
2132 0.78319377
2130 0.76910621
2128 0.74217761
2126 0.70311487
2124 0.66151541
2122 0.65515399
2120 0.65598541
2118 0.68581587
2116 0.71682316
2114 0.72532749
2112 0.72363883
2110 0.69086617
2108 0.65297687
2106 0.61341959
2104 0.5794667
2102 0.55856287
2100 0.54468119
2098 0.53943288
2096 0.54165572
2094 0.55214894
2092 0.56752563
2090 0.586721
2088 0.58702463
2086 0.571015
2084 0.5206821
2082 0.44907784
2080 0.37673092
2078 0.3056066
2076 0.28395373
2074 0.28285506
2072 0.3210972
2070 0.37145257
2068 0.38838932
2066 0.39619577
2064 0.35171452
2062 0.29787394
2060 0.248441
2058 0.2039856
2056 0.18200201
2054 0.16366304
2052 0.14361542
2050 0.11381474
2048 0.061101556
2046 0.0017269105
2044 -0.061185308
2042 -0.09095417
2040 -0.07067585
2038 -0.0070650028
2036 0.095886752
2034 0.17379023
2032 0.22061938
2030 0.2184265
2028 0.18279111
2026 0.15086521
2024 0.1254364
2022 0.097685017
2020 0.068576932
2018 0.02318057
2016 -0.029568199
2014 -0.049639497
2012 -0.05936379
2010 -0.045134541
2008 -0.026347017
2006 -0.026386257
2004 -0.033853181
2002 -0.056776401
2000 -0.084979609
1998 -0.11498255
1996 -0.15102643
1994 -0.20141006
1992 -0.25722662
1990 -0.32110116
1988 -0.3663812
1986 -0.38082585
1984 -0.37511602
1982 -0.35136756
1980 -0.33028245
1978 -0.31473041
1976 -0.305976
1974 -0.3011876
1972 -0.30458242
1970 -0.31271759
1968 -0.31595388
1966 -0.31570619
1964 -0.31828916
1962 -0.32398507
1960 -0.37715718
1958 -0.45141727
1956 -0.53325558
1954 -0.6154452
1952 -0.61635661
1950 -0.58961713
1948 -0.5307008
1946 -0.468815
1944 -0.44867754
1942 -0.43766037
1940 -0.42789313
1938 -0.40568313
1936 -0.35350087
1934 -0.3014355
1932 -0.26224318
1930 -0.26709577
1928 -0.33111829
1926 -0.43888599
1924 -0.57903737
1922 -0.68728793
1920 -0.75492454
1918 -0.76082641
1916 -0.7252894
1914 -0.68862349
1912 -0.65758759
1910 -0.64368439
1908 -0.63851291
1906 -0.6161356
1904 -0.58448243
1902 -0.53923738
1900 -0.48971334
1898 -0.44513458
1896 -0.40326285
1894 -0.35711297
1892 -0.30913296
1890 -0.26780009
1888 -0.23353016
1886 -0.22727457
1884 -0.2312776
1882 -0.23665798
1880 -0.23634845
1878 -0.21743329
1876 -0.21669699
1874 -0.25232121
1872 -0.3291389
1870 -0.44455788
1868 -0.50784349
1866 -0.50181043
1864 -0.41195393
1862 -0.26442051
1860 -0.14137223
1858 -0.049802929
1856 -0.019848542
1854 -0.027529329
1852 -0.08840315
1850 -0.1759468
1848 -0.3130672
1846 -0.47183642
1844 -0.60857952
1842 -0.72592735
1840 -0.75915742
1838 -0.75271618
1836 -0.71574759
1834 -0.6710453
1832 -0.6310249
1830 -0.59127426
1828 -0.55368143
1826 -0.49522915
1824 -0.39952567
1822 -0.27939337
1820 -0.13849097
1818 -0.018912788
1816 0.061059855
1814 0.083134279
1812 0.047715671
1810 -0.02241688
1808 -0.11428208
1806 -0.20130199
1804 -0.27748755
1802 -0.37562525
1800 -0.49196562
1798 -0.63346511
1796 -0.79045212
1794 -0.8627426
1792 -0.87888885
1790 -0.75297469
1788 -0.54893869
1786 -0.36071551
1784 -0.19730504
1782 -0.14944811
1780 -0.17910677
1778 -0.2779845
1776 -0.41225713
1774 -0.53812295
1772 -0.61483109
1770 -0.57724839
1768 -0.45135367
1766 -0.25945556
1764 -0.075460061
1762 0.04812713
1760 0.032989651
1758 -0.073805675
1756 -0.191422
1754 -0.30129448
1752 -0.42570052
1750 -0.56460845
1748 -0.73888695
1746 -0.95095176
1744 -1.1116703
1742 -1.2255901
1740 -1.2422935
1738 -1.1807957
1736 -1.053246
1734 -0.8762877
1732 -0.67285615
1730 -0.45901543
1728 -0.28369525
1726 -0.14905366
1724 -0.057520878
1722 -0.0072873095
1720 0.0059085689
1718 0.044838749
1716 0.24893169
1714 0.65155375
1712 1.3007897
1710 2.0872149
1708 2.910594
1706 3.8306956
1704 4.9212623
1702 6.4858165
1700 8.6901398
1698 11.860041
1696 15.996571
1694 20.20141
1692 24.067102
1690 27.356699
1688 30.137325
1686 33.353951
1684 37.137581
1682 41.927052
1680 47.53516
1678 52.63586
1676 57.216
1674 61.613903
1672 65.949539
1670 70.906563
1668 76.289001
1666 81.364449
1664 86.01683
1662 89.81382
1660 92.824646
1658 95.157486
1656 96.870171
1654 98.077362
1652 98.757416
1650 98.911987
1648 98.56633
1646 97.750893
1644 96.640091
1642 95.422867
1640 93.92173
1638 92.092857
1636 89.584129
1634 86.328232
1632 82.598389
1630 78.551796
1628 74.298882
1626 69.906891
1624 65.162804
1622 60.086174
1620 55.138988
1618 50.361229
1616 45.972084
1614 41.983368
1612 38.470364
1610 35.430767
1608 32.790047
1606 30.538401
1604 28.572954
1602 26.92841
1600 25.618389
1598 24.635241
1596 23.916
1594 23.453024
1592 23.194925
1590 23.160152
1588 23.335445
1586 23.713514
1584 24.272074
1582 24.96003
1580 25.742605
1578 26.715908
1576 27.909029
1574 29.459677
1572 31.386265
1570 33.536877
1568 35.868042
1566 38.111229
1564 40.23177
1562 42.245041
1560 44.186138
1558 46.510281
1556 49.21627
1554 51.791801
1552 54.055882
1550 55.527912
1548 56.201088
1546 56.499607
1544 56.335262
1542 55.660648
1540 54.462639
1538 52.779022
1536 50.891712
1534 49.216236
1532 47.667027
1530 46.199944
1528 44.702518
1526 43.083599
1524 41.259914
1522 39.1647
1520 36.858738
1518 34.325638
1516 31.941357
1514 29.848801
1512 27.86084
1510 25.985064
1508 23.716621
1506 20.935329
1504 18.194822
1502 15.54593
1500 13.341532
1498 11.6317
1496 9.9569283
1494 8.3298206
1492 6.7270417
1490 5.1890297
1488 3.7710652
1486 2.5381687
1484 1.55662
1482 0.83599412
1480 0.35608786
1478 0.097164832
1476 0.03433134
1474 0.3257232
1472 1.0131934
1470 1.975275
1468 3.1514759
1466 4.2900686
1464 5.2582803
1462 6.1089568
1460 6.8479495
1458 7.6097765
1456 8.4328995
1454 9.2477989
1452 10.011939
1450 10.552287
1448 10.743691
1446 10.746893
1444 10.487137
1442 10.111142
1440 9.5743389
1438 8.8938951
1436 8.0452385
1434 7.0879416
1432 6.0827527
1430 5.2336841
1428 4.5693421
1426 4.0993571
1424 3.7949498
1422 3.5738714
1420 3.466012
1418 3.4873791
1416 3.6652427
1414 4.03719
1412 4.5012455
1410 5.0220861
1408 5.5425415
1406 6.0357776
1404 6.4853854
1402 6.8499446
1400 7.1031199
1398 7.1665459
1396 7.1223001
1394 6.9020133
1392 6.6835237
1390 6.4507837
1388 6.2312922
1386 6.0217853
1384 5.789464
1382 5.5184808
1380 5.1983886
1378 4.8072309
1376 4.3335629
1374 3.7843027
1372 3.208354
1370 2.6249197
1368 2.0883467
1366 1.5720485
1364 1.0464306
1362 0.54049104
1360 0.089694336
1358 -0.2483277
1356 -0.37512243
1354 -0.35713428
1352 -0.16354126
1350 0.1245614
1348 0.51705933
1346 0.91569638
1344 1.286168
1342 1.6052256
1340 1.8224689
1338 2.013895
1336 2.1538343
1334 2.2957428
1332 2.4101837
1330 2.4869452
1328 2.4955246
1326 2.4602745
1324 2.3773966
1322 2.2861102
1320 2.1983898
1318 2.1245966
1316 2.0741401
1314 2.0465243
1312 2.0342138
1310 2.0323832
1308 2.0256679
1306 2.007303
1304 1.9789417
1302 1.9439369
1300 1.9156351
1298 1.9066575
1296 1.9314286
1294 2.0242999
1292 2.1710706
1290 2.4170218
1288 2.7048481
1286 3.0633345
1284 3.4405673
1282 3.8493226
1280 4.239408
1278 4.5790138
1276 4.8452244
1274 4.9722037
1272 5.0502892
1270 5.0642986
1268 5.1249328
1266 5.2619252
1264 5.4769678
1262 5.7878065
1260 6.1503081
1258 6.5747428
1256 7.0544314
1254 7.5958009
1252 8.2097015
1250 8.8840628
1248 9.6147118
1246 10.3745
1244 11.135411
1242 11.866666
1240 12.498903
1238 13.029041
1236 13.313043
1234 13.440403
1232 13.2072
1230 12.832852
1228 12.119885
1226 11.334357
1224 10.365228
1222 9.3889904
1220 8.4024811
1218 7.474268
1216 6.6745
1214 5.9851441
1212 5.4971175
1210 5.1531115
1208 5.020534
1206 5.0042691
1204 5.1068521
1202 5.1815157
1200 5.1914988
1198 5.0208931
1196 4.6852856
1194 4.191649
1192 3.6106937
1190 3.0399299
1188 2.4998949
1186 2.0681643
1184 1.6997291
1182 1.4457389
1180 1.2512257
1178 1.1950464
1176 1.18374
1174 1.2784152
1172 1.3780919
1170 1.4710926
1168 1.5529703
1166 1.59991
1164 1.6451252
1162 1.6835589
1160 1.6997405
1158 1.6661983
1156 1.5837457
1154 1.4205439
1152 1.2277062
1150 0.99728179
1148 0.76362878
1146 0.53151715
1144 0.32661515
1142 0.1566014
1140 0.056312155
1138 0.011681223
1136 0.018836256
1134 0.055781126
1132 0.13988283
1130 0.254035
1128 0.43224856
1126 0.63362503
1124 0.8660754
1122 1.0838898
1120 1.195172
1118 1.2754147
1116 1.2427458
1114 1.2160032
1112 1.2224429
1110 1.2370907
1108 1.2760185
1106 1.300055
1104 1.2887681
1102 1.285957
1100 1.3052851
1098 1.3721268
1096 1.5189857
1094 1.727595
1092 2.0176759
1090 2.3584013
1088 2.7454188
1086 3.1173065
1084 3.466691
1082 3.7368731
1080 3.9491138
1078 4.079772
1076 4.1640344
1074 4.1771779
1072 4.1560693
1070 4.0580449
1068 3.9376235
1066 3.7802677
1064 3.62286
1062 3.5013664
1060 3.3861907
1058 3.3006966
1056 3.2271314
1054 3.2068489
1052 3.2033937
1050 3.2509809
1048 3.2696171
1046 3.2162323
1044 3.131309
1042 2.9926739
1040 2.9038382
1038 2.8924584
1036 2.9487798
1034 3.0802665
1032 3.2004731
1030 3.3032801
1028 3.3255167
1026 3.2825379
1024 3.1332388
1022 2.917748
1020 2.5912287
1018 2.2180536
1016 1.8051486
1014 1.3887682
1012 1.0507615
1010 0.73221225
1008 0.4829492
1006 0.23602004
1004 -0.052020431
1002 -0.33770204
1000 -0.60390639
998 -0.84065515
996 -0.94700068
994 -1.0265111
992 -1.022187
990 -0.99148631
988 -0.89912295
986 -0.77396178
984 -0.59340191
982 -0.4442651
980 -0.34027401
978 -0.30089426
976 -0.32740915
974 -0.339479
972 -0.33818465
970 -0.30097607
968 -0.2427536
966 -0.206645
964 -0.17977008
962 -0.14073983
960 -0.096026435
958 -0.0063939095
956 0.090426542
954 0.13962924
952 0.17885041
950 0.11856419
948 0.055930883
946 0.018434249
944 0.0034098849
942 0.10777591
940 0.36907619
938 0.88951719
936 1.4143944
934 1.9497972
932 2.385555
930 2.6062181
928 2.7094891
926 2.6252756
924 2.506804
922 2.3480122
920 2.2310507
918 2.1521633
916 2.0543058
914 1.9423586
912 1.7913457
910 1.622382
908 1.6311728
906 1.7106292
904 1.9386344
902 2.2066238
900 2.4451702
898 2.679678
896 3.0836999
