Image.
>Pix99999.
  .
5555
5555
2300
900
5555
2
1
0
701
5555
5.0627999e-002
5.1681492e-002
5.2733991e-002
5.3787477e-002
5.4840971e-002
5.5894464e-002
5.6946967e-002
5.8000449e-002
5.9053943e-002
6.0107436e-002
6.1159942e-002
6.2213421e-002
6.3266918e-002
6.4320408e-002
6.5372922e-002
6.6426396e-002
6.7479886e-002
6.8533376e-002
6.9585897e-002
7.0639364e-002
7.1692854e-002
7.2746351e-002
7.3798873e-002
7.4852332e-002
7.5905830e-002
7.6959319e-002
3.3322763e-002
1.2203229e-003
-6.8402877e-003
-5.2750137e-002
-1.0436708e-001
-1.5364937e-001
-1.9991800e-001
-1.8258218e-001
-1.5211619e-001
-4.1078802e-002
7.8080125e-002
2.1572173e-001
3.2958525e-001
3.6801344e-001
3.6828884e-001
2.9449496e-001
2.2238040e-001
1.6013199e-001
1.4337932e-001
1.8257728e-001
2.5086081e-001
3.4372762e-001
4.0028399e-001
4.2848551e-001
4.0612215e-001
3.5569626e-001
3.0988958e-001
2.6693285e-001
2.4913655e-001
2.3945206e-001
2.6314679e-001
2.9439789e-001
3.5390705e-001
4.1692314e-001
4.2539513e-001
4.2284188e-001
3.5220772e-001
2.7766597e-001
2.1775497e-001
1.7559722e-001
1.9298749e-001
2.3013161e-001
3.0263674e-001
3.7119293e-001
4.2540002e-001
4.6016213e-001
4.6890873e-001
4.6971810e-001
4.6466941e-001
4.5874858e-001
4.5260990e-001
4.5606071e-001
4.6621987e-001
4.8308808e-001
5.0321943e-001
5.0053722e-001
4.8804089e-001
4.5634276e-001
4.1877958e-001
3.8369721e-001
3.4932381e-001
3.4472343e-001
3.4687319e-001
3.8700101e-001
4.3178770e-001
4.7073051e-001
5.0084382e-001
4.9546698e-001
4.8184478e-001
4.5906022e-001
4.4305286e-001
4.4504425e-001
4.4642961e-001
4.4236878e-001
4.2980859e-001
4.0723294e-001
3.8815221e-001
3.7420669e-001
3.5171503e-001
3.2144850e-001
2.8392574e-001
2.4226974e-001
1.9942737e-001
1.5630841e-001
1.0205887e-001
4.3224871e-002
1.5986400e-002
-8.5147424e-004
4.6069562e-002
1.0896023e-001
1.9360635e-001
2.7919948e-001
3.2974511e-001
3.6282340e-001
3.3768973e-001
2.9814887e-001
2.4865921e-001
2.1137403e-001
2.1116583e-001
2.1914749e-001
2.2921179e-001
2.2503439e-001
1.9812977e-001
1.6810986e-001
1.3889985e-001
1.2176860e-001
1.1631115e-001
1.3135161e-001
1.6126005e-001
2.0512322e-001
2.5660530e-001
2.7108857e-001
2.6587379e-001
2.1658288e-001
1.4954999e-001
1.2591159e-001
1.1710866e-001
1.5793546e-001
2.0981514e-001
2.3472522e-001
2.4897808e-001
2.3809090e-001
2.2002126e-001
2.0034418e-001
1.7942856e-001
1.5718867e-001
1.3956726e-001
1.3134925e-001
1.3702880e-001
1.6069879e-001
1.8968691e-001
2.2020732e-001
2.4370196e-001
2.5983688e-001
2.7175373e-001
2.8180748e-001
2.8979892e-001
2.9690000e-001
2.9117915e-001
2.7734342e-001
2.3805304e-001
1.8541408e-001
1.3709800e-001
9.1206670e-002
9.3275584e-002
1.1321543e-001
1.6425863e-001
2.2203746e-001
2.5854269e-001
2.8077501e-001
2.6150870e-001
2.2904555e-001
1.8893071e-001
1.5879789e-001
1.5933371e-001
1.7788416e-001
2.1667160e-001
2.4898784e-001
2.6401052e-001
2.5893199e-001
2.3536174e-001
2.0491157e-001
1.7091343e-001
1.2983260e-001
8.0702029e-002
4.1846450e-002
1.2342535e-002
1.7363813e-002
4.4219974e-002
7.8482553e-002
1.1451373e-001
1.2383083e-001
1.1986692e-001
1.1991868e-001
1.2345286e-001
1.5526861e-001
1.9933972e-001
2.4824250e-001
2.9780045e-001
3.3837914e-001
3.6885473e-001
3.7778360e-001
3.6989063e-001
3.4283796e-001
3.0545801e-001
2.6540595e-001
2.3055772e-001
2.0728184e-001
1.9855343e-001
1.9861643e-001
1.8672663e-001
1.5514700e-001
1.1320348e-001
6.8306908e-002
3.3461485e-002
8.9349337e-003
-4.5465522e-002
-1.1926196e-001
-2.3815000e-001
-3.7941998e-001
-4.5729271e-001
-4.9639216e-001
-4.3645361e-001
-3.3361772e-001
-2.4786757e-001
-1.8292139e-001
-1.7260234e-001
-1.8665685e-001
-2.0444140e-001
-1.9575122e-001
-1.2109751e-001
-1.1362974e-002
1.1584436e-001
2.2144879e-001
2.8300884e-001
2.9506063e-001
2.6121899e-001
1.8759489e-001
8.2847029e-002
-3.3331148e-002
-1.5217406e-001
-2.6645994e-001
-3.7389702e-001
-4.6186864e-001
-5.3477144e-001
-5.4673541e-001
-5.1995921e-001
-4.3388122e-001
-3.1668413e-001
-2.1996172e-001
-1.4034274e-001
-9.2777118e-002
-6.6091232e-002
-5.1039338e-002
-4.8122026e-002
-6.9673546e-002
-9.5503755e-002
-1.0745665e-001
-9.9847019e-002
-6.7312196e-002
-3.2227818e-002
-7.8589544e-003
4.5698811e-003
-9.8162331e-002
-2.8249043e-001
-4.8317599e-001
-6.8452203e-001
-8.7668794e-001
-9.9984378e-001
-1.0540822e+000
-1.0330051e+000
-9.6245146e-001
-9.5208812e-001
-1.0000535e+000
-1.1024799e+000
-1.2365268e+000
-1.2019451e+000
-1.0447317e+000
-7.8811473e-001
-4.8204780e-001
-2.5796250e-001
-9.9308819e-002
7.1257763e-003
1.3676906e-001
4.5739084e-001
9.6729898e-001
1.6838074e+000
2.5127277e+000
3.3574519e+000
4.3074841e+000
5.4524875e+000
7.1044154e+000
9.4343538e+000
1.2738470e+001
1.7017429e+001
2.1350681e+001
2.5320961e+001
2.8726294e+001
3.1630775e+001
3.4990799e+001
3.8935764e+001
4.3831982e+001
4.9500080e+001
5.4600723e+001
5.9135929e+001
6.3418877e+001
6.7573784e+001
7.2243668e+001
7.7259628e+001
8.1997749e+001
8.6372238e+001
9.0042595e+001
9.3043831e+001
9.5405701e+001
9.7134659e+001
9.8255150e+001
9.8780563e+001
9.8766663e+001
9.8335571e+001
9.7628319e+001
9.6743393e+001
9.5785942e+001
9.4468460e+001
9.2683090e+001
9.0019485e+001
8.6418373e+001
8.2326431e+001
7.7965988e+001
7.3530670e+001
6.9082031e+001
6.4257957e+001
5.9057240e+001
5.3909950e+001
4.8867569e+001
4.4289913e+001
4.0197701e+001
3.6695599e+001
3.3772011e+001
3.1286131e+001
2.9213642e+001
2.7401720e+001
2.5872829e+001
2.4623457e+001
2.3652742e+001
2.2916000e+001
2.2423058e+001
2.2149445e+001
2.2122553e+001
2.2336632e+001
2.2774551e+001
2.3399982e+001
2.4160271e+001
2.5013851e+001
2.6071571e+001
2.7370001e+001
2.9044445e+001
3.1118626e+001
3.3421570e+001
3.5907360e+001
3.8284916e+001
4.0512352e+001
4.2545837e+001
4.4405926e+001
4.6550407e+001
4.8979099e+001
5.1348701e+001
5.3489994e+001
5.4881760e+001
5.5515858e+001
5.5757000e+001
5.5537231e+001
5.4862034e+001
5.3704483e+001
5.2107346e+001
5.0317429e+001
4.8699566e+001
4.7187477e+001
4.5726604e+001
4.4210686e+001
4.2555199e+001
4.0718613e+001
3.8667740e+001
3.6478313e+001
3.4162708e+001
3.2000172e+001
3.0099205e+001
2.8247360e+001
2.6421606e+001
2.4087318e+001
2.1095163e+001
1.8102011e+001
1.5174521e+001
1.2790900e+001
1.1018770e+001
9.3130426e+000
7.6763291e+000
6.0378599e+000
4.4448423e+000
2.9988120e+000
1.7832435e+000
8.8516092e-001
3.1134146e-001
-8.7010115e-004
-8.3409652e-002
2.0739108e-002
4.4972324e-001
1.2439975e+000
2.2701869e+000
3.4649382e+000
4.6065788e+000
5.5619612e+000
6.3868322e+000
7.0802689e+000
7.7601047e+000
8.4539404e+000
9.1195660e+000
9.7239380e+000
1.0130881e+001
1.0235937e+001
1.0189535e+001
9.9326735e+000
9.5988998e+000
9.1498909e+000
8.5707769e+000
7.8218713e+000
6.9289851e+000
5.9372072e+000
5.0545859e+000
4.3319101e+000
3.8256614e+000
3.5178878e+000
3.3314841e+000
3.2743783e+000
3.3417597e+000
3.5536199e+000
3.9432201e+000
4.4272804e+000
4.9709177e+000
5.5122075e+000
6.0155244e+000
6.4579682e+000
6.7944670e+000
7.0115237e+000
7.0338235e+000
6.9473071e+000
6.6879129e+000
6.4353452e+000
6.1884670e+000
5.9661393e+000
5.7716198e+000
5.5487080e+000
5.2807145e+000
4.9687071e+000
4.5934362e+000
4.1535945e+000
3.6470087e+000
3.1067321e+000
2.5514650e+000
2.0359919e+000
1.5419765e+000
1.0418580e+000
5.5436867e-001
1.0455789e-001
-2.4305221e-001
-3.8332272e-001
-3.7102810e-001
-1.7043245e-001
1.4184582e-001
5.8704782e-001
1.0479468e+000
1.5044800e+000
1.9221630e+000
2.2565424e+000
2.5381920e+000
2.7116058e+000
2.8309174e+000
2.8362892e+000
2.7834589e+000
2.6355867e+000
2.4569786e+000
2.2479515e+000
2.0589535e+000
1.9081640e+000
1.8027622e+000
1.7481899e+000
1.7155466e+000
1.6933182e+000
1.6569030e+000
1.6041546e+000
1.5415685e+000
1.4774629e+000
1.4263821e+000
1.3891709e+000
1.3721583e+000
1.3839999e+000
1.4538516e+000
1.5841051e+000
1.8391269e+000
2.1513839e+000
2.5664358e+000
2.9840090e+000
3.3859968e+000
3.7426205e+000
3.9933848e+000
4.1862946e+000
4.2730560e+000
4.3514404e+000
4.4284835e+000
4.5590491e+000
4.7706065e+000
5.0339355e+000
5.3646812e+000
5.7434621e+000
6.1874237e+000
6.7125487e+000
7.3217816e+000
8.0130339e+000
8.7630386e+000
9.5418854e+000
1.0324000e+001
1.1065960e+001
1.1757579e+001
1.2330932e+001
1.2807645e+001
1.3076100e+001
1.3218166e+001
1.3073240e+001
1.2797619e+001
1.2191548e+001
1.1492429e+001
1.0551030e+001
9.5805016e+000
8.5497637e+000
7.5665112e+000
6.6929402e+000
5.9421587e+000
5.4151073e+000
5.0493579e+000
4.9170547e+000
4.8971086e+000
4.9932361e+000
5.0662403e+000
5.0858293e+000
4.9570503e+000
4.6866503e+000
4.2608213e+000
3.7371366e+000
3.1729331e+000
2.6156976e+000
2.1604614e+000
1.7734572e+000
1.5295711e+000
1.3431717e+000
1.2599208e+000
1.2101799e+000
1.2397707e+000
1.2780669e+000
1.3306117e+000
1.3679903e+000
1.3582001e+000
1.3386303e+000
1.2936490e+000
1.2344508e+000
1.1445624e+000
1.0323963e+000
8.8766503e-001
7.5584924e-001
6.4440238e-001
5.5464202e-001
4.8318142e-001
3.8957101e-001
2.7597737e-001
1.5405282e-001
3.2802485e-002
-5.8405891e-002
-1.2832101e-001
-1.0869451e-001
-4.0603846e-002
1.0252905e-001
2.6797378e-001
4.4358969e-001
6.0240698e-001
6.6290277e-001
7.0244491e-001
6.7908514e-001
6.7007029e-001
7.2687978e-001
8.0853152e-001
9.6785885e-001
1.1282800e+000
1.2873245e+000
1.4129817e+000
1.4726697e+000
1.5117975e+000
1.5257858e+000
1.5823885e+000
1.7036760e+000
1.9217373e+000
2.2429743e+000
2.6382835e+000
3.0789261e+000
3.4416952e+000
3.7288234e+000
3.8037000e+000
3.7699842e+000
3.6386249e+000
3.4855406e+000
3.4047091e+000
3.3409677e+000
3.2863915e+000
3.2256560e+000
3.1118457e+000
2.9990921e+000
2.9100642e+000
2.8305800e+000
2.7938273e+000
2.7700834e+000
2.7892551e+000
2.8243148e+000
2.8945501e+000
2.9375494e+000
2.9252036e+000
2.8588576e+000
2.7166502e+000
2.5935400e+000
2.4958899e+000
2.4366519e+000
2.4073434e+000
2.3359528e+000
2.2298043e+000
2.0609407e+000
1.8548651e+000
1.6019529e+000
1.3307101e+000
1.0580606e+000
7.8772634e-001
5.4752541e-001
3.1036246e-001
4.9386799e-002
-2.1034963e-001
-4.3230426e-001
-6.3909781e-001
-7.4533349e-001
-8.5587865e-001
-9.8526216e-001
-1.1149840e+000
-1.2431234e+000
-1.3246551e+000
-1.2993226e+000
-1.2599728e+000
-1.1969709e+000
-1.1519978e+000
-1.1285419e+000
-1.0668890e+000
-9.6442974e-001
-8.3287376e-001
-6.8158400e-001
-5.9003693e-001
-5.3910053e-001
-5.7614845e-001
-6.5367532e-001
-7.4843353e-001
-8.4501213e-001
-8.5954374e-001
-8.5129654e-001
-7.2197139e-001
-5.7643878e-001
-3.9091533e-001
-2.0682849e-001
-6.8168253e-002
3.9699450e-003
1.2006341e-001
2.5215298e-001
4.5323157e-001
6.8311203e-001
9.9699533e-001
1.2961940e+000
1.5612153e+000
1.7138942e+000
1.6854478e+000
1.5642220e+000
1.3320007e+000
1.1718971e+000
1.0806050e+000
1.1203885e+000
1.2523239e+000
1.3784125e+000
1.5013700e+000
1.5781126e+000
1.6379465e+000
1.7143645e+000
1.7959174e+000
1.9631183e+000
2.1447406e+000
2.6624000e+000
