Image.
>Pix99999.
  .
5555
5555
2300
900
5555
2
1
0
701
5555
-1.1196000e-002
-1.1428667e-002
-1.1662331e-002
-1.1895002e-002
-1.2127669e-002
-1.2360335e-002
-1.2593994e-002
-1.2826670e-002
-1.3059338e-002
-1.3292004e-002
-1.3525657e-002
-1.3758339e-002
-1.3991006e-002
-1.4223673e-002
-1.4457320e-002
-1.4690007e-002
-1.4922675e-002
-1.5155341e-002
-1.5388982e-002
-1.5621676e-002
-1.5854344e-002
-1.6087009e-002
-1.6320646e-002
-1.6553344e-002
-1.6786011e-002
-1.7018678e-002
-6.3243142e-004
2.1244688e-002
4.3889962e-002
6.8305045e-002
9.2979655e-002
9.3499020e-002
9.0921283e-002
5.7871114e-002
2.3903893e-002
-5.7205101e-003
-3.1152006e-002
-3.8433153e-002
-4.2954624e-002
-4.2040139e-002
-4.2198285e-002
-4.5367669e-002
-4.9699999e-002
-5.5638604e-002
-6.3616790e-002
-7.4014693e-002
-8.8740990e-002
-1.0749153e-001
-1.2357040e-001
-1.3744751e-001
-1.3568000e-001
-1.2497474e-001
-9.7363532e-002
-6.2596880e-002
-2.1918975e-002
2.0531127e-002
5.1047601e-002
7.8791045e-002
8.0701657e-002
7.8646354e-002
6.5883085e-002
5.3262249e-002
5.3343922e-002
5.3955771e-002
5.0714158e-002
3.7681185e-002
-9.6854400e-003
-6.6276677e-002
-1.3773167e-001
-1.9905995e-001
-2.3829900e-001
-2.6114854e-001
-2.6354328e-001
-2.6027375e-001
-2.5302187e-001
-2.5201356e-001
-2.5689286e-001
-2.6541990e-001
-2.7604100e-001
-2.7891785e-001
-2.7746484e-001
-2.7549911e-001
-2.7348664e-001
-2.8060111e-001
-2.9061881e-001
-3.1091499e-001
-3.3354008e-001
-3.5092065e-001
-3.6682996e-001
-3.7127274e-001
-3.7581286e-001
-3.9329928e-001
-4.1406000e-001
-4.4102198e-001
-4.6254641e-001
-4.6490377e-001
-4.6208748e-001
-4.5408666e-001
-4.5691198e-001
-4.7918883e-001
-5.0594425e-001
-5.3482252e-001
-5.3927922e-001
-5.1812649e-001
-4.8059165e-001
-4.3253699e-001
-4.0353781e-001
-3.8807568e-001
-3.9420879e-001
-4.1077206e-001
-4.3700671e-001
-4.6674067e-001
-4.9097440e-001
-5.1331306e-001
-5.1128280e-001
-5.0341237e-001
-4.9960220e-001
-4.9868524e-001
-5.1911134e-001
-5.4333109e-001
-5.6527084e-001
-5.8463436e-001
-5.9634876e-001
-6.0141891e-001
-5.9324133e-001
-5.7502460e-001
-5.4233718e-001
-5.1478809e-001
-4.9925649e-001
-5.0802976e-001
-5.4334313e-001
-5.8408213e-001
-6.2536561e-001
-6.4584035e-001
-6.4986926e-001
-6.3982892e-001
-6.2252069e-001
-5.8901256e-001
-5.4764873e-001
-5.0886577e-001
-4.7161001e-001
-4.8392865e-001
-5.1291990e-001
-5.6059015e-001
-6.1055332e-001
-6.2146735e-001
-6.1878711e-001
-5.9053010e-001
-5.5627447e-001
-5.2416843e-001
-4.9168429e-001
-4.5639434e-001
-4.2517343e-001
-4.0469807e-001
-4.0444821e-001
-4.3500343e-001
-4.8126239e-001
-5.3922135e-001
-5.9480625e-001
-6.4467818e-001
-6.7693114e-001
-6.9401312e-001
-6.7832547e-001
-6.3990372e-001
-5.9441024e-001
-5.4708117e-001
-5.4002047e-001
-5.5436325e-001
-5.8933640e-001
-6.3213336e-001
-6.6729498e-001
-6.9940549e-001
-7.3025835e-001
-7.5900561e-001
-7.7086431e-001
-7.7700996e-001
-7.8131217e-001
-7.9300135e-001
-8.3325458e-001
-8.8127965e-001
-9.2673284e-001
-9.5664966e-001
-9.5674300e-001
-9.3297589e-001
-8.8470393e-001
-8.1040376e-001
-7.1094620e-001
-6.0511309e-001
-4.9952263e-001
-4.4034129e-001
-4.2303401e-001
-4.3578008e-001
-4.6439514e-001
-4.8959649e-001
-5.1062626e-001
-5.6220615e-001
-6.3089442e-001
-7.0042795e-001
-7.6944023e-001
-7.6336455e-001
-7.2448999e-001
-6.4312148e-001
-5.5101258e-001
-4.9804029e-001
-4.7427407e-001
-5.1150393e-001
-5.7554013e-001
-6.5204871e-001
-7.2064328e-001
-7.6029032e-001
-7.6436597e-001
-7.2123700e-001
-6.2969655e-001
-4.8872983e-001
-3.6667952e-001
-2.8753707e-001
-3.0714509e-001
-4.1799229e-001
-5.5431527e-001
-6.9228673e-001
-7.9034996e-001
-8.5723984e-001
-8.5885084e-001
-8.2067078e-001
-7.1635604e-001
-5.7681751e-001
-5.0631714e-001
-4.7654465e-001
-5.5557436e-001
-6.8030447e-001
-7.5868189e-001
-7.9777449e-001
-7.4328625e-001
-6.4340156e-001
-5.3077930e-001
-4.4901800e-001
-4.6535018e-001
-5.4931676e-001
-6.9109958e-001
-8.2602590e-001
-9.1005230e-001
-9.2923832e-001
-8.8167077e-001
-8.0260348e-001
-7.1240115e-001
-6.2183797e-001
-5.3443533e-001
-4.4016820e-001
-3.3882624e-001
-2.3344229e-001
-1.2606086e-001
-4.5017321e-002
1.7037561e-002
4.6684956e-003
-5.3396359e-002
-1.2698653e-001
-2.0343252e-001
-2.2250435e-001
-1.9991480e-001
-1.1209175e-001
1.8051345e-002
1.8050691e-001
3.3136344e-001
3.9399710e-001
3.7898600e-001
2.7879393e-001
1.6360600e-001
9.6032701e-002
2.9847926e-002
-6.7334518e-002
-1.3203943e-001
-1.3386965e-001
-2.3683585e-002
1.9658020e-001
4.2102140e-001
6.1362249e-001
6.3215268e-001
4.9281907e-001
3.4239644e-001
2.1050332e-001
2.3677599e-001
3.8249001e-001
4.4819477e-001
4.4256592e-001
2.5865349e-001
-2.7485430e-002
-1.9113114e-001
-2.2117570e-001
4.5317203e-002
5.5951047e-001
1.3036178e+000
2.1159673e+000
2.7583704e+000
3.3098648e+000
3.8609860e+000
4.6164808e+000
5.7606945e+000
7.5129557e+000
9.9680529e+000
1.3173653e+001
1.7038143e+001
2.0868380e+001
2.4363575e+001
2.7539936e+001
3.0473125e+001
3.3990299e+001
3.8157345e+001
4.3072453e+001
4.8565758e+001
5.3435616e+001
5.7717644e+001
6.1926552e+001
6.6150139e+001
7.0925751e+001
7.6058426e+001
8.0822952e+001
8.5175743e+001
8.8878250e+001
9.2003151e+001
9.4664223e+001
9.6939117e+001
9.8959801e+001
1.0061426e+002
1.0178010e+002
1.0180788e+002
1.0018750e+002
9.7444824e+001
9.4127090e+001
9.0495529e+001
8.6750305e+001
8.2525414e+001
7.7725571e+001
7.2902565e+001
6.8247177e+001
6.3962368e+001
6.0043114e+001
5.6073002e+001
5.1993450e+001
4.7966873e+001
4.4011444e+001
4.0283569e+001
3.6809387e+001
3.3747425e+001
3.1111870e+001
2.8887680e+001
2.7051821e+001
2.5465965e+001
2.4142157e+001
2.3060869e+001
2.2238461e+001
2.1659000e+001
2.1313368e+001
2.1155165e+001
2.1149298e+001
2.1240223e+001
2.1425314e+001
2.1693903e+001
2.2080259e+001
2.2594135e+001
2.3285276e+001
2.4164228e+001
2.5184885e+001
2.6325529e+001
2.7497049e+001
2.8678320e+001
2.9894608e+001
3.1154972e+001
3.2679565e+001
3.4565189e+001
3.7328983e+001
4.0980255e+001
4.4683788e+001
4.8237686e+001
5.0903645e+001
5.2767342e+001
5.4469574e+001
5.6021397e+001
5.7498920e+001
5.8642902e+001
5.9092628e+001
5.8790401e+001
5.7790024e+001
5.6383556e+001
5.4918884e+001
5.3422150e+001
5.1914700e+001
5.0288925e+001
4.8478291e+001
4.6373058e+001
4.3906181e+001
4.1427799e+001
3.9049580e+001
3.6826000e+001
3.4790771e+001
3.2301605e+001
2.9200443e+001
2.6003515e+001
2.2761440e+001
2.0024759e+001
1.7855490e+001
1.5747857e+001
1.3694096e+001
1.1610040e+001
9.5011816e+000
7.3982387e+000
5.3609700e+000
3.4975500e+000
1.9324185e+000
8.0208468e-001
1.5586311e-001
3.8881585e-002
5.0003576e-001
1.4609067e+000
2.5518880e+000
3.5295894e+000
4.3081956e+000
4.8033972e+000
5.2531042e+000
5.7548642e+000
6.3231936e+000
6.9826603e+000
7.4749184e+000
7.6866307e+000
7.6890488e+000
7.3988547e+000
7.0676355e+000
6.6872010e+000
6.3381028e+000
6.0296297e+000
5.7375355e+000
5.4337683e+000
5.0179181e+000
4.4752555e+000
3.8615985e+000
3.2400241e+000
2.7633629e+000
2.4661708e+000
2.3676403e+000
2.4242301e+000
2.5646210e+000
2.7302713e+000
2.8586211e+000
2.9839590e+000
3.1348126e+000
3.3413377e+000
3.6429648e+000
4.0093465e+000
4.4575548e+000
4.9369678e+000
5.4514685e+000
5.9386716e+000
6.3656349e+000
6.6904755e+000
6.8351846e+000
6.8492842e+000
6.6560497e+000
6.3419218e+000
5.8671055e+000
5.3528533e+000
4.8036170e+000
4.2862229e+000
3.8121231e+000
3.3806520e+000
2.9951584e+000
2.6432464e+000
2.3028665e+000
1.9298598e+000
1.5215771e+000
1.0701597e+000
6.4022309e-001
3.1331542e-001
8.9209355e-002
1.8962262e-002
2.4775103e-002
1.0551780e-001
2.3072465e-001
4.3390882e-001
6.8401885e-001
1.0169072e+000
1.3291485e+000
1.5876914e+000
1.7723825e+000
1.8285645e+000
1.8854110e+000
1.9555550e+000
2.0902565e+000
2.3236117e+000
2.6208727e+000
2.9941578e+000
3.3849831e+000
3.7742200e+000
4.0992084e+000
4.3475003e+000
4.5128765e+000
4.6111531e+000
4.6722951e+000
4.7050843e+000
4.7130461e+000
4.7001767e+000
4.6582694e+000
4.6036143e+000
4.5395517e+000
4.4792013e+000
4.4345675e+000
4.3996477e+000
4.3842721e+000
4.3718276e+000
4.3637772e+000
4.3579259e+000
4.3585644e+000
4.3731384e+000
4.4156222e+000
4.4721828e+000
4.5504107e+000
4.6278272e+000
4.7049842e+000
4.7856116e+000
4.8753762e+000
4.9876323e+000
5.1251411e+000
5.2801290e+000
5.4468279e+000
5.6077752e+000
5.7576656e+000
5.8811083e+000
5.9814000e+000
6.0469995e+000
6.0905294e+000
6.1037288e+000
6.0934539e+000
6.0330729e+000
5.9349599e+000
5.7444758e+000
5.5076594e+000
5.1507850e+000
4.7604818e+000
4.2843113e+000
3.8042932e+000
3.3173597e+000
2.8455949e+000
2.4061573e+000
1.9883543e+000
1.6115520e+000
1.2719879e+000
9.8943859e-001
7.4825734e-001
5.5584860e-001
3.8310027e-001
2.2875836e-001
7.9060815e-002
-6.4592071e-002
-1.9649655e-001
-3.1340498e-001
-3.9518660e-001
-4.4688910e-001
-4.3787807e-001
-3.9698297e-001
-3.0654985e-001
-1.9185047e-001
-2.4029121e-002
1.7705001e-001
4.8354810e-001
8.0604374e-001
1.1641107e+000
1.4816023e+000
1.6710986e+000
1.8043128e+000
1.8000220e+000
1.7740772e+000
1.7058374e+000
1.6353014e+000
1.5574771e+000
1.4572297e+000
1.3207487e+000
1.1391041e+000
9.0747213e-001
6.5546137e-001
3.9682913e-001
1.9360012e-001
4.7699053e-002
1.3643943e-002
5.4296099e-002
2.0253631e-001
3.9697629e-001
6.1782753e-001
8.3673394e-001
1.0074810e+000
1.1566887e+000
1.2370720e+000
1.3023019e+000
1.3204501e+000
1.3379717e+000
1.3564098e+000
1.3831251e+000
1.4355500e+000
1.4879150e+000
1.5377862e+000
1.5693439e+000
1.5640043e+000
1.5409857e+000
1.4922286e+000
1.4522138e+000
1.4271361e+000
1.4345905e+000
1.4771925e+000
1.5466143e+000
1.6345923e+000
1.7091881e+000
1.7673051e+000
1.7639960e+000
1.7259243e+000
1.6358703e+000
1.5283080e+000
1.4170551e+000
1.3063177e+000
1.2050329e+000
1.1087559e+000
1.0404992e+000
9.8202503e-001
9.7810733e-001
9.7795832e-001
9.9340278e-001
9.9859369e-001
9.7067869e-001
9.3170464e-001
8.6679924e-001
8.0467480e-001
7.4859661e-001
7.0206702e-001
6.6921180e-001
6.3623196e-001
6.0148972e-001
5.5050981e-001
4.8324615e-001
3.9580226e-001
2.9372835e-001
1.8291780e-001
6.8641178e-002
-3.4284711e-002
-1.2981147e-001
-1.9271915e-001
-2.4456970e-001
-2.7095199e-001
-2.9506853e-001
-3.4230840e-001
-3.9692330e-001
-5.1549864e-001
-6.3571072e-001
-7.6258707e-001
-8.7180799e-001
-9.0245718e-001
-9.0952170e-001
-8.4350383e-001
-7.7064312e-001
-6.8269449e-001
-6.0271531e-001
-5.3718036e-001
-4.8322824e-001
-4.4525182e-001
-4.1694289e-001
-3.9851001e-001
-3.7888286e-001
-3.5876957e-001
-3.4670997e-001
-3.4186560e-001
-3.8107851e-001
-4.4044763e-001
-5.0545532e-001
-5.6801403e-001
-5.4056096e-001
-4.9091154e-001
-3.7409812e-001
-2.5092202e-001
-1.6917807e-001
-9.0313539e-002
-2.9757857e-002
1.2294874e-003
3.8464911e-002
1.1879860e-001
2.3521359e-001
3.5768086e-001
4.9765837e-001
6.2997776e-001
7.4492735e-001
8.1510234e-001
8.1326258e-001
7.8189421e-001
7.1544039e-001
6.8868214e-001
6.9944882e-001
7.5704616e-001
8.4688193e-001
8.7773740e-001
8.7637919e-001
7.6309025e-001
6.0717463e-001
4.7364947e-001
3.4650147e-001
3.3757892e-001
3.4772852e-001
3.8863999e-001
