##TITLE=Methyl Ethyl Ketone
##JCAMP-DX=4.24
##DATA TYPE=INFRARED SPECTRUM
##XUNITS=cm-1
##YUNITS=Absorbance
##FIRSTX=900
##LASTX=2300
##XYDATA=(X++(Y..Y))
2296 -0.085079998
2294 -0.086850464
2292 -0.088619933
2290 -0.090390399
2288 -0.092159875
2286 -0.093930334
2284 -0.095699809
2282 -0.097470269
2280 -0.099239752
2278 -0.10100725
2276 -0.10278457
2274 -0.10455219
2272 -0.10631965
2270 -0.10808713
2268 -0.1098644
2266 -0.11163207
2264 -0.11339954
2262 -0.11516701
2260 -0.11694423
2258 -0.11871196
2256 -0.12047943
2254 -0.1222469
2252 -0.12402406
2250 -0.12579185
2248 -0.1275593
2246 -0.12932679
2244 -0.0048059141
2242 0.038521558
2240 0.05458124
2238 -0.0063601332
2236 -0.078613862
2234 -0.13744815
2232 -0.19317417
2230 -0.20151338
2228 -0.1980038
2226 -0.1185895
2224 -0.030891646
2222 0.076619849
2220 0.15633415
2218 0.14791714
2216 0.10686286
2214 0.0053817048
2212 -0.081215799
2210 -0.13767108
2208 -0.15714887
2206 -0.13280664
2204 -0.10167672
2202 -0.066617638
2200 -0.072446093
2198 -0.1089945
2196 -0.17228928
2194 -0.24987905
2192 -0.27919719
2190 -0.28696844
2188 -0.23202321
2186 -0.15714028
2184 -0.047903921
2182 0.068962052
2180 0.14928724
2178 0.22220664
2176 0.13877572
2174 0.034593903
2172 -0.14225285
2170 -0.30707109
2168 -0.36359063
2166 -0.37772414
2164 -0.27596861
2162 -0.16178355
2160 -0.045315795
2158 0.042050868
2156 0.073915102
2154 0.094737053
2152 0.10786992
2150 0.1529046
2148 0.23477443
2146 0.31575179
2144 0.39250296
2142 0.39237171
2140 0.33897537
2138 0.21638945
2136 0.05911237
2134 -0.081540108
2132 -0.21352965
2130 -0.27801555
2128 -0.32114881
2126 -0.29500219
2124 -0.25321969
2122 -0.18786973
2120 -0.12398897
2118 -0.15532604
2116 -0.21545328
2114 -0.38824061
2112 -0.57100952
2110 -0.7250461
2108 -0.84341174
2106 -0.86684752
2104 -0.8634792
2102 -0.83211619
2100 -0.7907604
2098 -0.73974639
2096 -0.64822572
2094 -0.50585288
2092 -0.33623916
2090 -0.1461086
2088 -0.0029691644
2086 0.0994481
2084 0.15577365
2082 0.18556917
2080 0.19808252
2078 0.20304091
2076 0.13596329
2074 0.039211448
2072 -0.10585767
2070 -0.26571482
2068 -0.33595115
2066 -0.3828508
2064 -0.34128228
2062 -0.28626421
2060 -0.26191497
2058 -0.25371549
2056 -0.300868
2054 -0.35532373
2052 -0.39899448
2050 -0.41650411
2048 -0.3747412
2046 -0.31181321
2044 -0.23165441
2042 -0.17140029
2040 -0.14404023
2038 -0.14554371
2036 -0.17157942
2034 -0.20805541
2032 -0.25074738
2030 -0.29049659
2028 -0.32867041
2026 -0.36397591
2024 -0.39874914
2022 -0.4457745
2020 -0.49991983
2018 -0.56812817
2016 -0.640746
2014 -0.69369739
2012 -0.73805368
2010 -0.74275023
2008 -0.73498625
2006 -0.70841771
2004 -0.67673093
2002 -0.6483255
2000 -0.62429249
1998 -0.62351674
1996 -0.62721497
1994 -0.63164532
1992 -0.62253201
1990 -0.57503009
1988 -0.51203281
1986 -0.42838037
1984 -0.36143634
1982 -0.32486129
1980 -0.33498651
1978 -0.39410365
1976 -0.47559601
1974 -0.5703491
1972 -0.62622136
1970 -0.65208846
1968 -0.63626164
1966 -0.59710097
1964 -0.58965522
1962 -0.59834033
1960 -0.65558082
1958 -0.73223817
1956 -0.78534532
1954 -0.82642764
1952 -0.80794972
1950 -0.76833707
1948 -0.74205154
1946 -0.73399001
1944 -0.79444546
1942 -0.88212103
1940 -0.96040553
1938 -1.0172739
1936 -1.0186372
1934 -1.0012246
1932 -0.98998141
1930 -0.98496681
1928 -0.99786091
1926 -0.98509872
1924 -0.93893439
1922 -0.85301781
1920 -0.72783411
1918 -0.618586
1916 -0.52180642
1914 -0.44824213
1912 -0.3910808
1910 -0.35228959
1908 -0.32646754
1906 -0.35395992
1904 -0.4077732
1902 -0.47069079
1900 -0.53338492
1898 -0.57241166
1896 -0.60109425
1894 -0.64225221
1892 -0.69069904
1890 -0.74041867
1888 -0.78931826
1886 -0.81576014
1884 -0.8346467
1882 -0.85228127
1880 -0.86494517
1878 -0.87530249
1876 -0.864393
1874 -0.8334251
1872 -0.76764238
1870 -0.66981643
1868 -0.5723421
1866 -0.4665727
1864 -0.40649909
1862 -0.37808332
1860 -0.3691535
1858 -0.37807754
1856 -0.37803829
1854 -0.37669376
1852 -0.31119305
1850 -0.21109703
1848 -0.055979405
1846 0.11854276
1844 0.16840191
1842 0.14223461
1840 0.013677109
1838 -0.14947394
1836 -0.25529659
1834 -0.3112736
1832 -0.30040091
1830 -0.24989295
1828 -0.14741954
1826 -0.060137779
1824 -0.032307971
1822 -0.076564014
1820 -0.22475161
1818 -0.38890895
1816 -0.53255403
1814 -0.60862541
1812 -0.60812974
1810 -0.56772357
1808 -0.50436676
1806 -0.42992201
1804 -0.34882864
1802 -0.23258579
1800 -0.094573632
1798 0.051744834
1796 0.19799787
1794 0.26736552
1792 0.29367042
1790 0.24474807
1788 0.16578095
1786 0.10386544
1784 0.063379914
1782 0.055914626
1780 0.087555237
1778 0.2161437
1776 0.40584829
1774 0.63207221
1772 0.80086273
1770 0.78241068
1768 0.63005197
1766 0.4002493
1764 0.19661
1762 0.085648067
1760 0.021845829
1758 -0.14228541
1756 -0.32601556
1754 -0.45269722
1752 -0.39857435
1750 -0.16062999
1748 0.14391738
1746 0.4682861
1744 0.59416187
1742 0.54837698
1740 0.47147503
1738 0.39129782
1736 0.42986798
1734 0.54505116
1732 0.48327053
1730 0.29335237
1728 -0.033392102
1726 -0.40094799
1724 -0.53077769
1722 -0.42266351
1720 0.030012161
1718 0.73561358
1716 1.7501515
1714 2.8591943
1712 3.7896194
1710 4.6178918
1708 5.3832498
1706 6.3433552
1704 7.690721
1702 9.6269569
1700 12.245557
1698 15.348951
1696 18.809713
1694 22.00972
1692 24.71907
1690 27.207022
1688 29.57272
1686 32.555874
1684 36.190151
1682 40.324547
1680 44.833199
1678 48.73365
1676 52.089527
1674 55.462208
1672 58.901142
1670 62.847191
1668 67.149422
1666 71.357796
1664 75.456299
1662 79.310051
1660 82.919289
1658 86.224182
1656 89.244057
1654 91.988716
1652 94.43576
1650 96.596527
1648 97.991852
1646 98.328575
1644 97.758087
1642 96.478676
1640 94.667542
1638 92.46373
1636 89.567902
1634 85.964005
1632 81.996635
1630 77.849342
1628 73.792717
1626 69.85878
1624 65.74408
1622 61.421547
1620 57.107563
1618 52.829166
1616 48.752399
1614 44.908527
1612 41.434841
1610 38.367161
1608 35.748001
1606 33.560436
1604 31.683031
1602 30.10858
1600 28.774136
1598 27.659491
1596 26.688999
1594 25.846642
1592 25.098
1590 24.468897
1588 23.975447
1586 23.674229
1584 23.578646
1582 23.71994
1580 24.083643
1578 24.730661
1576 25.672115
1574 26.81715
1572 28.150377
1570 29.408459
1568 30.540319
1566 31.574114
1564 32.511284
1562 33.659729
1560 35.096066
1558 37.211742
1556 39.941715
1554 42.485703
1552 44.731068
1550 46.287735
1548 47.283234
1546 48.251213
1544 49.244736
1542 50.39225
1540 51.416779
1538 52.016506
1536 52.038429
1534 51.367832
1532 50.374165
1530 49.362671
1528 48.358627
1526 47.383801
1524 46.291882
1522 45.019806
1520 43.411098
1518 41.437435
1516 39.384987
1514 37.326988
1512 35.369362
1510 33.48798
1508 31.1122
1506 28.076435
1504 24.92627
1502 21.750202
1500 19.125494
1498 17.123751
1496 15.191
1494 13.302147
1492 11.363551
1490 9.379508
1488 7.4351535
1486 5.5603342
1484 3.7896581
1482 2.2566583
1480 1.0608873
1478 0.29001975
1476 0.074768588
1474 0.46762246
1472 1.4024446
1470 2.4479201
1468 3.3720107
1466 4.2084308
1464 4.905128
1462 5.6518011
1460 6.5282683
1458 7.3062429
1456 7.9046402
1454 8.0986681
1452 7.7364097
1450 7.2505412
1448 6.6347065
1446 6.0457072
1444 5.4966526
1442 5.0125661
1440 4.6128507
1438 4.3089314
1436 4.0728483
1434 3.7993107
1432 3.4527235
1430 3.0219917
1428 2.573132
1426 2.2080793
1424 1.9678937
1422 1.8746852
1420 1.8837829
1418 1.9654428
1416 2.0753171
1414 2.1847379
1412 2.3494742
1410 2.5740843
1408 2.8740525
1406 3.2685864
1404 3.7077928
1402 4.2172866
1400 4.724052
1398 5.2202802
1396 5.6335716
1394 5.9060688
1392 6.059834
1390 6.0518436
1388 5.9724274
1386 5.790915
1384 5.5527558
1382 5.2404575
1380 4.9230137
1378 4.5974126
1376 4.2969089
1374 3.9915137
1372 3.6610999
1370 3.3026438
1368 2.9140623
1366 2.5197935
1364 2.1203756
1362 1.7086315
1360 1.2923309
1358 0.89319742
1356 0.5489713
1354 0.28046858
1352 0.11111928
1350 0.0097856941
1348 -0.010654608
1346 0.012847893
1344 0.16216481
1342 0.38222489
1340 0.71727413
1338 1.0107298
1336 1.2124656
1334 1.2662262
1332 1.1088206
1330 0.92992473
1328 0.74396348
1326 0.66008335
1324 0.70970792
1322 0.85983527
1320 1.1131519
1318 1.4029777
1316 1.7039
1314 1.9470972
1312 2.1242661
1310 2.1978693
1308 2.2008519
1306 2.1488006
1304 2.071696
1302 1.999444
1300 1.9394863
1298 1.9230741
1296 1.9356999
1294 2.0038743
1292 2.0908425
1290 2.2013481
1288 2.3125041
1286 2.4204779
1284 2.5239866
1282 2.6226411
1280 2.7086668
1278 2.7704539
1276 2.8351014
1274 2.9030418
1272 3.0046022
1270 3.1552353
1268 3.3231535
1266 3.5211785
1264 3.7340868
1262 3.9861579
1260 4.3062139
1258 4.7038903
1256 5.1575799
1254 5.6562567
1252 6.1613364
1250 6.6772556
1248 7.214931
1246 7.7697754
1244 8.3548002
1242 8.9467297
1240 9.5301533
1238 10.088665
1236 10.5709
1234 10.982736
1232 11.21164
1230 11.34528
1228 11.229172
1226 11.046322
1224 10.687845
1222 10.287037
1220 9.7852583
1218 9.249094
1216 8.6495142
1214 8.0604744
1212 7.4955816
1210 6.9776015
1208 6.5225911
1206 6.0748487
1204 5.6291919
1202 5.1501379
1200 4.6319418
1198 4.0712891
1196 3.4773002
1194 2.873208
1192 2.2851999
1190 1.789114
1188 1.3664126
1186 1.0813365
1184 0.85875064
1182 0.70916605
1180 0.58479762
1178 0.49292549
1176 0.42485401
1174 0.43361482
1172 0.46418482
1170 0.56313819
1168 0.64376932
1166 0.67001396
1164 0.67175663
1162 0.61630821
1160 0.5718841
1158 0.5474779
1156 0.52086657
1154 0.48560011
1152 0.42330399
1150 0.32504782
1148 0.22248819
1146 0.11917696
1144 0.035878036
1142 -0.019118037
1140 -0.014423665
1138 0.043303505
1136 0.17667314
1134 0.3513298
1132 0.58673406
1130 0.84783781
1128 1.1200372
1126 1.4026742
1124 1.7222729
1122 2.055958
1120 2.429996
1118 2.8047967
1116 3.1642585
1114 3.5076885
1112 3.7844429
1110 4.0505314
1108 4.2859631
1106 4.547585
1104 4.8764815
1102 5.2349086
1100 5.6468754
1098 6.0372686
1096 6.3935857
1094 6.7404342
1092 7.0822277
1090 7.4688969
1088 7.8998628
1086 8.3363361
1084 8.7657824
1082 9.1184998
1080 9.40872
1078 9.582634
1076 9.694128
1074 9.733736
1072 9.7553139
1070 9.8113918
1068 9.8846912
1066 10.024093
1064 10.17252
1062 10.318074
1060 10.446991
1058 10.462
1056 10.441428
1054 10.258074
1052 10.027679
1050 9.6440992
1048 9.2112885
1046 8.6621389
1044 8.1234341
1042 7.6143317
1040 7.1993203
1038 6.9235411
1036 6.68431
1034 6.4789124
1032 6.2049694
1030 5.8684969
1028 5.5213003
1026 5.1730824
1024 4.8925815
1022 4.6484966
1020 4.4124894
1018 4.1758256
1016 3.8930628
1014 3.5961742
1012 3.2804189
1010 2.9630506
1008 2.665812
1006 2.3726492
1004 2.1089189
1002 1.8448843
1000 1.5780799
998 1.3077338
996 1.0218099
994 0.73713088
992 0.4585613
990 0.19884928
988 -0.015443012
986 -0.19582772
984 -0.31831154
982 -0.430103
980 -0.52613842
978 -0.579961
976 -0.58271712
974 -0.46187517
972 -0.24191798
970 -0.0066960305
968 0.23057389
966 0.34857398
964 0.4111971
962 0.44671831
960 0.47482467
958 0.51570791
956 0.5567981
954 0.5293768
952 0.4909184
950 0.38165379
948 0.2684955
946 0.13910235
944 0.021492938
942 -0.0021236539
940 -0.063036643
938 -0.01198459
936 0.050761655
934 0.14727515
932 0.25282404
930 0.37840921
928 0.53623486
926 0.74477875
924 0.93006539
922 1.0842515
920 1.1118674
918 1.0201725
916 0.77539098
914 0.42233586
912 0.0053100884
910 -0.44581172
908 -0.76812041
906 -1.0423864
904 -1.0540869
902 -0.99856174
900 -0.75423628
898 -0.48024085
896 -0.1523
