Image.
>Pix99999.
  .
5555
5555
2300
900
5555
2
1
0
701
5555
-1.4150000e-002
-1.4444578e-002
-1.4738160e-002
-1.5032736e-002
-1.5327314e-002
-1.5621892e-002
-1.5915480e-002
-1.6210049e-002
-1.6504629e-002
-1.6799208e-002
-1.7093785e-002
-1.7387381e-002
-1.7681943e-002
-1.7976522e-002
-1.8271100e-002
-1.8565679e-002
-1.8859280e-002
-1.9153837e-002
-1.9448413e-002
-1.9742992e-002
-2.0037571e-002
-2.0331180e-002
-2.0625727e-002
-2.0920306e-002
-2.1214886e-002
-2.1508500e-002
3.4917906e-002
1.4308071e-003
-4.9005121e-002
-1.0229511e-001
-1.5597557e-001
-7.5399496e-002
1.7462498e-002
1.6899393e-001
3.0982250e-001
3.4277451e-001
3.5047698e-001
2.6770821e-001
1.9141322e-001
1.4953801e-001
1.3484544e-001
1.7528690e-001
2.1643700e-001
2.5342065e-001
2.8807703e-001
3.2016477e-001
3.4745505e-001
3.7030324e-001
3.5381550e-001
3.0814758e-001
2.4969000e-001
1.8494466e-001
1.3974555e-001
1.0328117e-001
8.7269932e-002
7.7724241e-002
1.3328600e-001
2.0373844e-001
3.1875420e-001
4.3938482e-001
4.8384744e-001
5.1422662e-001
4.6433994e-001
4.1009089e-001
3.7441126e-001
3.5034591e-001
3.6195779e-001
3.6941254e-001
3.5714817e-001
3.3360291e-001
2.9251599e-001
2.7704176e-001
3.0131269e-001
3.5486576e-001
4.3672958e-001
4.6888858e-001
4.5445651e-001
3.7974492e-001
2.6645172e-001
1.9433065e-001
1.4679457e-001
1.6865377e-001
2.1883135e-001
2.6966435e-001
3.1991640e-001
3.5753465e-001
3.9218774e-001
4.5613620e-001
5.2242655e-001
5.4466206e-001
5.4335243e-001
4.1332570e-001
2.6007971e-001
8.6801372e-002
-5.8119163e-002
-1.0859313e-001
-1.2394017e-001
-9.2601597e-002
-5.7105560e-002
-2.6275020e-002
6.6585713e-003
4.3129090e-002
7.0746794e-002
8.8657372e-002
9.8534331e-002
1.0313695e-001
1.4303431e-001
2.0678316e-001
2.4936858e-001
2.7905351e-001
1.8891357e-001
4.9587455e-002
-9.9652082e-002
-2.5052717e-001
-2.7750164e-001
-2.7352056e-001
-2.2477703e-001
-1.6879657e-001
-1.2302017e-001
-7.8526512e-002
-2.9894486e-002
1.6492205e-002
5.0965320e-002
7.8341857e-002
9.2459023e-002
8.7508641e-002
5.0018057e-002
-2.6114933e-002
-1.5030387e-001
-2.7467579e-001
-3.8718972e-001
-4.1622686e-001
-3.6661559e-001
-2.5256190e-001
-9.9341556e-002
-2.3446215e-002
-1.6505591e-003
-7.8927524e-002
-2.0380238e-001
-2.7982739e-001
-3.3222601e-001
-3.2753429e-001
-3.0368620e-001
-3.7629333e-001
-4.7836328e-001
-6.4374763e-001
-8.1592703e-001
-9.2455769e-001
-1.0085073e+000
-1.0584664e+000
-1.1086285e+000
-1.1871133e+000
-1.2613394e+000
-1.3069632e+000
-1.2985520e+000
-1.2037193e+000
-1.0659583e+000
-8.9707261e-001
-7.4330962e-001
-6.1632425e-001
-5.0158769e-001
-3.9376810e-001
-2.4288075e-001
-5.8671616e-002
1.1439891e-001
2.7664655e-001
2.6838714e-001
1.7207983e-001
-4.6594400e-002
-3.1349972e-001
-4.7747099e-001
-5.9717143e-001
-5.4042572e-001
-4.2931119e-001
-3.4884652e-001
-3.0664250e-001
-4.1408429e-001
-5.5534834e-001
-6.3798183e-001
-6.6289932e-001
-5.8113945e-001
-4.9585697e-001
-4.7209242e-001
-5.1742542e-001
-6.4940709e-001
-7.8775519e-001
-9.0572506e-001
-9.2807770e-001
-8.5064232e-001
-7.1767467e-001
-5.5223012e-001
-4.1726479e-001
-3.1123236e-001
-2.6911256e-001
-2.6588145e-001
-3.8031286e-001
-5.5518562e-001
-7.1251011e-001
-8.5714453e-001
-8.1594670e-001
-6.9767141e-001
-5.3965080e-001
-3.8948721e-001
-3.9047408e-001
-4.8158821e-001
-7.0440286e-001
-9.7244334e-001
-1.2272123e+000
-1.4408578e+000
-1.5732695e+000
-1.6657500e+000
-1.7437642e+000
-1.7979594e+000
-1.8277318e+000
-1.7612445e+000
-1.5752935e+000
-1.3620000e+000
-1.1482290e+000
-1.0352346e+000
-1.0160491e+000
-1.0641829e+000
-1.1514546e+000
-1.2303194e+000
-1.3018948e+000
-1.3457440e+000
-1.3778571e+000
-1.4662714e+000
-1.5899590e+000
-1.7915081e+000
-2.0277288e+000
-2.2723200e+000
-2.5123870e+000
-2.7309675e+000
-2.8887627e+000
-2.8558767e+000
-2.6791286e+000
-2.3193662e+000
-1.9413260e+000
-1.6857560e+000
-1.5367935e+000
-1.4984028e+000
-1.4711732e+000
-1.4061164e+000
-1.3163381e+000
-1.2096748e+000
-1.1698850e+000
-1.2049769e+000
-1.3362851e+000
-1.5410068e+000
-1.6920888e+000
-1.7881215e+000
-1.6699114e+000
-1.4017600e+000
-9.9807793e-001
-5.1518607e-001
-1.4114016e-001
1.5953813e-001
3.0599993e-001
3.6566573e-001
3.9903742e-001
4.0312544e-001
3.4036323e-001
2.1000525e-001
-4.6899095e-003
-1.9928868e-001
-2.3365770e-001
-1.3843539e-001
5.6795344e-002
5.6322113e-002
-1.3365310e-001
-3.0772629e-001
-4.2527997e-001
-3.7253219e-001
-1.4089260e-001
1.4787066e-001
4.4254643e-001
5.3317368e-001
4.3700647e-001
2.6257503e-001
5.1678073e-002
8.7614805e-002
3.1145817e-001
6.0911870e-001
9.3369019e-001
9.1871202e-001
6.7893130e-001
3.7214324e-001
7.3512204e-002
5.1249087e-002
3.7859374e-001
1.2421067e+000
2.4075963e+000
3.6484029e+000
4.8438120e+000
5.8252640e+000
6.8202715e+000
8.0251932e+000
9.7452822e+000
1.2151531e+001
1.5314894e+001
1.9182142e+001
2.3020960e+001
2.6510162e+001
2.9656713e+001
3.2521606e+001
3.5913143e+001
3.9906094e+001
4.4521057e+001
4.9615841e+001
5.3992695e+001
5.7715755e+001
6.1378578e+001
6.5079346e+001
6.9521706e+001
7.4515381e+001
7.9497200e+001
8.4379181e+001
8.8841888e+001
9.2873383e+001
9.6396523e+001
9.9389946e+001
1.0182242e+002
1.0362700e+002
1.0476009e+002
1.0487829e+002
1.0379678e+002
1.0180046e+002
9.9222672e+001
9.6194550e+001
9.2834419e+001
8.8846497e+001
8.4195412e+001
7.9409012e+001
7.4691711e+001
7.0181709e+001
6.5873116e+001
6.1383759e+001
5.6677525e+001
5.2141224e+001
4.7800926e+001
4.3788826e+001
4.0120354e+001
3.6859627e+001
3.4029987e+001
3.1635868e+001
2.9656357e+001
2.7955923e+001
2.6529181e+001
2.5318949e+001
2.4331699e+001
2.3540501e+001
2.2969170e+001
2.2616674e+001
2.2466274e+001
2.2477003e+001
2.2622036e+001
2.2862125e+001
2.3184299e+001
2.3568428e+001
2.4102308e+001
2.4817657e+001
2.5773161e+001
2.6986780e+001
2.8246675e+001
2.9506161e+001
3.0580400e+001
3.1442389e+001
3.2315815e+001
3.3294331e+001
3.5208115e+001
3.8123398e+001
4.1547050e+001
4.5262001e+001
4.8116081e+001
5.0113434e+001
5.1633751e+001
5.2662960e+001
5.3349182e+001
5.3543060e+001
5.3169415e+001
5.2317345e+001
5.1183701e+001
4.9956944e+001
4.8797195e+001
4.7647633e+001
4.6462151e+001
4.5020763e+001
4.3196625e+001
4.1005051e+001
3.8456970e+001
3.6072327e+001
3.4032177e+001
3.2064400e+001
3.0099577e+001
2.7621683e+001
2.4486549e+001
2.1500040e+001
1.8775959e+001
1.6560398e+001
1.4899190e+001
1.3202001e+001
1.1460209e+001
9.7059326e+000
7.9705963e+000
6.3541336e+000
4.8932366e+000
3.6001401e+000
2.5162671e+000
1.6283308e+000
9.3670350e-001
4.1431856e-001
1.6956872e-001
3.5394418e-001
8.2272494e-001
1.4574643e+000
2.0868406e+000
2.5787623e+000
3.0122058e+000
3.4021239e+000
3.8146567e+000
4.2843199e+000
4.7158341e+000
5.0915709e+000
5.3596945e+000
5.4729128e+000
5.5097609e+000
5.4347506e+000
5.3025951e+000
5.0828638e+000
4.7932539e+000
4.3989072e+000
3.9238286e+000
3.3731732e+000
2.8386273e+000
2.3626120e+000
1.9918699e+000
1.7389435e+000
1.5887448e+000
1.5564860e+000
1.6735615e+000
1.9547971e+000
2.4410548e+000
3.0308280e+000
3.6405675e+000
4.1980538e+000
4.6315680e+000
4.9803677e+000
5.2320681e+000
5.4294519e+000
5.5588627e+000
5.6325359e+000
5.6187801e+000
5.5752931e+000
5.4996653e+000
5.4265299e+000
5.3576751e+000
5.2709646e+000
5.1469965e+000
4.9597082e+000
4.6789465e+000
4.3218913e+000
3.8912196e+000
3.4865580e+000
3.1284533e+000
2.8433619e+000
2.5904486e+000
2.2674506e+000
1.8746459e+000
1.4130749e+000
9.5388681e-001
5.8295512e-001
2.9817724e-001
1.2753531e-001
2.2411417e-002
-6.3502770e-003
-8.1020705e-003
3.0061958e-002
8.0690742e-002
1.4621408e-001
2.1666911e-001
3.0002972e-001
3.7140390e-001
4.4423288e-001
5.3459471e-001
6.6193360e-001
8.3215207e-001
1.0566292e+000
1.3133736e+000
1.5998286e+000
1.8903487e+000
2.1678500e+000
2.3955526e+000
2.5667925e+000
2.6679568e+000
2.7118769e+000
2.7026644e+000
2.6550510e+000
2.5748861e+000
2.4905152e+000
2.4393103e+000
2.4148855e+000
2.4401922e+000
2.4707198e+000
2.4876964e+000
2.5031641e+000
2.5217421e+000
2.5621541e+000
2.6614850e+000
2.7737017e+000
2.9161010e+000
3.0672414e+000
3.2334290e+000
3.4123011e+000
3.6054680e+000
3.7834940e+000
3.9392045e+000
4.0763850e+000
4.2076402e+000
4.3893142e+000
4.6415720e+000
4.9860687e+000
5.4169288e+000
5.9062815e+000
6.4350386e+000
6.9739766e+000
7.5065250e+000
8.0036592e+000
8.4669714e+000
8.8642960e+000
9.2187157e+000
9.4907837e+000
9.7060108e+000
9.7849684e+000
9.7889509e+000
9.5929508e+000
9.3391371e+000
8.9345379e+000
8.5103207e+000
8.0419216e+000
7.5754871e+000
7.1130714e+000
6.6505508e+000
6.1845922e+000
5.7031412e+000
5.1969900e+000
4.6680727e+000
4.1136999e+000
3.5528388e+000
2.9928029e+000
2.4629366e+000
1.9693214e+000
1.5404110e+000
1.1577419e+000
8.1497407e-001
4.8404521e-001
1.2990043e-001
-2.2507611e-001
-5.5228615e-001
-8.2722169e-001
-9.1641706e-001
-9.3308997e-001
-7.5951993e-001
-5.6834853e-001
-3.5081667e-001
-1.4315309e-001
3.5464957e-002
2.0739199e-001
3.5790151e-001
4.6677959e-001
4.8734570e-001
4.5648715e-001
3.4805343e-001
2.5930876e-001
2.0302999e-001
1.9239020e-001
2.2406572e-001
2.2978023e-001
2.0498449e-001
1.2904358e-001
2.8074129e-002
-2.9444031e-002
-3.7219875e-002
1.4540766e-001
4.2348912e-001
8.1958294e-001
1.2425914e+000
1.6366329e+000
2.0150352e+000
2.3377960e+000
2.6511760e+000
2.9406714e+000
3.2013736e+000
3.3384480e+000
3.4112036e+000
3.2829900e+000
3.1528950e+000
3.0313725e+000
3.0205581e+000
3.2314589e+000
3.5287843e+000
3.9522288e+000
4.3395224e+000
4.6806602e+000
5.0009961e+000
5.3138227e+000
5.7147551e+000
6.1856627e+000
6.6796913e+000
7.1699853e+000
7.5402102e+000
7.8342185e+000
7.9681382e+000
8.0349722e+000
7.9932594e+000
7.9329762e+000
7.9098897e+000
7.9043641e+000
7.9918780e+000
8.0751858e+000
8.1005659e+000
8.0949087e+000
7.9537005e+000
7.8045778e+000
7.6348720e+000
7.5146394e+000
7.5192499e+000
7.5984082e+000
7.8132553e+000
8.0123158e+000
8.1755104e+000
8.2006798e+000
8.0587292e+000
7.7963157e+000
7.4262085e+000
7.0435400e+000
6.6581173e+000
6.3346486e+000
6.0454907e+000
5.7765474e+000
5.5101008e+000
5.1854973e+000
4.8444409e+000
4.4940929e+000
4.1421046e+000
3.7901919e+000
3.4277322e+000
2.9435387e+000
2.4501874e+000
1.9031925e+000
1.3906747e+000
1.0307807e+000
7.0959914e-001
5.0669062e-001
2.8227139e-001
7.5863004e-003
-2.9132026e-001
-6.2953717e-001
-9.1796428e-001
-1.1324860e+000
-1.2117682e+000
-1.1427085e+000
-9.2073983e-001
-5.7774484e-001
-2.4221626e-001
7.9595149e-002
2.3411649e-001
3.0717325e-001
2.6177830e-001
1.7612262e-001
4.0482134e-002
-1.0397717e-001
-2.1192282e-001
-3.0979481e-001
-2.7311695e-001
-2.2373921e-001
-7.3743753e-002
9.5146298e-003
2.8698468e-001
5.7658684e-001
9.1758019e-001
1.2758943e+000
1.6857685e+000
2.1395991e+000
2.6847820e+000
3.1327040e+000
3.4207273e+000
3.4815998e+000
3.2654548e+000
2.9714136e+000
2.6076779e+000
2.3981571e+000
2.3000939e+000
2.4174342e+000
2.6478379e+000
2.9013398e+000
3.1610677e+000
3.2541766e+000
3.3027096e+000
3.3981941e+000
3.5016930e+000
4.1259999e+000
