##TITLE=Methyl Ethyl Ketone
##JCAMP-DX=4.24
##DATA TYPE=INFRARED SPECTRUM
##XUNITS=cm-1
##YUNITS=Absorbance
##FIRSTX=900
##LASTX=2300
##XYDATA=(X++(Y..Y))
2296 -0.0067572999
2294 -0.0068978989
2292 -0.0070384978
2290 -0.0071789972
2288 -0.0073195952
2286 -0.0074601942
2284 -0.0076007931
2282 -0.0077413917
2280 -0.0078818919
2278 -0.0080222925
2276 -0.0081630852
2274 -0.0083043762
2272 -0.0084442003
2270 -0.0085821347
2268 -0.0087253293
2266 -0.0088758664
2264 -0.0090067154
2262 -0.0091100028
2260 -0.0092867017
2258 -0.009566132
2256 -0.009572926
2254 -0.0091964435
2252 -0.0098333554
2250 -0.011899521
2248 -0.010198846
2246 -0.00086561748
2244 0.008356303
2242 0.0067265257
2240 -0.015452183
2238 -0.059308372
2236 -0.092723869
2234 -0.087782457
2232 -0.071701251
2230 -0.083565593
2228 -0.14603285
2226 -0.26219249
2224 -0.37597358
2222 -0.42652512
2220 -0.40347624
2218 -0.32134911
2216 -0.23420314
2214 -0.19425476
2212 -0.1994026
2210 -0.2290408
2208 -0.25457537
2206 -0.25299728
2204 -0.23267417
2202 -0.20996287
2200 -0.19462623
2198 -0.19412149
2196 -0.21548
2194 -0.26403344
2192 -0.33844456
2190 -0.43068859
2188 -0.51410025
2186 -0.56129926
2184 -0.56610477
2182 -0.53422618
2180 -0.49172357
2178 -0.4667764
2176 -0.46995744
2174 -0.50021738
2172 -0.53317356
2170 -0.53964901
2168 -0.50183094
2166 -0.41456005
2164 -0.30826625
2162 -0.2217502
2160 -0.17965034
2158 -0.19311714
2156 -0.238748
2154 -0.28660664
2152 -0.32778531
2150 -0.36370307
2148 -0.4073835
2146 -0.46949393
2144 -0.53541929
2142 -0.58371019
2140 -0.60143441
2138 -0.5835827
2136 -0.54445028
2134 -0.50319016
2132 -0.47116503
2130 -0.45374683
2128 -0.44395238
2126 -0.43094778
2124 -0.40621361
2122 -0.36726835
2120 -0.33237812
2118 -0.32412723
2116 -0.35139215
2114 -0.41261551
2112 -0.48519847
2110 -0.54197586
2108 -0.56861663
2106 -0.56029058
2104 -0.53037226
2102 -0.49868748
2100 -0.48377499
2098 -0.49913701
2096 -0.54047853
2094 -0.59646297
2092 -0.65490675
2090 -0.70653635
2088 -0.75424254
2086 -0.80564851
2084 -0.86815345
2082 -0.94470721
2080 -1.0208144
2078 -1.0763185
2076 -1.0967057
2074 -1.0760289
2072 -1.033564
2070 -0.99588501
2068 -0.97738075
2066 -0.98366994
2064 -1.0064223
2062 -1.0338367
2060 -1.0631102
2058 -1.0945771
2056 -1.1258514
2054 -1.1524576
2052 -1.1688728
2050 -1.1714
2048 -1.1668743
2046 -1.1665572
2044 -1.180722
2042 -1.2154787
2040 -1.2617228
2038 -1.303618
2036 -1.3238028
2034 -1.311906
2032 -1.2864292
2030 -1.276683
2028 -1.3023636
2026 -1.36859
2024 -1.439864
2022 -1.4706509
2020 -1.4474226
2018 -1.3780283
2016 -1.2965
2014 -1.241429
2012 -1.2253228
2010 -1.2462187
2008 -1.292588
2006 -1.3478172
2004 -1.3879124
2002 -1.389791
2000 -1.347452
1998 -1.2671527
1996 -1.17195
1994 -1.0905532
1992 -1.0436034
1990 -1.0437176
1988 -1.088142
1986 -1.1654779
1984 -1.2594051
1982 -1.3528311
1980 -1.4347686
1978 -1.4959573
1976 -1.5215057
1974 -1.495886
1972 -1.4143163
1970 -1.2851534
1968 -1.1493818
1966 -1.0581857
1964 -1.0384269
1962 -1.0940412
1960 -1.1879801
1958 -1.2690687
1956 -1.3112015
1954 -1.3070353
1952 -1.2687292
1950 -1.2184267
1948 -1.182456
1946 -1.186725
1944 -1.2491635
1942 -1.3743713
1940 -1.5282211
1938 -1.6606425
1936 -1.7377628
1934 -1.7446029
1932 -1.7038341
1930 -1.6504955
1928 -1.590892
1926 -1.5109136
1924 -1.3815286
1922 -1.1815516
1920 -0.95222592
1918 -0.7632013
1916 -0.65886831
1914 -0.6562748
1912 -0.72583401
1910 -0.8211326
1908 -0.92805713
1906 -1.0495694
1904 -1.176284
1902 -1.286847
1900 -1.3456746
1898 -1.3204406
1896 -1.2244428
1894 -1.0996563
1892 -0.99784541
1890 -0.96538621
1888 -1.0109236
1886 -1.1169007
1884 -1.2476597
1882 -1.3633629
1880 -1.4429537
1878 -1.4791627
1876 -1.47368
1874 -1.4324934
1872 -1.362344
1870 -1.2759161
1868 -1.2118417
1866 -1.2167629
1864 -1.3051302
1862 -1.463979
1860 -1.6517745
1858 -1.8179697
1856 -1.9379886
1854 -2.0018666
1852 -1.9873152
1850 -1.8702548
1848 -1.6608441
1846 -1.4006643
1844 -1.1733346
1842 -1.0689627
1840 -1.0993811
1838 -1.2174037
1836 -1.3417557
1834 -1.388274
1832 -1.3302566
1830 -1.1896216
1828 -1.0342771
1826 -0.94802153
1824 -0.97413933
1822 -1.1161931
1820 -1.3288701
1818 -1.5417755
1816 -1.6996914
1814 -1.769009
1812 -1.7557174
1810 -1.6881434
1808 -1.5856583
1806 -1.45494
1804 -1.285036
1802 -1.0584614
1800 -0.77663386
1798 -0.45887786
1796 -0.14231707
1794 0.1255461
1792 0.29698601
1790 0.33832455
1788 0.2747508
1786 0.16985208
1784 0.078879476
1782 0.042857945
1780 0.087033898
1778 0.2226595
1776 0.44092512
1774 0.70787638
1772 0.93304682
1770 1.0057122
1768 0.89686263
1766 0.65253973
1764 0.37351298
1762 0.16844699
1760 0.040736001
1758 -0.070185274
1756 -0.15164572
1754 -0.13080271
1752 0.048463486
1750 0.39811307
1748 0.82244301
1746 1.1617639
1744 1.3133886
1742 1.2551769
1740 1.0952057
1738 1.0048186
1736 1.0316401
1734 1.1048309
1732 1.0934612
1730 0.86933041
1728 0.45932484
1726 0.017005563
1724 -0.28418416
1722 -0.2868619
1720 0.10353263
1718 0.89859426
1716 1.94639
1714 3.0025287
1712 3.9509046
1710 4.8227491
1708 5.7854042
1706 7.0896902
1704 8.960968
1702 11.552771
1700 14.840902
1698 18.617203
1696 22.450714
1694 25.831711
1692 28.61017
1690 31.006458
1688 33.49305
1686 36.647728
1684 40.817539
1682 46.012283
1680 51.65844
1678 56.878593
1676 61.476856
1674 65.891151
1672 70.534882
1670 75.597878
1668 80.80072
1666 85.540047
1664 89.458717
1662 92.501572
1660 94.745316
1658 96.331459
1656 97.400398
1654 98.056595
1652 98.298981
1650 98.033791
1648 97.147964
1646 95.579964
1644 93.526573
1642 91.365417
1640 89.234932
1638 87.000626
1636 84.420715
1634 81.253632
1632 77.506554
1630 73.400322
1628 69.080582
1626 64.571777
1624 59.849682
1622 54.894249
1620 49.808399
1618 44.809357
1616 40.1064
1614 35.868828
1612 32.213646
1610 29.193939
1608 26.758297
1606 24.772129
1604 23.126945
1602 21.765215
1600 20.674274
1598 19.87006
1596 19.3475
1594 19.072231
1592 19.000446
1590 19.092289
1588 19.342575
1586 19.782593
1584 20.449703
1582 21.38661
1580 22.680231
1578 24.448719
1576 26.753057
1574 29.562492
1572 32.710667
1570 35.929794
1568 39.04652
1566 42.019859
1564 44.861797
1562 47.639584
1560 50.553905
1558 53.825527
1556 57.124828
1554 59.605289
1552 60.794941
1550 60.800137
1548 60.049603
1546 59.11882
1544 58.210674
1542 57.075382
1540 55.387661
1538 52.918633
1536 49.838715
1534 46.708237
1532 43.93502
1530 41.638058
1528 39.781433
1526 38.209702
1524 36.711788
1522 35.055435
1520 33.074547
1518 30.727848
1516 28.185043
1514 25.790003
1512 23.693041
1510 21.759644
1508 19.761383
1506 17.476406
1504 14.945279
1502 12.495459
1500 10.363507
1498 8.5890312
1496 7.1092858
1494 5.8013592
1492 4.5947733
1490 3.4935489
1488 2.4818382
1486 1.5138438
1484 0.61105281
1482 -0.11423868
1480 -0.53802532
1478 -0.54867786
1476 -0.051776558
1474 0.99517208
1472 2.4508264
1470 3.9804649
1468 5.3558664
1466 6.5519381
1464 7.6496921
1462 8.7972116
1460 10.081511
1458 11.466619
1456 12.764999
1454 13.658628
1452 13.978837
1450 13.798469
1448 13.268068
1446 12.56375
1444 11.815429
1442 11.080151
1440 10.380121
1438 9.7069082
1436 9.0157328
1434 8.234107
1432 7.347434
1430 6.431201
1428 5.5934119
1426 4.9505663
1424 4.5680909
1422 4.4320145
1420 4.4814963
1418 4.6184101
1416 4.7619171
1414 4.875319
1412 4.9770136
1410 5.1436877
1408 5.430685
1406 5.8400946
1404 6.3365002
1402 6.8473048
1400 7.2913523
1398 7.5895348
1396 7.6803284
1394 7.535223
1392 7.1765699
1390 6.6883097
1388 6.1531343
1386 5.6288352
1384 5.1511664
1382 4.7308998
1380 4.3710985
1378 4.0669966
1376 3.7850287
1374 3.455121
1372 3.0243921
1370 2.4845841
1368 1.8721542
1366 1.2720666
1364 0.75020921
1362 0.32542923
1360 0.00062073767
1358 -0.22775531
1356 -0.35197613
1354 -0.34551942
1352 -0.1841609
1350 0.14299378
1348 0.62612474
1346 1.2296
1344 1.9267399
1342 2.7064357
1340 3.5129387
1338 4.2148471
1336 4.6736741
1334 4.782547
1332 4.532227
1330 4.0589762
1328 3.5130651
1326 3.008882
1324 2.6239879
1322 2.3845301
1320 2.281163
1318 2.2638788
1316 2.2681799
1314 2.2247529
1312 2.091341
1310 1.8756454
1308 1.6088886
1306 1.3422093
1304 1.1219909
1302 0.97725797
1300 0.92608577
1298 0.97455245
1296 1.1272143
1294 1.3902491
1292 1.7677708
1290 2.2569196
1288 2.839572
1286 3.4726951
1284 4.1051111
1282 4.6826935
1280 5.1619425
1278 5.5215344
1276 5.7604957
1274 5.906714
1272 6.0012021
1270 6.0962391
1268 6.237936
1266 6.4553857
1264 6.7675781
1262 7.1813092
1260 7.6970177
1258 8.3092384
1256 9.0120678
1254 9.8019333
1252 10.677792
1250 11.640937
1248 12.680292
1246 13.759501
1244 14.829532
1242 15.824923
1240 16.682388
1238 17.353365
1236 17.794014
1234 17.963514
1232 17.821039
1230 17.329823
1228 16.48304
1226 15.334143
1224 13.963258
1222 12.479783
1220 10.997788
1218 9.6248541
1216 8.4556112
1214 7.5563722
1212 6.9678707
1210 6.6884251
1208 6.6841369
1206 6.8727574
1204 7.1441998
1202 7.3576474
1200 7.3894434
1198 7.1727233
1196 6.6947999
1194 6.0286179
1192 5.2675819
1190 4.5021062
1188 3.7964616
1186 3.1602628
1184 2.5875919
1182 2.0688879
1180 1.6079134
1178 1.2386905
1176 0.99413604
1174 0.88742864
1172 0.90949988
1170 1.013799
1168 1.1504115
1166 1.283605
1164 1.3954746
1162 1.499748
1160 1.6083016
1158 1.7100334
1156 1.7762187
1154 1.75214
1152 1.5987725
1150 1.3290336
1148 0.98387778
1146 0.6385386
1144 0.35959262
1142 0.17238307
1140 0.071767978
1138 0.006711714
1136 -0.062853195
1134 -0.12568229
1132 -0.16123773
1130 -0.15608945
1128 -0.10016568
1126 0.012324065
1124 0.18279777
1122 0.40273908
1120 0.64478678
1118 0.84296209
1116 0.93610585
1114 0.90083265
1112 0.75151551
1110 0.57195002
1108 0.4459936
1106 0.41386598
1104 0.48442566
1102 0.61526692
1100 0.76569879
1098 0.9312036
1096 1.1223571
1094 1.3653045
1092 1.682826
1090 2.0780826
1088 2.5398073
1086 3.031445
1084 3.5045438
1082 3.8968525
1080 4.1615796
1078 4.3015537
1076 4.3383789
1074 4.3106914
1072 4.2504764
1070 4.1619802
1068 4.0497222
1066 3.9369643
1064 3.8452799
1062 3.7790003
1060 3.7247591
1058 3.6336553
1056 3.4670887
1054 3.2398891
1052 2.9897413
1050 2.7807188
1048 2.6633439
1046 2.6314216
1044 2.6641481
1042 2.7382722
1040 2.8414452
1038 2.9933333
1036 3.2105398
1034 3.4764252
1032 3.7541234
1030 3.9715638
1028 4.0607595
1026 3.9935584
1024 3.7725492
1022 3.463469
1020 3.1415508
1018 2.8625307
1016 2.6591201
1014 2.508373
1012 2.3738637
1010 2.2188306
1008 2.0151639
1006 1.7606492
1004 1.4691749
1002 1.1834099
1000 0.93973696
998 0.73240888
996 0.53836215
994 0.31399116
992 0.032401279
990 -0.26405504
988 -0.51735038
986 -0.67490625
984 -0.70405698
982 -0.63211858
980 -0.49541676
978 -0.31133449
976 -0.091612294
974 0.15453099
972 0.40594512
970 0.60045958
968 0.68405128
966 0.66497898
964 0.57843018
962 0.49788359
960 0.48239556
958 0.50891078
956 0.53241444
954 0.50284302
952 0.38861841
950 0.22742762
948 0.078541517
946 0.01644703
944 0.10652986
942 0.36750582
940 0.78020078
938 1.2311751
936 1.5989286
934 1.8188462
932 1.8655699
930 1.80556
928 1.7225783
926 1.6797143
924 1.718968
922 1.8228053
920 1.9573874
918 2.0842032
916 2.1728902
914 2.2279851
912 2.2740886
910 2.3791571
908 2.605583
906 2.9537091
904 3.3882308
902 3.7950077
900 4.0761719
898 4.2759833
896 4.474
