Image.
>Pix99999.
  .
5555
5555
2300
900
5555
2
1
0
701
5555
-5.0716002e-002
-5.1793456e-002
-5.2870914e-002
-5.3948376e-002
-5.5025835e-002
-5.6104284e-002
-5.7181749e-002
-5.8259211e-002
-5.9336670e-002
-6.0413137e-002
-6.1491571e-002
-6.2571011e-002
-6.3646540e-002
-6.4715132e-002
-6.5801241e-002
-6.6912152e-002
-6.7957111e-002
-6.8909883e-002
-7.0107989e-002
-7.1650825e-002
-7.2280712e-002
-7.1624815e-002
-7.4366361e-002
-8.1897192e-002
-7.6803803e-002
-4.4354785e-002
-1.6030857e-003
2.8522700e-002
3.5370361e-002
2.0249769e-002
1.8446999e-002
6.4866647e-002
1.5399361e-001
2.6646176e-001
3.7434593e-001
4.5175147e-001
4.9063766e-001
4.8978382e-001
4.5436433e-001
3.9239672e-001
3.1608087e-001
2.4065804e-001
1.8866660e-001
1.8248579e-001
2.3501304e-001
3.4809408e-001
4.9062428e-001
6.2241757e-001
7.0726180e-001
7.2047675e-001
6.7859572e-001
6.1262733e-001
5.6023860e-001
5.5244631e-001
5.8586890e-001
6.4764303e-001
7.3111844e-001
8.3177203e-001
9.4469935e-001
1.0592282e+000
1.1420429e+000
1.1622276e+000
1.1303240e+000
1.0734100e+000
1.0297583e+000
1.0330664e+000
1.0837048e+000
1.1688389e+000
1.2674954e+000
1.3565258e+000
1.4149700e+000
1.4278682e+000
1.4007989e+000
1.3474400e+000
1.2861543e+000
1.2318321e+000
1.1788542e+000
1.1170300e+000
1.0443457e+000
9.6636170e-001
9.0644634e-001
8.8939887e-001
9.2047501e-001
9.9372536e-001
1.0869520e+000
1.1770321e+000
1.2621063e+000
1.3489498e+000
1.4481902e+000
1.5665157e+000
1.6883014e+000
1.7906519e+000
1.8548456e+000
1.8676294e+000
1.8321266e+000
1.7598636e+000
1.6721742e+000
1.5937423e+000
1.5481840e+000
1.5507423e+000
1.5857857e+000
1.6245161e+000
1.6324919e+000
1.5827520e+000
1.4867435e+000
1.3718801e+000
1.2707157e+000
1.2112403e+000
1.1980412e+000
1.2250459e+000
1.2805185e+000
1.3517450e+000
1.4280800e+000
1.4996871e+000
1.5544640e+000
1.5814528e+000
1.5768405e+000
1.5426353e+000
1.4931152e+000
1.4459710e+000
1.4148171e+000
1.4100000e+000
1.4378265e+000
1.5005757e+000
1.5915297e+000
1.6972964e+000
1.7925321e+000
1.8525025e+000
1.8760731e+000
1.8731637e+000
1.8566543e+000
1.8380809e+000
1.8197509e+000
1.8047171e+000
1.8170395e+000
1.8833151e+000
2.0004647e+000
2.1445365e+000
2.2618339e+000
2.2980058e+000
2.2502401e+000
2.1477203e+000
2.0531180e+000
2.0296278e+000
2.0843766e+000
2.1919816e+000
2.3010621e+000
2.3599770e+000
2.3592119e+000
2.3136580e+000
2.2537000e+000
2.2105403e+000
2.1917315e+000
2.1924727e+000
2.2048099e+000
2.2227929e+000
2.2531898e+000
2.3073981e+000
2.3895791e+000
2.4953873e+000
2.6022942e+000
2.6824789e+000
2.7231026e+000
2.7222450e+000
2.6916983e+000
2.6471021e+000
2.5943480e+000
2.5355620e+000
2.4794002e+000
2.4374502e+000
2.4192142e+000
2.4298275e+000
2.4618824e+000
2.5012400e+000
2.5326157e+000
2.5421751e+000
2.5239115e+000
2.4790969e+000
2.4240417e+000
2.3805983e+000
2.3619087e+000
2.3728390e+000
2.4045620e+000
2.4435430e+000
2.4848125e+000
2.5277300e+000
2.5670295e+000
2.5933695e+000
2.5912542e+000
2.5483692e+000
2.4799042e+000
2.4145989e+000
2.3736513e+000
2.3673522e+000
2.3814116e+000
2.3909450e+000
2.3822601e+000
2.3527625e+000
2.3166959e+000
2.2951632e+000
2.3009143e+000
2.3353677e+000
2.3738518e+000
2.3815889e+000
2.3418536e+000
2.2569122e+000
2.1610453e+000
2.0989125e+000
2.0835457e+000
2.1030207e+000
2.1251500e+000
2.1143041e+000
2.0635285e+000
1.9874818e+000
1.9165382e+000
1.8826507e+000
1.8920881e+000
1.9320511e+000
1.9769217e+000
1.9990892e+000
1.9893544e+000
1.9526492e+000
1.9033645e+000
1.8576304e+000
1.8177880e+000
1.7777464e+000
1.7345349e+000
1.6899955e+000
1.6557434e+000
1.6456617e+000
1.6580229e+000
1.6796770e+000
1.6933841e+000
1.6848584e+000
1.6589955e+000
1.6336215e+000
1.6275572e+000
1.6537327e+000
1.7029999e+000
1.7509406e+000
1.7692543e+000
1.7341144e+000
1.6466234e+000
1.5276872e+000
1.4123337e+000
1.3353950e+000
1.2963400e+000
1.2705803e+000
1.2354902e+000
1.1789925e+000
1.1172286e+000
1.0807264e+000
1.0793400e+000
1.1047560e+000
1.1391363e+000
1.1624800e+000
1.1656189e+000
1.1485217e+000
1.1167423e+000
1.0775700e+000
1.0341142e+000
9.8495793e-001
9.2380971e-001
8.4186631e-001
7.3245984e-001
5.9302109e-001
4.3097660e-001
2.5794184e-001
7.3072113e-002
-1.2579043e-001
-3.0124041e-001
-3.9679772e-001
-4.0634692e-001
-3.6749589e-001
-3.3124858e-001
-3.4454679e-001
-4.1601250e-001
-5.2208763e-001
-6.2423605e-001
-6.8412572e-001
-6.9742203e-001
-6.8636566e-001
-6.7354751e-001
-6.7162991e-001
-6.6336805e-001
-6.1213678e-001
-4.9460590e-001
-3.0879149e-001
-8.9850403e-002
1.1476369e-001
3.2493401e-001
6.0105491e-001
9.2954248e-001
1.2488265e+000
1.5834700e+000
2.0431986e+000
2.7727304e+000
3.9425611e+000
5.7705154e+000
8.4291849e+000
1.1710029e+001
1.5118470e+001
1.8275419e+001
2.1022886e+001
2.3569611e+001
2.6366293e+001
2.9707729e+001
3.3623543e+001
3.7695843e+001
4.1277359e+001
4.4259743e+001
4.7041557e+001
5.0037979e+001
5.3522663e+001
5.7427326e+001
6.1427349e+001
6.5296638e+001
6.8945435e+001
7.2317665e+001
7.5377686e+001
7.8150459e+001
8.0717407e+001
8.3184456e+001
8.5625648e+001
8.7900414e+001
8.9706963e+001
9.0887848e+001
9.1457191e+001
9.1482872e+001
9.1037910e+001
9.0128960e+001
8.8711143e+001
8.6792290e+001
8.4430252e+001
8.1647659e+001
7.8433540e+001
7.4813362e+001
7.0865044e+001
6.6722969e+001
6.2557396e+001
5.8502602e+001
5.4647350e+001
5.1062153e+001
4.7794922e+001
4.4828674e+001
4.2097679e+001
3.9571125e+001
3.7267620e+001
3.5227570e+001
3.3491749e+001
3.2049500e+001
3.0837593e+001
2.9788811e+001
2.8852814e+001
2.8023893e+001
2.7336329e+001
2.6817194e+001
2.6477951e+001
2.6338343e+001
2.6425787e+001
2.6760344e+001
2.7342875e+001
2.8115049e+001
2.8967436e+001
2.9818239e+001
3.0634943e+001
3.1432192e+001
3.2296268e+001
3.3491314e+001
3.5381321e+001
3.7954498e+001
4.0764301e+001
4.3308064e+001
4.5195225e+001
4.6427799e+001
4.7390820e+001
4.8372742e+001
4.9446953e+001
5.0551800e+001
5.1522491e+001
5.2171085e+001
5.2341034e+001
5.2054489e+001
5.1509418e+001
5.0827171e+001
4.9999451e+001
4.9004158e+001
4.7844860e+001
4.6571224e+001
4.5272205e+001
4.4004314e+001
4.2754124e+001
4.1395077e+001
3.9696766e+001
3.7487026e+001
3.4729713e+001
3.1613720e+001
2.8530968e+001
2.5733089e+001
2.3234789e+001
2.0942572e+001
1.8704229e+001
1.6412403e+001
1.4039532e+001
1.1603771e+001
9.1684418e+000
6.8577180e+000
4.8379183e+000
3.1788521e+000
1.8334999e+000
8.2009137e-001
2.5167555e-001
1.5858552e-001
4.3955290e-001
9.6875095e-001
1.6299585e+000
2.3354092e+000
3.0357783e+000
3.7116568e+000
4.3690286e+000
5.0050998e+000
5.5938578e+000
6.0797138e+000
6.3845315e+000
6.4761992e+000
6.3921609e+000
6.1937919e+000
5.9488492e+000
5.6960149e+000
5.4278512e+000
5.0990801e+000
4.6367340e+000
4.0189338e+000
3.3049314e+000
2.5869179e+000
1.9710357e+000
1.5258640e+000
1.2613025e+000
1.1644638e+000
1.2082175e+000
1.3616371e+000
1.5947471e+000
1.8887603e+000
2.2412529e+000
2.6579525e+000
3.1479592e+000
3.7024908e+000
4.2852745e+000
4.8499718e+000
5.3480978e+000
5.7524786e+000
6.0677528e+000
6.3047266e+000
6.4706721e+000
6.5608621e+000
6.5559149e+000
6.4446359e+000
6.2332687e+000
5.9345765e+000
5.5656657e+000
5.1448059e+000
4.6924453e+000
4.2364140e+000
3.8098903e+000
3.4174616e+000
3.0182514e+000
2.5639794e+000
2.0195251e+000
1.4062330e+000
8.2476974e-001
3.7009513e-001
9.3548737e-002
-2.0080230e-003
2.6903067e-002
1.2197150e-001
2.4498107e-001
3.7257361e-001
4.9841329e-001
6.2215227e-001
7.4621743e-001
8.6903542e-001
9.8140323e-001
1.0720934e+000
1.1308850e+000
1.1570549e+000
1.1658658e+000
1.1796243e+000
1.2243212e+000
1.3144732e+000
1.4426908e+000
1.5884900e+000
1.7194201e+000
1.8096697e+000
1.8510221e+000
1.8487431e+000
1.8231336e+000
1.7918200e+000
1.7616410e+000
1.7373500e+000
1.7252733e+000
1.7393143e+000
1.8043664e+000
1.9360334e+000
2.1281784e+000
2.3603680e+000
2.5972707e+000
2.8090208e+000
2.9832683e+000
3.1203659e+000
3.2362599e+000
3.3505299e+000
3.4824069e+000
3.6459553e+000
3.8462558e+000
4.0869198e+000
4.3728585e+000
4.7097964e+000
5.1035271e+000
5.5517297e+000
6.0381889e+000
6.5497084e+000
7.0864258e+000
7.6608300e+000
8.3011150e+000
9.0255976e+000
9.8256750e+000
1.0674772e+001
1.1524646e+001
1.2328057e+001
1.3043900e+001
1.3639486e+001
1.4093362e+001
1.4390759e+001
1.4523716e+001
1.4485211e+001
1.4272443e+001
1.3890155e+001
1.3357835e+001
1.2710074e+001
1.2003860e+001
1.1292601e+001
1.0612175e+001
9.9847250e+000
9.4172783e+000
8.9075460e+000
8.4472971e+000
8.0193157e+000
7.5922332e+000
7.1349106e+000
6.6249824e+000
6.0500784e+000
5.4157853e+000
4.7362771e+000
4.0356579e+000
3.3457813e+000
2.7093842e+000
2.1668961e+000
1.7471101e+000
1.4618601e+000
1.2922053e+000
1.2108999e+000
1.1880914e+000
1.1975722e+000
1.2214537e+000
1.2424492e+000
1.2407249e+000
1.2019191e+000
1.1254691e+000
1.0154804e+000
8.7925076e-001
7.2437596e-001
5.5817831e-001
3.9209977e-001
2.4648967e-001
1.3820742e-001
7.0558459e-002
3.8875729e-002
2.7425764e-002
1.8147485e-002
-4.4002570e-003
-3.8713086e-002
-4.6255838e-002
7.1253031e-003
1.2398072e-001
2.9791337e-001
5.1924115e-001
7.7829528e-001
1.0667971e+000
1.3713840e+000
1.6663363e+000
1.9340957e+000
2.1829584e+000
2.4212680e+000
2.6412294e+000
2.8300264e+000
2.9740999e+000
3.0783229e+000
3.1938083e+000
3.3778026e+000
3.6726139e+000
4.0960288e+000
4.6118183e+000
5.1654382e+000
5.6901054e+000
6.1314421e+000
6.4756522e+000
6.7298660e+000
6.9289279e+000
7.1083632e+000
7.2860460e+000
7.4698801e+000
7.6514926e+000
7.8202333e+000
7.9693952e+000
8.0966578e+000
8.2080460e+000
8.3088522e+000
8.3955965e+000
8.4556704e+000
8.4572515e+000
8.3704109e+000
8.1847687e+000
7.9065065e+000
7.5765443e+000
7.2400894e+000
6.9308391e+000
6.6722155e+000
6.4669309e+000
6.3103409e+000
6.1903729e+000
6.0851898e+000
5.9499393e+000
5.7364793e+000
5.4052916e+000
4.9389486e+000
4.3798223e+000
3.7884810e+000
3.2363980e+000
2.7769542e+000
2.4017096e+000
2.0827601e+000
1.7819450e+000
1.4706829e+000
1.1582023e+000
8.5906279e-001
5.7590890e-001
3.0924606e-001
6.2439457e-002
-1.6074474e-001
-3.5791463e-001
-5.3349572e-001
-7.1181667e-001
-9.1356176e-001
-1.1320922e+000
-1.3524451e+000
-1.5543807e+000
-1.7188052e+000
-1.8343920e+000
-1.8897740e+000
-1.8672044e+000
-1.7509428e+000
-1.5384910e+000
-1.2327527e+000
-8.4607506e-001
-4.0181080e-001
4.7041386e-002
4.3720832e-001
6.9636530e-001
7.7293676e-001
6.9468588e-001
5.1723713e-001
3.2418603e-001
1.8575519e-001
1.0119224e-001
5.3188145e-002
2.8044071e-002
1.3499720e-002
-5.0662458e-004
-1.5028770e-002
-1.0368600e-003
6.5281659e-002
1.6192037e-001
2.6587766e-001
3.9215359e-001
5.5644965e-001
7.4205774e-001
9.2509842e-001
1.0851289e+000
1.2100137e+000
1.3156343e+000
1.4194000e+000
1.5170170e+000
1.5955024e+000
1.6300230e+000
1.6019949e+000
1.5314370e+000
1.4530177e+000
1.4215550e+000
1.4811726e+000
1.6114353e+000
1.7759000e+000
