Image.
>Pix99999.
  .
5555
5555
2300
900
5555
2
1
0
701
5555
8.9113005e-003
9.0967342e-003
9.2820702e-003
9.4675040e-003
9.6528390e-003
9.8382737e-003
1.0023411e-002
1.0209140e-002
1.0394875e-002
1.0579621e-002
1.0765343e-002
1.0951078e-002
1.1135829e-002
1.1321546e-002
1.1506299e-002
1.1692014e-002
1.1877748e-002
1.2062508e-002
1.2248217e-002
1.2433952e-002
1.2618715e-002
1.2804421e-002
1.2990154e-002
1.3174921e-002
1.3360623e-002
1.3546357e-002
5.0339714e-004
2.0346712e-002
4.5510523e-002
9.9989325e-002
1.5879057e-001
1.9519052e-001
2.2744982e-001
2.0330720e-001
1.7400141e-001
1.2509850e-001
7.7257335e-002
3.8813256e-002
1.1188059e-002
1.5014476e-002
3.9144512e-002
1.0375974e-001
1.6604520e-001
2.2062179e-001
2.4417354e-001
2.2961350e-001
2.0503207e-001
1.7310879e-001
1.5938960e-001
1.5962811e-001
1.6174357e-001
1.6440329e-001
1.6422971e-001
1.6278584e-001
1.8392339e-001
2.1241221e-001
2.4196801e-001
2.7165833e-001
2.7075076e-001
2.6514801e-001
2.4851371e-001
2.3106152e-001
2.1568629e-001
2.0139070e-001
1.9216909e-001
1.8562779e-001
1.8705069e-001
1.9001807e-001
1.9490555e-001
2.0608193e-001
2.2878700e-001
2.5952092e-001
3.0013084e-001
3.2819226e-001
3.4095812e-001
3.3441681e-001
3.1222051e-001
2.9284459e-001
2.7658838e-001
2.7017909e-001
2.6895228e-001
2.6708373e-001
2.6468700e-001
2.6446170e-001
2.6492760e-001
2.6607943e-001
2.6739660e-001
2.5592175e-001
2.4235348e-001
2.2735511e-001
2.1353371e-001
2.0986600e-001
2.0783417e-001
2.0640802e-001
2.0365018e-001
1.9663821e-001
1.8812765e-001
1.7773132e-001
1.6666099e-001
1.5495169e-001
1.4713429e-001
1.4457826e-001
1.5243571e-001
1.7029721e-001
1.8912983e-001
2.0751750e-001
2.0728303e-001
1.9477987e-001
1.6867782e-001
1.3630503e-001
1.1140871e-001
8.9947246e-002
8.4469959e-002
8.4064163e-002
9.1330402e-002
1.0015344e-001
9.3247123e-002
8.1792437e-002
5.4060198e-002
2.3794070e-002
-2.7906084e-003
-2.6597498e-002
-4.2702906e-002
-5.5496346e-002
-6.3292891e-002
-6.8779007e-002
-7.1481019e-002
-7.1746394e-002
-6.9482476e-002
-6.8308219e-002
-6.9431990e-002
-8.2694575e-002
-1.0724796e-001
-1.3906290e-001
-1.7479008e-001
-1.9961400e-001
-2.1687616e-001
-2.2381426e-001
-2.2587204e-001
-2.2671902e-001
-2.2749200e-001
-2.2424808e-001
-2.1991445e-001
-2.1266429e-001
-2.0481074e-001
-1.9720599e-001
-1.8960141e-001
-1.8069459e-001
-1.7229949e-001
-1.6638240e-001
-1.6312072e-001
-1.6527717e-001
-1.7399949e-001
-1.9560505e-001
-2.2739400e-001
-2.7296442e-001
-3.2143149e-001
-3.6932242e-001
-4.1136211e-001
-4.4632661e-001
-4.6250600e-001
-4.6235499e-001
-4.2907786e-001
-3.7271142e-001
-3.2150179e-001
-2.7630979e-001
-2.8291222e-001
-3.1671789e-001
-3.6016160e-001
-4.0643218e-001
-4.2819157e-001
-4.4105932e-001
-4.4953823e-001
-4.5710453e-001
-4.6336079e-001
-4.6983999e-001
-4.8064509e-001
-4.9381885e-001
-5.1509237e-001
-5.3706306e-001
-5.5537885e-001
-5.6842315e-001
-5.7146436e-001
-5.6786102e-001
-5.5662858e-001
-5.3924119e-001
-5.1559711e-001
-4.9450532e-001
-4.7879863e-001
-4.8436701e-001
-5.0953227e-001
-5.3643572e-001
-5.6127274e-001
-5.7006872e-001
-5.6830835e-001
-5.8019310e-001
-6.0074079e-001
-6.2283850e-001
-6.4565015e-001
-6.2934589e-001
-5.9705144e-001
-5.5496860e-001
-5.1430601e-001
-5.1108652e-001
-5.3000778e-001
-5.8495587e-001
-6.5420008e-001
-7.2664809e-001
-7.8920460e-001
-8.2482147e-001
-8.3055699e-001
-7.9573733e-001
-7.3179108e-001
-6.4261436e-001
-5.7320434e-001
-5.4145873e-001
-5.6970757e-001
-6.5269476e-001
-7.4511093e-001
-8.3210939e-001
-8.9313656e-001
-9.3371797e-001
-9.4873357e-001
-9.4799864e-001
-9.1356999e-001
-8.5937428e-001
-8.1107843e-001
-7.6726180e-001
-7.7078980e-001
-7.9632634e-001
-8.1059927e-001
-8.1067240e-001
-7.5549346e-001
-6.7199278e-001
-5.7801056e-001
-5.0279814e-001
-4.9657303e-001
-5.4023188e-001
-6.2903559e-001
-7.2308969e-001
-7.9252458e-001
-8.2776213e-001
-8.2513845e-001
-8.0033934e-001
-7.6478106e-001
-7.2544199e-001
-6.8587601e-001
-6.5506661e-001
-6.3101149e-001
-6.0904360e-001
-5.8713216e-001
-5.4063731e-001
-4.7840798e-001
-4.2704332e-001
-3.8595676e-001
-3.6460730e-001
-3.5337159e-001
-3.1651863e-001
-2.6206899e-001
-1.7926461e-001
-7.8097433e-002
3.7553295e-002
1.4866205e-001
2.1473394e-001
2.3420297e-001
1.8908271e-001
1.2474040e-001
8.5247420e-002
2.8479595e-002
-7.1361288e-002
-1.5846387e-001
-2.0374119e-001
-1.8584852e-001
-1.0671747e-001
-1.4795633e-002
6.9326282e-002
6.6975832e-002
-1.9053724e-002
-1.2321532e-001
-2.2694249e-001
-2.3234001e-001
-1.5998536e-001
-8.3124064e-002
-1.3594293e-002
-4.7811538e-002
-1.4741336e-001
-1.9665878e-001
-1.7926371e-001
3.3399597e-002
4.2884919e-001
1.0419035e+000
1.7526696e+000
2.3810475e+000
2.9503233e+000
3.4923260e+000
4.1781778e+000
5.1693144e+000
6.7170138e+000
8.9434586e+000
1.2027030e+001
1.5924143e+001
1.9898680e+001
2.3610893e+001
2.6930771e+001
2.9906441e+001
3.3417065e+001
3.7553207e+001
4.2552261e+001
4.8236439e+001
5.3268227e+001
5.7673943e+001
6.1899986e+001
6.6077957e+001
7.1027725e+001
7.6562775e+001
8.2121101e+001
8.7560181e+001
9.2415825e+001
9.6682800e+001
1.0030759e+002
1.0325114e+002
1.0546999e+002
1.0668880e+002
1.0662684e+002
1.0515126e+002
1.0227357e+002
9.8695885e+001
9.5053345e+001
9.1260643e+001
8.7289917e+001
8.2791374e+001
7.7681885e+001
7.2638168e+001
6.7878235e+001
6.3513542e+001
5.9515965e+001
5.5437241e+001
5.1218849e+001
4.7090744e+001
4.3074562e+001
3.9338085e+001
3.5902927e+001
3.2905407e+001
3.0356239e+001
2.8226555e+001
2.6492043e+001
2.5007549e+001
2.3786602e+001
2.2812183e+001
2.2099117e+001
2.1629501e+001
2.1383244e+001
2.1299492e+001
2.1341152e+001
2.1453672e+001
2.1629021e+001
2.1856365e+001
2.2148130e+001
2.2508589e+001
2.3009977e+001
2.3675343e+001
2.4547079e+001
2.5625835e+001
2.6819265e+001
2.8103119e+001
2.9384743e+001
3.0656834e+001
3.2085617e+001
3.3764484e+001
3.6346691e+001
3.9888916e+001
4.3749321e+001
4.7686649e+001
5.0666763e+001
5.2735729e+001
5.4482285e+001
5.5942940e+001
5.7294552e+001
5.8335979e+001
5.8781017e+001
5.8548916e+001
5.7650524e+001
5.6345081e+001
5.4962303e+001
5.3505341e+001
5.1979500e+001
5.0233894e+001
4.8169724e+001
4.5777363e+001
4.3024006e+001
4.0354458e+001
3.7924248e+001
3.5691879e+001
3.3687119e+001
3.1299351e+001
2.8390587e+001
2.5424639e+001
2.2442923e+001
1.9882000e+001
1.7784569e+001
1.5692142e+001
1.3598582e+001
1.1472308e+001
9.3285503e+000
7.2176981e+000
5.2061815e+000
3.4027638e+000
1.9112630e+000
8.3815432e-001
2.0991859e-001
4.8392199e-002
4.2238373e-001
1.2596366e+000
2.2535250e+000
3.2127872e+000
4.0167551e+000
4.5747547e+000
5.0466795e+000
5.4877558e+000
5.9455752e+000
6.4369798e+000
6.8407683e+000
7.0927525e+000
7.1901560e+000
7.0630674e+000
6.8730178e+000
6.5999136e+000
6.3216538e+000
6.0323796e+000
5.7109485e+000
5.3290114e+000
4.8316226e+000
4.2183337e+000
3.5741553e+000
2.9461720e+000
2.4468265e+000
2.1018972e+000
1.9238839e+000
1.9051462e+000
2.0201344e+000
2.2219086e+000
2.4644980e+000
2.7174692e+000
2.9658108e+000
3.2262285e+000
3.5162129e+000
3.8414562e+000
4.2173390e+000
4.6221361e+000
5.0643682e+000
5.4914927e+000
5.8789339e+000
6.1809316e+000
6.3258367e+000
6.3555055e+000
6.2027249e+000
5.9547000e+000
5.5787339e+000
5.1651187e+000
4.7111993e+000
4.2562456e+000
3.8128905e+000
3.4009140e+000
3.0268402e+000
2.6909778e+000
2.3596509e+000
1.9744040e+000
1.5398923e+000
1.0550200e+000
5.9745944e-001
2.6462141e-001
4.7413576e-002
2.7324754e-004
3.3268474e-002
1.4019641e-001
2.7250427e-001
4.4021559e-001
6.3126051e-001
8.6606103e-001
1.1102386e+000
1.3664943e+000
1.6026568e+000
1.7957075e+000
1.9824010e+000
2.1629508e+000
2.3672299e+000
2.6136556e+000
2.8951886e+000
3.2244496e+000
3.5765057e+000
3.9439099e+000
4.2852850e+000
4.5839286e+000
4.8166690e+000
4.9825840e+000
5.0844507e+000
5.1356010e+000
5.1405978e+000
5.1200361e+000
5.0807223e+000
5.0396857e+000
5.0082126e+000
4.9893537e+000
4.9971771e+000
5.0151520e+000
5.0490055e+000
5.0788064e+000
5.0944080e+000
5.1056662e+000
5.1077189e+000
5.1142430e+000
5.1310296e+000
5.1537895e+000
5.1899147e+000
5.2416515e+000
5.3189578e+000
5.4220343e+000
5.5534744e+000
5.6875420e+000
5.8178153e+000
5.9237742e+000
6.0094895e+000
6.0894532e+000
6.1695862e+000
6.2631440e+000
6.3594999e+000
6.4412656e+000
6.5053258e+000
6.5274801e+000
6.5232592e+000
6.4707403e+000
6.3860507e+000
6.2262998e+000
6.0233011e+000
5.7040834e+000
5.3461127e+000
4.8860803e+000
4.4116220e+000
3.9050303e+000
3.4096730e+000
2.9393141e+000
2.4933031e+000
2.0905035e+000
1.7137027e+000
1.3762640e+000
1.0657041e+000
7.9150999e-001
5.5326164e-001
3.5677513e-001
2.0516625e-001
9.4539285e-002
2.2068977e-002
-2.1325840e-002
-3.3444971e-002
-2.5794582e-002
6.7446977e-003
4.8769336e-002
9.6338242e-002
1.5699568e-001
2.6619163e-001
4.1117001e-001
6.7462653e-001
9.5401311e-001
1.2659014e+000
1.5435224e+000
1.7132250e+000
1.8381075e+000
1.8520250e+000
1.8362908e+000
1.7602139e+000
1.6607429e+000
1.5220253e+000
1.3653224e+000
1.1835839e+000
9.8905820e-001
7.8075969e-001
5.6916213e-001
3.6092228e-001
1.8629566e-001
4.7725134e-002
-1.5493542e-002
-2.5459712e-002
3.3660613e-002
1.2792906e-001
2.6823759e-001
4.2181608e-001
5.7948405e-001
7.2845030e-001
8.2761002e-001
9.1166538e-001
9.3960285e-001
9.6636969e-001
9.9316901e-001
1.0336177e+000
1.1182435e+000
1.2179450e+000
1.3525497e+000
1.4743317e+000
1.5660117e+000
1.6138018e+000
1.5918715e+000
1.5455656e+000
1.4714260e+000
1.4092745e+000
1.3611292e+000
1.3307199e+000
1.3171400e+000
1.3261893e+000
1.3504578e+000
1.3874509e+000
1.4234300e+000
1.4120799e+000
1.3747965e+000
1.2627920e+000
1.1351097e+000
1.0142068e+000
9.0629077e-001
8.8765550e-001
8.8142884e-001
9.2650783e-001
9.6556658e-001
9.7749418e-001
9.7679716e-001
9.3541420e-001
8.8229507e-001
8.0020964e-001
7.0734322e-001
5.9556466e-001
4.9475321e-001
4.1120142e-001
3.4440500e-001
2.9424256e-001
2.2108880e-001
1.2547690e-001
5.8493018e-003
-1.2884200e-001
-2.5034148e-001
-3.6328959e-001
-4.5791480e-001
-5.4392850e-001
-6.1233431e-001
-6.7241532e-001
-6.9307917e-001
-7.0502329e-001
-6.9398081e-001
-6.8462914e-001
-7.1787483e-001
-7.5646049e-001
-8.2894707e-001
-8.9784694e-001
-9.5063353e-001
-9.9520218e-001
-1.0136976e+000
-1.0170165e+000
-9.8496044e-001
-9.3564510e-001
-8.5686833e-001
-7.8655726e-001
-7.2850418e-001
-6.8988115e-001
-6.7100680e-001
-6.4675933e-001
-6.1781043e-001
-5.8093745e-001
-5.3886259e-001
-4.9160451e-001
-4.4128355e-001
-3.7741342e-001
-3.0942494e-001
-2.4447154e-001
-1.8148114e-001
-1.4623760e-001
-1.1544040e-001
-1.1042166e-001
-1.0212269e-001
-3.3299681e-002
2.0985603e-003
6.5554082e-002
1.9916669e-001
3.7973207e-001
5.5620003e-001
7.2018695e-001
8.6037707e-001
9.4905216e-001
9.9952179e-001
9.8884135e-001
9.6528739e-001
9.2631102e-001
8.9257282e-001
8.6388600e-001
8.5236716e-001
8.5303819e-001
8.6696208e-001
8.8732249e-001
8.2939982e-001
7.4164879e-001
6.0440242e-001
4.5507181e-001
4.2992553e-001
4.2494890e-001
4.7310999e-001
