Image.
>Pix99999.
  .
5555
5555
2300
900
5555
2
1
0
701
5555
-4.5973002e-003
-4.6929633e-003
-4.7885268e-003
-4.8841895e-003
-4.9798526e-003
-5.0755157e-003
-5.1710797e-003
-5.2667423e-003
-5.3624054e-003
-5.4580681e-003
-5.5536330e-003
-5.6492947e-003
-5.7449578e-003
-5.8406205e-003
-5.9361863e-003
-6.0319449e-003
-6.1275130e-003
-6.2231733e-003
-6.3187391e-003
-6.4143999e-003
-6.5100631e-003
-6.6057257e-003
-6.7013889e-003
-6.7969556e-003
-6.8926150e-003
-6.9882786e-003
1.7656190e-002
7.1769854e-004
-3.5873279e-002
-9.8641805e-002
-1.6522714e-001
-2.5548053e-001
-3.4782052e-001
-4.4863161e-001
-5.4645967e-001
-6.1760551e-001
-6.8099278e-001
-7.1539152e-001
-7.4147266e-001
-7.4710983e-001
-7.3086947e-001
-6.6934556e-001
-5.9180880e-001
-4.9248263e-001
-4.3700564e-001
-4.3783587e-001
-4.9646613e-001
-6.0731685e-001
-7.1674925e-001
-8.2254100e-001
-8.7907070e-001
-9.0736365e-001
-8.7635309e-001
-8.2018465e-001
-7.5886893e-001
-6.9640088e-001
-6.6752321e-001
-6.4637965e-001
-6.1550647e-001
-5.8278877e-001
-5.2353543e-001
-4.6450922e-001
-4.3581957e-001
-4.2097202e-001
-4.6913812e-001
-5.2276009e-001
-5.7400388e-001
-6.0297352e-001
-5.7548290e-001
-5.4060990e-001
-5.0255400e-001
-4.9022749e-001
-5.1565492e-001
-5.5654180e-001
-6.1043084e-001
-6.6450322e-001
-7.1755356e-001
-7.8185415e-001
-8.5412455e-001
-9.3796217e-001
-1.0276674e+000
-1.0789424e+000
-1.1136109e+000
-1.1053363e+000
-1.0837240e+000
-1.1009436e+000
-1.1275584e+000
-1.1408832e+000
-1.1461469e+000
-1.0405606e+000
-9.2037171e-001
-8.0941141e-001
-7.2760856e-001
-7.6867282e-001
-8.3302653e-001
-9.1344798e-001
-9.6100038e-001
-9.3099487e-001
-8.8647115e-001
-8.3691376e-001
-8.1233859e-001
-8.2161540e-001
-8.4389096e-001
-8.7452054e-001
-8.9367574e-001
-9.0199703e-001
-8.8370651e-001
-8.4870392e-001
-8.3908594e-001
-8.4417027e-001
-8.8460988e-001
-9.3908679e-001
-9.4213200e-001
-9.2821503e-001
-8.8409376e-001
-8.3549130e-001
-8.9076889e-001
-9.7725439e-001
-1.1701071e+000
-1.3771800e+000
-1.5468428e+000
-1.6705658e+000
-1.6572411e+000
-1.5797236e+000
-1.4086040e+000
-1.2383143e+000
-1.1063460e+000
-1.0288101e+000
-1.0208492e+000
-1.0206580e+000
-1.0119314e+000
-9.9503529e-001
-9.7208327e-001
-9.9610251e-001
-1.0589957e+000
-1.1313828e+000
-1.2066537e+000
-1.1953411e+000
-1.1392229e+000
-1.0700985e+000
-9.9707997e-001
-1.0801351e+000
-1.2147260e+000
-1.4324778e+000
-1.6639651e+000
-1.7836878e+000
-1.8587123e+000
-1.8242830e+000
-1.7573406e+000
-1.6752844e+000
-1.5978357e+000
-1.5495442e+000
-1.5421875e+000
-1.6055832e+000
-1.7159420e+000
-1.8713429e+000
-2.0181434e+000
-2.1382091e+000
-2.2264397e+000
-2.2884438e+000
-2.2716773e+000
-2.1889799e+000
-1.9375583e+000
-1.5685471e+000
-1.2145537e+000
-8.8356709e-001
-8.6968577e-001
-1.0194496e+000
-1.3183720e+000
-1.6726823e+000
-1.9155471e+000
-2.1124353e+000
-2.2022154e+000
-2.2470176e+000
-2.2093341e+000
-2.1526251e+000
-2.1301668e+000
-2.1517808e+000
-2.2718825e+000
-2.4050453e+000
-2.4882886e+000
-2.5120280e+000
-2.4532239e+000
-2.3568351e+000
-2.2456760e+000
-2.0724034e+000
-1.8278829e+000
-1.5210673e+000
-1.1631937e+000
-9.5072961e-001
-8.7340015e-001
-9.1900676e-001
-1.0361686e+000
-1.1227275e+000
-1.1829859e+000
-1.3624642e+000
-1.6082920e+000
-1.8728113e+000
-2.1404357e+000
-2.1058085e+000
-1.9395000e+000
-1.6274557e+000
-1.2914951e+000
-1.1658241e+000
-1.1845566e+000
-1.4652829e+000
-1.8528811e+000
-2.2659311e+000
-2.6231239e+000
-2.8345106e+000
-2.8647101e+000
-2.6660106e+000
-2.2361441e+000
-1.5794157e+000
-1.0092381e+000
-6.2067372e-001
-6.7927462e-001
-1.1414051e+000
-1.7170798e+000
-2.3061881e+000
-2.6963801e+000
-2.9365373e+000
-2.9224985e+000
-2.7628286e+000
-2.3515520e+000
-1.8127393e+000
-1.4179860e+000
-1.1223701e+000
-1.2199069e+000
-1.4909856e+000
-1.7031186e+000
-1.8220880e+000
-1.6347183e+000
-1.2874619e+000
-8.4643281e-001
-5.0368381e-001
-5.0573778e-001
-7.8207266e-001
-1.3411714e+000
-1.9447467e+000
-2.4497714e+000
-2.7566440e+000
-2.8366604e+000
-2.7475612e+000
-2.5408030e+000
-2.2402351e+000
-1.8766997e+000
-1.4389958e+000
-9.5466894e-001
-4.7416663e-001
-7.0414245e-003
3.3219796e-001
5.9023881e-001
5.8595467e-001
4.3135205e-001
1.7616697e-001
-1.1481429e-001
-2.6823664e-001
-2.9900971e-001
-5.2445717e-002
3.9266253e-001
1.0520363e+000
1.6837815e+000
1.9216640e+000
1.7916749e+000
1.2492181e+000
6.5159380e-001
2.9821339e-001
7.7352457e-002
-1.0674639e-001
-1.4210901e-001
1.0566384e-002
5.4221320e-001
1.4478513e+000
2.4340971e+000
3.3897250e+000
3.7664738e+000
3.6152511e+000
3.2827206e+000
2.8842764e+000
2.8365200e+000
3.0556002e+000
2.9793618e+000
2.6606593e+000
1.8055189e+000
6.5856528e-001
-1.0568035e-001
-4.4677120e-001
1.7293760e-001
1.5944858e+000
3.5982771e+000
5.5876260e+000
6.7484441e+000
7.3836002e+000
7.7962961e+000
8.5020657e+000
9.9449654e+000
1.2284850e+001
1.5548400e+001
1.9176325e+001
2.2833427e+001
2.5868639e+001
2.8109396e+001
3.0291071e+001
3.2647190e+001
3.5989979e+001
4.0284969e+001
4.4890064e+001
4.9636120e+001
5.3477390e+001
5.6547386e+001
5.9900017e+001
6.3545544e+001
6.7739441e+001
7.2276711e+001
7.6417496e+001
8.0234795e+001
8.3832832e+001
8.7279716e+001
9.0686142e+001
9.4052170e+001
9.7361549e+001
1.0035132e+002
1.0271869e+002
1.0355257e+002
1.0219035e+002
9.9380287e+001
9.5855019e+001
9.2226410e+001
8.8846230e+001
8.5169846e+001
8.1004959e+001
7.6550873e+001
7.1926735e+001
6.7588333e+001
6.3590183e+001
5.9534882e+001
5.5365112e+001
5.1136250e+001
4.6865742e+001
4.2688541e+001
3.8643929e+001
3.4953697e+001
3.1666569e+001
2.8897194e+001
2.6623878e+001
2.4694883e+001
2.3112120e+001
2.1821863e+001
2.0818195e+001
2.0042000e+001
1.9443794e+001
1.8935818e+001
1.8511168e+001
1.8156334e+001
1.7984636e+001
1.8057560e+001
1.8483549e+001
1.9288952e+001
2.0523378e+001
2.2182800e+001
2.3997066e+001
2.5884291e+001
2.7471342e+001
2.8686319e+001
2.9741808e+001
3.0669514e+001
3.2003490e+001
3.3867290e+001
3.6735374e+001
4.0518929e+001
4.3889050e+001
4.6679043e+001
4.8502815e+001
4.9595200e+001
5.0926037e+001
5.2551888e+001
5.4508377e+001
5.6164059e+001
5.6612267e+001
5.5770599e+001
5.3743824e+001
5.1341732e+001
4.9368122e+001
4.7906586e+001
4.7002251e+001
4.6369465e+001
4.5853218e+001
4.4801674e+001
4.2928658e+001
4.0577141e+001
3.7800613e+001
3.5298042e+001
3.3212666e+001
3.0843678e+001
2.8043957e+001
2.4961428e+001
2.1638140e+001
1.8870821e+001
1.6756920e+001
1.4855143e+001
1.3169953e+001
1.1536837e+001
9.9179821e+000
8.2193594e+000
6.3992395e+000
4.4157944e+000
2.5048602e+000
1.0144155e+000
1.2023044e-001
2.2967875e-002
6.3905460e-001
1.7971754e+000
2.9297850e+000
3.6401594e+000
4.0819345e+000
4.2687745e+000
4.6225066e+000
5.3609533e+000
6.2803211e+000
7.3862200e+000
8.0162268e+000
7.8971539e+000
7.4614763e+000
6.6250916e+000
5.8571215e+000
5.1950183e+000
4.6586351e+000
4.3081298e+000
4.1743293e+000
4.2596827e+000
4.3680120e+000
4.4069214e+000
4.1758871e+000
3.7511861e+000
3.3637278e+000
3.1406903e+000
3.2596245e+000
3.6176662e+000
4.0816875e+000
4.4496427e+000
4.4985819e+000
4.3934097e+000
4.1979575e+000
4.0910826e+000
4.2052722e+000
4.4945874e+000
5.0398102e+000
5.6829720e+000
6.4462538e+000
7.0805283e+000
7.4606357e+000
7.5843792e+000
7.3103018e+000
6.9349494e+000
6.4203300e+000
5.8963971e+000
5.3749290e+000
4.9227467e+000
4.5657568e+000
4.3046856e+000
4.1094637e+000
3.8782902e+000
3.6068530e+000
3.2975264e+000
2.9899828e+000
2.7276697e+000
2.4502332e+000
2.0791907e+000
1.6288780e+000
1.0958954e+000
6.0489833e-001
2.6273283e-001
3.9721865e-002
-1.5399639e-002
1.7467797e-002
2.2931840e-001
5.5164158e-001
1.0640806e+000
1.5102340e+000
1.7988544e+000
1.8604306e+000
1.5584998e+000
1.2373031e+000
9.2296243e-001
7.7629423e-001
8.7191081e-001
1.1414633e+000
1.6106960e+000
2.1508245e+000
2.7198200e+000
3.1705759e+000
3.4748890e+000
3.5823400e+000
3.5426409e+000
3.4173265e+000
3.2587228e+000
3.1316800e+000
3.0257666e+000
2.9517317e+000
2.8829999e+000
2.8105648e+000
2.7624269e+000
2.7865715e+000
2.8521640e+000
3.0020330e+000
3.1369500e+000
3.2224503e+000
3.2823536e+000
3.2913845e+000
3.3254757e+000
3.4077101e+000
3.5348415e+000
3.7321062e+000
3.9534354e+000
4.2111635e+000
4.4774575e+000
4.7592516e+000
5.0478301e+000
5.3396239e+000
5.6188059e+000
5.8883104e+000
6.1564488e+000
6.4439402e+000
6.8008566e+000
7.2073250e+000
7.6729288e+000
8.1403790e+000
8.5440159e+000
8.8915262e+000
9.1112404e+000
9.2764893e+000
9.3386765e+000
9.3606787e+000
9.2834530e+000
9.1569500e+000
8.8930244e+000
8.5724039e+000
8.1191397e+000
7.6429768e+000
7.1246486e+000
6.6123066e+000
6.1074667e+000
5.5968184e+000
5.0798407e+000
4.5691886e+000
4.0740523e+000
3.6153045e+000
3.1929793e+000
2.7900283e+000
2.3946643e+000
1.9745498e+000
1.5446205e+000
1.1325521e+000
7.5415576e-001
4.8346636e-001
2.7015197e-001
1.4838597e-001
7.4188069e-002
1.0720059e-001
1.9486000e-001
4.4324833e-001
6.9998264e-001
9.5195448e-001
1.1516428e+000
1.1933385e+000
1.2035997e+000
1.1384879e+000
1.0738372e+000
1.0081754e+000
9.3383086e-001
8.4266067e-001
7.3513317e-001
6.0373378e-001
4.5790780e-001
3.0064392e-001
1.6193984e-001
5.0915632e-002
4.0609455e-003
1.0210846e-002
7.5611979e-002
1.8584040e-001
3.6946434e-001
5.9117216e-001
8.6412609e-001
1.1462393e+000
1.4014282e+000
1.6477828e+000
1.8730760e+000
2.0965469e+000
2.3208058e+000
2.5397134e+000
2.7360017e+000
2.9318919e+000
3.1272252e+000
3.3296001e+000
3.5500581e+000
3.7771878e+000
4.0171404e+000
4.2554803e+000
4.4922571e+000
4.7359109e+000
4.9975281e+000
5.3279409e+000
5.7309365e+000
6.1792364e+000
6.6497102e+000
7.0370188e+000
7.3593903e+000
7.5739188e+000
7.7303643e+000
7.8185425e+000
7.8753815e+000
7.8644180e+000
7.8342233e+000
7.7704306e+000
7.7133121e+000
7.7366505e+000
7.7766967e+000
7.8980908e+000
7.9963260e+000
7.9909387e+000
7.9466023e+000
7.7793941e+000
7.6161909e+000
7.4635930e+000
7.3226304e+000
7.2003860e+000
7.0421414e+000
6.8289762e+000
6.5767002e+000
6.2794933e+000
5.9758177e+000
5.6643558e+000
5.3406029e+000
5.0116348e+000
4.7192941e+000
4.4552121e+000
4.2858462e+000
4.1522207e+000
4.0066113e+000
3.8418884e+000
3.5037920e+000
3.1270714e+000
2.6477120e+000
2.1697335e+000
1.8086145e+000
1.4642861e+000
1.2287223e+000
1.0064441e+000
8.4303004e-001
6.8731987e-001
5.5276906e-001
3.6456639e-001
5.2855998e-002
-2.8658301e-001
-6.6749358e-001
-9.2917919e-001
-1.0278801e+000
-1.0403006e+000
-9.6625829e-001
-9.3832749e-001
-9.4467199e-001
-9.1120392e-001
-8.4628594e-001
-6.3159752e-001
-3.4805939e-001
-3.4848452e-002
2.8359622e-001
5.0052732e-001
6.9235426e-001
7.9825968e-001
8.8544840e-001
7.6850092e-001
6.2972009e-001
2.9670817e-001
5.1460015e-003
1.5561143e-004
1.6027480e-002
3.7443680e-001
7.2041661e-001
1.0295464e+000
1.3364888e+000
1.6412414e+000
2.0412285e+000
2.5929713e+000
3.1462078e+000
3.6985135e+000
4.1274004e+000
4.4404035e+000
4.6556959e+000
4.8010731e+000
4.8605466e+000
4.8727398e+000
4.8265939e+000
4.7559910e+000
4.6848831e+000
4.6123133e+000
4.5920644e+000
4.5798073e+000
4.7248001e+000
