Image.
>Pix99999.
  .
5555
5555
2300
900
5555
2
1
0
701
5555
7.4441999e-002
7.5990789e-002
7.7538572e-002
7.9087354e-002
8.0636136e-002
8.2184918e-002
8.3733708e-002
8.5282490e-002
8.6831272e-002
8.8380061e-002
8.9927860e-002
9.1476627e-002
9.3025409e-002
9.4574198e-002
9.6122980e-002
9.7671762e-002
9.9220552e-002
1.0077226e-001
1.0232014e-001
1.0386793e-001
1.0541572e-001
1.0696350e-001
1.0851129e-001
1.1005907e-001
1.1160686e-001
1.1315464e-001
3.4860387e-002
1.2280372e-003
-4.5172799e-002
-9.7274557e-002
-1.5015921e-001
-2.3387598e-001
-3.1713244e-001
-3.4008291e-001
-3.5393137e-001
-3.1839499e-001
-2.9350612e-001
-3.2884812e-001
-3.8706541e-001
-5.0518125e-001
-6.0490686e-001
-6.5709364e-001
-6.6013098e-001
-5.8754152e-001
-4.9857834e-001
-3.9499813e-001
-3.2054365e-001
-2.7503279e-001
-2.7501535e-001
-3.0756611e-001
-3.4132072e-001
-3.7452969e-001
-3.5841718e-001
-3.2070723e-001
-2.8729495e-001
-2.5573421e-001
-2.7948919e-001
-3.1593168e-001
-3.3967826e-001
-3.6082578e-001
-3.3265713e-001
-3.0282030e-001
-3.0568123e-001
-3.1516439e-001
-3.4489712e-001
-3.5805979e-001
-3.0364406e-001
-2.4127077e-001
-1.7572755e-001
-1.3830185e-001
-1.5479100e-001
-1.7569926e-001
-1.9494542e-001
-2.2121969e-001
-2.5561827e-001
-3.1229645e-001
-3.8794965e-001
-4.3736559e-001
-4.6719447e-001
-4.7652772e-001
-4.7576115e-001
-4.8341244e-001
-4.9495482e-001
-5.1191604e-001
-5.3046602e-001
-5.9858525e-001
-6.7824739e-001
-7.5812584e-001
-8.3311558e-001
-8.1709599e-001
-7.8638572e-001
-7.4283242e-001
-7.0859587e-001
-7.2369933e-001
-7.6172280e-001
-8.4721017e-001
-9.6734381e-001
-1.1485938e+000
-1.3364220e+000
-1.5199903e+000
-1.6368428e+000
-1.6671462e+000
-1.6449257e+000
-1.5814264e+000
-1.5521280e+000
-1.5556850e+000
-1.5804902e+000
-1.6162984e+000
-1.6126971e+000
-1.5877821e+000
-1.5588044e+000
-1.5292096e+000
-1.5155120e+000
-1.5070914e+000
-1.4936614e+000
-1.4801850e+000
-1.5168778e+000
-1.5639108e+000
-1.6133714e+000
-1.6464510e+000
-1.5864571e+000
-1.5025275e+000
-1.3999439e+000
-1.3108411e+000
-1.2670000e+000
-1.2381285e+000
-1.2214739e+000
-1.2138249e+000
-1.2153965e+000
-1.2353324e+000
-1.2743071e+000
-1.3082926e+000
-1.3341800e+000
-1.3282700e+000
-1.2990363e+000
-1.2504864e+000
-1.1924599e+000
-1.1381924e+000
-1.0870149e+000
-1.0715503e+000
-1.0706000e+000
-1.1345857e+000
-1.2193340e+000
-1.3563958e+000
-1.5060841e+000
-1.6456008e+000
-1.7730869e+000
-1.8360931e+000
-1.8653777e+000
-1.8227417e+000
-1.7500072e+000
-1.6430366e+000
-1.5507742e+000
-1.5081882e+000
-1.5008759e+000
-1.5306749e+000
-1.5446401e+000
-1.5242473e+000
-1.5034208e+000
-1.4923989e+000
-1.4883943e+000
-1.4897250e+000
-1.3892329e+000
-1.2106647e+000
-1.0322666e+000
-8.6300176e-001
-9.3714726e-001
-1.1381131e+000
-1.4166319e+000
-1.7216125e+000
-1.8692671e+000
-1.9560533e+000
-1.9494212e+000
-1.9122926e+000
-1.8748214e+000
-1.8478000e+000
-1.8746874e+000
-1.9285860e+000
-2.0085738e+000
-2.0815859e+000
-2.1129658e+000
-2.1098666e+000
-2.0661781e+000
-1.9847376e+000
-1.8651714e+000
-1.6628157e+000
-1.3683832e+000
-9.9902165e-001
-5.7280701e-001
-2.9060531e-001
-1.4726886e-001
-1.9601125e-001
-3.6795032e-001
-5.8023959e-001
-8.0440938e-001
-1.0723771e+000
-1.3627040e+000
-1.5620708e+000
-1.7167189e+000
-1.6028585e+000
-1.3780285e+000
-1.0849142e+000
-7.9880577e-001
-7.3400700e-001
-8.0118859e-001
-1.0654348e+000
-1.3944628e+000
-1.6955584e+000
-1.9433571e+000
-2.0935566e+000
-2.1476500e+000
-2.0928190e+000
-1.9095794e+000
-1.5907167e+000
-1.2840005e+000
-1.0379429e+000
-1.0287681e+000
-1.2445700e+000
-1.5770168e+000
-1.9647130e+000
-2.2592285e+000
-2.4749258e+000
-2.4670000e+000
-2.3221502e+000
-2.0171759e+000
-1.6336929e+000
-1.4962791e+000
-1.5005006e+000
-1.7796669e+000
-2.1668091e+000
-2.3944700e+000
-2.4960189e+000
-2.3422909e+000
-2.0508885e+000
-1.6692345e+000
-1.3337642e+000
-1.2131280e+000
-1.2846109e+000
-1.5771400e+000
-1.9078522e+000
-2.1632485e+000
-2.2716038e+000
-2.2110412e+000
-2.0724144e+000
-1.9056441e+000
-1.7448200e+000
-1.5983894e+000
-1.4332321e+000
-1.2504971e+000
-1.0452539e+000
-8.2606858e-001
-6.3010758e-001
-4.4843921e-001
-3.9058068e-001
-4.0529642e-001
-4.6701756e-001
-5.4437584e-001
-5.4622298e-001
-4.8256180e-001
-2.7699432e-001
3.4838572e-002
4.7631961e-001
9.0578282e-001
1.1076459e+000
1.0816600e+000
7.7849865e-001
4.1390002e-001
1.6869701e-001
3.8954843e-002
-1.8113780e-001
-3.7656188e-001
-4.2532751e-001
-1.0810978e-001
5.8943987e-001
1.4366832e+000
2.3221679e+000
2.7247531e+000
2.6658506e+000
2.4117801e+000
2.0707538e+000
2.0220199e+000
2.2029355e+000
2.1921940e+000
2.0160272e+000
1.4062926e+000
5.5067724e-001
-4.0099025e-002
-3.2595509e-001
1.3384211e-001
1.2530711e+000
2.9478970e+000
4.7249203e+000
5.9081593e+000
6.6672807e+000
7.1664743e+000
7.8594933e+000
9.1505346e+000
1.1245087e+001
1.4209054e+001
1.7704908e+001
2.1476286e+001
2.4840879e+001
2.7572721e+001
3.0098932e+001
3.2595497e+001
3.5904366e+001
4.0040783e+001
4.4707302e+001
4.9729561e+001
5.3884487e+001
5.7272213e+001
6.0740234e+001
6.4358116e+001
6.8662743e+001
7.3450661e+001
7.8045845e+001
8.2427475e+001
8.6460876e+001
9.0185677e+001
9.3648140e+001
9.6856026e+001
9.9817291e+001
1.0235201e+002
1.0428249e+002
1.0492257e+002
1.0376929e+002
1.0134332e+002
9.8188446e+001
9.4696465e+001
9.1134590e+001
8.7064369e+001
8.2369019e+001
7.7503395e+001
7.2651115e+001
6.8188354e+001
6.4141975e+001
6.0052158e+001
5.5851112e+001
5.1647518e+001
4.7456577e+001
4.3375057e+001
3.9433727e+001
3.5818783e+001
3.2575439e+001
2.9821651e+001
2.7535736e+001
2.5571093e+001
2.3928324e+001
2.2553074e+001
2.1459082e+001
2.0620501e+001
2.0010265e+001
1.9561537e+001
1.9240696e+001
1.8999660e+001
1.8903900e+001
1.8985205e+001
1.9335911e+001
1.9984009e+001
2.1025053e+001
2.2477257e+001
2.4162306e+001
2.6017567e+001
2.7630522e+001
2.8915440e+001
2.9956556e+001
3.0769871e+001
3.1882931e+001
3.3427788e+001
3.6083672e+001
3.9828484e+001
4.3504158e+001
4.6889412e+001
4.9220684e+001
5.0647449e+001
5.2007572e+001
5.3308029e+001
5.4593170e+001
5.5461761e+001
5.5379719e+001
5.4411884e+001
5.2794079e+001
5.0974522e+001
4.9401302e+001
4.8071087e+001
4.6971649e+001
4.5866676e+001
4.4618717e+001
4.2881096e+001
4.0487736e+001
3.7974514e+001
3.5499527e+001
3.3305840e+001
3.1464678e+001
2.9154865e+001
2.6186115e+001
2.2986198e+001
1.9605795e+001
1.6857121e+001
1.4841620e+001
1.3021143e+001
1.1399873e+001
9.8139076e+000
8.2468653e+000
6.6485105e+000
5.0117483e+000
3.3356998e+000
1.7992368e+000
6.5557569e-001
1.9686013e-002
1.6052276e-002
5.9678549e-001
1.6216274e+000
2.6576819e+000
3.4040089e+000
3.9281819e+000
4.2178345e+000
4.5653162e+000
5.1107845e+000
5.7716289e+000
6.5639801e+000
7.0844522e+000
7.1676693e+000
6.9788103e+000
6.4189496e+000
5.8046250e+000
5.1283841e+000
4.5291824e+000
4.0541310e+000
3.7556040e+000
3.6360998e+000
3.5164247e+000
3.3457794e+000
3.0229044e+000
2.6204541e+000
2.3269801e+000
2.2207201e+000
2.3916504e+000
2.7636869e+000
3.2300215e+000
3.6533599e+000
3.8823261e+000
3.9987381e+000
4.0255899e+000
4.0774779e+000
4.2294369e+000
4.4733982e+000
4.8583388e+000
5.2992244e+000
5.8093944e+000
6.2271714e+000
6.4624348e+000
6.5065413e+000
6.2460651e+000
5.8995128e+000
5.4347649e+000
4.9769502e+000
4.5428014e+000
4.1781635e+000
3.9012024e+000
3.6790485e+000
3.4938655e+000
3.2822580e+000
3.0491555e+000
2.8136816e+000
2.5837948e+000
2.3578508e+000
2.0998867e+000
1.7594229e+000
1.3684859e+000
9.5068759e-001
5.6758624e-001
2.7891755e-001
6.8416074e-002
-3.9453141e-002
-8.7393776e-002
2.9229678e-002
2.4287826e-001
6.2392592e-001
9.5104265e-001
1.1472600e+000
1.1688802e+000
9.0464675e-001
6.4609861e-001
4.2846206e-001
3.7101629e-001
5.4716325e-001
8.6766523e-001
1.3459189e+000
1.8351225e+000
2.2933002e+000
2.6141107e+000
2.7885125e+000
2.8296688e+000
2.7697825e+000
2.6539893e+000
2.5174401e+000
2.4055271e+000
2.3320441e+000
2.3427658e+000
2.3813858e+000
2.4266772e+000
2.4590626e+000
2.4548295e+000
2.4608281e+000
2.5091400e+000
2.5707755e+000
2.6613765e+000
2.7460859e+000
2.8210471e+000
2.9146371e+000
3.0423691e+000
3.1842356e+000
3.3426042e+000
3.4837656e+000
3.6073029e+000
3.7478566e+000
3.9245050e+000
4.1639061e+000
4.4676566e+000
4.7951226e+000
5.1388593e+000
5.4754009e+000
5.8206224e+000
6.2113900e+000
6.6378250e+000
7.1127200e+000
7.5799341e+000
7.9624572e+000
8.2680531e+000
8.3970299e+000
8.4696865e+000
8.4630919e+000
8.4517279e+000
8.4481926e+000
8.4149094e+000
8.2904301e+000
8.0927114e+000
7.7208881e+000
7.3056908e+000
6.8103657e+000
6.3290915e+000
5.8701229e+000
5.4137864e+000
4.9567447e+000
4.4788752e+000
3.9760981e+000
3.4592571e+000
2.9307959e+000
2.4057088e+000
1.8982786e+000
1.4583889e+000
1.0777900e+000
7.8579402e-001
5.4402769e-001
3.4975693e-001
1.8781543e-001
9.4985083e-002
4.1793194e-002
8.5215211e-002
1.4553000e-001
2.1983279e-001
2.7129942e-001
2.3240241e-001
1.8469246e-001
1.1603403e-001
9.0562619e-002
1.7210950e-001
2.8140998e-001
4.3730825e-001
5.4843640e-001
5.8207411e-001
5.7143104e-001
5.0207001e-001
4.1994059e-001
3.2345214e-001
2.1980171e-001
1.1661819e-001
4.6637140e-002
1.1285149e-002
4.4501424e-002
1.3198616e-001
3.3208749e-001
6.0294950e-001
1.0186490e+000
1.4836578e+000
1.9993651e+000
2.4961681e+000
2.8460040e+000
3.1495032e+000
3.2784615e+000
3.4132271e+000
3.5867600e+000
3.7951932e+000
4.1125484e+000
4.4291253e+000
4.7386622e+000
5.0011559e+000
5.1700330e+000
5.3083887e+000
5.4103713e+000
5.5872459e+000
5.8662100e+000
6.2304139e+000
6.6720085e+000
7.0810227e+000
7.4561820e+000
7.7669835e+000
8.0247631e+000
8.1769629e+000
8.2548618e+000
8.1406345e+000
7.9573097e+000
7.7247367e+000
7.5113525e+000
7.5140281e+000
7.5764241e+000
7.8724833e+000
8.1671638e+000
8.3766489e+000
8.5285196e+000
8.4304466e+000
8.3385544e+000
8.2736988e+000
8.3014364e+000
8.5502644e+000
8.8106327e+000
9.0779438e+000
9.1966105e+000
9.0891466e+000
8.8461905e+000
8.4493055e+000
8.0387697e+000
7.6138210e+000
7.1669831e+000
6.7063074e+000
6.2586432e+000
5.8305640e+000
5.5355973e+000
5.2993574e+000
5.1415567e+000
4.9964170e+000
4.7594452e+000
4.4889927e+000
4.0152960e+000
3.5185692e+000
2.9510622e+000
2.4107790e+000
2.0614715e+000
1.7461547e+000
1.5784714e+000
1.3901390e+000
1.1364564e+000
8.5449421e-001
5.1073658e-001
2.0813788e-001
-1.9136295e-002
-1.7025802e-001
-2.1722999e-001
-2.1026757e-001
-1.4734384e-001
-7.9000667e-002
-5.7424605e-003
7.7513166e-002
1.7055093e-001
3.3934799e-001
5.4287785e-001
7.5953984e-001
9.7379798e-001
1.0433271e+000
1.0738821e+000
9.1637957e-001
7.3369879e-001
4.8830849e-001
2.4809763e-001
1.1755253e-001
3.0333085e-003
-4.5034010e-004
-1.1698909e-002
5.4102018e-002
1.9161916e-001
5.4095197e-001
9.7785801e-001
1.5986159e+000
2.1176622e+000
2.4694328e+000
2.5958540e+000
2.4483335e+000
2.2777033e+000
2.0872245e+000
1.9944586e+000
1.9701852e+000
1.9144646e+000
1.8423511e+000
1.8577098e+000
1.9083378e+000
2.3615932e+000
2.9202979e+000
3.6421394e+000
4.3893051e+000
4.7424002e+000
