##TITLE=Methyl Ethyl Ketone
##JCAMP-DX=4.24
##DATA TYPE=INFRARED SPECTRUM
##XUNITS=cm-1
##YUNITS=Absorbance
##FIRSTX=900
##LASTX=2300
##XYDATA=(X++(Y..Y))
2296 -0.0055979998
2294 -0.0057144333
2292 -0.0058309664
2290 -0.0059473007
2288 -0.0060637337
2286 -0.0061802664
2284 -0.0062967008
2282 -0.006413233
2280 -0.0065296674
2278 -0.0066461009
2276 -0.0067625344
2274 -0.0068790661
2272 -0.006995501
2270 -0.0071119345
2268 -0.007228368
2266 -0.0073448014
2264 -0.0074613327
2262 -0.0075777685
2260 -0.0076942993
2258 -0.0078107351
2256 -0.0079271691
2254 -0.0080436021
2252 -0.0081600351
2250 -0.0082764681
2248 -0.0083929989
2246 -0.0085094357
2244 -0.0003162194
2242 0.047649361
2240 0.10964644
2238 0.12538788
2236 0.13427758
2234 0.087326854
2232 0.036360458
2230 -0.01468034
2228 -0.059548452
2226 -0.054907352
2224 -0.04338811
2222 -0.011724764
2220 0.017519802
2218 0.036233064
2216 0.053236742
2214 0.067790814
2212 0.069322199
2210 0.04981368
2208 0.013856903
2206 -0.041005615
2204 -0.076697432
2202 -0.092789203
2200 -0.0697942
2198 -0.018562231
2196 0.034805216
2194 0.088347599
2192 0.090515576
2190 0.070165575
2188 0.0089833159
2186 -0.06499967
2184 -0.097790316
2182 -0.12092645
2180 -0.078310587
2178 -0.026104536
2176 0.014289857
2174 0.050365932
2172 0.050147615
2170 0.044920832
2168 0.030833777
2166 0.015571199
2164 -0.00072400598
2162 -0.0097016403
2160 0.00029825373
2158 0.018623082
2156 0.049007501
2154 0.063079163
2152 0.051715013
2150 0.022102576
2148 -0.025058705
2146 -0.066820107
2144 -0.10216029
2142 -0.13782761
2140 -0.17413177
2138 -0.21477577
2136 -0.25779027
2134 -0.27695933
2132 -0.28612122
2130 -0.26802471
2128 -0.24155919
2126 -0.21906807
2124 -0.19759528
2122 -0.19675522
2120 -0.19962412
2118 -0.21123368
2116 -0.22397201
2114 -0.236224
2112 -0.2499005
2110 -0.27056432
2108 -0.29291126
2106 -0.31717414
2104 -0.33554959
2102 -0.34016249
2100 -0.33945361
2098 -0.33313262
2096 -0.3367143
2094 -0.35416642
2092 -0.38339451
2090 -0.42271364
2088 -0.45466304
2086 -0.4796325
2084 -0.50564229
2082 -0.53309739
2080 -0.58145094
2078 -0.64052862
2076 -0.68298841
2074 -0.71793526
2072 -0.70705557
2070 -0.68150985
2068 -0.64691055
2066 -0.61095101
2064 -0.62228471
2062 -0.64728928
2060 -0.72264892
2058 -0.80486929
2056 -0.8703717
2054 -0.91534334
2052 -0.89706153
2050 -0.85254467
2048 -0.77101511
2046 -0.69704539
2044 -0.65108979
2042 -0.64678413
2040 -0.6987257
2038 -0.77037525
2036 -0.85452789
2034 -0.91240895
2032 -0.94230759
2030 -0.94727111
2028 -0.93553293
2026 -0.93315166
2024 -0.9378345
2022 -0.95470399
2020 -0.97694147
2018 -0.9935776
2016 -1.008196
2014 -1.0251548
2012 -1.0440052
2010 -1.0753521
2008 -1.1112326
2006 -1.1598493
2004 -1.2136538
2002 -1.277693
2000 -1.3405914
1998 -1.3825095
1996 -1.4008286
1994 -1.3606427
1992 -1.289068
1990 -1.1842767
1988 -1.093222
1986 -1.0463158
1984 -1.045372
1982 -1.0937102
1980 -1.1485243
1978 -1.1954559
1976 -1.2084771
1974 -1.190204
1972 -1.1467632
1970 -1.0878372
1968 -1.0495863
1966 -1.0265558
1964 -1.0554945
1962 -1.1120664
1960 -1.173012
1958 -1.234959
1956 -1.2655971
1954 -1.2854875
1952 -1.3000304
1950 -1.3144928
1948 -1.3233848
1946 -1.32585
1944 -1.3073857
1942 -1.2752489
1940 -1.2361494
1938 -1.1993779
1936 -1.1786371
1934 -1.1743776
1932 -1.187398
1930 -1.2194749
1928 -1.2677525
1926 -1.3130621
1924 -1.3447397
1922 -1.3228589
1920 -1.2505406
1918 -1.148038
1916 -1.0356615
1914 -0.96197855
1912 -0.91890615
1910 -0.91358173
1908 -0.9269045
1906 -0.96580595
1904 -1.0182045
1902 -1.0686818
1900 -1.1194328
1898 -1.1035821
1896 -1.0582857
1894 -0.95386124
1892 -0.83086085
1890 -0.74693388
1888 -0.69561696
1886 -0.73005909
1884 -0.80384475
1882 -0.90242535
1880 -1.0021346
1878 -1.0787076
1876 -1.13571
1874 -1.1606212
1872 -1.1539338
1870 -1.1094356
1868 -1.03368
1866 -0.94640499
1864 -0.87743449
1862 -0.84271473
1860 -0.83989751
1858 -0.85315537
1856 -0.87278283
1854 -0.889229
1852 -0.9129588
1850 -0.93702137
1848 -0.95933199
1846 -0.97472429
1844 -0.96939057
1842 -0.94882017
1840 -0.92244297
1838 -0.89644688
1836 -0.86231655
1834 -0.8252787
1832 -0.75933629
1830 -0.67316425
1828 -0.57098043
1826 -0.46861637
1824 -0.40957776
1822 -0.393345
1820 -0.4283534
1818 -0.49023786
1816 -0.55081201
1814 -0.60609019
1812 -0.64834785
1810 -0.66965437
1808 -0.6740399
1806 -0.64191002
1804 -0.57810956
1802 -0.52882218
1800 -0.49518919
1798 -0.49956036
1796 -0.52993786
1794 -0.49542022
1792 -0.41856039
1790 -0.27891964
1788 -0.11164057
1786 0.0014075432
1784 0.073463261
1782 0.090400897
1780 0.073655933
1778 0.05940403
1776 0.059273001
1774 0.11618452
1772 0.20683892
1770 0.28110734
1768 0.31970891
1766 0.27390242
1764 0.1816386
1762 0.091521494
1760 0.022284582
1758 -0.10555806
1756 -0.24519728
1754 -0.33464289
1752 -0.35425326
1750 -0.30222261
1748 -0.22607635
1746 -0.15307108
1744 -0.14181492
1742 -0.20191447
1740 -0.26870605
1738 -0.32424575
1736 -0.26196998
1734 -0.1014082
1732 0.062164545
1730 0.21051821
1728 0.19409269
1726 0.060619574
1724 -0.044921152
1722 -0.10523112
1720 0.017660163
1718 0.3118172
1716 0.82022929
1714 1.4547148
1712 2.0423613
1710 2.5797966
1708 3.088676
1706 3.7240808
1704 4.6518812
1702 6.1366587
1700 8.3059063
1698 11.361216
1696 15.240428
1694 19.185301
1692 22.851055
1690 26.126352
1688 29.083046
1686 32.604607
1684 36.7771
1682 41.865879
1680 47.673882
1678 52.899872
1676 57.553558
1674 62.1385
1672 66.765381
1670 72.138519
1668 78.035744
1666 83.655197
1664 88.910721
1662 93.481773
1660 97.459915
1658 101.02068
1656 104.202
1654 107.09351
1652 109.3436
1650 110.54007
1648 110.00205
1646 107.19607
1644 103.19408
1642 98.988182
1640 94.716179
1638 90.493942
1636 85.773071
1634 80.368309
1632 74.961205
1630 69.775452
1628 65.010788
1626 60.665241
1624 56.2812
1622 51.797096
1620 47.483166
1618 43.354931
1616 39.547516
1614 36.072414
1612 33.025745
1610 30.41917
1608 28.250366
1606 26.503016
1604 25.044868
1602 23.880344
1600 22.963348
1598 22.287642
1596 21.808001
1594 21.516319
1592 21.3692
1590 21.35829
1588 21.454672
1586 21.638401
1584 21.890093
1582 22.186371
1580 22.517
1578 22.952236
1576 23.515371
1574 24.271544
1572 25.22065
1570 26.253757
1568 27.339319
1566 28.410286
1564 29.466385
1562 30.74822
1560 32.361183
1558 34.918148
1556 38.503914
1554 42.47464
1552 46.590706
1550 49.833458
1548 52.209995
1546 54.226215
1544 55.876633
1542 57.265175
1540 58.216259
1538 58.456116
1536 57.962143
1534 56.835251
1532 55.295052
1530 53.683033
1528 52.007576
1526 50.277248
1524 48.396252
1522 46.286701
1520 44.010601
1518 41.549736
1516 39.213345
1514 37.121387
1512 35.108479
1510 33.188766
1508 30.763168
1506 27.673208
1504 24.49803
1502 21.2705
1500 18.560741
1498 16.43111
1496 14.370714
1494 12.38186
1492 10.371396
1490 8.3658476
1488 6.414556
1486 4.5849552
1484 2.978302
1482 1.6614745
1480 0.71349895
1478 0.16388512
1476 0.038228616
1474 0.43463171
1472 1.3000948
1470 2.3341389
1468 3.32652
1466 4.1388812
1464 4.6928744
1462 5.1895266
1460 5.7176504
1458 6.2828231
1456 6.8867397
1454 7.3135977
1452 7.4306307
1450 7.3801088
1448 7.0947261
1446 6.8102999
1444 6.5330825
1442 6.272531
1440 6.0312614
1438 5.7501664
1436 5.4096298
1434 4.9473586
1432 4.3703008
1430 3.7671909
1428 3.1753778
1426 2.715245
1424 2.4023497
1422 2.2424085
1420 2.228395
1418 2.3178864
1416 2.4738228
1414 2.6513889
1412 2.8234265
1410 2.9995437
1408 3.2005098
1406 3.4592292
1404 3.7765052
1402 4.164557
1400 4.5841842
1398 5.034224
1396 5.4728928
1394 5.8745093
1392 6.216989
1390 6.4284368
1388 6.5308876
1386 6.4494052
1384 6.2386937
1382 5.8474607
1380 5.3700829
1378 4.8002124
1376 4.2178459
1374 3.6580472
1372 3.1701102
1370 2.7675653
1368 2.4492738
1366 2.161593
1364 1.8252234
1362 1.4401077
1360 0.98916578
1358 0.55739582
1356 0.2445741
1354 0.037435066
1352 -0.0034948902
1350 0.037347987
1348 0.15870082
1346 0.31246644
1344 0.50833356
1342 0.72439611
1340 0.97896808
1338 1.2333138
1336 1.4751314
1334 1.698589
1332 1.8587812
1330 2.009367
1328 2.1460147
1326 2.3049955
1324 2.5167894
1322 2.7752929
1320 3.1057999
1318 3.4704018
1316 3.8640201
1314 4.2310681
1312 4.5495143
1310 4.8015881
1308 4.9823585
1306 5.1078043
1304 5.1848416
1302 5.2125158
1300 5.2082419
1298 5.1641378
1296 5.1067429
1294 5.0392399
1292 4.9729061
1290 4.9115267
1288 4.8523202
1286 4.7946281
1284 4.7404709
1282 4.6913314
1280 4.6503625
1278 4.6272883
1276 4.6192498
1274 4.6462803
1272 4.6927199
1270 4.7755895
1268 4.8695393
1266 4.9769001
1264 5.0893707
1262 5.2058296
1260 5.3314137
1258 5.4653039
1256 5.5997629
1254 5.7313275
1252 5.8515601
1250 5.9620457
1248 6.0644932
1246 6.1586251
1244 6.232903
1242 6.2889924
1240 6.3054781
1238 6.2981138
1236 6.2493329
1234 6.1709962
1232 6.0235238
1230 5.8303638
1228 5.5120544
1226 5.1522856
1224 4.6839232
1222 4.2029538
1220 3.6922104
1218 3.185838
1216 2.6898715
1214 2.2113585
1212 1.7693769
1210 1.3734727
1208 1.0467591
1206 0.76549184
1204 0.53762436
1202 0.33399445
1200 0.15950882
1198 0.019026928
1196 -0.087965786
1194 -0.15715031
1192 -0.20049605
1190 -0.2253949
1188 -0.23547438
1186 -0.21826494
1184 -0.17820606
1182 -0.081370525
1180 0.048078954
1178 0.25974253
1176 0.50284803
1174 0.82885849
1172 1.156383
1170 1.467447
1168 1.7411858
1166 1.8973508
1164 2.0188656
1162 2.055017
1160 2.0698349
1158 2.0380642
1156 1.9659101
1154 1.8228576
1152 1.6296422
1150 1.3695261
1148 1.0879817
1146 0.78980285
1144 0.5215469
1142 0.29061329
1140 0.13067161
1138 0.033403911
1136 0.022262884
1134 0.071295246
1132 0.20443159
1130 0.3755191
1128 0.57802391
1126 0.77938753
1124 0.93109602
1122 1.0624776
1120 1.132404
1118 1.195491
1116 1.25244
1114 1.3173846
1112 1.4161052
1110 1.515515
1108 1.6152952
1106 1.69959
1104 1.7447715
1102 1.7784657
1100 1.7901134
1098 1.7991359
1096 1.8052715
1094 1.8191528
1092 1.845536
1090 1.8966651
1088 1.970508
1086 2.0383179
1084 2.0936699
1082 2.0920899
1080 2.0534308
1078 1.986452
1076 1.9079943
1074 1.836789
1072 1.7610257
1070 1.6381582
1068 1.4995352
1066 1.32524
1064 1.157408
1062 1.071655
1060 0.99896628
1058 0.98375118
1056 0.96092314
1054 0.90525812
1052 0.85378909
1050 0.81780869
1048 0.80176312
1046 0.83228928
1044 0.85644108
1042 0.86496383
1040 0.84057808
1038 0.76558125
1036 0.659895
1034 0.51969814
1032 0.37607771
1030 0.23281157
1028 0.11725275
1026 0.020869575
1024 -0.075900577
1022 -0.177194
1020 -0.32122177
1018 -0.48124313
1016 -0.63301575
1014 -0.77605677
1012 -0.84753507
1010 -0.90382832
1008 -0.92673564
1006 -0.94824702
1004 -0.98708266
1002 -1.0288488
1000 -1.090436
998 -1.1572936
996 -1.2472857
994 -1.3309641
992 -1.3946172
990 -1.4347339
988 -1.4214975
986 -1.4024972
984 -1.3728828
982 -1.3423036
980 -1.308776
978 -1.2573059
976 -1.1884142
974 -1.1352268
972 -1.0965751
970 -1.0955154
968 -1.1156491
966 -1.1181099
964 -1.1096857
962 -1.0489596
960 -0.97098505
958 -0.87481761
956 -0.77425647
954 -0.65478271
952 -0.53141081
950 -0.36688334
948 -0.20249075
946 -0.065291785
944 0.00071005709
942 0.022665296
940 0.0849154
938 0.2348673
936 0.41077685
934 0.66225791
932 0.88537192
930 1.0465848
928 1.1422057
926 1.1330193
924 1.091176
922 1.0102868
920 0.93983984
918 0.87893248
916 0.8347733
914 0.80306566
912 0.84200335
910 0.92046392
908 1.1259978
906 1.3815886
904 1.5756269
902 1.7540625
900 1.6986351
898 1.6060587
896 1.5073
