Image.
>Pix99999.
  .
5555
5555
2300
900
5555
2
1
0
701
5555
-4.9099000e-003
-5.0120540e-003
-5.1141079e-003
-5.2163615e-003
-5.3184163e-003
-5.4205693e-003
-5.5228220e-003
-5.6249769e-003
-5.7270322e-003
-5.8291843e-003
-5.9313388e-003
-6.0333940e-003
-6.1356444e-003
-6.2378002e-003
-6.3399537e-003
-6.4420099e-003
-6.5442594e-003
-6.6464157e-003
-6.7485697e-003
-6.8506259e-003
-6.9527770e-003
-7.0549310e-003
-7.1569877e-003
-7.2591389e-003
-7.3612928e-003
-7.4634464e-003
-2.7734943e-004
5.3008366e-002
1.1039740e-001
1.7769115e-001
2.4646629e-001
2.4653374e-001
2.3921423e-001
1.7747740e-001
1.1528017e-001
7.0417248e-002
3.4439217e-002
3.5211693e-002
4.2330697e-002
6.2873557e-002
8.1294604e-002
9.3423381e-002
9.2510298e-002
7.0907205e-002
4.4913121e-002
1.5024143e-002
-1.3804247e-003
-4.5764879e-003
-8.4790401e-003
-1.3571456e-002
-2.5005357e-002
-4.0030230e-002
-4.0069245e-002
-3.3414103e-002
-2.7689117e-003
3.5525210e-002
6.7886285e-002
9.8768331e-002
8.7964922e-002
7.0893593e-002
4.9392771e-002
2.8678106e-002
2.1405960e-002
1.0815041e-002
-2.6006769e-002
-6.9855578e-002
-1.2993455e-001
-1.8434727e-001
-2.2011492e-001
-2.3938331e-001
-2.3103200e-001
-2.1506560e-001
-1.9220845e-001
-1.8316068e-001
-1.9047435e-001
-2.0012642e-001
-2.1031606e-001
-2.0903590e-001
-1.9971211e-001
-2.0810790e-001
-2.2662686e-001
-2.4856189e-001
-2.7162230e-001
-2.5315046e-001
-2.2143599e-001
-1.9492072e-001
-1.6981003e-001
-2.0393911e-001
-2.4799456e-001
-3.0184773e-001
-3.5407230e-001
-3.8422999e-001
-4.1002753e-001
-4.3095964e-001
-4.4277462e-001
-4.2917737e-001
-3.9525670e-001
-3.2461637e-001
-2.5997460e-001
-2.1444032e-001
-2.0317000e-001
-2.3290034e-001
-2.7253896e-001
-3.1626126e-001
-3.4416938e-001
-3.5878000e-001
-3.5624501e-001
-3.4368318e-001
-3.2990608e-001
-3.1605288e-001
-3.2164428e-001
-3.3526546e-001
-3.6251640e-001
-3.9382756e-001
-4.3275222e-001
-4.7307616e-001
-5.0939393e-001
-5.4253274e-001
-5.5470133e-001
-5.6254232e-001
-5.6936342e-001
-5.7865560e-001
-5.9642839e-001
-6.1235738e-001
-6.1800051e-001
-6.1659467e-001
-6.0477662e-001
-5.9077907e-001
-5.7762349e-001
-5.6449890e-001
-5.5248588e-001
-5.4717052e-001
-5.4792678e-001
-5.6412166e-001
-5.9087616e-001
-6.0760581e-001
-6.1627841e-001
-5.9518391e-001
-5.5891043e-001
-5.3141850e-001
-5.0897598e-001
-5.1091671e-001
-5.2174890e-001
-5.2576303e-001
-5.2721465e-001
-5.1200342e-001
-4.9282789e-001
-4.7299260e-001
-4.5892286e-001
-4.6684346e-001
-4.9072570e-001
-5.4373676e-001
-6.0141766e-001
-6.5682763e-001
-6.8684679e-001
-6.7813933e-001
-6.4921933e-001
-6.0482347e-001
-5.7633656e-001
-5.6786990e-001
-5.6724715e-001
-5.6875908e-001
-5.3136629e-001
-4.6304268e-001
-3.7729749e-001
-2.8427020e-001
-2.5014707e-001
-2.4893226e-001
-2.8921482e-001
-3.4624848e-001
-4.0148228e-001
-4.5598000e-001
-5.0641316e-001
-5.5462712e-001
-5.7803196e-001
-5.8984500e-001
-5.8471733e-001
-5.7488263e-001
-5.8126926e-001
-5.9714872e-001
-6.2809741e-001
-6.5924853e-001
-6.7674458e-001
-6.8175834e-001
-6.6800201e-001
-6.4276350e-001
-6.0620999e-001
-5.6140488e-001
-5.1359737e-001
-4.7882220e-001
-4.6141243e-001
-4.6311453e-001
-4.7606909e-001
-5.1005608e-001
-5.5473369e-001
-6.2624872e-001
-7.1239084e-001
-7.7025360e-001
-8.1555730e-001
-7.8875679e-001
-7.3200715e-001
-6.4025527e-001
-5.3925800e-001
-4.7485149e-001
-4.4150120e-001
-4.8910978e-001
-5.7807487e-001
-7.0295936e-001
-8.2781440e-001
-9.1857851e-001
-9.7383797e-001
-9.7705925e-001
-9.4010711e-001
-8.6367792e-001
-7.7533674e-001
-6.9739026e-001
-6.6989923e-001
-7.0142961e-001
-7.7520871e-001
-8.6961287e-001
-9.6160346e-001
-1.0440007e+000
-1.1029015e+000
-1.1434722e+000
-1.1423160e+000
-1.1138393e+000
-1.0883706e+000
-1.0638666e+000
-1.0909001e+000
-1.1435269e+000
-1.1807414e+000
-1.2036990e+000
-1.1638680e+000
-1.0822581e+000
-9.5942718e-001
-8.2690656e-001
-7.3576206e-001
-6.9232106e-001
-7.1262962e-001
-7.6415706e-001
-8.1635427e-001
-8.5530156e-001
-8.7007040e-001
-8.6551547e-001
-8.4985662e-001
-8.1962049e-001
-7.7864414e-001
-7.5113845e-001
-7.3442626e-001
-7.2978628e-001
-7.3158145e-001
-6.7513305e-001
-5.8196038e-001
-4.5795119e-001
-3.2415381e-001
-2.3752378e-001
-1.8318424e-001
-1.4528471e-001
-1.1588746e-001
-6.4304873e-002
2.1472294e-003
8.3468616e-002
1.6314900e-001
1.8984109e-001
1.8058737e-001
1.3335250e-001
7.9554498e-002
6.1043836e-002
2.3085138e-002
-6.3006043e-002
-1.2770000e-001
-1.3506225e-001
-5.5303283e-002
1.1246579e-001
2.7210313e-001
3.8979572e-001
3.7248045e-001
2.2662237e-001
8.3147503e-002
-3.2171451e-002
2.6955977e-003
1.5676376e-001
2.8037119e-001
3.6459273e-001
2.7666754e-001
7.3696949e-002
-6.8280920e-002
-1.3441959e-001
2.4470910e-002
3.8184899e-001
9.5992732e-001
1.6460749e+000
2.2379868e+000
2.7633684e+000
3.2742641e+000
3.9419200e+000
4.9407349e+000
6.5346837e+000
8.8479280e+000
1.2037899e+001
1.6026285e+001
2.0005041e+001
2.3620411e+001
2.6826488e+001
2.9716011e+001
3.3243721e+001
3.7495884e+001
4.2600178e+001
4.8354721e+001
5.3284641e+001
5.7444759e+001
6.1472519e+001
6.5499260e+001
7.0283318e+001
7.5615250e+001
8.0777199e+001
8.5685631e+001
9.0045029e+001
9.3874054e+001
9.7190125e+001
9.9955139e+001
1.0211539e+002
1.0349540e+002
1.0391153e+002
1.0308040e+002
1.0081375e+002
9.7740509e+001
9.4466934e+001
9.1044563e+001
8.7545280e+001
8.3574913e+001
7.9015503e+001
7.4406555e+001
6.9933357e+001
6.5752327e+001
6.1868233e+001
5.7845440e+001
5.3638073e+001
4.9436104e+001
4.5267693e+001
4.1358829e+001
3.7738125e+001
3.4602264e+001
3.1955790e+001
2.9752090e+001
2.7964165e+001
2.6431297e+001
2.5167925e+001
2.4155582e+001
2.3404558e+001
2.2892500e+001
2.2588844e+001
2.2421268e+001
2.2354668e+001
2.2337471e+001
2.2390272e+001
2.2526035e+001
2.2763920e+001
2.3112032e+001
2.3615490e+001
2.4283257e+001
2.5141613e+001
2.6180624e+001
2.7330528e+001
2.8568640e+001
2.9814650e+001
3.1064905e+001
3.2483948e+001
3.4162693e+001
3.6691986e+001
4.0128059e+001
4.3805771e+001
4.7510342e+001
5.0387634e+001
5.2472237e+001
5.4301140e+001
5.5853291e+001
5.7168026e+001
5.8041180e+001
5.8169876e+001
5.7598915e+001
5.6512836e+001
5.5122547e+001
5.3732155e+001
5.2324589e+001
5.0885902e+001
4.9292953e+001
4.7455639e+001
4.5330612e+001
4.2851631e+001
4.0398659e+001
3.8102806e+001
3.5925278e+001
3.3903351e+001
3.1439655e+001
2.8389635e+001
2.5296526e+001
2.2201473e+001
1.9588333e+001
1.7510889e+001
1.5471143e+001
1.3465463e+001
1.1419662e+001
9.3445406e+000
7.2722073e+000
5.2754102e+000
3.4883099e+000
2.0020652e+000
9.2615730e-001
2.7438748e-001
5.0519731e-002
3.4745839e-001
1.1073498e+000
2.0669961e+000
3.0579462e+000
3.9113436e+000
4.5283685e+000
5.0467014e+000
5.5143638e+000
5.9760432e+000
6.4347000e+000
6.7817721e+000
6.9345312e+000
6.9726024e+000
6.8454957e+000
6.6920357e+000
6.5042801e+000
6.3027530e+000
6.0805559e+000
5.8086472e+000
5.4641886e+000
5.0001822e+000
4.4236512e+000
3.8272741e+000
3.2476799e+000
2.7925966e+000
2.4765933e+000
2.3023920e+000
2.2704890e+000
2.3549201e+000
2.5204656e+000
2.7281399e+000
2.9363725e+000
3.1363335e+000
3.3378484e+000
3.5560043e+000
3.8031840e+000
4.0862408e+000
4.4046559e+000
4.7721910e+000
5.1556358e+000
5.5499253e+000
5.8756590e+000
6.0569282e+000
6.1048560e+000
5.9384198e+000
5.6599112e+000
5.2346587e+000
4.7787471e+000
4.2998629e+000
3.8455458e+000
3.4420104e+000
3.0959840e+000
2.8127728e+000
2.5804543e+000
2.3483822e+000
2.0413358e+000
1.6580510e+000
1.1793054e+000
7.0294708e-001
3.3961484e-001
8.7414458e-002
1.5179520e-002
2.9308293e-002
1.2737486e-001
2.5740463e-001
4.2178959e-001
6.1527437e-001
8.6774743e-001
1.1319847e+000
1.4071885e+000
1.6551946e+000
1.8313328e+000
1.9976720e+000
2.1518342e+000
2.3356786e+000
2.5770075e+000
2.8557751e+000
3.1915605e+000
3.5524735e+000
3.9353600e+000
4.2998295e+000
4.6191158e+000
4.8567343e+000
5.0049725e+000
5.0670342e+000
5.0710592e+000
5.0449018e+000
5.0101390e+000
4.9805641e+000
4.9561715e+000
4.9344997e+000
4.9128194e+000
4.8861704e+000
4.8649039e+000
4.8576350e+000
4.8632460e+000
4.8959780e+000
4.9241824e+000
4.9403467e+000
4.9475341e+000
4.9438972e+000
4.9538579e+000
4.9921036e+000
5.0508938e+000
5.1378980e+000
5.2379351e+000
5.3532705e+000
5.4848161e+000
5.6349039e+000
5.7993026e+000
5.9730201e+000
6.1413827e+000
6.2992172e+000
6.4327006e+000
6.5418501e+000
6.6048336e+000
6.6344357e+000
6.6080065e+000
6.5528927e+000
6.4553814e+000
6.3367162e+000
6.1761518e+000
5.9864721e+000
5.7157555e+000
5.4025321e+000
4.9730659e+000
4.5146074e+000
3.9891779e+000
3.4688630e+000
2.9622202e+000
2.4843607e+000
2.0602658e+000
1.6790726e+000
1.3620051e+000
1.0852348e+000
8.5519820e-001
6.4335531e-001
4.4965947e-001
2.6484519e-001
9.2070788e-002
-5.7643346e-002
-1.8846241e-001
-2.9482651e-001
-3.8621432e-001
-4.6050522e-001
-5.1247507e-001
-4.9619749e-001
-4.2682266e-001
-2.0298657e-001
7.2569042e-002
4.7276169e-001
8.6922073e-001
1.2198646e+000
1.5268641e+000
1.6963636e+000
1.8217137e+000
1.8371530e+000
1.8223720e+000
1.7479168e+000
1.6617485e+000
1.5533668e+000
1.4183520e+000
1.2415292e+000
1.0160074e+000
7.4245501e-001
4.8067182e-001
2.4457680e-001
9.7225763e-002
2.3900473e-002
3.4752656e-002
9.9763766e-002
2.3514263e-001
4.0472183e-001
6.1334276e-001
8.2666087e-001
1.0098048e+000
1.1739452e+000
1.2657480e+000
1.3449479e+000
1.3926214e+000
1.4452097e+000
1.5208577e+000
1.6033512e+000
1.7070243e+000
1.8117800e+000
1.9175342e+000
2.0122738e+000
2.0825129e+000
2.1248577e+000
2.1232858e+000
2.1069491e+000
2.0755260e+000
2.0645640e+000
2.0755851e+000
2.1054394e+000
2.1474316e+000
2.1721931e+000
2.1808891e+000
2.1451590e+000
2.0862985e+000
2.0043697e+000
1.9201171e+000
1.8753636e+000
1.8431789e+000
1.8419156e+000
1.8414400e+000
1.8182832e+000
1.7912232e+000
1.7450416e+000
1.6928514e+000
1.6152049e+000
1.5446625e+000
1.5000540e+000
1.4921315e+000
1.5724071e+000
1.6620269e+000
1.7649674e+000
1.8359509e+000
1.8586463e+000
1.8604500e+000
1.8385864e+000
1.8128023e+000
1.7836893e+000
1.7509906e+000
1.7132293e+000
1.6475217e+000
1.5626800e+000
1.4331623e+000
1.2864776e+000
1.1430771e+000
1.0060178e+000
9.2776334e-001
8.6345381e-001
8.4297842e-001
8.2776213e-001
8.3033335e-001
8.2929480e-001
8.0146813e-001
7.5494641e-001
6.2629569e-001
4.9228743e-001
3.4270918e-001
2.1559700e-001
1.3990945e-001
7.2379388e-002
2.0362645e-002
-1.8221816e-002
-3.5535268e-002
-3.4799799e-003
7.9625912e-002
1.7100056e-001
2.6560745e-001
3.0148911e-001
3.0145714e-001
2.8688750e-001
2.6639068e-001
2.5627434e-001
2.4662234e-001
1.8344033e-001
1.0788144e-001
1.6492806e-002
-7.4211121e-002
-1.0052535e-001
-1.1742327e-001
-3.7569538e-002
2.9831007e-003
9.3285769e-002
2.8676865e-001
5.6146079e-001
8.1023920e-001
9.8185879e-001
1.0889182e+000
1.0584888e+000
1.0250250e+000
9.8799884e-001
1.0070521e+000
1.0939772e+000
1.1514143e+000
1.1803232e+000
1.1429957e+000
1.0587360e+000
9.6829772e-001
8.7522429e-001
7.5675219e-001
6.3011831e-001
5.1666683e-001
4.0830174e-001
4.2274895e-001
4.5747155e-001
5.9135002e-001
