Image.
>Pix99999.
  .
5555
5555
2300
900
5555
2
1
0
701
5555
2.0702000e-001
2.1132384e-001
2.1562769e-001
2.1994150e-001
2.2424537e-001
2.2854921e-001
2.3285306e-001
2.3716681e-001
2.4147074e-001
2.4577458e-001
2.5008827e-001
2.5439227e-001
2.5869611e-001
2.6299995e-001
2.6731360e-001
2.7161765e-001
2.7592146e-001
2.8023508e-001
2.8453916e-001
2.8884304e-001
2.9314685e-001
2.9746038e-001
3.0176455e-001
3.0606839e-001
3.1038189e-001
3.1468606e-001
9.9280357e-002
3.5086500e-003
-8.3672643e-002
-1.0985546e-002
8.5294373e-002
2.0541672e-001
3.2351023e-001
3.5868677e-001
3.8130075e-001
3.3550701e-001
2.8173178e-001
2.0748807e-001
1.3208912e-001
5.6583114e-002
-8.2877716e-003
-4.9890392e-002
-6.7830496e-002
-4.9398448e-002
3.2004081e-003
9.5607914e-002
1.8632890e-001
2.7296281e-001
2.8110790e-001
2.3078100e-001
1.4199714e-001
3.3278659e-002
-1.5774028e-002
-3.8059149e-002
-1.6843500e-002
1.7934728e-002
3.6930002e-002
5.2097280e-002
3.8196065e-002
1.9807786e-002
-1.2758772e-002
-4.6275839e-002
-7.5808071e-002
-9.3264304e-002
-4.3588787e-002
3.5761379e-002
1.9954109e-001
3.5649782e-001
4.7442406e-001
5.2457792e-001
4.5370001e-001
3.1974769e-001
1.1254074e-001
-1.0349423e-001
-3.2086334e-001
-4.9082750e-001
-6.1875647e-001
-6.7386872e-001
-6.8136585e-001
-6.4495891e-001
-5.8728886e-001
-5.5261266e-001
-5.2854949e-001
-5.5417794e-001
-5.9536362e-001
-6.5577489e-001
-7.2035533e-001
-7.8315848e-001
-8.4372061e-001
-8.6816490e-001
-8.8419688e-001
-8.7609929e-001
-8.7799478e-001
-9.3982565e-001
-1.0175076e+000
-1.1164300e+000
-1.1894920e+000
-1.1987277e+000
-1.1882080e+000
-1.1603136e+000
-1.1268572e+000
-1.0895684e+000
-1.0287423e+000
-9.4402683e-001
-8.8032037e-001
-8.3688354e-001
-8.3432704e-001
-8.5694337e-001
-9.0824461e-001
-9.7284770e-001
-1.0634353e+000
-1.1641415e+000
-1.2006279e+000
-1.2160723e+000
-1.1437943e+000
-1.0509936e+000
-9.8863804e-001
-9.3866658e-001
-9.5551103e-001
-9.9421155e-001
-1.0804771e+000
-1.1749823e+000
-1.2649537e+000
-1.3147904e+000
-1.2630188e+000
-1.1650357e+000
-1.0156854e+000
-8.9867073e-001
-8.4611195e-001
-8.3198404e-001
-8.4993774e-001
-8.5976112e-001
-8.5587180e-001
-8.6218870e-001
-8.7810808e-001
-8.9702171e-001
-9.1661257e-001
-8.7646967e-001
-8.0504990e-001
-7.1060622e-001
-6.0842001e-001
-6.0322839e-001
-6.3136113e-001
-7.3603946e-001
-8.5878092e-001
-9.5095301e-001
-1.0289526e+000
-1.0610950e+000
-1.0788846e+000
-1.0830510e+000
-1.0892500e+000
-1.1109778e+000
-1.1410034e+000
-1.1824954e+000
-1.2141960e+000
-1.2258500e+000
-1.2218822e+000
-1.2026913e+000
-1.1969031e+000
-1.2093748e+000
-1.2018372e+000
-1.1714730e+000
-1.0055124e+000
-7.3892772e-001
-4.5029864e-001
-1.5948644e-001
-1.3763733e-001
-2.5843692e-001
-5.2245599e-001
-8.4131712e-001
-1.0296153e+000
-1.1666192e+000
-1.2143594e+000
-1.2348595e+000
-1.2560805e+000
-1.2827001e+000
-1.3383822e+000
-1.4067011e+000
-1.4935769e+000
-1.5756265e+000
-1.6318028e+000
-1.6708431e+000
-1.6888320e+000
-1.6980301e+000
-1.7007160e+000
-1.6360836e+000
-1.4847406e+000
-1.1904745e+000
-7.6759261e-001
-3.6558878e-001
-1.2709342e-002
1.5530276e-001
1.9105195e-001
8.1734076e-002
-1.0413131e-001
-4.1828701e-001
-7.9653597e-001
-1.1186906e+000
-1.4117622e+000
-1.4630233e+000
-1.4125286e+000
-1.2668471e+000
-1.0958471e+000
-1.0066271e+000
-9.8351789e-001
-1.1128616e+000
-1.3299553e+000
-1.6426505e+000
-1.9686571e+000
-2.2436881e+000
-2.4052300e+000
-2.3862431e+000
-2.1870685e+000
-1.8042986e+000
-1.4362952e+000
-1.1622336e+000
-1.1361829e+000
-1.3471841e+000
-1.6211506e+000
-1.8949771e+000
-2.0564029e+000
-2.1290779e+000
-2.0753098e+000
-1.9464593e+000
-1.7064719e+000
-1.4060071e+000
-1.2254688e+000
-1.1162933e+000
-1.2569703e+000
-1.5135188e+000
-1.7473643e+000
-1.9353700e+000
-1.9276839e+000
-1.7880898e+000
-1.4924461e+000
-1.1825421e+000
-1.0238712e+000
-1.0430624e+000
-1.3071320e+000
-1.6531192e+000
-1.9712029e+000
-2.1688933e+000
-2.2056537e+000
-2.1220059e+000
-1.9581361e+000
-1.7353950e+000
-1.4767883e+000
-1.1991644e+000
-9.1100013e-001
-6.7006254e-001
-4.6836498e-001
-3.0384591e-001
-1.6319801e-001
-8.3592996e-002
-4.4109754e-002
-1.0437271e-001
-2.1902233e-001
-2.9953834e-001
-3.3200547e-001
-1.6612539e-001
1.4118433e-001
6.0204917e-001
1.0595535e+000
1.2505941e+000
1.2026434e+000
8.8123846e-001
5.0723761e-001
2.8281352e-001
8.4856458e-002
-1.7183354e-001
-3.8080573e-001
-4.8946148e-001
-2.9116070e-001
2.4211152e-001
9.3093240e-001
1.6744179e+000
2.0053508e+000
1.9256426e+000
1.6690177e+000
1.3358666e+000
1.3522201e+000
1.6491364e+000
1.8248426e+000
1.8729544e+000
1.3817966e+000
5.5855924e-001
-4.4363767e-002
-3.6315390e-001
1.3524914e-001
1.3378997e+000
3.1266601e+000
4.9689569e+000
6.0638866e+000
6.6257572e+000
6.8922539e+000
7.3605814e+000
8.4981098e+000
1.0537838e+001
1.3549889e+001
1.7200054e+001
2.1182428e+001
2.4681351e+001
2.7431211e+001
2.9892351e+001
3.2290489e+001
3.5565956e+001
3.9744118e+001
4.4533867e+001
4.9728439e+001
5.4056675e+001
5.7610359e+001
6.1250374e+001
6.5042236e+001
6.9401291e+001
7.4145638e+001
7.8614349e+001
8.2827637e+001
8.6797806e+001
9.0549057e+001
9.4122131e+001
9.7487915e+001
1.0060391e+002
1.0321740e+002
1.0504477e+002
1.0540457e+002
1.0376786e+002
1.0085227e+002
9.7374901e+001
9.3747650e+001
9.0247261e+001
8.6366585e+001
8.1929092e+001
7.7258484e+001
7.2496147e+001
6.8028320e+001
6.3908783e+001
5.9762959e+001
5.5537331e+001
5.1342548e+001
4.7188755e+001
4.3135258e+001
3.9210987e+001
3.5624706e+001
3.2420349e+001
2.9730896e+001
2.7536423e+001
2.5682812e+001
2.4166368e+001
2.2918440e+001
2.1933210e+001
2.1159500e+001
2.0577242e+001
2.0130571e+001
1.9821541e+001
1.9634249e+001
1.9611372e+001
1.9770502e+001
2.0155560e+001
2.0775000e+001
2.1716597e+001
2.2998371e+001
2.4533613e+001
2.6278383e+001
2.7896702e+001
2.9311720e+001
3.0509222e+001
3.1495554e+001
3.2774426e+001
3.4470291e+001
3.7171192e+001
4.0843117e+001
4.4246441e+001
4.7177925e+001
4.9134472e+001
5.0275230e+001
5.1486034e+001
5.2791004e+001
5.4206142e+001
5.5302418e+001
5.5399792e+001
5.4480946e+001
5.2700363e+001
5.0585781e+001
4.8742447e+001
4.7193573e+001
4.5944050e+001
4.4771152e+001
4.3531944e+001
4.1967857e+001
3.9928230e+001
3.7750286e+001
3.5532410e+001
3.3403999e+001
3.1416945e+001
2.8968468e+001
2.5903872e+001
2.2719526e+001
1.9464006e+001
1.6799671e+001
1.4818080e+001
1.3013143e+001
1.1403988e+001
9.8559828e+000
8.3557167e+000
6.8232741e+000
5.2433743e+000
3.6037140e+000
2.0580053e+000
8.6534935e-001
1.4359675e-001
3.0080944e-002
5.1963544e-001
1.4714320e+000
2.4696479e+000
3.2150574e+000
3.7711849e+000
4.1606526e+000
4.6824365e+000
5.5067372e+000
6.4613905e+000
7.5296402e+000
8.1914492e+000
8.1882963e+000
7.8844838e+000
7.1803651e+000
6.4952393e+000
5.8477125e+000
5.2742538e+000
4.8172054e+000
4.4831362e+000
4.2905216e+000
4.1216559e+000
3.9477396e+000
3.6765351e+000
3.3399198e+000
3.0575256e+000
2.8970275e+000
2.9570279e+000
3.2011931e+000
3.5592222e+000
3.9085715e+000
4.1080842e+000
4.2222967e+000
4.2967057e+000
4.4212232e+000
4.6743770e+000
5.0073586e+000
5.4310732e+000
5.8804917e+000
6.3495345e+000
6.7478786e+000
7.0041232e+000
7.1146822e+000
6.9725256e+000
6.7374821e+000
6.3588099e+000
5.9263887e+000
5.4300666e+000
4.9486036e+000
4.5005803e+000
4.1103086e+000
3.7835526e+000
3.4701719e+000
3.1756155e+000
2.9063611e+000
2.6576021e+000
2.4268246e+000
2.1689935e+000
1.8096428e+000
1.3842120e+000
9.1139418e-001
4.8121464e-001
1.9970404e-001
2.8793793e-002
4.3991571e-003
3.8598962e-002
1.9513120e-001
4.1674036e-001
7.5086397e-001
1.0431504e+000
1.2305114e+000
1.2983088e+000
1.1472645e+000
9.8867911e-001
8.3489299e-001
7.7333879e-001
8.5812134e-001
1.0397322e+000
1.3448486e+000
1.6954547e+000
2.0825400e+000
2.4407048e+000
2.7470973e+000
2.9673438e+000
3.0950203e+000
3.1233029e+000
3.0784760e+000
2.9776559e+000
2.8581860e+000
2.7504530e+000
2.6591001e+000
2.5992603e+000
2.5635123e+000
2.5718496e+000
2.6027761e+000
2.6755159e+000
2.7356598e+000
2.7547526e+000
2.7642360e+000
2.7582195e+000
2.8040957e+000
2.9567220e+000
3.1709480e+000
3.4823549e+000
3.7912960e+000
4.0868893e+000
4.3395491e+000
4.5413966e+000
4.7349863e+000
4.9280863e+000
5.1494374e+000
5.3983755e+000
5.6696982e+000
5.9642725e+000
6.2925692e+000
6.6476750e+000
7.0361257e+000
7.4212646e+000
7.7519703e+000
8.0333939e+000
8.2024641e+000
8.3241711e+000
8.3597803e+000
8.3489990e+000
8.2148561e+000
8.0251226e+000
7.6851001e+000
7.3128500e+000
6.8646092e+000
6.4070511e+000
5.9293056e+000
5.4381986e+000
4.9249701e+000
4.4058442e+000
3.8873668e+000
3.4113421e+000
2.9908900e+000
2.6176782e+000
2.2839417e+000
1.9394392e+000
1.5807643e+000
1.1936313e+000
8.0150861e-001
4.5653510e-001
1.6388728e-001
2.0064190e-003
-9.6788257e-002
-1.1193661e-001
-1.0383168e-001
-7.7383898e-002
-3.1707600e-002
8.2286268e-002
2.1597373e-001
4.0860432e-001
5.8448517e-001
7.0675081e-001
8.0334061e-001
8.3779681e-001
8.6728591e-001
8.8459504e-001
8.8313228e-001
8.4704310e-001
7.7733785e-001
6.6234982e-001
5.3101158e-001
3.8368642e-001
2.4102524e-001
1.1171540e-001
3.4977257e-002
1.6870163e-002
1.2781782e-001
3.3174440e-001
6.8301916e-001
1.0928173e+000
1.5141120e+000
1.9183621e+000
2.2172139e+000
2.4955273e+000
2.7633679e+000
3.0480938e+000
3.4273086e+000
3.8050137e+000
4.1661959e+000
4.4797673e+000
4.6418934e+000
4.7752247e+000
4.8432841e+000
4.9510446e+000
5.1366224e+000
5.3382955e+000
5.5584712e+000
5.7330151e+000
5.8559861e+000
6.0046697e+000
6.1875434e+000
6.4376311e+000
6.7322206e+000
6.9802747e+000
7.1904655e+000
7.3257470e+000
7.4271803e+000
7.5262985e+000
7.6214657e+000
7.6951761e+000
7.7508206e+000
7.7102642e+000
7.6460600e+000
7.4987597e+000
7.3496089e+000
7.2165523e+000
7.1105027e+000
7.1248212e+000
7.1773219e+000
7.3501987e+000
7.5199862e+000
7.6802430e+000
7.8148394e+000
7.8987255e+000
7.9478073e+000
7.9385915e+000
7.8452997e+000
7.6485095e+000
7.3603544e+000
6.9835067e+000
6.5216246e+000
6.0059628e+000
5.5324469e+000
5.1056061e+000
4.9389658e+000
4.8827801e+000
4.9415884e+000
5.0060940e+000
4.7944565e+000
4.5099688e+000
3.9298520e+000
3.3243470e+000
2.7107751e+000
2.1228089e+000
1.7116611e+000
1.3547425e+000
1.2363499e+000
1.1455660e+000
1.1368994e+000
1.0880408e+000
9.4741738e-001
8.0770344e-001
6.7343056e-001
5.9804046e-001
6.0233122e-001
6.2659222e-001
6.7075253e-001
7.0547819e-001
7.3191625e-001
7.4444622e-001
7.4671131e-001
7.1108252e-001
6.5789104e-001
5.9442049e-001
5.3127593e-001
5.4769647e-001
5.8124769e-001
6.2059963e-001
6.5324318e-001
5.0919163e-001
3.5518196e-001
1.6159663e-001
8.2639063e-004
2.7681813e-003
9.4620764e-002
4.2473990e-001
7.7534169e-001
1.1853800e+000
1.5694703e+000
1.8966317e+000
2.1501131e+000
2.2846851e+000
2.3522260e+000
2.3391008e+000
2.3557594e+000
2.4008119e+000
2.4974015e+000
2.6298740e+000
2.7286303e+000
2.8097839e+000
2.8780494e+000
2.9423935e+000
3.0534086e+000
3.1774068e+000
3.3420901e+000
3.5134149e+000
3.6636000e+000
