Image.
>Pix99999.
  .
5555
5555
2300
900
5555
2
1
0
701
5555
3.9220002e-002
4.0052809e-002
4.0886614e-002
4.1719429e-002
4.2553227e-002
4.3386042e-002
4.4219844e-002
4.5052659e-002
4.5886457e-002
4.6719279e-002
4.7552086e-002
4.8385881e-002
4.9218703e-002
5.0052490e-002
5.0885320e-002
5.1719107e-002
5.2551936e-002
5.3385723e-002
5.4218553e-002
5.5052336e-002
5.5885173e-002
5.6718953e-002
5.7551790e-002
5.8384597e-002
5.9218369e-002
6.0051214e-002
9.8092675e-002
3.8401328e-003
-1.4208001e-001
-2.6171532e-001
-3.7705559e-001
-3.6288571e-001
-3.3874407e-001
-3.0004930e-001
-2.6505172e-001
-2.6434800e-001
-2.6162067e-001
-2.4108748e-001
-2.0019217e-001
-9.9826097e-002
2.5676511e-002
1.9875334e-001
3.7114480e-001
5.3777152e-001
6.7171222e-001
7.6530975e-001
8.0735487e-001
8.0207330e-001
7.5904614e-001
6.9008529e-001
6.1833787e-001
5.4605633e-001
4.9439245e-001
4.5184076e-001
4.3286991e-001
4.2134979e-001
3.9242920e-001
3.5937402e-001
2.8326106e-001
2.0089127e-001
1.3188571e-001
7.1870930e-002
1.0028588e-001
1.5589321e-001
3.1958845e-001
4.9686629e-001
6.8559253e-001
8.3315843e-001
8.7233150e-001
8.5625720e-001
7.5612700e-001
6.5774506e-001
5.7450163e-001
5.3156918e-001
5.3230757e-001
5.4367357e-001
5.6044519e-001
5.3031665e-001
4.6731442e-001
3.3035168e-001
1.5487543e-001
-1.4424101e-003
-1.4842533e-001
-1.4245012e-001
-8.8023685e-002
5.9692627e-003
1.0843257e-001
1.2815826e-001
1.3669634e-001
1.8302892e-001
2.3645929e-001
3.0119020e-001
3.5318038e-001
3.4046340e-001
3.1559011e-001
2.8275242e-001
2.5524703e-001
2.4251331e-001
2.3130620e-001
2.1921109e-001
1.7020857e-001
7.3502578e-002
-7.0610538e-002
-2.5659284e-001
-3.6252177e-001
-3.9817849e-001
-3.4079617e-001
-2.2869420e-001
-1.8836686e-001
-1.8912710e-001
-2.4360728e-001
-3.1819648e-001
-3.3570400e-001
-3.3382693e-001
-2.6994851e-001
-1.9156678e-001
-1.7504263e-001
-1.8402612e-001
-3.4284395e-001
-5.2707952e-001
-6.8903202e-001
-8.1228501e-001
-8.0891496e-001
-7.7194476e-001
-7.0888597e-001
-6.4715749e-001
-5.9596860e-001
-5.2781910e-001
-4.3437120e-001
-3.2193214e-001
-1.9649172e-001
-1.0242404e-001
-4.0413253e-002
-2.4449781e-002
-3.7880190e-002
-3.8448479e-002
-2.5977679e-002
1.4340106e-002
6.9172278e-002
5.6596175e-002
1.3174361e-002
-1.3265327e-001
-3.1462115e-001
-4.5802385e-001
-5.8471608e-001
-5.9383208e-001
-5.6691635e-001
-4.8867711e-001
-4.0840092e-001
-3.6397624e-001
-3.6662000e-001
-4.7672382e-001
-6.2553179e-001
-8.1256920e-001
-9.4220221e-001
-9.7011578e-001
-9.2734128e-001
-8.1930733e-001
-7.2348541e-001
-6.5211225e-001
-5.9087169e-001
-5.3054804e-001
-3.9250109e-001
-1.9215816e-001
-8.4357858e-003
1.5695155e-001
9.9604830e-002
-7.7605873e-002
-3.0206040e-001
-5.4183322e-001
-6.2582898e-001
-6.5392286e-001
-6.5081584e-001
-6.4761966e-001
-6.8214071e-001
-7.2689247e-001
-7.7134883e-001
-7.9139620e-001
-7.6958752e-001
-7.3059195e-001
-6.9066799e-001
-6.8781275e-001
-7.4436039e-001
-8.4575456e-001
-9.7538042e-001
-1.0380536e+000
-9.9337023e-001
-7.4469215e-001
-3.1472498e-001
1.4851171e-001
5.8631611e-001
8.2397115e-001
9.1486579e-001
8.9299029e-001
8.2126451e-001
6.9544721e-001
5.4161358e-001
3.9361954e-001
2.4529818e-001
2.3399220e-001
2.7926287e-001
3.9311820e-001
5.2444404e-001
5.7110059e-001
5.6116819e-001
4.2231745e-001
2.2992858e-001
1.5136354e-002
-1.9301733e-001
-3.5458177e-001
-4.9483401e-001
-5.9896308e-001
-6.5529275e-001
-6.4205503e-001
-5.4091883e-001
-3.8862056e-001
-2.5518841e-001
-1.8566489e-001
-2.1595158e-001
-3.0954188e-001
-4.5491400e-001
-6.1610210e-001
-7.4615848e-001
-8.4109819e-001
-8.4084600e-001
-7.7345395e-001
-6.8370420e-001
-5.7752645e-001
-5.7359946e-001
-6.3187551e-001
-7.2737026e-001
-8.4187430e-001
-8.8317835e-001
-8.3151209e-001
-5.8877933e-001
-2.4508271e-001
8.6079657e-002
2.8074697e-001
2.0093760e-001
-4.1193336e-002
-3.4604716e-001
-6.0403264e-001
-7.4638796e-001
-7.6239902e-001
-6.7960787e-001
-5.3041047e-001
-3.4618217e-001
-2.9059803e-001
-3.4805644e-001
-5.4764926e-001
-8.3694285e-001
-9.0487218e-001
-8.2179356e-001
-4.5816433e-001
4.9453631e-002
4.5434052e-001
7.7203602e-001
9.4065243e-001
1.0195535e+000
1.1090150e+000
1.1991256e+000
1.2736728e+000
1.2953954e+000
1.0996712e+000
8.0740023e-001
4.9575263e-001
2.4092481e-001
1.6061246e-001
6.1322231e-002
-1.6540548e-001
-3.5508844e-001
-4.1980696e-001
-2.2083406e-001
2.6630464e-001
8.1164265e-001
1.3109928e+000
1.4587520e+000
1.2499790e+000
9.5585263e-001
6.6293740e-001
7.5620198e-001
1.1685948e+000
1.5647174e+000
1.8945842e+000
1.6558275e+000
1.0188817e+000
4.2850134e-001
-4.5883000e-002
1.0146771e-001
8.6671954e-001
2.2600272e+000
3.9030266e+000
5.1790543e+000
6.0770798e+000
6.6321321e+000
7.1834536e+000
8.1124039e+000
9.7594328e+000
1.2281388e+001
1.5692586e+001
1.9766285e+001
2.3553820e+001
2.6699169e+001
2.9377350e+001
3.1808451e+001
3.4910336e+001
3.8755116e+001
4.3364918e+001
4.8517719e+001
5.3014008e+001
5.6886074e+001
6.0742287e+001
6.4682045e+001
6.9194427e+001
7.4131714e+001
7.8932350e+001
8.3555168e+001
8.7915817e+001
9.1993950e+001
9.5778946e+001
9.9183434e+001
1.0211645e+002
1.0435980e+002
1.0565624e+002
1.0573457e+002
1.0433357e+002
1.0196688e+002
9.9204468e+001
9.6121864e+001
9.2867119e+001
8.9029816e+001
8.4484543e+001
7.9781342e+001
7.5111870e+001
7.0716667e+001
6.6642426e+001
6.2344643e+001
5.7779018e+001
5.3199730e+001
4.8643269e+001
4.4364117e+001
4.0375854e+001
3.6826054e+001
3.3727802e+001
3.1124058e+001
2.8996836e+001
2.7185972e+001
2.5687403e+001
2.4428858e+001
2.3413164e+001
2.2616501e+001
2.2061144e+001
2.1732092e+001
2.1618582e+001
2.1672764e+001
2.1857271e+001
2.2143154e+001
2.2536421e+001
2.3049952e+001
2.3781916e+001
2.4758858e+001
2.5949553e+001
2.7299480e+001
2.8594898e+001
2.9775600e+001
3.0882593e+001
3.1939093e+001
3.3308033e+001
3.5091904e+001
3.7639141e+001
4.0967155e+001
4.4052170e+001
4.6691406e+001
4.8526142e+001
4.9613548e+001
5.0653034e+001
5.1680172e+001
5.2746952e+001
5.3664219e+001
5.3939667e+001
5.3460629e+001
5.2220993e+001
5.0484276e+001
4.8746521e+001
4.7033287e+001
4.5361149e+001
4.3595695e+001
4.1611431e+001
3.9523125e+001
3.7284039e+001
3.5203270e+001
3.3414219e+001
3.1602119e+001
2.9789133e+001
2.7453457e+001
2.4447828e+001
2.1388617e+001
1.8289772e+001
1.5746068e+001
1.3830560e+001
1.2031571e+001
1.0382785e+001
8.7919312e+000
7.2943888e+000
5.8701234e+000
4.5207877e+000
3.2214780e+000
2.0073740e+000
1.0211258e+000
3.3596954e-001
4.6605144e-002
2.7237213e-001
9.3483078e-001
1.7764890e+000
2.5857608e+000
3.2455628e+000
3.7490456e+000
4.2839537e+000
4.9698095e+000
5.7517638e+000
6.6142397e+000
7.2369180e+000
7.4075050e+000
7.3543291e+000
6.9770021e+000
6.5761676e+000
6.1524096e+000
5.7276587e+000
5.3278089e+000
4.9607091e+000
4.6610298e+000
4.3481979e+000
4.0290132e+000
3.6701353e+000
3.2755141e+000
2.9655671e+000
2.7693954e+000
2.7455621e+000
2.8976343e+000
3.1609211e+000
3.4884858e+000
3.8083501e+000
4.0835838e+000
4.3567309e+000
4.6229854e+000
4.9038296e+000
5.1741714e+000
5.3787651e+000
5.5564280e+000
5.6814985e+000
5.8050499e+000
5.9085388e+000
5.9802122e+000
5.9372926e+000
5.8353472e+000
5.6296601e+000
5.3940983e+000
5.1205468e+000
4.8335962e+000
4.5423007e+000
4.2385716e+000
3.9625871e+000
3.7115622e+000
3.4839363e+000
3.2767434e+000
3.0260379e+000
2.6861708e+000
2.2718968e+000
1.7681417e+000
1.2593592e+000
8.3074987e-001
4.6432462e-001
2.2396597e-001
5.8070209e-002
-3.4852430e-002
-7.9833999e-002
1.3718478e-002
1.7879210e-001
4.7656566e-001
7.3874211e-001
8.9411944e-001
9.6929419e-001
8.3351481e-001
7.1463692e-001
6.2826991e-001
6.2777287e-001
7.8356689e-001
9.8990971e-001
1.2782634e+000
1.5586398e+000
1.8334500e+000
2.0777471e+000
2.2701857e+000
2.4309142e+000
2.5262902e+000
2.5580187e+000
2.5229297e+000
2.4051108e+000
2.2641890e+000
2.1356914e+000
2.0536001e+000
2.0661018e+000
2.1157780e+000
2.1962376e+000
2.2715800e+000
2.3157701e+000
2.3590772e+000
2.3972313e+000
2.4628372e+000
2.5887721e+000
2.7556329e+000
3.0100231e+000
3.2725892e+000
3.5536697e+000
3.8123417e+000
4.0366292e+000
4.2662582e+000
4.5000825e+000
4.7667937e+000
5.0721126e+000
5.4114313e+000
5.7746849e+000
6.1335006e+000
6.4855037e+000
6.8271623e+000
7.1809998e+000
7.5811734e+000
7.9985580e+000
8.4051228e+000
8.7748861e+000
9.0369768e+000
9.2387934e+000
9.3139076e+000
9.3206244e+000
9.1486940e+000
8.9160538e+000
8.5248938e+000
8.1177197e+000
7.6723938e+000
7.2372289e+000
6.8180456e+000
6.3867221e+000
5.9297256e+000
5.4270701e+000
4.8596735e+000
4.2687693e+000
3.6571081e+000
3.0773704e+000
2.5329905e+000
2.0191765e+000
1.5282072e+000
1.0365168e+000
5.5755544e-001
1.3381882e-001
-2.3526876e-001
-4.7984236e-001
-6.6377872e-001
-7.6643074e-001
-8.3027822e-001
-8.0652577e-001
-7.3206198e-001
-4.9771529e-001
-2.3583193e-001
9.0779573e-002
3.8994715e-001
5.9686035e-001
7.5514615e-001
7.9183167e-001
7.8870016e-001
7.0774841e-001
6.1055946e-001
4.9220341e-001
3.9248681e-001
3.2164988e-001
2.7336881e-001
2.4325785e-001
1.8598852e-001
1.0783805e-001
4.4374712e-002
2.0739399e-002
1.5548973e-001
3.9030731e-001
7.7284491e-001
1.2235605e+000
1.7380766e+000
2.2502935e+000
2.6619797e+000
3.0026021e+000
3.0607998e+000
3.0642667e+000
2.9151242e+000
2.7960849e+000
2.8157005e+000
2.8734710e+000
3.0503483e+000
3.2272301e+000
3.4078882e+000
3.6286454e+000
3.9344530e+000
4.3105764e+000
4.7892284e+000
5.2359591e+000
5.6399398e+000
6.0159888e+000
6.3786516e+000
6.8409634e+000
7.3747683e+000
7.8767490e+000
8.3232527e+000
8.5018091e+000
8.5289974e+000
8.3285465e+000
8.0518456e+000
7.7650070e+000
7.4991269e+000
7.4081459e+000
7.3540359e+000
7.4072704e+000
7.4546013e+000
7.4300098e+000
7.4223542e+000
7.4921293e+000
7.6110873e+000
7.8848619e+000
8.1445045e+000
8.3657036e+000
8.5422211e+000
8.6319742e+000
8.6906061e+000
8.6990480e+000
8.6647301e+000
8.5753889e+000
8.4079914e+000
8.1578960e+000
7.7491355e+000
7.2276878e+000
6.6548419e+000
6.0644560e+000
5.5773311e+000
5.1257138e+000
4.6391344e+000
4.1377821e+000
3.5762892e+000
3.0254593e+000
2.7078359e+000
2.4417050e+000
2.5474391e+000
2.6540599e+000
2.7398949e+000
2.7377315e+000
2.3469715e+000
1.9000320e+000
1.2820958e+000
7.2209013e-001
2.9621664e-001
-8.0483615e-002
-3.6851656e-001
-6.2713230e-001
-8.4224439e-001
-1.0086586e+000
-1.1244885e+000
-1.2212685e+000
-1.2956220e+000
-1.2343357e+000
-1.0793827e+000
-7.3274201e-001
-3.0371147e-001
3.9608508e-002
3.4813344e-001
5.2776104e-001
6.7971885e-001
8.4588462e-001
1.0034612e+000
9.1938686e-001
8.0729175e-001
4.3669862e-001
9.2111759e-002
-5.5518746e-003
-1.6675785e-001
-9.5256925e-002
1.9182414e-002
2.6133898e-001
5.4624861e-001
9.2251498e-001
1.3160434e+000
1.7381978e+000
2.2004480e+000
2.7112710e+000
3.1767566e+000
3.5956709e+000
3.7756586e+000
3.7853541e+000
3.6879697e+000
3.5367432e+000
3.3812921e+000
3.2285328e+000
3.0233669e+000
2.8091674e+000
2.8948865e+000
3.0304246e+000
3.4670000e+000
