##TITLE=Methyl Ethyl Ketone
##JCAMP-DX=4.24
##DATA TYPE=INFRARED SPECTRUM
##XUNITS=cm-1
##YUNITS=Absorbance
##FIRSTX=900
##LASTX=2300
##XYDATA=(X++(Y..Y))
2296 0.11467
2294 0.11705659
2292 0.11944317
2290 0.12182976
2288 0.1242064
2286 0.12659292
2284 0.1289795
2282 0.1313661
2280 0.13375269
2278 0.13613927
2276 0.13852586
2274 0.14091244
2272 0.14329903
2270 0.14566599
2268 0.14806201
2266 0.15050751
2264 0.15283674
2262 0.15502682
2260 0.15760341
2258 0.1607345
2256 0.16240343
2254 0.1620232
2252 0.16706593
2250 0.17973515
2248 0.17227978
2246 0.12028535
2244 0.046351172
2242 -0.016212475
2240 -0.044191159
2238 -0.022943374
2236 0.039554756
2234 0.13086648
2232 0.2463924
2230 0.37938425
2228 0.50491399
2226 0.59757352
2224 0.65130395
2222 0.66866964
2220 0.66401428
2218 0.65011173
2216 0.61962885
2214 0.56067592
2212 0.46746278
2210 0.34116173
2208 0.2034476
2206 0.079697676
2204 -0.014761032
2202 -0.07116732
2200 -0.094461702
2198 -0.095087878
2196 -0.088883504
2194 -0.091790438
2192 -0.11364736
2190 -0.15747197
2188 -0.20651837
2186 -0.23957615
2184 -0.24270481
2182 -0.21090394
2180 -0.16549706
2178 -0.13289657
2176 -0.12562372
2174 -0.14489858
2172 -0.16510883
2170 -0.15861811
2168 -0.12512778
2166 -0.078840517
2164 -0.055225175
2162 -0.086722456
2160 -0.16513471
2158 -0.26591995
2156 -0.35450399
2154 -0.40099594
2152 -0.4072696
2150 -0.38389793
2148 -0.33209842
2146 -0.25189823
2144 -0.15285549
2142 -0.052770529
2140 0.010872198
2138 0.0049019842
2136 -0.057875954
2134 -0.14307426
2132 -0.19550535
2130 -0.16546622
2128 -0.054423198
2126 0.10683475
2124 0.24373615
2122 0.28174391
2120 0.20996366
2118 0.050674628
2116 -0.13532886
2114 -0.28647822
2112 -0.39357394
2110 -0.46846846
2108 -0.52709854
2106 -0.58185089
2104 -0.62689644
2102 -0.65172803
2100 -0.65537059
2098 -0.64139801
2096 -0.6162371
2094 -0.58691263
2092 -0.55915987
2090 -0.53657627
2088 -0.51616263
2086 -0.49227551
2084 -0.45892394
2082 -0.41358554
2080 -0.36842972
2078 -0.33968523
2076 -0.33608145
2074 -0.35803714
2072 -0.38484001
2070 -0.3930929
2068 -0.38325179
2066 -0.37077701
2064 -0.39145595
2062 -0.47909746
2060 -0.62603992
2058 -0.80132711
2056 -0.94995773
2054 -1.0171633
2052 -0.98761344
2050 -0.87145907
2048 -0.71379411
2046 -0.56971967
2044 -0.47746003
2042 -0.46019518
2040 -0.51116085
2038 -0.61062402
2036 -0.73680311
2034 -0.86966395
2032 -0.99758351
2030 -1.1108431
2028 -1.1922003
2026 -1.2219971
2024 -1.1861395
2022 -1.0824986
2020 -0.94865316
2018 -0.83737224
2016 -0.79187
2014 -0.83621764
2012 -0.9362551
2010 -1.038861
2008 -1.1217721
2006 -1.1831722
2004 -1.241536
2002 -1.315262
2000 -1.3879039
1998 -1.4281886
1996 -1.4141001
1994 -1.3390692
1992 -1.2380348
1990 -1.162788
1988 -1.15317
1986 -1.2308999
1984 -1.3697931
1982 -1.5215412
1980 -1.6387033
1978 -1.6812167
1976 -1.6312114
1974 -1.487134
1972 -1.2719212
1970 -1.0261161
1968 -0.81689024
1966 -0.71278656
1964 -0.73438019
1962 -0.86791509
1960 -1.0586624
1958 -1.2424567
1956 -1.3957642
1954 -1.5148332
1952 -1.5876096
1950 -1.5989616
1948 -1.5452751
1946 -1.4403
1944 -1.3437285
1942 -1.3222954
1940 -1.3710223
1938 -1.4434704
1936 -1.48194
1934 -1.4431504
1932 -1.358258
1930 -1.2873223
1928 -1.2441891
1926 -1.2082878
1924 -1.1316129
1922 -0.9747628
1920 -0.78983378
1918 -0.66621739
1916 -0.63493359
1914 -0.68203861
1912 -0.75489998
1910 -0.803128
1908 -0.86556727
1906 -1.0146301
1904 -1.246948
1902 -1.5001297
1900 -1.6582025
1898 -1.6096634
1896 -1.3757286
1894 -1.0591661
1892 -0.78156859
1890 -0.64947909
1888 -0.6870231
1886 -0.86516088
1884 -1.1304754
1882 -1.4220417
1880 -1.6890314
1878 -1.8832206
1876 -1.93826
1874 -1.7903167
1872 -1.4372617
1870 -0.93976504
1868 -0.47077304
1866 -0.23476514
1864 -0.29670113
1862 -0.6102584
1860 -1.0338482
1858 -1.4008371
1856 -1.6485457
1854 -1.7802336
1852 -1.7893265
1850 -1.6636254
1848 -1.424472
1846 -1.1284678
1844 -0.89220929
1842 -0.840271
1840 -0.97678924
1838 -1.2159559
1836 -1.4228257
1834 -1.461531
1832 -1.2920794
1830 -0.95656353
1828 -0.5809176
1826 -0.3214775
1824 -0.26247674
1822 -0.41452321
1820 -0.68893003
1818 -0.94848293
1816 -1.1005429
1814 -1.1071715
1812 -1.0140353
1810 -0.90551525
1808 -0.81038332
1806 -0.70863104
1804 -0.55326158
1802 -0.29707617
1800 0.04942818
1798 0.43286771
1796 0.78807783
1794 1.0452383
1792 1.127588
1790 0.98103368
1788 0.67498124
1786 0.3574048
1784 0.14640704
1782 0.11618049
1780 0.28276736
1778 0.62096798
1776 1.0837612
1774 1.5925261
1772 1.9731908
1770 2.0234969
1768 1.7136983
1766 1.1649261
1764 0.58993757
1762 0.20701802
1760 0.038201105
1758 -0.022339344
1756 0.01050077
1754 0.20403838
1752 0.60937607
1750 1.2214394
1748 1.8840066
1746 2.355325
1744 2.4963396
1742 2.300874
1740 1.9565948
1738 1.7382598
1736 1.7142199
1734 1.7619877
1732 1.6793525
1730 1.2796956
1728 0.61388528
1726 -0.075398564
1724 -0.51775014
1722 -0.47720489
1720 0.14888141
1718 1.3042973
1716 2.6663015
1714 3.7809756
1712 4.4791226
1710 4.8837895
1708 5.309638
1706 6.1644721
1704 7.7645388
1702 10.272825
1700 13.552734
1698 17.213495
1696 20.720856
1694 23.5646
1692 25.724932
1690 27.630302
1688 29.894138
1686 33.13105
1684 37.560581
1682 42.956703
1680 48.5872
1678 53.532753
1676 57.710373
1674 61.757103
1672 66.126869
1670 70.899193
1668 75.693687
1666 79.865952
1664 83.152855
1662 85.686501
1660 87.669731
1658 89.292336
1656 90.691566
1654 91.9328
1652 92.947655
1650 93.545341
1648 93.466064
1646 92.487854
1644 90.780075
1642 88.819672
1640 86.867561
1638 84.8937
1636 82.686768
1634 79.967972
1632 76.694267
1630 73.046104
1628 69.170784
1626 65.127151
1624 60.891479
1622 56.403568
1620 51.711815
1618 46.979923
1616 42.390942
1614 38.116955
1612 34.300713
1610 31.03669
1608 28.311184
1606 26.015886
1604 24.056644
1602 22.381374
1600 20.983412
1598 19.889662
1596 19.101
1594 18.582064
1592 18.286064
1590 18.171137
1588 18.236063
1586 18.520578
1584 19.072001
1582 19.942499
1580 21.216232
1578 22.992514
1576 25.2798
1574 27.968542
1572 30.846699
1570 33.648857
1568 36.261478
1566 38.747021
1564 41.203018
1562 43.756119
1560 46.676048
1558 50.251137
1556 54.127056
1554 57.334251
1552 59.280029
1550 59.994591
1548 59.933655
1546 59.797035
1544 59.890091
1542 59.986771
1540 59.611782
1538 58.232719
1536 55.800144
1534 52.822197
1532 49.856277
1530 47.331318
1528 45.394497
1526 43.889351
1524 42.564575
1522 41.137985
1520 39.371887
1518 37.135403
1516 34.556999
1514 32.004978
1512 29.68124
1510 27.508896
1508 25.254923
1506 22.631071
1504 19.660954
1502 16.728523
1500 14.137849
1498 11.98515
1496 10.224643
1494 8.7013464
1492 7.3026271
1490 5.987287
1488 4.6939735
1486 3.3403327
1484 1.960308
1482 0.73767567
1480 -0.12244374
1478 -0.43365222
1476 -0.04276818
1474 1.1166049
1472 2.8358321
1470 4.6206512
1468 6.1430621
1466 7.3865113
1464 8.4942369
1462 9.709897
1460 11.1867
1458 12.894382
1456 14.5668
1454 15.72642
1452 16.114376
1450 15.832053
1448 15.103143
1446 14.196964
1444 13.317245
1442 12.56194
1440 11.982314
1438 11.582244
1436 11.285214
1434 10.927229
1432 10.38404
1430 9.6270161
1428 8.7310104
1426 7.8776164
1424 7.214045
1422 6.7966418
1420 6.6000948
1418 6.5182061
1416 6.4581056
1414 6.3810749
1412 6.3166451
1410 6.3658342
1408 6.5954103
1406 6.9964142
1404 7.5211716
1402 8.090148
1400 8.6183319
1398 9.0238276
1396 9.2297783
1394 9.1755419
1392 8.8598166
1390 8.3617954
1388 7.7701387
1386 7.1584353
1384 6.5808048
1382 6.0676713
1380 5.6460037
1378 5.3362927
1376 5.1052284
1374 4.8448234
1372 4.4585958
1370 3.904623
1368 3.2199383
1366 2.5335655
1364 1.935322
1362 1.4220231
1360 0.96691668
1358 0.54641682
1356 0.18101712
1354 -0.046857409
1352 -0.075466059
1350 0.10052209
1348 0.46362773
1346 0.98443288
1344 1.656144
1342 2.4981828
1340 3.4511318
1338 4.3225832
1336 4.9141774
1334 5.0870566
1332 4.8364
1330 4.3477178
1328 3.8038361
1326 3.3083949
1324 2.9246092
1322 2.6752269
1320 2.5559349
1318 2.5299816
1316 2.5383801
1314 2.5021486
1312 2.3666513
1310 2.1287436
1308 1.8087926
1306 1.4469428
1304 1.0856168
1302 0.76318681
1300 0.5183928
1298 0.39116818
1296 0.41437429
1294 0.60593492
1292 0.9669137
1290 1.4724494
1288 2.0776839
1286 2.7131586
1284 3.3072965
1282 3.7983112
1280 4.1505313
1278 4.3734093
1276 4.5028043
1274 4.6017432
1272 4.7253761
1270 4.9015203
1268 5.1401405
1266 5.4309816
1264 5.7705946
1262 6.1754026
1260 6.6617236
1258 7.2362957
1256 7.8941426
1254 8.6153126
1252 9.3887377
1250 10.227066
1248 11.144651
1246 12.143
1244 13.202463
1242 14.266051
1240 15.271514
1238 16.161833
1236 16.881271
1234 17.371325
1232 17.571121
1230 17.414495
1228 16.871492
1226 15.9883
1224 14.841005
1222 13.537547
1220 12.185811
1218 10.878147
1216 9.704071
1214 8.7442703
1212 8.0625124
1210 7.6831927
1208 7.5914783
1206 7.7091684
1204 7.93186
1202 8.1334372
1200 8.1959124
1198 8.0338326
1196 7.6034713
1194 6.9357848
1192 6.1014872
1190 5.2158918
1188 4.3845053
1186 3.6676657
1184 3.0954869
1182 2.6554043
1180 2.3268032
1178 2.0923154
1176 1.9321001
1174 1.820169
1172 1.7311808
1170 1.6460031
1168 1.5602669
1166 1.4986571
1164 1.4909884
1162 1.560143
1160 1.7091475
1158 1.8985267
1156 2.0728099
1154 2.1657887
1152 2.1301255
1150 1.9688525
1148 1.705336
1146 1.3814571
1144 1.0365094
1142 0.69338763
1140 0.36950397
1138 0.080464303
1136 -0.14767915
1134 -0.265596
1132 -0.2409212
1130 -0.095768362
1128 0.12726577
1126 0.36845872
1124 0.57105219
1122 0.69742608
1120 0.73267561
1118 0.70604551
1116 0.65649629
1114 0.61984712
1112 0.62189114
1110 0.66613257
1108 0.75699115
1106 0.91361701
1104 1.150628
1102 1.4607329
1100 1.8169311
1098 2.1574318
1096 2.4268
1094 2.6100764
1092 2.726872
1090 2.8592217
1088 3.0894315
1086 3.4580564
1084 3.9563251
1082 4.4737844
1080 4.8878589
1078 5.113615
1076 5.1206026
1074 4.9980202
1072 4.8468924
1070 4.7197752
1068 4.6307106
1066 4.5240245
1064 4.3490839
1062 4.1162457
1060 3.8562315
1058 3.6138358
1056 3.4258344
1054 3.296036
1052 3.2208912
1050 3.1986301
1048 3.226548
1046 3.2992284
1044 3.4098463
1042 3.5493355
1040 3.7075539
1038 3.8720622
1036 4.0218601
1034 4.1134577
1032 4.1022425
1030 3.9583457
1028 3.6758385
1026 3.3087065
1024 2.9241641
1022 2.58322
1020 2.3288217
1018 2.1537948
1016 2.0341201
1014 1.9327555
1012 1.812402
1010 1.6457704
1008 1.416824
1006 1.1375325
1004 0.82876503
1002 0.51778078
1000 0.23509075
998 0.015791193
996 -0.10969214
994 -0.13019305
992 -0.053630784
990 0.066866703
988 0.17737195
986 0.25749928
984 0.3009477
982 0.32001442
980 0.3265706
978 0.31630486
976 0.28450885
974 0.23850493
972 0.1897656
970 0.15346867
968 0.14183292
966 0.15378651
964 0.18127532
962 0.20384483
960 0.20636246
958 0.20246047
956 0.21385556
954 0.26481488
952 0.35862839
950 0.42403087
948 0.39404169
946 0.28257358
944 0.12983063
942 -0.0016727559
940 -0.048380069
938 0.036399856
936 0.26448914
934 0.53698462
932 0.7550571
930 0.92102623
928 1.0670725
926 1.2421478
924 1.488078
922 1.8024712
920 2.1667476
918 2.5418136
916 2.88482
914 3.1574881
912 3.3259926
910 3.367667
908 3.2736235
906 3.0779736
904 2.8369401
902 2.6523135
900 2.60921
898 2.6826968
896 2.8204
