##TITLE=Methyl Ethyl Ketone
##JCAMP-DX=4.24
##DATA TYPE=INFRARED SPECTRUM
##XUNITS=cm-1
##YUNITS=Absorbance
##FIRSTX=900
##LASTX=2300
##XYDATA=(X++(Y..Y))
2296 0.0080669997
2294 0.0082347598
2292 0.0084026195
2290 0.0085703805
2288 0.0087382402
2286 0.0089060999
2284 0.00907386
2282 0.0092417188
2280 0.0094094798
2278 0.0095772399
2276 0.0097451974
2274 0.0099132555
2272 0.010081119
2270 0.010247898
2268 0.01041662
2266 0.010588314
2264 0.010752251
2262 0.01090626
2260 0.01108732
2258 0.011307974
2256 0.011424744
2254 0.01139599
2252 0.011752403
2250 0.012654739
2248 0.012120057
2246 0.0080551105
2244 0.00029362543
2242 -0.0076506641
2240 0.00036800958
2238 0.041183963
2236 0.12006627
2234 0.23400058
2232 0.35998029
2230 0.46830696
2228 0.52549922
2226 0.50780153
2224 0.43507493
2222 0.34333301
2220 0.28228295
2218 0.29250664
2216 0.36186457
2214 0.45861891
2212 0.53554744
2210 0.55243224
2208 0.51540756
2206 0.44635007
2204 0.37355846
2202 0.32221976
2200 0.29782903
2198 0.30000928
2196 0.32928002
2194 0.38451478
2192 0.45625713
2190 0.53276682
2188 0.60375297
2186 0.66088295
2184 0.70170361
2182 0.72594208
2180 0.73444098
2178 0.73044312
2176 0.7256223
2174 0.73174608
2172 0.74977833
2170 0.77516639
2168 0.79565418
2166 0.79882252
2164 0.78180575
2162 0.74552149
2160 0.69329631
2158 0.63112676
2156 0.57302403
2154 0.536439
2152 0.54155463
2150 0.60446072
2148 0.7206834
2146 0.873945
2144 1.028703
2142 1.145625
2140 1.1965641
2138 1.1668015
2136 1.0804715
2134 0.97666979
2132 0.90009207
2130 0.88732797
2128 0.93494004
2126 1.0218905
2124 1.1146619
2122 1.180657
2120 1.2084211
2118 1.197858
2116 1.1624372
2114 1.120699
2112 1.093312
2110 1.0958966
2108 1.12104
2106 1.1506422
2104 1.1581514
2102 1.1211418
2100 1.04716
2098 0.95616704
2096 0.87370002
2094 0.8216576
2092 0.80008501
2090 0.8003844
2088 0.81354779
2086 0.83163798
2084 0.85040164
2082 0.86560982
2080 0.86709577
2078 0.84618211
2076 0.8105911
2074 0.77764332
2072 0.77687603
2070 0.83393461
2068 0.93883812
2066 1.0616544
2064 1.1503612
2062 1.1559879
2060 1.0757469
2058 0.93156505
2056 0.76711911
2054 0.62630326
2052 0.52025384
2050 0.44410613
2048 0.38537833
2046 0.33255142
2044 0.2886506
2042 0.26200366
2040 0.25635818
2038 0.27106544
2036 0.29651901
2034 0.32102606
2032 0.34005082
2030 0.3542273
2028 0.37192878
2026 0.4034875
2024 0.45375109
2022 0.52105063
2020 0.58719224
2018 0.62741679
2016 0.62
2014 0.55098313
2012 0.43179002
2010 0.28605619
2008 0.14055189
2006 0.020130465
2004 -0.061616704
2002 -0.099078663
2000 -0.098170936
1998 -0.068989277
1996 -0.01799305
1994 0.049530372
1992 0.12464855
1990 0.1944084
1988 0.2366112
1986 0.22980742
1984 0.17406218
1982 0.083821014
1980 -0.010364259
1978 -0.071646705
1976 -0.066536486
1974 0.03047506
1972 0.21977387
1970 0.48015469
1968 0.75015509
1966 0.95529008
1964 1.0470933
1962 1.0041162
1960 0.85979718
1958 0.67062521
1956 0.47844785
1954 0.31118104
1952 0.17705491
1950 0.074524149
1948 0.00033286586
1946 -0.050687499
1944 -0.091145575
1942 -0.13633698
1940 -0.19651061
1938 -0.27563119
1936 -0.363002
1934 -0.44204959
1932 -0.50322843
1930 -0.54287493
1928 -0.56416821
1926 -0.56946814
1924 -0.54341179
1922 -0.46748778
1920 -0.35221252
1918 -0.2247168
1916 -0.1124508
1914 -0.034632564
1912 0.020091657
1910 0.072516821
1908 0.1117746
1906 0.11113772
1904 0.05755192
1902 -0.042961765
1900 -0.14133871
1898 -0.1745138
1896 -0.12044571
1894 0.0064405464
1892 0.14262785
1890 0.20841929
1888 0.1658144
1886 0.01372179
1884 -0.20217875
1882 -0.41864192
1880 -0.60335577
1878 -0.74638808
1876 -0.84685898
1874 -0.90358895
1872 -0.89908409
1870 -0.81398612
1868 -0.66476136
1866 -0.49324656
1864 -0.35490555
1862 -0.30026922
1860 -0.33146214
1858 -0.42066962
1856 -0.53944945
1854 -0.66354191
1852 -0.77557743
1850 -0.8629517
1848 -0.9167344
1846 -0.93225467
1844 -0.91576034
1842 -0.88064444
1840 -0.84291238
1838 -0.81806862
1836 -0.81506628
1834 -0.83300465
1832 -0.8456865
1830 -0.81658429
1828 -0.73272425
1826 -0.60701448
1824 -0.49317858
1822 -0.45826748
1820 -0.51963741
1818 -0.65445644
1816 -0.81636453
1814 -0.95292437
1812 -1.0354692
1810 -1.0526564
1808 -0.9953087
1806 -0.86199248
1804 -0.68980408
1802 -0.53837442
1800 -0.45275375
1798 -0.44871727
1796 -0.46746287
1794 -0.41598302
1792 -0.2677812
1790 -0.054518186
1788 0.16060716
1786 0.31199187
1784 0.39276445
1782 0.43788075
1780 0.47945762
1778 0.54130352
1776 0.64275289
1774 0.79104102
1772 0.94797593
1770 1.0443797
1768 1.0147588
1766 0.82343858
1764 0.54019082
1762 0.28619853
1760 0.076582916
1758 -0.14204529
1756 -0.34139428
1754 -0.43253386
1752 -0.37337273
1750 -0.18008611
1748 0.064235397
1746 0.24179536
1744 0.27391943
1742 0.14380747
1740 -0.040385954
1738 -0.10586315
1736 0.010670602
1734 0.25606644
1732 0.47567305
1730 0.48605353
1728 0.26385564
1726 -0.069863424
1724 -0.33098575
1722 -0.31781641
1720 0.11710703
1718 1.0259575
1716 2.2308471
1714 3.4090335
1712 4.3651881
1710 5.0719595
1708 5.7014599
1706 6.556747
1704 7.9075375
1702 9.9520855
1700 12.774892
1698 16.312178
1696 20.192286
1694 23.86231
1692 27.033306
1690 29.742409
1688 32.38031
1686 35.550541
1684 39.681896
1682 44.881863
1680 50.598522
1678 55.911541
1676 60.6049
1674 65.127724
1672 69.899269
1670 75.093086
1668 80.368713
1666 85.045151
1664 88.783775
1662 91.62397
1660 93.696823
1658 95.143242
1656 96.06871
1654 96.544769
1652 96.63504
1650 96.382874
1648 95.733521
1646 94.579643
1644 92.979851
1642 91.131317
1640 89.123375
1638 86.901619
1636 84.304733
1634 81.138596
1632 77.405869
1630 73.2854
1628 68.892159
1626 64.250397
1624 59.393921
1622 54.400326
1620 49.440586
1618 44.749065
1616 40.474998
1614 36.670563
1612 33.359402
1610 30.54575
1608 28.185486
1606 26.194408
1604 24.508154
1602 23.094994
1600 21.953133
1598 21.101997
1596 20.545
1594 20.262716
1592 20.216331
1590 20.356544
1588 20.661772
1586 21.140913
1584 21.80547
1582 22.673201
1580 23.806189
1578 25.306398
1576 27.260942
1574 29.70554
1572 32.539845
1570 35.536434
1568 38.495922
1566 41.290966
1564 43.869545
1562 46.285587
1560 48.794189
1558 51.742989
1556 54.977642
1554 57.818157
1552 59.737103
1550 60.56004
1548 60.491455
1546 60.009823
1544 59.311111
1542 58.217228
1540 56.530079
1538 54.173309
1536 51.365059
1534 48.588852
1532 46.154213
1530 44.093155
1528 42.315212
1526 40.6483
1524 38.892723
1522 36.858952
1520 34.486549
1518 31.880539
1516 29.252501
1514 26.853443
1512 24.695879
1510 22.522373
1508 20.139339
1506 17.5336
1504 14.9066
1502 12.627405
1500 10.854998
1498 9.4496231
1496 8.2136288
1494 6.9775348
1492 5.6775007
1490 4.3696232
1488 3.1154509
1486 1.9560158
1484 0.95113158
1482 0.18572827
1480 -0.27107948
1478 -0.36992264
1476 -0.030139565
1474 0.84109217
1472 2.1676056
1470 3.6707089
1468 5.1203856
1466 6.4213572
1464 7.5908279
1462 8.7468643
1460 9.9855938
1458 11.326796
1456 12.6766
1454 13.823251
1452 14.588777
1450 14.892166
1448 14.74796
1446 14.272285
1444 13.594688
1442 12.82707
1440 12.039251
1438 11.244124
1436 10.415889
1434 9.5036926
1432 8.514225
1430 7.5393066
1428 6.6747017
1426 5.9880843
1424 5.497292
1422 5.1617155
1420 4.9409633
1418 4.8166561
1416 4.7965031
1414 4.9142079
1412 5.1885767
1410 5.607059
1408 6.1397228
1406 6.7402415
1404 7.352809
1402 7.9109349
1400 8.3343239
1398 8.532938
1396 8.4555998
1394 8.1182823
1392 7.594192
1390 7.0119066
1388 6.4727135
1386 6.014935
1384 5.6398425
1382 5.3147593
1380 5.0029011
1378 4.673223
1376 4.3009744
1374 3.8710408
1372 3.3829999
1370 2.8541613
1368 2.2993286
1366 1.7253085
1364 1.1454039
1362 0.58896661
1360 0.10416074
1358 -0.2417867
1356 -0.40561041
1354 -0.388372
1352 -0.20089668
1350 0.14500436
1348 0.63025844
1346 1.2238393
1344 1.8878641
1342 2.576102
1340 3.229939
1338 3.7747989
1336 4.138443
1334 4.2654877
1332 4.1488385
1330 3.8533351
1328 3.4559641
1326 3.0249257
1324 2.6166909
1322 2.2700918
1320 2.0108907
1318 1.8471792
1316 1.7628801
1314 1.7095231
1312 1.637292
1310 1.5108951
1308 1.3242643
1306 1.1151955
1304 0.92799342
1302 0.7988137
1300 0.7519598
1298 0.79459858
1296 0.93370003
1294 1.1819808
1292 1.5494415
1290 2.0370772
1288 2.6316681
1286 3.297307
1284 3.9852448
1282 4.6344714
1280 5.1892333
1278 5.6120224
1276 5.8913641
1274 6.057158
1272 6.1559081
1270 6.2458076
1268 6.3778338
1266 6.58392
1264 6.8844237
1262 7.2868514
1260 7.797646
1258 8.4270678
1256 9.1901054
1254 10.106976
1252 11.184345
1250 12.399714
1248 13.705903
1246 15.024
1244 16.278326
1242 17.408615
1240 18.371469
1238 19.143236
1236 19.695671
1234 19.982279
1232 19.950081
1230 19.547329
1228 18.756207
1226 17.624079
1224 16.234119
1222 14.710072
1220 13.184734
1218 11.78188
1216 10.601395
1214 9.6985044
1212 9.1006527
1210 8.8008528
1208 8.7679319
1206 8.9345398
1204 9.2067862
1202 9.4543867
1200 9.5500135
1198 9.3959064
1196 8.940793
1194 8.2191677
1192 7.3086905
1190 6.3329158
1188 5.4069414
1186 4.6011324
1184 3.9490767
1182 3.4282024
1180 3.007525
1178 2.6667116
1176 2.3973601
1174 2.2107415
1172 2.1139688
1170 2.095439
1168 2.1355972
1166 2.2083879
1164 2.2914758
1162 2.3747911
1160 2.4512401
1158 2.5132658
1156 2.5467587
1154 2.5235984
1152 2.4170799
1150 2.2135208
1148 1.91465
1146 1.5516071
1144 1.1606636
1142 0.77393508
1140 0.41499454
1138 0.091506302
1136 -0.17650914
1134 -0.33319151
1132 -0.33350918
1130 -0.1807346
1128 0.091320306
1126 0.40367058
1124 0.67097408
1122 0.8224138
1120 0.8252728
1118 0.73111194
1116 0.61105686
1114 0.53193915
1112 0.53400785
1110 0.59520674
1108 0.68813986
1106 0.80957049
1104 0.96429634
1102 1.1615845
1100 1.3996285
1098 1.6462559
1096 1.8705572
1094 2.0644965
1092 2.2401099
1090 2.4466944
1088 2.7301826
1086 3.1043494
1084 3.5562456
1082 4.0238237
1080 4.4333282
1078 4.7129688
1076 4.8098345
1074 4.7212596
1072 4.4754548
1070 4.149487
1068 3.8257935
1066 3.5678308
1064 3.411844
1062 3.3332622
1060 3.2929893
1058 3.2534182
1056 3.1910486
1054 3.1201591
1052 3.0613544
1050 3.0267739
1048 3.0232995
1046 3.0478964
1044 3.0955503
1042 3.1621454
1040 3.2481668
1038 3.367059
1036 3.53213
1034 3.7454515
1032 3.9837794
1030 4.1581702
1028 4.175343
1026 3.9780896
1024 3.5540662
1022 2.9976821
1020 2.4253435
1018 1.9393585
1016 1.6153799
1014 1.458789
1012 1.4460497
1010 1.5182426
1008 1.6047521
1006 1.6267614
1004 1.5240216
1002 1.3010361
1000 0.98961627
998 0.65647894
996 0.36101568
994 0.11149656
992 -0.10323048
990 -0.31511921
988 -0.54269785
986 -0.74501097
984 -0.87101734
982 -0.88553578
980 -0.77904058
978 -0.61270213
976 -0.45557457
974 -0.34442371
972 -0.29204628
970 -0.25832248
968 -0.19989091
966 -0.10696453
964 0.0092045292
962 0.094697572
960 0.098894343
958 0.019229949
956 -0.12221014
954 -0.2596876
952 -0.32913038
950 -0.31061199
948 -0.20871195
946 -0.075120322
944 0.044862151
942 0.17007801
940 0.32092747
938 0.46649373
936 0.57425916
934 0.65232259
932 0.72436869
930 0.83415133
928 1.0211371
926 1.2906849
924 1.6254541
922 1.9561819
920 2.2055113
918 2.3142183
916 2.2570229
914 2.1192629
912 2.0172787
910 2.0790451
908 2.3841825
906 2.8129401
904 3.209199
902 3.4703095
900 3.5421109
898 3.510982
896 3.4984
