Image.
>Pix99999.
  .
5555
5555
2300
900
5555
2
1
0
701
5555
-8.2662001e-002
-8.4382541e-002
-8.6102083e-002
-8.7821618e-002
-8.9541160e-002
-9.1260701e-002
-9.2980243e-002
-9.4699785e-002
-9.6419320e-002
-9.8139852e-002
-9.9859402e-002
-1.0158288e-001
-1.0330051e-001
-1.0501806e-001
-1.0673560e-001
-1.0845314e-001
-1.1018046e-001
-1.1189823e-001
-1.1361577e-001
-1.1533331e-001
-1.1706057e-001
-1.1877840e-001
-1.2049595e-001
-1.2221349e-001
-1.2393103e-001
-1.2565821e-001
-4.6695997e-003
5.4692786e-002
9.9513881e-002
8.1384301e-002
5.4084841e-002
4.8625134e-002
4.5307439e-002
5.4194897e-002
6.3526437e-002
7.2031245e-002
8.4373794e-002
1.1463716e-001
1.4254303e-001
1.6046169e-001
1.6598400e-001
1.4564271e-001
1.2020200e-001
8.8894151e-002
6.5658800e-002
5.2924763e-002
5.8989774e-002
8.2488321e-002
1.1255823e-001
1.4666060e-001
1.7185715e-001
1.9178201e-001
2.1218714e-001
2.3297212e-001
2.4197899e-001
2.4714264e-001
2.3220280e-001
2.1269147e-001
1.9735037e-001
1.8271311e-001
1.7119429e-001
1.5923007e-001
1.3897620e-001
1.1748130e-001
9.3582548e-002
7.0561327e-002
5.1696118e-002
3.9761797e-002
4.4481147e-002
6.1750777e-002
9.9543102e-002
1.3279748e-001
1.5639338e-001
1.6212372e-001
1.4888214e-001
1.5017179e-001
1.6608435e-001
2.0632121e-001
2.6248163e-001
3.1232017e-001
3.5782114e-001
4.1528550e-001
4.7784713e-001
5.5212277e-001
6.2994480e-001
6.3962871e-001
6.3344228e-001
5.8320600e-001
5.2926832e-001
5.3460908e-001
5.5077475e-001
5.8388937e-001
6.1155450e-001
6.0378450e-001
5.9631169e-001
6.0542840e-001
6.3160008e-001
6.9015902e-001
7.3818320e-001
7.6058239e-001
7.4832284e-001
6.9582355e-001
6.5391910e-001
6.2907183e-001
6.5665984e-001
7.2522205e-001
7.8552777e-001
8.3653855e-001
8.0215335e-001
7.2365445e-001
6.0866326e-001
4.8077914e-001
4.4739962e-001
4.4508415e-001
5.6503069e-001
7.1440244e-001
8.5226744e-001
9.7939509e-001
1.0164466e+000
1.0305730e+000
1.0165601e+000
1.0001891e+000
9.9671859e-001
9.9208415e-001
9.7943723e-001
9.5879924e-001
9.2647982e-001
9.0000671e-001
8.8446409e-001
8.7403679e-001
8.6566871e-001
8.3551681e-001
7.8412914e-001
7.2430998e-001
6.6173959e-001
6.3901573e-001
6.4275455e-001
7.0000702e-001
7.8344268e-001
8.5925657e-001
9.2977399e-001
9.3130434e-001
9.0870970e-001
8.7127894e-001
8.3158952e-001
8.2115489e-001
8.1734473e-001
8.1084359e-001
8.0430102e-001
8.0516189e-001
8.1312215e-001
8.3979583e-001
8.6285561e-001
8.6290807e-001
8.5133284e-001
8.2337338e-001
8.1463355e-001
8.3821714e-001
8.7749642e-001
9.2856157e-001
9.6051002e-001
9.7378820e-001
9.8072135e-001
9.8673517e-001
9.8279297e-001
9.7241658e-001
9.2054623e-001
8.4581524e-001
7.6974159e-001
6.9382721e-001
6.4828885e-001
6.1280507e-001
5.6919640e-001
5.2168792e-001
4.8288378e-001
4.6025252e-001
5.0557226e-001
5.8276635e-001
6.8021500e-001
7.6360881e-001
7.8985888e-001
7.8087288e-001
7.4156797e-001
6.8582278e-001
6.2410158e-001
5.5763441e-001
4.9098012e-001
4.4923902e-001
4.3105114e-001
4.5510641e-001
5.0597072e-001
5.7813799e-001
6.6250747e-001
7.3794430e-001
8.0796146e-001
8.3819962e-001
8.4604877e-001
8.2502621e-001
7.8994238e-001
7.8851640e-001
8.0286998e-001
8.6148834e-001
9.3429118e-001
9.7769839e-001
9.9691713e-001
9.5083535e-001
8.7561417e-001
7.8353786e-001
6.9279754e-001
6.2413824e-001
5.7251900e-001
5.4862052e-001
5.4323816e-001
5.5803049e-001
5.8408976e-001
6.0395902e-001
6.1087763e-001
5.9482193e-001
5.6411463e-001
5.3009790e-001
4.8695630e-001
4.4247726e-001
3.6879370e-001
2.8052500e-001
1.5798080e-001
2.2424430e-002
-7.2399527e-002
-1.3777876e-001
-1.0948864e-001
-3.7705570e-002
6.3945442e-002
1.7560899e-001
3.0011493e-001
4.2883062e-001
5.4208195e-001
6.2633556e-001
6.2584084e-001
5.7473695e-001
4.9199417e-001
4.1656750e-001
3.8801801e-001
3.7779909e-001
3.7529191e-001
3.5711384e-001
3.1333390e-001
2.7883750e-001
2.6091352e-001
2.3617449e-001
2.0634726e-001
1.5244004e-001
8.1776924e-002
9.2899993e-002
1.5740520e-001
2.8710416e-001
4.4517425e-001
5.1942879e-001
5.3541338e-001
4.8923019e-001
4.0567622e-001
3.2528120e-001
2.5758171e-001
2.3923290e-001
2.6216537e-001
3.0542672e-001
3.3769751e-001
3.0273151e-001
2.2535720e-001
1.4213187e-001
4.2164057e-002
-7.0757881e-002
-1.5702929e-001
-1.9759023e-001
-2.1544297e-001
-2.1757591e-001
-2.7221143e-001
-3.9362785e-001
-5.9068322e-001
-8.5623091e-001
-1.0730788e+000
-1.2321157e+000
-1.1981601e+000
-1.0138482e+000
-7.4251622e-001
-4.3087277e-001
-2.8119519e-001
-2.5159627e-001
-2.3045623e-001
-1.8894830e-001
1.8029660e-003
3.0810148e-001
7.7722955e-001
1.3209151e+000
1.7306097e+000
2.0428193e+000
2.3236921e+000
2.7464037e+000
3.4926212e+000
4.8406696e+000
6.9234304e+000
1.0036845e+001
1.4150143e+001
1.8425791e+001
2.2463953e+001
2.6021049e+001
2.9144114e+001
3.2697392e+001
3.6794064e+001
4.1562973e+001
4.6844761e+001
5.1375427e+001
5.5212471e+001
5.8953476e+001
6.2711273e+001
6.7120766e+001
7.1984016e+001
7.6577652e+001
8.0822952e+001
8.4424820e+001
8.7453667e+001
9.0035934e+001
9.2221855e+001
9.4113838e+001
9.5684982e+001
9.6914734e+001
9.7557770e+001
9.7386108e+001
9.6531151e+001
9.5201729e+001
9.3327957e+001
9.0969337e+001
8.7753227e+001
8.3628372e+001
7.9163109e+001
7.4594238e+001
7.0221024e+001
6.6097961e+001
6.1838360e+001
5.7404911e+001
5.3040802e+001
4.8771667e+001
4.4803486e+001
4.1153687e+001
3.7943985e+001
3.5168842e+001
3.2753220e+001
3.0671442e+001
2.8778460e+001
2.7120289e+001
2.5753645e+001
2.4705175e+001
2.3972000e+001
2.3518522e+001
2.3253965e+001
2.3152172e+001
2.3162151e+001
2.3286150e+001
2.3518618e+001
2.3847179e+001
2.4263811e+001
2.4842360e+001
2.5604799e+001
2.6603752e+001
2.7832230e+001
2.9170704e+001
3.0584200e+001
3.1945492e+001
3.3242512e+001
3.4584904e+001
3.6037647e+001
3.8097366e+001
4.0811501e+001
4.3689579e+001
4.6552608e+001
4.8737762e+001
5.0259434e+001
5.1543999e+001
5.2628147e+001
5.3651428e+001
5.4518898e+001
5.5027439e+001
5.5052231e+001
5.4515808e+001
5.3581173e+001
5.2525402e+001
5.1377224e+001
5.0164101e+001
4.8803890e+001
4.7228264e+001
4.5527279e+001
4.3699188e+001
4.1884430e+001
4.0136761e+001
3.8245602e+001
3.6182404e+001
3.3575428e+001
3.0287550e+001
2.7023136e+001
2.3838247e+001
2.1164686e+001
1.9057699e+001
1.6980713e+001
1.4932523e+001
1.2848188e+001
1.0731902e+001
8.5929956e+000
6.4871264e+000
4.5276937e+000
2.8148057e+000
1.4972762e+000
5.8981198e-001
1.0938799e-001
1.4592022e-001
6.0923338e-001
1.2700074e+000
1.9887166e+000
2.6187158e+000
3.0894704e+000
3.5241668e+000
3.9809601e+000
4.5484080e+000
5.2763000e+000
5.9845643e+000
6.6048498e+000
7.0257010e+000
7.1438890e+000
7.1737967e+000
7.0852041e+000
6.9627728e+000
6.7955399e+000
6.5703588e+000
6.2696028e+000
5.8600607e+000
5.3483605e+000
4.8131433e+000
4.2859678e+000
3.8742523e+000
3.5940423e+000
3.4554062e+000
3.4580553e+000
3.5704181e+000
3.7717686e+000
4.0379682e+000
4.3319597e+000
4.6622753e+000
5.0144768e+000
5.3980699e+000
5.7848544e+000
6.1484694e+000
6.4640040e+000
6.6888032e+000
6.8682427e+000
6.9686756e+000
7.0578704e+000
7.0983624e+000
7.0684924e+000
6.9128900e+000
6.6442523e+000
6.2228718e+000
5.7488456e+000
5.2213941e+000
4.6902118e+000
4.1798267e+000
3.7082720e+000
3.2852242e+000
2.9170063e+000
2.5606022e+000
2.1592300e+000
1.7215228e+000
1.2450805e+000
7.9666001e-001
4.5807987e-001
2.0456547e-001
7.5861588e-002
1.5335491e-002
4.4889871e-002
1.3805115e-001
2.7654800e-001
4.2375481e-001
5.8342254e-001
7.3491776e-001
8.6049372e-001
9.7360855e-001
1.0354660e+000
1.0930860e+000
1.1475635e+000
1.2389457e+000
1.4031851e+000
1.6200821e+000
1.9105937e+000
2.2164121e+000
2.5334201e+000
2.8236077e+000
3.0679681e+000
3.2549407e+000
3.3726463e+000
3.4223437e+000
3.4170573e+000
3.3625200e+000
3.2836394e+000
3.1865718e+000
3.0900714e+000
3.0027337e+000
2.9311049e+000
2.8917441e+000
2.8795838e+000
2.9244678e+000
2.9872839e+000
3.0824306e+000
3.1772730e+000
3.2714760e+000
3.3775187e+000
3.5121891e+000
3.6635652e+000
3.8445597e+000
4.0239468e+000
4.1995540e+000
4.3778095e+000
4.5594649e+000
4.7586298e+000
4.9720898e+000
5.1786628e+000
5.3740497e+000
5.5485926e+000
5.7169404e+000
5.9105721e+000
6.1266747e+000
6.3722563e+000
6.6198792e+000
6.8336239e+000
7.0145006e+000
7.1189814e+000
7.1749840e+000
7.1208801e+000
7.0116959e+000
6.7601109e+000
6.4610167e+000
6.0353236e+000
5.5715365e+000
5.0168905e+000
4.4460406e+000
3.8488600e+000
3.2850618e+000
2.7865229e+000
2.3542299e+000
2.0176954e+000
1.7273586e+000
1.4883680e+000
1.2610264e+000
1.0451441e+000
8.3395338e-001
6.2877500e-001
4.3288621e-001
2.4579744e-001
7.3456511e-002
-8.3044440e-002
-2.0130643e-001
-2.9245767e-001
-3.2399949e-001
-3.2424760e-001
-2.5030804e-001
-1.4674938e-001
3.6862195e-002
2.3090135e-001
4.4490397e-001
6.4501041e-001
7.9991192e-001
9.3930233e-001
1.0396559e+000
1.1255314e+000
1.1789324e+000
1.1987572e+000
1.1592103e+000
1.0729600e+000
9.2366588e-001
7.4897295e-001
5.5084425e-001
3.6786669e-001
2.0582062e-001
9.2110276e-002
2.0053076e-002
-4.5805826e-004
1.5054278e-002
1.1610897e-001
2.6198709e-001
4.7250098e-001
6.9779110e-001
9.0935999e-001
1.0994738e+000
1.1885159e+000
1.2535324e+000
1.2394886e+000
1.2350532e+000
1.2777697e+000
1.3453865e+000
1.4889491e+000
1.6126100e+000
1.6796120e+000
1.6759207e+000
1.5353892e+000
1.3773937e+000
1.2039143e+000
1.1101111e+000
1.1251600e+000
1.2333956e+000
1.4366965e+000
1.6819879e+000
1.9579886e+000
2.2248619e+000
2.4798949e+000
2.6855330e+000
2.8536458e+000
2.9100175e+000
2.9130566e+000
2.7961028e+000
2.6524806e+000
2.5100844e+000
2.3784640e+000
2.3262968e+000
2.2800813e+000
2.2469378e+000
2.2035770e+000
2.1156299e+000
2.0229213e+000
1.9171920e+000
1.8298228e+000
1.7878035e+000
1.7660540e+000
1.7791687e+000
1.7762052e+000
1.7485921e+000
1.7063700e+000
1.6496418e+000
1.6080091e+000
1.5764339e+000
1.5051317e+000
1.3989679e+000
1.2103977e+000
9.7725940e-001
7.2762638e-001
4.7537172e-001
2.6655895e-001
7.6730154e-002
-3.2655224e-002
-1.2189302e-001
-1.3856320e-001
-1.5226950e-001
-2.0364781e-001
-2.6609078e-001
-4.0178427e-001
-5.3195179e-001
-6.3691425e-001
-7.2256601e-001
-7.4925572e-001
-7.7479565e-001
-7.9849184e-001
-8.3113718e-001
-8.7869889e-001
-9.2996097e-001
-9.8567820e-001
-1.0432026e+000
-1.1012143e+000
-1.1297953e+000
-1.1324385e+000
-1.0873674e+000
-1.0122025e+000
-9.2059648e-001
-8.2121480e-001
-7.1681422e-001
-6.1044639e-001
-4.8811859e-001
-3.6247927e-001
-2.3149344e-001
-1.0250613e-001
-3.4455016e-002
2.5694039e-002
9.3626492e-003
2.2610268e-003
1.8743016e-003
6.4620674e-002
3.0569080e-001
5.5873311e-001
8.4568763e-001
1.0760311e+000
1.1846285e+000
1.2371589e+000
1.1999292e+000
1.1401600e+000
1.0525454e+000
9.2529017e-001
7.6126850e-001
6.1198884e-001
4.7397873e-001
4.2629027e-001
4.2705950e-001
4.1500005e-001
3.9957565e-001
3.4439245e-001
2.8063267e-001
3.2557997e-001
3.8845149e-001
4.3143001e-001
