Image.
>Pix99999.
  .
5555
5555
2300
900
5555
2
1
0
701
5555
-1.4170000e-002
-1.4464578e-002
-1.4760154e-002
-1.5054735e-002
-1.5349315e-002
-1.5643893e-002
-1.5938470e-002
-1.6234040e-002
-1.6528629e-002
-1.6823208e-002
-1.7117785e-002
-1.7413350e-002
-1.7707942e-002
-1.8002521e-002
-1.8297099e-002
-1.8591678e-002
-1.8887235e-002
-1.9181836e-002
-1.9476414e-002
-1.9770993e-002
-2.0065572e-002
-2.0361120e-002
-2.0655727e-002
-2.0950306e-002
-2.1244885e-002
-2.1540429e-002
-8.0046570e-004
5.1075894e-002
1.0691860e-001
1.6804504e-001
2.2997114e-001
2.4377362e-001
2.5315532e-001
2.4127860e-001
2.2751175e-001
2.0689000e-001
1.7669040e-001
1.0442473e-001
2.6604582e-002
-6.1167516e-002
-1.3470206e-001
-1.7591463e-001
-1.9206619e-001
-1.7047122e-001
-1.2511361e-001
-5.3045042e-002
1.7011505e-002
8.3462760e-002
1.0301811e-001
8.7685741e-002
3.4613285e-002
-3.8858723e-002
-6.6787936e-002
-7.4128397e-002
-3.9663855e-002
7.9442859e-003
2.5350361e-003
-1.5262384e-002
-7.8431271e-002
-1.4798112e-001
-1.9284600e-001
-2.3180932e-001
-2.2968408e-001
-2.1742921e-001
-1.6931503e-001
-1.1760000e-001
-6.5374047e-002
-3.1022489e-002
-4.2604804e-002
-6.8382144e-002
-1.1226781e-001
-1.3793048e-001
-1.3448754e-001
-1.1690892e-001
-8.6828128e-002
-6.0574640e-002
-3.8853399e-002
-1.1073425e-002
2.1280510e-002
4.8146222e-002
7.1752861e-002
5.6274224e-002
2.4375491e-002
-3.6590699e-002
-1.0637980e-001
-1.5347201e-001
-1.9508862e-001
-1.9251625e-001
-1.8268713e-001
-1.6791818e-001
-1.5574557e-001
-1.6846450e-001
-1.8691915e-001
-2.1504009e-001
-2.4437006e-001
-2.7299401e-001
-3.0706137e-001
-3.5323444e-001
-4.0259761e-001
-4.5426440e-001
-4.8557857e-001
-4.8968980e-001
-4.7627211e-001
-4.4880366e-001
-4.4774652e-001
-4.7036901e-001
-5.1593339e-001
-5.7454592e-001
-6.0982800e-001
-6.3182032e-001
-6.2728786e-001
-6.1235350e-001
-5.8162796e-001
-5.4607141e-001
-5.2356738e-001
-5.0523531e-001
-5.4407609e-001
-5.9453088e-001
-6.5275931e-001
-7.0655781e-001
-7.2764027e-001
-7.4512130e-001
-7.7197278e-001
-8.0687684e-001
-8.5670513e-001
-8.9839143e-001
-9.1803157e-001
-9.1847527e-001
-8.9722908e-001
-8.7718928e-001
-8.6465514e-001
-8.7614846e-001
-9.0941459e-001
-9.5408499e-001
-1.0040601e+000
-1.0252614e+000
-1.0269526e+000
-1.0120620e+000
-9.8978537e-001
-1.0143700e+000
-1.0594400e+000
-1.1390945e+000
-1.2304560e+000
-1.3036269e+000
-1.3711349e+000
-1.4215508e+000
-1.4653689e+000
-1.4909899e+000
-1.5079383e+000
-1.5039008e+000
-1.4929428e+000
-1.4749712e+000
-1.4558257e+000
-1.4409944e+000
-1.4292639e+000
-1.4250871e+000
-1.4286412e+000
-1.4401946e+000
-1.4557434e+000
-1.4719976e+000
-1.4715343e+000
-1.4544380e+000
-1.4176506e+000
-1.3675715e+000
-1.3454988e+000
-1.3428822e+000
-1.3854148e+000
-1.4511386e+000
-1.4959480e+000
-1.5306914e+000
-1.5361743e+000
-1.5322771e+000
-1.5405022e+000
-1.5528353e+000
-1.5513915e+000
-1.5430000e+000
-1.5230337e+000
-1.5013353e+000
-1.4983863e+000
-1.4986790e+000
-1.4953800e+000
-1.4925947e+000
-1.4888920e+000
-1.5023499e+000
-1.5394920e+000
-1.5734129e+000
-1.5920004e+000
-1.5617222e+000
-1.4852269e+000
-1.3908169e+000
-1.2946571e+000
-1.2190815e+000
-1.1591343e+000
-1.1113417e+000
-1.0681617e+000
-1.0662557e+000
-1.0873079e+000
-1.1393418e+000
-1.2059375e+000
-1.2128181e+000
-1.1919714e+000
-1.1078273e+000
-1.0043683e+000
-9.4258493e-001
-9.1488767e-001
-9.7176135e-001
-1.0602469e+000
-1.1504605e+000
-1.2208365e+000
-1.2401820e+000
-1.2315700e+000
-1.1967533e+000
-1.1508435e+000
-1.0970443e+000
-1.0414449e+000
-9.9529213e-001
-9.7123021e-001
-9.7530830e-001
-9.9852985e-001
-1.0293260e+000
-1.0581886e+000
-1.0808278e+000
-1.0871634e+000
-1.0801494e+000
-1.0531000e+000
-1.0115882e+000
-9.7889972e-001
-9.4876009e-001
-9.3569171e-001
-9.3206573e-001
-9.1818273e-001
-9.0064722e-001
-8.6637485e-001
-8.1862277e-001
-7.5616544e-001
-6.8729788e-001
-6.3516629e-001
-6.0978115e-001
-6.2537396e-001
-6.6171330e-001
-6.9742399e-001
-7.2056288e-001
-7.2183913e-001
-7.1124804e-001
-6.9736397e-001
-6.8146950e-001
-6.6542906e-001
-6.5461874e-001
-6.4506686e-001
-6.2502867e-001
-5.9520000e-001
-5.3622919e-001
-4.6244961e-001
-3.9290330e-001
-3.3290362e-001
-2.7851844e-001
-2.2947401e-001
-1.6978911e-001
-1.0674638e-001
-4.4218898e-002
1.6407657e-002
7.1660899e-002
1.2034580e-001
1.3635144e-001
1.3273485e-001
1.0873981e-001
8.0507323e-002
7.4277543e-002
2.9089868e-002
-8.8761374e-002
-2.0192128e-001
-2.6781550e-001
-2.5296256e-001
-1.5441620e-001
-3.0250482e-002
9.0195000e-002
1.2162092e-001
6.0278349e-002
-1.5487168e-002
-8.4215291e-002
-3.0033600e-002
1.2386170e-001
2.5681370e-001
3.5896793e-001
2.9612783e-001
1.2135631e-001
-1.5813116e-002
-9.6556425e-002
1.1099257e-002
2.9621431e-001
8.3453834e-001
1.5210627e+000
2.1710439e+000
2.7754242e+000
3.3396540e+000
4.0329986e+000
5.0264192e+000
6.5694685e+000
8.7812357e+000
1.1823891e+001
1.5633286e+001
1.9487150e+001
2.3059177e+001
2.6263159e+001
2.9167194e+001
3.2620899e+001
3.6705193e+001
4.1584454e+001
4.7079441e+001
5.1883587e+001
5.6034641e+001
6.0047070e+001
6.4043411e+001
6.8743210e+001
7.3949776e+001
7.8985352e+001
8.3738434e+001
8.7816772e+001
9.1260132e+001
9.4120979e+001
9.6438286e+001
9.8292664e+001
9.9567703e+001
1.0014310e+002
9.9698021e+001
9.7991356e+001
9.5594643e+001
9.3050179e+001
9.0385574e+001
8.7650261e+001
8.4307899e+001
8.0199944e+001
7.5832024e+001
7.1409073e+001
6.7278343e+001
6.3487335e+001
5.9640919e+001
5.5687382e+001
5.1710945e+001
4.7732098e+001
4.3939571e+001
4.0364639e+001
3.7226784e+001
3.4532249e+001
3.2242588e+001
3.0331743e+001
2.8650337e+001
2.7219709e+001
2.6039600e+001
2.5129345e+001
2.4479500e+001
2.4078444e+001
2.3873285e+001
2.3825975e+001
2.3875463e+001
2.3999886e+001
2.4177778e+001
2.4406420e+001
2.4684570e+001
2.5072315e+001
2.5588572e+001
2.6278379e+001
2.7139708e+001
2.8086761e+001
2.9095760e+001
3.0125458e+001
3.1176908e+001
3.2435387e+001
3.3991879e+001
3.6374653e+001
3.9654057e+001
4.3281269e+001
4.7049358e+001
5.0053654e+001
5.2290657e+001
5.4165501e+001
5.5665352e+001
5.6883041e+001
5.7686180e+001
5.7895123e+001
5.7477882e+001
5.6504673e+001
5.5136017e+001
5.3625465e+001
5.2010406e+001
5.0324650e+001
4.8507454e+001
4.6509251e+001
4.4363892e+001
4.2054153e+001
3.9848202e+001
3.7847439e+001
3.5907162e+001
3.4030872e+001
3.1680937e+001
2.8711185e+001
2.5675423e+001
2.2605831e+001
1.9965231e+001
1.7800190e+001
1.5657715e+001
1.3545020e+001
1.1443405e+001
9.3734446e+000
7.3586149e+000
5.4502840e+000
3.7185960e+000
2.2427917e+000
1.1193171e+000
3.8010252e-001
6.5421462e-002
3.0017209e-001
1.0497057e+000
2.0318439e+000
3.0740311e+000
3.9902050e+000
4.6686578e+000
5.2654281e+000
5.8396797e+000
6.4275980e+000
7.0367398e+000
7.5161438e+000
7.7703304e+000
7.8665338e+000
7.7349563e+000
7.5539570e+000
7.3086162e+000
7.0539088e+000
6.7858353e+000
6.4823780e+000
6.1233783e+000
5.6577783e+000
5.0920157e+000
4.5095396e+000
3.9474261e+000
3.5084887e+000
3.2100639e+000
3.0583594e+000
3.0488381e+000
3.1510742e+000
3.3294742e+000
3.5450890e+000
3.7638855e+000
3.9805725e+000
4.1970477e+000
4.4216428e+000
4.6636906e+000
4.9248686e+000
5.2113442e+000
5.5336308e+000
5.8621287e+000
6.1869760e+000
6.4470000e+000
6.5727563e+000
6.5771894e+000
6.3868103e+000
6.0940046e+000
5.6671977e+000
5.2132411e+000
4.7358069e+000
4.2685118e+000
3.8314533e+000
3.4341140e+000
3.0832956e+000
2.7775965e+000
2.4724228e+000
2.1008120e+000
1.6681975e+000
1.1682507e+000
6.8850058e-001
3.3367929e-001
9.0886392e-002
1.7745178e-002
2.1079220e-002
8.4356636e-002
1.6667143e-001
2.9857400e-001
4.5499057e-001
6.5611374e-001
8.5952473e-001
1.0572989e+000
1.2333423e+000
1.3501717e+000
1.4566549e+000
1.5494325e+000
1.6659594e+000
1.8322712e+000
2.0427182e+000
2.3167470e+000
2.6173687e+000
2.9402199e+000
3.2426493e+000
3.5052469e+000
3.7067471e+000
3.8413029e+000
3.9140921e+000
3.9425619e+000
3.9417970e+000
3.9206948e+000
3.8711762e+000
3.8059001e+000
3.7168479e+000
3.6311901e+000
3.5662484e+000
3.5144160e+000
3.4877422e+000
3.4644582e+000
3.4429650e+000
3.4238405e+000
3.4097984e+000
3.4058857e+000
3.4262629e+000
3.4640017e+000
3.5348051e+000
3.6227098e+000
3.7354243e+000
3.8653088e+000
4.0134292e+000
4.1691022e+000
4.3294492e+000
4.4814911e+000
4.6266742e+000
4.7702613e+000
4.9132643e+000
5.0588617e+000
5.2003250e+000
5.3197155e+000
5.4208775e+000
5.4866352e+000
5.5285559e+000
5.5247402e+000
5.4802895e+000
5.3325601e+000
5.1287909e+000
4.7773623e+000
4.3838243e+000
3.8811235e+000
3.3642492e+000
2.8159657e+000
2.2837329e+000
1.7872885e+000
1.3271842e+000
9.3300122e-001
5.8368266e-001
2.9965901e-001
4.8829556e-002
-1.6519040e-001
-3.7186298e-001
-5.6781971e-001
-7.4522436e-001
-8.9929003e-001
-1.0110495e+000
-1.0928645e+000
-1.1497600e+000
-1.1903131e+000
-1.2086200e+000
-1.2056303e+000
-1.1447647e+000
-1.0479553e+000
-8.5646975e-001
-6.2346601e-001
-2.7377981e-001
9.2416346e-002
4.9292520e-001
8.5828447e-001
1.1118550e+000
1.3174008e+000
1.4051501e+000
1.4697468e+000
1.4860941e+000
1.4755057e+000
1.4165432e+000
1.3155035e+000
1.1573327e+000
9.7474921e-001
7.6771677e-001
5.6468654e-001
3.6890617e-001
1.9620275e-001
5.5628479e-002
8.5132224e-003
4.1034132e-002
1.7846346e-001
3.7469316e-001
6.6973805e-001
9.9757886e-001
1.3570569e+000
1.7166328e+000
2.0466480e+000
2.3594387e+000
2.5944471e+000
2.8164010e+000
2.9906023e+000
3.1778359e+000
3.4072580e+000
3.6546350e+000
3.9435594e+000
4.2191739e+000
4.4651613e+000
4.6777034e+000
4.8373718e+000
4.9798265e+000
5.1031041e+000
5.2383423e+000
5.3869348e+000
5.5498686e+000
5.7255640e+000
5.9122343e+000
6.1022668e+000
6.2683277e+000
6.4057441e+000
6.4155316e+000
6.3696227e+000
6.2236452e+000
6.0667858e+000
5.9933619e+000
5.9507718e+000
6.0572648e+000
6.1739025e+000
6.3071175e+000
6.4144626e+000
6.4081330e+000
6.3806143e+000
6.2872648e+000
6.2009544e+000
6.1316071e+000
6.0627270e+000
5.9928780e+000
5.9112277e+000
5.8129153e+000
5.7191401e+000
5.6312876e+000
5.5497460e+000
5.4709768e+000
5.3599505e+000
5.2231593e+000
5.0463972e+000
4.8479147e+000
4.6413908e+000
4.4302845e+000
4.2051458e+000
3.9736533e+000
3.7144008e+000
3.4506738e+000
3.1891799e+000
2.9311337e+000
2.7090971e+000
2.4852042e+000
2.2459590e+000
1.9955574e+000
1.6970643e+000
1.4133980e+000
1.1772028e+000
9.7447622e-001
8.4725940e-001
7.1286476e-001
5.6664979e-001
4.2104805e-001
2.7991840e-001
1.9316018e-001
1.6199172e-001
1.2835005e-001
9.1302454e-002
2.9400114e-002
-4.2830803e-002
-3.2550950e-002
1.6164489e-002
8.7574027e-002
1.5979281e-001
1.0109852e-001
1.2620389e-002
-1.1247578e-001
-2.3652200e-001
-2.2772074e-001
-2.0528874e-001
-6.6689998e-002
1.2971312e-003
4.0135525e-002
1.0927211e-001
1.5207951e-001
1.7826685e-001
1.5604948e-001
1.3045621e-001
9.8002449e-002
7.8609698e-002
8.0550432e-002
1.0236400e-001
1.4817524e-001
1.7667016e-001
1.8789768e-001
1.3498406e-001
3.6480054e-002
-7.9649635e-002
-2.0427801e-001
-3.1786805e-001
-4.2565787e-001
-4.8819453e-001
-5.3743911e-001
-4.7659433e-001
-3.9767569e-001
-2.8281999e-001
