##TITLE=Methyl Ethyl Ketone
##JCAMP-DX=4.24
##DATA TYPE=INFRARED SPECTRUM
##XUNITS=cm-1
##YUNITS=Absorbance
##FIRSTX=900
##LASTX=2300
##XYDATA=(X++(Y..Y))
2296 0.026115
2294 0.026670206
2292 0.027224414
2290 0.027779618
2288 0.028333828
2286 0.028889028
2284 0.029444233
2282 0.02999845
2280 0.030553646
2278 0.031108851
2276 0.031663071
2274 0.032218263
2272 0.032773469
2270 0.033327691
2268 0.033882879
2266 0.034437109
2264 0.034992293
2262 0.035550427
2260 0.036101807
2258 0.036645234
2256 0.037211772
2254 0.037811939
2252 0.038323004
2250 0.038707484
2248 0.039424971
2246 0.038305394
2244 0.022032117
2242 -0.021359304
2240 -0.085857078
2238 -0.15944275
2236 -0.22646628
2234 -0.27404788
2232 -0.30451
2230 -0.32323107
2228 -0.33003643
2226 -0.32559001
2224 -0.32053074
2222 -0.32689053
2220 -0.35067588
2218 -0.39177445
2216 -0.43278658
2214 -0.45594499
2212 -0.4627578
2210 -0.46201187
2208 -0.4679752
2206 -0.49067807
2204 -0.51649207
2202 -0.52860135
2200 -0.52689099
2198 -0.51890731
2196 -0.52172786
2194 -0.55032349
2192 -0.59924299
2190 -0.65605325
2188 -0.70606297
2186 -0.73579055
2184 -0.7390672
2182 -0.71385336
2180 -0.66527593
2178 -0.60247511
2176 -0.54171085
2174 -0.50035262
2172 -0.49094838
2170 -0.51932615
2168 -0.570526
2166 -0.62337786
2164 -0.65939224
2162 -0.66655463
2160 -0.65516967
2158 -0.64151442
2156 -0.63565099
2154 -0.64404583
2152 -0.66773874
2150 -0.70641041
2148 -0.76151276
2146 -0.83381569
2144 -0.91834372
2142 -1.0086867
2140 -1.100804
2138 -1.1897895
2136 -1.2635715
2134 -1.3098243
2132 -1.3253943
2130 -1.3141074
2128 -1.296032
2126 -1.2911643
2124 -1.2949226
2122 -1.2940112
2120 -1.2783252
2118 -1.2447644
2116 -1.2137086
2114 -1.20806
2112 -1.2256925
2110 -1.2519863
2108 -1.2610539
2106 -1.2317364
2104 -1.1776446
2102 -1.1256087
2100 -1.101128
2098 -1.1210521
2096 -1.1702286
2094 -1.2246932
2092 -1.2754852
2090 -1.3213491
2088 -1.3686982
2086 -1.422635
2084 -1.4724799
2082 -1.5035353
2080 -1.509576
2078 -1.4910724
2076 -1.4586056
2074 -1.426106
2072 -1.4039479
2070 -1.3970102
2068 -1.3954629
2066 -1.3850207
2064 -1.3582217
2062 -1.3149053
2060 -1.2725294
2058 -1.251307
2056 -1.2532885
2054 -1.2704293
2052 -1.2857729
2050 -1.2828597
2048 -1.2607172
2046 -1.2253965
2044 -1.183768
2042 -1.1423749
2040 -1.1064634
2038 -1.0796256
2036 -1.06189
2034 -1.0507715
2032 -1.0398121
2030 -1.022634
2028 -1.0001875
2026 -0.9754265
2024 -0.94623941
2022 -0.90763557
2020 -0.85285538
2018 -0.77800709
2016 -0.69411004
2014 -0.61977047
2012 -0.57689387
2010 -0.58249485
2008 -0.62801421
2006 -0.69116759
2004 -0.74144524
2002 -0.75048381
2000 -0.71225566
1998 -0.63430065
1996 -0.53679574
1994 -0.44308493
1992 -0.36760449
1990 -0.31737298
1988 -0.28731319
1986 -0.26785377
1984 -0.25351295
1982 -0.24228191
1980 -0.23687254
1978 -0.2391278
1976 -0.23800571
1974 -0.2172337
1972 -0.16554917
1970 -0.080388978
1968 0.016000805
1966 0.092406094
1964 0.13104287
1962 0.12711532
1960 0.099333994
1958 0.073469803
1956 0.057196002
1954 0.047714002
1952 0.040125117
1950 0.031720042
1948 0.030671611
1946 0.048167501
1944 0.084151477
1942 0.13121392
1940 0.17718257
1938 0.21013218
1936 0.22786313
1934 0.23471712
1932 0.24040361
1930 0.25608456
1928 0.28863913
1926 0.3405602
1924 0.40615481
1922 0.474159
1920 0.52729619
1918 0.54915822
1916 0.53984201
1914 0.5109452
1912 0.48393032
1910 0.48069176
1908 0.50496179
1906 0.54829204
1904 0.59467077
1902 0.62817889
1900 0.64778018
1898 0.66236866
1896 0.68641716
1894 0.73328358
1892 0.80107772
1890 0.8770349
1888 0.93980151
1886 0.96822631
1884 0.9600572
1882 0.92650193
1880 0.88823742
1878 0.86865389
1876 0.88346899
1874 0.94080186
1872 1.0369155
1870 1.1563642
1868 1.2607737
1866 1.3055199
1864 1.2756159
1862 1.181782
1860 1.0648534
1858 0.97478306
1856 0.928994
1854 0.92199928
1852 0.94129181
1850 0.97329283
1848 1.0091392
1846 1.0425143
1844 1.0642438
1842 1.0659161
1840 1.051356
1838 1.0336268
1836 1.0311557
1834 1.06084
1832 1.1200961
1830 1.1911013
1828 1.2431934
1826 1.2447778
1824 1.1894486
1822 1.0903538
1820 0.97165561
1818 0.85889482
1816 0.7606557
1814 0.67395687
1812 0.59633869
1810 0.52955282
1808 0.48688218
1806 0.48421499
1804 0.5155406
1802 0.5596562
1800 0.59647286
1798 0.61325419
1796 0.61872214
1794 0.63100713
1792 0.64642203
1790 0.64755398
1788 0.63000232
1786 0.6016165
1784 0.57617539
1782 0.56812125
1780 0.58252609
1778 0.61828613
1776 0.67722601
1774 0.75692958
1772 0.82211626
1770 0.82033205
1768 0.72833341
1766 0.55581874
1764 0.354536
1762 0.18809374
1760 0.05085874
1758 -0.10335996
1756 -0.26165301
1754 -0.36891282
1752 -0.40606731
1750 -0.39109379
1748 -0.36030293
1746 -0.35327357
1744 -0.38337612
1742 -0.4381763
1740 -0.48112386
1738 -0.46853709
1736 -0.393702
1734 -0.28520402
1732 -0.19693512
1730 -0.18512896
1728 -0.2477956
1726 -0.33187959
1724 -0.36273491
1722 -0.26106969
1720 0.028433368
1718 0.52628589
1716 1.1833335
1714 1.9011329
1712 2.5893924
1710 3.1984608
1708 3.8031418
1706 4.5789833
1704 5.7247133
1702 7.4391589
1700 9.9051027
1698 13.20323
1696 16.993286
1694 20.654011
1692 23.828169
1690 26.501812
1688 29.032412
1686 31.992134
1684 35.738163
1682 40.291069
1680 45.112122
1678 49.378464
1676 52.941502
1674 56.2812
1672 59.861992
1670 63.943165
1668 68.375702
1666 72.7286
1664 76.777916
1662 80.537338
1660 84.054344
1658 87.370399
1656 90.534286
1654 93.576492
1652 96.407539
1650 98.801468
1648 100.38531
1646 100.77679
1644 100.07427
1642 98.772232
1640 97.149086
1638 95.182434
1636 92.703682
1634 89.516792
1632 85.68235
1630 81.487
1628 77.121651
1626 72.635582
1624 68.029518
1622 63.305157
1620 58.561085
1618 53.977272
1616 49.683342
1614 45.74263
1612 42.207966
1610 39.124931
1608 36.483578
1606 34.220016
1604 32.270153
1602 30.582262
1600 29.12565
1598 27.887381
1596 26.85
1594 25.990112
1592 25.287298
1590 24.727604
1588 24.308483
1586 24.036892
1584 23.91785
1582 23.955799
1580 24.171389
1578 24.599466
1576 25.257399
1574 26.133537
1572 27.171177
1570 28.276274
1568 29.38492
1566 30.480642
1564 31.590557
1562 32.807186
1560 34.362419
1558 36.543552
1556 39.248402
1554 41.962608
1552 44.244553
1550 45.884804
1548 46.997841
1546 47.965607
1544 49.016846
1542 50.118649
1540 51.060059
1538 51.523277
1536 51.326714
1534 50.499119
1532 49.252811
1530 47.922436
1528 46.682446
1526 45.4925
1524 44.271008
1522 42.947556
1520 41.477242
1518 39.852272
1516 38.1301
1514 36.415634
1512 34.708519
1510 32.868576
1508 30.71242
1506 28.0861
1504 25.086977
1502 22.078312
1500 19.327797
1498 16.90151
1496 14.738857
1494 12.693327
1492 10.681317
1490 8.7173738
1488 6.8330412
1486 5.058497
1484 3.447696
1482 2.0809746
1480 1.0252156
1478 0.32906127
1476 0.066992268
1474 0.3202188
1472 1.0099463
1470 1.868582
1468 2.6841221
1466 3.3826323
1464 3.993969
1462 4.6336403
1460 5.3770547
1458 6.2075939
1456 7.0078602
1454 7.576046
1452 7.8102522
1450 7.7658134
1448 7.5339403
1446 7.2029858
1444 6.8316779
1442 6.4399052
1440 6.0395885
1438 5.6380424
1436 5.2141886
1434 4.7180147
1432 4.1387429
1430 3.5298853
1428 2.9691401
1426 2.5414851
1424 2.2966862
1422 2.2304142
1420 2.3099177
1418 2.4807458
1416 2.6923084
1414 2.91115
1412 3.1359048
1410 3.4027877
1408 3.7417285
1406 4.1593671
1404 4.6439881
1402 5.164793
1400 5.6849918
1398 6.1659865
1396 6.5705643
1394 6.8668633
1392 7.0394864
1390 7.0952659
1388 7.0428472
1386 6.8863101
1384 6.6282325
1382 6.2726111
1380 5.8349032
1378 5.3477736
1376 4.8473573
1374 4.3681083
1372 3.937458
1370 3.5680809
1368 3.245508
1366 2.9192908
1364 2.5388191
1362 2.0728524
1360 1.5367154
1358 1.0091341
1356 0.56579959
1354 0.25081024
1352 0.07377468
1350 0.0027069366
1348 0.0078500956
1346 0.077785857
1344 0.2052016
1342 0.37950456
1340 0.57008898
1338 0.71900821
1336 0.78472632
1334 0.76551574
1332 0.68707854
1330 0.60249048
1328 0.55358464
1326 0.55303735
1324 0.6047076
1322 0.70802665
1320 0.8573668
1318 1.039326
1316 1.2329199
1314 1.4085871
1312 1.5426954
1310 1.6265098
1308 1.6605477
1306 1.6558322
1304 1.6252686
1302 1.580619
1300 1.5336934
1298 1.4969957
1296 1.4833429
1294 1.5054662
1292 1.5724969
1290 1.6862856
1288 1.8419321
1286 2.0259786
1284 2.2244987
1282 2.4272115
1280 2.6279376
1278 2.8261437
1276 3.0205357
1274 3.206903
1272 3.3842852
1270 3.5602665
1268 3.7513194
1266 3.9859719
1264 4.2910786
1262 4.68332
1260 5.16785
1258 5.7316852
1256 6.3554626
1254 7.0160928
1252 7.6950011
1250 8.3845139
1248 9.0820084
1246 9.7891502
1244 10.503977
1242 11.215
1240 11.901222
1238 12.526068
1236 13.049
1234 13.425908
1232 13.62228
1230 13.620544
1228 13.421557
1226 13.052857
1224 12.548006
1222 11.942383
1220 11.268223
1218 10.551122
1216 9.812274
1214 9.071763
1212 8.3471231
1210 7.6551752
1208 7.0101056
1206 6.420156
1204 5.882678
1202 5.3749461
1200 4.8668323
1198 4.324017
1196 3.7269499
1194 3.0900764
1192 2.4421039
1190 1.8249201
1188 1.2753869
1186 0.81284523
1184 0.44676948
1182 0.17443001
1180 -0.011074133
1178 -0.11944053
1176 -0.161588
1174 -0.14996742
1172 -0.099872962
1170 -0.031669386
1168 0.035634849
1166 0.089401014
1164 0.12358997
1162 0.1434086
1160 0.15545137
1158 0.16307202
1156 0.16609114
1154 0.15825789
1152 0.13400097
1150 0.09299697
1148 0.039905917
1146 -0.012079742
1144 -0.047838565
1142 -0.05321186
1140 -0.020354442
1138 0.045355752
1136 0.14429343
1134 0.29680932
1132 0.5189333
1130 0.80486602
1128 1.1412349
1126 1.5089942
1124 1.8876946
1122 2.2560706
1120 2.5948119
1118 2.8896978
1116 3.1386871
1114 3.3653071
1112 3.5914853
1110 3.8200724
1108 4.0502071
1106 4.2839952
1104 4.5335441
1102 4.831501
1100 5.1989236
1098 5.6146631
1096 6.0464287
1094 6.4616499
1092 6.8451762
1090 7.2267771
1088 7.6353421
1086 8.0689573
1084 8.5074883
1082 8.9042501
1080 9.2209892
1078 9.4589052
1076 9.6306057
1074 9.753459
1072 9.8401375
1070 9.887742
1068 9.8965111
1066 9.8849363
1064 9.8720121
1062 9.865263
1060 9.8605242
1058 9.8287277
1056 9.7395687
1054 9.5772343
1052 9.3352814
1050 9.0256624
1048 8.6679058
1046 8.2907286
1044 7.9234099
1042 7.5897031
1040 7.3069878
1038 7.0766807
1036 6.8907199
1034 6.7240825
1032 6.541398
1030 6.2902279
1028 5.9284267
1026 5.457541
1024 4.9028263
1022 4.3274579
1020 3.7889078
1018 3.3006084
1016 2.8599343
1014 2.4491038
1012 2.0522828
1010 1.670639
1008 1.312596
1006 0.99647713
1004 0.74129486
1002 0.5591923
1000 0.44872135
998 0.37054932
996 0.27945215
994 0.14174435
992 -0.060661227
990 -0.30532426
988 -0.56467187
986 -0.82654136
984 -1.0806268
982 -1.3102362
980 -1.492974
978 -1.5943415
976 -1.5877143
974 -1.4839716
972 -1.302742
970 -1.0619807
968 -0.77616811
966 -0.450854
964 -0.099895999
962 0.22674525
960 0.47520876
958 0.60962427
956 0.61544573
954 0.53632838
952 0.42403761
950 0.3082462
948 0.20807335
946 0.12478764
944 0.055522777
942 -0.0010372009
940 -0.029403273
938 0.044156224
936 0.27596942
934 0.60660994
932 0.94920278
930 1.2222846
928 1.3672119
926 1.4057672
924 1.385816
922 1.3779142
920 1.4387372
918 1.551802
916 1.6784728
914 1.7664838
912 1.7803919
910 1.762452
908 1.7681255
906 1.8298514
904 1.9631138
902 2.1403184
900 2.3310874
898 2.5364273
896 2.7653
