Image.
>Pix99999.
  .
5555
5555
2300
900
5555
2
1
0
701
5555
2.5900001e-002
2.6439229e-002
2.6977459e-002
2.7516687e-002
2.8054919e-002
2.8594142e-002
2.9132381e-002
2.9671600e-002
3.0210828e-002
3.0749070e-002
3.1288285e-002
3.1826530e-002
3.2365743e-002
3.2903992e-002
3.3443201e-002
3.3982430e-002
3.4520682e-002
3.5059888e-002
3.5598140e-002
3.6137342e-002
3.6675598e-002
3.7214797e-002
3.7754029e-002
3.8292289e-002
3.8831484e-002
3.9369751e-002
1.4630200e-003
1.1839993e-002
3.5833079e-002
1.1250851e-001
1.9674471e-001
2.3294073e-001
2.6231515e-001
2.1660744e-001
1.7049526e-001
1.4911750e-001
1.3135822e-001
1.2382001e-001
1.0165129e-001
3.2861851e-002
-2.7852830e-002
-6.5150425e-002
-8.0024078e-002
-6.0484201e-002
-7.4745119e-002
-1.3375756e-001
-2.1736917e-001
-3.2183418e-001
-3.9973855e-001
-4.5672309e-001
-5.0987142e-001
-5.6167674e-001
-6.3713729e-001
-7.2306252e-001
-8.1512344e-001
-9.0893036e-001
-9.3936598e-001
-9.5516694e-001
-8.6224526e-001
-7.5276423e-001
-6.0830200e-001
-4.6673459e-001
-3.9437598e-001
-3.3616039e-001
-3.2178524e-001
-3.0735266e-001
-2.7747622e-001
-2.5779879e-001
-2.6812831e-001
-2.8214917e-001
-2.9721099e-001
-2.6104394e-001
-1.5055035e-001
-4.4984620e-002
4.6225261e-002
2.1247892e-002
-1.0518498e-001
-2.7459291e-001
-4.6669486e-001
-5.4808581e-001
-5.6784970e-001
-4.8642096e-001
-3.6455837e-001
-2.8062904e-001
-2.0987840e-001
-2.1838614e-001
-2.4526244e-001
-1.9144580e-001
-1.2064245e-001
2.6103366e-002
1.6839606e-001
1.9758339e-001
1.9944109e-001
1.5377158e-001
1.2085917e-001
1.4727150e-001
1.7094657e-001
1.6887619e-001
1.3733220e-001
6.2486932e-002
6.7545683e-003
-1.6072009e-002
-2.0070486e-002
-9.5739402e-003
-5.3473517e-002
-1.4317855e-001
-2.6737121e-001
-4.0986350e-001
-5.1863271e-001
-6.0887069e-001
-6.6267782e-001
-7.0246083e-001
-6.8099803e-001
-6.4051324e-001
-5.5437726e-001
-4.5979786e-001
-4.2995703e-001
-4.2152318e-001
-4.8989078e-001
-5.7484537e-001
-6.6737831e-001
-7.4902141e-001
-7.8973562e-001
-8.0091321e-001
-7.6090425e-001
-7.0683676e-001
-6.4702278e-001
-6.0331529e-001
-5.8204597e-001
-5.7102203e-001
-5.6292111e-001
-5.6025261e-001
-5.6302911e-001
-5.8812100e-001
-6.3251394e-001
-6.7641747e-001
-7.1975249e-001
-7.1393198e-001
-6.8369269e-001
-6.5104955e-001
-6.1699796e-001
-6.6620761e-001
-7.4070370e-001
-8.3695233e-001
-9.3386024e-001
-9.7788900e-001
-1.0039148e+000
-1.0069669e+000
-9.9917668e-001
-9.8204029e-001
-9.5478284e-001
-9.1192228e-001
-8.7767190e-001
-8.5978556e-001
-8.6888260e-001
-9.0253079e-001
-9.4829071e-001
-1.0032821e+000
-1.0629443e+000
-1.1320139e+000
-1.1648086e+000
-1.1656960e+000
-1.0504440e+000
-8.5411012e-001
-6.3915521e-001
-4.2129600e-001
-3.9681616e-001
-4.7058341e-001
-6.4773399e-001
-8.6313993e-001
-1.0038164e+000
-1.1127102e+000
-1.1612022e+000
-1.1835572e+000
-1.1907543e+000
-1.1989250e+000
-1.2280492e+000
-1.2754778e+000
-1.3180302e+000
-1.3524382e+000
-1.3582001e+000
-1.3577449e+000
-1.3783979e+000
-1.3988943e+000
-1.4263777e+000
-1.3777028e+000
-1.2374645e+000
-1.0203029e+000
-7.3682660e-001
-5.6031889e-001
-4.7834516e-001
-4.8950127e-001
-5.5701619e-001
-5.9277290e-001
-6.0607463e-001
-6.7976832e-001
-7.8569120e-001
-9.0412974e-001
-1.0218433e+000
-9.6042615e-001
-8.1639433e-001
-5.4983020e-001
-2.5473857e-001
-6.5311760e-002
2.5258800e-002
-1.0781736e-001
-3.5347182e-001
-6.8255943e-001
-1.0002135e+000
-1.2340242e+000
-1.3512900e+000
-1.3350322e+000
-1.1761103e+000
-8.8529950e-001
-6.2076283e-001
-4.0691006e-001
-4.3626139e-001
-6.7681140e-001
-1.0233122e+000
-1.4280312e+000
-1.7536628e+000
-2.0217776e+000
-2.1116383e+000
-2.1023936e+000
-1.9076639e+000
-1.6285286e+000
-1.4152278e+000
-1.2591971e+000
-1.3038658e+000
-1.4297521e+000
-1.5299957e+000
-1.5663000e+000
-1.4180349e+000
-1.1619709e+000
-7.8827876e-001
-4.6827686e-001
-3.6367175e-001
-4.6028191e-001
-8.0026758e-001
-1.1795367e+000
-1.4972686e+000
-1.6647255e+000
-1.6636920e+000
-1.5753790e+000
-1.4406811e+000
-1.3123200e+000
-1.2017732e+000
-1.0817188e+000
-9.6251059e-001
-8.0161005e-001
-6.1154932e-001
-4.0965587e-001
-1.8483919e-001
-4.4659164e-002
6.2252268e-002
1.2481271e-001
1.7580971e-001
2.2326954e-001
2.9030004e-001
4.3605721e-001
6.5215433e-001
9.8344195e-001
1.2820005e+000
1.3741872e+000
1.2450571e+000
8.6357391e-001
4.5636299e-001
1.8057957e-001
5.4574326e-002
-7.0880800e-002
-1.1713728e-001
-1.3028823e-002
3.9372629e-001
1.0859470e+000
1.8158560e+000
2.5062394e+000
2.7346230e+000
2.5679827e+000
2.3627436e+000
2.1831906e+000
2.3533599e+000
2.7656775e+000
2.8433983e+000
2.6582870e+000
1.9364560e+000
9.2664754e-001
1.8489754e-001
-2.2817110e-001
8.1284225e-002
9.7182083e-001
2.3895428e+000
3.8511264e+000
4.7487040e+000
5.2917953e+000
5.6384320e+000
6.2145400e+000
7.3453999e+000
9.2430525e+000
1.1994414e+001
1.5283201e+001
1.8943287e+001
2.2273199e+001
2.5016325e+001
2.7573677e+001
3.0058868e+001
3.3320457e+001
3.7380314e+001
4.1907612e+001
4.6767319e+001
5.0782986e+001
5.4065742e+001
5.7454666e+001
6.0997993e+001
6.5268745e+001
7.0050591e+001
7.4710152e+001
7.9221985e+001
8.3376068e+001
8.7214531e+001
9.0743210e+001
9.4034233e+001
9.7168365e+001
9.9983757e+001
1.0233638e+002
1.0332074e+002
1.0233357e+002
9.9996971e+001
9.6903946e+001
9.3638687e+001
9.0509697e+001
8.7062683e+001
8.3166031e+001
7.8968987e+001
7.4585655e+001
7.0362816e+001
6.6329254e+001
6.2236679e+001
5.8046036e+001
5.3922226e+001
4.9872559e+001
4.5870571e+001
4.1949806e+001
3.8262093e+001
3.4877079e+001
3.1976297e+001
2.9542749e+001
2.7454967e+001
2.5711424e+001
2.4256384e+001
2.3096489e+001
2.2186001e+001
2.1483913e+001
2.0914925e+001
2.0449852e+001
2.0054552e+001
1.9817799e+001
1.9775743e+001
2.0030119e+001
2.0596571e+001
2.1538902e+001
2.2866343e+001
2.4378963e+001
2.6037374e+001
2.7522118e+001
2.8776440e+001
2.9918056e+001
3.0959202e+001
3.2308968e+001
3.4077080e+001
3.6846836e+001
4.0527672e+001
4.3996979e+001
4.7098022e+001
4.9229496e+001
5.0604698e+001
5.2040646e+001
5.3570087e+001
5.5262653e+001
5.6536140e+001
5.6723190e+001
5.5804459e+001
5.3928009e+001
5.1828838e+001
5.0116562e+001
4.8815052e+001
4.7927002e+001
4.7124790e+001
4.6250603e+001
4.4829971e+001
4.2711243e+001
4.0376816e+001
3.7943985e+001
3.5770802e+001
3.3874222e+001
3.1563520e+001
2.8667593e+001
2.5596256e+001
2.2439695e+001
1.9792864e+001
1.7736130e+001
1.5807142e+001
1.3998696e+001
1.2239792e+001
1.0479364e+001
8.6312380e+000
6.6757464e+000
4.6120043e+000
2.6926365e+000
1.2137905e+000
2.9034567e-001
3.0575457e-003
2.4981984e-001
1.0113446e+000
1.8195580e+000
2.3382878e+000
2.7128963e+000
2.9181678e+000
3.2560205e+000
3.8660426e+000
4.6399479e+000
5.6240001e+000
6.3257980e+000
6.6098561e+000
6.5886388e+000
6.1645098e+000
5.6791787e+000
5.1174092e+000
4.6399617e+000
4.2804818e+000
4.1027603e+000
4.0731130e+000
4.0171514e+000
3.8512955e+000
3.4692788e+000
2.9695680e+000
2.5432773e+000
2.2895663e+000
2.3125050e+000
2.5284588e+000
2.8697765e+000
3.2036228e+000
3.4092231e+000
3.5967045e+000
3.7664206e+000
3.9933081e+000
4.3172708e+000
4.6832495e+000
5.1282783e+000
5.5877399e+000
6.0739794e+000
6.4686427e+000
6.7072225e+000
6.7748475e+000
6.6184621e+000
6.3908620e+000
6.0713801e+000
5.7208157e+000
5.3358674e+000
4.9837298e+000
4.6704674e+000
4.4225345e+000
4.1919456e+000
3.9237719e+000
3.6147723e+000
3.2636738e+000
2.9131923e+000
2.5708001e+000
2.1999638e+000
1.7738612e+000
1.3165331e+000
8.5736191e-001
4.7104555e-001
2.0777893e-001
3.4994569e-002
-2.1213330e-002
-2.4358362e-002
1.1196932e-001
3.3566979e-001
7.0341122e-001
1.0447851e+000
1.3291228e+000
1.4524782e+000
1.3689388e+000
1.2536110e+000
1.1183560e+000
1.0804657e+000
1.1641371e+000
1.3787186e+000
1.7302942e+000
2.1587977e+000
2.6188302e+000
2.9718142e+000
3.2073784e+000
3.2773712e+000
3.2529976e+000
3.1991079e+000
3.1438148e+000
3.1175849e+000
3.0908289e+000
3.0505805e+000
2.9956143e+000
2.9349382e+000
2.8911884e+000
2.9074633e+000
2.9482040e+000
3.0369308e+000
3.1253369e+000
3.2157969e+000
3.3092594e+000
3.4160247e+000
3.5468886e+000
3.7144239e+000
3.9053292e+000
4.1198444e+000
4.3213968e+000
4.5062075e+000
4.6637168e+000
4.8002930e+000
4.9345021e+000
5.0739937e+000
5.2410002e+000
5.4460449e+000
5.7115030e+000
6.0311503e+000
6.4059691e+000
6.8091497e+000
7.2295685e+000
7.6372018e+000
7.9902444e+000
8.2865849e+000
8.4431276e+000
8.5296698e+000
8.4676361e+000
8.3564548e+000
8.1312542e+000
7.8744988e+000
7.5330529e+000
7.1664948e+000
6.7424617e+000
6.3037891e+000
5.8372002e+000
5.3599238e+000
4.8649683e+000
4.3749352e+000
3.8986228e+000
3.4562764e+000
3.0544901e+000
2.6615658e+000
2.2725606e+000
1.8685334e+000
1.4511572e+000
1.0278590e+000
6.0843474e-001
2.1928105e-001
-1.3112621e-001
-3.7468600e-001
-5.6218791e-001
-6.6196406e-001
-7.2685796e-001
-7.3522204e-001
-7.0770800e-001
-5.6871200e-001
-4.0285876e-001
-1.5479752e-001
8.1926063e-002
2.8604186e-001
4.5586550e-001
5.3993720e-001
5.9560364e-001
5.9219670e-001
5.6983918e-001
5.1661891e-001
4.6372300e-001
4.1359749e-001
3.8539359e-001
3.7447500e-001
3.3344823e-001
2.6203156e-001
1.5388529e-001
3.6886569e-002
1.1126742e-003
2.6379928e-002
1.7655875e-001
3.8301718e-001
6.3119340e-001
8.9666247e-001
1.1893826e+000
1.4830735e+000
1.7578280e+000
2.0186229e+000
2.2151628e+000
2.4133067e+000
2.6209109e+000
2.8098242e+000
2.9364879e+000
3.0229001e+000
3.0160193e+000
3.0357177e+000
3.1106424e+000
3.2187405e+000
3.3789141e+000
3.5548916e+000
3.7593861e+000
4.0290580e+000
4.3628206e+000
4.7045879e+000
5.0470104e+000
5.3553967e+000
5.6351128e+000
5.8626199e+000
6.0407429e+000
6.0372429e+000
5.9650340e+000
5.8177042e+000
5.6810145e+000
5.7357898e+000
5.8336320e+000
6.0649595e+000
6.2880869e+000
6.4168382e+000
6.5184598e+000
6.5017171e+000
6.4760380e+000
6.4210482e+000
6.3687925e+000
6.3245249e+000
6.2897930e+000
6.2774096e+000
6.2938890e+000
6.3524976e+000
6.4058599e+000
6.4420733e+000
6.3739824e+000
6.2045746e+000
5.9554710e+000
5.6590528e+000
5.4434738e+000
5.2724032e+000
5.1201015e+000
4.9537606e+000
4.5508628e+000
4.0653057e+000
3.3690491e+000
2.6449661e+000
2.0124121e+000
1.4126244e+000
1.1116353e+000
8.3969450e-001
7.4927616e-001
6.4130092e-001
4.5396572e-001
2.2065261e-001
-1.5285212e-001
-5.2984995e-001
-9.1017377e-001
-1.2266099e+000
-1.4276960e+000
-1.5112140e+000
-1.4337480e+000
-1.2531402e+000
-9.6598542e-001
-6.8372631e-001
-4.0969864e-001
-2.1791518e-001
-7.8849256e-002
3.0374147e-002
1.2686998e-001
2.4507309e-001
3.6966991e-001
4.5825565e-001
5.3773683e-001
5.6630254e-001
5.8591485e-001
5.3081310e-001
4.6252596e-001
2.4669512e-001
4.7767125e-002
-2.8513446e-003
-7.8595355e-002
1.8257159e-001
4.8323801e-001
8.9802343e-001
1.2995094e+000
1.6735207e+000
2.0827377e+000
2.5470805e+000
2.9930701e+000
3.4132218e+000
3.6862590e+000
3.8213098e+000
3.8077159e+000
3.6906822e+000
3.6274703e+000
3.5932281e+000
3.8866520e+000
4.3022046e+000
4.9602075e+000
5.6778378e+000
6.3623400e+000
7.0401659e+000
7.6452999e+000
