Image.
>Pix99999.
  .
5555
5555
2300
900
5555
2
1
0
701
5555
2.3047000e-002
2.3526315e-002
2.4005629e-002
2.4484944e-002
2.4965251e-002
2.5444571e-002
2.5923885e-002
2.6403200e-002
2.6882514e-002
2.7361829e-002
2.7841143e-002
2.8323410e-002
2.8800806e-002
2.9272234e-002
2.9759239e-002
3.0269049e-002
3.0718736e-002
3.1086111e-002
3.1673726e-002
3.2570411e-002
3.2648429e-002
3.1575240e-002
3.3545006e-002
3.9804552e-002
3.4756687e-002
9.4302036e-003
3.1568084e-004
4.0975124e-002
1.0185196e-001
1.4182891e-001
1.4549829e-001
1.1354490e-001
8.1506640e-002
8.3354175e-002
1.0663962e-001
1.2794100e-001
1.3438790e-001
1.2368368e-001
1.2305108e-001
1.6087809e-001
2.3525743e-001
3.3473310e-001
4.4651279e-001
5.5899066e-001
6.6673720e-001
7.6238352e-001
8.2321107e-001
8.2717198e-001
7.7420032e-001
6.7496568e-001
5.5575788e-001
4.4342053e-001
3.4783629e-001
2.7378157e-001
2.2737974e-001
2.1293971e-001
2.2528480e-001
2.5376749e-001
2.7793548e-001
2.8113621e-001
2.7478600e-001
2.7825135e-001
3.0553624e-001
3.6471561e-001
4.4776571e-001
5.4323536e-001
6.4749116e-001
7.5614899e-001
8.5061991e-001
9.0684980e-001
8.9828497e-001
8.0728024e-001
6.5546733e-001
4.8280144e-001
3.4874421e-001
3.0496964e-001
3.4489736e-001
4.3588030e-001
5.2245170e-001
5.5627000e-001
5.4899716e-001
5.3230882e-001
5.3150070e-001
5.6132007e-001
6.0513884e-001
6.4110035e-001
6.7215180e-001
7.0934474e-001
7.5837255e-001
8.1959033e-001
8.8080686e-001
9.2793179e-001
9.5789415e-001
9.7234458e-001
9.7477049e-001
9.7049946e-001
9.7014654e-001
9.8436189e-001
1.0155876e+000
1.0597943e+000
1.0999000e+000
1.1161109e+000
1.0986786e+000
1.0453373e+000
9.6931797e-001
8.8835299e-001
8.1597626e-001
7.6167142e-001
7.2620589e-001
7.0839596e-001
7.1301043e-001
7.4683958e-001
8.1435716e-001
9.1490501e-001
1.0305333e+000
1.1348593e+000
1.1948994e+000
1.1822622e+000
1.0973514e+000
9.5757896e-001
8.0242145e-001
6.7555666e-001
6.0249960e-001
5.9622961e-001
6.5095609e-001
7.5051147e-001
8.6691660e-001
9.6809709e-001
1.0242039e+000
1.0146911e+000
9.5232153e-001
8.6620611e-001
7.9270488e-001
7.6183772e-001
7.6673794e-001
7.8604794e-001
8.0665904e-001
8.2317883e-001
8.4339505e-001
8.7621301e-001
9.1134799e-001
9.3335718e-001
9.4313455e-001
9.4858289e-001
9.5367259e-001
9.5905900e-001
9.6086276e-001
9.5505178e-001
9.4502228e-001
9.3649435e-001
9.2967713e-001
9.2256254e-001
9.1570574e-001
9.1151279e-001
9.1424435e-001
9.2873818e-001
9.5869976e-001
1.0044404e+000
1.0541369e+000
1.0921409e+000
1.1111858e+000
1.1139611e+000
1.1257129e+000
1.1744847e+000
1.2538984e+000
1.3357543e+000
1.3750920e+000
1.3320594e+000
1.2210680e+000
1.0836380e+000
9.5983160e-001
8.7883502e-001
8.3515781e-001
8.0898631e-001
7.9395735e-001
7.9378998e-001
8.2021147e-001
8.8360029e-001
9.7321910e-001
1.0660359e+000
1.1343943e+000
1.1543486e+000
1.1232660e+000
1.0549300e+000
9.8390764e-001
9.5286292e-001
9.9527568e-001
1.1253066e+000
1.2977183e+000
1.4397050e+000
1.4950186e+000
1.4336214e+000
1.2881023e+000
1.1183228e+000
9.5826441e-001
8.2292473e-001
7.1992642e-001
6.5832752e-001
6.6472930e-001
7.6772392e-001
9.6041715e-001
1.2071012e+000
1.4380854e+000
1.5729550e+000
1.5611446e+000
1.3856878e+000
1.0958652e+000
7.7428889e-001
4.9112126e-001
2.9824051e-001
2.1432801e-001
2.3576103e-001
3.4179726e-001
4.9899706e-001
6.5455848e-001
7.5294554e-001
7.7374631e-001
7.2518939e-001
6.4440811e-001
5.7563549e-001
5.2709800e-001
4.8197600e-001
4.1630545e-001
3.1155816e-001
1.8215200e-001
6.2311180e-002
-1.6761078e-002
-3.5340115e-002
-6.8960711e-003
3.7787259e-002
8.1362583e-002
1.2182098e-001
1.7815651e-001
2.7471697e-001
4.0538669e-001
5.3940070e-001
6.2877965e-001
6.2693042e-001
5.3284502e-001
3.7813330e-001
2.0387457e-001
4.9668029e-002
-6.3671634e-002
-1.2705393e-001
-1.2722646e-001
-5.5367552e-002
5.8210254e-002
1.5842390e-001
1.9829194e-001
1.5593983e-001
8.4324427e-002
7.2955750e-002
1.5242864e-001
2.9961130e-001
4.5683739e-001
5.6028241e-001
6.0006678e-001
6.0564405e-001
6.0585028e-001
6.2386584e-001
6.8166405e-001
7.8996903e-001
9.0878749e-001
9.6692216e-001
9.1391462e-001
7.3428029e-001
4.8406839e-001
2.5346452e-001
6.6299371e-002
-9.7898573e-002
-2.1389256e-001
-2.2329414e-001
-1.0114724e-001
1.3555923e-001
4.1410610e-001
6.3217604e-001
7.2102201e-001
6.6136271e-001
5.2434552e-001
4.3181905e-001
4.4764400e-001
5.6349176e-001
6.7916131e-001
6.5531206e-001
4.5870316e-001
1.5954663e-001
-1.0761207e-001
-1.8245651e-001
4.6716049e-002
6.2133086e-001
1.4541885e+000
2.3734396e+000
3.2494485e+000
4.0332174e+000
4.8349800e+000
5.8818665e+000
7.3954268e+000
9.5559902e+000
1.2454496e+001
1.6043385e+001
1.9938856e+001
2.3559570e+001
2.6621960e+001
2.9196009e+001
3.1695240e+001
3.4729366e+001
3.8716908e+001
4.3745316e+001
4.9254082e+001
5.4328339e+001
5.8774956e+001
6.3080807e+001
6.7724258e+001
7.2943687e+001
7.8396294e+001
8.3334351e+001
8.7317619e+001
9.0290077e+001
9.2401550e+001
9.3912941e+001
9.5057175e+001
9.5989174e+001
9.6715561e+001
9.7099785e+001
9.6891571e+001
9.5840927e+001
9.4076019e+001
9.2036522e+001
8.9984825e+001
8.7924011e+001
8.5669556e+001
8.2947937e+001
7.9678062e+001
7.5970528e+001
7.1915115e+001
6.7544052e+001
6.2876759e+001
5.7952881e+001
5.2914948e+001
4.7991257e+001
4.3365345e+001
3.9154186e+001
3.5440968e+001
3.2274040e+001
2.9628834e+001
2.7418558e+001
2.5570883e+001
2.4045103e+001
2.2818909e+001
2.1881361e+001
2.1212999e+001
2.0784950e+001
2.0578777e+001
2.0586016e+001
2.0801666e+001
2.1221764e+001
2.1835423e+001
2.2637489e+001
2.3682796e+001
2.5083223e+001
2.6929087e+001
2.9249645e+001
3.1937105e+001
3.4763775e+001
3.7555042e+001
4.0231159e+001
4.2789059e+001
4.5312740e+001
4.8021431e+001
5.1163174e+001
5.4488243e+001
5.7258141e+001
5.8989296e+001
5.9644386e+001
5.9518578e+001
5.9112926e+001
5.8640907e+001
5.7937714e+001
5.6739540e+001
5.4818855e+001
5.2259544e+001
4.9466190e+001
4.6781666e+001
4.4373127e+001
4.2241566e+001
4.0243450e+001
3.8222420e+001
3.6060539e+001
3.3729492e+001
3.1305275e+001
2.8934071e+001
2.6782557e+001
2.4847321e+001
2.2924049e+001
2.0807316e+001
1.8385042e+001
1.5774343e+001
1.3315444e+001
1.1226091e+001
9.5055838e+000
8.0481434e+000
6.6917863e+000
5.3561296e+000
4.0723796e+000
2.8803296e+000
1.8038650e+000
8.7774760e-001
1.5612312e-001
-2.9622591e-001
-3.9897114e-001
-3.0570418e-002
9.3806452e-001
2.4263206e+000
4.1025400e+000
5.6856356e+000
7.0530586e+000
8.2422571e+000
9.4395838e+000
1.0786366e+001
1.2294468e+001
1.3795800e+001
1.4953213e+001
1.5556257e+001
1.5621591e+001
1.5269086e+001
1.4680357e+001
1.3993388e+001
1.3266570e+001
1.2533731e+001
1.1809645e+001
1.1071614e+001
1.0260789e+001
9.3621073e+000
8.4346676e+000
7.5669198e+000
6.8595405e+000
6.3720789e+000
6.1007214e+000
6.0134563e+000
6.0598397e+000
6.1938114e+000
6.3842897e+000
6.6197033e+000
6.9102139e+000
7.2609220e+000
7.6602564e+000
8.0769644e+000
8.4564142e+000
8.7362843e+000
8.8546677e+000
8.7739210e+000
8.4961615e+000
8.0573788e+000
7.5274057e+000
6.9655185e+000
6.4040098e+000
5.8655281e+000
5.3665719e+000
4.9176631e+000
4.5190554e+000
4.1501112e+000
3.7643487e+000
3.3251882e+000
2.8223400e+000
2.2641401e+000
1.6777893e+000
1.0906185e+000
5.2647221e-001
2.6760846e-002
-3.4181702e-001
-5.2410114e-001
-4.9495327e-001
-2.5312686e-001
1.7366797e-001
7.4105787e-001
1.3912499e+000
2.0796919e+000
2.7834239e+000
3.4586163e+000
4.0208983e+000
4.3838344e+000
4.4814367e+000
4.3044581e+000
3.9289961e+000
3.4466696e+000
2.9413507e+000
2.4839115e+000
2.1228735e+000
1.8799651e+000
1.7377852e+000
1.6549900e+000
1.5689582e+000
1.4360640e+000
1.2555211e+000
1.0485537e+000
8.5500634e-001
7.0329314e-001
5.9646302e-001
5.3807116e-001
5.4382622e-001
6.3955146e-001
8.6133677e-001
1.2315835e+000
1.7422482e+000
2.3647401e+000
3.0464792e+000
3.7279153e+000
4.3488464e+000
4.8599753e+000
5.2357168e+000
5.4763999e+000
5.6206732e+000
5.7192488e+000
5.8271413e+000
5.9876719e+000
6.2205734e+000
6.5381579e+000
6.9493237e+000
7.4623399e+000
8.0848913e+000
8.8183489e+000
9.6522083e+000
1.0574217e+001
1.1574512e+001
1.2643851e+001
1.3776250e+001
1.4949314e+001
1.6114531e+001
1.7204536e+001
1.8129213e+001
1.8804556e+001
1.9164728e+001
1.9163401e+001
1.8783634e+001
1.8037857e+001
1.6976349e+001
1.5669223e+001
1.4205961e+001
1.2685857e+001
1.1220890e+001
9.9210968e+000
8.8809481e+000
8.1685801e+000
7.7996306e+000
7.7450633e+000
7.9076481e+000
8.1640053e+000
8.3724747e+000
8.4125900e+000
8.2201729e+000
7.7731075e+000
7.1118407e+000
6.3045988e+000
5.4461269e+000
4.6233816e+000
3.8911600e+000
3.2740171e+000
2.7495675e+000
2.2939661e+000
1.9056091e+000
1.5983000e+000
1.4053987e+000
1.3445566e+000
1.3875127e+000
1.4902177e+000
1.6000700e+000
1.6787629e+000
1.7242371e+000
1.7416023e+000
1.7327237e+000
1.6935872e+000
1.6101640e+000
1.4717469e+000
1.2813888e+000
1.0493808e+000
7.9589570e-001
5.4547620e-001
3.2697347e-001
1.5814079e-001
2.9749550e-002
-6.3449144e-002
-1.0352550e-001
-7.8940690e-002
-6.8614185e-003
8.5661419e-002
1.6572957e-001
2.1168058e-001
2.3279865e-001
2.4976400e-001
2.9149544e-001
3.7628171e-001
4.9124902e-001
6.1448389e-001
7.2158194e-001
7.9957104e-001
8.6540103e-001
9.4151092e-001
1.0448111e+000
1.1779648e+000
1.3120053e+000
1.4233571e+000
1.5233845e+000
1.6451020e+000
1.8531020e+000
2.1961982e+000
2.6598058e+000
3.1938479e+000
3.6959255e+000
4.0644116e+000
4.2339058e+000
4.1752114e+000
3.9317932e+000
3.5763447e+000
3.2113628e+000
2.9290721e+000
2.7729506e+000
2.7523119e+000
2.8152549e+000
2.8947678e+000
2.9243937e+000
2.8613884e+000
2.7284074e+000
2.5712376e+000
2.4540980e+000
2.4242365e+000
2.4672427e+000
2.5529494e+000
2.6499691e+000
2.7429023e+000
2.8613327e+000
3.0375600e+000
3.2776632e+000
3.5578086e+000
3.7857661e+000
3.8652341e+000
3.7387085e+000
3.3959434e+000
2.9372492e+000
2.4820275e+000
2.1226680e+000
1.9151572e+000
1.8255354e+000
1.7909843e+000
1.7284763e+000
1.5646081e+000
1.2726934e+000
8.6120892e-001
4.1211909e-001
1.2022167e-002
-2.9545829e-001
-4.9329355e-001
-6.1479795e-001
-6.9936210e-001
-7.6591301e-001
-8.2273048e-001
-8.6026841e-001
-8.7006021e-001
-8.6146164e-001
-8.4815323e-001
-8.4320551e-001
-8.5091400e-001
-8.4727693e-001
-8.0857301e-001
-7.3547906e-001
-6.4098531e-001
-5.5873650e-001
-5.1858002e-001
-5.1996601e-001
-5.4916358e-001
-5.7341254e-001
-5.6104058e-001
-5.0080454e-001
-3.9344281e-001
-2.6390514e-001
-1.4041018e-001
-4.1071746e-002
3.4014888e-002
1.3951463e-001
3.2636005e-001
5.8306742e-001
8.8033372e-001
1.1804498e+000
1.4454428e+000
1.6428039e+000
1.7429383e+000
1.7198507e+000
1.5618141e+000
1.3072143e+000
1.0188475e+000
8.0276531e-001
7.4518132e-001
8.1309444e-001
9.3561268e-001
1.0105991e+000
9.5988411e-001
8.2865489e-001
6.8838936e-001
5.9253150e-001
5.8148921e-001
6.6172248e-001
8.3121997e-001
