Image.
>Pix99999.
  .
5555
5555
2300
900
5555
2
1
0
701
5555
-9.6488997e-002
-9.8539062e-002
-1.0059412e-001
-1.0264122e-001
-1.0468829e-001
-1.0673536e-001
-1.0879234e-001
-1.1083950e-001
-1.1288657e-001
-1.1493364e-001
-1.1699057e-001
-1.1904763e-001
-1.2108503e-001
-1.2312211e-001
-1.2518860e-001
-1.2731436e-001
-1.2929474e-001
-1.3107677e-001
-1.3338034e-001
-1.3642667e-001
-1.3752028e-001
-1.3587190e-001
-1.4146678e-001
-1.5726936e-001
-1.4617281e-001
-7.8949466e-002
-2.8405001e-003
2.1422552e-002
-3.4839921e-002
-1.7933780e-001
-3.7241000e-001
-5.6230837e-001
-7.0239234e-001
-7.5381780e-001
-7.0273197e-001
-5.5714899e-001
-3.8424656e-001
-2.5829837e-001
-2.1243775e-001
-2.5462753e-001
-3.4090969e-001
-4.1941142e-001
-4.6830100e-001
-4.8096624e-001
-4.7511560e-001
-4.7415599e-001
-4.9539369e-001
-5.4990429e-001
-6.3152224e-001
-7.2679037e-001
-8.1423211e-001
-8.7435335e-001
-9.0556532e-001
-9.1273963e-001
-9.0404141e-001
-8.8599402e-001
-8.5456479e-001
-8.0383605e-001
-7.3409516e-001
-6.4984065e-001
-5.6430310e-001
-4.9431974e-001
-4.6011308e-001
-4.7693500e-001
-5.3541040e-001
-6.1585766e-001
-6.8998039e-001
-7.3300815e-001
-7.4568707e-001
-7.3586792e-001
-7.0507997e-001
-6.5271002e-001
-5.7904094e-001
-4.8750758e-001
-3.9284757e-001
-3.1174749e-001
-2.5301474e-001
-2.2209570e-001
-2.2238880e-001
-2.5395757e-001
-3.0572200e-001
-3.6217049e-001
-4.0578586e-001
-4.2202637e-001
-4.1110680e-001
-3.7834370e-001
-3.2811403e-001
-2.6583570e-001
-2.0336331e-001
-1.5302932e-001
-1.1913729e-001
-1.0102560e-001
-8.9944623e-002
-7.5636819e-002
-5.3657599e-002
-1.9618029e-002
4.0152229e-002
1.3862363e-001
2.7092299e-001
4.2112800e-001
5.5650425e-001
6.4420092e-001
6.7678833e-001
6.6044724e-001
6.1581790e-001
5.6583250e-001
5.2112108e-001
4.8545840e-001
4.5527142e-001
4.2648900e-001
4.0426102e-001
3.9883801e-001
4.2573160e-001
4.9694234e-001
6.0155994e-001
7.1507913e-001
7.9565883e-001
8.0237484e-001
7.2636491e-001
5.8011466e-001
4.0857658e-001
2.6659524e-001
1.9618034e-001
2.2176199e-001
3.1914485e-001
4.4266999e-001
5.4205561e-001
5.7708865e-001
5.5405623e-001
4.9848613e-001
4.3215659e-001
3.7136132e-001
3.2058924e-001
2.8014448e-001
2.5393176e-001
2.4843493e-001
2.7325577e-001
3.3730507e-001
4.4117942e-001
5.7424194e-001
6.9433403e-001
7.5450975e-001
7.4719769e-001
6.8806368e-001
6.1181712e-001
5.5377781e-001
5.1952827e-001
5.0274080e-001
5.0700712e-001
5.3829402e-001
5.8936787e-001
6.4443827e-001
6.7927986e-001
6.7302775e-001
6.3446242e-001
5.8614194e-001
5.4798669e-001
5.3159285e-001
5.2242792e-001
4.9771935e-001
4.5302942e-001
3.9930448e-001
3.7161750e-001
4.0606320e-001
4.9527308e-001
6.0671294e-001
6.9552565e-001
7.2308052e-001
6.9726843e-001
6.4685678e-001
5.8849889e-001
5.2963448e-001
4.7191104e-001
4.1730642e-001
3.7939569e-001
3.7196252e-001
3.8307673e-001
3.8969615e-001
3.8030475e-001
3.5370201e-001
3.2262513e-001
3.0024111e-001
2.7224559e-001
2.1599299e-001
1.3811834e-001
6.9819555e-002
7.5868964e-002
2.1579897e-001
4.5379588e-001
7.0217639e-001
8.7823242e-001
9.2549980e-001
8.7072450e-001
7.7608579e-001
6.6151547e-001
5.2264011e-001
3.6802801e-001
2.2218275e-001
1.3741364e-001
1.6551866e-001
2.9139429e-001
4.5647264e-001
5.8332223e-001
5.9959632e-001
4.8693550e-001
2.6627529e-001
-7.7169016e-003
-2.6987338e-001
-4.8155493e-001
-6.2191415e-001
-6.7357701e-001
-6.2065971e-001
-4.5193937e-001
-1.7482314e-001
1.3299699e-001
3.5982987e-001
4.2737201e-001
3.0170560e-001
3.8764298e-002
-2.6164386e-001
-5.3490227e-001
-7.4786866e-001
-8.8887936e-001
-9.5956099e-001
-9.7439241e-001
-9.5739782e-001
-9.4460070e-001
-9.7132921e-001
-1.0398432e+000
-1.1274300e+000
-1.1960758e+000
-1.2017000e+000
-1.1061801e+000
-8.8892305e-001
-5.8710152e-001
-2.7810979e-001
-5.6860011e-002
-6.2324172e-003
-1.2264299e-001
-3.4201396e-001
-5.8369541e-001
-7.7321488e-001
-8.8353819e-001
-9.1992384e-001
-8.9046675e-001
-8.0467498e-001
-6.8667698e-001
-5.7026005e-001
-4.8782960e-001
-4.6003214e-001
-4.6376285e-001
-4.5444536e-001
-4.2305920e-001
-3.8621625e-001
-3.5088921e-001
-3.1089792e-001
-2.4588892e-001
-1.3089362e-001
4.1196503e-002
2.6476851e-001
5.3767574e-001
8.4843159e-001
1.1237119e+000
1.2562919e+000
1.1861863e+000
9.1618049e-001
5.5787802e-001
2.6682907e-001
6.6513769e-002
-1.0582281e-001
-2.2791128e-001
-2.0955467e-001
3.7242845e-003
4.0662330e-001
8.8542259e-001
1.2629356e+000
1.4134504e+000
1.2927518e+000
1.0092489e+000
7.5871170e-001
6.4599198e-001
6.6916800e-001
7.1745485e-001
6.3448340e-001
3.7918350e-001
2.6423141e-002
-2.6464576e-001
-2.9290700e-001
1.0388058e-001
9.9688923e-001
2.2059286e+000
3.3894773e+000
4.3387775e+000
5.0241451e+000
5.6346045e+000
6.5030351e+000
7.9240546e+000
1.0102200e+001
1.3070420e+001
1.6674345e+001
2.0481857e+001
2.3933849e+001
2.6835203e+001
2.9381067e+001
3.2062206e+001
3.5494297e+001
3.9987030e+001
4.5447235e+001
5.1216320e+001
5.6378838e+001
6.0803986e+001
6.5061798e+001
6.9608208e+001
7.4583801e+001
7.9641151e+001
8.4124901e+001
8.7704132e+001
9.0411224e+001
9.2402084e+001
9.3868698e+001
9.4950768e+001
9.5715019e+001
9.6129898e+001
9.6088280e+001
9.5479797e+001
9.4249573e+001
9.2565857e+001
9.0749992e+001
8.8919792e+001
8.6956490e+001
8.4632385e+001
8.1708572e+001
7.8177650e+001
7.4239769e+001
7.0034645e+001
6.5600067e+001
6.0935280e+001
5.6044106e+001
5.1050804e+001
4.6182201e+001
4.1612083e+001
3.7437984e+001
3.3733925e+001
3.0552290e+001
2.7879068e+001
2.5641893e+001
2.3767206e+001
2.2200888e+001
2.0930799e+001
1.9977871e+001
1.9349998e+001
1.9031242e+001
1.8979309e+001
1.9132963e+001
1.9449749e+001
1.9912678e+001
2.0520628e+001
2.1293341e+001
2.2311026e+001
2.3710478e+001
2.5619514e+001
2.8110937e+001
3.1085726e+001
3.4282349e+001
3.7451439e+001
4.0415527e+001
4.3114212e+001
4.5625927e+001
4.8185932e+001
5.1072369e+001
5.4083145e+001
5.6546131e+001
5.8045765e+001
5.8599041e+001
5.8521255e+001
5.8298073e+001
5.8119984e+001
5.7791977e+001
5.6980522e+001
5.5354446e+001
5.2940804e+001
5.0158039e+001
4.7406052e+001
4.4938446e+001
4.2818649e+001
4.0924999e+001
3.9100422e+001
3.7202660e+001
3.5144367e+001
3.2915703e+001
3.0606215e+001
2.8376019e+001
2.6259401e+001
2.4125460e+001
2.1832367e+001
1.9300722e+001
1.6645960e+001
1.4173981e+001
1.2072326e+001
1.0324771e+001
8.8290567e+000
7.4435697e+000
6.0860629e+000
4.7574072e+000
3.4692857e+000
2.2340336e+000
1.1104243e+000
2.1252249e-001
-3.4825230e-001
-4.7384983e-001
-4.4321448e-002
1.0484065e+000
2.6847017e+000
4.4818888e+000
6.1365976e+000
7.5445023e+000
8.7693377e+000
1.0020752e+001
1.1447025e+001
1.3042385e+001
1.4595600e+001
1.5708985e+001
1.6162607e+001
1.6035612e+001
1.5510703e+001
1.4809821e+001
1.4084954e+001
1.3379290e+001
1.2700989e+001
1.2038712e+001
1.1352586e+001
1.0582047e+001
9.7185049e+000
8.8347902e+000
8.0359726e+000
7.4358616e+000
7.0968947e+000
7.0003390e+000
7.0748520e+000
7.2063746e+000
7.3063025e+000
7.3444381e+000
7.3519773e+000
7.4213395e+000
7.6126161e+000
7.9168549e+000
8.2904320e+000
8.6632338e+000
8.9693203e+000
9.1582642e+000
9.1870575e+000
9.0250473e+000
8.6791677e+000
8.2061853e+000
7.6676054e+000
7.1125550e+000
6.5729346e+000
6.0598240e+000
5.5853705e+000
5.1650796e+000
4.7835999e+000
4.3797350e+000
3.8943760e+000
3.2942188e+000
2.5941327e+000
1.8714644e+000
1.1987435e+000
6.1886632e-001
1.6164821e-001
-1.5420982e-001
-3.1794986e-001
-3.2686651e-001
-1.7668308e-001
1.3896617e-001
6.0799336e-001
1.1910717e+000
1.8595920e+000
2.6043527e+000
3.3759246e+000
4.0538425e+000
4.5095057e+000
4.6401863e+000
4.4284859e+000
3.9855199e+000
3.4427342e+000
2.9132364e+000
2.4830353e+000
2.1947329e+000
2.0498781e+000
1.9967097e+000
1.9650700e+000
1.8801185e+000
1.7064776e+000
1.4773275e+000
1.2413694e+000
1.0436920e+000
9.0736759e-001
8.2021439e-001
7.7229178e-001
7.7243328e-001
8.3985430e-001
1.0030482e+000
1.2840137e+000
1.6872311e+000
2.1988640e+000
2.7782621e+000
3.3706677e+000
3.9098825e+000
4.3461308e+000
4.6668763e+000
4.8865514e+000
5.0523343e+000
5.2117925e+000
5.3993669e+000
5.6401258e+000
5.9468751e+000
6.3260751e+000
6.7774076e+000
7.2962961e+000
7.8738451e+000
8.5057030e+000
9.1976681e+000
9.9584837e+000
1.0797077e+001
1.1716394e+001
1.2705000e+001
1.3738260e+001
1.4769884e+001
1.5745651e+001
1.6601084e+001
1.7271486e+001
1.7689871e+001
1.7792959e+001
1.7527731e+001
1.6877829e+001
1.5893379e+001
1.4656029e+001
1.3275877e+001
1.1868869e+001
1.0541459e+001
9.3907681e+000
8.4902325e+000
7.8871050e+000
7.5841656e+000
7.5481324e+000
7.6904721e+000
7.8987699e+000
8.0407763e+000
8.0023642e+000
7.7217317e+000
7.1809287e+000
6.4303460e+000
5.5491800e+000
4.6413560e+000
3.8005757e+000
3.0845437e+000
2.5219548e+000
2.0982718e+000
1.7906500e+000
1.5805964e+000
1.4531800e+000
1.3976674e+000
1.4006366e+000
1.4406013e+000
1.4975429e+000
1.5598571e+000
1.6226875e+000
1.6913869e+000
1.7690480e+000
1.8462824e+000
1.9041400e+000
1.9087664e+000
1.8298000e+000
1.6544366e+000
1.3840140e+000
1.0452428e+000
6.8249714e-001
3.6530465e-001
1.4750099e-001
3.1193379e-002
-5.5094203e-003
-1.0374158e-002
-2.2578841e-002
-4.4515975e-002
-5.5484176e-002
-3.7328452e-003
1.4054693e-001
3.3657771e-001
5.3036839e-001
6.7946434e-001
7.6763827e-001
8.3377194e-001
9.0601122e-001
9.5351523e-001
9.3454689e-001
8.1972253e-001
6.2370229e-001
4.6211842e-001
4.5189482e-001
6.4772582e-001
1.0500600e+000
1.5605974e+000
2.0747080e+000
2.5343301e+000
2.9105058e+000
3.2202971e+000
3.4844964e+000
3.7044828e+000
3.8697698e+000
3.9526811e+000
3.9355001e+000
3.8378532e+000
3.6922634e+000
3.5393937e+000
3.4121406e+000
3.3156672e+000
3.2541440e+000
3.2453847e+000
3.2963417e+000
3.3752530e+000
3.4325571e+000
3.4003797e+000
3.2398372e+000
3.0068181e+000
2.7785773e+000
2.6260357e+000
2.5940468e+000
2.6579125e+000
2.7856967e+000
2.9715328e+000
3.2053502e+000
3.4453411e+000
3.6360543e+000
3.7053728e+000
3.6052499e+000
3.3700614e+000
3.0535097e+000
2.7057750e+000
2.3646057e+000
2.0327351e+000
1.7096286e+000
1.4102559e+000
1.1486459e+000
9.2347944e-001
7.1995443e-001
4.9422550e-001
2.1342903e-001
-9.8675638e-002
-3.9974165e-001
-6.3381100e-001
-7.6103503e-001
-8.0307263e-001
-7.9609382e-001
-7.7403313e-001
-7.6337075e-001
-7.6810139e-001
-7.8071940e-001
-7.7447420e-001
-7.1973723e-001
-5.9406567e-001
-3.9585745e-001
-1.8622836e-001
-3.4255564e-002
1.7108675e-002
-4.7820918e-002
-1.7484900e-001
-2.9913387e-001
-3.7870204e-001
-3.8754687e-001
-3.3510157e-001
-2.4043271e-001
-1.2573136e-001
-1.4574878e-002
6.7572407e-002
1.0184322e-001
9.4385326e-002
5.6739576e-002
-1.8471628e-003
-5.5091474e-002
-1.4279082e-002
1.9203284e-001
5.1603019e-001
8.7232614e-001
1.1470723e+000
1.2445806e+000
1.1620834e+000
9.4192946e-001
7.0650649e-001
5.9497797e-001
7.3268628e-001
1.1867986e+000
1.8156381e+000
2.4300361e+000
2.8585331e+000
3.0110054e+000
3.0944073e+000
3.3484604e+000
3.8493505e+000
4.5834785e+000
5.3445635e+000
5.8782001e+000
