##TITLE=Methyl Ethyl Ketone
##JCAMP-DX=4.24
##DATA TYPE=INFRARED SPECTRUM
##XUNITS=cm-1
##YUNITS=Absorbance
##FIRSTX=900
##LASTX=2300
##XYDATA=(X++(Y..Y))
2296 0.017856
2294 0.018227469
2292 0.018598936
2290 0.018970406
2288 0.019341875
2286 0.019713342
2284 0.020084811
2282 0.020456281
2280 0.02082775
2278 0.021199217
2276 0.021570686
2274 0.021942155
2272 0.022313623
2270 0.022685092
2268 0.023056561
2266 0.023428028
2264 0.023799498
2262 0.024170967
2260 0.02454146
2258 0.024913877
2256 0.025285373
2254 0.025656842
2252 0.026028309
2250 0.026398811
2248 0.026771212
2246 0.02714175
2244 0.0067129652
2242 0.003068188
2240 0.025738625
2238 0.039380442
2236 0.051563069
2234 0.061198648
2232 0.072385348
2230 0.12253438
2228 0.17505416
2226 0.23175049
2224 0.27974251
2222 0.28710568
2220 0.28799471
2218 0.27583927
2216 0.26418287
2214 0.25522602
2212 0.2465038
2210 0.23788951
2208 0.24339519
2206 0.26647234
2204 0.29643229
2202 0.33191025
2200 0.35143965
2198 0.35876361
2196 0.36988926
2194 0.38369927
2192 0.40941805
2190 0.44029316
2188 0.46702343
2186 0.49228922
2184 0.5245564
2182 0.55844897
2180 0.59025675
2178 0.62152356
2176 0.63623768
2174 0.64952016
2172 0.66397774
2170 0.67882901
2168 0.69540673
2166 0.70716351
2164 0.70075601
2162 0.68397415
2160 0.64522672
2158 0.6073373
2156 0.57528001
2154 0.55819315
2152 0.56194007
2150 0.57171315
2148 0.58582759
2146 0.58645928
2144 0.57477039
2142 0.54889393
2140 0.51406801
2138 0.498281
2136 0.49335229
2134 0.52571696
2132 0.57328761
2130 0.62164706
2128 0.66981357
2126 0.69082564
2124 0.70554334
2122 0.70380718
2120 0.69896477
2118 0.68376333
2116 0.66653812
2114 0.64491767
2112 0.62520444
2110 0.61661601
2108 0.61446065
2106 0.62681943
2104 0.64595222
2102 0.67536706
2100 0.70441079
2098 0.73034215
2096 0.73766142
2094 0.72129405
2092 0.67949164
2090 0.61494952
2088 0.54712242
2086 0.47914499
2084 0.43234807
2082 0.39950776
2080 0.38726696
2078 0.38497972
2076 0.39511815
2074 0.40995592
2072 0.44091642
2070 0.47696623
2068 0.51228559
2066 0.54670841
2064 0.54218841
2062 0.52823514
2060 0.49355564
2058 0.45819241
2056 0.44147715
2054 0.43205214
2052 0.43613183
2050 0.44111821
2048 0.44225913
2046 0.43713859
2044 0.42166001
2042 0.39982203
2040 0.37078983
2038 0.34541446
2036 0.32538712
2034 0.31046814
2032 0.29966268
2030 0.27537161
2028 0.24029988
2026 0.20234257
2024 0.16396417
2022 0.16072054
2020 0.1759686
2018 0.2039196
2016 0.235916
2014 0.24476378
2012 0.24520057
2010 0.23464066
2008 0.21994628
2006 0.18684621
2004 0.14640315
2002 0.088717028
2000 0.030728681
1998 -0.007534219
1996 -0.032478355
1994 -0.030934112
1992 -0.024904994
1990 -0.02554898
1988 -0.03540986
1986 -0.061105169
1984 -0.094681926
1982 -0.13393176
1980 -0.18227306
1978 -0.23836568
1976 -0.28759286
1974 -0.32830459
1972 -0.33100614
1970 -0.30549198
1968 -0.26411554
1966 -0.21605478
1964 -0.20428453
1962 -0.21289505
1960 -0.23556
1958 -0.26347172
1956 -0.27636927
1954 -0.28439862
1952 -0.30709022
1950 -0.33693013
1948 -0.38072133
1946 -0.42726001
1944 -0.46636486
1942 -0.49874657
1940 -0.52316213
1938 -0.54640746
1936 -0.57477283
1934 -0.6103332
1932 -0.65458316
1930 -0.69868535
1928 -0.73573363
1926 -0.75223774
1924 -0.74276161
1922 -0.71637964
1920 -0.68055844
1918 -0.66692632
1916 -0.67810398
1914 -0.69787908
1912 -0.71983778
1910 -0.71649462
1908 -0.69574833
1906 -0.6860562
1904 -0.68439639
1902 -0.70378667
1900 -0.73335153
1898 -0.73894107
1896 -0.73406571
1894 -0.7130748
1892 -0.68943763
1890 -0.69412309
1888 -0.71544313
1886 -0.76598781
1884 -0.82430691
1882 -0.87407172
1880 -0.91233724
1878 -0.92890269
1876 -0.93286198
1874 -0.92285758
1872 -0.90020913
1870 -0.86279607
1868 -0.82019621
1866 -0.78231186
1864 -0.76594448
1862 -0.77575606
1860 -0.79891562
1858 -0.82599878
1856 -0.85242945
1854 -0.8754158
1852 -0.89842635
1850 -0.91978341
1848 -0.92500877
1846 -0.91845536
1844 -0.89459795
1842 -0.8607443
1840 -0.83523768
1838 -0.81537986
1836 -0.79483598
1834 -0.7715621
1832 -0.72142005
1830 -0.65208209
1828 -0.5612753
1826 -0.46778849
1824 -0.40278256
1822 -0.36901775
1820 -0.37592021
1818 -0.40422475
1816 -0.43646342
1814 -0.46839499
1812 -0.49521112
1810 -0.51311642
1808 -0.52364802
1806 -0.50631648
1804 -0.46260825
1802 -0.41168687
1800 -0.35828298
1798 -0.32607228
1796 -0.31058142
1794 -0.27958575
1792 -0.23848279
1790 -0.17829505
1788 -0.11056902
1786 -0.062680356
1784 -0.029313561
1782 -0.0072103227
1780 0.0089070722
1778 0.036654629
1776 0.074917659
1774 0.13264494
1772 0.19467054
1770 0.22584689
1768 0.22644091
1766 0.18175322
1764 0.1232372
1762 0.085959494
1760 0.028903799
1758 -0.071188882
1756 -0.16470757
1754 -0.22483683
1752 -0.23687497
1750 -0.2011071
1748 -0.15653932
1746 -0.12059928
1744 -0.14334041
1742 -0.22550513
1740 -0.31411743
1738 -0.39584774
1736 -0.38608
1734 -0.30292952
1732 -0.20268479
1730 -0.10131571
1728 -0.10195735
1726 -0.17038636
1724 -0.19938585
1722 -0.173333
1720 0.018874452
1718 0.35418725
1716 0.86529112
1714 1.4626746
1712 1.9884194
1710 2.4709392
1708 2.9545479
1706 3.5878
1704 4.5151572
1702 5.9864717
1700 8.1229858
1698 11.153427
1696 15.050858
1694 19.065741
1692 22.845537
1690 26.215351
1688 29.215189
1686 32.73632
1684 36.877026
1682 41.903526
1680 47.634319
1678 52.681084
1676 57.071358
1674 61.267315
1672 65.412437
1670 70.396164
1668 76.022263
1666 81.7033
1664 87.273552
1662 92.211731
1660 96.490334
1658 100.00326
1656 102.73629
1654 104.67673
1652 105.684
1650 105.64224
1648 104.38166
1646 101.84785
1644 98.708069
1642 95.556572
1640 92.284897
1638 88.85701
1636 84.779587
1634 79.921425
1632 74.926857
1630 70.030388
1628 65.433098
1626 61.144535
1624 56.781319
1622 52.295948
1620 47.966274
1618 43.811459
1616 39.994144
1614 36.531105
1612 33.52499
1610 30.976181
1608 28.816092
1606 27.021065
1604 25.453989
1602 24.139215
1600 23.081966
1598 22.294012
1596 21.751999
1594 21.433847
1592 21.276703
1590 21.255871
1588 21.326855
1586 21.482079
1584 21.709789
1582 22.012011
1580 22.386894
1578 22.901361
1576 23.575228
1574 24.417179
1572 25.417343
1570 26.472832
1568 27.556799
1566 28.649822
1564 29.755152
1562 31.078541
1560 32.723259
1558 35.323734
1556 38.952
1554 42.969719
1552 47.138451
1550 50.396385
1548 52.772514
1546 54.805962
1544 56.500957
1542 57.979393
1540 59.03764
1538 59.398232
1536 59.022743
1534 57.987633
1532 56.540298
1530 55.011185
1528 53.43642
1526 51.8465
1524 50.125095
1522 48.191502
1520 45.969704
1518 43.392757
1516 40.848358
1514 38.468254
1512 36.238159
1510 34.193699
1508 31.715031
1506 28.654663
1504 25.550354
1502 22.449444
1500 19.822412
1498 17.723289
1496 15.658857
1494 13.624784
1492 11.558702
1490 9.4704485
1488 7.3919678
1486 5.3903942
1484 3.5859017
1482 2.0753639
1480 0.96581602
1478 0.28400427
1476 0.055455957
1474 0.37469584
1472 1.1875757
1470 2.190774
1468 3.195009
1466 4.0448608
1464 4.6346555
1462 5.1216221
1460 5.557879
1458 5.9959979
1456 6.4477201
1454 6.817646
1452 7.0444989
1450 7.1362057
1448 7.0293984
1446 6.8589716
1444 6.6047721
1442 6.3418579
1440 6.0658145
1438 5.7611303
1436 5.4035945
1434 4.9357958
1432 4.3594775
1430 3.7563372
1428 3.166888
1426 2.6963415
1424 2.3628983
1422 2.1718154
1420 2.1193671
1418 2.1820548
1416 2.3303742
1414 2.5356181
1412 2.7662845
1410 3.0164518
1408 3.2828846
1406 3.5740778
1404 3.8871217
1402 4.2242761
1400 4.5828719
1398 4.9708562
1396 5.3697572
1394 5.7771111
1392 6.1292825
1390 6.3679409
1388 6.482779
1386 6.396565
1384 6.1849909
1382 5.8034616
1380 5.3640084
1378 4.8621783
1376 4.3563542
1374 3.863658
1372 3.4090281
1370 3.0014081
1368 2.6436183
1366 2.2999363
1364 1.9118406
1362 1.4822551
1360 1.0062828
1358 0.55953276
1356 0.23681961
1354 0.028747328
1352 -0.0074886172
1350 0.040853515
1348 0.17134789
1346 0.33023608
1344 0.53017879
1342 0.74869323
1340 0.9998529
1338 1.25155
1336 1.49664
1334 1.7181913
1332 1.8849611
1330 2.0440249
1328 2.1941223
1326 2.3661015
1324 2.5783718
1322 2.8179307
1320 3.0966108
1318 3.390162
1316 3.69561
1314 3.9861968
1312 4.2480292
1310 4.4646864
1308 4.6297264
1306 4.7402334
1304 4.8052559
1302 4.8252964
1300 4.8174486
1298 4.7812657
1296 4.7312713
1294 4.664999
1292 4.5949211
1290 4.5227094
1288 4.4564242
1286 4.40555
1284 4.3660707
1282 4.351881
1280 4.3470416
1278 4.3622837
1276 4.3813815
1274 4.409749
1272 4.4401269
1270 4.4774208
1268 4.5256681
1266 4.5919638
1264 4.6793041
1262 4.7919817
1260 4.9197941
1258 5.0609999
1256 5.2002344
1254 5.3353314
1252 5.4611907
1250 5.5793209
1248 5.6907058
1246 5.7957249
1244 5.8878245
1242 5.9652925
1240 6.0085807
1238 6.0227141
1236 5.972743
1234 5.8821254
1232 5.6985083
1230 5.4733486
1228 5.1438961
1226 4.7845163
1224 4.3470693
1222 3.8965793
1220 3.4166465
1218 2.94347
1216 2.4867401
1214 2.0530334
1212 1.6618892
1210 1.3020631
1208 0.99003243
1206 0.71259332
1204 0.47835979
1202 0.2735579
1200 0.099870868
1198 -0.051132992
1196 -0.17896643
1194 -0.27752706
1192 -0.35131714
1190 -0.39071879
1188 -0.40825021
1186 -0.39797351
1184 -0.36850035
1182 -0.29771101
1180 -0.19495645
1178 0.00056049228
1176 0.23591202
1174 0.5817638
1172 0.93560719
1170 1.2925541
1168 1.6094023
1166 1.7991107
1164 1.9345337
1162 1.935081
1160 1.8983588
1158 1.7869509
1156 1.6542528
1154 1.4859023
1152 1.3022435
1150 1.0978441
1148 0.88478142
1146 0.66458607
1144 0.45415306
1142 0.26105964
1140 0.11953544
1138 0.027724573
1136 0.019749057
1134 0.066555768
1132 0.20549043
1130 0.38313311
1128 0.57937974
1126 0.77279973
1124 0.92529571
1122 1.0597882
1120 1.137284
1118 1.2033169
1116 1.2363428
1114 1.2752928
1112 1.3427023
1110 1.4277763
1108 1.5677729
1106 1.7048301
1104 1.8296738
1102 1.9104439
1100 1.9027582
1098 1.8589735
1096 1.7619429
1094 1.6755626
1092 1.604822
1090 1.5554953
1088 1.5292149
1086 1.5213279
1084 1.5291514
1082 1.5492669
1080 1.5717674
1078 1.558517
1076 1.5231972
1074 1.4433596
1072 1.3486565
1070 1.2529188
1068 1.1577991
1066 1.0709705
1064 0.98879957
1062 0.93320727
1060 0.88238281
1058 0.85323989
1056 0.81793141
1054 0.75571078
1052 0.69210958
1050 0.62543893
1048 0.57106638
1046 0.54534608
1044 0.51440519
1042 0.47088397
1040 0.39993811
1038 0.28776407
1036 0.1576914
1034 0.0073551238
1032 -0.14562045
1030 -0.29912737
1028 -0.43727124
1026 -0.56088209
1024 -0.64418888
1022 -0.70445979
1020 -0.74178201
1018 -0.77347529
1016 -0.83772486
1014 -0.9138341
1012 -1.0243529
1010 -1.1374129
1008 -1.21334
1006 -1.2817415
1004 -1.297465
1002 -1.3122481
1000 -1.3231869
998 -1.3294508
996 -1.3144857
994 -1.289629
992 -1.235025
990 -1.1904296
988 -1.1694808
986 -1.1633343
984 -1.1815515
982 -1.1841698
980 -1.1649381
978 -1.131371
976 -1.0837286
974 -1.0462508
972 -1.0165179
970 -0.98361367
968 -0.947308
966 -0.88768452
964 -0.81694162
962 -0.73560703
960 -0.65150982
958 -0.57756203
956 -0.50563711
954 -0.42771873
952 -0.34816119
950 -0.24580789
948 -0.14289692
946 -0.046476644
944 0.000916766
942 0.02876126
940 0.091480836
938 0.1932292
936 0.30344802
934 0.43813464
932 0.55386114
930 0.62876731
928 0.68383831
926 0.70774418
924 0.74986959
922 0.81401807
920 0.86532456
918 0.90338695
916 0.86363554
914 0.76919305
912 0.69265723
910 0.62758243
908 0.71821594
906 0.86953419
904 1.0687155
902 1.2806869
900 1.39408
898 1.4918894
896 1.5544
