Image.
>Pix99999.
  .
5555
5555
2300
900
5555
2
1
0
701
5555
5.0430000e-002
5.1479500e-002
5.2528001e-002
5.3577498e-002
5.4626994e-002
5.5675499e-002
5.6724992e-002
5.7773497e-002
5.8822989e-002
5.9872489e-002
6.0920998e-002
6.1970487e-002
6.3019983e-002
6.4068504e-002
6.5117985e-002
6.6167474e-002
6.7216001e-002
6.8265475e-002
6.9313996e-002
7.0363469e-002
7.1412973e-002
7.2461501e-002
7.3510975e-002
7.4560463e-002
7.5608999e-002
7.6658465e-002
2.3795666e-002
8.3912147e-004
-1.4150400e-002
-4.7856726e-002
-8.4442899e-002
-2.1050166e-001
-3.4266517e-001
-4.6734118e-001
-5.7101685e-001
-5.1049799e-001
-4.2101458e-001
-2.3759574e-001
-1.0080539e-001
-1.2156562e-001
-2.2069257e-001
-4.7160679e-001
-7.0663136e-001
-9.0107220e-001
-1.0123297e+000
-1.0231171e+000
-9.5707506e-001
-8.2321864e-001
-6.7504400e-001
-5.1945168e-001
-4.2363858e-001
-3.6262181e-001
-3.3303097e-001
-3.1622991e-001
-2.8246161e-001
-2.4290128e-001
-2.2901440e-001
-2.2109886e-001
-2.6050413e-001
-3.0661830e-001
-3.2828543e-001
-3.4512168e-001
-3.3284390e-001
-3.1936151e-001
-3.1504360e-001
-2.9780272e-001
-2.3031515e-001
-1.3973314e-001
-2.7762391e-003
9.9079177e-002
1.2549500e-001
9.6767239e-002
-5.6751445e-004
-8.2290381e-002
-1.3837662e-001
-1.7761035e-001
-2.0434469e-001
-2.3793070e-001
-2.7726510e-001
-2.9134551e-001
-2.9131228e-001
-3.0833167e-001
-3.3294275e-001
-3.8665384e-001
-4.4936880e-001
-4.5369536e-001
-4.4433698e-001
-4.0217662e-001
-3.5777029e-001
-3.6660469e-001
-3.8449901e-001
-4.1246891e-001
-4.3382776e-001
-4.1888568e-001
-3.9647770e-001
-3.6769888e-001
-3.3785194e-001
-3.0795020e-001
-2.7579838e-001
-2.4001376e-001
-2.1783000e-001
-2.1439956e-001
-2.3272695e-001
-2.7076039e-001
-3.1319562e-001
-3.5652500e-001
-3.8276231e-001
-3.9748770e-001
-3.8975891e-001
-3.7123781e-001
-3.2985058e-001
-2.7960360e-001
-1.8590079e-001
-7.8613319e-002
5.8938242e-002
2.0128736e-001
2.5481442e-001
2.7584973e-001
1.4742114e-001
-1.3618620e-002
-1.9172525e-001
-3.4546259e-001
-4.0133417e-001
-4.3224248e-001
-4.5066041e-001
-4.9769288e-001
-6.0617560e-001
-7.1511513e-001
-8.0487138e-001
-8.3954638e-001
-8.1007600e-001
-7.5269002e-001
-6.8006021e-001
-6.3650179e-001
-6.1920559e-001
-6.5426409e-001
-7.2095942e-001
-7.8915322e-001
-8.5620761e-001
-8.6142373e-001
-8.3977604e-001
-8.1647688e-001
-7.9210275e-001
-8.4068727e-001
-9.0951782e-001
-1.0043502e+000
-1.1027226e+000
-1.1847200e+000
-1.2584292e+000
-1.3207924e+000
-1.3829215e+000
-1.4571036e+000
-1.5318880e+000
-1.5951983e+000
-1.6048900e+000
-1.5177900e+000
-1.3634394e+000
-1.1477082e+000
-9.7068894e-001
-8.5647333e-001
-8.0776858e-001
-8.0900121e-001
-7.3800784e-001
-6.0545349e-001
-4.4007105e-001
-2.6075757e-001
-2.7615941e-001
-3.9341560e-001
-6.1590117e-001
-8.7796313e-001
-1.0452302e+000
-1.1732177e+000
-1.2044280e+000
-1.1988783e+000
-1.1620586e+000
-1.1252249e+000
-1.1359634e+000
-1.1713892e+000
-1.2175163e+000
-1.2519308e+000
-1.2415228e+000
-1.2155780e+000
-1.1937521e+000
-1.1825176e+000
-1.1949954e+000
-1.1548064e+000
-1.0424554e+000
-8.1424034e-001
-4.7671199e-001
-1.8370160e-001
5.3657286e-002
1.5491472e-001
1.6126834e-001
7.8936413e-002
-5.1390745e-002
-3.2151926e-001
-6.6270202e-001
-9.6474338e-001
-1.2422729e+000
-1.2285886e+000
-1.0859143e+000
-7.6458728e-001
-3.8978419e-001
-1.1115630e-001
6.5651193e-002
-2.2328194e-002
-2.6041481e-001
-6.5257972e-001
-1.0688463e+000
-1.4183074e+000
-1.6355600e+000
-1.6657730e+000
-1.5149012e+000
-1.1926854e+000
-8.7080306e-001
-5.9877765e-001
-5.2304304e-001
-6.2388915e-001
-7.7311993e-001
-9.3096823e-001
-1.0291502e+000
-1.0867512e+000
-1.1010149e+000
-1.0979557e+000
-1.0260148e+000
-9.2325997e-001
-8.8288695e-001
-8.8788831e-001
-1.0502582e+000
-1.2746613e+000
-1.4397271e+000
-1.5299890e+000
-1.4172159e+000
-1.1794780e+000
-8.0534661e-001
-4.4656608e-001
-2.5378382e-001
-2.5155950e-001
-5.1104045e-001
-8.6862510e-001
-1.2371229e+000
-1.4930431e+000
-1.5889157e+000
-1.5484154e+000
-1.4022897e+000
-1.2136400e+000
-1.0120981e+000
-8.1405252e-001
-6.2939119e-001
-4.6162143e-001
-3.0731714e-001
-1.8563403e-001
-7.6151446e-002
8.3324201e-003
8.9325339e-002
1.7117621e-001
2.5977904e-001
3.4298506e-001
4.3818194e-001
5.9941179e-001
7.9919255e-001
1.0101599e+000
1.1331486e+000
1.0038208e+000
7.2117817e-001
3.8559672e-001
1.5050097e-001
1.3900445e-001
6.5055087e-002
-9.4604500e-002
-2.0209257e-001
-2.5226852e-001
-2.3590341e-002
5.1117623e-001
1.1645429e+000
1.8514428e+000
2.1469424e+000
2.0795028e+000
1.9109337e+000
1.7146541e+000
1.8073400e+000
2.1131845e+000
2.1733646e+000
2.0342517e+000
1.4589229e+000
6.4282739e-001
6.7255877e-002
-2.3102200e-001
1.0156366e-001
9.9025637e-001
2.4023757e+000
3.9267406e+000
5.0477791e+000
5.8878961e+000
6.5403557e+000
7.3985577e+000
8.7902374e+000
1.0964645e+001
1.4026780e+001
1.7609873e+001
2.1472713e+001
2.4858511e+001
2.7518705e+001
2.9951187e+001
3.2341877e+001
3.5552402e+001
3.9600002e+001
4.4158928e+001
4.9065281e+001
5.3134178e+001
5.6465916e+001
5.9803314e+001
6.3215500e+001
6.7219086e+001
7.1658134e+001
7.6088898e+001
8.0487640e+001
8.4725342e+001
8.8762939e+001
9.2470459e+001
9.5826027e+001
9.8776810e+001
1.0118100e+002
1.0290246e+002
1.0339034e+002
1.0231107e+002
1.0020680e+002
9.7599670e+001
9.4780937e+001
9.1919708e+001
8.8487999e+001
8.4345879e+001
7.9826080e+001
7.5108353e+001
7.0628181e+001
6.6438896e+001
6.2164120e+001
5.7752544e+001
5.3351982e+001
4.8982750e+001
4.4793999e+001
4.0822449e+001
3.7257645e+001
3.4137718e+001
3.1514292e+001
2.9353579e+001
2.7478445e+001
2.5888512e+001
2.4535074e+001
2.3435566e+001
2.2573000e+001
2.1933794e+001
2.1473045e+001
2.1156149e+001
2.0933512e+001
2.0834637e+001
2.0860874e+001
2.1082241e+001
2.1514378e+001
2.2254118e+001
2.3327543e+001
2.4662895e+001
2.6242506e+001
2.7767740e+001
2.9178280e+001
3.0445608e+001
3.1565216e+001
3.2927559e+001
3.4630344e+001
3.7175095e+001
4.0495914e+001
4.3578648e+001
4.6280212e+001
4.8160835e+001
4.9365105e+001
5.0553322e+001
5.1734299e+001
5.2947716e+001
5.3801559e+001
5.3828808e+001
5.3023914e+001
5.1513737e+001
4.9792950e+001
4.8306904e+001
4.7040462e+001
4.5972900e+001
4.4863949e+001
4.3587593e+001
4.1927612e+001
3.9812347e+001
3.7610626e+001
3.5424282e+001
3.3384441e+001
3.1490784e+001
2.9200502e+001
2.6371679e+001
2.3449537e+001
2.0510162e+001
1.8049166e+001
1.6130150e+001
1.4280714e+001
1.2497676e+001
1.0740193e+001
9.0079889e+000
7.3176436e+000
5.6543503e+000
3.9699700e+000
2.4159713e+000
1.1672375e+000
3.3975470e-001
3.4103800e-002
2.6829523e-001
1.0363255e+000
1.8481150e+000
2.4448831e+000
2.9079506e+000
3.2194862e+000
3.6338682e+000
4.2760448e+000
4.9994178e+000
5.7989397e+000
6.3321395e+000
6.4676533e+000
6.4090953e+000
6.0957718e+000
5.7045212e+000
5.2042346e+000
4.6929569e+000
4.1840725e+000
3.7983873e+000
3.5326786e+000
3.3006363e+000
3.0607727e+000
2.7238863e+000
2.3584499e+000
2.0895536e+000
1.9863017e+000
2.1165845e+000
2.4066169e+000
2.7740748e+000
3.1125457e+000
3.3146150e+000
3.4651494e+000
3.5783195e+000
3.7150755e+000
3.9078336e+000
4.1325698e+000
4.4149423e+000
4.7378359e+000
5.1309953e+000
5.5103855e+000
5.8603148e+000
6.0962143e+000
6.1656027e+000
6.1252179e+000
5.9179850e+000
5.6071324e+000
5.1589708e+000
4.6846495e+000
4.1919241e+000
3.7665029e+000
3.4077113e+000
3.1148400e+000
2.8771453e+000
2.6368897e+000
2.3759649e+000
2.0243757e+000
1.5949234e+000
1.1147506e+000
6.6335368e-001
3.4746069e-001
1.4541647e-001
6.8930209e-002
2.7029922e-002
-2.1486465e-002
-5.0629355e-002
3.4655631e-003
1.4812754e-001
4.6191484e-001
7.3171675e-001
8.9814085e-001
9.0804362e-001
6.8805695e-001
4.8468682e-001
3.3707190e-001
3.2585528e-001
4.9893826e-001
7.8080547e-001
1.1729000e+000
1.5790149e+000
1.9620000e+000
2.2367337e+000
2.3932269e+000
2.4145765e+000
2.3493907e+000
2.2539685e+000
2.1615033e+000
2.1188149e+000
2.0999134e+000
2.1003029e+000
2.1096857e+000
2.1380422e+000
2.1936297e+000
2.3162110e+000
2.4435761e+000
2.5612965e+000
2.6405189e+000
2.6277573e+000
2.6087325e+000
2.5833988e+000
2.6031113e+000
2.7071929e+000
2.8578634e+000
3.0786750e+000
3.3143528e+000
3.5761249e+000
3.8531258e+000
4.1595440e+000
4.4968944e+000
4.8671746e+000
5.2529230e+000
5.6539683e+000
6.0659490e+000
6.4892206e+000
6.9260311e+000
7.3631496e+000
7.7851815e+000
8.1863461e+000
8.5418262e+000
8.8633003e+000
9.1128035e+000
9.3167458e+000
9.4129400e+000
9.4569483e+000
9.3649435e+000
9.2293186e+000
8.9763145e+000
8.6857758e+000
8.3029318e+000
7.8658161e+000
7.3197999e+000
6.7355523e+000
6.0951896e+000
5.4838052e+000
4.9187360e+000
4.3938484e+000
3.9141939e+000
3.4384501e+000
2.9653268e+000
2.4897590e+000
2.0114357e+000
1.5313241e+000
1.0579544e+000
6.1759555e-001
2.1756017e-001
-7.4849978e-002
-3.0135280e-001
-4.0127957e-001
-4.5212024e-001
-4.2207274e-001
-3.6963201e-001
-2.7268782e-001
-1.6897941e-001
-4.6836555e-002
7.4799940e-002
1.9825199e-001
3.2912606e-001
4.7820091e-001
6.3025284e-001
7.8183985e-001
8.9649570e-001
9.4062799e-001
9.0988564e-001
7.7667922e-001
6.0447717e-001
3.9901716e-001
2.3112884e-001
1.0469446e-001
3.1616602e-002
8.9724958e-003
6.7822948e-002
1.9884571e-001
5.3240639e-001
9.6142143e-001
1.4832611e+000
2.0085828e+000
2.4171374e+000
2.7671406e+000
2.9179158e+000
3.0306795e+000
3.0399015e+000
3.0670886e+000
3.1790411e+000
3.3288727e+000
3.5976279e+000
3.8708501e+000
4.1519070e+000
4.4028897e+000
4.5926285e+000
4.7486787e+000
4.8569713e+000
4.9895539e+000
5.1732101e+000
5.5135078e+000
6.0252337e+000
6.6861377e+000
7.4405823e+000
8.0594101e+000
8.5505095e+000
8.7083178e+000
8.6929531e+000
8.5074968e+000
8.2772989e+000
8.1200008e+000
7.9989724e+000
8.0200081e+000
8.0687561e+000
8.1851740e+000
8.2977190e+000
8.3642035e+000
8.4130344e+000
8.3848095e+000
8.3491144e+000
8.2903996e+000
8.2453537e+000
8.2319212e+000
8.2074699e+000
8.1592789e+000
8.0654974e+000
7.9089475e+000
7.7697897e+000
7.6482744e+000
7.5106564e+000
7.3421960e+000
7.0124197e+000
6.5650673e+000
6.0458651e+000
5.4978681e+000
5.0370445e+000
4.6138191e+000
4.2288318e+000
3.8530815e+000
3.4664435e+000
3.0790761e+000
2.7073121e+000
2.3357208e+000
1.9519688e+000
1.5630881e+000
1.1406854e+000
7.1433574e-001
2.7160999e-001
-1.5194121e-001
-5.1175261e-001
-8.0942369e-001
-9.6376216e-001
-1.0927672e+000
-1.1808463e+000
-1.2951328e+000
-1.4428540e+000
-1.5510300e+000
-1.6137428e+000
-1.6022555e+000
-1.5295209e+000
-1.4201863e+000
-1.2864052e+000
-1.0928675e+000
-8.7038970e-001
-6.0528898e-001
-3.3222336e-001
-1.9270767e-001
-8.7889329e-002
-1.3153660e-001
-1.8950880e-001
-1.6555062e-001
-1.3399780e-001
-4.4166215e-002
8.7500550e-004
2.7189355e-002
8.1748068e-002
2.5672281e-001
4.9454826e-001
9.1516960e-001
1.3181088e+000
1.6819537e+000
1.9819280e+000
2.1814442e+000
2.4604099e+000
2.8378286e+000
3.3469412e+000
3.9770675e+000
4.5206056e+000
5.0002217e+000
5.2412019e+000
5.3535929e+000
5.3324580e+000
5.2578602e+000
5.2103581e+000
5.1686201e+000
5.2432652e+000
5.3362198e+000
5.6293998e+000
