Image.
>Pix99999.
  .
5555
5555
2300
900
5555
2
1
0
701
5555
1.4989001e-001
1.5300554e-001
1.5612109e-001
1.5923664e-001
1.6236211e-001
1.6547771e-001
1.6859326e-001
1.7171869e-001
1.7483434e-001
1.7794989e-001
1.8106543e-001
1.8419081e-001
1.8730652e-001
1.9041224e-001
1.9353740e-001
1.9668250e-001
1.9977914e-001
2.0279665e-001
2.0600720e-001
2.0948528e-001
2.1226114e-001
2.1404721e-001
2.1843919e-001
2.2652024e-001
2.2489721e-001
1.9698143e-001
1.2946472e-001
2.0070864e-002
-9.2841879e-002
-1.6549559e-001
-1.7833686e-001
-1.2717143e-001
-4.1339166e-002
4.3591779e-002
1.0562743e-001
1.3375549e-001
1.4492616e-001
1.5889995e-001
1.7368440e-001
1.8279971e-001
1.8790057e-001
1.9821563e-001
2.4361220e-001
3.4992874e-001
5.0174165e-001
6.6749102e-001
8.0127412e-001
8.6522979e-001
8.7109149e-001
8.4604561e-001
8.1758356e-001
8.0884600e-001
8.2598263e-001
8.6897439e-001
9.3432218e-001
1.0141357e+000
1.0867400e+000
1.1283243e+000
1.1249883e+000
1.0721127e+000
9.8830569e-001
8.9986569e-001
8.3352518e-001
8.1167752e-001
8.3905435e-001
9.1329867e-001
1.0268402e+000
1.1684788e+000
1.3174577e+000
1.4498167e+000
1.5407300e+000
1.5736614e+000
1.5688640e+000
1.5586846e+000
1.5733393e+000
1.6327894e+000
1.7193937e+000
1.8043050e+000
1.8671809e+000
1.8950139e+000
1.8918543e+000
1.8670474e+000
1.8278794e+000
1.7818491e+000
1.7408359e+000
1.7150900e+000
1.7002709e+000
1.6865152e+000
1.6627680e+000
1.6208452e+000
1.5663129e+000
1.5075090e+000
1.4423873e+000
1.3698783e+000
1.3069451e+000
1.2764014e+000
1.2956793e+000
1.3716600e+000
1.4771260e+000
1.5765400e+000
1.6548570e+000
1.7065887e+000
1.7322943e+000
1.7335384e+000
1.7072314e+000
1.6532301e+000
1.5909551e+000
1.5447187e+000
1.5270212e+000
1.5429833e+000
1.5879371e+000
1.6546000e+000
1.7394520e+000
1.8377764e+000
1.9312683e+000
1.9979472e+000
2.0219491e+000
1.9972157e+000
1.9452231e+000
1.8938850e+000
1.8505828e+000
1.8103143e+000
1.7551783e+000
1.6699076e+000
1.5714496e+000
1.4878215e+000
1.4345500e+000
1.4159316e+000
1.4149257e+000
1.4091637e+000
1.3917586e+000
1.3640394e+000
1.3325343e+000
1.3057640e+000
1.2934611e+000
1.3068743e+000
1.3622268e+000
1.4712946e+000
1.6165934e+000
1.7655922e+000
1.8773400e+000
1.9181038e+000
1.8976117e+000
1.8428798e+000
1.7683868e+000
1.6792779e+000
1.5688692e+000
1.4313561e+000
1.2852011e+000
1.1583835e+000
1.0692501e+000
1.0269028e+000
1.0238360e+000
1.0466237e+000
1.0870980e+000
1.1387650e+000
1.1893240e+000
1.2239041e+000
1.2304677e+000
1.2059004e+000
1.1787200e+000
1.1885080e+000
1.2563766e+000
1.3808821e+000
1.5069296e+000
1.5629851e+000
1.5163217e+000
1.3686150e+000
1.1769921e+000
1.0146737e+000
9.1113770e-001
8.6573672e-001
8.5236794e-001
8.3947051e-001
8.2006001e-001
8.0099499e-001
7.9065347e-001
7.9526001e-001
8.1277955e-001
8.3610845e-001
8.5476542e-001
8.5643792e-001
8.2703739e-001
7.5897831e-001
6.7640680e-001
6.2272787e-001
6.5120298e-001
7.9934180e-001
1.0190321e+000
1.2212300e+000
1.3412857e+000
1.3474580e+000
1.2754663e+000
1.1863937e+000
1.0955863e+000
9.9180239e-001
8.7106198e-001
7.4142379e-001
6.3479543e-001
5.8869278e-001
6.0921860e-001
6.7783916e-001
7.5082982e-001
7.7718443e-001
7.2931057e-001
6.0244077e-001
4.2792284e-001
2.5295559e-001
1.0859729e-001
1.4211502e-002
-1.2913810e-002
4.2272195e-002
1.8557647e-001
4.0383834e-001
6.2403661e-001
7.4816006e-001
7.2276646e-001
5.4198289e-001
2.7703926e-001
3.1907726e-002
-1.3718529e-001
-2.1494207e-001
-2.1940038e-001
-1.8488096e-001
-1.4270000e-001
-1.1733606e-001
-1.1880063e-001
-1.4494103e-001
-1.7780474e-001
-1.9104761e-001
-1.6092728e-001
-6.7724086e-002
1.0196523e-001
3.4512043e-001
6.0186976e-001
7.8023291e-001
8.0526924e-001
6.3726324e-001
3.2752579e-001
-1.9030616e-002
-3.1405285e-001
-4.9987257e-001
-5.7898664e-001
-5.8720422e-001
-5.4140341e-001
-4.4354302e-001
-3.0467331e-001
-1.4575893e-001
3.6929920e-003
1.1891127e-001
2.1823072e-001
3.3775240e-001
4.5942563e-001
5.3118211e-001
5.3039479e-001
4.6673024e-001
3.8228601e-001
3.3243820e-001
3.4547165e-001
4.2912909e-001
5.9447825e-001
8.4108257e-001
1.0927248e+000
1.2295827e+000
1.1794840e+000
9.3422866e-001
5.9298676e-001
2.9984665e-001
7.7563033e-002
-1.3037750e-001
-3.0004129e-001
-3.4386635e-001
-2.0960966e-001
9.6518204e-002
4.6202567e-001
7.1736497e-001
7.6773357e-001
6.1453438e-001
4.0171891e-001
3.3738437e-001
4.7692800e-001
7.2757679e-001
9.0410203e-001
8.1138551e-001
4.4817472e-001
-1.9795075e-002
-3.7040734e-001
-3.7689680e-001
1.1313206e-001
1.1375053e+000
2.4802272e+000
3.7676013e+000
4.7692146e+000
5.4474487e+000
6.0112438e+000
6.8329968e+000
8.2418985e+000
1.0462391e+001
1.3510531e+001
1.7190153e+001
2.1037285e+001
2.4476761e+001
2.7309895e+001
2.9732130e+001
3.2226444e+001
3.5405170e+001
3.9628685e+001
4.4893829e+001
5.0595402e+001
5.5819073e+001
6.0373543e+001
6.4733253e+001
6.9307327e+001
7.4241653e+001
7.9221832e+001
8.3638199e+001
8.7189293e+001
8.9921120e+001
9.1989647e+001
9.3582253e+001
9.4850655e+001
9.5881233e+001
9.6634537e+001
9.6955162e+001
9.6615387e+001
9.5413574e+001
9.3491394e+001
9.1267349e+001
8.8996468e+001
8.6696159e+001
8.4206566e+001
8.1280945e+001
7.7845734e+001
7.4001472e+001
6.9833305e+001
6.5380165e+001
6.0676559e+001
5.5779514e+001
5.0833004e+001
4.6048225e+001
4.1573944e+001
3.7483936e+001
3.3839447e+001
3.0692530e+001
2.8035137e+001
2.5802401e+001
2.3933262e+001
2.2388531e+001
2.1159441e+001
2.0258450e+001
1.9677000e+001
1.9376245e+001
1.9303423e+001
1.9405237e+001
1.9659597e+001
2.0079849e+001
2.0684475e+001
2.1497700e+001
2.2592485e+001
2.4081835e+001
2.6048172e+001
2.8506899e+001
3.1325565e+001
3.4246029e+001
3.7081158e+001
3.9761894e+001
4.2325035e+001
4.4917351e+001
4.7793720e+001
5.1185520e+001
5.4722885e+001
5.7481422e+001
5.8957172e+001
5.9279835e+001
5.8900745e+001
5.8406822e+001
5.8019817e+001
5.7507614e+001
5.6502220e+001
5.4665939e+001
5.2060287e+001
4.9170807e+001
4.6436573e+001
4.4106567e+001
4.2215279e+001
4.0589848e+001
3.9004688e+001
3.7239464e+001
3.5163456e+001
3.2777294e+001
3.0239029e+001
2.7820309e+001
2.5621040e+001
2.3508036e+001
2.1296457e+001
1.8839943e+001
1.6216131e+001
1.3733130e+001
1.1596931e+001
9.8223104e+000
8.3309288e+000
6.9927344e+000
5.7283673e+000
4.5305862e+000
3.3846600e+000
2.2607057e+000
1.1939670e+000
3.0431652e-001
-2.7738428e-001
-4.3042693e-001
-4.3018430e-002
9.5099360e-001
2.4160948e+000
3.9977040e+000
5.4368229e+000
6.6761765e+000
7.7940702e+000
8.9748154e+000
1.0348807e+001
1.1912963e+001
1.3462600e+001
1.4604117e+001
1.5104877e+001
1.5010362e+001
1.4483240e+001
1.3747786e+001
1.2969643e+001
1.2211740e+001
1.1497051e+001
1.0823034e+001
1.0147027e+001
9.3893223e+000
8.5217886e+000
7.6003881e+000
6.7217340e+000
6.0047107e+000
5.5239968e+000
5.2801747e+000
5.2271132e+000
5.2794452e+000
5.3639054e+000
5.4438000e+000
5.5301013e+000
5.6848235e+000
5.9517913e+000
6.3285761e+000
6.7799854e+000
7.2374673e+000
7.6212559e+000
7.8503857e+000
7.8703642e+000
7.6729317e+000
7.3026600e+000
6.8612666e+000
6.4314256e+000
6.0448198e+000
5.7014470e+000
5.3725276e+000
5.0345259e+000
4.6798587e+000
4.2959914e+000
3.8598073e+000
3.3584461e+000
2.8009200e+000
2.2124114e+000
1.6334436e+000
1.0950243e+000
6.0950565e-001
1.9483826e-001
-1.1655341e-001
-2.9409614e-001
-3.1653836e-001
-1.7275874e-001
1.3410187e-001
5.8868003e-001
1.1629239e+000
1.8359560e+000
2.5955968e+000
3.3880725e+000
4.0905147e+000
4.5726542e+000
4.7297764e+000
4.5392036e+000
4.1027331e+000
3.5472286e+000
2.9910929e+000
2.5276272e+000
2.2062261e+000
2.0361748e+000
1.9744595e+000
1.9571700e+000
1.9098457e+000
1.7824371e+000
1.5734439e+000
1.3059695e+000
1.0258723e+000
7.7735239e-001
5.9225488e-001
4.9615270e-001
5.0806910e-001
6.4190573e-001
9.0389991e-001
1.2900943e+000
1.7800109e+000
2.3394041e+000
2.9171863e+000
3.4627099e+000
3.9362195e+000
4.3157434e+000
4.6082306e+000
4.8317032e+000
5.0120263e+000
5.1763978e+000
5.3508134e+000
5.5619321e+000
5.8363509e+000
6.1929631e+000
6.6356616e+000
7.1599059e+000
7.7529531e+000
8.4095259e+000
9.1412811e+000
9.9628706e+000
1.0885363e+001
1.1903531e+001
1.2980250e+001
1.4065492e+001
1.5093786e+001
1.6001886e+001
1.6732510e+001
1.7237015e+001
1.7481968e+001
1.7444120e+001
1.7110685e+001
1.6477108e+001
1.5548107e+001
1.4355778e+001
1.2978097e+001
1.1527760e+001
1.0163482e+001
9.0243196e+000
8.1815128e+000
7.6589694e+000
7.4127035e+000
7.3813057e+000
7.4979725e+000
7.6840997e+000
7.8395815e+000
7.8658576e+000
7.6842504e+000
7.2602358e+000
6.6439552e+000
5.9112463e+000
5.1473641e+000
4.4168139e+000
3.7348349e+000
3.1052690e+000
2.5323520e+000
2.0249314e+000
1.6013662e+000
1.2761400e+000
1.0490928e+000
9.0907860e-001
8.2821864e-001
7.7639616e-001
7.2800517e-001
6.6619849e-001
5.9151238e-001
5.0908232e-001
4.2546898e-001
3.4968987e-001
2.9514256e-001
2.7285135e-001
2.8481129e-001
3.2038921e-001
3.4599712e-001
3.3232132e-001
2.7303424e-001
1.7018113e-001
3.3263840e-002
-1.2116317e-001
-2.6516491e-001
-3.7781650e-001
-4.6073249e-001
-5.1600868e-001
-5.3418612e-001
-5.0479299e-001
-4.2249280e-001
-2.9075038e-001
-1.3134839e-001
3.1875879e-002
1.8173857e-001
3.1103173e-001
4.3281114e-001
5.5997092e-001
6.9297504e-001
8.2966632e-001
9.6978885e-001
1.1229380e+000
1.3213865e+000
1.5917714e+000
1.9318279e+000
2.3249481e+000
2.7360611e+000
3.1358976e+000
3.5213435e+000
3.8913121e+000
4.2332363e+000
4.5223665e+000
4.7102461e+000
4.7544770e+000
4.6457453e+000
4.3998466e+000
4.0784135e+000
3.7508891e+000
3.4759185e+000
3.2921720e+000
3.1903627e+000
3.1477356e+000
3.1365147e+000
3.1362998e+000
3.1483765e+000
3.1724064e+000
3.1890981e+000
3.1757417e+000
3.1139784e+000
2.9992113e+000
2.8631501e+000
2.7488530e+000
2.7051785e+000
2.7720799e+000
2.9570494e+000
3.2399364e+000
3.5427032e+000
3.7752700e+000
3.8576264e+000
3.7384634e+000
3.4474931e+000
3.0422869e+000
2.6045334e+000
2.2055886e+000
1.8669977e+000
1.5872631e+000
1.3318110e+000
1.0671225e+000
7.8848684e-001
5.0505775e-001
2.4689272e-001
3.6688313e-002
-1.4203449e-001
-3.1675571e-001
-5.1833028e-001
-7.6176095e-001
-1.0089993e+000
-1.2118918e+000
-1.3324857e+000
-1.3464040e+000
-1.2656366e+000
-1.1121107e+000
-9.1145229e-001
-6.9407457e-001
-5.0170207e-001
-3.6759111e-001
-2.8694642e-001
-2.4086782e-001
-1.9513699e-001
-1.2619324e-001
-5.9144806e-002
-2.5466543e-002
-3.6713380e-002
-9.1672160e-002
-1.6201170e-001
-2.1423000e-001
-2.2053170e-001
-1.6455212e-001
-6.4863682e-002
5.7465389e-002
2.0337756e-001
3.7697515e-001
5.7429981e-001
7.9958570e-001
1.0935721e+000
1.4836394e+000
1.9155989e+000
2.3209639e+000
2.6537900e+000
2.8949320e+000
3.1018200e+000
3.3404572e+000
3.6359093e+000
3.9858270e+000
4.3221350e+000
4.5720496e+000
4.7062850e+000
4.7243419e+000
4.6945100e+000
4.6964107e+000
4.7862163e+000
5.0000072e+000
5.3170509e+000
5.7020001e+000
