Image.
>Pix99999.
  .
5555
5555
2300
900
5555
2
1
0
701
5555
-5.2319001e-002
-5.3430408e-002
-5.4541819e-002
-5.5654224e-002
-5.6765642e-002
-5.7877049e-002
-5.8988459e-002
-6.0099870e-002
-6.1211281e-002
-6.2322691e-002
-6.3435085e-002
-6.4548478e-002
-6.5657958e-002
-6.6763446e-002
-6.7880616e-002
-6.9014661e-002
-7.0105061e-002
-7.1133032e-002
-7.2325192e-002
-7.3747180e-002
-7.4559256e-002
-7.4515074e-002
-7.6736838e-002
-8.2153432e-002
-7.9148144e-002
-5.4431252e-002
-1.9878857e-003
7.7514216e-002
1.6478336e-001
2.3728797e-001
2.8055614e-001
2.8362152e-001
2.4014549e-001
1.5402752e-001
6.5086298e-002
1.6297050e-002
2.1242028e-002
7.5746328e-002
1.3907798e-001
1.7152013e-001
1.8073514e-001
1.9163986e-001
2.4136740e-001
3.5615247e-001
5.0404078e-001
6.3571173e-001
7.0319426e-001
6.7433619e-001
5.7839799e-001
4.6169561e-001
3.6279213e-001
3.0780327e-001
2.8344211e-001
2.6517135e-001
2.3297735e-001
1.7271857e-001
8.7544717e-002
-8.0338893e-003
-7.5678371e-002
-7.4163608e-002
1.8515971e-002
2.0566791e-001
4.4045940e-001
6.6388571e-001
8.3402234e-001
9.2750716e-001
9.7232914e-001
1.0105590e+000
1.0719829e+000
1.1714978e+000
1.2809701e+000
1.3628074e+000
1.3997778e+000
1.3883207e+000
1.3485929e+000
1.3068678e+000
1.2791337e+000
1.2781689e+000
1.3183857e+000
1.4084769e+000
1.5310771e+000
1.6567432e+000
1.7432529e+000
1.7558850e+000
1.7077240e+000
1.6318686e+000
1.5723028e+000
1.5632858e+000
1.5852069e+000
1.6026275e+000
1.5957243e+000
1.5589039e+000
1.5182492e+000
1.5045754e+000
1.5198351e+000
1.5537735e+000
1.5926104e+000
1.6243597e+000
1.6493260e+000
1.6724471e+000
1.6991857e+000
1.7362161e+000
1.7951075e+000
1.8853067e+000
1.9990023e+000
2.1181450e+000
2.2093318e+000
2.2395122e+000
2.2004836e+000
2.1017015e+000
1.9838414e+000
1.8944882e+000
1.8596120e+000
1.8882881e+000
1.9571346e+000
2.0337336e+000
2.1009622e+000
2.1507778e+000
2.1835430e+000
2.2021291e+000
2.2047343e+000
2.1903906e+000
2.1680784e+000
2.1479263e+000
2.1270554e+000
2.0961106e+000
2.0438700e+000
1.9644489e+000
1.8776817e+000
1.8118600e+000
1.7837442e+000
1.7998149e+000
1.8463508e+000
1.9034040e+000
1.9603460e+000
2.0114765e+000
2.0521202e+000
2.0761683e+000
2.0713687e+000
2.0294490e+000
1.9701600e+000
1.9275341e+000
1.9427780e+000
2.0467911e+000
2.2178309e+000
2.4090970e+000
2.5698929e+000
2.6587379e+000
2.6740577e+000
2.6365533e+000
2.5830286e+000
2.5513577e+000
2.5559206e+000
2.5954273e+000
2.6523440e+000
2.7033384e+000
2.7311971e+000
2.7264035e+000
2.6961904e+000
2.6579039e+000
2.6383543e+000
2.6619189e+000
2.7258520e+000
2.8105922e+000
2.8841875e+000
2.9164500e+000
2.9084315e+000
2.8788161e+000
2.8534720e+000
2.8558133e+000
2.8866172e+000
2.9339392e+000
2.9812989e+000
3.0127261e+000
3.0206525e+000
3.0049000e+000
2.9781656e+000
2.9582238e+000
2.9591947e+000
2.9871988e+000
3.0250230e+000
3.0459731e+000
3.0342600e+000
2.9866276e+000
2.9239330e+000
2.8762207e+000
2.8601334e+000
2.8815317e+000
2.9349098e+000
3.0101650e+000
3.1000943e+000
3.1950877e+000
3.2670650e+000
3.2826617e+000
3.2308939e+000
3.1225643e+000
3.0050681e+000
2.9373465e+000
2.9437952e+000
3.0200076e+000
3.1281002e+000
3.2176712e+000
3.2581298e+000
3.2385750e+000
3.1784544e+000
3.1111042e+000
3.0594194e+000
3.0350132e+000
3.0324383e+000
3.0386307e+000
3.0469201e+000
3.0545297e+000
3.0560029e+000
3.0431075e+000
3.0052462e+000
2.9334929e+000
2.8329799e+000
2.7169759e+000
2.5974779e+000
2.4839270e+000
2.3825486e+000
2.2979414e+000
2.2366719e+000
2.2044678e+000
2.1979799e+000
2.2072570e+000
2.2179327e+000
2.2162025e+000
2.2007515e+000
2.1799335e+000
2.1703486e+000
2.1878600e+000
2.2258484e+000
2.2603145e+000
2.2552884e+000
2.1794114e+000
2.0479903e+000
1.9065630e+000
1.7983500e+000
1.7534652e+000
1.7645057e+000
1.8010466e+000
1.8351903e+000
1.8484420e+000
1.8435160e+000
1.8336000e+000
1.8170637e+000
1.7819140e+000
1.7214645e+000
1.6378123e+000
1.5507857e+000
1.4855421e+000
1.4391841e+000
1.3896810e+000
1.3208852e+000
1.2264314e+000
1.1162183e+000
1.0112194e+000
9.3509305e-001
9.0643740e-001
9.1780227e-001
9.3988580e-001
9.2718893e-001
8.3615130e-001
6.7357141e-001
4.8237285e-001
3.0188400e-001
1.5711977e-001
4.1390687e-002
-6.7808613e-002
-1.6535428e-001
-2.2776179e-001
-2.5277001e-001
-2.6031160e-001
-2.8694406e-001
-3.6980072e-001
-5.0399381e-001
-6.5126675e-001
-7.6900661e-001
-8.2375008e-001
-8.1830597e-001
-7.8200400e-001
-7.4180305e-001
-7.1345532e-001
-6.8691057e-001
-6.3327032e-001
-5.2342856e-001
-3.3692491e-001
-8.1483483e-002
2.1826789e-001
5.5859941e-001
9.4386852e-001
1.3249760e+000
1.6334554e+000
1.9193361e+000
2.3379886e+000
3.0703092e+000
4.3023267e+000
6.2217259e+000
8.9406214e+000
1.2211715e+001
1.5529650e+001
1.8533487e+001
2.1095860e+001
2.3426235e+001
2.5959343e+001
2.9020380e+001
3.2711678e+001
3.6691082e+001
4.0364460e+001
4.3596115e+001
4.6695938e+001
5.0003601e+001
5.3741737e+001
5.7799465e+001
6.1821800e+001
6.5604065e+001
6.9120384e+001
7.2371811e+001
7.5355927e+001
7.8094604e+001
8.0641037e+001
8.3080101e+001
8.5482491e+001
8.7739021e+001
8.9599464e+001
9.0915070e+001
9.1661835e+001
9.1854584e+001
9.1515419e+001
9.0637428e+001
8.9203331e+001
8.7279228e+001
8.4990791e+001
8.2375885e+001
7.9379951e+001
7.5955681e+001
7.2105713e+001
6.7940109e+001
6.3660072e+001
5.9455944e+001
5.5478115e+001
5.1833366e+001
4.8576870e+001
4.5685059e+001
4.3074665e+001
4.0686928e+001
3.8504566e+001
3.6536190e+001
3.4803196e+001
3.3301003e+001
3.1995741e+001
3.0847092e+001
2.9819183e+001
2.8906363e+001
2.8132479e+001
2.7521000e+001
2.7090340e+001
2.6859905e+001
2.6849125e+001
2.7073999e+001
2.7539728e+001
2.8213385e+001
2.9023991e+001
2.9901560e+001
3.0790579e+001
3.1658480e+001
3.2526009e+001
3.3571949e+001
3.5081856e+001
3.7098701e+001
3.9367050e+001
4.1547546e+001
4.3332050e+001
4.4686802e+001
4.5855392e+001
4.7024189e+001
4.8227482e+001
4.9371140e+001
5.0260792e+001
5.0732456e+001
5.0709831e+001
5.0284332e+001
4.9696022e+001
4.9093243e+001
4.8482651e+001
4.7834076e+001
4.7108780e+001
4.6272289e+001
4.5299393e+001
4.4184559e+001
4.2930809e+001
4.1462399e+001
3.9618614e+001
3.7269886e+001
3.4383686e+001
3.1153423e+001
2.7982666e+001
2.5125242e+001
2.2587891e+001
2.0270000e+001
1.8018522e+001
1.5740581e+001
1.3431960e+001
1.1114367e+001
8.8275690e+000
6.6592979e+000
4.7349000e+000
3.1117473e+000
1.7697113e+000
7.7173817e-001
2.7634591e-001
2.9900569e-001
6.5287185e-001
1.1448243e+000
1.6421993e+000
2.0917513e+000
2.5237367e+000
2.9701560e+000
3.4388492e+000
3.9177201e+000
4.3741660e+000
4.7662783e+000
5.0481844e+000
5.1860304e+000
5.1675572e+000
5.0076017e+000
4.7488861e+000
4.4265904e+000
4.0543847e+000
3.6235971e+000
3.1087894e+000
2.5196960e+000
1.9177983e+000
1.3680160e+000
9.2056453e-001
6.0094321e-001
4.0395290e-001
3.1471583e-001
3.1480709e-001
3.8980171e-001
5.3305137e-001
7.4554276e-001
1.0356477e+000
1.4076068e+000
1.8566400e+000
2.3715253e+000
2.9328959e+000
3.5115480e+000
4.0664177e+000
4.5542145e+000
4.9354229e+000
5.1889372e+000
5.3207126e+000
5.3491058e+000
5.3011599e+000
5.1987796e+000
5.0522399e+000
4.8617983e+000
4.6183424e+000
4.3200884e+000
3.9805613e+000
3.6239080e+000
3.2801611e+000
2.9530709e+000
2.6054592e+000
2.1994312e+000
1.7173541e+000
1.1876779e+000
6.9892907e-001
3.2717544e-001
1.0256183e-001
1.4225407e-002
5.8186585e-003
2.9268185e-002
6.7226857e-002
1.1700036e-001
1.8638617e-001
2.7385101e-001
3.5902774e-001
4.1750714e-001
4.2755076e-001
3.8197133e-001
2.9728848e-001
2.0014264e-001
1.2436146e-001
1.0123670e-001
1.5248665e-001
2.8172290e-001
4.6498892e-001
6.6710001e-001
8.4669942e-001
9.7472590e-001
1.0466135e+000
1.0707883e+000
1.0675735e+000
1.0560943e+000
1.0478650e+000
1.0495126e+000
1.0619429e+000
1.0846572e+000
1.1169156e+000
1.1594106e+000
1.2153934e+000
1.2903000e+000
1.3911921e+000
1.5221257e+000
1.6802224e+000
1.8573686e+000
2.0398233e+000
2.2152843e+000
2.3766379e+000
2.5240252e+000
2.6686051e+000
2.8267550e+000
3.0195215e+000
3.2621520e+000
3.5575216e+000
3.9040282e+000
4.2983050e+000
4.7414427e+000
5.2428961e+000
5.8079925e+000
6.4302354e+000
7.0964346e+000
7.7864752e+000
8.4805908e+000
9.1627989e+000
9.8165321e+000
1.0422800e+001
1.0961114e+001
1.1408121e+001
1.1741401e+001
1.1939801e+001
1.1986163e+001
1.1879200e+001
1.1624595e+001
1.1243023e+001
1.0756251e+001
1.0192505e+001
9.5809975e+000
8.9509039e+000
8.3343124e+000
7.7661414e+000
7.2703209e+000
6.8448572e+000
6.4670720e+000
6.0854340e+000
5.6546202e+000
5.1572747e+000
4.5975218e+000
4.0095105e+000
3.4286675e+000
2.8772941e+000
2.3685286e+000
1.9030521e+000
1.4815114e+000
1.1113464e+000
8.0539912e-001
5.8425659e-001
4.6483800e-001
4.5051387e-001
5.2770853e-001
6.5275276e-001
7.7668983e-001
8.5664278e-001
8.6709565e-001
8.1851476e-001
7.3290783e-001
6.3811678e-001
5.5611801e-001
4.9196124e-001
4.4371018e-001
4.0263814e-001
3.5923380e-001
3.0635357e-001
2.4138474e-001
1.7037950e-001
9.6177906e-002
1.1476979e-002
-7.4006826e-002
-1.0618376e-001
-3.2664508e-002
1.6746339e-001
4.8824802e-001
8.7757146e-001
1.2747080e+000
1.6270753e+000
1.9054919e+000
2.1323340e+000
2.3360329e+000
2.5293856e+000
2.7180035e+000
2.8997781e+000
3.0814884e+000
3.2951801e+000
3.5653434e+000
3.8818083e+000
4.2235403e+000
4.5645947e+000
4.8902574e+000
5.2167969e+000
5.5609579e+000
5.9215851e+000
6.2907314e+000
6.6553073e+000
7.0069299e+000
7.3529615e+000
7.6972084e+000
8.0238543e+000
8.3114529e+000
8.5365257e+000
8.6855278e+000
8.7712936e+000
8.8125677e+000
8.8257904e+000
8.8235235e+000
8.8103523e+000
8.7909784e+000
8.7756090e+000
8.7663202e+000
8.7394819e+000
8.6625509e+000
8.4972744e+000
8.2215223e+000
7.8627858e+000
7.4647398e+000
7.0809622e+000
6.7551060e+000
6.4938679e+000
6.2841597e+000
6.0827017e+000
5.8447208e+000
5.5440879e+000
5.1762648e+000
4.7861986e+000
4.4212208e+000
4.0989470e+000
3.8185885e+000
3.5458975e+000
3.2510772e+000
2.9405584e+000
2.6255531e+000
2.3033214e+000
1.9670240e+000
1.6085349e+000
1.2298597e+000
8.6527878e-001
5.4802859e-001
2.8308842e-001
6.7816071e-002
-1.0303101e-001
-2.3770542e-001
-3.5221478e-001
-4.6559727e-001
-5.9996259e-001
-7.6700443e-001
-9.4213867e-001
-1.0920440e+000
-1.1844141e+000
-1.1931914e+000
-1.1129729e+000
-9.4491976e-001
-6.9552374e-001
-3.7946656e-001
-3.5204262e-002
2.8940758e-001
5.3500438e-001
6.5390301e-001
6.4845163e-001
5.4044473e-001
3.7595028e-001
2.0501776e-001
7.0201822e-002
7.3223468e-004
-1.4642986e-002
5.6232065e-003
5.2830964e-002
1.0877880e-001
1.1326782e-001
2.7519196e-002
-7.1862802e-002
-9.1284715e-002
1.9161612e-002
2.6537076e-001
5.3101778e-001
6.9417262e-001
7.2597474e-001
6.3661110e-001
4.9602935e-001
3.7584686e-001
2.9730758e-001
2.7072152e-001
3.1272969e-001
4.3510351e-001
6.2456739e-001
8.5914046e-001
1.1072922e+000
1.3383603e+000
1.5341083e+000
1.6797000e+000
