##TITLE=Methyl Ethyl Ketone
##JCAMP-DX=4.24
##DATA TYPE=INFRARED SPECTRUM
##XUNITS=cm-1
##YUNITS=Absorbance
##FIRSTX=900
##LASTX=2300
##XYDATA=(X++(Y..Y))
2296 0.044465002
2294 0.045390677
2292 0.046315353
2290 0.047240034
2288 0.048165701
2286 0.049090385
2284 0.050015062
2282 0.05094073
2280 0.051865418
2278 0.052790094
2276 0.053715758
2274 0.054642417
2272 0.05556516
2270 0.056483917
2268 0.05741534
2266 0.058364622
2264 0.059266385
2262 0.060100745
2260 0.061113797
2258 0.062374555
2256 0.06297534
2254 0.062648617
2252 0.064775638
2250 0.070362553
2248 0.066830069
2246 0.043339144
2244 0.01122736
2242 -0.012753282
2240 -0.01509548
2238 0.014509909
2236 0.077379353
2234 0.1704262
2232 0.28309318
2230 0.40130839
2228 0.5053063
2226 0.57316303
2224 0.58078599
2222 0.50934023
2220 0.36392733
2218 0.16330792
2216 -0.047065455
2214 -0.21885259
2212 -0.32388979
2210 -0.34960431
2208 -0.32149184
2206 -0.27570051
2204 -0.24504448
2202 -0.25463012
2200 -0.30314913
2198 -0.37835369
2196 -0.45668
2194 -0.51532257
2192 -0.54840928
2190 -0.5596031
2188 -0.5695678
2186 -0.5995124
2184 -0.65140402
2182 -0.71800667
2180 -0.78020942
2178 -0.82028282
2176 -0.84130114
2174 -0.85229027
2172 -0.85861212
2170 -0.8631804
2168 -0.86448854
2166 -0.86075187
2164 -0.85485327
2162 -0.8480947
2160 -0.82855225
2158 -0.78343171
2156 -0.71455002
2154 -0.6330812
2152 -0.56755996
2150 -0.54759216
2148 -0.5832144
2146 -0.67193145
2144 -0.78819239
2142 -0.8999812
2140 -0.98082435
2138 -1.0129126
2136 -1.00474
2134 -0.97653264
2132 -0.95667064
2130 -0.97286898
2128 -1.0380487
2126 -1.1547521
2124 -1.3051308
2122 -1.4618499
2120 -1.5885874
2118 -1.6527927
2116 -1.6509243
2114 -1.594529
2112 -1.5138612
2110 -1.4389049
2108 -1.3730017
2106 -1.3090721
2104 -1.2387056
2102 -1.1586936
2100 -1.085652
2098 -1.0403986
2096 -1.0284286
2094 -1.0470815
2092 -1.0834608
2090 -1.1244082
2088 -1.169836
2086 -1.22566
2084 -1.3000643
2082 -1.3974462
2080 -1.5018692
2078 -1.5904553
2076 -1.6440886
2074 -1.6505903
2072 -1.6200761
2070 -1.5725391
2068 -1.5322701
2066 -1.5222393
2064 -1.5542874
2062 -1.63076
2060 -1.7331808
2058 -1.837254
2056 -1.9297199
2054 -2.0049198
2052 -2.0689244
2050 -2.1304111
2048 -2.1882675
2046 -2.238157
2044 -2.281486
2042 -2.3222523
2040 -2.3657176
2038 -2.4175224
2036 -2.4829342
2034 -2.5657494
2032 -2.6631238
2030 -2.7652681
2028 -2.8442299
2026 -2.8677435
2024 -2.8176286
2022 -2.6884589
2020 -2.5009737
2018 -2.2887914
2016 -2.0915
2014 -1.9474885
2012 -1.8819197
2010 -1.9066136
2008 -2.0027919
2006 -2.1377478
2004 -2.279562
2002 -2.3995759
2000 -2.4801407
1998 -2.5104918
1996 -2.4885144
1994 -2.4205394
1992 -2.3325601
1990 -2.2567716
1988 -2.2113822
1986 -2.2044013
1984 -2.2313783
1982 -2.2839913
1980 -2.3607237
1978 -2.4589043
1976 -2.5565884
1974 -2.6236451
1972 -2.6369462
1970 -2.5845041
1968 -2.4849839
1966 -2.3705137
1964 -2.2674246
1962 -2.1941788
1960 -2.1531401
1958 -2.138273
1956 -2.1404157
1954 -2.1491303
1952 -2.1522541
1950 -2.1409059
1948 -2.1225975
1946 -2.11255
1944 -2.122328
1942 -2.1564591
1940 -2.1993623
1938 -2.2288094
1936 -2.2368829
1934 -2.2268233
1932 -2.2118521
1930 -2.2053888
1928 -2.2008142
1926 -2.1808865
1924 -2.1302164
1922 -2.0465107
1920 -1.9752811
1918 -1.976231
1916 -2.0583072
1914 -2.1912541
1912 -2.3046954
1910 -2.3258193
1908 -2.2574923
1906 -2.1460893
1904 -2.037272
1902 -1.9609773
1900 -1.8959857
1898 -1.7991577
1896 -1.6548572
1894 -1.4717335
1892 -1.2850126
1890 -1.142766
1888 -1.088544
1886 -1.1522678
1884 -1.3208669
1882 -1.5525769
1880 -1.7879303
1878 -1.9665841
1876 -2.0594602
1874 -2.0590811
1872 -1.9678583
1870 -1.7993273
1868 -1.5984854
1866 -1.426475
1864 -1.3362685
1862 -1.360311
1860 -1.4690832
1858 -1.6005089
1856 -1.7104028
1854 -1.774372
1852 -1.7915169
1850 -1.774851
1848 -1.740692
1846 -1.7043428
1844 -1.6735337
1842 -1.6476098
1840 -1.6111451
1838 -1.541351
1836 -1.4200329
1834 -1.23799
1832 -1.0070997
1830 -0.75882411
1828 -0.55456966
1826 -0.46448192
1824 -0.51871634
1822 -0.70908731
1820 -0.97945505
1818 -1.2508067
1816 -1.46654
1814 -1.596101
1812 -1.6449758
1810 -1.6356034
1808 -1.568844
1806 -1.435075
1804 -1.2528043
1802 -1.0643786
1800 -0.92525613
1798 -0.87867725
1796 -0.8838414
1794 -0.85410607
1792 -0.75633121
1790 -0.60585421
1788 -0.44106114
1786 -0.30268323
1784 -0.19463423
1782 -0.09993767
1780 -0.028221609
1778 -0.001104743
1776 0.0048767342
1774 0.043219149
1772 0.14775227
1770 0.31693059
1768 0.47082704
1766 0.50008309
1764 0.40465719
1762 0.25751027
1760 0.075866967
1758 -0.15778294
1756 -0.38400686
1754 -0.4965727
1752 -0.46233606
1750 -0.3215476
1748 -0.16780145
1746 -0.11040714
1744 -0.18927898
1742 -0.36948562
1740 -0.5268386
1738 -0.50579494
1736 -0.27784401
1734 0.065262541
1732 0.35428497
1730 0.41086364
1728 0.218026
1726 -0.098484427
1724 -0.3492372
1722 -0.32559851
1720 0.13076472
1718 1.0821247
1716 2.3428943
1714 3.5730457
1712 4.5798793
1710 5.3544016
1708 6.077486
1706 7.0481429
1704 8.5205402
1702 10.671929
1700 13.575518
1698 17.167957
1696 21.086142
1694 24.79311
1692 28.01144
1690 30.780842
1688 33.482384
1686 36.694214
1684 40.803688
1682 45.877926
1680 51.386597
1678 56.481358
1676 60.992645
1674 65.384819
1672 70.082108
1670 75.257408
1668 80.551147
1666 85.246201
1664 88.962891
1662 91.713676
1660 93.673523
1658 95.079323
1656 96.100288
1654 96.810944
1652 97.172653
1650 97.061111
1648 96.341743
1646 94.936607
1644 93.018013
1642 90.932266
1640 88.809242
1638 86.533363
1636 83.911972
1634 80.765846
1632 77.123734
1630 73.182312
1628 69.016464
1626 64.560478
1624 59.776558
1622 54.711651
1620 49.569851
1618 44.668377
1616 40.216286
1614 36.285275
1612 32.892159
1610 30.020741
1608 27.62277
1606 25.627522
1604 23.973934
1602 22.616762
1600 21.529766
1598 20.702499
1596 20.122002
1594 19.770845
1592 19.629616
1590 19.682861
1588 19.933966
1586 20.39887
1584 21.081211
1582 21.978409
1580 23.136938
1578 24.653757
1576 26.607143
1574 29.018873
1572 31.782871
1570 34.685291
1568 37.566521
1566 40.353542
1564 43.008938
1562 45.540722
1560 48.101231
1558 50.91037
1556 53.810715
1554 56.260441
1552 57.880299
1550 58.604523
1548 58.642803
1546 58.384144
1544 57.963818
1542 57.189651
1540 55.8148
1538 53.670841
1536 50.928116
1534 48.090168
1532 45.527523
1530 43.356739
1528 41.535858
1526 39.8997
1524 38.262222
1522 36.457306
1520 34.402767
1518 32.131153
1516 29.799742
1514 27.646116
1512 25.72352
1510 23.847311
1508 21.792046
1506 19.389893
1504 16.729126
1502 14.162441
1500 11.932377
1498 10.066298
1496 8.4810286
1494 7.0284514
1492 5.6235037
1490 4.2742734
1488 2.9989247
1486 1.812165
1484 0.77250004
1482 -0.011062473
1480 -0.44789064
1478 -0.480986
1476 -0.043403298
1474 0.92330527
1472 2.3190296
1470 3.8607781
1468 5.321846
1466 6.6140881
1464 7.7593179
1462 8.8781395
1460 10.082089
1458 11.417022
1456 12.7752
1454 13.88238
1452 14.52944
1450 14.657606
1448 14.333845
1446 13.742679
1444 13.039125
1442 12.30218
1440 11.563292
1438 10.8109
1436 10.007556
1434 9.1009483
1432 8.0985699
1430 7.0898318
1428 6.1802139
1426 5.4649506
1424 4.996779
1422 4.7690883
1420 4.7462649
1418 4.870214
1416 5.0804229
1414 5.325285
1412 5.5847521
1410 5.8798738
1408 6.2334423
1406 6.6531544
1404 7.1195741
1402 7.5775938
1400 7.9583445
1398 8.18929
1396 8.2250004
1394 8.0665932
1392 7.755157
1390 7.3716688
1388 6.9821382
1386 6.6155548
1384 6.2825365
1382 5.9774299
1380 5.6835771
1378 5.3723001
1376 5.0040917
1374 4.5327926
1372 3.9417
1370 3.2622271
1368 2.53918
1366 1.8199043
1364 1.1408968
1362 0.5243423
1360 0.0071237683
1358 -0.35030779
1356 -0.50782526
1354 -0.46590051
1352 -0.23618206
1350 0.16480523
1348 0.71063817
1346 1.3615822
1344 2.0795641
1342 2.8292339
1340 3.5479648
1338 4.1319718
1336 4.4879403
1334 4.5635228
1332 4.3670197
1330 3.989356
1328 3.5318937
1326 3.0789893
1324 2.6929626
1322 2.4029567
1320 2.2153337
1318 2.1097114
1316 2.0548501
1314 2.0120757
1312 1.9477115
1310 1.8409058
1308 1.6853454
1306 1.4944664
1304 1.2888777
1302 1.0940734
1300 0.93965966
1298 0.86082476
1296 0.89271283
1294 1.0658759
1292 1.3935922
1290 1.8584043
1288 2.4224401
1286 3.0247908
1284 3.6040823
1282 4.1099052
1280 4.5091405
1278 4.7968364
1276 4.9839516
1274 5.0990996
1272 5.1747956
1270 5.2431645
1268 5.3326683
1266 5.4658689
1264 5.6681342
1262 5.9713211
1260 6.4043941
1258 6.9862967
1256 7.7202029
1254 8.5838823
1252 9.5493011
1250 10.587832
1248 11.669565
1246 12.7585
1244 13.813566
1242 14.786968
1240 15.635092
1238 16.326578
1236 16.828329
1234 17.10359
1232 17.101521
1230 16.75803
1228 16.036095
1226 14.968279
1224 13.635646
1222 12.179097
1220 10.741534
1218 9.4303999
1216 8.3272114
1214 7.4707894
1212 6.8855209
1210 6.5826116
1208 6.5438466
1206 6.6941109
1204 6.9240861
1202 7.0861487
1200 7.0592513
1198 6.8012934
1196 6.3237286
1194 5.7103949
1192 5.0522928
1190 4.4168873
1188 3.8464599
1186 3.3407173
1184 2.8863835
1182 2.4654136
1180 2.0728655
1178 1.7342259
1176 1.4797801
1174 1.3330934
1172 1.3000026
1170 1.3520626
1168 1.4537337
1166 1.5719072
1164 1.675302
1162 1.735063
1160 1.7282509
1158 1.6446273
1156 1.4896615
1154 1.2963586
1152 1.096752
1150 0.90407622
1148 0.71941876
1146 0.52760643
1144 0.32700211
1142 0.15493816
1140 0.046297941
1138 0.0071647679
1136 0.025168456
1134 0.06173427
1132 0.082389913
1130 0.078927658
1128 0.063521795
1126 0.079718471
1124 0.15639046
1122 0.26907274
1120 0.38304842
1118 0.47144815
1116 0.52542138
1114 0.57490849
1112 0.6507991
1110 0.76295209
1108 0.91214126
1106 1.08909
1104 1.2824697
1102 1.4816196
1100 1.6787124
1098 1.8725183
1096 2.0664284
1094 2.2722032
1092 2.5066199
1090 2.7944908
1088 3.1575394
1086 3.6026416
1084 4.1130662
1082 4.6192379
1080 5.0344868
1078 5.263557
1076 5.2429628
1074 5.0022044
1072 4.6163573
1070 4.2199683
1068 3.934001
1066 3.8013864
1064 3.81866
1062 3.9082243
1060 3.9837573
1058 3.986227
1056 3.8836143
1054 3.7016053
1052 3.4834225
1050 3.2813001
1048 3.1396029
1046 3.0724821
1044 3.0804484
1042 3.1450739
1040 3.2424309
1038 3.346272
1036 3.43753
1034 3.5193181
1032 3.5966029
1030 3.6632454
1028 3.7028291
1026 3.6785879
1024 3.5626204
1022 3.370255
1020 3.1280527
1018 2.8652909
1016 2.60952
1014 2.3801665
1012 2.191504
1010 2.0458565
1008 1.925656
1006 1.7608693
1004 1.4930614
1002 1.1392605
1000 0.73940009
998 0.34635812
996 -0.00177899
994 -0.3220841
992 -0.62603688
990 -0.86460263
988 -0.98392558
986 -0.96382713
984 -0.81502914
982 -0.62053847
980 -0.45975763
978 -0.34174231
976 -0.25370628
974 -0.16872089
972 -0.06971848
970 0.015868846
968 0.055850334
966 0.039245546
964 -0.032449439
962 -0.1331031
960 -0.22970246
958 -0.28700146
956 -0.28149286
954 -0.23219253
952 -0.1677992
950 -0.11344057
948 -0.079111844
946 -0.024483144
944 0.1013346
942 0.34157971
940 0.70907462
938 1.114638
936 1.4669914
934 1.7592323
932 2.0147431
930 2.2897625
928 2.6258075
926 2.9790771
924 3.288444
922 3.5081594
920 3.6120892
918 3.6340213
916 3.6090229
914 3.518672
912 3.3450549
910 3.122761
908 2.9100966
906 2.80619
904 2.8894897
902 3.1151981
900 3.4178078
898 3.7700498
896 4.1543999
