Image.
>Pix99999.
  .
5555
5555
2300
900
5555
2
1
0
701
5555
9.1483002e-004
9.3387277e-004
9.5285568e-004
9.7191817e-004
9.9092128e-004
1.0100631e-003
1.0290372e-003
1.0480100e-003
1.0670817e-003
1.0861545e-003
1.1051286e-003
1.1241998e-003
1.1431742e-003
1.1622453e-003
1.1813181e-003
1.2002928e-003
1.2193634e-003
1.2384361e-003
1.2574114e-003
1.2763842e-003
1.2954542e-003
1.3145270e-003
1.3335029e-003
1.3525723e-003
1.3716451e-003
1.3905250e-003
5.0867423e-002
2.0356458e-003
-8.0946244e-002
-2.2680202e-001
-3.8174787e-001
-3.6309314e-001
-3.2852954e-001
-2.1836145e-001
-1.1654369e-001
-1.1013800e-001
-1.1872046e-001
-1.7360336e-001
-2.2885288e-001
-2.7762899e-001
-3.1874198e-001
-3.4389964e-001
-3.4117460e-001
-2.9449764e-001
-2.0867279e-001
-7.7401176e-002
4.7207020e-002
1.6259220e-001
1.9946371e-001
1.7809030e-001
7.4152999e-002
-7.5149983e-002
-2.3514299e-001
-3.9849725e-001
-4.8671272e-001
-5.5044580e-001
-5.3219277e-001
-4.9543962e-001
-4.6329573e-001
-4.3234697e-001
-4.3036172e-001
-4.2916027e-001
-4.0640011e-001
-3.7974831e-001
-3.4246811e-001
-3.1131029e-001
-3.0625194e-001
-3.0629128e-001
-3.1272128e-001
-3.1567258e-001
-3.1081700e-001
-3.0917171e-001
-3.1334731e-001
-3.0778497e-001
-2.9054466e-001
-2.7017036e-001
-2.4810790e-001
-2.6323190e-001
-3.0434608e-001
-3.3314735e-001
-3.5380685e-001
-2.8496575e-001
-1.7878409e-001
-3.8404033e-002
1.1179733e-001
1.7369285e-001
2.1487834e-001
1.3884021e-001
4.2257521e-002
-9.3803264e-002
-2.3492928e-001
-3.7218428e-001
-5.0374544e-001
-6.1264300e-001
-7.0303732e-001
-7.4756724e-001
-7.7238178e-001
-7.6855826e-001
-7.5537419e-001
-7.3354268e-001
-7.0466715e-001
-6.6819942e-001
-6.3598818e-001
-6.0933101e-001
-5.9278262e-001
-5.8399802e-001
-5.4765821e-001
-4.9245751e-001
-3.7811869e-001
-2.3394103e-001
-1.0741316e-001
1.0308791e-002
3.1265438e-002
2.1287140e-002
-4.0211048e-002
-1.1369038e-001
-1.9120125e-001
-2.6656100e-001
-3.1340137e-001
-3.5057199e-001
-3.6557600e-001
-3.7656474e-001
-3.8855371e-001
-3.9173508e-001
-3.7137210e-001
-3.6404857e-001
-3.9089000e-001
-4.7111532e-001
-6.2247032e-001
-7.8036010e-001
-9.3022913e-001
-1.0195827e+000
-1.0515703e+000
-1.0119600e+000
-9.2377800e-001
-8.0273408e-001
-6.6566169e-001
-5.6352037e-001
-4.8072830e-001
-4.8841795e-001
-5.3328198e-001
-6.2133992e-001
-7.2290874e-001
-7.4435067e-001
-7.4298495e-001
-7.1853471e-001
-6.9912022e-001
-7.5584221e-001
-8.3446836e-001
-9.2311037e-001
-1.0049728e+000
-1.0580771e+000
-1.1199034e+000
-1.2185380e+000
-1.3408480e+000
-1.4902350e+000
-1.6083429e+000
-1.6739558e+000
-1.6605260e+000
-1.5709453e+000
-1.3930542e+000
-1.1483780e+000
-8.2946873e-001
-4.6390158e-001
-1.8980807e-001
2.0707052e-002
-5.2316826e-002
-2.6995751e-001
-5.8720118e-001
-9.4001865e-001
-1.1474700e+000
-1.2987747e+000
-1.3581058e+000
-1.3899173e+000
-1.4297606e+000
-1.4779500e+000
-1.5580961e+000
-1.6523763e+000
-1.7653401e+000
-1.8776203e+000
-1.9741428e+000
-2.0451775e+000
-2.0730219e+000
-2.0721254e+000
-2.0436418e+000
-1.9745808e+000
-1.8616346e+000
-1.6715220e+000
-1.4112554e+000
-1.1709169e+000
-9.6531367e-001
-8.5469013e-001
-8.1040287e-001
-8.0940020e-001
-8.2769513e-001
-9.3001610e-001
-1.0769421e+000
-1.2285354e+000
-1.3803492e+000
-1.3671448e+000
-1.2827286e+000
-1.1149721e+000
-9.2755008e-001
-8.2804132e-001
-7.9561722e-001
-9.0872371e-001
-1.0894951e+000
-1.3116678e+000
-1.5243691e+000
-1.6790824e+000
-1.7778900e+000
-1.8084488e+000
-1.7513337e+000
-1.5949144e+000
-1.3899866e+000
-1.1658893e+000
-1.0598606e+000
-1.0867110e+000
-1.2280526e+000
-1.4404496e+000
-1.6671771e+000
-1.8913747e+000
-2.0392995e+000
-2.1353703e+000
-2.1384079e+000
-2.0902286e+000
-2.1164048e+000
-2.1831162e+000
-2.2867885e+000
-2.3922746e+000
-2.3556457e+000
-2.2350340e+000
-2.0106828e+000
-1.7440406e+000
-1.4942646e+000
-1.3161807e+000
-1.3173783e+000
-1.4745244e+000
-1.8055700e+000
-2.1777613e+000
-2.5010571e+000
-2.6949770e+000
-2.7266860e+000
-2.6414669e+000
-2.4806023e+000
-2.2961202e+000
-2.1111197e+000
-1.9370211e+000
-1.7718965e+000
-1.6117163e+000
-1.4535357e+000
-1.2609531e+000
-1.0451241e+000
-8.0238712e-001
-5.4655707e-001
-3.3669958e-001
-1.5775737e-001
-2.0479530e-002
9.9987730e-002
2.6610339e-001
4.6493655e-001
7.0016259e-001
8.9872211e-001
9.1743457e-001
8.0091494e-001
5.6361157e-001
3.2858980e-001
2.1154644e-001
7.1276516e-002
-1.8876569e-001
-4.1474956e-001
-5.2633607e-001
-3.6672503e-001
7.7205285e-002
6.1082959e-001
1.1457757e+000
1.3453971e+000
1.2225794e+000
1.0613751e+000
9.2550093e-001
1.1376200e+000
1.6162392e+000
1.8558228e+000
1.8872337e+000
1.3865166e+000
5.6449741e-001
-8.7988824e-003
-2.9923481e-001
1.3994050e-001
1.2262046e+000
2.8287129e+000
4.5065212e+000
5.6359520e+000
6.3600869e+000
6.8343282e+000
7.4617515e+000
8.6203537e+000
1.0555651e+001
1.3362040e+001
1.6854923e+001
2.0811571e+001
2.4462851e+001
2.7527740e+001
3.0271690e+001
3.2859402e+001
3.6144321e+001
4.0172241e+001
4.4817177e+001
4.9901081e+001
5.4232391e+001
5.7882744e+001
6.1621166e+001
6.5525078e+001
7.0200134e+001
7.5419876e+001
8.0410149e+001
8.5102394e+001
8.9217575e+001
9.2814636e+001
9.5985413e+001
9.8763596e+001
1.0121179e+002
1.0320040e+002
1.0459166e+002
1.0484291e+002
1.0352643e+002
1.0109430e+002
9.8045311e+001
9.4680389e+001
9.1230537e+001
8.7255074e+001
8.2629753e+001
7.7738670e+001
7.2750130e+001
6.7996025e+001
6.3524506e+001
5.9024521e+001
5.4452385e+001
5.0063656e+001
4.5865673e+001
4.1881687e+001
3.8128197e+001
3.4726460e+001
3.1708620e+001
2.9149633e+001
2.7021257e+001
2.5157940e+001
2.3567007e+001
2.2218103e+001
2.1146631e+001
2.0365501e+001
1.9872044e+001
1.9620348e+001
1.9547598e+001
1.9566645e+001
1.9677351e+001
1.9870554e+001
2.0224140e+001
2.0772961e+001
2.1622883e+001
2.2801399e+001
2.4174101e+001
2.5684151e+001
2.7055271e+001
2.8226080e+001
2.9311579e+001
3.0335026e+001
3.1685472e+001
3.3481247e+001
3.6275803e+001
4.0068600e+001
4.3814880e+001
4.7294296e+001
4.9786186e+001
5.1388390e+001
5.2832569e+001
5.4103130e+001
5.5223118e+001
5.5869598e+001
5.5591381e+001
5.4485802e+001
5.2825153e+001
5.0996708e+001
4.9436699e+001
4.8117863e+001
4.7006950e+001
4.5832737e+001
4.4423229e+001
4.2573616e+001
4.0155849e+001
3.7700600e+001
3.5377415e+001
3.3221397e+001
3.1273241e+001
2.8820618e+001
2.5689243e+001
2.2456970e+001
1.9186842e+001
1.6567560e+001
1.4697240e+001
1.3001143e+001
1.1489577e+001
1.0008842e+001
8.5429840e+000
7.0295038e+000
5.4510088e+000
3.7977540e+000
2.2212090e+000
9.7652602e-001
1.9500785e-001
3.8598031e-002
5.1244974e-001
1.4790589e+000
2.4610929e+000
3.1142364e+000
3.5083344e+000
3.6549382e+000
3.9051471e+000
4.4447503e+000
5.1315317e+000
5.9644399e+000
6.5054588e+000
6.5581479e+000
6.3946953e+000
5.9438195e+000
5.5028071e+000
5.0834317e+000
4.7150717e+000
4.4246464e+000
4.2093034e+000
4.0638013e+000
3.8683643e+000
3.6030645e+000
3.2570639e+000
2.8861039e+000
2.6421485e+000
2.5646045e+000
2.6876135e+000
2.9568923e+000
3.2810085e+000
3.5768027e+000
3.7463021e+000
3.8313632e+000
3.8546484e+000
3.8822172e+000
3.9595594e+000
4.0966306e+000
4.3225408e+000
4.6041923e+000
4.9625807e+000
5.3029213e+000
5.5926337e+000
5.7841682e+000
5.7995243e+000
5.7047186e+000
5.4359202e+000
5.0775928e+000
4.6092005e+000
4.1510153e+000
3.7278140e+000
3.3902171e+000
3.1536779e+000
2.9724200e+000
2.8344646e+000
2.6915007e+000
2.5287778e+000
2.3269539e+000
2.0812387e+000
1.7770325e+000
1.4327019e+000
1.0558925e+000
6.8455428e-001
3.5874319e-001
9.9492170e-002
-5.3068027e-002
-1.3740504e-001
-4.4762202e-002
1.2124521e-001
4.0381438e-001
6.2478501e-001
7.0365745e-001
6.8056911e-001
4.7981960e-001
3.2113808e-001
2.4714692e-001
2.9005921e-001
5.1250589e-001
8.4324044e-001
1.3037994e+000
1.7894998e+000
2.2617800e+000
2.5989547e+000
2.7814503e+000
2.8161602e+000
2.7443206e+000
2.6521893e+000
2.5601447e+000
2.5017431e+000
2.4737127e+000
2.4890718e+000
2.5310001e+000
2.6054535e+000
2.6769173e+000
2.7192349e+000
2.7362881e+000
2.6971607e+000
2.6511188e+000
2.5971868e+000
2.5648496e+000
2.5835948e+000
2.6408501e+000
2.7761319e+000
2.9499681e+000
3.1881447e+000
3.4432826e+000
3.7175436e+000
3.9790995e+000
4.2207055e+000
4.4415941e+000
4.6494112e+000
4.8813910e+000
5.1547451e+000
5.5125608e+000
5.9378948e+000
6.4168234e+000
6.9066000e+000
7.3420310e+000
7.7278757e+000
8.0159302e+000
8.2537498e+000
8.4153948e+000
8.5363054e+000
8.5707922e+000
8.5633459e+000
8.4481878e+000
8.3036432e+000
8.0817785e+000
7.8356910e+000
7.5270519e+000
7.1698618e+000
6.7132311e+000
6.2146964e+000
5.6557112e+000
5.1271119e+000
4.6515937e+000
4.2427459e+000
3.9042418e+000
3.5592158e+000
3.1897216e+000
2.7365091e+000
2.2191215e+000
1.6822053e+000
1.1571996e+000
7.2877192e-001
3.6934671e-001
1.2020293e-001
-7.0581257e-002
-1.6965482e-001
-2.2084826e-001
-1.6120106e-001
-6.8375200e-002
9.7461060e-002
2.5242877e-001
3.4730041e-001
4.1165051e-001
3.8373607e-001
3.5376531e-001
3.1920108e-001
2.8706068e-001
2.5911283e-001
2.2697586e-001
1.9346522e-001
1.9126920e-001
2.3049107e-001
2.7869642e-001
3.2475144e-001
3.0740771e-001
2.3266473e-001
1.3105726e-001
3.1665273e-002
3.7158888e-002
1.2311031e-001
3.7121153e-001
6.9207847e-001
1.0694754e+000
1.4631171e+000
1.8615103e+000
2.2533133e+000
2.6059198e+000
2.9380329e+000
3.1806855e+000
3.4279945e+000
3.7010293e+000
3.9807405e+000
4.2774067e+000
4.5339251e+000
4.6908197e+000
4.8273759e+000
4.9296575e+000
5.0690656e+000
5.2728715e+000
5.5379009e+000
5.8892899e+000
6.3311872e+000
6.8617449e+000
7.4045367e+000
7.9372020e+000
8.3322830e+000
8.6310225e+000
8.8215122e+000
8.9505949e+000
8.9864988e+000
8.9717007e+000
8.8114624e+000
8.6153660e+000
8.3918877e+000
8.1766672e+000
8.0492477e+000
7.9472942e+000
7.9830236e+000
8.0479317e+000
8.2396135e+000
8.4320621e+000
8.6231565e+000
8.7695103e+000
8.8050718e+000
8.7972078e+000
8.7099962e+000
8.6285601e+000
8.5548487e+000
8.4758997e+000
8.3820515e+000
8.1977348e+000
7.9259009e+000
7.5727091e+000
7.1724343e+000
6.8590336e+000
6.5968013e+000
6.3983617e+000
6.2033010e+000
5.7828116e+000
5.2837877e+000
4.5863400e+000
3.8691373e+000
3.3090761e+000
2.7873585e+000
2.5625677e+000
2.3531554e+000
2.2306800e+000
2.0977585e+000
1.9186143e+000
1.7326961e+000
1.5249828e+000
1.3041404e+000
1.0554343e+000
8.3950937e-001
6.8557203e-001
6.2043554e-001
6.7269456e-001
7.1116090e-001
7.3111832e-001
6.7729825e-001
5.6855929e-001
5.2590579e-001
5.2924204e-001
6.4336652e-001
8.0431581e-001
9.0273082e-001
9.7697347e-001
9.6836084e-001
9.4273227e-001
9.3355006e-001
9.2023122e-001
7.6057357e-001
5.8512640e-001
2.6994172e-001
5.0970400e-004
5.0504655e-003
1.7805803e-001
9.5364940e-001
1.7994828e+000
2.8461993e+000
3.7154617e+000
4.2005939e+000
4.4121642e+000
4.1854086e+000
3.8475361e+000
3.3769250e+000
3.0089166e+000
2.7398343e+000
2.7062957e+000
2.8409662e+000
3.1422560e+000
3.5306959e+000
3.8295758e+000
4.0938087e+000
4.2346220e+000
4.3435850e+000
4.5264573e+000
4.7214136e+000
5.0105000e+000
