Image.
>Pix99999.
  .
5555
5555
2300
900
5555
2
1
0
701
5555
-9.1428001e-004
-9.3374215e-004
-9.5315446e-004
-9.7255671e-004
-9.9197880e-004
-1.0114607e-003
-1.0308338e-003
-1.0503050e-003
-1.0696782e-003
-1.0892480e-003
-1.1086228e-003
-1.1276014e-003
-1.1473605e-003
-1.1684082e-003
-1.1863420e-003
-1.1998129e-003
-1.2250171e-003
-1.2662873e-003
-1.2645719e-003
-1.2024316e-003
-1.3004658e-003
-1.6234029e-003
-1.3514457e-003
-2.4029874e-004
-1.3407998e-003
-5.3992821e-003
-2.0607229e-004
2.3741517e-002
5.0427761e-002
6.1493110e-002
5.8265842e-002
5.0055843e-002
5.5489831e-002
8.8628232e-002
1.3450113e-001
1.6983899e-001
1.7190252e-001
1.2475228e-001
3.8987935e-002
-6.8758354e-002
-1.8906680e-001
-3.1276479e-001
-4.2250881e-001
-5.0121677e-001
-5.4310709e-001
-5.5217808e-001
-5.5826372e-001
-5.9327835e-001
-6.6567373e-001
-7.7276659e-001
-8.9651138e-001
-1.0138787e+000
-1.1003451e+000
-1.1350681e+000
-1.1130365e+000
-1.0419850e+000
-9.6187443e-001
-9.1440576e-001
-9.0825701e-001
-9.3506187e-001
-9.6141285e-001
-9.5726913e-001
-9.3862283e-001
-9.3400347e-001
-9.6035933e-001
-1.0217866e+000
-1.0866715e+000
-1.1205616e+000
-1.1254863e+000
-1.1185787e+000
-1.1271601e+000
-1.1724995e+000
-1.2378777e+000
-1.2944225e+000
-1.3162972e+000
-1.2865036e+000
-1.2181605e+000
-1.1355400e+000
-1.0652552e+000
-1.0300099e+000
-1.0333200e+000
-1.0690409e+000
-1.1198617e+000
-1.1663694e+000
-1.1955600e+000
-1.1989757e+000
-1.1767205e+000
-1.1348934e+000
-1.0900573e+000
-1.0603964e+000
-1.0531529e+000
-1.0691299e+000
-1.0982652e+000
-1.1303954e+000
-1.1699346e+000
-1.2239729e+000
-1.2867366e+000
-1.3440845e+000
-1.3691859e+000
-1.3368844e+000
-1.2482144e+000
-1.1171671e+000
-9.6883857e-001
-8.3031589e-001
-7.2085959e-001
-6.5568948e-001
-6.4689755e-001
-7.0089537e-001
-8.0492026e-001
-9.3557513e-001
-1.0567157e+000
-1.1326171e+000
-1.1498680e+000
-1.1090876e+000
-1.0315171e+000
-9.4546837e-001
-8.7588012e-001
-8.4089541e-001
-8.3800894e-001
-8.5459328e-001
-8.7120861e-001
-8.6939412e-001
-8.4517139e-001
-8.0368644e-001
-7.6211172e-001
-7.3970109e-001
-7.4413443e-001
-7.7428353e-001
-8.1379867e-001
-8.4492648e-001
-8.7062085e-001
-9.0269393e-001
-9.5107448e-001
-1.0178336e+000
-1.0776929e+000
-1.0982243e+000
-1.0682714e+000
-9.9240917e-001
-8.9906275e-001
-8.2164156e-001
-7.7192998e-001
-7.4882758e-001
-7.4054080e-001
-7.3405850e-001
-7.2924483e-001
-7.3091882e-001
-7.3887116e-001
-7.4947208e-001
-7.5616449e-001
-7.5339639e-001
-7.4498355e-001
-7.4027425e-001
-7.5315958e-001
-7.9386246e-001
-8.4897757e-001
-8.9391291e-001
-9.0487188e-001
-8.6592722e-001
-7.8990585e-001
-7.0089459e-001
-6.1195999e-001
-5.2700150e-001
-4.3776074e-001
-3.3673537e-001
-2.4331599e-001
-1.8775186e-001
-1.8790391e-001
-2.4647641e-001
-3.3169359e-001
-4.0049762e-001
-4.3351427e-001
-4.2842549e-001
-3.9953828e-001
-3.6728397e-001
-3.4626001e-001
-3.4629750e-001
-3.7199876e-001
-4.2209956e-001
-4.8067001e-001
-5.2650923e-001
-5.4803199e-001
-5.4260665e-001
-5.2202219e-001
-5.0131845e-001
-4.7839221e-001
-4.3942371e-001
-3.6198142e-001
-2.2929010e-001
-6.5871783e-002
8.4540218e-002
1.9336386e-001
2.4931830e-001
2.7213418e-001
2.9093328e-001
3.0520272e-001
2.9801551e-001
2.5835040e-001
1.8661469e-001
1.1195359e-001
7.5190119e-002
9.9544853e-002
1.8886569e-001
3.1192464e-001
4.2127529e-001
4.8164040e-001
4.7304964e-001
4.0465769e-001
3.0241901e-001
1.9586697e-001
1.1399262e-001
8.0844499e-002
1.1238222e-001
2.0186983e-001
3.2478812e-001
4.3597504e-001
4.8784158e-001
4.7058806e-001
4.0250459e-001
3.2129177e-001
2.6732865e-001
2.5140372e-001
2.6558909e-001
3.0288130e-001
3.5789520e-001
4.2118841e-001
4.7897965e-001
5.1042175e-001
4.9629205e-001
4.4302064e-001
3.7378213e-001
3.1297201e-001
2.8218099e-001
2.9495063e-001
3.5568333e-001
4.5013484e-001
5.5104887e-001
6.2378800e-001
6.3677841e-001
5.8789778e-001
4.9712545e-001
3.9637685e-001
3.1951380e-001
2.8396344e-001
2.9328838e-001
3.4005553e-001
4.1105551e-001
4.9381477e-001
5.7925951e-001
6.6831332e-001
7.6498705e-001
8.5751283e-001
9.2262691e-001
9.3692678e-001
8.8672316e-001
7.9658186e-001
7.1112055e-001
6.4768672e-001
6.0502893e-001
5.9765500e-001
6.4611471e-001
7.3579258e-001
8.2022727e-001
8.2786679e-001
6.9456857e-001
4.5554534e-001
2.1407214e-001
5.3797051e-002
1.0427582e-002
7.5223786e-003
-8.0689490e-002
-2.4992201e-001
-3.9921811e-001
-4.6449822e-001
-4.3374559e-001
-3.4555563e-001
-2.6661786e-001
-2.4770539e-001
-3.1001186e-001
-4.1249749e-001
-4.7949228e-001
-4.7935200e-001
-4.2701083e-001
-3.7147883e-001
-3.6948955e-001
-4.1988268e-001
-4.7180352e-001
-4.6148705e-001
-3.2316050e-001
4.2431951e-003
5.6187463e-001
1.3166504e+000
2.1737738e+000
3.0159783e+000
3.7458153e+000
4.4011540e+000
5.1349363e+000
6.1336832e+000
7.5869360e+000
9.6509333e+000
1.2390622e+001
1.5575000e+001
1.8769970e+001
2.1688648e+001
2.4264292e+001
2.6736378e+001
2.9538607e+001
3.2955956e+001
3.7020721e+001
4.1316200e+001
4.5187424e+001
4.8484131e+001
5.1540703e+001
5.4731892e+001
5.8327679e+001
6.2320362e+001
6.6488098e+001
7.0664345e+001
7.4762024e+001
7.8658707e+001
8.2212509e+001
8.5409431e+001
8.8354485e+001
9.1155319e+001
9.3835060e+001
9.6094116e+001
9.7427032e+001
9.7686867e+001
9.7090179e+001
9.5854324e+001
9.4110611e+001
9.1884544e+001
8.9146896e+001
8.5995987e+001
8.2630753e+001
7.9116150e+001
7.5378029e+001
7.1369080e+001
6.7112846e+001
6.2727367e+001
5.8397995e+001
5.4259399e+001
5.0384453e+001
4.6839462e+001
4.3682400e+001
4.0917850e+001
3.8499828e+001
3.6377125e+001
3.4508987e+001
3.2873142e+001
3.1460135e+001
3.0256001e+001
2.9238829e+001
2.8377766e+001
2.7638445e+001
2.7013718e+001
2.6523972e+001
2.6194567e+001
2.6053381e+001
2.6136600e+001
2.6484161e+001
2.7116343e+001
2.8020205e+001
2.9100145e+001
3.0191425e+001
3.1168560e+001
3.1974787e+001
3.2621265e+001
3.3207527e+001
3.4000454e+001
3.5365700e+001
3.7381584e+001
3.9774120e+001
4.2148006e+001
4.4116859e+001
4.5606098e+001
4.6859322e+001
4.8045303e+001
4.9162804e+001
5.0108299e+001
5.0713131e+001
5.0857773e+001
5.0516205e+001
4.9788681e+001
4.8881954e+001
4.7929016e+001
4.6940800e+001
4.5857620e+001
4.4574482e+001
4.3017033e+001
4.1176983e+001
3.9154613e+001
3.7130737e+001
3.5143040e+001
3.3044373e+001
3.0688969e+001
2.8016600e+001
2.5171194e+001
2.2484453e+001
2.0131210e+001
1.8042599e+001
1.6088142e+001
1.4135278e+001
1.2116880e+001
1.0050789e+001
7.9764891e+000
5.9454794e+000
4.0544581e+000
2.4424815e+000
1.2097714e+000
4.0284359e-001
9.2446275e-002
3.5832131e-001
1.0925144e+000
1.9725740e+000
2.7801437e+000
3.4945414e+000
4.1584411e+000
4.8245144e+000
5.4550791e+000
5.9029446e+000
6.0592799e+000
5.9138904e+000
5.5688772e+000
5.2233286e+000
4.9693117e+000
4.7370105e+000
4.4709949e+000
4.1806750e+000
3.8829007e+000
3.5815890e+000
3.2559443e+000
2.8626714e+000
2.3928313e+000
1.8919959e+000
1.4217060e+000
1.0448053e+000
8.0030465e-001
6.9180483e-001
7.0309687e-001
8.0198270e-001
9.5739657e-001
1.1475201e+000
1.3669734e+000
1.6292008e+000
1.9434127e+000
2.3053343e+000
2.6985137e+000
3.0939777e+000
3.4622080e+000
3.7791092e+000
4.0340071e+000
4.2332463e+000
4.3831186e+000
4.4821768e+000
4.5170040e+000
4.4630599e+000
4.3168635e+000
4.1096754e+000
3.8775227e+000
3.6485081e+000
3.4291172e+000
3.1984940e+000
2.9465940e+000
2.6877258e+000
2.4352942e+000
2.1899185e+000
1.9334314e+000
1.6284677e+000
1.2643092e+000
8.7934279e-001
5.2612329e-001
2.5660801e-001
8.9984417e-002
-4.5298375e-003
-5.9459083e-002
-9.0742931e-002
-1.0134840e-001
-8.1969529e-002
-3.5780836e-002
1.0974651e-002
3.6240943e-002
3.5271555e-002
1.9496463e-002
1.8602610e-002
5.5099871e-002
1.3297442e-001
2.5270766e-001
4.1485551e-001
6.1378568e-001
8.3276093e-001
1.0485570e+000
1.2329857e+000
1.3672606e+000
1.4510518e+000
1.4920206e+000
1.5043879e+000
1.5049206e+000
1.5112970e+000
1.5389669e+000
1.5967735e+000
1.6818000e+000
1.7731800e+000
1.8497623e+000
1.8989016e+000
1.9223360e+000
1.9429142e+000
1.9827117e+000
2.0521619e+000
2.1516976e+000
2.2688887e+000
2.3930886e+000
2.5221100e+000
2.6574178e+000
2.8038955e+000
2.9708984e+000
3.1747458e+000
3.4341588e+000
3.7674472e+000
4.1802101e+000
4.6549420e+000
5.1709142e+000
5.7122235e+000
6.2753234e+000
6.8758240e+000
7.5241485e+000
8.2109251e+000
8.9120903e+000
9.5851307e+000
1.0191422e+001
1.0709707e+001
1.1131971e+001
1.1464944e+001
1.1712680e+001
1.1871517e+001
1.1934628e+001
1.1901778e+001
1.1771502e+001
1.1540582e+001
1.1202949e+001
1.0748650e+001
1.0185526e+001
9.5503864e+000
8.8890114e+000
8.2449303e+000
7.6452060e+000
7.0832529e+000
6.5422421e+000
6.0007238e+000
5.4434028e+000
4.8702817e+000
4.2895784e+000
3.7186964e+000
3.1750410e+000
2.6714139e+000
2.2149289e+000
1.8026199e+000
1.4300165e+000
1.0947030e+000
8.0065972e-001
5.6390625e-001
3.9925599e-001
3.1149560e-001
2.9297444e-001
3.1444725e-001
3.4590366e-001
3.6799836e-001
3.7176609e-001
3.6524448e-001
3.5595232e-001
3.4117186e-001
3.1572598e-001
2.7482292e-001
2.1729879e-001
1.5007898e-001
8.0862604e-002
1.5290711e-002
-3.6927961e-002
-5.6179315e-002
-2.6249047e-002
5.5145934e-002
1.8322542e-001
3.4548903e-001
5.3744006e-001
7.7761614e-001
1.0871897e+000
1.4787985e+000
1.9483268e+000
2.4572513e+000
2.9649360e+000
3.4476523e+000
3.8914642e+000
4.2969418e+000
4.6682520e+000
5.0097213e+000
5.3281159e+000
5.6360698e+000
5.9432817e+000
6.2493348e+000
6.5546336e+000
6.8688741e+000
7.2054000e+000
7.5797777e+000
7.9991941e+000
8.4465008e+000
8.8949795e+000
9.3096781e+000
9.6644306e+000
9.9630690e+000
1.0222857e+001
1.0474319e+001
1.0737686e+001
1.0995370e+001
1.1217868e+001
1.1373067e+001
1.1446826e+001
1.1467121e+001
1.1468600e+001
1.1475845e+001
1.1497703e+001
1.1496636e+001
1.1429600e+001
1.1253142e+001
1.0939754e+001
1.0506240e+001
9.9868841e+000
9.4358721e+000
8.9060078e+000
8.4286966e+000
8.0182953e+000
7.6556115e+000
7.3140001e+000
6.9696665e+000
6.6076822e+000
6.2364993e+000
5.8661013e+000
5.4949021e+000
5.1172423e+000
4.7251258e+000
4.3172250e+000
3.9124937e+000
3.5314400e+000
3.1845365e+000
2.8761988e+000
2.6010230e+000
2.3495722e+000
2.1081443e+000
1.8640599e+000
1.6118143e+000
1.3529657e+000
1.1058563e+000
8.8631284e-001
6.9012749e-001
5.0798553e-001
3.3055544e-001
1.5414770e-001
-6.9162175e-003
-1.3602360e-001
-2.2346911e-001
-2.6179239e-001
-2.4539286e-001
-1.7006016e-001
-3.4910202e-002
1.5711085e-001
3.9286786e-001
6.5331739e-001
9.0792900e-001
1.1246674e+000
1.2761905e+000
1.3418634e+000
1.3198828e+000
1.2148914e+000
1.0375811e+000
8.0472445e-001
5.4822862e-001
3.0724031e-001
1.3187367e-001
4.9486097e-002
-2.9093027e-003
-9.2577428e-002
-2.2145920e-001
-3.7400085e-001
-5.3021622e-001
-6.7188829e-001
-7.9164588e-001
-8.8871050e-001
-9.7658300e-001
-1.0659779e+000
-1.1443307e+000
-1.1995714e+000
-1.2445999e+000
-1.2955757e+000
-1.3569193e+000
-1.4283332e+000
-1.5010610e+000
-1.5670279e+000
-1.6284751e+000
-1.6806064e+000
-1.6813155e+000
-1.5915148e+000
-1.4218760e+000
-1.1954000e+000
