Image.
>Pix99999.
  .
5555
5555
2300
900
5555
2
1
0
701
5555
1.9450000e-003
1.9854424e-003
2.0259840e-003
2.0664264e-003
2.1068687e-003
2.1473109e-003
2.1878518e-003
2.2282952e-003
2.2688359e-003
2.3091806e-003
2.3497201e-003
2.3901637e-003
2.4306057e-003
2.4710479e-003
2.5114899e-003
2.5520299e-003
2.5924742e-003
2.6330140e-003
2.6733612e-003
2.7138980e-003
2.7542457e-003
2.7948790e-003
2.8353271e-003
2.8757693e-003
2.9162115e-003
2.9566537e-003
3.3138759e-002
1.3231157e-003
-3.5656322e-002
-7.7620551e-002
-1.2026872e-001
-1.7020109e-001
-2.1942857e-001
-2.4086101e-001
-2.5621462e-001
-2.3362750e-001
-2.1561977e-001
-2.2723122e-001
-2.5217810e-001
-3.1276727e-001
-3.7101173e-001
-4.1973510e-001
-4.4841939e-001
-4.4533020e-001
-4.3235919e-001
-4.0953007e-001
-4.1804487e-001
-4.5741695e-001
-5.0575614e-001
-5.5930209e-001
-5.3844500e-001
-4.7448707e-001
-3.5609889e-001
-2.1510367e-001
-1.2663235e-001
-5.5731222e-002
-7.9695560e-002
-1.2523971e-001
-1.9991763e-001
-2.7818525e-001
-3.0816001e-001
-3.2940134e-001
-3.0196315e-001
-2.6584131e-001
-2.0624582e-001
-1.5023357e-001
-1.1558995e-001
-1.0280797e-001
-1.4059383e-001
-1.8800251e-001
-2.4395800e-001
-2.7640045e-001
-2.7351680e-001
-2.5414643e-001
-2.2034806e-001
-1.9244036e-001
-1.7106068e-001
-1.4411250e-001
-1.1278566e-001
-7.1225047e-002
-2.4349457e-002
3.7801042e-002
1.0607582e-001
1.8800491e-001
2.7408639e-001
3.4471366e-001
4.1172084e-001
4.8589003e-001
5.6154710e-001
6.4304709e-001
7.1574998e-001
7.1615171e-001
6.8800986e-001
5.7947665e-001
4.5422551e-001
3.1407607e-001
1.7829606e-001
5.7128388e-002
-4.8908561e-002
-1.3310184e-001
-1.8840429e-001
-2.0995764e-001
-2.1713546e-001
-2.1452151e-001
-2.2530510e-001
-2.4854849e-001
-2.7488050e-001
-3.0219796e-001
-3.0804071e-001
-3.0237934e-001
-2.4101572e-001
-1.5703008e-001
-1.1409759e-002
1.5343374e-001
2.9443258e-001
4.2747915e-001
4.6080816e-001
4.7002104e-001
4.2792630e-001
3.7707049e-001
3.3356056e-001
2.9925933e-001
2.9381469e-001
3.1004074e-001
3.6850622e-001
4.3743107e-001
5.1117605e-001
5.5514812e-001
5.5163032e-001
4.9584362e-001
3.8677856e-001
2.4264202e-001
7.4211806e-002
-8.7660186e-002
-2.4030878e-001
-3.3918473e-001
-4.0412006e-001
-3.9151686e-001
-3.4090889e-001
-3.0139914e-001
-2.6912999e-001
-3.4101012e-001
-4.4853529e-001
-5.4562938e-001
-6.3479656e-001
-6.4331853e-001
-6.3163733e-001
-6.2018245e-001
-6.0722107e-001
-5.8404237e-001
-5.4788929e-001
-4.7815964e-001
-4.1113800e-001
-3.7228680e-001
-3.5814962e-001
-3.7956500e-001
-4.0730610e-001
-4.3199041e-001
-4.5727140e-001
-4.8222911e-001
-4.8645601e-001
-4.7051680e-001
-3.6902463e-001
-2.0441325e-001
-2.7686641e-002
1.4922544e-001
1.6250491e-001
8.8293537e-002
-8.4325358e-002
-2.9550835e-001
-4.6347728e-001
-6.1367929e-001
-7.1440476e-001
-7.9757375e-001
-8.4771395e-001
-8.8489252e-001
-9.1152656e-001
-9.3458682e-001
-9.6979606e-001
-1.0132235e+000
-1.0715001e+000
-1.1309994e+000
-1.1793261e+000
-1.2190657e+000
-1.2454382e+000
-1.2334957e+000
-1.1734238e+000
-1.0140096e+000
-7.6338047e-001
-5.0223911e-001
-2.5619799e-001
-1.0113922e-001
-1.2409925e-002
1.5450992e-002
1.3640852e-002
-7.6640621e-002
-2.1364160e-001
-3.5580805e-001
-4.9919182e-001
-4.7689128e-001
-3.8213286e-001
-1.8220192e-001
4.1572489e-002
1.4352851e-001
1.4951120e-001
-6.3307852e-002
-3.6767572e-001
-7.0424300e-001
-1.0019509e+000
-1.1785421e+000
-1.2476100e+000
-1.1879773e+000
-1.0052854e+000
-6.9678962e-001
-3.6765155e-001
-7.0773914e-002
4.5084059e-002
-2.8519668e-002
-2.1320570e-001
-4.5031047e-001
-6.5689170e-001
-8.2687116e-001
-9.1409385e-001
-9.4696301e-001
-8.8150519e-001
-7.5907147e-001
-6.9562048e-001
-6.6641432e-001
-7.7509356e-001
-9.4543064e-001
-1.0636472e+000
-1.1374470e+000
-1.0806446e+000
-9.3755883e-001
-7.0161963e-001
-4.5790601e-001
-3.1935984e-001
-3.1738248e-001
-5.1211262e-001
-7.7975076e-001
-1.0312508e+000
-1.1938514e+000
-1.2323211e+000
-1.1894742e+000
-1.1004680e+000
-9.6446097e-001
-7.9465324e-001
-6.0935581e-001
-4.1424364e-001
-2.5613981e-001
-1.2825772e-001
1.4666714e-002
1.6697656e-001
3.0630291e-001
4.3008912e-001
4.6767935e-001
4.5087728e-001
4.0410030e-001
3.4732443e-001
3.5047841e-001
4.0210372e-001
5.2611190e-001
6.5362787e-001
6.5399551e-001
5.5813116e-001
3.6585107e-001
1.8450299e-001
1.2514764e-001
4.7030173e-002
-1.3953318e-001
-2.8457171e-001
-3.1078658e-001
-6.3533574e-002
4.7282374e-001
1.1120069e+000
1.7622678e+000
2.0328102e+000
1.9295841e+000
1.6669234e+000
1.3378142e+000
1.3129400e+000
1.5362232e+000
1.6937660e+000
1.7679641e+000
1.4145503e+000
7.8547585e-001
2.7441454e-001
-7.8061551e-002
1.0481764e-001
7.8980738e-001
1.8863671e+000
3.0767336e+000
3.9093807e+000
4.5011301e+000
5.0000997e+000
5.7228489e+000
6.9760451e+000
8.9867449e+000
1.1834120e+001
1.5328038e+001
1.9230286e+001
2.2759069e+001
2.5641752e+001
2.8217155e+001
3.0684566e+001
3.3957615e+001
3.8072029e+001
4.2859623e+001
4.8114399e+001
5.2544849e+001
5.6226559e+001
5.9949047e+001
6.3801594e+001
6.8354279e+001
7.3409958e+001
7.8283844e+001
8.2930260e+001
8.7175819e+001
9.1049896e+001
9.4605614e+001
9.7842941e+001
1.0077838e+002
1.0321100e+002
1.0491630e+002
1.0534737e+002
1.0408108e+002
1.0172017e+002
9.8877449e+001
9.5778343e+001
9.2608246e+001
8.8848358e+001
8.4342255e+001
7.9565651e+001
7.4714531e+001
7.0168198e+001
6.5981934e+001
6.1694160e+001
5.7250210e+001
5.2823917e+001
4.8439781e+001
4.4298798e+001
4.0427860e+001
3.7017906e+001
3.4085499e+001
3.1634731e+001
2.9629606e+001
2.7876017e+001
2.6379385e+001
2.5102766e+001
2.4069159e+001
2.3280499e+001
2.2736141e+001
2.2397154e+001
2.2228958e+001
2.2172527e+001
2.2225693e+001
2.2378830e+001
2.2683800e+001
2.3164272e+001
2.3936964e+001
2.5035000e+001
2.6386021e+001
2.7943157e+001
2.9378450e+001
3.0616320e+001
3.1682894e+001
3.2590382e+001
3.3779854e+001
3.5366852e+001
3.7878468e+001
4.1305401e+001
4.4565182e+001
4.7448589e+001
4.9391075e+001
5.0500973e+001
5.1550644e+001
5.2533863e+001
5.3451748e+001
5.3969101e+001
5.3552299e+001
5.2322113e+001
5.0583076e+001
4.8727791e+001
4.7225342e+001
4.5991302e+001
4.4944199e+001
4.3819645e+001
4.2441982e+001
4.0737644e+001
3.8626240e+001
3.6506283e+001
3.4510906e+001
3.2554718e+001
3.0652029e+001
2.8245409e+001
2.5181664e+001
2.2064760e+001
1.8946144e+001
1.6389891e+001
1.4466701e+001
1.2630571e+001
1.0895342e+001
9.1932888e+000
7.5460448e+000
5.9610119e+000
4.4406695e+000
2.9632339e+000
1.6357262e+000
6.3544118e-001
6.0088083e-002
1.9718915e-002
5.2598083e-001
1.4572428e+000
2.4457550e+000
3.2171822e+000
3.7991579e+000
4.2056975e+000
4.6748853e+000
5.3372507e+000
6.0899887e+000
6.9209800e+000
7.4945002e+000
7.6321950e+000
7.5472231e+000
7.1551828e+000
6.7446251e+000
6.3160596e+000
5.9141660e+000
5.5563350e+000
5.2305741e+000
4.9311299e+000
4.5617433e+000
4.1198554e+000
3.6382883e+000
3.1705301e+000
2.8633542e+000
2.7535012e+000
2.8695731e+000
3.1792059e+000
3.6079407e+000
4.0493517e+000
4.3783183e+000
4.5973616e+000
4.7066483e+000
4.8038611e+000
4.9539013e+000
5.1763635e+000
5.5025964e+000
5.8615522e+000
6.2464051e+000
6.5497141e+000
6.6895194e+000
6.7177382e+000
6.5441804e+000
6.3182902e+000
6.0099201e+000
5.6810589e+000
5.3319526e+000
5.0048227e+000
4.7144098e+000
4.4564171e+000
4.2373810e+000
4.0136280e+000
3.7702243e+000
3.4825938e+000
3.1306672e+000
2.7060249e+000
2.2299395e+000
1.7203023e+000
1.2307019e+000
8.2615829e-001
4.9024832e-001
2.5699532e-001
8.0247827e-002
-2.5476981e-002
-5.3138051e-002
3.2420464e-002
1.8994580e-001
4.7916210e-001
7.3702359e-001
9.0852058e-001
9.8014331e-001
8.5789460e-001
7.4498051e-001
6.5946883e-001
6.5898395e-001
7.9537284e-001
1.0051683e+000
1.3150001e+000
1.6639050e+000
2.0363700e+000
2.3500078e+000
2.5719039e+000
2.6642818e+000
2.6455483e+000
2.5698764e+000
2.4735417e+000
2.4102859e+000
2.3739967e+000
2.3678803e+000
2.3710713e+000
2.3665786e+000
2.3654890e+000
2.3751771e+000
2.3966241e+000
2.4433892e+000
2.4829800e+000
2.4960225e+000
2.4942098e+000
2.4605050e+000
2.4381428e+000
2.4461341e+000
2.4943366e+000
2.6159687e+000
2.7785754e+000
2.9976935e+000
3.2365224e+000
3.4980040e+000
3.7738700e+000
4.0678954e+000
4.3809657e+000
4.7158947e+000
5.0791082e+000
5.4705114e+000
5.9007444e+000
6.3515000e+000
6.8032517e+000
7.2369270e+000
7.6061177e+000
7.9213562e+000
8.1184731e+000
8.2437878e+000
8.2079964e+000
8.1119776e+000
7.8736577e+000
7.6060863e+000
7.2647266e+000
6.9057479e+000
6.5019026e+000
6.0706878e+000
5.5836887e+000
5.0761523e+000
4.5394359e+000
4.0186329e+000
3.5194407e+000
3.0254886e+000
2.5335960e+000
2.0277052e+000
1.5181366e+000
1.0466979e+000
6.1551785e-001
2.3955192e-001
-9.3900844e-002
-3.8028002e-001
-6.3086826e-001
-8.1919968e-001
-9.8379892e-001
-1.1345751e+000
-1.2761329e+000
-1.3916204e+000
-1.4691200e+000
-1.4057852e+000
-1.3037440e+000
-1.0855503e+000
-8.6701828e-001
-6.5037692e-001
-4.4818872e-001
-2.8337529e-001
-1.3999200e-001
-3.9360974e-002
4.9089346e-002
1.1889184e-001
1.8897188e-001
2.5339341e-001
2.8046161e-001
2.6120856e-001
1.9779018e-001
1.0300700e-001
3.7825145e-002
8.6537488e-003
6.7008197e-002
1.8548380e-001
4.0840453e-001
6.7984009e-001
9.9694419e-001
1.3324914e+000
1.7007064e+000
2.0857806e+000
2.5289719e+000
2.9678416e+000
3.3537371e+000
3.7045598e+000
3.9120188e+000
4.1025486e+000
4.2420659e+000
4.4012203e+000
4.6074424e+000
4.8112698e+000
5.0050182e+000
5.1550055e+000
5.2440286e+000
5.3722348e+000
5.5671697e+000
5.9041829e+000
6.3856382e+000
6.9250841e+000
7.4979887e+000
7.9969225e+000
8.4382582e+000
8.7784147e+000
9.0497580e+000
9.1524782e+000
9.1726398e+000
8.9951706e+000
8.7755356e+000
8.5671158e+000
8.3868198e+000
8.4045286e+000
8.4531717e+000
8.6374788e+000
8.8142691e+000
8.9557705e+000
9.0662041e+000
9.0802488e+000
9.1109543e+000
9.1876650e+000
9.3313513e+000
9.5940275e+000
9.8233995e+000
9.9910135e+000
1.0017800e+001
9.8780241e+000
9.6579313e+000
9.3673658e+000
9.0770102e+000
8.7890234e+000
8.5226212e+000
8.2646322e+000
7.9787855e+000
7.6673217e+000
7.1971941e+000
6.6708145e+000
5.9933767e+000
5.2946758e+000
4.6435523e+000
4.0122333e+000
3.5672269e+000
3.1379569e+000
2.8043718e+000
2.4581749e+000
2.0550642e+000
1.6318730e+000
1.1478293e+000
6.8586826e-001
2.7810523e-001
-6.3922331e-002
-2.8799134e-001
-4.4862676e-001
-5.2374423e-001
-5.8643973e-001
-6.3827002e-001
-7.1969670e-001
-8.2250267e-001
-8.8633007e-001
-9.2133504e-001
-8.6469001e-001
-7.6949936e-001
-7.3135072e-001
-7.1574187e-001
-7.8147566e-001
-8.5764974e-001
-7.7339631e-001
-6.6409755e-001
-4.1558325e-001
-1.7054971e-001
-5.6213036e-002
-6.5053627e-004
-2.1538042e-002
-9.9584319e-002
-1.8090031e-001
-2.4535514e-001
-2.5875169e-001
-2.1669844e-001
-5.4779902e-002
1.8484250e-001
5.4832047e-001
9.0657359e-001
1.2572589e+000
1.5279738e+000
1.7239850e+000
1.8879186e+000
2.0300968e+000
2.2555914e+000
2.5271649e+000
2.9435620e+000
3.4165542e+000
3.8574812e+000
4.2900448e+000
4.4868560e+000
4.6459289e+000
4.6662998e+000
