##TITLE=Methyl Ethyl Ketone
##JCAMP-DX=4.24
##DATA TYPE=INFRARED SPECTRUM
##XUNITS=cm-1
##YUNITS=Absorbance
##FIRSTX=900
##LASTX=2300
##XYDATA=(X++(Y..Y))
2296 0.021545
2294 0.02199336
2292 0.022441717
2290 0.02288908
2288 0.023337435
2286 0.023785792
2284 0.024234151
2282 0.024682509
2280 0.025130868
2278 0.025579227
2276 0.026026599
2274 0.026474943
2272 0.026923304
2270 0.027371662
2268 0.027820021
2266 0.02826838
2264 0.028716737
2262 0.029164121
2260 0.029612454
2258 0.030060813
2256 0.030509172
2254 0.030957529
2252 0.031405888
2250 0.03185425
2248 0.032301642
2246 0.032749962
2244 0.026661485
2242 0.0010192886
2240 -0.049775042
2238 -0.082492612
2236 -0.11238101
2234 -0.096718051
2232 -0.078028686
2230 -0.06487152
2228 -0.05431962
2226 -0.062305
2224 -0.06970977
2222 -0.07008037
2220 -0.071638532
2218 -0.077923462
2216 -0.093682081
2214 -0.12956554
2212 -0.17063721
2210 -0.21824652
2208 -0.2583296
2206 -0.28851715
2204 -0.30830222
2202 -0.31869268
2200 -0.31807393
2198 -0.3096844
2196 -0.28292069
2194 -0.24584547
2192 -0.20707045
2190 -0.16783708
2188 -0.17896126
2186 -0.20646521
2184 -0.28730562
2182 -0.38017341
2180 -0.44955122
2178 -0.51470637
2176 -0.52947915
2174 -0.5385201
2172 -0.53500718
2170 -0.52948493
2168 -0.5192129
2166 -0.50824231
2164 -0.49639672
2162 -0.48865062
2160 -0.49165171
2158 -0.49900001
2156 -0.51251304
2154 -0.51925856
2152 -0.51525766
2150 -0.50523543
2148 -0.48967835
2146 -0.49008608
2144 -0.50510204
2142 -0.52826893
2140 -0.55602103
2138 -0.57866049
2136 -0.59826088
2134 -0.62882906
2132 -0.66419041
2130 -0.68671489
2128 -0.70502001
2126 -0.68416148
2124 -0.65425348
2122 -0.60991186
2120 -0.56420386
2118 -0.53474444
2116 -0.51160443
2114 -0.51846141
2112 -0.53089875
2110 -0.54895765
2108 -0.56052536
2106 -0.54996824
2104 -0.53520751
2102 -0.51828313
2100 -0.51452261
2098 -0.53336024
2096 -0.55849427
2094 -0.58743781
2092 -0.60295945
2090 -0.60400158
2088 -0.60800499
2086 -0.61626101
2084 -0.64328474
2082 -0.68234873
2080 -0.72007287
2078 -0.75620586
2076 -0.78013372
2074 -0.79904914
2072 -0.8023228
2070 -0.80067092
2068 -0.76939082
2066 -0.73071867
2064 -0.68690735
2062 -0.64622402
2060 -0.64976823
2058 -0.66682982
2056 -0.71030945
2054 -0.75157374
2052 -0.76560897
2050 -0.76304799
2048 -0.73103487
2046 -0.69225323
2044 -0.65125823
2042 -0.62172949
2040 -0.61071146
2038 -0.62390047
2036 -0.66257071
2034 -0.70339
2032 -0.74163443
2030 -0.7499283
2028 -0.73467541
2026 -0.69945687
2024 -0.653705
2022 -0.5994339
2020 -0.54140651
2018 -0.49003503
2016 -0.44189802
2014 -0.43990844
2012 -0.45374525
2010 -0.48647606
2008 -0.52222568
2006 -0.52664781
2004 -0.52117521
2002 -0.50111222
2000 -0.47672692
1998 -0.4479472
1996 -0.41728356
1994 -0.38321784
1992 -0.3528184
1990 -0.33418033
1988 -0.3228308
1986 -0.32135522
1984 -0.33182052
1982 -0.35558018
1980 -0.39485556
1978 -0.44733536
1976 -0.49250287
1974 -0.52771634
1972 -0.53843969
1970 -0.53158349
1968 -0.52209115
1966 -0.51305437
1964 -0.51304549
1962 -0.51831424
1960 -0.5077824
1958 -0.49023193
1956 -0.47552258
1954 -0.46302807
1952 -0.4755832
1950 -0.49624673
1948 -0.5104773
1946 -0.52037501
1944 -0.5194062
1942 -0.5143277
1940 -0.51322609
1938 -0.51528233
1936 -0.52393085
1934 -0.53610617
1932 -0.54909885
1930 -0.56132859
1928 -0.56961
1926 -0.56307757
1924 -0.53721172
1922 -0.48746029
1920 -0.4186385
1918 -0.37069088
1916 -0.34803185
1914 -0.35648859
1912 -0.3842155
1910 -0.40289587
1908 -0.41267633
1906 -0.42809001
1904 -0.4477472
1902 -0.46242371
1900 -0.47520831
1898 -0.43462884
1896 -0.37133858
1894 -0.28037423
1892 -0.18459566
1890 -0.13222329
1888 -0.11218508
1886 -0.16319035
1884 -0.24526116
1882 -0.34213704
1880 -0.42901701
1878 -0.47841588
1876 -0.493754
1874 -0.46640289
1872 -0.39525184
1870 -0.27716783
1868 -0.13724397
1866 0.0072041489
1864 0.090413563
1862 0.1035521
1860 0.044433612
1858 -0.06167176
1856 -0.1825107
1854 -0.3046155
1852 -0.38954747
1850 -0.44767547
1848 -0.46041799
1846 -0.44686145
1844 -0.43149662
1842 -0.41514772
1840 -0.4103387
1838 -0.40909514
1836 -0.37843144
1834 -0.32637709
1832 -0.22154051
1830 -0.09238705
1828 0.035674412
1826 0.13399158
1824 0.14437194
1822 0.093174011
1820 -0.011247639
1818 -0.12419581
1816 -0.21124972
1814 -0.26400658
1812 -0.27874947
1810 -0.27326289
1808 -0.25983652
1806 -0.2391075
1804 -0.21371286
1802 -0.19148304
1800 -0.17138366
1798 -0.16385277
1796 -0.16543071
1794 -0.14358515
1792 -0.10648017
1790 -0.060804874
1788 -0.014071732
1786 0.0066375649
1784 0.011089338
1782 0.020123739
1780 0.034238156
1778 0.073466241
1776 0.13361388
1774 0.22682573
1772 0.32887942
1770 0.39468884
1768 0.40910509
1766 0.3349435
1764 0.2182478
1762 0.10386978
1760 0.023288816
1758 -0.089444816
1756 -0.18639643
1754 -0.21339668
1752 -0.16216245
1750 -0.04245754
1748 0.070638835
1746 0.15213428
1744 0.12832277
1742 0.007308688
1740 -0.11692214
1738 -0.2251336
1736 -0.20144801
1734 -0.075020552
1732 0.054654878
1730 0.17204252
1728 0.13903135
1726 0.00697143
1724 -0.088491067
1722 -0.1272033
1720 0.016619027
1718 0.31774342
1716 0.80741012
1714 1.3834831
1712 1.8731817
1710 2.3050213
1708 2.720372
1706 3.2781544
1704 4.130929
1702 5.5185275
1700 7.5564432
1698 10.446674
1696 14.156857
1694 17.998671
1692 21.642466
1690 24.949844
1688 27.956764
1686 31.515408
1684 35.705727
1682 40.732632
1680 46.417202
1678 51.414833
1676 55.760399
1674 59.953983
1672 64.127396
1670 69.113762
1668 74.711311
1666 80.292801
1664 85.700653
1662 90.419014
1660 94.452095
1658 97.760834
1656 100.37646
1654 102.36253
1652 103.6878
1650 104.35234
1648 104.03806
1646 102.52571
1644 100.19063
1642 97.431999
1640 94.301498
1638 90.891228
1636 86.729172
1634 81.709435
1632 76.517982
1630 71.410194
1628 66.774887
1626 62.639439
1624 58.537521
1622 54.392891
1620 50.276817
1618 46.202591
1616 42.339912
1614 38.718536
1612 35.540909
1610 32.815971
1608 30.50852
1606 28.596785
1604 26.937555
1602 25.552942
1600 24.443348
1598 23.60994
1596 23.011501
1594 22.620466
1592 22.369007
1590 22.243317
1588 22.211931
1586 22.280592
1584 22.445251
1582 22.69747
1580 23.027397
1578 23.480877
1576 24.070028
1574 24.828373
1572 25.75506
1570 26.759871
1568 27.81776
1566 28.877764
1564 29.939634
1562 31.217707
1560 32.812595
1558 35.337032
1556 38.84877
1554 42.668411
1552 46.561722
1550 49.531708
1548 51.615788
1546 53.374393
1544 54.836777
1542 56.168785
1540 57.212757
1538 57.741089
1536 57.641632
1534 56.875309
1532 55.648258
1530 54.249035
1528 52.72784
1526 51.12965
1524 49.3578
1522 47.344707
1520 45.112034
1518 42.64407
1516 40.302128
1514 38.218864
1512 36.283398
1510 34.50692
1508 32.257027
1506 29.372864
1504 26.343811
1502 23.197531
1500 20.514212
1498 18.349491
1496 16.241428
1494 14.184106
1492 12.087526
1490 9.9585686
1488 7.8304501
1486 5.765625
1484 3.8807459
1482 2.2806318
1480 1.0857762
1478 0.33267358
1476 0.059280626
1474 0.35191017
1472 1.1474392
1470 2.1272039
1468 3.0914278
1466 3.9107671
1464 4.4947391
1462 5.0197606
1460 5.5562768
1458 6.1249461
1456 6.7377601
1454 7.2197561
1452 7.478044
1450 7.5605173
1448 7.39115
1446 7.1632786
1444 6.8591228
1442 6.5528622
1440 6.2431126
1438 5.9153357
1436 5.5456514
1434 5.0683289
1432 4.4825239
1430 3.8637228
1428 3.2576039
1426 2.7789843
1424 2.448673
1422 2.2732313
1420 2.2423277
1418 2.3245525
1416 2.4803514
1414 2.6696639
1412 2.8700838
1410 3.0773697
1408 3.3027377
1406 3.5636227
1404 3.8607078
1402 4.2058878
1400 4.5833802
1398 5.0043688
1396 5.4191499
1394 5.8094749
1392 6.1311197
1390 6.3218327
1388 6.4113793
1386 6.3343401
1384 6.1418362
1382 5.7891626
1380 5.36658
1378 4.8687406
1376 4.3695002
1374 3.8865941
1372 3.447026
1370 3.0550151
1368 2.7010708
1366 2.3521163
1364 1.9541283
1362 1.5143242
1360 1.0350331
1358 0.58816963
1356 0.26577067
1354 0.054261908
1352 0.0039830734
1350 0.028812785
1348 0.11905006
1346 0.23890036
1344 0.4172976
1342 0.62949324
1340 0.90265298
1338 1.1681135
1336 1.4068743
1334 1.5980287
1332 1.6944809
1330 1.781785
1328 1.860364
1326 1.972465
1324 2.1418521
1322 2.3499668
1320 2.6122246
1318 2.9013515
1316 3.21297
1314 3.5086596
1312 3.7699771
1310 3.9688287
1308 4.1029849
1306 4.1755509
1304 4.2038994
1302 4.2014818
1300 4.1858883
1298 4.1668444
1296 4.1463284
1294 4.12185
1292 4.0946245
1290 4.0610032
1288 4.0315437
1286 4.0144544
1284 4.0018973
1282 3.9971766
1280 3.9911766
1278 3.9830265
1276 3.9860756
1274 4.0149789
1272 4.0655971
1270 4.1535044
1268 4.2513285
1266 4.3615413
1264 4.4726248
1262 4.5837369
1260 4.696774
1258 4.8104496
1256 4.9200115
1254 5.0270214
1252 5.1360221
1250 5.2483659
1248 5.3690543
1246 5.490375
1244 5.5981526
1242 5.6901827
1240 5.7453079
1238 5.7700124
1236 5.7289557
1234 5.6454086
1232 5.4635959
1230 5.2459807
1228 4.944953
1226 4.6277032
1224 4.2700291
1222 3.901298
1220 3.5051658
1218 3.0966558
1216 2.665
1214 2.2368641
1212 1.8217781
1210 1.4458399
1208 1.1311201
1206 0.86712545
1204 0.66428864
1202 0.49299535
1200 0.35585982
1198 0.24678144
1196 0.16084
1194 0.087580562
1192 0.018892698
1190 -0.060898557
1188 -0.13757819
1186 -0.18139678
1184 -0.19370377
1182 -0.12096696
1180 -0.008900702
1178 0.18562429
1176 0.40995398
1174 0.70985001
1172 1.0208415
1170 1.3554356
1168 1.6628503
1166 1.8833679
1164 2.0570304
1162 2.1136122
1160 2.1306176
1158 2.0661063
1156 1.9659286
1154 1.8065947
1152 1.6252913
1150 1.4142039
1148 1.192116
1146 0.95681781
1144 0.71123946
1142 0.46241865
1140 0.24304168
1138 0.063138954
1136 -0.0081932573
1134 0.0028760657
1132 0.13680334
1130 0.33031058
1128 0.59026325
1126 0.86002314
1124 1.0864983
1122 1.2833501
1120 1.363916
1118 1.4250993
1116 1.4401914
1114 1.4715829
1112 1.5742857
1110 1.6876395
1108 1.8321401
1106 1.95613
1104 2.026792
1102 2.0681665
1100 2.0519094
1098 2.0216403
1096 1.9715428
1094 1.9328219
1092 1.9092801
1090 1.8981971
1088 1.897456
1086 1.8864486
1084 1.8668295
1082 1.8412604
1080 1.8120074
1078 1.779971
1076 1.7410743
1074 1.6620647
1072 1.5647172
1070 1.4302396
1068 1.2931213
1066 1.1964893
1064 1.1151999
1062 1.1082325
1060 1.106648
1058 1.1162026
1056 1.1218657
1054 1.1110473
1052 1.0998405
1050 1.087339
1048 1.0712291
1046 1.0460428
1044 1.0142264
1042 0.96779984
1040 0.89795887
1038 0.79194456
1036 0.66054499
1034 0.50278676
1032 0.36586469
1030 0.2482875
1028 0.13878061
1026 0.031214304
1024 -0.1142014
1022 -0.27785259
1020 -0.42518401
1018 -0.56106889
1016 -0.63994575
1014 -0.70403409
1012 -0.77394789
1010 -0.84529626
1008 -0.9224236
1006 -0.99423432
1004 -0.99853736
1002 -0.998146
1000 -0.97001439
998 -0.94715601
996 -0.94733286
994 -0.94680917
992 -0.94438708
990 -0.94220656
988 -0.94108671
986 -0.946679
984 -0.96282923
982 -0.96647972
980 -0.95220459
978 -0.91948426
976 -0.86816144
974 -0.82139486
972 -0.77902746
970 -0.74998999
968 -0.72923857
966 -0.71618795
964 -0.70554906
962 -0.67478961
960 -0.63484633
958 -0.5345673
956 -0.42041656
954 -0.28110644
952 -0.14184469
950 -0.07548812
948 -0.015548231
946 -0.0051247929
944 0.0015027076
942 0.044113051
940 0.054944791
938 0.13360161
936 0.21767372
934 0.31807375
932 0.43035239
930 0.56808829
928 0.7130217
926 0.86911559
924 1.007334
922 1.1229647
920 1.1901805
918 1.2114642
916 1.1768399
914 1.1033696
912 1.0780057
910 1.079435
908 1.1731135
906 1.3022901
904 1.3567017
902 1.3914332
900 1.3059
898 1.2010908
896 1.1248
