Image.
>Pix99999.
  .
5555
5555
2300
900
5555
2
1
0
701
5555
-3.3296999e-002
-3.4004986e-002
-3.4711976e-002
-3.5419960e-002
-3.6126953e-002
-3.6834937e-002
-3.7541933e-002
-3.8248919e-002
-3.8956899e-002
-3.9663896e-002
-4.0371872e-002
-4.1078873e-002
-4.1786846e-002
-4.2493850e-002
-4.3201823e-002
-4.3908827e-002
-4.4616796e-002
-4.5323804e-002
-4.6030793e-002
-4.6738755e-002
-4.7445770e-002
-4.8153728e-002
-4.8860747e-002
-4.9568705e-002
-5.0275724e-002
-5.0983679e-002
-1.8946200e-003
1.4094542e-001
3.0371359e-001
4.2245120e-001
5.3467226e-001
5.2541190e-001
5.0406152e-001
4.0742218e-001
3.0942145e-001
2.2961000e-001
1.6541623e-001
1.6857162e-001
1.7852899e-001
1.9832455e-001
2.1552628e-001
2.2586721e-001
2.5508240e-001
3.1572089e-001
3.8231170e-001
4.5391950e-001
5.0810450e-001
5.4516351e-001
5.5572069e-001
5.4727107e-001
5.1047790e-001
4.5810714e-001
4.3078017e-001
4.1491556e-001
4.6664050e-001
5.4007500e-001
6.3554960e-001
7.3576665e-001
8.0283141e-001
8.6448473e-001
8.9149404e-001
9.0872085e-001
8.5083598e-001
7.7181500e-001
6.1264777e-001
4.5350531e-001
3.2308406e-001
2.2662494e-001
2.0979902e-001
2.2166915e-001
2.7252400e-001
3.1937227e-001
3.5459667e-001
3.6516720e-001
3.4933841e-001
3.4519142e-001
3.5382643e-001
4.0085179e-001
4.7371489e-001
5.2663022e-001
5.6722260e-001
5.5970377e-001
5.3227997e-001
5.0853306e-001
4.8649278e-001
5.0694007e-001
5.3731263e-001
6.0556376e-001
6.7627722e-001
6.8089664e-001
6.6130030e-001
5.3079271e-001
3.8687891e-001
2.5436828e-001
1.4892551e-001
1.2022278e-001
1.2261434e-001
1.6881035e-001
2.2976680e-001
3.0475596e-001
3.8199571e-001
4.5970157e-001
5.3674561e-001
6.1304301e-001
6.6940427e-001
7.0902753e-001
6.9672519e-001
6.5153712e-001
5.7114398e-001
4.7469786e-001
4.0012398e-001
3.3552307e-001
3.1793720e-001
3.1531924e-001
3.4032986e-001
3.7212491e-001
3.9784166e-001
4.1559216e-001
3.5794502e-001
2.7369750e-001
1.2467171e-001
-1.3298662e-002
-6.4035319e-002
-5.6131616e-002
6.0214400e-002
1.8109857e-001
2.7040061e-001
3.0916312e-001
2.7908859e-001
2.1452864e-001
1.2234528e-001
1.0060745e-002
-1.1647317e-001
-2.2794740e-001
-3.2453126e-001
-3.3447242e-001
-2.8975657e-001
-1.6551292e-001
-3.6831498e-003
1.1070660e-001
2.0230599e-001
1.9908570e-001
1.6347061e-001
1.1934016e-001
7.2172470e-002
1.3322002e-002
-5.5594504e-002
-1.7070188e-001
-2.9369399e-001
-3.9466065e-001
-4.7474143e-001
-5.0514144e-001
-5.1976079e-001
-5.3174984e-001
-5.3431678e-001
-5.2826494e-001
-5.1208514e-001
-4.8445913e-001
-4.7516906e-001
-4.8675162e-001
-4.8517057e-001
-4.6560431e-001
-3.3782500e-001
-1.2882620e-001
7.8126319e-002
2.7406773e-001
2.3298006e-001
6.5998770e-002
-2.0949137e-001
-5.2601248e-001
-7.0996213e-001
-8.4144092e-001
-8.3162552e-001
-7.7650940e-001
-6.9313502e-001
-6.1651498e-001
-6.2779438e-001
-6.6898990e-001
-7.3894906e-001
-7.8962129e-001
-7.7141315e-001
-7.2453719e-001
-6.5429264e-001
-5.8395410e-001
-5.1701522e-001
-3.9497915e-001
-1.9530971e-001
9.9970259e-002
4.7266203e-001
7.4590057e-001
9.0530241e-001
8.7596357e-001
7.2262555e-001
5.5372411e-001
3.9223504e-001
2.5258371e-001
1.2306193e-001
3.3427909e-002
-4.0190853e-002
3.4888584e-002
1.7306629e-001
3.9141697e-001
6.2346792e-001
7.2724730e-001
7.3611766e-001
5.3732193e-001
2.4755675e-001
-8.6207636e-002
-3.9877239e-001
-6.1948359e-001
-7.4221098e-001
-7.3089033e-001
-5.7577240e-001
-2.6385924e-001
7.2805166e-002
3.6526591e-001
4.3524274e-001
2.7110279e-001
-1.3141751e-002
-3.4569424e-001
-5.9188116e-001
-7.5691855e-001
-8.0152804e-001
-7.7022731e-001
-6.8747163e-001
-5.7450783e-001
-5.8977747e-001
-6.7154670e-001
-8.9695179e-001
-1.1812640e+000
-1.3556871e+000
-1.4404200e+000
-1.2844938e+000
-9.8076606e-001
-5.4383117e-001
-1.2541494e-001
6.0160734e-002
2.2877995e-002
-2.8198111e-001
-6.7850041e-001
-1.0383034e+000
-1.2990524e+000
-1.4294488e+000
-1.4560580e+000
-1.4129736e+000
-1.2829300e+000
-1.0851328e+000
-8.8437843e-001
-6.9143862e-001
-5.9524351e-001
-5.7339859e-001
-5.4435658e-001
-5.0879318e-001
-3.9319733e-001
-2.3711263e-001
-8.9426339e-002
4.4893567e-002
1.5747637e-001
2.6626894e-001
4.5512491e-001
7.0930427e-001
1.0629790e+000
1.3964204e+000
1.4726498e+000
1.3292383e+000
9.3561900e-001
5.0796318e-001
2.5962719e-001
7.4561425e-002
-1.1864814e-001
-1.9806270e-001
-1.1160230e-001
2.5926220e-001
9.1548109e-001
1.5994418e+000
2.2129714e+000
2.4147577e+000
2.2271171e+000
1.9638700e+000
1.7099378e+000
1.7700000e+000
2.0804355e+000
2.1762331e+000
2.0810289e+000
1.5084223e+000
6.4112306e-001
3.4175530e-002
-2.8682610e-001
1.3160616e-001
1.1866983e+000
2.7066972e+000
4.2532473e+000
5.1389508e+000
5.5747705e+000
5.8218222e+000
6.3257990e+000
7.5234957e+000
9.6488886e+000
1.2765932e+001
1.6466772e+001
2.0384142e+001
2.3694269e+001
2.6153288e+001
2.8353683e+001
3.0577898e+001
3.3819302e+001
3.8084846e+001
4.3042202e+001
4.8447159e+001
5.2851360e+001
5.6357372e+001
5.9887573e+001
6.3545616e+001
6.7922165e+001
7.2823898e+001
7.7586746e+001
8.2172127e+001
8.6458549e+001
9.0467484e+001
9.4247643e+001
9.7830544e+001
1.0128948e+002
1.0438360e+002
1.0683177e+002
1.0774554e+002
1.0635607e+002
1.0339946e+002
9.9662872e+001
9.5713814e+001
9.1945999e+001
8.7881287e+001
8.3335228e+001
7.8580376e+001
7.3732491e+001
6.9132912e+001
6.4840012e+001
6.0527279e+001
5.6151176e+001
5.1911339e+001
4.7811214e+001
4.3837658e+001
4.0001503e+001
3.6412281e+001
3.3119389e+001
3.0314240e+001
2.7988508e+001
2.6023262e+001
2.4404400e+001
2.3034052e+001
2.1910509e+001
2.0995998e+001
2.0299866e+001
1.9798138e+001
1.9484978e+001
1.9326504e+001
1.9344593e+001
1.9543652e+001
1.9963280e+001
2.0617031e+001
2.1544037e+001
2.2741743e+001
2.4072157e+001
2.5466932e+001
2.6729311e+001
2.7811958e+001
2.8861500e+001
2.9911909e+001
3.1403963e+001
3.3461662e+001
3.6491520e+001
4.0459770e+001
4.4049400e+001
4.7051132e+001
4.9072628e+001
5.0267910e+001
5.1566463e+001
5.3026562e+001
5.4706871e+001
5.6152279e+001
5.6550728e+001
5.5774513e+001
5.3862652e+001
5.1463032e+001
4.9376534e+001
4.7671295e+001
4.6383949e+001
4.5249172e+001
4.4084869e+001
4.2597034e+001
4.0590229e+001
3.8368130e+001
3.6014248e+001
3.3745361e+001
3.1658596e+001
2.9188194e+001
2.6198471e+001
2.3056314e+001
1.9784483e+001
1.7080490e+001
1.5026530e+001
1.3120000e+001
1.1369937e+001
9.6217670e+000
7.8994689e+000
6.2257538e+000
4.6126971e+000
3.0623221e+000
1.6722929e+000
6.1724597e-001
1.8356517e-002
1.6365439e-002
6.4813334e-001
1.7937696e+000
2.9885600e+000
3.8717682e+000
4.4531336e+000
4.7323751e+000
5.0814090e+000
5.6974349e+000
6.4847879e+000
7.4537997e+000
8.1037436e+000
8.1934280e+000
8.0084753e+000
7.4476347e+000
6.9025574e+000
6.3913894e+000
5.9406400e+000
5.5921197e+000
5.3481140e+000
5.2234011e+000
5.0687208e+000
4.8555217e+000
4.5163388e+000
4.1039324e+000
3.8205571e+000
3.7244012e+000
3.8913908e+000
4.2527370e+000
4.6716790e+000
5.0341372e+000
5.1950369e+000
5.2297673e+000
5.2100449e+000
5.2272472e+000
5.3645153e+000
5.5906014e+000
5.9161110e+000
6.2762241e+000
6.6633925e+000
6.9816856e+000
7.1553278e+000
7.2170286e+000
7.0689898e+000
6.8816590e+000
6.6244450e+000
6.3255672e+000
5.9711127e+000
5.5970507e+000
5.2241440e+000
4.9138370e+000
4.6874337e+000
4.4933181e+000
4.3092113e+000
4.0807390e+000
3.7855079e+000
3.4221208e+000
2.9901388e+000
2.4682760e+000
1.9095620e+000
1.3586934e+000
8.4815270e-001
4.4812298e-001
1.3438606e-001
-5.6713082e-002
-1.4088914e-001
-2.3019992e-002
2.0308506e-001
6.2019861e-001
9.9448353e-001
1.2491515e+000
1.3684653e+000
1.2172351e+000
1.0530926e+000
8.8592958e-001
8.2791030e-001
9.5624399e-001
1.2146784e+000
1.6384085e+000
2.0917532e+000
2.5446401e+000
2.8794999e+000
3.0758605e+000
3.1533217e+000
3.1350591e+000
3.0971158e+000
3.0535359e+000
3.0300970e+000
3.0115633e+000
2.9726548e+000
2.9180000e+000
2.8281801e+000
2.7463884e+000
2.7031560e+000
2.6751239e+000
2.6695478e+000
2.6428788e+000
2.5546885e+000
2.4772594e+000
2.4293418e+000
2.4493043e+000
2.6084290e+000
2.8260241e+000
3.1422482e+000
3.4723575e+000
3.8144186e+000
4.1394877e+000
4.4364104e+000
4.7121119e+000
4.9719796e+000
5.2474027e+000
5.5391231e+000
5.8481460e+000
6.1618996e+000
6.4562349e+000
6.7452250e+000
7.0432668e+000
7.3483076e+000
7.6607523e+000
7.9549408e+000
8.1840754e+000
8.3843689e+000
8.5317554e+000
8.6556320e+000
8.7196293e+000
8.7195549e+000
8.5382214e+000
8.2881126e+000
7.8752131e+000
7.4386868e+000
6.9542656e+000
6.4575033e+000
5.9397650e+000
5.4104524e+000
4.8688960e+000
4.3428054e+000
3.8427858e+000
3.3919449e+000
2.9965703e+000
2.6548522e+000
2.3527856e+000
2.0546305e+000
1.7569355e+000
1.4516521e+000
1.1570652e+000
9.1952431e-001
7.1591377e-001
5.7467008e-001
4.6034679e-001
4.0020615e-001
3.6882800e-001
4.2516178e-001
4.8363182e-001
5.2776462e-001
5.4965329e-001
5.0465810e-001
4.7965372e-001
5.0597900e-001
5.5930567e-001
6.6071224e-001
7.3068172e-001
7.4542546e-001
7.1918923e-001
6.4106041e-001
5.6017083e-001
4.7459894e-001
3.7910336e-001
2.7285066e-001
1.5551779e-001
4.1842327e-002
-1.2660866e-002
-2.0906191e-002
2.6717324e-002
1.1130372e-001
2.7908194e-001
4.9970543e-001
8.8042259e-001
1.3012085e+000
1.7836400e+000
2.2427011e+000
2.5445557e+000
2.8014817e+000
2.8797131e+000
2.9270489e+000
2.8779466e+000
2.8308802e+000
2.7971594e+000
2.8402689e+000
3.0401812e+000
3.3248477e+000
3.7380145e+000
4.1537871e+000
4.5721641e+000
4.9889045e+000
5.4021726e+000
5.8023915e+000
6.1714258e+000
6.3876595e+000
6.4917464e+000
6.4358382e+000
6.3038626e+000
6.1380324e+000
5.9580450e+000
5.7583466e+000
5.5652275e+000
5.4547448e+000
5.3858919e+000
5.5464010e+000
5.7243605e+000
5.9405012e+000
6.1261687e+000
6.1783352e+000
6.2194910e+000
6.2268009e+000
6.2365937e+000
6.2499003e+000
6.2389169e+000
6.1798530e+000
6.0945969e+000
5.9688492e+000
5.8186302e+000
5.6312380e+000
5.3435936e+000
4.9574480e+000
4.4608216e+000
3.8984530e+000
3.4319468e+000
3.0317309e+000
2.8044047e+000
2.6463897e+000
2.5222342e+000
2.4032362e+000
2.2395065e+000
2.0533218e+000
1.6954920e+000
1.3108269e+000
7.7936715e-001
2.6843581e-001
-9.3179792e-002
-4.1085741e-001
-5.3620142e-001
-6.5879786e-001
-7.7589941e-001
-9.3026620e-001
-1.1700461e+000
-1.4160508e+000
-1.6682475e+000
-1.8659663e+000
-1.9882841e+000
-2.0721240e+000
-2.1172085e+000
-2.1683257e+000
-2.2224996e+000
-2.2434106e+000
-2.2375107e+000
-2.1165400e+000
-1.9384534e+000
-1.6583537e+000
-1.3478702e+000
-1.0767627e+000
-8.1892699e-001
-6.6351908e-001
-5.2047443e-001
-3.7527627e-001
-2.2921515e-001
-7.3923104e-002
3.1889789e-004
1.0152260e-002
3.7182122e-002
1.0155375e-001
2.1856600e-001
4.9085245e-001
7.9593360e-001
1.1692966e+000
1.4792931e+000
1.6875193e+000
1.8408440e+000
1.9297079e+000
2.1144955e+000
2.3882539e+000
2.6777987e+000
2.9740889e+000
2.9479716e+000
2.7507920e+000
2.3098340e+000
1.7804236e+000
1.6025189e+000
1.5208473e+000
1.9981246e+000
2.5658457e+000
3.0871000e+000
