##TITLE=Methyl Ethyl Ketone
##JCAMP-DX=4.24
##DATA TYPE=INFRARED SPECTRUM
##XUNITS=cm-1
##YUNITS=Absorbance
##FIRSTX=900
##LASTX=2300
##XYDATA=(X++(Y..Y))
2296 -0.027598999
2294 -0.028185163
2292 -0.028772321
2290 -0.029358484
2288 -0.029944645
2286 -0.030530807
2284 -0.031117959
2282 -0.031704128
2280 -0.032290291
2278 -0.032876454
2276 -0.033462614
2274 -0.034048777
2272 -0.03463592
2270 -0.035224061
2268 -0.035808299
2266 -0.03638659
2264 -0.036981378
2262 -0.037597016
2260 -0.038154677
2258 -0.038631108
2256 -0.039324
2254 -0.040319823
2252 -0.040512722
2250 -0.039572135
2248 -0.041618217
2246 -0.042723786
2244 -0.0015883029
2242 0.11155456
2240 0.2379308
2238 0.30510628
2236 0.28673285
2234 0.18326096
2232 0.049431406
2230 -0.058243677
2228 -0.13838504
2226 -0.20581301
2224 -0.27555051
2222 -0.3566547
2220 -0.43460384
2218 -0.49038798
2216 -0.51514399
2214 -0.50432503
2212 -0.458215
2210 -0.38342541
2208 -0.30641943
2206 -0.25746042
2204 -0.2577841
2202 -0.31505489
2200 -0.39327377
2198 -0.4470993
2196 -0.44796357
2194 -0.38111624
2192 -0.26594219
2190 -0.13082561
2188 0.0025377795
2186 0.11454579
2184 0.1847588
2182 0.195649
2180 0.1427256
2178 0.031527881
2176 -0.10875626
2174 -0.24537593
2172 -0.36217368
2170 -0.44992021
2168 -0.50491744
2166 -0.52627164
2164 -0.51768112
2162 -0.48829681
2160 -0.46366754
2158 -0.46789336
2156 -0.49663597
2154 -0.53503692
2152 -0.56530625
2150 -0.57451838
2148 -0.57274491
2146 -0.57463747
2144 -0.58088148
2142 -0.58747506
2140 -0.59222519
2138 -0.59320909
2136 -0.58637029
2134 -0.56609648
2132 -0.52375197
2130 -0.4551658
2128 -0.37913641
2126 -0.32000956
2124 -0.29075164
2122 -0.2966311
2120 -0.32948044
2118 -0.37819529
2116 -0.43946901
2114 -0.51173991
2112 -0.58814049
2110 -0.65984315
2108 -0.71843523
2106 -0.75796074
2104 -0.78165948
2102 -0.7970432
2100 -0.81484681
2098 -0.84344327
2096 -0.87679571
2094 -0.90431643
2092 -0.91978389
2090 -0.92172736
2088 -0.92057055
2086 -0.92798597
2084 -0.94179547
2082 -0.95381296
2080 -0.95441294
2078 -0.93629271
2076 -0.90303481
2074 -0.86298507
2072 -0.82593083
2070 -0.8031373
2068 -0.81034267
2066 -0.86028314
2064 -0.94543642
2062 -1.0465307
2060 -1.1302311
2058 -1.1666081
2056 -1.16202
2054 -1.139256
2052 -1.125074
2050 -1.140887
2048 -1.1813172
2046 -1.2297786
2044 -1.271892
2042 -1.2983546
2040 -1.3147755
2038 -1.3303066
2036 -1.34175
2034 -1.3388228
2032 -1.3063788
2030 -1.236649
2028 -1.1613572
2026 -1.1221399
2024 -1.1294137
2022 -1.1719295
2020 -1.2111254
2018 -1.209985
2016 -1.18558
2014 -1.174969
2012 -1.1925125
2010 -1.235733
2008 -1.2803103
2006 -1.2996864
2004 -1.2969391
2002 -1.288074
2000 -1.2831823
1998 -1.285706
1996 -1.2869928
1994 -1.2737671
1992 -1.2382377
1990 -1.1781383
1988 -1.10374
1986 -1.0304314
1984 -0.96946561
1982 -0.92842156
1980 -0.90797657
1978 -0.90325391
1976 -0.89939457
1974 -0.87742913
1972 -0.82073098
1970 -0.72076303
1968 -0.5973478
1966 -0.48412231
1964 -0.41409039
1962 -0.41282791
1960 -0.47950321
1958 -0.59671295
1956 -0.73252887
1954 -0.85147768
1952 -0.93034387
1950 -0.95935923
1948 -0.95785445
1946 -0.95553249
1944 -0.96451753
1942 -0.98369837
1940 -0.99880701
1938 -0.99491018
1936 -0.9802646
1934 -0.97412974
1932 -0.98825258
1930 -1.0243592
1928 -1.0626479
1926 -1.0728414
1924 -1.0285758
1922 -0.91645175
1920 -0.76633507
1918 -0.62954962
1916 -0.54990673
1914 -0.55296558
1912 -0.61113822
1910 -0.67062926
1908 -0.68851447
1906 -0.64041841
1904 -0.5459348
1902 -0.44464538
1900 -0.3594743
1898 -0.2960225
1896 -0.23406428
1894 -0.14970814
1892 -0.062592246
1890 -0.015697371
1888 -0.040059522
1886 -0.14662275
1884 -0.29864177
1882 -0.44001102
1880 -0.54708785
1878 -0.61964953
1876 -0.66636997
1874 -0.69324958
1872 -0.68032432
1870 -0.60035884
1868 -0.46307033
1866 -0.30469757
1864 -0.17468388
1862 -0.1166662
1860 -0.12382346
1858 -0.16183926
1856 -0.21204829
1854 -0.27155578
1852 -0.35118976
1850 -0.4639605
1848 -0.60087919
1846 -0.73764354
1844 -0.84530526
1842 -0.89922321
1840 -0.90006739
1838 -0.86473721
1836 -0.81138301
1834 -0.75230002
1832 -0.67777073
1830 -0.56856811
1828 -0.42496687
1826 -0.26562637
1824 -0.12885031
1822 -0.055566527
1820 -0.048609458
1818 -0.083618142
1816 -0.13052458
1814 -0.16314696
1812 -0.17634271
1810 -0.17784642
1808 -0.17082268
1806 -0.15841851
1804 -0.16463274
1802 -0.22285032
1800 -0.34341887
1798 -0.50614882
1796 -0.63018072
1794 -0.61272711
1792 -0.42811239
1790 -0.1212686
1788 0.20193964
1786 0.42022827
1784 0.50008261
1782 0.47502643
1780 0.38844875
1778 0.27971521
1776 0.17602371
1774 0.094989464
1772 0.048564654
1770 0.040141366
1768 0.047162451
1766 0.037885308
1764 0.021215439
1762 0.024603989
1760 0.016292335
1758 -0.067635864
1756 -0.22373101
1754 -0.39520839
1752 -0.53352135
1750 -0.61192197
1748 -0.64189541
1746 -0.66474611
1744 -0.73834258
1742 -0.91061378
1740 -1.1435362
1738 -1.3340026
1736 -1.38026
1734 -1.2157474
1732 -0.89061368
1730 -0.53747165
1728 -0.26950103
1726 -0.15096964
1724 -0.14502506
1722 -0.1332913
1720 0.040440567
1718 0.52024293
1716 1.3075333
1714 2.2847593
1712 3.3095555
1710 4.2684374
1708 5.195096
1706 6.2416229
1704 7.5697665
1702 9.3345747
1700 11.708344
1698 14.809327
1696 18.431713
1694 22.131069
1692 25.576717
1690 28.650953
1688 31.616627
1686 35.007084
1684 39.264496
1682 44.56918
1680 50.438118
1678 55.996204
1676 61.009441
1674 65.865997
1672 70.955101
1670 76.452942
1668 82.004974
1666 86.900551
1664 90.791794
1662 93.732292
1660 95.878387
1658 97.392799
1656 98.359489
1654 98.800995
1652 98.795639
1650 98.470795
1648 97.886848
1646 97.031174
1644 95.874222
1642 94.384125
1640 92.525291
1638 90.254128
1636 87.508568
1634 84.236076
1632 80.516289
1630 76.522095
1628 72.294296
1626 67.742989
1624 62.820358
1622 57.578049
1620 52.231148
1618 47.115528
1616 42.485199
1614 38.471992
1612 35.10754
1610 32.338001
1608 30.051611
1606 28.10807
1604 26.418488
1602 24.958214
1600 23.743401
1598 22.811382
1596 22.181999
1594 21.847275
1592 21.771879
1590 21.903048
1588 22.201839
1586 22.6483
1584 23.226496
1582 23.92981
1580 24.803244
1578 25.947592
1576 27.486572
1574 29.53087
1572 32.058926
1570 34.905472
1568 37.862801
1566 40.719986
1564 43.320229
1562 45.610699
1560 47.761993
1558 50.103329
1556 52.685341
1554 55.208771
1552 57.287567
1550 58.578911
1548 59.050434
1546 58.960213
1544 58.385147
1542 57.155796
1540 55.169838
1538 52.503494
1536 49.492828
1534 46.666256
1532 44.273022
1530 42.195587
1528 40.259674
1526 38.319752
1524 36.270298
1522 34.060547
1520 31.724537
1518 29.380257
1516 27.154043
1514 25.130728
1512 23.2362
1510 21.240404
1508 19.001415
1506 16.551414
1504 14.086005
1502 11.914079
1500 10.164204
1498 8.714963
1496 7.4014997
1494 6.0897541
1492 4.7462063
1490 3.4506857
1488 2.2878919
1486 1.3153845
1484 0.56729162
1482 0.054138303
1480 -0.22700149
1478 -0.27551848
1476 -0.016909719
1474 0.68871051
1472 1.8507886
1470 3.2932091
1468 4.7988281
1466 6.1689591
1464 7.3151574
1462 8.2892895
1460 9.1837091
1458 10.093136
1456 11.053
1454 12.009279
1452 12.833468
1450 13.343886
1448 13.457629
1446 13.240929
1444 12.790974
1442 12.196549
1440 11.507514
1438 10.721767
1436 9.8156004
1434 8.7669525
1432 7.6191478
1430 6.500639
1428 5.5348582
1426 4.8028207
1424 4.3265376
1422 4.0604
1420 3.956099
1418 3.9838569
1416 4.1294146
1414 4.3930192
1412 4.7679081
1410 5.2319899
1408 5.7536559
1406 6.28894
1404 6.7712607
1402 7.1092749
1400 7.2280402
1398 7.0947661
1396 6.7431569
1394 6.2867184
1392 5.8346109
1390 5.4562736
1388 5.1718307
1386 4.94312
1384 4.7319837
1382 4.5182791
1380 4.2779202
1378 3.975667
1376 3.5781658
1374 3.0652013
1372 2.454922
1370 1.8157141
1368 1.2049402
1366 0.64449632
1364 0.14221427
1362 -0.29875156
1360 -0.64768857
1358 -0.83575094
1356 -0.82295471
1354 -0.62842524
1352 -0.28654444
1350 0.16429612
1348 0.6803565
1346 1.2143178
1344 1.7388
1342 2.258121
1340 2.7732012
1338 3.2656176
1336 3.6967628
1334 4.0056391
1332 4.144506
1330 4.099256
1328 3.8843033
1326 3.5492606
1324 3.155864
1322 2.7700043
1320 2.4431925
1318 2.1985798
1316 2.03512
1314 1.9224552
1312 1.8276039
1310 1.7262521
1308 1.6097915
1306 1.4935329
1304 1.4009023
1302 1.358843
1300 1.3885903
1298 1.4989568
1296 1.6880572
1294 1.9412113
1292 2.2487192
1290 2.6145895
1288 3.048228
1286 3.5593007
1284 4.1323481
1282 4.7079477
1280 5.2197304
1278 5.611455
1276 5.8602285
1274 6.000236
1272 6.0833669
1270 6.1681886
1268 6.3026495
1266 6.5113707
1264 6.806839
1262 7.1898155
1260 7.6598902
1258 8.2200584
1256 8.8782625
1254 9.6485748
1252 10.537166
1250 11.530281
1248 12.599823
1246 13.6975
1244 14.780491
1242 15.819413
1240 16.782246
1238 17.612291
1236 18.233143
1234 18.537689
1232 18.44772
1230 17.960869
1228 17.118866
1226 16.019186
1224 14.756714
1222 13.397233
1220 12.009257
1218 10.681928
1216 9.5100346
1214 8.5872478
1212 7.9830322
1210 7.7116656
1208 7.7379904
1206 7.9504142
1204 8.2079582
1202 8.3520746
1200 8.262022
1198 7.9096079
1196 7.3197432
1194 6.582149
1192 5.7870536
1190 4.9921093
1188 4.2386818
1186 3.5491521
1184 2.9420128
1182 2.4367278
1180 2.04877
1178 1.783783
1176 1.64124
1174 1.6108292
1172 1.6735263
1170 1.7963048
1168 1.9437298
1166 2.082458
1164 2.1855237
1162 2.2400138
1160 2.2421696
1158 2.2014
1156 2.1229944
1154 1.9957867
1152 1.8011491
1150 1.5154529
1148 1.1383238
1146 0.7261939
1144 0.35325933
1142 0.098624833
1140 0.0029129246
1138 0.01485062
1136 0.071222827
1134 0.13348201
1132 0.17952447
1130 0.21304367
1128 0.24980292
1126 0.31798658
1124 0.43364087
1122 0.5756712
1120 0.709252
1118 0.78970337
1116 0.78843659
1114 0.72214359
1112 0.61814481
1110 0.50313711
1108 0.40221757
1106 0.33691251
1104 0.32838374
1102 0.39812133
1100 0.55939221
1098 0.80416906
1096 1.1174715
1094 1.4797279
1092 1.872372
1090 2.2822242
1088 2.6929052
1086 3.076848
1084 3.4051621
1082 3.6528425
1080 3.8026559
1078 3.855443
1076 3.8143315
1074 3.6785607
1072 3.4538977
1070 3.1674731
1068 2.8596106
1066 2.5918744
1064 2.415344
1062 2.3368206
1060 2.3362494
1058 2.3501799
1056 2.3148487
1054 2.1970124
1052 1.9882958
1050 1.7297471
1048 1.4723926
1046 1.2613037
1044 1.1343317
1042 1.1118201
1040 1.2051908
1038 1.4114952
1036 1.7145
1034 2.0687661
1032 2.4117143
1030 2.651015
1028 2.6998239
1026 2.5119057
1024 2.0873313
1022 1.5356431
1020 0.98982882
1018 0.5720998
1016 0.35907456
1014 0.29844376
1012 0.29879466
1010 0.24868968
1008 0.072024167
1006 -0.18373667
1004 -0.44540921
1002 -0.65579551
1000 -0.78950095
998 -0.90735126
996 -1.0727072
994 -1.289305
992 -1.5405006
990 -1.7900701
988 -2.0034282
986 -2.1658199
984 -2.2717903
982 -2.3297067
980 -2.350816
978 -2.342627
976 -2.3017399
974 -2.1920731
972 -1.9849162
970 -1.7039403
968 -1.3953097
966 -1.134884
964 -0.98068613
962 -0.90371865
960 -0.84444684
958 -0.71419609
956 -0.44821626
954 -0.090215564
952 0.27408123
950 0.50776339
948 0.511639
946 0.36400178
944 0.17295943
942 -0.0044127107
940 -0.1377345
938 -0.2468431
936 -0.35520113
934 -0.45393848
932 -0.51780784
930 -0.49155158
928 -0.33216348
926 -0.069796205
924 0.25094721
922 0.59923381
920 0.94260514
918 1.2295253
916 1.4069071
914 1.4330701
912 1.2813599
910 0.97094929
908 0.55160493
906 0.1478674
904 -0.099701755
902 -0.061197281
900 0.34682548
898 1.0339911
896 1.8666
