Image.
>Pix99999.
  .
5555
5555
2300
900
5555
2
1
0
701
5555
-3.4828998e-002
-3.5552964e-002
-3.6277924e-002
-3.7002888e-002
-3.7726857e-002
-3.8451813e-002
-3.9175786e-002
-3.9900739e-002
-4.0625703e-002
-4.1349679e-002
-4.2074628e-002
-4.2799592e-002
-4.3523572e-002
-4.4248518e-002
-4.4972502e-002
-4.5697443e-002
-4.6421431e-002
-4.7146369e-002
-4.7871333e-002
-4.8595324e-002
-4.9320258e-002
-5.0045218e-002
-5.0769214e-002
-5.1494148e-002
-5.2218143e-002
-5.2943073e-002
-1.9674201e-003
6.1740059e-002
1.2643749e-001
1.7699692e-001
2.2549142e-001
2.4792671e-001
2.6775533e-001
2.7108026e-001
2.7196115e-001
2.5984001e-001
2.4454458e-001
2.1788354e-001
1.9430083e-001
1.8201019e-001
1.8285915e-001
2.1101399e-001
2.4592321e-001
2.8924328e-001
3.2539600e-001
3.5198727e-001
3.7100035e-001
3.8327438e-001
3.7688869e-001
3.5687652e-001
3.1390285e-001
2.5823373e-001
2.2601457e-001
2.0447016e-001
2.3803240e-001
2.8928050e-001
3.6802119e-001
4.5282739e-001
5.1335865e-001
5.6950748e-001
5.6782997e-001
5.5894125e-001
5.2836454e-001
5.0162798e-001
5.0876462e-001
5.2720970e-001
5.7492876e-001
6.1792511e-001
6.4135432e-001
6.5399575e-001
6.4992100e-001
6.5956575e-001
6.9160867e-001
7.3585123e-001
7.9121554e-001
8.2972682e-001
8.5231435e-001
8.5519522e-001
8.4555793e-001
8.2714719e-001
8.0465943e-001
7.8491139e-001
7.6642543e-001
7.6718748e-001
7.7403921e-001
7.9417831e-001
8.1733006e-001
8.3447415e-001
8.5001647e-001
8.5371441e-001
8.5451031e-001
8.4611619e-001
8.3804905e-001
8.3716738e-001
8.4128481e-001
8.5737342e-001
8.7240630e-001
8.8131005e-001
8.8062263e-001
8.6538225e-001
8.4239143e-001
8.1215191e-001
7.8544420e-001
7.6349413e-001
7.5485975e-001
7.5650948e-001
7.6530296e-001
7.7781135e-001
7.8601605e-001
7.9177672e-001
7.9104543e-001
7.8776294e-001
7.8267241e-001
7.7712238e-001
7.7143157e-001
7.6571131e-001
7.5171340e-001
7.3608583e-001
7.1827984e-001
7.0210260e-001
6.9716626e-001
6.9713837e-001
7.0737803e-001
7.1882617e-001
7.2881639e-001
7.2912717e-001
7.1154261e-001
6.8509191e-001
6.4988476e-001
6.2546164e-001
6.1532211e-001
6.1954498e-001
6.3525099e-001
6.4528251e-001
6.4966381e-001
6.3275045e-001
6.0310555e-001
5.7145804e-001
5.3994393e-001
5.2651715e-001
5.2040201e-001
5.1049578e-001
4.9859267e-001
4.7131169e-001
4.3975320e-001
4.0836602e-001
3.7829334e-001
3.5860258e-001
3.4389323e-001
3.4136653e-001
3.4312427e-001
3.4983644e-001
3.5688344e-001
3.5996193e-001
3.5908398e-001
3.5041821e-001
3.3881977e-001
3.2577541e-001
3.1227842e-001
2.9969841e-001
2.8603828e-001
2.7179360e-001
2.6742402e-001
2.7116585e-001
2.7472010e-001
2.7711907e-001
2.4706469e-001
1.9932106e-001
1.5521480e-001
1.1346033e-001
1.1839900e-001
1.4003976e-001
1.6908914e-001
1.9626394e-001
1.9340239e-001
1.7839250e-001
1.4789560e-001
1.1809988e-001
1.0041327e-001
9.0758331e-002
9.0585224e-002
8.9984052e-002
8.5529022e-002
6.8790428e-002
3.6906730e-002
-4.8736781e-003
-5.2412789e-002
-7.9654075e-002
-8.4839411e-002
-6.4840838e-002
-2.9647816e-002
5.4984819e-003
3.8285114e-002
5.7235088e-002
6.8370856e-002
6.1109681e-002
4.3977719e-002
4.0634643e-002
4.3477934e-002
7.4229702e-002
1.1423143e-001
1.3663621e-001
1.4740480e-001
1.2215350e-001
8.1404917e-002
2.8901080e-002
-2.6860589e-002
-8.0146328e-002
-1.3192140e-001
-1.8014401e-001
-2.2070800e-001
-2.4482495e-001
-2.4718982e-001
-2.2231485e-001
-1.8943100e-001
-1.6256042e-001
-1.6783759e-001
-2.1011689e-001
-2.7599630e-001
-3.5249999e-001
-4.2842770e-001
-4.9979576e-001
-5.6009948e-001
-6.1146486e-001
-6.2972999e-001
-6.2694681e-001
-5.9003818e-001
-5.3539193e-001
-4.9930468e-001
-4.7575948e-001
-4.6893972e-001
-4.6847332e-001
-4.4668555e-001
-4.1001809e-001
-3.5849181e-001
-3.0866921e-001
-2.9145378e-001
-3.0933443e-001
-3.7245959e-001
-4.5802698e-001
-5.4625714e-001
-6.1960828e-001
-6.6753048e-001
-6.8082207e-001
-6.6361135e-001
-6.1052901e-001
-5.2999079e-001
-4.5919245e-001
-4.0169200e-001
-3.7593418e-001
-3.7256214e-001
-3.3638418e-001
-2.7710360e-001
-1.9571455e-001
-1.0596874e-001
-5.6727294e-002
-3.3641543e-002
-1.9803295e-002
-8.8771088e-003
2.6470941e-002
8.0242798e-002
1.5816830e-001
2.4351630e-001
3.0033398e-001
3.2135281e-001
2.8162199e-001
2.1032880e-001
1.3910782e-001
4.2971887e-002
-9.0374544e-002
-1.9754457e-001
-2.4669032e-001
-2.2808635e-001
-1.4818969e-001
-6.9149107e-002
-1.3531845e-002
-3.9542068e-002
-1.4315176e-001
-2.5126448e-001
-3.4762362e-001
-3.3796400e-001
-2.4432990e-001
-1.3158819e-001
-1.7357126e-002
-1.3361370e-002
-8.4107950e-002
-1.2844540e-001
-1.3004979e-001
1.7649718e-002
3.0400553e-001
7.7320510e-001
1.3409113e+000
1.8648548e+000
2.3538277e+000
2.8286939e+000
3.4379742e+000
4.3265972e+000
5.7584639e+000
7.8653269e+000
1.0880588e+001
1.4778286e+001
1.8803150e+001
2.2597065e+001
2.5967680e+001
2.8953571e+001
3.2441929e+001
3.6533192e+001
4.1546070e+001
4.7299438e+001
5.2453602e+001
5.7020199e+001
6.1409679e+001
6.5753525e+001
7.0875031e+001
7.6574249e+001
8.2208153e+001
8.7649979e+001
9.2475372e+001
9.6679504e+001
1.0020953e+002
1.0293829e+002
1.0468430e+002
1.0535420e+002
1.0490527e+002
1.0351149e+002
1.0141286e+002
9.8932533e+001
9.6377365e+001
9.3502571e+001
9.0218163e+001
8.6082542e+001
8.1017113e+001
7.5772430e+001
7.0626839e+001
6.5886520e+001
6.1571365e+001
5.7249039e+001
5.2854729e+001
4.8596096e+001
4.4487152e+001
4.0674171e+001
3.7174080e+001
3.4093777e+001
3.1442690e+001
2.9195440e+001
2.7336693e+001
2.5746517e+001
2.4437241e+001
2.3385481e+001
2.2596500e+001
2.2038500e+001
2.1706352e+001
2.1558144e+001
2.1565222e+001
2.1677580e+001
2.1875315e+001
2.2136040e+001
2.2457420e+001
2.2836405e+001
2.3316750e+001
2.3911028e+001
2.4654360e+001
2.5545746e+001
2.6548164e+001
2.7648800e+001
2.8773964e+001
2.9918283e+001
3.1216349e+001
3.2759087e+001
3.5173119e+001
3.8537315e+001
4.2335117e+001
4.6351284e+001
4.9578484e+001
5.2030308e+001
5.4148678e+001
5.5928139e+001
5.7468159e+001
5.8562599e+001
5.8937233e+001
5.8575001e+001
5.7582977e+001
5.6195557e+001
5.4727261e+001
5.3168816e+001
5.1514751e+001
4.9634338e+001
4.7437599e+001
4.5011696e+001
4.2367764e+001
3.9915840e+001
3.7812332e+001
3.5827961e+001
3.3948433e+001
3.1569960e+001
2.8534557e+001
2.5464333e+001
2.2411951e+001
1.9846767e+001
1.7819960e+001
1.5810714e+001
1.3806328e+001
1.1740209e+001
9.6221504e+000
7.5055780e+000
5.4630699e+000
3.6268601e+000
2.0957785e+000
9.7686481e-001
2.9128289e-001
5.7221800e-002
3.5595244e-001
1.1169391e+000
2.0469210e+000
2.9648292e+000
3.7439234e+000
4.2987909e+000
4.7816377e+000
5.2494082e+000
5.7338409e+000
6.2448401e+000
6.6645985e+000
6.9244270e+000
7.0478725e+000
6.9722972e+000
6.8353324e+000
6.6151495e+000
6.3722229e+000
6.0981197e+000
5.7881746e+000
5.4196315e+000
4.9478335e+000
4.3713779e+000
3.7589674e+000
3.1496882e+000
2.6502023e+000
2.2857599e+000
2.0751061e+000
2.0182228e+000
2.0962136e+000
2.2664030e+000
2.4865320e+000
2.7092938e+000
2.9095116e+000
3.1066275e+000
3.3163321e+000
3.5658522e+000
3.8791704e+000
4.2447762e+000
4.6859875e+000
5.1504354e+000
5.6383061e+000
6.0533700e+000
6.3239799e+000
6.4513726e+000
6.3505001e+000
6.1265445e+000
5.7363663e+000
5.2924776e+000
4.7909851e+000
4.2860684e+000
3.7964406e+000
3.3502481e+000
2.9591646e+000
2.6287184e+000
2.3218665e+000
1.9758837e+000
1.5844438e+000
1.1281916e+000
6.8263626e-001
3.3646989e-001
9.4109140e-002
1.9325703e-002
3.1466417e-002
1.3637863e-001
2.7466464e-001
4.4961882e-001
6.4037913e-001
8.5907948e-001
1.0849983e+000
1.3194143e+000
1.5461529e+000
1.7456449e+000
1.9371760e+000
2.1181550e+000
2.3147693e+000
2.5468788e+000
2.8210189e+000
3.1549783e+000
3.5209987e+000
3.9109399e+000
4.2715631e+000
4.5857506e+000
4.8348641e+000
5.0222259e+000
5.1647863e+000
5.2707982e+000
5.3425231e+000
5.3862200e+000
5.3883862e+000
5.3668571e+000
5.3134432e+000
5.2554803e+000
5.2029629e+000
5.1653442e+000
5.1638737e+000
5.1730261e+000
5.2013373e+000
5.2256241e+000
5.2402382e+000
5.2509742e+000
5.2584939e+000
5.2782235e+000
5.3239961e+000
5.3979020e+000
5.5105786e+000
5.6357164e+000
5.7705412e+000
5.8953562e+000
6.0113597e+000
6.1295056e+000
6.2509503e+000
6.3791184e+000
6.5073566e+000
6.6211786e+000
6.7210999e+000
6.7951074e+000
6.8498549e+000
6.8712730e+000
6.8659873e+000
6.8036232e+000
6.7052979e+000
6.5252118e+000
6.3076282e+000
5.9951329e+000
5.6490765e+000
5.2137222e+000
4.7573509e+000
4.2523909e+000
3.7505360e+000
3.2579658e+000
2.7877703e+000
2.3585057e+000
1.9579272e+000
1.6019229e+000
1.2818351e+000
1.0068282e+000
7.6330948e-001
5.4945946e-001
3.4370205e-001
1.4920065e-001
-2.2450641e-002
-1.6390938e-001
-2.3276579e-001
-2.5419819e-001
-2.1146670e-001
-1.4439777e-001
-6.3389413e-002
3.1044833e-002
1.6802615e-001
3.3798000e-001
6.1849844e-001
9.1656584e-001
1.2547487e+000
1.5582824e+000
1.7514857e+000
1.8904037e+000
1.8959091e+000
1.8753680e+000
1.8042450e+000
1.7296801e+000
1.6458292e+000
1.5362794e+000
1.3863087e+000
1.1905168e+000
9.4517428e-001
6.8609607e-001
4.2471641e-001
2.1347734e-001
5.4401595e-002
-1.3465056e-003
1.4731862e-002
1.2634915e-001
2.8239495e-001
4.8027384e-001
6.8402827e-001
8.5925877e-001
1.0164801e+000
1.1048520e+000
1.1807344e+000
1.2238044e+000
1.2693158e+000
1.3274879e+000
1.3902005e+000
1.4674265e+000
1.5460300e+000
1.6263595e+000
1.6917443e+000
1.7243491e+000
1.7228240e+000
1.6679429e+000
1.5999058e+000
1.5212740e+000
1.4814258e+000
1.4859983e+000
1.5424421e+000
1.6387674e+000
1.7376788e+000
1.8277600e+000
1.8437899e+000
1.8127100e+000
1.6814358e+000
1.5132457e+000
1.3140475e+000
1.1127607e+000
9.4644618e-001
7.9074997e-001
6.8014032e-001
5.8086765e-001
5.4092097e-001
5.1671827e-001
5.6136197e-001
6.1184973e-001
6.7877388e-001
7.2103184e-001
7.0151895e-001
6.4937246e-001
5.3639168e-001
4.1628450e-001
2.8691769e-001
1.6935951e-001
6.6972859e-002
-1.7533321e-002
-8.5427627e-002
-1.4720708e-001
-2.0572858e-001
-2.7500445e-001
-3.5010588e-001
-4.2657214e-001
-5.0254756e-001
-5.6603086e-001
-6.2496722e-001
-6.7081511e-001
-7.1267027e-001
-7.3509324e-001
-7.5282693e-001
-7.3504281e-001
-7.1552140e-001
-6.8674147e-001
-6.6457546e-001
-6.7156076e-001
-6.8187094e-001
-7.0252252e-001
-7.2012043e-001
-7.3033309e-001
-7.3243058e-001
-7.1903920e-001
-6.8722069e-001
-6.3095921e-001
-5.7968104e-001
-5.3544801e-001
-5.2200735e-001
-5.3398836e-001
-5.6246340e-001
-6.0011631e-001
-6.2696701e-001
-6.4674288e-001
-6.2413722e-001
-5.8554399e-001
-4.9380502e-001
-3.9030185e-001
-2.7401349e-001
-1.5855961e-001
-9.9008709e-002
-4.3532629e-002
-1.4346643e-002
6.4412504e-004
2.0699222e-002
8.1615210e-002
2.2870140e-001
3.7479341e-001
5.1784563e-001
6.4714551e-001
7.4703324e-001
8.4153801e-001
9.2711198e-001
9.9384075e-001
1.0368384e+000
1.0272963e+000
9.6831310e-001
8.7666804e-001
7.6273638e-001
7.1392930e-001
7.0065075e-001
7.6288897e-001
8.5402393e-001
8.3623821e-001
7.8992105e-001
6.1068654e-001
4.1044953e-001
3.4720001e-001
