##TITLE=Methyl Ethyl Ketone
##JCAMP-DX=4.24
##DATA TYPE=INFRARED SPECTRUM
##XUNITS=cm-1
##YUNITS=Absorbance
##FIRSTX=900
##LASTX=2300
##XYDATA=(X++(Y..Y))
2296 0.064456001
2294 0.065797076
2292 0.067137159
2290 0.068478242
2288 0.069819324
2286 0.071160406
2284 0.072501488
2282 0.07384257
2280 0.075183652
2278 0.076523744
2276 0.077864818
2274 0.079208851
2272 0.080547027
2270 0.081877261
2268 0.08322794
2266 0.084609337
2264 0.085911244
2262 0.087105028
2260 0.08858861
2258 0.090478346
2256 0.091290623
2254 0.090588413
2252 0.093890138
2250 0.10283962
2248 0.096905351
2246 0.059621681
2244 0.01562909
2242 -0.0034413736
2240 0.015739659
2238 0.075212441
2236 0.15269415
2234 0.22734627
2232 0.31185973
2230 0.42400411
2228 0.56280738
2226 0.71525502
2224 0.8418898
2222 0.8980366
2220 0.84885246
2218 0.67560583
2216 0.41245943
2214 0.1145841
2212 -0.14169385
2210 -0.28682828
2208 -0.30377367
2206 -0.20198222
2204 -0.033387709
2202 0.14353389
2200 0.29565793
2198 0.40495062
2196 0.48215431
2194 0.54153532
2192 0.57578242
2190 0.57084197
2188 0.51335508
2186 0.401014
2184 0.27488959
2182 0.18594331
2180 0.16872469
2178 0.23836493
2176 0.3534497
2174 0.45971736
2172 0.52504313
2170 0.53434932
2168 0.51069826
2166 0.48575562
2164 0.47533479
2162 0.48667073
2160 0.51501858
2158 0.55105752
2156 0.58279598
2154 0.60087222
2152 0.61001527
2150 0.62126029
2148 0.65164161
2146 0.7134918
2144 0.79184991
2142 0.86153167
2140 0.89479417
2138 0.87129927
2136 0.80372995
2134 0.71851718
2132 0.65026087
2130 0.62870157
2128 0.65292323
2126 0.7109251
2124 0.7908932
2122 0.88096648
2120 0.9673062
2118 1.0326523
2116 1.0489657
2114 0.99127489
2112 0.86371022
2110 0.68705285
2108 0.50489432
2106 0.3643105
2104 0.29285035
2102 0.30227327
2100 0.37073359
2098 0.46547273
2096 0.56059432
2094 0.63784796
2092 0.69763452
2090 0.74796057
2088 0.79880166
2086 0.8584215
2084 0.92594779
2082 0.99383014
2080 1.0418342
2078 1.0495443
2076 1.0163229
2074 0.95414501
2072 0.89377958
2070 0.86603427
2068 0.87194622
2066 0.89689589
2064 0.9129281
2062 0.89390552
2060 0.84197253
2058 0.77171171
2056 0.69982517
2054 0.64115864
2052 0.60156262
2050 0.58011609
2048 0.56346095
2046 0.53382432
2044 0.47630081
2042 0.38489372
2040 0.28486371
2038 0.211063
2036 0.18223171
2034 0.20420443
2032 0.26095599
2030 0.32993171
2028 0.39971361
2026 0.46527407
2024 0.52566582
2022 0.58110988
2020 0.63038331
2018 0.67210948
2016 0.70751601
2014 0.7380237
2012 0.76083368
2010 0.77073777
2008 0.76064694
2006 0.72468507
2004 0.66518116
2002 0.58680832
2000 0.48797017
1998 0.36727422
1996 0.237645
1994 0.12274075
1992 0.062506378
1990 0.094219491
1988 0.21279339
1986 0.38947493
1984 0.58291042
1982 0.7530731
1980 0.88588727
1978 0.98122269
1976 1.0431972
1974 1.078723
1972 1.0998186
1970 1.1155304
1968 1.1106538
1966 1.0612493
1964 0.95730162
1962 0.80673009
1960 0.66167998
1958 0.58564621
1956 0.5979256
1954 0.68583471
1952 0.80238092
1950 0.89081836
1948 0.92033684
1946 0.88305247
1944 0.80733114
1942 0.73649603
1940 0.70213282
1938 0.71948361
1936 0.76549459
1934 0.80007732
1932 0.79414856
1930 0.73171324
1928 0.62175399
1926 0.49186963
1924 0.39535978
1922 0.38903636
1920 0.48938641
1918 0.68024242
1916 0.90304059
1914 1.0887042
1912 1.214548
1910 1.2853497
1908 1.3053094
1906 1.2765557
1904 1.2036
1902 1.0979548
1900 0.99691081
1898 0.94462848
1896 0.95381284
1894 1.0131736
1892 1.0894203
1890 1.1425719
1888 1.1492189
1886 1.1028157
1884 1.0233864
1882 0.94263697
1880 0.88026571
1878 0.84231341
1876 0.811517
1874 0.76337242
1872 0.69820738
1870 0.63297433
1868 0.58772928
1866 0.5766179
1864 0.58633322
1862 0.59161741
1860 0.5872913
1858 0.58115828
1856 0.57759458
1854 0.57447708
1852 0.5563181
1850 0.50285375
1848 0.40741599
1846 0.27811036
1844 0.14795488
1842 0.059566602
1840 0.033660017
1838 0.069425553
1836 0.13795364
1834 0.20437771
1832 0.27898064
1830 0.3976289
1828 0.57465231
1826 0.79494989
1824 0.9882012
1822 1.0671059
1820 1.0195322
1818 0.89056814
1816 0.74651974
1814 0.64983732
1812 0.61009842
1810 0.60267973
1808 0.60948622
1806 0.61923552
1804 0.61301601
1802 0.56636167
1800 0.45729822
1798 0.2792604
1796 0.084730715
1794 -0.039968815
1792 -0.034757879
1790 0.12125545
1788 0.37389719
1786 0.6271646
1784 0.81608737
1782 0.91078967
1780 0.91622585
1778 0.85803562
1776 0.76176172
1774 0.64871871
1772 0.53329039
1770 0.42357132
1768 0.3195124
1766 0.21896543
1764 0.1340026
1762 0.078371942
1760 0.023714172
1758 -0.075086355
1756 -0.19413471
1754 -0.26651764
1752 -0.27724501
1750 -0.25917
1748 -0.2571803
1746 -0.31151035
1744 -0.42870536
1742 -0.58116311
1740 -0.70009005
1738 -0.69952011
1736 -0.53979599
1734 -0.23838884
1732 0.10078669
1730 0.33024573
1728 0.37801859
1726 0.255992
1724 0.059058316
1722 -0.06385383
1720 0.036739014
1718 0.47256583
1716 1.2137767
1714 2.1180837
1712 3.0267539
1710 3.8208244
1708 4.5520563
1706 5.4147344
1704 6.6433063
1702 8.4736137
1700 11.094816
1698 14.570635
1696 18.554142
1694 22.426411
1692 25.815138
1690 28.682465
1688 31.384754
1686 34.537457
1684 38.640579
1682 43.899426
1680 49.786362
1678 55.328716
1676 60.218601
1674 64.817726
1672 69.568878
1670 74.766304
1668 80.182022
1666 85.202446
1664 89.448418
1662 92.840263
1660 95.433136
1658 97.345726
1656 98.679626
1654 99.504562
1652 99.855438
1650 99.735962
1648 99.120743
1646 97.98893
1644 96.442177
1642 94.663681
1640 92.680344
1638 90.355751
1636 87.535187
1634 84.117027
1632 80.204147
1630 76.050613
1628 71.766914
1626 67.300385
1624 62.602081
1622 57.684772
1620 52.687973
1618 47.850502
1616 43.356514
1614 39.312527
1612 35.785652
1610 32.803329
1608 30.320595
1606 28.23175
1604 26.454134
1602 24.948589
1600 23.709845
1598 22.755344
1596 22.0905
1594 21.701366
1592 21.55908
1590 21.626793
1588 21.877068
1586 22.29295
1584 22.85804
1582 23.563219
1580 24.457853
1578 25.653206
1576 27.272259
1574 29.406004
1572 31.983273
1570 34.771889
1568 37.539879
1566 40.111843
1564 42.428806
1562 44.577904
1560 46.832092
1558 49.539337
1556 52.59124
1554 55.393829
1552 57.439754
1550 58.491966
1548 58.673759
1546 58.393177
1544 57.826321
1542 56.834755
1540 55.2845
1538 53.158588
1536 50.658173
1534 48.166767
1532 45.905373
1530 43.857212
1528 41.917549
1526 39.9412
1524 37.796501
1522 35.400444
1520 32.802063
1518 30.189074
1516 27.763929
1514 25.672998
1512 23.850479
1510 22.012539
1508 19.937304
1506 17.567465
1504 15.050417
1502 12.706955
1500 10.728882
1498 9.0962267
1496 7.7075429
1494 6.428328
1492 5.185966
1490 3.9931107
1488 2.8817124
1486 1.8861707
1484 1.0452745
1482 0.40062636
1480 -0.017205626
1478 -0.18032482
1476 -0.00079569221
1474 0.65794754
1472 1.7941715
1470 3.2195051
1468 4.7270875
1466 6.1551094
1464 7.4433208
1462 8.6488237
1460 9.8418903
1458 11.062377
1456 12.2674
1454 13.317113
1452 14.070678
1450 14.431968
1448 14.401525
1446 14.088535
1444 13.598495
1442 12.99516
1440 12.30124
1438 11.499475
1436 10.580722
1434 9.5652351
1432 8.5239553
1430 7.5797668
1428 6.8136377
1426 6.231257
1424 5.8112621
1422 5.520391
1420 5.3398666
1418 5.274291
1416 5.3296399
1414 5.5047817
1412 5.7850556
1410 6.1391311
1408 6.5329995
1406 6.9327531
1404 7.2967048
1402 7.5726991
1400 7.7088842
1398 7.6648202
1396 7.4434142
1394 7.1076689
1392 6.7347212
1390 6.3955717
1388 6.1190376
1386 5.874505
1384 5.6257257
1382 5.3490076
1380 5.0289702
1378 4.6581726
1376 4.2292714
1374 3.7351041
1372 3.1853459
1370 2.6126246
1368 2.0383372
1366 1.4607136
1364 0.8832702
1362 0.32996276
1360 -0.1457811
1358 -0.45941621
1356 -0.56286615
1354 -0.47578022
1352 -0.22991794
1350 0.14752081
1348 0.62904948
1346 1.1849579
1344 1.784204
1342 2.3935659
1340 2.9745378
1338 3.4809937
1336 3.8649771
1334 4.0815859
1332 4.1056838
1330 3.9464259
1328 3.6380012
1326 3.2427785
1324 2.8290348
1322 2.4602454
1320 2.1768503
1318 1.9808191
1316 1.85326
1314 1.7567344
1312 1.6578765
1310 1.5391915
1308 1.3972392
1306 1.2467914
1304 1.1067668
1302 0.99552143
1300 0.92759776
1298 0.91116428
1296 0.9544
1294 1.0685972
1292 1.2688917
1290 1.5737942
1288 1.98896
1286 2.4936223
1284 3.0447345
1282 3.5731778
1280 4.0206633
1278 4.3624973
1276 4.6010728
1274 4.7734523
1272 4.9213243
1270 5.0795674
1268 5.2774854
1266 5.5359216
1264 5.8702126
1262 6.2883792
1260 6.7942638
1258 7.3872399
1256 8.0679827
1254 8.8417645
1252 9.7116117
1250 10.67419
1248 11.71756
1246 12.81575
1244 13.932423
1242 15.015075
1240 16.000017
1238 16.813587
1236 17.384457
1234 17.660036
1232 17.6022
1230 17.200827
1228 16.469765
1226 15.4648
1224 14.262132
1222 12.962327
1220 11.664334
1218 10.458024
1216 9.4158344
1214 8.5898733
1212 8.0148344
1210 7.7012315
1208 7.6308069
1206 7.7351847
1204 7.9180522
1202 8.0522184
1200 8.0226774
1198 7.7601123
1196 7.2438927
1194 6.5336046
1192 5.7163229
1190 4.8945141
1188 4.152348
1186 3.5255744
1184 3.0256424
1182 2.6367586
1180 2.3428483
1178 2.1403739
1176 2.0276999
1174 1.9995323
1172 2.0423474
1170 2.1269975
1168 2.2246406
1166 2.3141036
1164 2.373301
1162 2.3747149
1160 2.2982736
1158 2.1446247
1156 1.9320371
1154 1.7051051
1152 1.4956726
1150 1.2927097
1148 1.0768832
1146 0.83555251
1144 0.57458162
1142 0.33752424
1140 0.1588223
1138 0.031455349
1136 -0.0548844
1134 -0.095390111
1132 -0.085872158
1130 -0.031914495
1128 0.06076289
1126 0.19173314
1124 0.3619796
1122 0.57167822
1120 0.8101632
1118 1.0413544
1116 1.2272829
1114 1.3418359
1112 1.3768944
1110 1.3609322
1108 1.3309014
1106 1.321355
1104 1.3593771
1102 1.4539652
1100 1.6066806
1098 1.8110181
1096 2.0583427
1094 2.3397741
1092 2.654294
1090 3.0203483
1088 3.454576
1086 3.9552629
1084 4.5004992
1082 5.0275812
1080 5.4676309
1078 5.763041
1076 5.8753271
1074 5.8106318
1072 5.5976119
1070 5.2957244
1068 4.9668508
1066 4.6582036
1064 4.401104
1062 4.1926856
1060 4.0211754
1058 3.8734207
1056 3.7399998
1054 3.6234834
1052 3.5272748
1050 3.450388
1048 3.3948772
1046 3.3739929
1044 3.4009018
1042 3.4797168
1040 3.6046834
1038 3.7485681
1036 3.8858099
1034 4.0099754
1032 4.114264
1030 4.176219
1028 4.166142
1026 4.0447383
1024 3.7891531
1022 3.43189
1020 3.0245018
1018 2.6336737
1016 2.3112657
1014 2.0525594
1012 1.8366539
1010 1.6360247
1008 1.438284
1006 1.2819999
1004 1.2036897
1002 1.1953516
1000 1.2279783
998 1.2425531
996 1.1827857
994 1.0242071
992 0.76264668
990 0.43339708
988 0.088195845
986 -0.20057578
984 -0.37362823
982 -0.43100256
980 -0.397194
978 -0.32786009
976 -0.26933688
974 -0.21176463
972 -0.1343842
970 -0.026919998
968 0.10428771
966 0.2061135
964 0.22680831
962 0.15903303
960 0.017594144
958 -0.14472955
956 -0.27535498
954 -0.3549678
952 -0.3737148
950 -0.32647046
948 -0.2177193
946 -0.081528574
944 0.051150128
942 0.1864225
940 0.33103192
938 0.4614228
936 0.5635494
934 0.68490875
932 0.87417185
930 1.1278822
928 1.4136504
926 1.6399772
924 1.724758
922 1.6761113
920 1.5428308
918 1.441928
916 1.4772857
914 1.6381307
912 1.881588
910 2.151305
908 2.4118614
906 2.7227066
904 3.1434469
902 3.6410348
900 4.1617255
898 4.6599178
896 5.092
