Image.
>Pix99999.
  .
5555
5555
2300
900
5555
2
1
0
701
5555
-1.8409001e-002
-1.8792450e-002
-1.9175902e-002
-1.9558359e-002
-1.9941805e-002
-2.0324264e-002
-2.0707708e-002
-2.1090170e-002
-2.1473611e-002
-2.1856075e-002
-2.2239514e-002
-2.2622965e-002
-2.3005433e-002
-2.3386905e-002
-2.3771299e-002
-2.4159664e-002
-2.4537358e-002
-2.4898233e-002
-2.5302559e-002
-2.5766350e-002
-2.6071399e-002
-2.6152750e-002
-2.6825251e-002
-2.8330596e-002
-2.7640296e-002
-2.0423321e-002
-7.4868859e-004
3.0823400e-002
4.5811038e-002
1.7961398e-002
-3.8227100e-002
-9.6352622e-002
-1.2908553e-001
-1.1784747e-001
-8.0008678e-002
-4.0899400e-002
-1.5995057e-002
-1.3375749e-002
-2.3396391e-002
-3.1980712e-002
-2.8151687e-002
-4.4230684e-003
3.6564000e-002
8.7416857e-002
1.3376354e-001
1.6251378e-001
1.7410934e-001
1.7311153e-001
1.6360120e-001
1.4876470e-001
1.2887786e-001
1.0517857e-001
8.6428329e-002
8.2259715e-002
9.5973447e-002
1.2746415e-001
1.7107280e-001
2.1969593e-001
2.6735517e-001
3.0944866e-001
3.4546286e-001
3.7550318e-001
3.9685544e-001
4.0484980e-001
3.9070481e-001
3.4804478e-001
2.8596392e-001
2.2083588e-001
1.7774342e-001
1.7756601e-001
2.1242300e-001
2.6176265e-001
2.9335675e-001
2.8004321e-001
2.3080546e-001
1.6891535e-001
1.2473783e-001
1.2382900e-001
1.6327052e-001
2.2839700e-001
2.9770571e-001
3.5075858e-001
3.8049713e-001
3.8720334e-001
3.8151121e-001
3.7527555e-001
3.7053022e-001
3.6366484e-001
3.4308982e-001
2.9851127e-001
2.3657143e-001
1.7170170e-001
1.2409349e-001
1.1146699e-001
1.3325158e-001
1.8000428e-001
2.3441109e-001
2.8018436e-001
3.1653321e-001
3.4840915e-001
3.7952429e-001
4.0967566e-001
4.2538056e-001
4.1184065e-001
3.7024269e-001
3.1026551e-001
2.5000814e-001
2.0695110e-001
1.8341520e-001
1.7613678e-001
1.8424687e-001
2.0812213e-001
2.4802680e-001
3.0086756e-001
3.4990448e-001
3.7557086e-001
3.6979440e-001
3.3319488e-001
2.8183833e-001
2.3607931e-001
2.0827486e-001
2.0541170e-001
2.2712554e-001
2.6831421e-001
3.1613731e-001
3.5540572e-001
3.7414861e-001
3.6561832e-001
3.3868289e-001
3.0833888e-001
2.8738701e-001
2.8473535e-001
2.9828611e-001
3.2084620e-001
3.4369990e-001
3.5971743e-001
3.7030932e-001
3.8049826e-001
3.9461103e-001
4.1452220e-001
4.3411201e-001
4.4410104e-001
4.3720827e-001
4.1008255e-001
3.7142995e-001
3.3463228e-001
3.0957487e-001
3.0164361e-001
3.0518600e-001
3.1187999e-001
3.2336429e-001
3.4481874e-001
3.7522498e-001
4.0830627e-001
4.2907059e-001
4.2246830e-001
3.8994747e-001
3.4193185e-001
2.9221156e-001
2.5359809e-001
2.3022486e-001
2.2182460e-001
2.2781003e-001
2.4765798e-001
2.8057274e-001
3.2389727e-001
3.6756203e-001
3.9863792e-001
4.0759441e-001
3.8968399e-001
3.5222015e-001
3.0895683e-001
2.7586788e-001
2.6565140e-001
2.7399269e-001
2.8678250e-001
2.8565583e-001
2.5601524e-001
2.0627108e-001
1.5629840e-001
1.2333714e-001
1.1802684e-001
1.3270999e-001
1.5157206e-001
1.6453485e-001
1.6791500e-001
1.6917206e-001
1.7894791e-001
1.9721068e-001
2.1704100e-001
2.2869128e-001
2.2355317e-001
2.0244475e-001
1.7115055e-001
1.3432914e-001
9.4694264e-002
5.1226839e-002
2.2006612e-003
-4.8537351e-002
-9.3722351e-002
-1.2556715e-001
-1.3907722e-001
-1.4152363e-001
-1.4587131e-001
-1.5938230e-001
-1.8373714e-001
-2.1312551e-001
-2.3853959e-001
-2.5430790e-001
-2.5732455e-001
-2.4566600e-001
-2.1966821e-001
-1.8767674e-001
-1.6417357e-001
-1.7012617e-001
-2.2355515e-001
-3.1433252e-001
-4.1455841e-001
-4.9375296e-001
-5.2798539e-001
-5.2172488e-001
-4.9626887e-001
-4.7110528e-001
-4.6062675e-001
-4.6934921e-001
-4.9486035e-001
-5.2969366e-001
-5.6389153e-001
-5.8768815e-001
-5.9306455e-001
-5.7818443e-001
-5.4532832e-001
-4.9790776e-001
-4.4054466e-001
-3.8187194e-001
-3.3259708e-001
-3.0145222e-001
-2.9422924e-001
-3.1034541e-001
-3.4403819e-001
-3.8402313e-001
-4.1674277e-001
-4.3281263e-001
-4.2721114e-001
-4.0061504e-001
-3.5766450e-001
-3.0559665e-001
-2.5192964e-001
-1.9946411e-001
-1.4793593e-001
-9.8196998e-002
-5.4440368e-002
-3.0925199e-002
-4.3833252e-002
-8.7540172e-002
-1.4069979e-001
-1.8214628e-001
-1.9523035e-001
-1.7432083e-001
-1.2255090e-001
-4.9311027e-002
3.1700172e-002
1.0282142e-001
1.4630799e-001
1.5485291e-001
1.3223322e-001
9.7818539e-002
7.0921727e-002
2.3950392e-002
-9.1014884e-002
-2.5386414e-001
-3.9944115e-001
-5.0402617e-001
-5.8300501e-001
-6.5887642e-001
-7.5191033e-001
-8.7172735e-001
-1.0135108e+000
-1.1418285e+000
-1.2056030e+000
-1.1814801e+000
-1.0771316e+000
-9.3507212e-001
-8.1229109e-001
-7.2659516e-001
-6.5640986e-001
-5.5043393e-001
-3.3538172e-001
8.1067950e-002
7.7755940e-001
1.7121415e+000
2.7501316e+000
3.7696760e+000
4.6989408e+000
5.5871139e+000
6.5829911e+000
7.8726501e+000
9.6611605e+000
1.2170606e+001
1.5546953e+001
1.9524000e+001
2.3537819e+001
2.7179043e+001
3.0298342e+001
3.3135395e+001
3.6189056e+001
3.9829285e+001
4.4162712e+001
4.8770519e+001
5.2940384e+001
5.6505985e+001
5.9836082e+001
6.3364521e+001
6.7408875e+001
7.1880470e+001
7.6379501e+001
8.0629272e+001
8.4532310e+001
8.8064514e+001
9.1237114e+001
9.4062515e+001
9.6530907e+001
9.8554680e+001
9.9971970e+001
1.0058205e+002
1.0022482e+002
9.9015129e+001
9.7271782e+001
9.5115646e+001
9.2445091e+001
8.9146568e+001
8.5183304e+001
8.0752808e+001
7.6217995e+001
7.1755699e+001
6.7330025e+001
6.2873161e+001
5.8350758e+001
5.3835129e+001
4.9486980e+001
4.5434887e+001
4.1753616e+001
3.8496723e+001
3.5697769e+001
3.3331367e+001
3.1318193e+001
2.9590857e+001
2.8109632e+001
2.6856737e+001
2.5830694e+001
2.5020500e+001
2.4400761e+001
2.3940613e+001
2.3611158e+001
2.3403822e+001
2.3329521e+001
2.3398273e+001
2.3618490e+001
2.4016285e+001
2.4629562e+001
2.5471315e+001
2.6519960e+001
2.7709778e+001
2.8941195e+001
3.0150639e+001
3.1323271e+001
3.2456059e+001
3.3580788e+001
3.4900391e+001
3.6732719e+001
3.9110657e+001
4.1722099e+001
4.4165131e+001
4.6080940e+001
4.7425945e+001
4.8467503e+001
4.9366859e+001
5.0089626e+001
5.0536060e+001
5.0594913e+001
5.0244286e+001
4.9567493e+001
4.8681522e+001
4.7700424e+001
4.6656139e+001
4.5492149e+001
4.4152573e+001
4.2613873e+001
4.0907520e+001
3.9118732e+001
3.7339886e+001
3.5634552e+001
3.3927998e+001
3.1999842e+001
2.9672674e+001
2.6897093e+001
2.3854006e+001
2.0935032e+001
1.8376869e+001
1.6164940e+001
1.4193143e+001
1.2319806e+001
1.0463407e+001
8.6275692e+000
6.8295131e+000
5.0893192e+000
3.4732242e+000
2.0963724e+000
1.0436573e+000
3.5235006e-001
6.9522738e-002
2.4373239e-001
7.9908574e-001
1.5152740e+000
2.2223406e+000
2.8615773e+000
3.4318624e+000
3.9716420e+000
4.5049934e+000
5.0212517e+000
5.4770398e+000
5.8019829e+000
5.9537687e+000
5.9380112e+000
5.7870650e+000
5.5534854e+000
5.2852831e+000
5.0139160e+000
4.7424006e+000
4.4395165e+000
4.0641270e+000
3.5807996e+000
3.0052862e+000
2.4192247e+000
1.9046339e+000
1.5198771e+000
1.2933240e+000
1.2180219e+000
1.2751191e+000
1.4390031e+000
1.6784629e+000
1.9590020e+000
2.2608473e+000
2.5859301e+000
2.9413130e+000
3.3332164e+000
3.7595360e+000
4.2055936e+000
4.6500521e+000
5.0661387e+000
5.4284997e+000
5.7168303e+000
5.9184175e+000
6.0295372e+000
6.0445256e+000
5.9537497e+000
5.7568922e+000
5.4695268e+000
5.1151543e+000
4.7229919e+000
4.3159456e+000
3.9063363e+000
3.5060780e+000
3.1274402e+000
2.7677703e+000
2.4016857e+000
2.0013194e+000
1.5489333e+000
1.0638959e+000
6.1685526e-001
2.7313456e-001
6.6906177e-002
-2.7377349e-003
2.0572361e-002
9.3923494e-002
1.9241679e-001
3.0475560e-001
4.3326980e-001
5.7303894e-001
7.0287579e-001
7.9994285e-001
8.4780788e-001
8.5015523e-001
8.3988500e-001
8.4810716e-001
8.9126837e-001
9.7747409e-001
1.1060207e+000
1.2714435e+000
1.4624283e+000
1.6595000e+000
1.8331554e+000
1.9607291e+000
2.0372608e+000
2.0712907e+000
2.0865464e+000
2.1035903e+000
2.1308010e+000
2.1710246e+000
2.2223117e+000
2.2839427e+000
2.3587770e+000
2.4491949e+000
2.5545926e+000
2.6712639e+000
2.7918892e+000
2.9091678e+000
3.0184608e+000
3.1206222e+000
3.2253327e+000
3.3448484e+000
3.4918640e+000
3.6741629e+000
3.8902807e+000
4.1371179e+000
4.4125342e+000
4.7177372e+000
5.0600572e+000
5.4472480e+000
5.8856368e+000
6.3784857e+000
6.9238300e+000
7.5152826e+000
8.1397314e+000
8.7781820e+000
9.4041748e+000
9.9923906e+000
1.0524369e+001
1.0990217e+001
1.1389989e+001
1.1721571e+001
1.1966559e+001
1.2103120e+001
1.2104325e+001
1.1955766e+001
1.1674550e+001
1.1281823e+001
1.0799025e+001
1.0245050e+001
9.6359625e+000
8.9915514e+000
8.3378839e+000
7.6962061e+000
7.0735464e+000
6.4693213e+000
5.8735843e+000
5.2777300e+000
4.6797137e+000
4.0808487e+000
3.4853854e+000
2.8996072e+000
2.3328438e+000
1.7973955e+000
1.3100357e+000
8.8480413e-001
5.2672166e-001
2.3603158e-001
7.4701458e-003
-1.6109070e-001
-2.6279098e-001
-2.9358801e-001
-2.6141250e-001
-1.8569559e-001
-1.0401057e-001
-5.0613467e-002
-4.1327626e-002
-7.5592592e-002
-1.2639920e-001
-1.6428989e-001
-1.6975643e-001
-1.3698912e-001
-8.5667476e-002
-3.9593142e-002
-1.7161351e-002
-2.6732679e-002
-5.6026716e-002
-8.4045365e-002
-8.2152829e-002
-3.0280568e-002
6.7805737e-002
2.0694715e-001
3.9134991e-001
6.2122732e-001
8.8244033e-001
1.1618211e+000
1.4567164e+000
1.7665260e+000
2.0887876e+000
2.4176641e+000
2.7396655e+000
3.0421987e+000
3.3202078e+000
3.5806794e+000
3.8545952e+000
4.1686759e+000
4.5231752e+000
4.9011407e+000
5.2596674e+000
5.5633883e+000
5.8128338e+000
6.0258427e+000
6.2418165e+000
6.4973640e+000
6.8076382e+000
7.1730499e+000
7.5694351e+000
7.9664168e+000
8.3335400e+000
8.6468296e+000
8.8997393e+000
9.0929518e+000
9.2345343e+000
9.3326206e+000
9.3909683e+000
9.4138641e+000
9.4106417e+000
9.3911448e+000
9.3642178e+000
9.3286848e+000
9.2584753e+000
9.1263828e+000
8.9202900e+000
8.6430893e+000
8.3286009e+000
8.0076389e+000
7.6811390e+000
7.3418059e+000
6.9804378e+000
6.5987620e+000
6.2298665e+000
5.9024701e+000
5.6106405e+000
5.3369970e+000
5.0559168e+000
4.7501984e+000
4.4327035e+000
4.1176176e+000
3.8017280e+000
3.4818025e+000
3.1678362e+000
2.8748543e+000
2.6222527e+000
2.4169571e+000
2.2254128e+000
2.0100319e+000
1.7520243e+000
1.4485682e+000
1.1311228e+000
8.3305597e-001
5.6652492e-001
3.3323073e-001
1.1864033e-001
-9.2365444e-002
-3.0360723e-001
-5.1189983e-001
-7.0037240e-001
-8.4807748e-001
-9.3207622e-001
-9.3323404e-001
-8.4680659e-001
-6.7760515e-001
-4.5017916e-001
-1.9301535e-001
6.8591595e-002
3.1075612e-001
5.1192898e-001
6.5217614e-001
7.1542835e-001
6.9241601e-001
5.9412694e-001
4.4038069e-001
2.6432440e-001
1.0283446e-001
-6.1781816e-003
-3.9625928e-002
-2.7454708e-002
-7.1463208e-003
4.0415130e-003
4.6060450e-004
6.5321103e-005
2.3073427e-002
7.6455541e-002
1.5733707e-001
2.3899841e-001
2.9830474e-001
3.4720799e-001
4.0592360e-001
4.9262434e-001
6.1323982e-001
7.2957850e-001
7.9910642e-001
8.0504775e-001
7.4959695e-001
6.8337518e-001
6.6258156e-001
7.1815330e-001
8.6148095e-001
1.0521311e+000
1.2457383e+000
1.4338620e+000
1.6170000e+000
