Image.
>Pix99999.
  .
5555
5555
2300
900
5555
2
1
0
701
5555
-4.4557001e-002
-4.5483675e-002
-4.6410348e-002
-4.7337022e-002
-4.8264690e-002
-4.9191374e-002
-5.0118048e-002
-5.1044721e-002
-5.1972382e-002
-5.2899066e-002
-5.3825743e-002
-5.4753400e-002
-5.5680092e-002
-5.6606766e-002
-5.7533439e-002
-5.8461092e-002
-5.9387788e-002
-6.0314462e-002
-6.1241135e-002
-6.2168784e-002
-6.3095480e-002
-6.4022154e-002
-6.4948834e-002
-6.5876476e-002
-6.6803187e-002
-6.7729861e-002
-2.5169114e-003
3.0694567e-002
5.4208562e-002
6.1750887e-003
-5.2305229e-002
-1.0771918e-001
-1.6048948e-001
-1.5938395e-001
-1.5878186e-001
-1.8246250e-001
-2.0880920e-001
-2.4142571e-001
-2.5556833e-001
-2.1227629e-001
-1.4571656e-001
-3.5404909e-002
7.0230022e-002
1.6399670e-001
2.1489966e-001
2.1327014e-001
1.9801077e-001
1.7281765e-001
2.0055972e-001
2.6833221e-001
3.4905073e-001
4.3571758e-001
4.7609925e-001
4.9603096e-001
5.1316547e-001
5.2983105e-001
5.8131683e-001
6.4082181e-001
7.0858014e-001
7.7707797e-001
8.1101084e-001
8.3869880e-001
8.3163851e-001
8.2070994e-001
8.0664563e-001
7.8818500e-001
7.5493830e-001
7.1754134e-001
6.7326534e-001
6.5155554e-001
6.7392403e-001
7.1422517e-001
7.7393138e-001
8.1668288e-001
8.3809030e-001
8.4420037e-001
8.3879763e-001
8.1704932e-001
7.8483391e-001
7.2989643e-001
6.6313368e-001
6.0183418e-001
5.4318285e-001
5.5452269e-001
5.8808678e-001
6.9020283e-001
8.0794334e-001
8.4777808e-001
8.6908180e-001
7.7676791e-001
6.6740656e-001
5.5133730e-001
4.4333658e-001
3.7500820e-001
3.3794829e-001
3.7785381e-001
4.5885316e-001
6.0570920e-001
7.3272121e-001
8.1018323e-001
8.1566286e-001
7.3667347e-001
6.5200192e-001
5.7419968e-001
5.6408048e-001
6.0868549e-001
6.7531753e-001
7.5136191e-001
7.7837902e-001
7.7914906e-001
7.3960400e-001
6.8470037e-001
6.6590202e-001
6.5939271e-001
7.3245323e-001
8.2383436e-001
8.5019112e-001
8.5010469e-001
7.0382410e-001
5.3502750e-001
4.0080085e-001
3.1634837e-001
3.8773230e-001
5.0884300e-001
6.8062824e-001
7.9984289e-001
7.9848784e-001
6.9296283e-001
4.6347967e-001
2.4088861e-001
5.3058095e-002
-4.0423676e-002
-4.8314676e-002
-2.3936849e-002
1.5046014e-002
5.3253558e-002
9.0191297e-002
1.7540690e-001
2.8631914e-001
3.9852178e-001
5.0909001e-001
5.0478721e-001
4.6059254e-001
3.4053120e-001
2.0133331e-001
7.7465735e-002
-3.8674042e-002
-1.2427080e-001
-1.9229719e-001
-2.1245500e-001
-2.2458643e-001
-2.4552347e-001
-2.9211670e-001
-3.9667344e-001
-5.0052619e-001
-5.8522511e-001
-6.2048578e-001
-5.9305513e-001
-5.3671956e-001
-4.6111640e-001
-3.8888916e-001
-3.2204461e-001
-2.2546060e-001
-1.0407827e-001
-9.2842989e-003
6.5491714e-002
-3.5011563e-002
-2.2808899e-001
-4.3429521e-001
-6.4165735e-001
-6.4566672e-001
-5.7455683e-001
-4.1947222e-001
-2.5151682e-001
-1.8674885e-001
-1.8044500e-001
-3.1515652e-001
-4.8529664e-001
-6.4475936e-001
-7.5913602e-001
-7.6890200e-001
-7.3756897e-001
-6.7927343e-001
-6.2526041e-001
-5.8326346e-001
-5.0610244e-001
-3.7418205e-001
-1.6738632e-001
1.0084938e-001
3.0866230e-001
4.4128770e-001
4.7185647e-001
4.3791234e-001
3.8014391e-001
3.1713471e-001
1.3673583e-001
-1.0878044e-001
-3.4569940e-001
-5.7715470e-001
-5.1146495e-001
-3.2209000e-001
-3.4281079e-002
2.5605908e-001
2.9499471e-001
1.9221315e-001
-1.1737636e-001
-4.8686141e-001
-8.0643922e-001
-1.0652618e+000
-1.2189672e+000
-1.2961100e+000
-1.2870256e+000
-1.1463983e+000
-8.4371364e-001
-4.8151007e-001
-1.2222711e-001
6.2994342e-003
-1.2065397e-001
-4.0213960e-001
-7.5785261e-001
-1.0628248e+000
-1.3095281e+000
-1.4817631e+000
-1.6057643e+000
-1.6064960e+000
-1.5328715e+000
-1.3734832e+000
-1.1720488e+000
-1.0654452e+000
-1.0147054e+000
-1.0178939e+000
-1.0337340e+000
-9.4834048e-001
-7.7067131e-001
-4.3555737e-001
-6.3530989e-002
1.9652912e-001
2.7461949e-001
6.6255838e-002
-2.9923415e-001
-7.2830117e-001
-1.1093562e+000
-1.3808141e+000
-1.5036399e+000
-1.4933332e+000
-1.3343600e+000
-1.0628568e+000
-7.7847624e-001
-5.0355858e-001
-3.4335080e-001
-2.7162930e-001
-2.1133558e-001
-1.5607761e-001
-5.2357472e-002
7.2596252e-002
1.7536514e-001
2.6006973e-001
3.5601455e-001
4.6828455e-001
6.7337161e-001
9.4276971e-001
1.2782445e+000
1.5757443e+000
1.6135032e+000
1.4418092e+000
1.0476010e+000
6.1969197e-001
3.4689328e-001
1.0289286e-001
-1.9130859e-001
-4.1166785e-001
-4.9869788e-001
-3.0959627e-001
1.6881309e-001
7.3167932e-001
1.2836821e+000
1.4596652e+000
1.2653251e+000
9.4459081e-001
5.8663297e-001
6.1284602e-001
9.4886303e-001
1.2823157e+000
1.5659962e+000
1.3086519e+000
6.9226807e-001
1.6784295e-001
-1.9112253e-001
1.2389240e-001
1.0699503e+000
2.5857744e+000
4.2493935e+000
5.4311891e+000
6.2229652e+000
6.7449379e+000
7.3799257e+000
8.5115814e+000
1.0428900e+001
1.3251991e+001
1.6819645e+001
2.0877571e+001
2.4573130e+001
2.7601646e+001
3.0342211e+001
3.3012760e+001
3.6521816e+001
4.0896873e+001
4.5734810e+001
5.0835480e+001
5.4931702e+001
5.8146244e+001
6.1398640e+001
6.4782974e+001
6.8810707e+001
7.3321358e+001
7.7780098e+001
8.2149155e+001
8.6330589e+001
9.0292732e+001
9.3974884e+001
9.7346001e+001
1.0037491e+002
1.0289500e+002
1.0471632e+002
1.0527183e+002
1.0408786e+002
1.0167003e+002
9.8589066e+001
9.5132431e+001
9.1550934e+001
8.7441299e+001
8.2687332e+001
7.7841820e+001
7.3097031e+001
6.8717499e+001
6.4726265e+001
6.0562721e+001
5.6167027e+001
5.1752609e+001
4.7352562e+001
4.3191429e+001
3.9290424e+001
3.5808159e+001
3.2761810e+001
3.0180513e+001
2.8036634e+001
2.6158365e+001
2.4558487e+001
2.3212635e+001
2.2139111e+001
2.1327999e+001
2.0764181e+001
2.0386793e+001
2.0166695e+001
2.0051882e+001
2.0054470e+001
2.0177999e+001
2.0454670e+001
2.0898195e+001
2.1599840e+001
2.2582285e+001
2.3835119e+001
2.5327669e+001
2.6820072e+001
2.8251200e+001
2.9558891e+001
3.0744074e+001
3.2174423e+001
3.3956070e+001
3.6596676e+001
4.0092346e+001
4.3390648e+001
4.6290520e+001
4.8309471e+001
4.9540462e+001
5.0716713e+001
5.1856712e+001
5.3002254e+001
5.3885620e+001
5.4019581e+001
5.3366829e+001
5.2019135e+001
5.0341778e+001
4.8825867e+001
4.7486938e+001
4.6328503e+001
4.5127251e+001
4.3724751e+001
4.2009178e+001
3.9869026e+001
3.7720970e+001
3.5706989e+001
3.3809639e+001
3.2083920e+001
2.9842859e+001
2.6908821e+001
2.3739161e+001
2.0346138e+001
1.7566706e+001
1.5496810e+001
1.3624001e+001
1.1953118e+001
1.0263455e+001
8.5519590e+000
6.7944007e+000
5.0212107e+000
3.3115001e+000
1.7906969e+000
6.7485100e-001
5.3791367e-002
2.1188289e-002
5.8560103e-001
1.5932034e+000
2.6136320e+000
3.3139696e+000
3.7270565e+000
3.8700247e+000
4.0843663e+000
4.5539303e+000
5.2051597e+000
6.0581198e+000
6.6614861e+000
6.8082929e+000
6.6861567e+000
6.1891770e+000
5.6983395e+000
5.2339001e+000
4.8634348e+000
4.6310849e+000
4.4838305e+000
4.4188457e+000
4.2599502e+000
3.9819913e+000
3.5757058e+000
3.0877521e+000
2.7107015e+000
2.4882224e+000
2.4773915e+000
2.6568601e+000
2.9582369e+000
3.3088114e+000
3.6205640e+000
3.8683245e+000
4.0538116e+000
4.2143955e+000
4.3766136e+000
4.5597181e+000
4.7641768e+000
4.9945679e+000
5.2576013e+000
5.5010929e+000
5.6891108e+000
5.7863808e+000
5.7027435e+000
5.5408111e+000
5.2569098e+000
4.9518685e+000
4.6227751e+000
4.2994275e+000
3.9830675e+000
3.6451430e+000
3.3029704e+000
2.9662180e+000
2.6564517e+000
2.4200189e+000
2.2183595e+000
2.0046947e+000
1.7526219e+000
1.4048823e+000
1.0213090e+000
6.5465581e-001
3.3678573e-001
1.4168566e-001
2.5581684e-002
-4.2771287e-003
-9.7523592e-003
6.9699839e-002
1.9451636e-001
4.0203771e-001
5.8337033e-001
6.9191629e-001
7.3498571e-001
6.3217664e-001
5.4095328e-001
4.7737622e-001
4.9012321e-001
6.3335121e-001
8.4764177e-001
1.1591017e+000
1.4909167e+000
1.8350000e+000
2.1369107e+000
2.3734200e+000
2.5324547e+000
2.6148257e+000
2.6521556e+000
2.6634727e+000
2.6754851e+000
2.6796107e+000
2.6506202e+000
2.6031857e+000
2.5245483e+000
2.4603703e+000
2.4493089e+000
2.4552200e+000
2.4828522e+000
2.4990416e+000
2.4794471e+000
2.4846263e+000
2.5463641e+000
2.6497314e+000
2.8350499e+000
3.0224445e+000
3.2162113e+000
3.4031734e+000
3.5837171e+000
3.7887578e+000
4.0220480e+000
4.2783022e+000
4.5605955e+000
4.8621597e+000
5.1919675e+000
5.5727692e+000
5.9962316e+000
6.4601951e+000
6.9386249e+000
7.3926120e+000
7.8172951e+000
8.1707439e+000
8.4817171e+000
8.7188063e+000
8.9166031e+000
9.0330439e+000
9.0951834e+000
9.0076094e+000
8.8529310e+000
8.5159616e+000
8.1281176e+000
7.6181555e+000
7.0798569e+000
6.4854627e+000
5.8842206e+000
5.2764740e+000
4.6889515e+000
4.1299381e+000
3.5814943e+000
3.0392399e+000
2.4771848e+000
1.9047405e+000
1.3635055e+000
8.7218285e-001
4.9813491e-001
2.1921620e-001
6.0792655e-002
-3.3987187e-002
-8.4840581e-002
-1.3145205e-001
-2.1963495e-001
-3.1979188e-001
-4.2846155e-001
-5.1283401e-001
-4.9250814e-001
-4.4333613e-001
-3.0825394e-001
-1.7321962e-001
-4.0728979e-002
8.9661725e-002
2.1439281e-001
3.3435458e-001
4.4121015e-001
5.1734370e-001
5.4009420e-001
5.2642012e-001
4.6217829e-001
3.6918601e-001
2.4693462e-001
1.2662791e-001
2.1479730e-002
-6.7959679e-003
3.4078114e-002
1.7020057e-001
3.7231171e-001
6.3890672e-001
9.2864347e-001
1.2115823e+000
1.4839021e+000
1.7121751e+000
1.9340832e+000
2.1629839e+000
2.4024506e+000
2.6944430e+000
2.9863858e+000
3.2726822e+000
3.5313833e+000
3.7044179e+000
3.8839202e+000
4.0875492e+000
4.3687539e+000
4.7996283e+000
5.2485385e+000
5.7184997e+000
6.1401515e+000
6.5049438e+000
6.8806715e+000
7.2702985e+000
7.6855173e+000
8.1235437e+000
8.5832348e+000
9.0461378e+000
9.4375267e+000
9.7526102e+000
9.7507868e+000
9.6114311e+000
9.2282753e+000
8.8069973e+000
8.5018005e+000
8.2466278e+000
8.2506828e+000
8.2901068e+000
8.4737654e+000
8.6334887e+000
8.6853580e+000
8.6860275e+000
8.5270767e+000
8.3820181e+000
8.2750998e+000
8.2224836e+000
8.2683983e+000
8.3120041e+000
8.3415623e+000
8.2671795e+000
8.0632715e+000
7.7284856e+000
7.2782383e+000
6.8189907e+000
6.3589892e+000
5.9507651e+000
5.5686622e+000
5.1807690e+000
4.7877131e+000
4.3666286e+000
3.9369266e+000
3.4927545e+000
3.0513175e+000
2.6668921e+000
2.3009436e+000
2.0955195e+000
1.9201083e+000
1.9392686e+000
1.9696286e+000
2.0451715e+000
2.0472360e+000
1.8151509e+000
1.4660904e+000
8.4865028e-001
2.0580214e-001
-4.7076720e-001
-9.9482471e-001
-1.2997160e+000
-1.3413872e+000
-1.1067846e+000
-7.6969182e-001
-3.5842660e-001
-7.3628306e-002
1.3118428e-001
2.5994852e-001
3.5478371e-001
4.5358250e-001
5.4932851e-001
5.6376433e-001
5.5949759e-001
5.3322488e-001
5.0293636e-001
4.4271585e-001
3.7206572e-001
1.7179075e-001
2.6955018e-003
3.4118891e-003
1.1900806e-001
6.0098720e-001
1.0847030e+000
1.5716842e+000
1.9669583e+000
2.1659384e+000
2.3093593e+000
2.3668449e+000
2.5395639e+000
2.8533194e+000
3.2208624e+000
3.6347528e+000
3.8393128e+000
3.8963566e+000
3.9707692e+000
4.0577459e+000
4.3726692e+000
4.7767634e+000
5.1770940e+000
5.5780029e+000
5.9747348e+000
6.3715253e+000
6.8785000e+000
