Image.
>Pix99999.
  .
5555
5555
2300
900
5555
2
1
0
701
5555
2.2221001e-002
2.2683339e-002
2.3145678e-002
2.3608016e-002
2.4070354e-002
2.4532693e-002
2.4995031e-002
2.5456380e-002
2.5919696e-002
2.6382048e-002
2.6843401e-002
2.7302772e-002
2.7768010e-002
2.8243160e-002
2.8693000e-002
2.9107127e-002
2.9616296e-002
3.0260263e-002
3.0546851e-002
3.0333161e-002
3.1447057e-002
3.4425892e-002
3.2472346e-002
2.3563413e-002
3.2985810e-002
7.6518461e-002
1.0117073e-001
5.2479129e-002
-5.2292399e-002
-1.6983502e-001
-2.3404413e-001
-1.9457211e-001
-9.0230867e-002
2.0590741e-002
1.0400894e-001
1.4483149e-001
1.7340589e-001
2.2759639e-001
3.2202843e-001
4.5668492e-001
6.0079855e-001
7.1832281e-001
7.8849483e-001
8.0337113e-001
7.8790492e-001
7.7066958e-001
7.5486368e-001
7.3581654e-001
7.0929694e-001
6.7875880e-001
6.7791855e-001
7.3967499e-001
8.5529101e-001
9.9757290e-001
1.1184123e+000
1.1755143e+000
1.1773920e+000
1.1486324e+000
1.1143669e+000
1.0940099e+000
1.0853599e+000
1.0813224e+000
1.0844635e+000
1.0984499e+000
1.1191525e+000
1.1417829e+000
1.1698940e+000
1.2123885e+000
1.2889189e+000
1.4127139e+000
1.5571600e+000
1.6820546e+000
1.7487772e+000
1.7336820e+000
1.6732502e+000
1.6214893e+000
1.6222509e+000
1.7016760e+000
1.8321569e+000
1.9680401e+000
2.0670114e+000
2.0981386e+000
2.0687523e+000
2.0012133e+000
1.9240600e+000
1.8597014e+000
1.7993838e+000
1.7251830e+000
1.6284463e+000
1.5122919e+000
1.4116257e+000
1.3671581e+000
1.3958400e+000
1.4954185e+000
1.6245205e+000
1.7305436e+000
1.7746863e+000
1.7342750e+000
1.6287020e+000
1.4955050e+000
1.3812286e+000
1.3281764e+000
1.3501769e+000
1.4436971e+000
1.5792217e+000
1.7180101e+000
1.8227237e+000
1.8612505e+000
1.8192394e+000
1.6960616e+000
1.5212471e+000
1.3372723e+000
1.1928359e+000
1.1288037e+000
1.1469026e+000
1.2279664e+000
1.3347549e+000
1.4279571e+000
1.4876478e+000
1.5060791e+000
1.4920086e+000
1.4609081e+000
1.4309065e+000
1.4164032e+000
1.4132479e+000
1.4078250e+000
1.3793119e+000
1.3104336e+000
1.2098829e+000
1.0999557e+000
1.0119143e+000
9.7414643e-001
9.8791438e-001
1.0373379e+000
1.0853368e+000
1.0935543e+000
1.0560954e+000
9.8747832e-001
9.2540878e-001
9.0905768e-001
9.4278800e-001
1.0111554e+000
1.0836740e+000
1.1270252e+000
1.1207383e+000
1.0557536e+000
9.4466525e-001
8.1349140e-001
7.0404923e-001
6.5784496e-001
6.8618071e-001
7.7836591e-001
8.9245158e-001
9.7765529e-001
1.0046960e+000
9.6286327e-001
8.7258893e-001
7.6691419e-001
6.7153245e-001
6.0436541e-001
5.6946170e-001
5.6198192e-001
5.6680244e-001
5.6439388e-001
5.3614497e-001
4.6927223e-001
3.7270200e-001
2.6701751e-001
1.7655480e-001
1.2176533e-001
1.0150853e-001
1.0358059e-001
1.1562160e-001
1.2769797e-001
1.3723771e-001
1.4378500e-001
1.4004239e-001
1.1789553e-001
8.2184546e-002
4.5107745e-002
2.0125428e-002
1.7797412e-002
3.5638660e-002
6.6103011e-002
1.0970397e-001
1.6844851e-001
2.2979066e-001
2.7306372e-001
2.7797359e-001
2.3508750e-001
1.7840785e-001
1.5860169e-001
1.9612229e-001
2.8536206e-001
3.8802418e-001
4.5716530e-001
4.8008880e-001
4.6847826e-001
4.5105451e-001
4.5883480e-001
4.9904856e-001
5.6322396e-001
6.3604999e-001
7.0152944e-001
7.5218678e-001
7.8531808e-001
7.9670513e-001
7.8325999e-001
7.5289279e-001
7.2245079e-001
7.1941203e-001
7.7031577e-001
8.7292725e-001
1.0009331e+000
1.0993034e+000
1.1096958e+000
1.0279316e+000
8.8806653e-001
7.4295044e-001
6.4430904e-001
6.0356569e-001
6.0679376e-001
6.3976687e-001
6.9015187e-001
7.4327278e-001
7.8339607e-001
7.9761225e-001
7.7990270e-001
7.4637198e-001
7.2539169e-001
7.3909575e-001
7.9895353e-001
8.9280587e-001
9.9167627e-001
1.0556880e+000
1.0469550e+000
9.6122777e-001
8.2021493e-001
6.6236138e-001
5.3096515e-001
4.5341542e-001
4.4107354e-001
4.8416913e-001
5.6056690e-001
6.4893794e-001
7.3099601e-001
7.9308772e-001
8.2724255e-001
8.3839822e-001
8.4013683e-001
8.4744644e-001
8.6908931e-001
8.8581079e-001
8.6716038e-001
8.1842780e-001
7.6950085e-001
7.4000418e-001
7.3809838e-001
7.6729226e-001
8.2821363e-001
9.1715997e-001
1.0182778e+000
1.0731188e+000
1.0070618e+000
8.0722153e-001
5.2030259e-001
2.4728319e-001
9.5659167e-002
5.3638741e-002
3.2435250e-002
3.7985444e-003
-6.8155695e-003
1.5554654e-002
6.6461086e-002
1.2228987e-001
1.4963429e-001
1.2524126e-001
4.2826772e-002
-6.7779884e-002
-1.5924348e-001
-2.2197400e-001
-2.7891931e-001
-3.5582390e-001
-4.6636447e-001
-5.7938683e-001
-6.3198489e-001
-5.7044399e-001
-3.6301631e-001
-2.4688572e-002
3.9347255e-001
8.3191985e-001
1.2367229e+000
1.5877182e+000
1.9086152e+000
2.3045840e+000
2.9393065e+000
3.9685764e+000
5.5307064e+000
7.7538157e+000
1.0693932e+001
1.4095000e+001
1.7481581e+001
2.0533779e+001
2.3162798e+001
2.5592726e+001
2.8252649e+001
3.1450493e+001
3.5271858e+001
3.9384480e+001
4.3222794e+001
4.6645870e+001
4.9922409e+001
5.3335411e+001
5.7050426e+001
6.0950012e+001
6.4721703e+001
6.8217422e+001
7.1470520e+001
7.4523315e+001
7.7397545e+001
8.0123970e+001
8.2733765e+001
8.5209244e+001
8.7465309e+001
8.9308350e+001
9.0505501e+001
9.1051598e+001
9.1130844e+001
9.0810188e+001
9.0008911e+001
8.8623886e+001
8.6595428e+001
8.4041756e+001
8.1213951e+001
7.8233101e+001
7.5063721e+001
7.1626160e+001
6.7854164e+001
6.3797031e+001
5.9616455e+001
5.5489914e+001
5.1575886e+001
4.7982868e+001
4.4759090e+001
4.1869923e+001
3.9221237e+001
3.6773075e+001
3.4554008e+001
3.2617908e+001
3.1020473e+001
2.9759499e+001
2.8770746e+001
2.7971579e+001
2.7282795e+001
2.6670774e+001
2.6150343e+001
2.5757217e+001
2.5539650e+001
2.5553308e+001
2.5848701e+001
2.6435057e+001
2.7269619e+001
2.8253410e+001
2.9250023e+001
3.0169121e+001
3.0986629e+001
3.1719477e+001
3.2455627e+001
3.3497120e+001
3.5283318e+001
3.7873230e+001
4.0863079e+001
4.3709034e+001
4.5901756e+001
4.7365021e+001
4.8466213e+001
4.9487801e+001
5.0500889e+001
5.1460541e+001
5.2239025e+001
5.2695629e+001
5.2721729e+001
5.2356136e+001
5.1784966e+001
5.1136028e+001
5.0426399e+001
4.9611736e+001
4.8607597e+001
4.7349205e+001
4.5821377e+001
4.4105698e+001
4.2356651e+001
4.0596478e+001
3.8670895e+001
3.6390347e+001
3.3620049e+001
3.0492811e+001
2.7412758e+001
2.4644934e+001
2.2203749e+001
1.9983429e+001
1.7810150e+001
1.5574669e+001
1.3263807e+001
1.0890309e+001
8.4878483e+000
6.1675858e+000
4.1178932e+000
2.4597564e+000
1.2185707e+000
4.5216414e-001
2.5294286e-001
5.5107546e-001
1.0796123e+000
1.6356542e+000
2.1625292e+000
2.6825652e+000
3.2709944e+000
3.9647052e+000
4.7273383e+000
5.4651399e+000
6.0413818e+000
6.3739786e+000
6.4683695e+000
6.3634348e+000
6.1177821e+000
5.7954006e+000
5.4574356e+000
5.1407175e+000
4.8442187e+000
4.5284543e+000
4.1205235e+000
3.5842040e+000
2.9475946e+000
2.2743120e+000
1.6541121e+000
1.1627750e+000
8.4556293e-001
7.2427493e-001
7.9330981e-001
1.0211201e+000
1.3504109e+000
1.7320499e+000
2.1395555e+000
2.5680325e+000
3.0347700e+000
3.5533051e+000
4.1221790e+000
4.7231798e+000
5.3179765e+000
5.8605785e+000
6.3031640e+000
6.6123924e+000
6.7780237e+000
6.8007650e+000
6.6919699e+000
6.4732065e+000
6.1770053e+000
5.8345823e+000
5.4686651e+000
5.0869856e+000
4.6794224e+000
4.2452340e+000
3.8027301e+000
3.3669958e+000
2.9391193e+000
2.5038660e+000
2.0313087e+000
1.5223428e+000
1.0299327e+000
6.1233526e-001
3.1196079e-001
1.3318817e-001
2.9264545e-002
-3.8385246e-002
-7.3964290e-002
-5.5803064e-002
6.0519725e-002
2.8672695e-001
5.7196105e-001
8.4261602e-001
1.0194306e+000
1.0722251e+000
1.0523820e+000
1.0232451e+000
1.0346750e+000
1.1173854e+000
1.2738873e+000
1.4908634e+000
1.7386711e+000
1.9803300e+000
2.1753242e+000
2.2950904e+000
2.3353965e+000
2.3085313e+000
2.2451386e+000
2.1759937e+000
2.1234200e+000
2.0999207e+000
2.1048915e+000
2.1370571e+000
2.1985233e+000
2.2909439e+000
2.4129658e+000
2.5572839e+000
2.7090020e+000
2.8577399e+000
3.0050814e+000
3.1563919e+000
3.3184588e+000
3.4950757e+000
3.6845059e+000
3.8860252e+000
4.1040049e+000
4.3456144e+000
4.6218643e+000
4.9464569e+000
5.3351436e+000
5.7944679e+000
6.3124900e+000
6.8705883e+000
7.4470468e+000
8.0321188e+000
8.6395636e+000
9.2834139e+000
9.9667749e+000
1.0680717e+001
1.1397988e+001
1.2088206e+001
1.2719731e+001
1.3265172e+001
1.3699603e+001
1.4000640e+001
1.4145340e+001
1.4117346e+001
1.3913565e+001
1.3541434e+001
1.3024491e+001
1.2391843e+001
1.1674050e+001
1.0904885e+001
1.0121283e+001
9.3600054e+000
8.6546345e+000
8.0265493e+000
7.4704385e+000
6.9642420e+000
6.4654741e+000
5.9381084e+000
5.3707361e+000
4.7693000e+000
4.1625886e+000
3.5796587e+000
3.0383739e+000
2.5508156e+000
2.1228309e+000
1.7568475e+000
1.4522760e+000
1.2058158e+000
1.0111756e+000
8.6422402e-001
7.6636714e-001
7.1595877e-001
7.0106494e-001
7.0163238e-001
6.8621927e-001
6.3045233e-001
5.3284299e-001
4.0591258e-001
2.8067178e-001
1.8544528e-001
1.3149388e-001
1.1767640e-001
1.2401447e-001
1.2817200e-001
1.1398554e-001
7.7798203e-002
4.0272042e-002
1.6380521e-002
-4.2896233e-003
-2.5864115e-002
-2.3721660e-002
3.0296035e-002
1.5567268e-001
3.6289406e-001
6.4519536e-001
9.8613203e-001
1.3558868e+000
1.7226360e+000
2.0593700e+000
2.3522358e+000
2.6184192e+000
2.8825080e+000
3.1682487e+000
3.4863229e+000
3.8149149e+000
4.1281333e+000
4.4104595e+000
4.6575708e+000
4.8874040e+000
5.1244287e+000
5.3961420e+000
5.7255383e+000
6.1199169e+000
6.5657358e+000
7.0052719e+000
7.3757958e+000
7.6328068e+000
7.7601056e+000
7.8054399e+000
7.8240705e+000
7.8508878e+000
7.9068322e+000
7.9893889e+000
8.0966263e+000
8.2412786e+000
8.4271278e+000
8.6231127e+000
8.7869864e+000
8.8706017e+000
8.8386230e+000
8.6949406e+000
8.4562483e+000
8.1478329e+000
7.7960048e+000
7.4220285e+000
7.0433407e+000
6.6690087e+000
6.3078313e+000
5.9733829e+000
5.6802702e+000
5.4409094e+000
5.2544436e+000
5.0827112e+000
4.8803935e+000
4.6093025e+000
4.2517343e+000
3.8453200e+000
3.4361849e+000
3.0540183e+000
2.7102284e+000
2.3742595e+000
2.0150075e+000
1.6302843e+000
1.2275016e+000
8.2152927e-001
4.2841208e-001
6.2560469e-002
-2.5988680e-001
-5.1688373e-001
-6.9694072e-001
-8.2636011e-001
-9.3646157e-001
-1.0445132e+000
-1.1548078e+000
-1.2415065e+000
-1.2809440e+000
-1.2799783e+000
-1.2527580e+000
-1.2114543e+000
-1.1569972e+000
-1.0564885e+000
-8.7816334e-001
-6.2253749e-001
-3.1124705e-001
-8.7541044e-003
2.2129035e-001
3.5471624e-001
3.8987327e-001
3.6866629e-001
3.3647886e-001
3.1304193e-001
3.0268961e-001
2.7853498e-001
2.1826829e-001
1.4292397e-001
7.3984332e-002
-3.1038821e-003
-9.6526586e-002
-1.6002640e-001
-1.5974000e-001
-1.5558097e-001
-2.1745306e-001
-3.6590439e-001
-5.9197617e-001
-8.2320809e-001
-9.8638040e-001
-1.0648762e+000
-1.0686549e+000
-1.0548295e+000
-1.0692387e+000
-1.0710335e+000
-1.0024780e+000
-8.2464015e-001
-5.3198791e-001
-2.3077351e-001
-3.6398128e-002
9.0598539e-003
-9.7409233e-002
-2.7674830e-001
-4.2934000e-001
