##TITLE=Methyl Ethyl Ketone
##JCAMP-DX=4.24
##DATA TYPE=INFRARED SPECTRUM
##XUNITS=cm-1
##YUNITS=Absorbance
##FIRSTX=900
##LASTX=2300
##XYDATA=(X++(Y..Y))
2296 -0.042681001
2294 -0.04356873
2292 -0.04445646
2290 -0.045344189
2288 -0.046231918
2286 -0.047120646
2284 -0.048008382
2282 -0.048896112
2280 -0.049783841
2278 -0.05067157
2276 -0.051559299
2274 -0.052448016
2272 -0.05333576
2270 -0.054223489
2268 -0.055111218
2266 -0.055998947
2264 -0.056887656
2262 -0.057775408
2260 -0.058663141
2258 -0.05955087
2256 -0.060438599
2254 -0.061326332
2252 -0.062215026
2250 -0.063102789
2248 -0.063990518
2246 -0.064878255
2244 -0.0024109429
2242 0.015183841
2240 0.025490919
2238 -0.050182022
2236 -0.13863657
2234 -0.30322024
2232 -0.47240236
2230 -0.62201136
2228 -0.75564611
2226 -0.76997596
2224 -0.76571357
2222 -0.70469135
2220 -0.67011034
2218 -0.72565705
2216 -0.81622601
2214 -0.97217619
2212 -1.092611
2210 -1.1485996
2208 -1.1446776
2206 -1.0707464
2204 -1.0018976
2202 -0.94210088
2200 -0.93165588
2198 -0.95759201
2196 -0.98289645
2194 -1.0064871
2192 -0.96030354
2190 -0.88359857
2188 -0.82852477
2186 -0.78112209
2184 -0.85532641
2182 -0.95736504
2180 -1.0765001
2178 -1.1974846
2176 -1.2858714
2174 -1.3657721
2172 -1.3832725
2170 -1.3688301
2168 -1.2055743
2166 -1.0268307
2164 -0.84484375
2162 -0.72539145
2160 -0.76690859
2158 -0.85934752
2156 -1.0171239
2154 -1.1324428
2152 -1.1762559
2150 -1.1477543
2148 -1.0460757
2146 -0.92308033
2144 -0.78803891
2142 -0.69689363
2140 -0.63726461
2138 -0.64952904
2136 -0.69913399
2134 -0.77851075
2132 -0.86861658
2130 -0.92484343
2128 -0.96989238
2126 -0.98652476
2124 -0.99687016
2122 -0.99027985
2120 -0.97808409
2118 -0.90902692
2116 -0.83099329
2114 -0.7455793
2112 -0.6718176
2110 -0.65361053
2108 -0.64101571
2106 -0.62095582
2104 -0.59505898
2102 -0.55904472
2100 -0.55047739
2098 -0.59072071
2096 -0.63703996
2094 -0.68227553
2092 -0.69974196
2090 -0.68862104
2088 -0.68393642
2086 -0.68726701
2084 -0.66988087
2082 -0.63784021
2080 -0.56234425
2078 -0.46537849
2076 -0.41515958
2074 -0.38557598
2072 -0.39958239
2070 -0.42719731
2068 -0.41441068
2066 -0.39223313
2064 -0.36556378
2062 -0.34252724
2060 -0.35497466
2058 -0.38151491
2056 -0.44676572
2054 -0.52464908
2052 -0.6233173
2050 -0.71059066
2048 -0.76131243
2046 -0.79707718
2044 -0.81938958
2042 -0.85088784
2040 -0.89725894
2038 -0.92242563
2036 -0.91514415
2034 -0.8864435
2032 -0.84336829
2030 -0.84029227
2028 -0.87272811
2026 -0.90228033
2024 -0.92767447
2022 -0.8784157
2020 -0.79153967
2018 -0.72610766
2016 -0.67034
2014 -0.7499519
2012 -0.87254852
2010 -1.0726449
2008 -1.2873977
2006 -1.4365329
2004 -1.550424
2002 -1.5416
2000 -1.4914845
1998 -1.4077255
1996 -1.3364786
1994 -1.3348701
1992 -1.3794783
1990 -1.4795922
1988 -1.593008
1986 -1.6930543
1984 -1.7778149
1982 -1.8460336
1980 -1.8749017
1978 -1.868821
1976 -1.7547914
1974 -1.5508059
1972 -1.2681295
1970 -0.94151455
1968 -0.72963953
1966 -0.59530485
1964 -0.66378188
1962 -0.82942486
1960 -1.019328
1958 -1.2132145
1956 -1.2828143
1954 -1.3037028
1952 -1.2500954
1950 -1.1760908
1948 -1.1747569
1946 -1.2199
1944 -1.3823651
1942 -1.587308
1940 -1.774376
1938 -1.928147
1936 -2.0004857
1934 -2.0293081
1932 -2.0333979
1930 -2.0332432
1928 -2.051755
1926 -2.04388
1924 -2.0031607
1922 -1.8539153
1920 -1.5893064
1918 -1.293663
1916 -0.98169774
1914 -0.77123851
1912 -0.64178616
1910 -0.62811083
1908 -0.68313855
1906 -0.85182536
1904 -1.0746108
1902 -1.2434677
1900 -1.3803103
1898 -1.2919196
1896 -1.1090143
1894 -0.87740052
1892 -0.65622807
1890 -0.61404061
1888 -0.67596537
1886 -0.86893409
1884 -1.1091068
1882 -1.3396025
1880 -1.5414377
1878 -1.6952673
1876 -1.79369
1874 -1.8434883
1872 -1.806576
1870 -1.6766424
1868 -1.5000407
1866 -1.2738271
1864 -1.1724949
1862 -1.193368
1860 -1.3413763
1858 -1.5851672
1856 -1.80934
1854 -2.0128467
1852 -2.0892231
1850 -2.0936735
1848 -2.000416
1846 -1.8688571
1844 -1.8552338
1842 -1.9194813
1840 -2.1433537
1838 -2.4252741
1836 -2.6337388
1834 -2.7597389
1832 -2.7033103
1830 -2.5376136
1828 -2.2504578
1826 -1.9741157
1824 -1.8139817
1822 -1.7815095
1820 -1.921952
1818 -2.0913174
1816 -2.2223771
1814 -2.2414434
1812 -2.1321769
1810 -1.967821
1808 -1.7816182
1806 -1.60347
1804 -1.4377937
1802 -1.2392876
1800 -1.0190256
1798 -0.78122139
1796 -0.53688854
1794 -0.34506077
1792 -0.17647439
1790 -0.069811225
1788 0.017693356
1786 0.1093093
1784 0.21471389
1782 0.32399917
1780 0.44580132
1778 0.58477402
1776 0.72972631
1774 0.85609275
1772 0.91622841
1770 0.86451101
1768 0.72482592
1766 0.53849596
1764 0.3839938
1762 0.29697648
1760 0.10455062
1758 -0.1507207
1756 -0.29546857
1754 -0.31150281
1752 -0.079493992
1750 0.38414258
1748 0.91560096
1746 1.4550858
1744 1.6250675
1742 1.4700022
1740 1.1754972
1738 0.81048012
1736 0.72763801
1734 0.85048491
1732 0.93692994
1730 0.97873563
1728 0.70082194
1726 0.25154743
1724 -0.078951158
1722 -0.2319954
1720 0.10341948
1718 0.89657474
1716 2.1480927
1714 3.4829187
1712 4.4925671
1710 5.2946024
1708 5.958076
1706 6.8178873
1704 8.1270409
1702 10.068641
1700 12.720251
1698 15.913558
1696 19.547714
1694 23.00815
1692 26.048483
1690 28.872643
1688 31.545736
1686 34.858192
1684 38.850342
1682 43.384525
1680 48.33252
1678 52.543594
1676 56.100956
1674 59.662792
1672 63.295769
1670 67.605743
1668 72.401375
1666 77.13485
1664 81.758324
1662 86.021156
1660 89.931992
1658 93.433395
1656 96.543541
1654 99.262741
1652 101.4584
1650 103.02782
1648 103.38514
1646 102.20357
1644 99.978638
1642 97.170517
1640 94.057999
1638 90.801567
1636 87.027626
1634 82.665825
1632 78.138512
1630 73.629143
1628 69.335968
1626 65.250267
1624 60.973961
1622 56.463425
1620 52.020393
1618 47.67461
1616 43.585457
1614 39.783092
1612 36.386585
1610 33.429279
1608 30.920435
1606 28.829037
1604 26.997583
1602 25.432623
1600 24.109674
1598 23.05364
1596 22.254002
1594 21.689188
1592 21.302834
1590 21.040995
1588 20.841454
1586 20.745171
1584 20.760519
1582 20.961969
1580 21.36088
1578 22.048889
1576 23.0522
1574 24.311026
1572 25.824051
1570 27.307148
1568 28.70676
1566 29.914785
1564 30.908619
1562 31.945772
1560 33.124306
1558 35.308578
1556 38.5116
1554 42.092541
1552 45.840187
1550 48.60606
1548 50.478027
1546 51.99918
1544 53.210445
1542 54.335426
1540 55.071079
1538 55.178692
1536 54.615429
1534 53.425732
1532 52.00935
1530 50.660095
1528 49.387959
1526 48.200798
1524 46.894814
1522 45.37944
1520 43.516224
1518 41.302135
1516 39.1283
1514 37.110538
1512 35.16016
1510 33.190559
1508 30.635052
1506 27.319614
1504 24.059435
1502 20.995445
1500 18.537998
1498 16.75849
1496 15.015572
1494 13.291887
1492 11.565683
1490 9.8142328
1488 8.0400715
1486 6.2510943
1484 4.4664259
1482 2.8614743
1480 1.6061393
1478 0.74097937
1476 0.26744831
1474 0.15211265
1472 0.45046034
1470 0.9244355
1468 1.4004797
1466 1.8933278
1464 2.3379252
1462 2.8435826
1460 3.4509625
1458 4.12148
1456 4.8866601
1454 5.5050945
1452 5.9264231
1450 6.1346822
1448 6.0516238
1446 5.8469105
1444 5.4726553
1442 5.0855079
1440 4.6835957
1438 4.3634653
1436 4.1063943
1434 3.8772607
1432 3.6465881
1430 3.3761122
1428 3.1155281
1426 2.8967235
1424 2.7456732
1422 2.6644197
1420 2.6276112
1418 2.647965
1416 2.74
1414 2.9503131
1412 3.2833812
1410 3.7001433
1408 4.1448436
1406 4.5693035
1404 4.9546604
1402 5.3080282
1400 5.6114483
1398 5.8493705
1396 5.997057
1394 6.005064
1392 5.9326215
1390 5.775291
1388 5.5823011
1386 5.34583
1384 5.080761
1382 4.7804561
1380 4.4925327
1378 4.2136021
1376 3.9619401
1374 3.7109647
1372 3.4674718
1370 3.2240748
1368 2.9523635
1366 2.6560109
1364 2.2842948
1362 1.8508483
1360 1.3951548
1358 0.96200287
1356 0.61948854
1354 0.36114484
1352 0.18148978
1350 0.049950827
1348 -0.039972946
1346 -0.10694593
1344 -0.047488544
1342 0.090542465
1340 0.35911626
1338 0.611938
1336 0.83121401
1334 0.94291842
1332 0.92912221
1330 0.90113658
1328 0.87215358
1326 0.90940571
1324 1.0214312
1322 1.2087586
1320 1.4624926
1318 1.7397105
1316 2.00929
1314 2.2053266
1312 2.3330772
1310 2.3795331
1308 2.3806894
1306 2.3458006
1304 2.2860188
1302 2.1989279
1300 2.0933194
1298 1.9872519
1296 1.8893715
1294 1.8328015
1292 1.8036543
1290 1.8318404
1288 1.878656
1286 1.9581844
1284 2.0379078
1282 2.1214464
1280 2.2025669
1278 2.2817471
1276 2.3602586
1274 2.428035
1272 2.4954264
1270 2.5573664
1268 2.6380069
1266 2.7584214
1264 2.9240851
1262 3.1547787
1260 3.41343
1258 3.696557
1256 3.9724143
1254 4.2523232
1252 4.5649061
1250 4.9167624
1248 5.3323593
1246 5.7737999
1244 6.2073874
1242 6.6100206
1240 6.9276333
1238 7.1928368
1236 7.3601718
1234 7.4828296
1232 7.5146637
1230 7.502707
1228 7.3751674
1226 7.2044563
1224 6.9150414
1222 6.5827646
1220 6.1479692
1218 5.6691942
1216 5.1078429
1214 4.5460324
1212 3.9921608
1210 3.4937541
1208 3.073355
1206 2.6787901
1204 2.3068719
1202 1.9017558
1200 1.4667954
1198 1.0302432
1196 0.60032427
1194 0.20809849
1192 -0.15958041
1190 -0.51357377
1188 -0.84414995
1186 -1.1014507
1184 -1.2990166
1182 -1.3490074
1180 -1.3464277
1178 -1.2695347
1176 -1.1727799
1174 -1.0387771
1172 -0.88235259
1170 -0.64472592
1168 -0.40683526
1166 -0.16751973
1164 0.038367063
1162 0.1609149
1160 0.2575255
1158 0.30132231
1156 0.33454341
1154 0.34814957
1152 0.34934548
1150 0.33130386
1148 0.2996718
1146 0.2513057
1144 0.18677354
1142 0.11211927
1140 0.049472019
1138 0.0069957701
1136 0.02834234
1134 0.10424244
1132 0.35859972
1130 0.70566392
1128 1.178732
1126 1.6782635
1124 2.1322994
1122 2.548924
1120 2.811692
1118 3.031256
1116 3.09726
1114 3.1460536
1112 3.1348829
1110 3.1402588
1108 3.1996877
1106 3.2809651
1104 3.4179075
1102 3.5722482
1100 3.7673986
1098 4.0216198
1096 4.3746858
1094 4.800066
1092 5.3124738
1090 5.8201675
1088 6.3132381
1086 6.7319827
1084 7.0862374
1082 7.3863392
1080 7.6497245
1078 7.8866501
1076 8.1015062
1074 8.2466898
1072 8.3621311
1070 8.4219284
1068 8.4722757
1066 8.5365744
1064 8.599824
1062 8.6397648
1060 8.6772614
1058 8.7078838
1056 8.7432117
1054 8.7972679
1052 8.8256054
1050 8.7710457
1048 8.7070303
1046 8.6241112
1044 8.5760288
1042 8.587266
1040 8.5366859
1038 8.3875551
1036 8.1258698
1034 7.7399449
1032 7.3822865
1030 7.0565925
1028 6.8174434
1026 6.635911
1024 6.4452624
1022 6.2393532
1020 5.9172297
1018 5.5403128
1016 5.0470743
1014 4.5240169
1012 4.0173736
1010 3.5219588
1008 3.1248238
1006 2.7403715
1004 2.4109817
1002 2.0849237
1000 1.7800783
998 1.4907985
996 1.27115
994 1.0690994
992 0.92141777
990 0.76173705
988 0.57383364
986 0.36388475
984 0.1142429
982 -0.13449617
980 -0.37962502
978 -0.56311691
976 -0.67615199
974 -0.67813015
972 -0.58804798
970 -0.43149108
968 -0.23507112
966 -0.025085896
964 0.18844101
962 0.35657111
960 0.50253338
958 0.4700731
956 0.3938517
954 0.17436732
952 -0.055997685
950 -0.13837387
948 -0.20067474
946 -0.066140354
944 0.0065135956
942 0.19702064
940 0.41467512
938 0.74675155
936 1.1197715
934 1.6113914
932 2.0963242
930 2.5673256
928 3.0456069
926 3.5339913
924 3.9655442
922 4.3222771
920 4.4135532
918 4.2577519
916 3.9994814
914 3.6743884
912 3.7145376
910 3.948246
908 4.5030823
906 5.1752539
904 5.6438584
902 6.0552406
900 6.2976122
898 6.5121031
896 7.0735002
