Image.
>Pix99999.
  .
5555
5555
2300
900
5555
2
1
0
701
5555
8.9532003e-002
9.1394335e-002
9.3256675e-002
9.5120005e-002
9.6982345e-002
9.8844677e-002
1.0070404e-001
1.0257130e-001
1.0442875e-001
1.0629596e-001
1.0815343e-001
1.1002062e-001
1.1187811e-001
1.1374527e-001
1.1561260e-001
1.1747014e-001
1.1933725e-001
1.2119482e-001
1.2306191e-001
1.2491951e-001
1.2678656e-001
1.2864420e-001
1.3051122e-001
1.3236889e-001
1.3423587e-001
1.3609357e-001
3.9736599e-002
1.3892272e-003
-2.8995840e-002
1.5471929e-002
7.0903391e-002
1.5295866e-001
2.3559806e-001
2.8882375e-001
3.2627305e-001
2.4892500e-001
1.4972262e-001
-2.2839393e-002
-1.8988742e-001
-3.2826939e-001
-4.1820201e-001
-4.0579239e-001
-3.4006619e-001
-1.9719099e-001
-7.3346548e-002
2.0858720e-002
5.9871044e-002
4.7532488e-002
5.8355117e-003
-5.5276383e-002
-1.1139935e-001
-1.6392520e-001
-1.7639543e-001
-1.7143336e-001
-1.8821819e-001
-2.1243770e-001
-3.0034479e-001
-4.0277272e-001
-4.4833428e-001
-4.8433521e-001
-4.4243944e-001
-4.0061116e-001
-4.4092351e-001
-5.0242901e-001
-6.4082319e-001
-7.5990754e-001
-7.8137213e-001
-7.5386840e-001
-6.2585747e-001
-5.2203274e-001
-4.8341298e-001
-5.2341431e-001
-6.6759837e-001
-8.2496744e-001
-9.8502541e-001
-1.0733392e+000
-1.0979457e+000
-1.0463220e+000
-9.4625783e-001
-8.3093947e-001
-7.1000397e-001
-6.3597739e-001
-5.8183944e-001
-5.9653699e-001
-6.3258642e-001
-6.8272662e-001
-7.3580801e-001
-7.0089495e-001
-6.4922363e-001
-5.4589248e-001
-4.4469199e-001
-4.1401371e-001
-4.0489650e-001
-4.4570762e-001
-4.7362301e-001
-4.4058222e-001
-3.8088104e-001
-2.8233239e-001
-2.2882460e-001
-2.6067644e-001
-3.6023569e-001
-5.3211904e-001
-6.9217575e-001
-8.2906669e-001
-9.2509758e-001
-9.8985350e-001
-1.0275862e+000
-1.0501511e+000
-1.0426440e+000
-1.0204371e+000
-9.7774315e-001
-9.2726427e-001
-8.5042483e-001
-7.6542413e-001
-6.7545021e-001
-5.8647037e-001
-5.8232689e-001
-6.0303932e-001
-7.0484704e-001
-8.1905949e-001
-9.1346514e-001
-9.8705715e-001
-1.0010974e+000
-1.0004284e+000
-9.9346906e-001
-1.0101571e+000
-1.0758461e+000
-1.1615981e+000
-1.2622560e+000
-1.3393604e+000
-1.3832800e+000
-1.3992414e+000
-1.3942406e+000
-1.3877400e+000
-1.3836892e+000
-1.3969636e+000
-1.4216515e+000
-1.4395077e+000
-1.4532779e+000
-1.4566213e+000
-1.4552000e+000
-1.4841076e+000
-1.5225886e+000
-1.5642383e+000
-1.6052275e+000
-1.6314393e+000
-1.6510580e+000
-1.6543679e+000
-1.6411097e+000
-1.5784068e+000
-1.4956928e+000
-1.3924049e+000
-1.3121645e+000
-1.2917114e+000
-1.3165300e+000
-1.3897671e+000
-1.4642988e+000
-1.5248260e+000
-1.5839249e+000
-1.6470174e+000
-1.6694686e+000
-1.6547060e+000
-1.4730591e+000
-1.1704251e+000
-8.7411302e-001
-5.9577650e-001
-6.3327032e-001
-8.3460355e-001
-1.1407800e+000
-1.4830898e+000
-1.6688142e+000
-1.7944772e+000
-1.8581411e+000
-1.9001178e+000
-1.9353977e+000
-1.9678500e+000
-1.9931920e+000
-2.0296328e+000
-2.0980911e+000
-2.1828761e+000
-2.2811201e+000
-2.3504770e+000
-2.3587661e+000
-2.2948031e+000
-2.1487916e+000
-1.9294000e+000
-1.6470954e+000
-1.3427129e+000
-1.0292175e+000
-8.3587337e-001
-7.4759769e-001
-7.6916748e-001
-8.5715926e-001
-9.6290249e-001
-1.0734961e+000
-1.2930815e+000
-1.5711000e+000
-1.8260877e+000
-2.0655234e+000
-2.0123022e+000
-1.8355429e+000
-1.5630143e+000
-1.2858272e+000
-1.2208600e+000
-1.2833195e+000
-1.5350121e+000
-1.8657438e+000
-2.2201669e+000
-2.5364189e+000
-2.7480814e+000
-2.8006001e+000
-2.6355276e+000
-2.2777743e+000
-1.7435938e+000
-1.3055702e+000
-1.0455457e+000
-1.1354034e+000
-1.5306320e+000
-1.9919460e+000
-2.4456444e+000
-2.6975944e+000
-2.7993529e+000
-2.6425891e+000
-2.3358366e+000
-1.8813320e+000
-1.3584179e+000
-1.1079491e+000
-1.0156469e+000
-1.2578449e+000
-1.6372664e+000
-1.8791871e+000
-2.0004768e+000
-1.8516885e+000
-1.5660263e+000
-1.2139966e+000
-9.4011140e-001
-9.3238920e-001
-1.1495769e+000
-1.6129020e+000
-2.1189849e+000
-2.5442429e+000
-2.7921059e+000
-2.8318875e+000
-2.7447670e+000
-2.5848794e+000
-2.3905849e+000
-2.1820543e+000
-1.9268413e+000
-1.6369166e+000
-1.2995350e+000
-9.3175858e-001
-5.8986932e-001
-2.6420560e-001
-1.4284219e-001
-1.4256868e-001
-2.3484321e-001
-3.6351240e-001
-3.8971078e-001
-3.3134881e-001
-1.1068602e-001
2.2699609e-001
6.9314438e-001
1.1306732e+000
1.2992709e+000
1.2171851e+000
8.5581285e-001
4.6184158e-001
2.4132936e-001
7.0686914e-002
-1.4832556e-001
-2.6669386e-001
-2.1735105e-001
2.1859872e-001
1.0488765e+000
2.0033243e+000
2.9657037e+000
3.4002779e+000
3.3418524e+000
3.1002471e+000
2.7861154e+000
2.7702000e+000
2.9842100e+000
2.8804996e+000
2.5215688e+000
1.6620073e+000
5.3301126e-001
-1.9575456e-001
-4.9185511e-001
1.6908169e-001
1.6228037e+000
3.6560857e+000
5.6691017e+000
6.8162861e+000
7.3967628e+000
7.7149920e+000
8.3060255e+000
9.6400270e+000
1.1915700e+001
1.5181054e+001
1.8931314e+001
2.2833284e+001
2.6126301e+001
2.8588799e+001
3.0862204e+001
3.3182983e+001
3.6474277e+001
4.0732399e+001
4.5452755e+001
5.0447399e+001
5.4437908e+001
5.7557228e+001
6.0832436e+001
6.4315079e+001
6.8437225e+001
7.2983185e+001
7.7199051e+001
8.1121811e+001
8.4762383e+001
8.8181335e+001
9.1475426e+001
9.4651543e+001
9.7708710e+001
1.0043988e+002
1.0262328e+002
1.0341943e+002
1.0221429e+002
9.9635696e+001
9.6317055e+001
9.2769722e+001
8.9305557e+001
8.5387299e+001
8.0847778e+001
7.6044304e+001
7.1144417e+001
6.6647308e+001
6.2603107e+001
5.8575958e+001
5.4492340e+001
5.0388409e+001
4.6275772e+001
4.2267570e+001
3.8399708e+001
3.4884178e+001
3.1761131e+001
2.9112440e+001
2.6905207e+001
2.4966518e+001
2.3300177e+001
2.1869354e+001
2.0698473e+001
1.9782001e+001
1.9098860e+001
1.8590189e+001
1.8230303e+001
1.7976660e+001
1.7898643e+001
1.8025726e+001
1.8460772e+001
1.9233456e+001
2.0416637e+001
2.2017141e+001
2.3793802e+001
2.5670395e+001
2.7276005e+001
2.8535439e+001
2.9631035e+001
3.0592306e+001
3.1953907e+001
3.3842625e+001
3.6758896e+001
4.0624771e+001
4.4109379e+001
4.7034897e+001
4.8972725e+001
5.0132431e+001
5.1452858e+001
5.2967052e+001
5.4689949e+001
5.6062981e+001
5.6291515e+001
5.5356373e+001
5.3426323e+001
5.1203239e+001
4.9389767e+001
4.8023064e+001
4.7112701e+001
4.6346771e+001
4.5547897e+001
4.4227978e+001
4.2165573e+001
3.9840027e+001
3.7373787e+001
3.5171520e+001
3.3326046e+001
3.1001062e+001
2.7993586e+001
2.4622057e+001
2.0920147e+001
1.7867731e+001
1.5588140e+001
1.3608714e+001
1.1945048e+001
1.0371067e+001
8.8523483e+000
7.2697892e+000
5.5941925e+000
3.7993503e+000
2.0938981e+000
7.8543437e-001
3.2543883e-002
2.2535577e-002
6.8931729e-001
1.8590896e+000
2.9771581e+000
3.6542468e+000
4.0628271e+000
4.2389083e+000
4.5933833e+000
5.3449702e+000
6.2877817e+000
7.4265599e+000
8.1120720e+000
8.0738792e+000
7.6941843e+000
6.8711638e+000
6.0929785e+000
5.3902130e+000
4.8116350e+000
4.4126382e+000
4.1981502e+000
4.1740484e+000
4.1770988e+000
4.1476574e+000
3.9492543e+000
3.6391480e+000
3.3748257e+000
3.2375853e+000
3.3339512e+000
3.5857551e+000
3.8926427e+000
4.1199398e+000
4.1183519e+000
4.0185323e+000
3.8789349e+000
3.8203640e+000
3.9392343e+000
4.1907296e+000
4.6314139e+000
5.1647639e+000
5.8245821e+000
6.4090428e+000
6.8340259e+000
7.0257993e+000
6.8472881e+000
6.5455227e+000
6.0673351e+000
5.5567079e+000
5.0166683e+000
4.5311289e+000
4.1303806e+000
3.8420086e+000
3.6555989e+000
3.4885459e+000
3.3286383e+000
3.1386926e+000
2.9304786e+000
2.7048049e+000
2.4238400e+000
2.0351372e+000
1.5738580e+000
1.0613146e+000
5.9518027e-001
2.6690817e-001
4.7586501e-002
-3.2573059e-002
-4.9843289e-002
1.1838536e-001
4.0127519e-001
8.8322353e-001
1.3012940e+000
1.5655057e+000
1.6207302e+000
1.3367578e+000
1.0447290e+000
7.7154410e-001
6.4607358e-001
7.3237157e-001
9.5521033e-001
1.3282777e+000
1.7294387e+000
2.1221101e+000
2.4037533e+000
2.5668857e+000
2.6125917e+000
2.5729752e+000
2.4847021e+000
2.3667057e+000
2.2340620e+000
2.1019056e+000
1.9962571e+000
1.9125286e+000
1.8727019e+000
1.8465379e+000
1.8335947e+000
1.8224080e+000
1.8130193e+000
1.8069074e+000
1.8130300e+000
1.8255057e+000
1.8565327e+000
1.9170742e+000
2.0349789e+000
2.1962240e+000
2.4242449e+000
2.6658235e+000
2.9239106e+000
3.1657736e+000
3.3890581e+000
3.5965579e+000
3.7933569e+000
4.0049200e+000
4.2433720e+000
4.5389209e+000
4.8871660e+000
5.2953744e+000
5.7358251e+000
6.1898694e+000
6.6360040e+000
7.0418539e+000
7.4100704e+000
7.6898355e+000
7.9140739e+000
8.0092239e+000
8.0504570e+000
7.9575586e+000
7.8187556e+000
7.5556965e+000
7.2492905e+000
6.8421588e+000
6.4245520e+000
5.9892001e+000
5.5637445e+000
5.1502843e+000
4.7200880e+000
4.2637000e+000
3.7853208e+000
3.2846639e+000
2.7873416e+000
2.3001754e+000
1.8461409e+000
1.4240999e+000
1.0398732e+000
6.8316329e-001
3.5193151e-001
4.7329411e-002
-1.9288650e-001
-3.8936144e-001
-4.9243420e-001
-5.5240482e-001
-5.2442849e-001
-4.6203399e-001
-3.0987853e-001
-1.5167871e-001
8.6490884e-003
1.2662148e-001
1.1609228e-001
7.7231057e-002
-2.2940487e-002
-7.2827831e-002
-1.9098770e-002
8.2275704e-002
2.5208724e-001
3.8697553e-001
4.6512049e-001
4.7383302e-001
4.0492070e-001
3.0062863e-001
1.7369327e-001
8.0250293e-002
1.8635213e-002
9.3603116e-003
3.9994985e-002
1.5898682e-001
3.3974707e-001
6.6662002e-001
1.0459952e+000
1.4905769e+000
1.9270754e+000
2.2603719e+000
2.5662222e+000
2.7773044e+000
2.9927247e+000
3.2319281e+000
3.4692018e+000
3.6970789e+000
3.8918951e+000
4.0067482e+000
4.1192355e+000
4.2358904e+000
4.4194503e+000
4.7119141e+000
5.0617576e+000
5.4797101e+000
5.8893471e+000
6.2869720e+000
6.6553388e+000
6.9981132e+000
7.3172746e+000
7.6120000e+000
7.8343258e+000
8.0012274e+000
8.0045805e+000
7.9376540e+000
7.7467809e+000
7.5446796e+000
7.4571724e+000
7.4151878e+000
7.5987029e+000
7.7886305e+000
7.9480672e+000
8.0738564e+000
8.0535336e+000
8.0350399e+000
8.0215197e+000
8.0030642e+000
7.9702320e+000
7.9048495e+000
7.7808771e+000
7.6595140e+000
7.5411577e+000
7.4123998e+000
7.2676883e+000
7.0834384e+000
6.8637090e+000
6.6425023e+000
6.4235568e+000
6.2399864e+000
6.0706210e+000
5.8561602e+000
5.6075554e+000
5.1761456e+000
4.6860342e+000
4.0912671e+000
3.4886429e+000
2.9994600e+000
2.5359342e+000
2.2637031e+000
2.0051062e+000
1.8275822e+000
1.6333742e+000
1.3639286e+000
1.0636220e+000
6.6923189e-001
2.8207806e-001
-8.5214823e-002
-4.0091270e-001
-6.2496853e-001
-7.9624158e-001
-8.9744741e-001
-9.9163687e-001
-1.0784115e+000
-1.1660252e+000
-1.2503632e+000
-1.2638671e+000
-1.2302697e+000
-1.1091635e+000
-9.4647741e-001
-7.4033040e-001
-5.1876336e-001
-2.7460584e-001
-2.8088853e-002
1.5709050e-001
3.2661560e-001
2.9511189e-001
2.4916060e-001
1.1229107e-001
8.5237809e-004
2.7498737e-002
1.1235411e-001
3.4133071e-001
5.6197548e-001
7.5844187e-001
9.7601873e-001
1.2395922e+000
1.5493679e+000
1.9311043e+000
2.2513142e+000
2.4953537e+000
2.6691704e+000
2.7787793e+000
2.9303956e+000
3.1116548e+000
3.2789183e+000
3.4380820e+000
3.6260953e+000
3.8249030e+000
4.2030263e+000
4.6272449e+000
5.1037865e+000
5.5883160e+000
6.0191002e+000
