Image.
>Pix99999.
  .
5555
5555
2300
900
5555
2
1
0
701
5555
-7.8034997e-002
-7.9658672e-002
-8.1282347e-002
-8.2905032e-002
-8.4528707e-002
-8.6152382e-002
-8.7775074e-002
-8.9398742e-002
-9.1022417e-002
-9.2645109e-002
-9.4268769e-002
-9.5894411e-002
-9.7516157e-002
-9.9133916e-002
-1.0076728e-001
-1.0240486e-001
-1.0401320e-001
-1.0555260e-001
-1.0725603e-001
-1.0916788e-001
-1.1051200e-001
-1.1105440e-001
-1.1371420e-001
-1.1936107e-001
-1.1713571e-001
-8.9268923e-002
-3.2774857e-003
1.5510727e-001
3.1034118e-001
3.8411969e-001
3.8933715e-001
3.6007088e-001
3.1022274e-001
2.5046179e-001
2.0283626e-001
1.8965350e-001
2.2044925e-001
2.9514629e-001
3.9016935e-001
4.7954476e-001
5.5567682e-001
6.1721003e-001
6.6553277e-001
6.9911879e-001
7.0154232e-001
6.5561706e-001
5.5933034e-001
4.2307556e-001
2.8840697e-001
2.0252940e-001
1.9686215e-001
2.8526381e-001
4.3090051e-001
5.8375072e-001
7.0468163e-001
7.6700485e-001
7.7930480e-001
7.5948668e-001
7.1758169e-001
6.6096765e-001
5.9748429e-001
5.3633308e-001
4.9160069e-001
4.7568518e-001
4.8771879e-001
5.2136242e-001
5.6615168e-001
6.1188626e-001
6.5474975e-001
6.9433415e-001
7.3529899e-001
7.8189546e-001
8.2991433e-001
8.6895192e-001
8.7542403e-001
8.2734501e-001
7.2781521e-001
5.9491503e-001
4.7179639e-001
4.0238550e-001
3.9856601e-001
4.5490339e-001
5.4252470e-001
6.2677932e-001
6.8233442e-001
6.9331312e-001
6.6766447e-001
6.2357455e-001
5.8592856e-001
5.7484591e-001
5.8167315e-001
5.8963209e-001
5.9273458e-001
5.9128100e-001
5.9324354e-001
6.0614812e-001
6.2416053e-001
6.3740891e-001
6.4067799e-001
6.3069582e-001
6.0400712e-001
5.5710560e-001
4.8673409e-001
3.9372751e-001
2.9544440e-001
2.1571949e-001
1.7841798e-001
2.0058818e-001
2.7200308e-001
3.7038535e-001
4.6862027e-001
5.4143113e-001
5.7757759e-001
5.7397240e-001
5.3776765e-001
4.8212564e-001
4.2906040e-001
3.9972517e-001
3.9729106e-001
4.1384989e-001
4.2712945e-001
4.1433451e-001
3.7409762e-001
3.1618464e-001
2.5800645e-001
2.1697643e-001
1.9866060e-001
2.0234752e-001
2.2279395e-001
2.5154772e-001
2.7388686e-001
2.7611053e-001
2.6013622e-001
2.3861709e-001
2.4009617e-001
2.9270163e-001
3.9470658e-001
5.2673823e-001
6.5252805e-001
7.3495567e-001
7.6200801e-001
7.3821026e-001
6.8853170e-001
6.4294279e-001
6.1603355e-001
6.1281300e-001
6.2960422e-001
6.5973932e-001
6.9897085e-001
7.4133974e-001
7.6777500e-001
7.5559860e-001
6.9327694e-001
5.8221143e-001
4.5468020e-001
3.5307878e-001
3.0157509e-001
3.0956423e-001
3.6461693e-001
4.4641128e-001
5.4319257e-001
6.4901060e-001
7.6199359e-001
8.7865859e-001
9.8134863e-001
1.0471236e+000
1.0614443e+000
1.0209113e+000
9.4984603e-001
8.8409996e-001
8.5079044e-001
8.6648542e-001
9.2566162e-001
1.0089440e+000
1.0837508e+000
1.1157000e+000
1.0880120e+000
1.0021616e+000
8.9725465e-001
8.2495934e-001
8.0890512e-001
8.4966910e-001
9.1832525e-001
9.7974277e-001
1.0341424e+000
1.1022750e+000
1.2078317e+000
1.3621932e+000
1.5249331e+000
1.6359440e+000
1.6726571e+000
1.6412246e+000
1.5735166e+000
1.5048350e+000
1.4336592e+000
1.3425558e+000
1.2388800e+000
1.1465405e+000
1.0924537e+000
1.0957584e+000
1.1398429e+000
1.1904577e+000
1.2239085e+000
1.2272270e+000
1.2002457e+000
1.1488150e+000
1.0768249e+000
9.8822540e-001
8.9537567e-001
8.1736833e-001
7.8091598e-001
8.1086463e-001
9.0620160e-001
1.0423046e+000
1.1593223e+000
1.1901221e+000
1.1217709e+000
9.8112762e-001
8.1950945e-001
6.9185936e-001
6.1853343e-001
6.0043573e-001
6.5059531e-001
7.8320211e-001
9.7436398e-001
1.1697714e+000
1.2891989e+000
1.2583156e+000
1.0896789e+000
8.5373372e-001
6.3103342e-001
4.9151579e-001
4.5648581e-001
5.0982481e-001
6.0577756e-001
6.8534613e-001
6.9980693e-001
6.1914253e-001
4.5993263e-001
2.6992542e-001
1.0554074e-001
1.6575616e-002
1.2559017e-002
7.4259534e-002
1.7322485e-001
2.8360200e-001
4.0470186e-001
5.5200332e-001
7.3670983e-001
9.5489872e-001
1.1564214e+000
1.2653060e+000
1.2276520e+000
1.0286721e+000
7.4559861e-001
5.0112283e-001
3.4882760e-001
2.8665292e-001
3.1078526e-001
4.1882101e-001
5.8857542e-001
7.7282542e-001
8.7654459e-001
7.9961878e-001
5.6451398e-001
2.8482893e-001
7.4115455e-002
3.7176688e-003
6.1169467e-003
-5.5198379e-002
-1.8162417e-001
-2.6761144e-001
-2.2693668e-001
-2.3701906e-002
2.8027165e-001
5.6146181e-001
7.2456682e-001
7.2679079e-001
6.2833560e-001
5.4472315e-001
5.1177597e-001
4.8868436e-001
4.0393922e-001
1.9478227e-001
-9.9362209e-002
-3.6053956e-001
-4.7589710e-001
-3.5847870e-001
3.0220240e-002
6.7662817e-001
1.4875234e+000
2.3243020e+000
3.1002793e+000
3.8025317e+000
4.5331240e+000
5.4784493e+000
6.8314047e+000
8.7511778e+000
1.1274047e+001
1.4296590e+001
1.7515285e+001
2.0533049e+001
2.3197800e+001
2.5624023e+001
2.8129868e+001
3.1113085e+001
3.4733829e+001
3.8864246e+001
4.3036079e+001
4.6650852e+001
4.9654114e+001
5.2481010e+001
5.5554310e+001
5.9135052e+001
6.3154251e+001
6.7297249e+001
7.1327599e+001
7.5133049e+001
7.8664795e+001
8.1924232e+001
8.4984489e+001
8.7948967e+001
9.0808304e+001
9.3401115e+001
9.5352501e+001
9.6212570e+001
9.5973686e+001
9.5025566e+001
9.3649353e+001
9.1923363e+001
8.9782234e+001
8.7100494e+001
8.3921082e+001
8.0441055e+001
7.6779373e+001
7.2947479e+001
6.8931717e+001
6.4730255e+001
6.0421185e+001
5.6149109e+001
5.2028885e+001
4.8132427e+001
4.4528595e+001
4.1283401e+001
3.8419502e+001
3.5917328e+001
3.3752029e+001
3.1901705e+001
3.0339417e+001
2.9030796e+001
2.7937000e+001
2.7016209e+001
2.6231571e+001
2.5557674e+001
2.4995363e+001
2.4572458e+001
2.4323795e+001
2.4289629e+001
2.4521612e+001
2.5069229e+001
2.5928600e+001
2.7028627e+001
2.8230808e+001
2.9360981e+001
3.0341360e+001
3.1208300e+001
3.2035030e+001
3.2936153e+001
3.4177608e+001
3.6100834e+001
3.8659927e+001
4.1384079e+001
4.3814674e+001
4.5668846e+001
4.7026718e+001
4.8288891e+001
4.9685249e+001
5.1150688e+001
5.2418621e+001
5.3109192e+001
5.3043514e+001
5.2325172e+001
5.1224857e+001
5.0100388e+001
4.9147480e+001
4.8336102e+001
4.7527641e+001
4.6521370e+001
4.5141594e+001
4.3296890e+001
4.1114384e+001
3.8915260e+001
3.6847519e+001
3.4793930e+001
3.2530819e+001
2.9833292e+001
2.6769960e+001
2.3730013e+001
2.0988152e+001
1.8582821e+001
1.6430285e+001
1.4372513e+001
1.2304960e+001
1.0213327e+001
8.1071606e+000
6.0138941e+000
4.0318561e+000
2.3333468e+000
1.0544740e+000
2.6878333e-001
5.3127021e-002
4.6851853e-001
1.3812988e+000
2.4431109e+000
3.4201646e+000
4.2935591e+000
5.1309376e+000
6.0284948e+000
6.9603724e+000
7.7359419e+000
8.1442003e+000
8.0344868e+000
7.4836631e+000
6.8202472e+000
6.2514749e+000
5.7548714e+000
5.2853518e+000
4.8363552e+000
4.4207115e+000
4.0584140e+000
3.7277429e+000
3.3562169e+000
2.9025588e+000
2.3899655e+000
1.8896239e+000
1.5111628e+000
1.3247172e+000
1.3276916e+000
1.4676898e+000
1.6514127e+000
1.8123572e+000
1.9400220e+000
2.0650594e+000
2.2526770e+000
2.5390275e+000
2.9080215e+000
3.3313158e+000
3.7799969e+000
4.2294722e+000
4.6591692e+000
5.0380359e+000
5.3216214e+000
5.4815116e+000
5.5184736e+000
5.4467707e+000
5.2918100e+000
5.0838165e+000
4.8558207e+000
4.6360211e+000
4.4401484e+000
4.2549686e+000
4.0313706e+000
3.7338700e+000
3.3630652e+000
2.9448006e+000
2.5267501e+000
2.1335349e+000
1.7485856e+000
1.3588789e+000
9.7312331e-001
6.1617231e-001
3.2690871e-001
1.2536108e-001
-1.4986359e-003
-6.3922882e-002
-5.5722144e-002
3.4337439e-002
2.1382849e-001
4.5503289e-001
6.7774934e-001
8.0913574e-001
8.1450069e-001
7.0931304e-001
5.7326669e-001
4.7673619e-001
4.4985473e-001
5.0775570e-001
6.5414232e-001
8.8065141e-001
1.1609204e+000
1.4519200e+000
1.6926173e+000
1.8370543e+000
1.8743473e+000
1.8187771e+000
1.7129135e+000
1.6003155e+000
1.5139110e+000
1.4748362e+000
1.4867244e+000
1.5434428e+000
1.6292169e+000
1.7294263e+000
1.8356099e+000
1.9439120e+000
2.0549343e+000
2.1660049e+000
2.2676246e+000
2.3552074e+000
2.4362109e+000
2.5249715e+000
2.6421061e+000
2.7995515e+000
2.9910808e+000
3.2084773e+000
3.4481423e+000
3.7145956e+000
4.0237522e+000
4.3884020e+000
4.8095603e+000
5.2822399e+000
5.7961578e+000
6.3428211e+000
6.9202914e+000
7.5266452e+000
8.1563501e+000
8.7948256e+000
9.4122076e+000
9.9757080e+000
1.0455691e+001
1.0834100e+001
1.1111976e+001
1.1297320e+001
1.1394873e+001
1.1405535e+001
1.1319872e+001
1.1128103e+001
1.0825652e+001
1.0418534e+001
9.9343882e+000
9.4080172e+000
8.8775253e+000
8.3694420e+000
7.8824482e+000
7.4038467e+000
6.9116764e+000
6.3884358e+000
5.8307447e+000
5.2422376e+000
4.6346006e+000
4.0232859e+000
3.4281714e+000
2.8707411e+000
2.3726370e+000
1.9485880e+000
1.5978371e+000
1.3111006e+000
1.0695047e+000
8.6023867e-001
6.8859434e-001
5.6445801e-001
4.9690101e-001
4.8269621e-001
4.9238715e-001
4.9314103e-001
4.6007314e-001
3.8322294e-001
2.8159830e-001
1.7938508e-001
9.6121252e-002
4.2596318e-002
1.2404017e-002
-3.5626297e-003
-1.1178980e-002
-1.5004581e-002
-1.8112037e-002
-2.1388920e-002
-2.1233734e-002
-1.1008308e-002
2.0716358e-002
8.7938257e-002
2.0717601e-001
3.8820767e-001
6.2337989e-001
9.0154856e-001
1.2127607e+000
1.5444875e+000
1.8775640e+000
2.1958361e+000
2.4944599e+000
2.7760916e+000
3.0543408e+000
3.3405211e+000
3.6340430e+000
3.9340186e+000
4.2467752e+000
4.5771976e+000
4.9229832e+000
5.2788968e+000
5.6366491e+000
5.9901714e+000
6.3407145e+000
6.6896281e+000
7.0332122e+000
7.3694878e+000
7.7038407e+000
8.0386667e+000
8.3639612e+000
8.6619253e+000
8.9045620e+000
9.0736732e+000
9.1835518e+000
9.2596140e+000
9.3350677e+000
9.4351625e+000
9.5594692e+000
9.6961603e+000
9.8193169e+000
9.8999720e+000
9.9107313e+000
9.8334455e+000
9.6760092e+000
9.4543056e+000
9.1898537e+000
8.9001427e+000
8.5885715e+000
8.2603998e+000
7.9358406e+000
7.6333075e+000
7.3545837e+000
7.0904999e+000
6.8133430e+000
6.5008130e+000
6.1590819e+000
5.8018198e+000
5.4427142e+000
5.0918298e+000
4.7473650e+000
4.4070172e+000
4.0744267e+000
3.7521372e+000
3.4356647e+000
3.1182382e+000
2.7923748e+000
2.4563920e+000
2.1260192e+000
1.8184769e+000
1.5409321e+000
1.2932246e+000
1.0596186e+000
8.2567143e-001
5.9472060e-001
3.7661368e-001
1.8846841e-001
4.2140104e-002
-7.2876737e-002
-1.6949868e-001
-2.5013012e-001
-3.0749559e-001
-3.1152165e-001
-2.3525411e-001
-8.0932997e-002
1.3549420e-001
3.7659431e-001
6.0343838e-001
7.9013646e-001
9.1715872e-001
9.7595435e-001
9.6660131e-001
9.0938050e-001
8.2790929e-001
7.3962379e-001
6.5124798e-001
5.3793406e-001
3.8277748e-001
2.2398570e-001
9.9381655e-002
-3.1510666e-003
-9.8011740e-002
-1.6364710e-001
-1.8386970e-001
-1.9401877e-001
-2.3054823e-001
-2.8687811e-001
-3.4661794e-001
-3.9686874e-001
-4.3179318e-001
-4.6878582e-001
-5.2647579e-001
-6.0626423e-001
-7.0041603e-001
-7.8292948e-001
-8.3569980e-001
-8.8838446e-001
-9.6873516e-001
-1.0505979e+000
-1.0917040e+000
-1.0394521e+000
-8.6504871e-001
-6.4450443e-001
-4.7984001e-001
