Image.
>Pix99999.
  .
5555
5555
2300
900
5555
2
1
0
701
5555
-3.3080000e-002
-3.3768017e-002
-3.4456033e-002
-3.5144046e-002
-3.5832062e-002
-3.6520079e-002
-3.7209082e-002
-3.7897110e-002
-3.8585126e-002
-3.9273143e-002
-3.9961159e-002
-4.0650155e-002
-4.1338187e-002
-4.2026203e-002
-4.2714220e-002
-4.3402236e-002
-4.4090252e-002
-4.4778265e-002
-4.5467257e-002
-4.6155300e-002
-4.6843316e-002
-4.7531329e-002
-4.8219346e-002
-4.8907362e-002
-4.9595378e-002
-5.0284356e-002
-1.8686199e-003
6.3522547e-002
1.3621724e-001
1.5344189e-001
1.6246371e-001
2.3105014e-002
-1.3304971e-001
-4.2660120e-001
-7.1610391e-001
-9.2069197e-001
-1.0785832e+000
-1.0427473e+000
-9.6861488e-001
-8.0925000e-001
-6.5962315e-001
-5.4180074e-001
-4.8799059e-001
-5.3560716e-001
-6.4651334e-001
-8.2854015e-001
-9.7765642e-001
-1.0906606e+000
-1.1221309e+000
-1.0944190e+000
-1.0381572e+000
-9.6765369e-001
-9.4144481e-001
-9.3506461e-001
-1.0419345e+000
-1.1852443e+000
-1.4284481e+000
-1.6941341e+000
-1.9105177e+000
-2.1171033e+000
-2.1383400e+000
-2.1315796e+000
-2.0009303e+000
-1.8611730e+000
-1.7375726e+000
-1.6387700e+000
-1.6248186e+000
-1.6358749e+000
-1.6893755e+000
-1.7320486e+000
-1.7461801e+000
-1.7722803e+000
-1.8200468e+000
-1.9326857e+000
-2.1159191e+000
-2.2949393e+000
-2.4636707e+000
-2.5687640e+000
-2.6303263e+000
-2.6668630e+000
-2.6921344e+000
-2.6758878e+000
-2.6427648e+000
-2.6219528e+000
-2.6055319e+000
-2.7066565e+000
-2.8351040e+000
-2.9503186e+000
-3.0562000e+000
-3.0292487e+000
-2.9771271e+000
-2.8790371e+000
-2.7850573e+000
-2.7388213e+000
-2.7214799e+000
-2.7704198e+000
-2.8328464e+000
-2.9036090e+000
-2.9601259e+000
-2.9907095e+000
-3.0153286e+000
-3.0371978e+000
-3.0701146e+000
-3.1149430e+000
-3.1643713e+000
-3.2162552e+000
-3.2526970e+000
-3.2787244e+000
-3.3140450e+000
-3.3550067e+000
-3.4096272e+000
-3.4696748e+000
-3.4544361e+000
-3.4146478e+000
-3.3020852e+000
-3.1736927e+000
-3.1256361e+000
-3.1051419e+000
-3.2071924e+000
-3.3327479e+000
-3.4545228e+000
-3.5461035e+000
-3.5313394e+000
-3.4784453e+000
-3.3812771e+000
-3.3109963e+000
-3.3095582e+000
-3.3370757e+000
-3.3887050e+000
-3.4070756e+000
-3.3803999e+000
-3.3586183e+000
-3.3496635e+000
-3.3897099e+000
-3.4661882e+000
-3.5396299e+000
-3.6072216e+000
-3.6251864e+000
-3.6176488e+000
-3.5694981e+000
-3.5057800e+000
-3.4627535e+000
-3.4275391e+000
-3.4390402e+000
-3.4629424e+000
-3.4877214e+000
-3.5080955e+000
-3.4957471e+000
-3.4735785e+000
-3.4443986e+000
-3.4373286e+000
-3.5014329e+000
-3.6010652e+000
-3.7417176e+000
-3.8443542e+000
-3.8643894e+000
-3.8127422e+000
-3.6885242e+000
-3.5553911e+000
-3.4304295e+000
-3.3218629e+000
-3.2264671e+000
-3.0970390e+000
-2.9393022e+000
-2.8068109e+000
-2.6936758e+000
-2.7521482e+000
-2.8998480e+000
-3.1191599e+000
-3.3649807e+000
-3.5338016e+000
-3.6717794e+000
-3.7258430e+000
-3.7465279e+000
-3.6979740e+000
-3.6301498e+000
-3.5781422e+000
-3.5436616e+000
-3.5581477e+000
-3.5773108e+000
-3.5704544e+000
-3.5454211e+000
-3.4981880e+000
-3.4810979e+000
-3.5214274e+000
-3.5773263e+000
-3.6319716e+000
-3.5588236e+000
-3.3487973e+000
-3.0646920e+000
-2.7450471e+000
-2.5566268e+000
-2.4738703e+000
-2.5334017e+000
-2.6712453e+000
-2.8396552e+000
-3.0183439e+000
-3.0636983e+000
-3.0466399e+000
-2.8719344e+000
-2.6377571e+000
-2.4232674e+000
-2.2330394e+000
-2.1567831e+000
-2.1438987e+000
-2.2178106e+000
-2.3363676e+000
-2.4931624e+000
-2.6607959e+000
-2.8202140e+000
-2.9444900e+000
-3.0068305e+000
-2.9683690e+000
-2.8075442e+000
-2.5740228e+000
-2.2998121e+000
-2.1405063e+000
-2.1170869e+000
-2.2146835e+000
-2.3883443e+000
-2.5357344e+000
-2.6484344e+000
-2.6490545e+000
-2.5779910e+000
-2.4033880e+000
-2.1731534e+000
-2.0579257e+000
-2.0119689e+000
-2.2154806e+000
-2.5342705e+000
-2.8302271e+000
-3.0752518e+000
-3.1020977e+000
-2.9728246e+000
-2.6354406e+000
-2.2421308e+000
-1.9452457e+000
-1.8157394e+000
-1.9569520e+000
-2.2216461e+000
-2.5143485e+000
-2.7218685e+000
-2.7906287e+000
-2.7577229e+000
-2.6582239e+000
-2.5161400e+000
-2.3506105e+000
-2.1509995e+000
-1.9247131e+000
-1.7282903e+000
-1.5602286e+000
-1.4449694e+000
-1.3652000e+000
-1.2519289e+000
-1.1165123e+000
-9.5097870e-001
-7.6935226e-001
-5.7811666e-001
-3.7344149e-001
-1.1053441e-001
1.7277054e-001
4.1114521e-001
5.6083900e-001
4.9793306e-001
3.3367541e-001
1.7035542e-001
7.8200236e-002
1.3024935e-001
6.6509947e-002
-1.0364319e-001
-2.0096700e-001
-1.9716021e-001
8.2528904e-002
6.5792072e-001
1.3468912e+000
2.0590358e+000
2.4167297e+000
2.4285364e+000
2.2322049e+000
1.9206692e+000
1.7488600e+000
1.6998127e+000
1.5585848e+000
1.3339028e+000
8.7059325e-001
2.7306998e-001
-1.1539152e-001
-2.7740970e-001
1.0442099e-001
9.7948480e-001
2.2962530e+000
3.7107661e+000
4.7332549e+000
5.4566569e+000
5.9818559e+000
6.6493196e+000
7.7786217e+000
9.6562405e+000
1.2409177e+001
1.5883933e+001
1.9871000e+001
2.3491550e+001
2.6427906e+001
2.8935816e+001
3.1200230e+001
3.4159264e+001
3.7880692e+001
4.2418442e+001
4.7575840e+001
5.2044907e+001
5.5865456e+001
5.9555798e+001
6.3224171e+001
6.7503304e+001
7.2235466e+001
7.6920898e+001
8.1495445e+001
8.5737251e+001
8.9622253e+001
9.3072548e+001
9.6071144e+001
9.8599792e+001
1.0058948e+002
1.0199243e+002
1.0239257e+002
1.0148035e+002
9.9600449e+001
9.7139091e+001
9.4267426e+001
9.1152939e+001
8.7386772e+001
8.2878197e+001
7.8163734e+001
7.3454994e+001
6.9125275e+001
6.5211418e+001
6.1256321e+001
5.7195339e+001
5.3084236e+001
4.8939365e+001
4.4890800e+001
4.0978241e+001
3.7476372e+001
3.4413219e+001
3.1835649e+001
2.9710793e+001
2.7856009e+001
2.6288153e+001
2.4993315e+001
2.3998243e+001
2.3299500e+001
2.2862007e+001
2.2602468e+001
2.2457541e+001
2.2348526e+001
2.2329599e+001
2.2434172e+001
2.2744770e+001
2.3294289e+001
2.4125578e+001
2.5239485e+001
2.6545980e+001
2.8002043e+001
2.9370823e+001
3.0600241e+001
3.1643528e+001
3.2498093e+001
3.3502392e+001
3.4763130e+001
3.6974014e+001
4.0168598e+001
4.3536629e+001
4.6857697e+001
4.9263042e+001
5.0814133e+001
5.2118534e+001
5.3160954e+001
5.3996616e+001
5.4378902e+001
5.3982998e+001
5.2945999e+001
5.1560970e+001
5.0079990e+001
4.8790119e+001
4.7617920e+001
4.6497452e+001
4.5227322e+001
4.3679264e+001
4.1804897e+001
3.9555038e+001
3.7363300e+001
3.5378357e+001
3.3445240e+001
3.1547031e+001
2.9121174e+001
2.6012184e+001
2.2936073e+001
1.9973536e+001
1.7580235e+001
1.5817770e+001
1.4075571e+001
1.2342218e+001
1.0559198e+001
8.7440376e+000
6.9652047e+000
5.2471123e+000
3.6177797e+000
2.1723771e+000
1.0365463e+000
2.9413459e-001
5.0389785e-002
3.6561638e-001
1.1668506e+000
2.0805559e+000
2.8537350e+000
3.4597979e+000
3.8641839e+000
4.3091879e+000
4.9165955e+000
5.6032386e+000
6.3652997e+000
6.8881536e+000
7.0169778e+000
6.9420419e+000
6.5872135e+000
6.1888070e+000
5.7369308e+000
5.3065639e+000
4.9276648e+000
4.6646228e+000
4.5352783e+000
4.4356236e+000
4.3340182e+000
4.1300135e+000
3.8529902e+000
3.6158135e+000
3.4643047e+000
3.4646547e+000
3.5881889e+000
3.7818842e+000
3.9928772e+000
4.1618080e+000
4.3101068e+000
4.4583368e+000
4.6394424e+000
4.8885098e+000
5.1837945e+000
5.5342035e+000
5.8864598e+000
6.2250500e+000
6.4912000e+000
6.6196456e+000
6.6358547e+000
6.4585338e+000
6.2109461e+000
5.8598700e+000
5.4972582e+000
5.1266551e+000
4.7838864e+000
4.4758682e+000
4.1789260e+000
3.8998802e+000
3.6362519e+000
3.3946033e+000
3.1821258e+000
2.9628928e+000
2.6747882e+000
2.3070476e+000
1.8327000e+000
1.3254780e+000
8.5932565e-001
4.6384633e-001
2.0395720e-001
3.6242612e-002
-1.3734989e-002
1.5949607e-003
1.4512083e-001
3.4039569e-001
6.1671436e-001
8.3065182e-001
9.0276146e-001
8.6759150e-001
6.4478892e-001
4.5851189e-001
3.4970930e-001
3.6390221e-001
5.6127846e-001
8.4807318e-001
1.2393737e+000
1.6394049e+000
2.0220299e+000
2.3108270e+000
2.4868479e+000
2.5445578e+000
2.5116668e+000
2.4474027e+000
2.3747787e+000
2.3286109e+000
2.2992058e+000
2.2832701e+000
2.2781858e+000
2.2891643e+000
2.3122609e+000
2.3571930e+000
2.4052560e+000
2.4529994e+000
2.4989796e+000
2.5395665e+000
2.5789115e+000
2.6170783e+000
2.6712172e+000
2.7636991e+000
2.9062960e+000
3.1346910e+000
3.3982916e+000
3.7031093e+000
3.9869955e+000
4.2380919e+000
4.4526858e+000
4.6381555e+000
4.8416286e+000
5.0818319e+000
5.4067945e+000
5.8022342e+000
6.2616525e+000
6.7440748e+000
7.1969180e+000
7.6115270e+000
7.9347458e+000
8.2012577e+000
8.3642197e+000
8.4741001e+000
8.4734678e+000
8.4231558e+000
8.2474470e+000
8.0274525e+000
7.6890860e+000
7.3216839e+000
6.8868117e+000
6.4488649e+000
6.0072856e+000
5.5801525e+000
5.1750507e+000
4.7650504e+000
4.3410807e+000
3.8795214e+000
3.3733900e+000
2.8491967e+000
2.3163784e+000
1.8158886e+000
1.3445629e+000
8.9913982e-001
4.7203529e-001
6.0322911e-002
-3.1660709e-001
-5.7758641e-001
-7.5818223e-001
-7.6455492e-001
-7.0915669e-001
-5.6225801e-001
-3.9576399e-001
-2.0045272e-001
-1.5641063e-002
1.2026949e-001
2.2660035e-001
2.4331494e-001
2.5663352e-001
2.6656610e-001
3.1325257e-001
4.3681550e-001
5.9975642e-001
8.1682014e-001
9.8719478e-001
1.0767486e+000
1.0402768e+000
8.6409926e-001
6.3104081e-001
3.6343992e-001
1.6410238e-001
4.0486470e-002
8.1633940e-002
2.4317390e-001
6.1680746e-001
1.0839689e+000
1.6164086e+000
2.1440322e+000
2.5528700e+000
2.9203458e+000
3.1797841e+000
3.4232695e+000
3.6339600e+000
3.8303378e+000
3.9677634e+000
4.0803499e+000
4.1126957e+000
4.1195350e+000
4.0674405e+000
4.0402722e+000
4.0767779e+000
4.2417283e+000
4.6155429e+000
5.0972815e+000
5.6990438e+000
6.2263298e+000
6.6687303e+000
7.0166793e+000
7.3008246e+000
7.6390634e+000
7.9962697e+000
8.2611074e+000
8.4507828e+000
8.3995962e+000
8.2738667e+000
8.1759653e+000
8.1088896e+000
8.2217388e+000
8.3659277e+000
8.5702610e+000
8.7690039e+000
8.9117556e+000
9.0312033e+000
9.0480299e+000
9.0449018e+000
8.9799128e+000
8.9196587e+000
8.8756714e+000
8.8863239e+000
9.0003405e+000
9.1479702e+000
9.3339014e+000
9.4198399e+000
9.3827991e+000
9.2401028e+000
9.0061378e+000
8.7863808e+000
8.5770845e+000
8.3739862e+000
8.1622105e+000
7.8270683e+000
7.4226255e+000
6.7833171e+000
6.0756865e+000
5.3092785e+000
4.5603471e+000
4.1229320e+000
3.7384491e+000
3.6709943e+000
3.6152148e+000
3.6206753e+000
3.6008775e+000
3.4661143e+000
3.2594841e+000
2.8277376e+000
2.3382843e+000
1.7204806e+000
1.1447392e+000
6.5104872e-001
3.0381417e-001
1.5950280e-001
1.5058416e-001
2.8344369e-001
4.6013916e-001
6.7338365e-001
9.1844392e-001
1.1796091e+000
1.3802850e+000
1.5448532e+000
1.5328472e+000
1.4616829e+000
1.3428783e+000
1.2118315e+000
1.0352414e+000
8.4652519e-001
5.0143129e-001
1.6585031e-001
5.7464980e-002
5.0353311e-004
1.2672991e-002
4.0010622e-001
8.5653657e-001
1.2672229e+000
1.5434997e+000
1.7959968e+000
1.9971840e+000
2.1723607e+000
2.3058851e+000
2.4307919e+000
2.5465841e+000
2.7350903e+000
2.9920013e+000
3.3232872e+000
3.7063949e+000
4.0552897e+000
4.3848410e+000
4.5581779e+000
4.6708097e+000
4.6020355e+000
4.4861388e+000
4.4252510e+000
4.3735709e+000
4.5630002e+000
