Image.
>Pix99999.
  .
5555
5555
2300
900
5555
2
1
0
701
5555
1.8727000e-001
1.9116443e-001
1.9505885e-001
1.9895329e-001
2.0285766e-001
2.0675215e-001
2.1064657e-001
2.1454100e-001
2.1843544e-001
2.2232985e-001
2.2622429e-001
2.3012856e-001
2.3402314e-001
2.3791757e-001
2.4181201e-001
2.4570644e-001
2.4960086e-001
2.5349528e-001
2.5739944e-001
2.6129416e-001
2.6518857e-001
2.6908299e-001
2.7297741e-001
2.7687186e-001
2.8077593e-001
2.8467071e-001
1.2199085e-001
4.4630999e-003
-6.4679042e-002
-8.0118209e-002
-8.8024639e-002
-3.1640004e-002
3.1707291e-002
1.4784782e-001
2.6516673e-001
3.7116149e-001
4.6983635e-001
5.3719354e-001
5.9871793e-001
6.4727187e-001
6.8586290e-001
7.0427966e-001
7.0332539e-001
6.7273396e-001
6.4586824e-001
6.2596297e-001
6.3954645e-001
6.8507797e-001
7.2468024e-001
7.5833833e-001
7.3394573e-001
6.7626143e-001
5.9462988e-001
5.0344193e-001
4.6248195e-001
4.3806937e-001
4.7505400e-001
5.2593851e-001
5.7832748e-001
6.3055354e-001
6.6001141e-001
6.8844950e-001
7.2892833e-001
7.7433443e-001
8.4118778e-001
9.0828764e-001
9.6843624e-001
1.0091815e+000
1.0019754e+000
9.6836662e-001
8.9422405e-001
8.2783806e-001
7.7873230e-001
7.5800586e-001
7.6717758e-001
7.8140855e-001
7.9730308e-001
8.1481189e-001
8.3319855e-001
8.7230706e-001
9.2269629e-001
9.6695912e-001
1.0084596e+000
9.8726261e-001
9.4621921e-001
8.7594515e-001
7.9909301e-001
7.8633237e-001
7.8517056e-001
8.0999881e-001
8.3278400e-001
8.1355548e-001
7.9370499e-001
7.9889154e-001
8.3098465e-001
9.3313313e-001
1.0384851e+000
1.1278304e+000
1.1760200e+000
1.1588902e+000
1.1144714e+000
1.0465164e+000
9.7371757e-001
8.9935160e-001
8.2271487e-001
7.4504501e-001
6.8205541e-001
6.2908578e-001
6.0511988e-001
5.9535974e-001
6.0414684e-001
6.1978579e-001
6.3142681e-001
6.4132607e-001
6.3986957e-001
6.3491762e-001
6.3357615e-001
6.3465434e-001
6.6359091e-001
6.9802845e-001
7.3277396e-001
7.5622755e-001
7.3599207e-001
7.0135814e-001
6.4855856e-001
6.0082179e-001
5.6817579e-001
5.4718345e-001
5.4233903e-001
5.4369408e-001
5.5226982e-001
5.5636722e-001
5.5423474e-001
5.4699421e-001
5.3456473e-001
5.3153801e-001
5.3363764e-001
5.3601182e-001
5.3723878e-001
5.1266587e-001
4.7870600e-001
4.3743539e-001
3.9630440e-001
3.8017833e-001
3.7284625e-001
3.8171372e-001
3.9477354e-001
4.0100181e-001
4.0500543e-001
3.9690381e-001
3.9243144e-001
4.0185395e-001
4.1274172e-001
4.2867500e-001
4.2137721e-001
3.8396731e-001
3.2232243e-001
2.3653972e-001
1.6624568e-001
1.1442418e-001
1.1808629e-001
1.6640240e-001
2.5818792e-001
3.7407291e-001
4.6165553e-001
5.2890366e-001
4.9435037e-001
4.1105148e-001
2.9784521e-001
1.7547537e-001
1.3033186e-001
1.1584289e-001
1.3395543e-001
1.6269286e-001
1.5331353e-001
1.2207000e-001
4.6435699e-002
-4.9870081e-002
-1.3228288e-001
-1.9709280e-001
-2.1819399e-001
-2.2462048e-001
-2.4127120e-001
-2.6052901e-001
-2.9291382e-001
-2.7358043e-001
-1.9027886e-001
-4.2445704e-002
1.6433267e-001
3.1270960e-001
4.0881827e-001
4.2237270e-001
3.8082206e-001
3.1109595e-001
2.2600992e-001
1.1231720e-001
-1.3471361e-002
-8.4457904e-002
-1.2532750e-001
-6.0202338e-002
4.8562288e-002
1.5688312e-001
2.4766403e-001
2.4046990e-001
1.7393863e-001
3.5145365e-002
-1.3291472e-001
-3.0337849e-001
-4.5484298e-001
-5.7047766e-001
-6.2185699e-001
-6.0008132e-001
-4.9870655e-001
-3.2708114e-001
-1.9146433e-001
-1.0123414e-001
-1.3876508e-001
-2.7313152e-001
-4.2328107e-001
-5.7487524e-001
-6.4763224e-001
-6.7031127e-001
-5.6389648e-001
-3.8777107e-001
-1.2709799e-001
1.6460180e-001
2.9694846e-001
3.2948458e-001
1.6548011e-001
-7.8990258e-002
-2.9663143e-001
-4.6612519e-001
-5.1922882e-001
-4.9912456e-001
-3.8147619e-001
-2.6816049e-001
-2.2662210e-001
-2.7027839e-001
-4.3571460e-001
-6.1152619e-001
-7.5108600e-001
-7.9146361e-001
-7.2067899e-001
-5.9405315e-001
-4.3766001e-001
-2.9535300e-001
-1.7442980e-001
-3.0468974e-002
1.2859520e-001
3.2889611e-001
5.5599713e-001
6.8960446e-001
7.6813883e-001
6.7248535e-001
4.8896202e-001
3.1622493e-001
1.7049183e-001
1.2177763e-001
1.5516725e-001
3.2486230e-001
5.7860345e-001
8.7617368e-001
1.0971454e+000
1.0729601e+000
8.6478323e-001
5.3292274e-001
2.3420760e-001
7.6003850e-002
2.4112541e-002
-5.1901329e-002
-9.7831689e-002
-6.4452544e-002
1.5635878e-001
5.5608213e-001
9.7992134e-001
1.3820071e+000
1.5006217e+000
1.3830212e+000
1.2333992e+000
1.0891964e+000
1.1295999e+000
1.2921467e+000
1.2253731e+000
9.8827350e-001
5.1410866e-001
-5.7826161e-002
-3.6410934e-001
-3.9050022e-001
5.0400317e-002
8.4720111e-001
2.0109859e+000
3.2460396e+000
4.1870832e+000
4.9654999e+000
5.6704803e+000
6.6170039e+000
8.0384216e+000
1.0128167e+001
1.2966831e+001
1.6250568e+001
1.9815714e+001
2.3033480e+001
2.5684723e+001
2.8109531e+001
3.0421040e+001
3.3313850e+001
3.6819477e+001
4.0798668e+001
4.5140240e+001
4.9010654e+001
5.2456799e+001
5.5965897e+001
5.9557404e+001
6.3523514e+001
6.7722046e+001
7.1694397e+001
7.5473045e+001
7.9036774e+001
8.2419052e+001
8.5630112e+001
8.8693459e+001
9.1616158e+001
9.4298096e+001
9.6653160e+001
9.8090790e+001
9.8249855e+001
9.7426994e+001
9.5931107e+001
9.4013260e+001
9.1830055e+001
8.8979813e+001
8.5401550e+001
8.1395271e+001
7.7141426e+001
7.3045494e+001
6.9156464e+001
6.5155441e+001
6.1001705e+001
5.6784042e+001
5.2527416e+001
4.8425488e+001
4.4522320e+001
4.1038715e+001
3.8009598e+001
3.5452179e+001
3.3329300e+001
3.1458824e+001
2.9833298e+001
2.8401270e+001
2.7189398e+001
2.6198999e+001
2.5426977e+001
2.4844875e+001
2.4421074e+001
2.4110945e+001
2.3952936e+001
2.3946081e+001
2.4156710e+001
2.4590378e+001
2.5290171e+001
2.6260828e+001
2.7383703e+001
2.8641817e+001
2.9874271e+001
3.1055561e+001
3.2229794e+001
3.3397846e+001
3.4746368e+001
3.6331520e+001
3.8456856e+001
4.1024788e+001
4.3272999e+001
4.5128635e+001
4.6392101e+001
4.7222210e+001
4.8151894e+001
4.9198196e+001
5.0384480e+001
5.1317200e+001
5.1568138e+001
5.1091858e+001
4.9940201e+001
4.8588501e+001
4.7406910e+001
4.6378456e+001
4.5485100e+001
4.4554569e+001
4.3515591e+001
4.2124435e+001
4.0327629e+001
3.8403099e+001
3.6413891e+001
3.4600521e+001
3.2963058e+001
3.0898685e+001
2.8239729e+001
2.5335829e+001
2.2248533e+001
1.9636864e+001
1.7574970e+001
1.5628000e+001
1.3767107e+001
1.1851789e+001
9.8583307e+000
7.8224950e+000
5.7852588e+000
3.8376503e+000
2.1609356e+000
9.1095221e-001
1.7322311e-001
6.1368346e-002
5.6112874e-001
1.5564017e+000
2.5846610e+000
3.3906493e+000
4.1075158e+000
4.7291460e+000
5.4716353e+000
6.4382987e+000
7.3367958e+000
8.0807600e+000
8.3512564e+000
7.9645581e+000
7.4260683e+000
6.7290535e+000
6.0866356e+000
5.5201383e+000
5.0235348e+000
4.6129975e+000
4.2948303e+000
4.0384960e+000
3.7607920e+000
3.4270468e+000
3.0259104e+000
2.6377900e+000
2.3664508e+000
2.2678943e+000
2.3738244e+000
2.5888138e+000
2.8206670e+000
2.9604828e+000
2.8998580e+000
2.8090746e+000
2.7539144e+000
2.8264651e+000
3.1084366e+000
3.4972312e+000
4.0316410e+000
4.5809517e+000
5.1354451e+000
5.5915928e+000
5.8790474e+000
6.0139618e+000
5.9417138e+000
5.7868795e+000
5.5176249e+000
5.1971159e+000
4.8170228e+000
4.4676585e+000
4.1609039e+000
3.9315457e+000
3.7394269e+000
3.5157220e+000
3.2506673e+000
2.9293320e+000
2.5920472e+000
2.2586751e+000
1.8989564e+000
1.4897572e+000
1.0577629e+000
6.3568413e-001
2.9648805e-001
1.0380629e-001
1.1132080e-002
2.1556385e-002
4.4253863e-002
2.0566079e-001
4.4511443e-001
8.0977857e-001
1.1174680e+000
1.3028085e+000
1.3113719e+000
1.0714045e+000
8.0562788e-001
5.3059000e-001
3.7187895e-001
3.6570731e-001
4.8869097e-001
7.4115902e-001
1.0272821e+000
1.3082100e+000
1.4897869e+000
1.5743543e+000
1.5515946e+000
1.4682055e+000
1.3549778e+000
1.2340629e+000
1.1269029e+000
1.0360833e+000
9.9373424e-001
9.8480713e-001
1.0429431e+000
1.1268429e+000
1.2477971e+000
1.3697441e+000
1.4853164e+000
1.5889859e+000
1.6713399e+000
1.7451892e+000
1.8052815e+000
1.8783600e+000
1.9705980e+000
2.0915954e+000
2.2510643e+000
2.4206264e+000
2.6107073e+000
2.8098714e+000
3.0398445e+000
3.3235440e+000
3.6729548e+000
4.0829172e+000
4.5473351e+000
5.0402689e+000
5.5581384e+000
6.0983338e+000
6.6493750e+000
7.2105451e+000
7.7598443e+000
8.2650547e+000
8.7268753e+000
9.0835524e+000
9.3820181e+000
9.5507078e+000
9.6600895e+000
9.6161280e+000
9.5130434e+000
9.2486172e+000
8.9370327e+000
8.5143728e+000
8.0598879e+000
7.5440969e+000
7.0142174e+000
6.4642625e+000
5.9335785e+000
5.4334817e+000
4.9586101e+000
4.5117898e+000
4.0607753e+000
3.6046491e+000
3.1438634e+000
2.6804714e+000
2.2237694e+000
1.7766045e+000
1.3533020e+000
9.6408510e-001
6.7416853e-001
4.4940057e-001
3.5973626e-001
3.1798095e-001
3.4311777e-001
3.8067201e-001
4.2916918e-001
4.7664368e-001
5.2032506e-001
5.5013871e-001
5.4048008e-001
5.1301408e-001
4.4273570e-001
3.7086576e-001
2.9560989e-001
2.2612886e-001
1.6462329e-001
1.0316747e-001
4.2014692e-002
-1.1008929e-002
-5.1014394e-002
-6.5655693e-002
-5.3814754e-002
-1.7203627e-002
3.6618892e-002
1.0055543e-001
2.0146440e-001
3.8830000e-001
6.2217402e-001
9.2818046e-001
1.2597456e+000
1.6189615e+000
1.9832797e+000
2.3493559e+000
2.7069170e+000
3.0188673e+000
3.3213201e+000
3.5876498e+000
3.8630145e+000
4.1672583e+000
4.4754500e+000
4.7913795e+000
5.0850801e+000
5.3357439e+000
5.5786734e+000
5.8130856e+000
6.0732832e+000
6.3677340e+000
6.6837678e+000
7.0190029e+000
7.3414378e+000
7.6478767e+000
7.9129858e+000
8.1451521e+000
8.3242893e+000
8.4724884e+000
8.5719309e+000
8.6562481e+000
8.7409515e+000
8.8262587e+000
8.9096394e+000
8.9791603e+000
8.9462576e+000
8.8959122e+000
8.7677708e+000
8.6479006e+000
8.5645504e+000
8.4878368e+000
8.4279156e+000
8.3349905e+000
8.1586399e+000
7.9272976e+000
7.5970464e+000
7.2707753e+000
6.9561434e+000
6.6920900e+000
6.4801173e+000
6.2259274e+000
5.9250627e+000
5.5410066e+000
5.1042395e+000
4.7169485e+000
4.3664594e+000
4.1260982e+000
3.9353948e+000
3.8156514e+000
3.7151823e+000
3.6178463e+000
3.5078218e+000
3.2507160e+000
2.9674337e+000
2.5217788e+000
2.0781317e+000
1.6591852e+000
1.2659053e+000
9.8680931e-001
7.3831582e-001
5.8638507e-001
4.4927227e-001
3.4528151e-001
2.2331336e-001
6.8372212e-002
-9.1247901e-002
-2.5410318e-001
-3.4610415e-001
-3.5795057e-001
-2.5505632e-001
-5.8197677e-002
1.8694487e-001
4.5632285e-001
6.5227902e-001
8.0964339e-001
8.6403376e-001
8.8394964e-001
8.5774183e-001
8.2079458e-001
7.4826199e-001
6.6858363e-001
5.1500654e-001
3.5732359e-001
1.8178853e-001
2.3504520e-002
-2.0367801e-003
-6.1082788e-002
-3.2808229e-002
-2.2870343e-002
-6.8475336e-002
-1.5453236e-001
-3.2595211e-001
-4.6803811e-001
-5.6063241e-001
-5.1301455e-001
-2.9449174e-001
7.8881085e-003
3.8665473e-001
6.4628190e-001
8.2100964e-001
8.7614489e-001
8.6711943e-001
9.6023029e-001
1.0896050e+000
1.3841159e+000
1.7185144e+000
1.9548280e+000
2.1739151e+000
2.1145999e+000
