Image.
>Pix99999.
  .
5555
5555
2300
900
5555
2
1
0
701
5555
3.8112000e-002
3.8921840e-002
3.9731681e-002
4.0541526e-002
4.1351367e-002
4.2161208e-002
4.2971049e-002
4.3780889e-002
4.4590730e-002
4.5399584e-002
4.6209414e-002
4.7019254e-002
4.7829099e-002
4.8638940e-002
4.9448781e-002
5.0258622e-002
5.1068462e-002
5.1878303e-002
5.2688144e-002
5.3497013e-002
5.4306827e-002
5.5116668e-002
5.5926513e-002
5.6736354e-002
5.7546195e-002
5.8356036e-002
2.6859133e-002
9.8908716e-004
-3.8569920e-002
-6.6037342e-002
-9.1605209e-002
-1.6412053e-001
-2.3876286e-001
-2.8500143e-001
-3.1751814e-001
-2.5132549e-001
-1.7244342e-001
-5.8419444e-002
5.6394648e-002
1.6790858e-001
2.7859798e-001
3.8784698e-001
4.6165740e-001
4.7772971e-001
4.1108194e-001
2.4572943e-001
6.3445047e-002
-1.2910780e-001
-2.0634994e-001
-1.9691610e-001
-9.2369072e-002
6.3712269e-002
1.6158044e-001
2.3240511e-001
2.0987123e-001
1.5757172e-001
1.3738480e-001
1.2501389e-001
1.7787629e-001
2.3980731e-001
2.5135943e-001
2.5219646e-001
1.8431857e-001
1.1233650e-001
5.4302212e-002
8.1603080e-003
4.8821967e-004
-1.4074004e-002
-5.6108065e-002
-1.2971765e-001
-2.5795302e-001
-3.7562123e-001
-4.6981949e-001
-5.0420666e-001
-4.7396779e-001
-4.1470179e-001
-3.3572948e-001
-2.5919101e-001
-1.8573214e-001
-1.2551247e-001
-7.2352804e-002
-6.2122881e-002
-6.9762915e-002
-9.3222417e-002
-1.2123104e-001
-1.3341692e-001
-1.4180502e-001
-1.9077286e-001
-2.4821863e-001
-3.4314358e-001
-4.4051701e-001
-5.1650131e-001
-5.8806676e-001
-6.5395433e-001
-7.1723652e-001
-7.7514714e-001
-8.1652695e-001
-8.2311046e-001
-8.1872618e-001
-8.0451757e-001
-7.6671141e-001
-6.9981891e-001
-5.8750415e-001
-4.3253416e-001
-3.2598153e-001
-2.6462701e-001
-2.8932548e-001
-3.6678511e-001
-4.2135143e-001
-4.6015480e-001
-4.8380387e-001
-5.0190705e-001
-5.4239756e-001
-5.9024233e-001
-6.0428160e-001
-6.1011982e-001
-6.3638395e-001
-6.7088652e-001
-7.5134587e-001
-8.3782339e-001
-9.0768087e-001
-9.7194791e-001
-1.0271740e+000
-1.0789508e+000
-1.1255223e+000
-1.1557785e+000
-1.1558441e+000
-1.1185373e+000
-1.0340154e+000
-9.1703206e-001
-7.7252257e-001
-6.7695838e-001
-6.3360918e-001
-7.0196354e-001
-8.5042584e-001
-9.9658310e-001
-1.1323880e+000
-1.1208595e+000
-1.0332609e+000
-9.1638601e-001
-7.9168802e-001
-8.7292975e-001
-1.0244651e+000
-1.3261063e+000
-1.6600560e+000
-1.8859822e+000
-2.0652835e+000
-2.1084940e+000
-2.1191320e+000
-2.1358259e+000
-2.1543143e+000
-2.1720250e+000
-2.1646051e+000
-2.1032834e+000
-2.0384059e+000
-1.9933236e+000
-2.0030515e+000
-2.0824807e+000
-2.2090480e+000
-2.3693855e+000
-2.4771600e+000
-2.5286770e+000
-2.4047065e+000
-2.1545563e+000
-1.8553429e+000
-1.5397986e+000
-1.4849157e+000
-1.5697795e+000
-1.8189800e+000
-2.1326427e+000
-2.3044672e+000
-2.4199691e+000
-2.4184599e+000
-2.3837039e+000
-2.3729203e+000
-2.3854499e+000
-2.4831719e+000
-2.6222379e+000
-2.8231299e+000
-3.0170417e+000
-3.1451485e+000
-3.2058711e+000
-3.1671278e+000
-3.1062195e+000
-3.0525684e+000
-2.9968171e+000
-2.9336042e+000
-2.7572434e+000
-2.4626098e+000
-2.1156008e+000
-1.7505572e+000
-1.4848297e+000
-1.2974417e+000
-1.2177244e+000
-1.1967257e+000
-1.3378299e+000
-1.5633039e+000
-1.8070745e+000
-2.0558422e+000
-2.0411868e+000
-1.9128714e+000
-1.6495520e+000
-1.3647646e+000
-1.2938391e+000
-1.3661566e+000
-1.7068036e+000
-2.1379340e+000
-2.5412183e+000
-2.8539376e+000
-2.9766009e+000
-2.9379900e+000
-2.7174823e+000
-2.3098924e+000
-1.7078848e+000
-1.1341724e+000
-6.7807657e-001
-6.3942122e-001
-1.0115513e+000
-1.5712328e+000
-2.2014439e+000
-2.6173315e+000
-2.8523993e+000
-2.7867084e+000
-2.5398841e+000
-2.0963161e+000
-1.5501928e+000
-1.2151572e+000
-1.0054463e+000
-1.2267147e+000
-1.6451104e+000
-2.0015285e+000
-2.2646060e+000
-2.1718175e+000
-1.8776833e+000
-1.4374797e+000
-1.0387855e+000
-9.3509036e-001
-1.0672545e+000
-1.4413381e+000
-1.8690703e+000
-2.2195685e+000
-2.4449778e+000
-2.5273185e+000
-2.4990103e+000
-2.3957200e+000
-2.1917701e+000
-1.9065535e+000
-1.5642402e+000
-1.1865731e+000
-8.0656564e-001
-4.3007642e-001
-8.4466070e-002
2.3594570e-001
3.1916302e-001
2.4930580e-001
6.1633978e-002
-1.7673239e-001
-2.3808002e-001
-1.6939095e-001
1.2249020e-001
5.5441058e-001
1.0777643e+000
1.5355794e+000
1.6251276e+000
1.4290817e+000
9.6296573e-001
4.8879659e-001
2.5311875e-001
7.7429034e-002
-1.6086766e-001
-3.2377356e-001
-3.4531456e-001
1.9226819e-002
7.9944515e-001
1.7161680e+000
2.6395142e+000
3.0186851e+000
2.8712232e+000
2.5410037e+000
2.1505880e+000
2.1728001e+000
2.5239112e+000
2.7310069e+000
2.7867756e+000
2.2121761e+000
1.2371056e+000
4.2960304e-001
-1.3133600e-001
1.2407744e-001
1.0986516e+000
2.6715755e+000
4.3339329e+000
5.3333445e+000
5.8652177e+000
6.1540418e+000
6.6507077e+000
7.7839098e+000
9.7883739e+000
1.2738540e+001
1.6301340e+001
2.0170000e+001
2.3540112e+001
2.6153042e+001
2.8522158e+001
3.0885744e+001
3.4191895e+001
3.8453026e+001
4.3331589e+001
4.8608799e+001
5.2950893e+001
5.6459499e+001
6.0032360e+001
6.3751656e+001
6.8124969e+001
7.2964745e+001
7.7619850e+001
8.2074005e+001
8.6244461e+001
9.0151550e+001
9.3833763e+001
9.7317261e+001
1.0065414e+002
1.0364040e+002
1.0603023e+002
1.0697388e+002
1.0578143e+002
1.0313043e+002
9.9735764e+001
9.6125870e+001
9.2655869e+001
8.8720169e+001
8.4106331e+001
7.9129410e+001
7.3946793e+001
6.9127243e+001
6.4760857e+001
6.0459198e+001
5.6155033e+001
5.1915173e+001
4.7738377e+001
4.3614117e+001
3.9567829e+001
3.5801079e+001
3.2377251e+001
2.9526920e+001
2.7226213e+001
2.5299030e+001
2.3721554e+001
2.2378103e+001
2.1282063e+001
2.0417500e+001
1.9788763e+001
1.9363405e+001
1.9104362e+001
1.8951595e+001
1.8925613e+001
1.9032120e+001
1.9384480e+001
2.0033895e+001
2.1084438e+001
2.2555344e+001
2.4206877e+001
2.5943449e+001
2.7401718e+001
2.8501921e+001
2.9465878e+001
3.0336023e+001
3.1664032e+001
3.3578262e+001
3.6471157e+001
4.0290043e+001
4.3691761e+001
4.6496319e+001
4.8396870e+001
4.9580212e+001
5.0980572e+001
5.2627743e+001
5.4495083e+001
5.6027920e+001
5.6319592e+001
5.5343399e+001
5.3285168e+001
5.0854565e+001
4.8864555e+001
4.7337807e+001
4.6269749e+001
4.5375698e+001
4.4471230e+001
4.3168823e+001
4.1248108e+001
3.9029488e+001
3.6590725e+001
3.4314838e+001
3.2323891e+001
2.9957842e+001
2.7061279e+001
2.3853481e+001
2.0336002e+001
1.7377731e+001
1.5082660e+001
1.3050143e+001
1.1312722e+001
9.6867428e+000
8.1608095e+000
6.6186624e+000
5.0328102e+000
3.3610120e+000
1.7762847e+000
5.8202428e-001
-6.6623643e-002
6.9496930e-003
7.7153444e-001
2.0514073e+000
3.3281729e+000
4.2079611e+000
4.7969127e+000
5.1358762e+000
5.6167622e+000
6.4561591e+000
7.4309411e+000
8.5082207e+000
9.1077566e+000
8.9302416e+000
8.4824677e+000
7.6867075e+000
6.9440179e+000
6.2852325e+000
5.7057071e+000
5.2613802e+000
4.9939032e+000
4.9267960e+000
4.8791246e+000
4.7969589e+000
4.5295010e+000
4.1255021e+000
3.7864866e+000
3.5947750e+000
3.6726258e+000
3.9636376e+000
4.3621178e+000
4.7224140e+000
4.8725090e+000
4.8973536e+000
4.8570004e+000
4.8817368e+000
5.0832157e+000
5.4088216e+000
5.8856959e+000
6.4059958e+000
6.9603605e+000
7.4294572e+000
7.7263050e+000
7.8700280e+000
7.7435713e+000
7.5152168e+000
7.1227098e+000
6.6404834e+000
6.0527086e+000
5.4945412e+000
5.0053639e+000
4.6432629e+000
4.4129324e+000
4.1948638e+000
3.9777901e+000
3.7357922e+000
3.4772770e+000
3.2364156e+000
2.9677999e+000
2.5937743e+000
2.1312091e+000
1.5693072e+000
1.0046571e+000
5.3007042e-001
1.5303577e-001
-5.7894744e-002
-1.4057724e-001
-9.5911548e-003
2.3346803e-001
6.6995931e-001
1.0492653e+000
1.2815286e+000
1.3452309e+000
1.1000657e+000
8.5584837e-001
6.3962620e-001
5.7424563e-001
7.5079399e-001
1.0978765e+000
1.6554160e+000
2.2678530e+000
2.8852100e+000
3.3275938e+000
3.5543721e+000
3.5451920e+000
3.3605103e+000
3.1320071e+000
2.9178081e+000
2.8174710e+000
2.7874405e+000
2.8148541e+000
2.8439429e+000
2.8220038e+000
2.7834105e+000
2.7291682e+000
2.6839321e+000
2.6668887e+000
2.6485739e+000
2.6205108e+000
2.5986862e+000
2.5953014e+000
2.6410286e+000
2.7862291e+000
2.9735930e+000
3.2244341e+000
3.4522066e+000
3.6431372e+000
3.8103633e+000
3.9621530e+000
4.1678081e+000
4.4391704e+000
4.7724714e+000
5.1471734e+000
5.5006099e+000
5.8318481e+000
6.1320338e+000
6.4240499e+000
6.7379632e+000
7.0691299e+000
7.4280281e+000
7.7900534e+000
8.1379833e+000
8.4382734e+000
8.5940113e+000
8.6615105e+000
8.4906130e+000
8.2633982e+000
7.8949189e+000
7.5271416e+000
7.1637902e+000
6.8244801e+000
6.5262604e+000
6.1990986e+000
5.8178830e+000
5.3879128e+000
4.8988323e+000
4.4328065e+000
3.9991701e+000
3.6024089e+000
3.2410440e+000
2.8919492e+000
2.5538001e+000
2.2237301e+000
1.8988663e+000
1.5764220e+000
1.2683468e+000
1.0151868e+000
8.0968350e-001
7.2608829e-001
6.9741422e-001
7.8102738e-001
8.8585997e-001
1.0147707e+000
1.1264871e+000
1.1649717e+000
1.1880012e+000
1.1633364e+000
1.1386526e+000
1.1123110e+000
1.0740348e+000
1.0127192e+000
9.4744974e-001
8.7668556e-001
8.0832416e-001
7.3780262e-001
6.3523859e-001
4.9789181e-001
3.5036486e-001
2.0159993e-001
9.3131907e-002
2.6190670e-002
4.0913686e-002
1.2495448e-001
3.3151993e-001
6.1295414e-001
1.0420442e+000
1.5178037e+000
2.0277810e+000
2.5129480e+000
2.8345199e+000
3.1132998e+000
3.2445657e+000
3.3758647e+000
3.5173624e+000
3.6588600e+000
3.8000243e+000
3.9379001e+000
4.0704479e+000
4.2262583e+000
4.4307475e+000
4.6711931e+000
4.9666858e+000
5.2674894e+000
5.5720720e+000
5.8586726e+000
6.1309223e+000
6.4241309e+000
6.7295480e+000
7.0078411e+000
7.2537875e+000
7.3818154e+000
7.4547644e+000
7.5103445e+000
7.5604119e+000
7.6121755e+000
7.6364965e+000
7.4597621e+000
7.2496758e+000
6.9856615e+000
6.7769947e+000
6.9434643e+000
7.1742773e+000
7.6813564e+000
8.1496878e+000
8.4865036e+000
8.7107553e+000
8.6593714e+000
8.5255766e+000
8.2388754e+000
7.9397326e+000
7.6257305e+000
7.3435497e+000
7.0975008e+000
6.8524971e+000
6.6025476e+000
6.2886457e+000
5.9291511e+000
5.5490055e+000
5.1657867e+000
4.8635349e+000
4.6005540e+000
4.4269600e+000
4.2726793e+000
4.0666771e+000
3.8360224e+000
3.4253960e+000
2.9935923e+000
2.4906983e+000
2.0016806e+000
1.6128297e+000
1.2579550e+000
1.0534042e+000
8.7681377e-001
7.8507990e-001
6.7381370e-001
5.1684213e-001
3.4114563e-001
1.3597371e-001
-2.9694244e-002
-1.3873440e-001
-1.8434668e-001
-1.6055599e-001
-6.2463216e-002
9.4491482e-002
2.4995551e-001
4.0202793e-001
5.0211149e-001
5.8136523e-001
7.1096343e-001
8.5463470e-001
9.5787030e-001
1.0426326e+000
9.0944505e-001
7.4540997e-001
4.7130758e-001
2.0297942e-001
8.2023695e-002
1.2413291e-003
8.1843883e-003
2.6727551e-001
8.4565037e-001
1.4442201e+000
2.0993381e+000
2.6543071e+000
2.9942341e+000
3.2473285e+000
3.3640242e+000
3.5676961e+000
3.8770683e+000
4.1872315e+000
4.4939451e+000
4.5578656e+000
4.4488525e+000
4.2035785e+000
3.8882411e+000
3.6830099e+000
3.5221937e+000
3.5215418e+000
3.5640795e+000
3.6758525e+000
3.7991819e+000
3.9963000e+000
