<?xml version="1.0" encoding="utf-8"?>
<Document>
  <Version>0.0.0</Version>
  <charset>utf-8</charset>
  <ApplicationBuildDateTime>xxxx-xx-xx</ApplicationBuildDateTime>
  <Copyright>Copyright (c) 2007-2019 Vernier Software &amp; Technology and its licensors</Copyright>
  <FileName>data55.csv</FileName>
  <CreatorOS>0</CreatorOS>
  <CreatorApp>0</CreatorApp>
  <AbsoluteVersion>0.0.0</AbsoluteVersion>
  <Page>
    <ID>102</ID>
    <BroadcastTo>0</BroadcastTo>
    <PageTable>
      <ID>101</ID>
      <BroadcastTo>0</BroadcastTo>
      <Visible>1</Visible>
      <TableColumn>104 0.9</TableColumn>
      <TableColumn>106 0.9</TableColumn>
      <TableColumn>108 0.9</TableColumn>
      <TableColumn>110 0.9</TableColumn>
      <TableColumn>112 0.9</TableColumn>
      <TableColumn>114 0.9</TableColumn>
      <TableColumn>116 0.9</TableColumn>
      <TableColumn>118 0.9</TableColumn>
    </PageTable>
    <PageGraphCartesian>
      <ID>120</ID>
      <BroadcastTo>0</BroadcastTo>
      <Visible>1</Visible>
      <GraphPlotXMin>1.000000000000</GraphPlotXMin>
      <GraphPlotXMax>400.000000000000</GraphPlotXMax>
      <GraphPlotYMin>-3.558823600000</GraphPlotYMin>
      <GraphPlotYMax>107.745540000000</GraphPlotYMax>
      <UDMGraphPlotRightYMin>0.000000000000</UDMGraphPlotRightYMin>
      <UDMGraphPlotRightYMax>0.000000000000</UDMGraphPlotRightYMax>
      <UDMGraphPlotRightYEnabled>0</UDMGraphPlotRightYEnabled>
      <GraphConnectLines>1</GraphConnectLines>
      <GraphShowPointProtectors>0</GraphShowPointProtectors>
      <GraphDrawRainbow>0</GraphDrawRainbow>
      <GraphPlotXAutoscale>0</GraphPlotXAutoscale>
      <GraphPlotYAutoscale>0</GraphPlotYAutoscale>
      <UDMGraphPlotRightYAutoscale>0</UDMGraphPlotRightYAutoscale>
      <GraphPlotBaseColumnID>104</GraphPlotBaseColumnID>
      <GraphInterpolate>0</GraphInterpolate>
      <GraphTitle></GraphTitle>
    </PageGraphCartesian>
  </Page>
  <DataSet>
    <ID>103</ID>
    <BroadcastTo>1 101</BroadcastTo>
    <DataSetName>CSV dataset</DataSetName>
    <DataSetLatest>1</DataSetLatest>
    <DataSetMatrixLatest>0</DataSetMatrixLatest>
    <DataColumn>
      <ID>104</ID>
      <ColumnGroupID>105</ColumnGroupID>
      <UDMVertexID>0</UDMVertexID>
      <BroadcastTo>2 101 120</BroadcastTo>
      <DataObjectName></DataObjectName>
      <ColumnUnits></ColumnUnits>
      <ColumnProtected>0</ColumnProtected>
      <ColumnUserEditable>1</ColumnUserEditable>
      <ColumnDataType>0</ColumnDataType>
      <StartTime>1566247772</StartTime>
      <ColumnStartCollectTime>1566247772</ColumnStartCollectTime>
      <ColumnUserCreated>1</ColumnUserCreated>
      <ColumnAllowUserDelete>1</ColumnAllowUserDelete>
      <DataObjectPrecisionDecimal>1</DataObjectPrecisionDecimal>
      <DataObjectPrecision>1</DataObjectPrecision>
      <ColumnForceScientific>0</ColumnForceScientific>
      <UDMAutomaticPrecision>0</UDMAutomaticPrecision>
      <ColumnMatrixStyleNum>0</ColumnMatrixStyleNum>
      <ColumnPPStyle>2</ColumnPPStyle>
      <DataObjectDataSource>0</DataObjectDataSource>
      <ColumnSensorColumn>0</ColumnSensorColumn>
      <ColumnSensorInputColumn>0</ColumnSensorInputColumn>
      <ColumnShowLiveReadout>0</ColumnShowLiveReadout>
      <ColumnCells>
1
2
3
4
5
6
7
8
9
10
11
12
13
14
15
16
17
18
19
20
21
22
23
24
25
26
27
28
29
30
31
32
33
34
35
36
37
38
39
40
41
42
43
44
45
46
47
48
49
50
51
52
53
54
55
56
57
58
59
60
61
62
63
64
65
66
67
68
69
70
71
72
73
74
75
76
77
78
79
80
81
82
83
84
85
86
87
88
89
90
91
92
93
94
95
96
97
98
99
100
101
102
103
104
105
106
107
108
109
110
111
112
113
114
115
116
117
118
119
120
121
122
123
124
125
126
127
128
129
130
131
132
133
134
135
136
137
138
139
140
141
142
143
144
145
146
147
148
149
150
151
152
153
154
155
156
157
158
159
160
161
162
163
164
165
166
167
168
169
170
171
172
173
174
175
176
177
178
179
180
181
182
183
184
185
186
187
188
189
190
191
192
193
194
195
196
197
198
199
200
201
202
203
204
205
206
207
208
209
210
211
212
213
214
215
216
217
218
219
220
221
222
223
224
225
226
227
228
229
230
231
232
233
234
235
236
237
238
239
240
241
242
243
244
245
246
247
248
249
250
251
252
253
254
255
256
257
258
259
260
261
262
263
264
265
266
267
268
269
270
271
272
273
274
275
276
277
278
279
280
281
282
283
284
285
286
287
288
289
290
291
292
293
294
295
296
297
298
299
300
301
302
303
304
305
306
307
308
309
310
311
312
313
314
315
316
317
318
319
320
321
322
323
324
325
326
327
328
329
330
331
332
333
334
335
336
337
338
339
340
341
342
343
344
345
346
347
348
349
350
351
352
353
354
355
356
357
358
359
360
361
362
363
364
365
366
367
368
369
370
371
372
373
374
375
376
377
378
379
380
381
382
383
384
385
386
387
388
389
390
391
392
393
394
395
396
397
398
399
400
</ColumnCells>
    </DataColumn>
    <DataColumn>
      <ID>106</ID>
      <ColumnGroupID>107</ColumnGroupID>
      <UDMVertexID>0</UDMVertexID>
      <BroadcastTo>2 101 120</BroadcastTo>
      <DataObjectName>1638</DataObjectName>
      <ColumnUnits></ColumnUnits>
      <ColumnProtected>0</ColumnProtected>
      <ColumnUserEditable>1</ColumnUserEditable>
      <ColumnDataType>0</ColumnDataType>
      <StartTime>1566247772</StartTime>
      <ColumnStartCollectTime>1566247772</ColumnStartCollectTime>
      <ColumnUserCreated>1</ColumnUserCreated>
      <ColumnAllowUserDelete>1</ColumnAllowUserDelete>
      <DataObjectPrecisionDecimal>1</DataObjectPrecisionDecimal>
      <DataObjectPrecision>1</DataObjectPrecision>
      <ColumnForceScientific>0</ColumnForceScientific>
      <UDMAutomaticPrecision>0</UDMAutomaticPrecision>
      <ColumnMatrixStyleNum>0</ColumnMatrixStyleNum>
      <ColumnPPStyle>3</ColumnPPStyle>
      <DataObjectDataSource>0</DataObjectDataSource>
      <ColumnSensorColumn>0</ColumnSensorColumn>
      <ColumnSensorInputColumn>0</ColumnSensorInputColumn>
      <ColumnShowLiveReadout>0</ColumnShowLiveReadout>
      <DataObjectColor>0xd8d8 0x2626 0x2f2f</DataObjectColor>
      <ColumnCells>
23.826851
36.252453
35.692017
27.971579
33.165874
0.18575436
36.697491
0.25003436
0
-0.55791581
0.095545717
0
83.184456
89.941322
75.355927
40.207561
0.070921727
66.017426
0
35.352257
0.0544286
90.761566
-0.082813568
51.707371
86.814056
32.259903
36.136124
-0.11003111
-2.0222156
0
29.829845
85.333099
35.176678
29.486704
0.76408827
1.1200961
68.313026
29.974243
0
0
98.271942
0
0
27.386183
55.147835
94.399025
43.100143
39.724335
0
26.3316
-0.68113112
32.801926
0.27213418
0.79422241
77.419044
-1.3020201
0.015722796
-0.35309118
0
0.62901509
0
1.4699452
27.304594
-1.830465
0
0
80.441055
47.882713
28.756899
39.492676
30.205658
29.864
26.170315
0
23.634665
41.668583
-1.7659663
29.313999
26.115343
95.67907
0
32.167614
2.371135
91.342445
33.276218
0
-0.022833731
26.65769
69.204041
94.907379
26.050314
91.975998
24.132252
0
0
-1.2317611
36.819477
0
26.512297
76.108673
12.812009
0
-1.2833195
-1.4933332
-2.0724034
-1.3469111
-1.7167189
-0.60403264
-2.0052612
-0.90872371
-0.39319733
0
0
-1.1622336
-1.589959
0
0
-1.5897126
94.256294
0
-1.3661472
-0.19813804
0
-2.04388
-0.7629537
0
-0.56181884
1.8764083
0.13880374
-1.5473266
-1.1887499
0
20.133858
56.331779
0
0.30018276
0
0
0
-0.520639
32.266834
0
3.2449961
-1.3459687
-2.1263349
0
0
-1.1361663
0
0
0
0
-1.1854777
-1.0465719
-1.0540429
-0.89692211
0
-0.42428905
0
-2.2132893
-1.0739714
0
-1.134653
0.95676941
-0.28932703
0
-0.82687116
0
-0.68678194
0
-1.2007612
0
29.42424
30.847921
0
61.939587
85.445526
92.802811
0
81.071449
0
-1.561546
0.80332577
-0.89261073
75.327286
-1.6898123
24.983463
0
64.088646
0
-0.2665377
82.007698
3.1164017
0
-2.1700983
0
82.747139
0
24.8235
0
0.1834068
57.188572
0
0
0
-0.60452759
90.035934
25.856646
51.122204
25.0362
50.673161
0
-0.60222697
7.4084301
5.359508
0.22694099
0
25.199652
35.61359
-1.2591015
27.880903
53.759472
-0.37465516
24.244862
0
-0.38492325
0
-0.36468822
26.080978
-1.6347619
0.074917659
-0.65610552
0
0
-0.058187548
0
0
-0.76478106
-0.93677509
-1.0131787
0
0
0.028691046
18.02174
3.6962686
0.25731897
91.784042
102.7982
0
-0.79752535
0
102.8325
0
-1.0977287
0.013895422
35.19957
0
22.2575
0
-1.0519099
-1.4086803
-2.1133771
0
0
2.9690599
0.30485868
0
-1.1035821
-0.47520831
79.150833
70.77919
0.34580702
-0.57043272
98.147629
-0.50619376
1.1507872
103.14434
0
0
23.091499
0
-1.168548
92.604683
26.134569
-0.97940928
-0.8155573
11.02991
-0.63306129
0
0
-0.11680834
0.15458243
-1.0873079
84.432755
-0.72996521
0.10673208
0
7.4009676
40.808243
0
0
-0.68004566
-0.63166177
0
-1.5109136
-0.19248867
-0.97689903
-1.1940743
0
0.081339538
0
0
-1.2400188
28.792244
99.8545
-1.3443131
98.01944
-1.2004114
13.059566
1.0917273
69.602112
0
92.938141
-0.49228191
31.875692
0.57495934
-1.0838246
-0.15173911
-0.006634798
-0.84983277
18.229572
78.186363
-0.81674594
-0.86701459
0.57552934
-1.7395178
97.528763
0
94.642044
0.28947449
58.015808
-1.142766
1.7813915
43.712944
0
0
60.993721
89.7173
0
0.35115406
-0.54990673
-1.6699142
-0.56331998
-0.55955714
-0.25486359
9.3216114
-0.17109419
87.627869
0
0
-1.2039455
-0.88353819
-1.8832206
0
21.835423
24.948589
0
0
0
0
0
28.088066
53.493553
0
0
65.380165
-0.351612
-1.2468206
-0.37481102
0
0
52.853798
0.26385564
16.715
0
0
-0.13044581
0.30466071
22.72496
0
-0.38409391
25.320961
34.890465
28.227629
0
-0.33695519
0
0
0.027169839
0
</ColumnCells>
    </DataColumn>
    <DataColumn>
      <ID>108</ID>
      <ColumnGroupID>109</ColumnGroupID>
      <UDMVertexID>0</UDMVertexID>
      <BroadcastTo>2 101 120</BroadcastTo>
      <DataObjectName>1640</DataObjectName>
      <ColumnUnits></ColumnUnits>
      <ColumnProtected>0</ColumnProtected>
      <ColumnUserEditable>1</ColumnUserEditable>
      <ColumnDataType>0</ColumnDataType>
      <StartTime>1566247772</StartTime>
      <ColumnStartCollectTime>1566247772</ColumnStartCollectTime>
      <ColumnUserCreated>1</ColumnUserCreated>
      <ColumnAllowUserDelete>1</ColumnAllowUserDelete>
      <DataObjectPrecisionDecimal>1</DataObjectPrecisionDecimal>
      <DataObjectPrecision>1</DataObjectPrecision>
      <ColumnForceScientific>0</ColumnForceScientific>
      <UDMAutomaticPrecision>0</UDMAutomaticPrecision>
      <ColumnMatrixStyleNum>0</ColumnMatrixStyleNum>
      <ColumnPPStyle>4</ColumnPPStyle>
      <DataObjectDataSource>0</DataObjectDataSource>
      <ColumnSensorColumn>0</ColumnSensorColumn>
      <ColumnSensorInputColumn>0</ColumnSensorInputColumn>
      <ColumnShowLiveReadout>0</ColumnShowLiveReadout>
      <DataObjectColor>0x3b3b 0x8b8b 0xcccc</DataObjectColor>
      <ColumnCells>
26.553942
34.5672
33.727741
27.282795
31.792
0.34779906
34.954361
0.2817499
-0.363554
0
0.065082036
-0.31471771
85.625648
91.702957
78.094604
37.903965
0.023950392
70.628288
-0.65067822
38.94989
0.079417512
92.833542
0
47.761402
88.723412
30.597549
33.898941
0
0
-0.26800653
28.400251
88.532021
33.23967
28.263397
0.54211497
1.1911013
73.003098
28.862999
-2.3617284
-0.61321843
98.292969
-0.32073048
-1.1050627
26.672846
58.494987
95.778816
40.694263
37.471424
-0.79631251
27.354061
0
31.446999
0.29093328
0.8132869
80.601501
0
0
0
-0.34755874
0.66216302
-1.4177136
1.2573162
26.460352
0
-0.3690269
-3.0904155
76.779373
51.080402
27.858343
37.162399
29.022999
28.918257
26.948643
-0.37059757
26.077869
39.237457
0
28.290358
27.040676
95.932693
-1.1187872
30.929501
3.3427343
88.297058
31.602606
-0.005761097
0.18409044
25.960196
65.274788
92.21357
26.901367
88.866035
24.673151
-1.4015303
-0.82047427
0
40.798668
-0.60109425
29.14208
80.238304
16.261738
-1.6749943
0
0
0
0
0
0
0
0
0
-2.7174823
-2.0252223
0
0
-1.1116143
-1.3433641
0
91.009552
-0.65727246
0
0.19222754
-2.2960827
0
0
-0.022328194
0
2.8765786
0
0
0
-0.76169431
23.674021
51.933468
-0.89230716
0.32146779
-1.7685066
-1.1761103
-1.290496
0
35.571636
-0.24175179
4.0422935
0
0
-1.9729561
-0.6682235
0
-0.9976455
-1.1948428
-1.2469649
-1.2554555
0
0
0
0
-0.44959259
0
-1.2468867
0
0
-0.015719075
0
0.2883696
0
-3.5588236
0
-0.95959485
0
-1.4617393
0
-0.070113868
30.45072
34.581802
-1.8838857
57.155907
89.809174
88.853004
-0.94156921
85.892914
-0.86021656
0
0.70546973
0
80.190498
0
23.861557
-1.1643571
68.192719
-1.9625856
0.0751784
87.016747
3.6406419
-0.51334268
0
-1.5370331
86.761292
-2.13954
24.164335
-0.67698169
0.22234771
60.840084
-0.5519892
-0.038949534
-0.23145016
0
92.221855
25.0725
55.036602
24.299999
54.758427
-1.5002972
0
10.347515
7.4378982
0.34977999
-0.031996123
24.1607
32.940983
0
29.320665
57.504841
0
23.435501
-0.52719468
0
-0.68181986
0
29.083673
0
0.13264494
0
-0.040182736
-1.5499657
0
-1.0650537
-0.81561881
0
0
0
-0.39303052
-0.97115308
0.11523691
21.604097
4.5701475
0.71206546
95.055626
103.53387
-0.78752321
0
-0.009144608
100.25973
-0.4798291
0
0
32.531528
-0.039542068
21.819
-0.52700549
0
0
0
-0.64419276
-0.35234496
3.8038287
0.3626774
-0.097483329
0
0
74.937836
75.697754
0.28735808
0
96.416611
0
1.5560548
101.36071
-0.23224108
-0.55316782
22.730913
-0.51062626
0
89.674522
27.253241
0
0
14.881857
0
-0.70864552
-0.20678838
0
0.1644554
0
88.950569
0
0.056799665
-1.3553783
10.213175
46.506721
-0.46033537
-0.57997507
0
0
-0.17001922
0
0
0
0
-0.29635456
0.81313598
-0.73717219
-0.68916154
0
31.63916
99.707359
0
97.780182
0
16.593273
1.2429168
75.042229
-0.53159106
94.558685
0
29.872065
1.3666981
0
0.07069429
0
0
22.07489
74.685577
0
0
1.3241795
0
97.746857
-0.68609172
93.61232
0.58770633
52.948021
0
1.7958711
39.794609
-0.096635029
-0.73783296
55.938354
86.939079
-1.9028926
0.33690348
0
0
0
0
0
12.53814
0
85.216583
-0.72646147
-1.4604831
0
0
0
-1.5611935
22.637489
23.709845
-0.38014799
-1.7946572
-0.11154293
-2.5035405
-1.160766
30.760241
48.445377
-0.75538123
-0.60982275
60.676559
0
0
0
-0.10112081
-1.7039474
48.029625
0
20.520889
-0.38814875
-1.135919
0.17933467
0.49620971
23.680246
-0.30595398
0
28.726294
38.678143
30.819851
-0.28584543
0
-0.8627426
-0.48407713
0
-1.3441285
</ColumnCells>
    </DataColumn>
    <DataColumn>
      <ID>110</ID>
      <ColumnGroupID>111</ColumnGroupID>
      <UDMVertexID>0</UDMVertexID>
      <BroadcastTo>2 101 120</BroadcastTo>
      <DataObjectName>1788</DataObjectName>
      <ColumnUnits></ColumnUnits>
      <ColumnProtected>0</ColumnProtected>
      <ColumnUserEditable>1</ColumnUserEditable>
      <ColumnDataType>0</ColumnDataType>
      <StartTime>1566247772</StartTime>
      <ColumnStartCollectTime>1566247772</ColumnStartCollectTime>
      <ColumnUserCreated>1</ColumnUserCreated>
      <ColumnAllowUserDelete>1</ColumnAllowUserDelete>
      <DataObjectPrecisionDecimal>1</DataObjectPrecisionDecimal>
      <DataObjectPrecision>1</DataObjectPrecision>
      <ColumnForceScientific>0</ColumnForceScientific>
      <UDMAutomaticPrecision>0</UDMAutomaticPrecision>
      <ColumnMatrixStyleNum>0</ColumnMatrixStyleNum>
      <ColumnPPStyle>5</ColumnPPStyle>
      <DataObjectDataSource>0</DataObjectDataSource>
      <ColumnSensorColumn>0</ColumnSensorColumn>
      <ColumnSensorInputColumn>0</ColumnSensorInputColumn>
      <ColumnShowLiveReadout>0</ColumnShowLiveReadout>
      <DataObjectColor>0xbaba 0xb2b2 0x1e1e</DataObjectColor>
      <ColumnCells>
50.97047
6.6900034
5.7968197
5.4574356
5.8685927
25.424429
5.4529548
56.950706
-0.2409382
-0.077530004
-1.2196714
0
28.530968
23.658463
37.269886
4.4221053
99.97197
41.292183
0.11412308
49.377514
43.843822
25.341223
96.796158
2.5367591
29.027851
7.6311431
5.6519489
0
0
-0.033396356
6.7112274
32.828735
5.04424
6.2119136
52.7001
0.028433368
40.139381
6.8090696
-1.0767534
25.882275
12.588459
-0.004263909
-0.25840539
3.8775291
43.861153
19.987371
6.658864
6.4429598
73.759438
0.50172961
0
4.2646151
0.010427582
0
34.865719
0.14023833
23.920324
0
0.44527417
0.62806118
-1.5183015
30.456429
5.112021
0
-0.22584213
-2.2072864
1.054474
47.497101
5.4316216
6.8527007
6.2919893
5.351707
2.2249951
0.45581266
49.16888
5.0374131
0
5.705318
1.3699592
18.229429
-0.30371577
6.4008608
32.499096
5.7254801
6.0048132
81.405098
41.61607
4.6351042
0.28149426
7.5842671
1.2630678
5.9152842
2.1658478
-0.31873667
-0.33815441
0
49.940201
-0.38890895
50.992096
35.888691
47.859795
-0.28384393
0
36.521816
0
1.5778303
0
15.692586
0
0
104.3836
-1.1865731
-2.4790912
0
-0.1336531
-1.43672
-1.6605281
48.113201
9.7227755
-0.63793933
0
0
-1.6068578
0
0
-1.5889157
0
24.651777
26.412678
0
0
-0.93156523
51.438644
1.7311411
-1.240145
0
-1.8281437
-0.80161005
-2.0419443
0
53.350246
0.62701404
30.293011
0
0
-1.8369706
-0.022003429
0
0.62710595
-0.65486974
-0.97851956
0.18317837
0
0
0
0
-1.0900577
0
2.2644386
0
0
-1.1598409
0
24.458447
0
-2.403388
0.12514764
0.28021336
0
-1.4233966
0
100.06155
3.248286
50.337116
-0.43171155
0.2707631
34.446518
5.6059408
93.72258
34.692471
84.639893
0
102.33486
0
36.2136
0
6.1606793
-0.6584667
41.147625
31.157694
26.690241
34.724857
33.958019
0.49078625
43.285057
-0.20992211
35.406166
70.823502
5.8560929
0.17410485
72.19014
47.903881
0.12913984
-0.21725255
-0.66973066
0
33.575428
6.8199286
50.84235
6.5728612
52.987892
-0.99292397
0
48.826603
46.245823
95.147133
-0.51136202
7.896668
5.1526713
0
3.0605783
52.200127
0.33937094
6.4643116
25.865452
59.292786
-0.79313201
-0.13746001
58.470459
0.10888458
87.273552
0
22.621851
-1.1235634
22.92359
0
0.030161869
0
0
0
7.7762957
-0.57866073
104.6868
56.256023
40.388969
27.891081
34.775188
23.585636
0
0
25.379602
16.523285
0
0
0
4.6837277
44.487152
7.0107894
-0.63486677
0
0
0
1.1406466
87.068474
38.405357
21.003222
21.383837
0
0
2.7509289
46.751091
92.116829
0
15.735642
15.914143
28.693182
18.32427
-0.80586684
-0.9419015
6.6002965
-0.79777449
0
9.949935
3.0509593
0
0
53.195217
0
-0.084048808
37.557789
65.89576
92.58564
0
38.608974
0
102.19714
-0.015982799
49.254494
55.471413
38.871002
0
0.29975805
0
37.099731
0
0.38383862
0.46512899
0
0.46320835
35.497581
-0.002410177
48.368801
0
7.9526973
13.679646
0
13.615346
0
59.592194
93.043961
35.326508
22.019714
24.190754
0.86993426
8.5109959
38.502399
-0.31777006
82.990845
40.922344
-0.12360828
58.856998
0.60239887
35.005299
20.768715
38.65976
0
15.370943
0
10.188031
27.456442
-0.017498851
0
19.055214
3.360064
0
0.36907175
-0.24307704
2.8761721
-0.58235526
87.954933
0
0
0
-0.23620144
0
59.468342
78.764145
3.1938908
55.496502
-1.3895563
0
10.1022
0
-1.6310056
12.533731
11.062377
-0.17110902
-0.42538702
4.6249642
-2.2062085
-0.36572891
8.8056583
1.5054297
-1.0534725
-0.080935761
0
81.163963
0
55.448162
0
-0.4066
0.76163268
21.80547
58.042
0.28774798
-0.41873765
52.13335
78.400803
10.029606
57.170841
0
54.862034
51.608799
54.914642
-0.059116177
2.9538727
0.65155375
-0.76063114
97.977852
-1.2368587
</ColumnCells>
    </DataColumn>
    <DataColumn>
      <ID>112</ID>
      <ColumnGroupID>113</ColumnGroupID>
      <UDMVertexID>0</UDMVertexID>
      <BroadcastTo>2 101 120</BroadcastTo>
      <DataObjectName>1790</DataObjectName>
      <ColumnUnits></ColumnUnits>
      <ColumnProtected>0</ColumnProtected>
      <ColumnUserEditable>1</ColumnUserEditable>
      <ColumnDataType>0</ColumnDataType>
      <StartTime>1566247772</StartTime>
      <ColumnStartCollectTime>1566247772</ColumnStartCollectTime>
      <ColumnUserCreated>1</ColumnUserCreated>
      <ColumnAllowUserDelete>1</ColumnAllowUserDelete>
      <DataObjectPrecisionDecimal>1</DataObjectPrecisionDecimal>
      <DataObjectPrecision>1</DataObjectPrecision>
      <ColumnForceScientific>0</ColumnForceScientific>
      <UDMAutomaticPrecision>0</UDMAutomaticPrecision>
      <ColumnMatrixStyleNum>0</ColumnMatrixStyleNum>
      <ColumnPPStyle>6</ColumnPPStyle>
      <DataObjectDataSource>0</DataObjectDataSource>
      <ColumnSensorColumn>0</ColumnSensorColumn>
      <ColumnSensorInputColumn>0</ColumnSensorInputColumn>
      <ColumnShowLiveReadout>0</ColumnShowLiveReadout>
      <DataObjectColor>0x3333 0x4545 0xaaaa</DataObjectColor>
      <ColumnCells>
51.541027
6.8283854
5.8708267
5.1407175
5.7659287
28.161379
5.6177783
60.949146
0
0
0
-0.90555459
25.733089
21.011961
34.383686
4.8532
100.58205
39.506176
0.13280554
48.897686
48.65044
22.343164
96.209496
3.3059545
26.084976
7.9302649
6.3385601
-0.075049818
-0.92104882
0
6.7050815
30.534494
5.4088244
6.1884179
56.078754
0.52628589
38.475258
6.8503108
0
26.051531
10.659901
0
0
3.5482047
42.286278
17.897858
6.61234
6.1082883
69.362503
0.30946577
-0.36997694
4.1803679
0.007522379
-0.63850617
32.615387
0.18578236
23.980379
-0.67216456
0.47574559
0.51646382
0
28.984573
4.7392569
-0.50515604
0
0
0.26878333
46.404789
5.1698828
7.0739403
5.9622178
4.9976521
1.9907624
0.44945934
49.839725
5.4049802
-1.0061684
5.4320292
1.1056502
16.124458
0
6.1086359
33.520123
3.8639441
5.7376242
77.809669
38.827965
4.2231855
1.0858757
5.6347084
1.0273511
4.1987162
1.6380999
0
0
-0.56555545
48.588501
0
51.911041
34.1082
49.381886
0
-2.8318875
40.896873
-2.7628286
1.6928715
-1.213128
19.766285
-1.1271783
-2.6414669
106.83177
0
0
-0.083592996
0
0
0
51.984688
7.9884024
0
-0.85981566
-0.90024364
0
-2.0936735
-0.75637358
0
-2.003695
23.459949
28.891502
-0.63526535
-0.74687833
0
52.779602
2.4045827
0
-0.95277578
0
0
0
-0.36252362
52.293999
1.2433958
31.539541
-1.4174244
-1.0822201
0
0.006016031
-1.0374326
0.4575581
0
0
0
-0.22621657
-1.7040679
-1.0720702
-1.5111374
0
-1.1942199
3.6947699
-2.2287543
-0.87098581
0
-1.9640288
25.625656
-1.3431112
0
0.047030173
0.29678813
-1.2782588
0
-0.80973375
102.8022
3.6601126
49.940411
0
0.67758387
32.914238
4.1287498
89.614243
33.143875
79.646675
-1.0852365
104.96529
-0.15952684
34.595345
-1.106348
6.0972104
0
39.034512
29.379675
27.8326
33.015869
35.470051
0.46409345
39.582661
0
33.563641
66.212242
5.7587509
0.13961279
77.56385
46.403458
0.002807532
0
0
-0.72139704
30.28755
6.7387605
49.636398
6.6286283
51.654701
0
-0.038108449
51.097424
49.408302
91.952682
0
7.6723142
5.7376127
-0.97449642
3.0908935
50.482063
0.35509288
6.545794
29.593212
62.994579
0
0
58.895206
0.087709606
92.211731
-0.43924069
23.013689
0
23.40062
-0.19359894
0
-0.17926371
-0.95551646
-1.0991482
10.752594
0
105.06692
57.889675
44.344749
29.097736
32.310043
20.914469
-0.10761428
-0.008656425
26.34413
14.461553
-0.35917687
-0.81842399
-0.00391301
5.1100016
40.674171
6.8117304
0
-0.6113106
-1.4645439
-2.0762837
1.8540963
82.498039
42.153851
21.003691
21.237663
-0.393345
-0.21124972
1.3783492
44.301403
94.73317
-0.51248801
13.561468
19.780441
30.000095
16.144714
0
0
6.3203959
0
-0.99954182
7.7722998
3.1975634
-0.97840905
-0.73576206
55.134285
-1.0010307
0
42.61644
70.604027
89.512741
-0.75616544
36.53904
-1.024806
99.237373
0.033299208
51.554214
54.175323
36.01712
-1.0387011
0.1391063
-0.16457509
42.153858
-1.8702548
0.36740947
0.2870726
-1.152864
0.49277639
38.485641
0.097347647
53.814381
-0.1807951
7.0604
11.564153
-0.88545811
11.768083
-0.65749872
59.473385
94.718948
33.039574
22.688641
21.928137
1.1900218
9.6138344
41.350285
0
86.986603
46.293076
0
58.116547
0
32.058399
23.975199
41.501156
-0.48731428
13.070568
-0.28773436
8.7435999
25.558908
0.67514116
-1.596101
19.419373
4.8432775
-0.05434246
0.47709
0
1.7981637
0
91.195961
-0.90006739
-0.85426998
-0.61680287
0.002912998
-0.20029715
59.683529
83.375999
2.1429071
59.89957
0
-1.0602551
13.07042
-0.29707617
0
11.809645
12.2674
0.068634599
0
5.206356
0
0
7.8593478
2.7487869
0
0
-0.43042693
77.301277
-0.47495577
60.217327
-0.62051332
0
2.0155606
22.673201
57.466805
0
0
47.280201
83.05925
9.3213177
52.089912
-0.40383673
53.704483
49.468178
53.517754
0
3.8974259
1.3007897
0
96.947426
0
</ColumnCells>
    </DataColumn>
    <DataColumn>
      <ID>114</ID>
      <ColumnGroupID>115</ColumnGroupID>
      <UDMVertexID>0</UDMVertexID>
      <BroadcastTo>2 101 120</BroadcastTo>
      <DataObjectName>1792</DataObjectName>
      <ColumnUnits></ColumnUnits>
      <ColumnProtected>0</ColumnProtected>
      <ColumnUserEditable>1</ColumnUserEditable>
      <ColumnDataType>0</ColumnDataType>
      <StartTime>1566247772</StartTime>
      <ColumnStartCollectTime>1566247772</ColumnStartCollectTime>
      <ColumnUserCreated>1</ColumnUserCreated>
      <ColumnAllowUserDelete>1</ColumnAllowUserDelete>
      <DataObjectPrecisionDecimal>1</DataObjectPrecisionDecimal>
      <DataObjectPrecision>1</DataObjectPrecision>
      <ColumnForceScientific>0</ColumnForceScientific>
      <UDMAutomaticPrecision>0</UDMAutomaticPrecision>
      <ColumnMatrixStyleNum>0</ColumnMatrixStyleNum>
      <ColumnPPStyle>7</ColumnPPStyle>
      <DataObjectDataSource>0</DataObjectDataSource>
      <ColumnSensorColumn>0</ColumnSensorColumn>
      <ColumnSensorInputColumn>0</ColumnSensorInputColumn>
      <ColumnShowLiveReadout>0</ColumnShowLiveReadout>
      <DataObjectColor>0xe2e2 0x6060 0x9494</DataObjectColor>
      <ColumnCells>
51.696442
6.8183146
5.8113256
4.8442187
5.5842214
31.466105
5.667027
64.808395
-0.19833322
-0.12011805
-1.0215656
0
23.234789
18.67231
31.153423
5.3531866
100.22482
37.739529
0.13287193
48.242649
52.989582
19.733789
95.17749
3.9628942
23.331573
7.9846683
6.9329886
0
0
-0.031307038
6.5584221
27.777157
5.6680937
6.0539503
59.659321
1.1833335
36.848236
6.7659688
-1.131914
26.286846
8.7308025
-0.037285231
-0.3166565
3.1909602
40.497372
15.854815
6.1870203
5.6321402
64.859482
0.30802807
0
4.0346723
0
0
29.913086
0.1321772
24.256474
0
0.46507427
0.33578962
-1.4385464
27.755501
4.4373531
0
-0.33994752
-1.909384
0.053127021
45.124763
4.9467897
6.9876308
5.6404462
4.6505761
1.9024855
0.4939211
50.045029
5.5813975
0
5.1304998
1.0309806
13.990883
-0.3865602
5.8258042
34.762829
2.3082771
5.5233164
74.199257
36.454052
3.8788412
1.990301
3.8485959
0.99197876
2.7370527
1.2606293
-0.13496792
-0.47164428
0
47.40691
-0.53255403
52.184315
32.363499
50.918285
-0.29127297
0
45.73481
0
1.5532291
0
23.55382
0
0
107.74554
-0.80656564
-2.8342915
0
-0.30772629
-1.510934
-1.3022572
55.174156
6.1513314
-0.52281815
0
0
-1.6377578
0
0
-1.5484154
0
22.5315
31.217354
0
0
-1.178201
54.046791
2.9591365
-1.56665
0
-1.583032
-0.61154932
-2.4757714
0
50.875843
1.8297071
33.204178
0
0
-2.0359657
0.18332604
0
0.21459098
-0.79819101
-1.2901157
-0.11283947
0
0
0
0
-0.9849
0
4.716188
0
0
-1.1207737
0
26.931955
0
-2.1731534
0
0.3963339
0
-1.2955251
0
104.73863
4.0547485
49.30975
-0.69264936
1.2842032
30.933647
2.804862
84.854057
31.386162
74.69326
0
106.8084
0
33.062588
0
5.9219179
-0.65753978
37.029465
27.831196
29.10088
31.09268
37.560001
0.35695881
36.438904
-0.21529457
31.636854
61.25433
5.6021709
0.089590274
82.855057
44.725342
0.032137599
-0.22883417
-0.64822888
0
27.023136
6.537992
48.204258
6.5524921
50.155289
-0.84660703
0
52.998928
51.764854
88.771072
-0.40533316
7.4116464
6.3827
0
3.2657313
48.544075
0.38606289
6.5386572
32.819069
66.677605
-0.79294091
-0.039947532
58.588402
0.031365957
96.490334
0
23.517876
-1.0958889
24.0112
0
-0.079353258
0.033399597
0
0
14.573715
-0.55316657
104.36932
59.18454
48.250656
30.346861
29.218594
18.778511
0
0.019402497
27.41836
12.337517
0
0
0.057411697
5.540699
37.17408
6.5961127
-0.64212954
0
0
0
2.4217999
77.807831
45.923737
21.091129
21.233786
0
0
0.4732393
41.851486
96.982681
0
11.341722
23.34606
31.672373
13.993809
-0.80131412
-0.88467789
6.0577102
-0.74328625
0
5.7022724
3.3678257
0
0
56.738823
0
-0.034238264
48.362919
75.841629
85.680199
0
34.646801
0
96.134377
0.071364604
53.444069
52.73457
33.570286
0
0.033783883
0
47.704803
0
0.3603988
0.13716576
0
0.53418553
41.367962
0.12107633
58.667702
0.033740513
6.3185773
9.7614136
0
10.17472
0
59.02393
95.919312
30.72625
23.50112
19.315664
1.4988091
10.659866
43.964222
-0.33447245
90.193375
52.138802
-0.02441694
56.828953
-0.059894979
29.648857
26.652939
44.130627
0
11.215497
0
7.3539181
23.923016
1.7842423
0
20.068668
6.2005658
0
0.53190958
-0.016379148
0.87738657
-0.736085
93.699295
0
0
0
0.30236
0
59.298679
87.095711
1.183094
64.200806
-1.333304
0
16.674345
0.04942818
-1.559404
11.071614
13.317113
0.3747929
-0.58224678
6.05196
-2.314384
-0.27678022
7.0413241
4.109447
-1.2111264
-0.30438381
0
73.112572
0
64.768944
0
-0.3893832
3.427943
23.806189
56.424225
-0.059431374
-0.64721382
42.709572
86.715271
8.456501
47.181686
0
52.107346
47.522095
51.751659
-0.03370801
4.9644108
2.0872149
-0.72705078
95.76799
-1.1769019
</ColumnCells>
    </DataColumn>
    <DataColumn>
      <ID>116</ID>
      <ColumnGroupID>117</ColumnGroupID>
      <UDMVertexID>0</UDMVertexID>
      <BroadcastTo>2 101 120</BroadcastTo>
      <DataObjectName>1794</DataObjectName>
      <ColumnUnits></ColumnUnits>
      <ColumnProtected>0</ColumnProtected>
      <ColumnUserEditable>1</ColumnUserEditable>
      <ColumnDataType>0</ColumnDataType>
      <StartTime>1566247772</StartTime>
      <ColumnStartCollectTime>1566247772</ColumnStartCollectTime>
      <ColumnUserCreated>1</ColumnUserCreated>
      <ColumnAllowUserDelete>1</ColumnAllowUserDelete>
      <DataObjectPrecisionDecimal>1</DataObjectPrecisionDecimal>
      <DataObjectPrecision>1</DataObjectPrecision>
      <ColumnForceScientific>0</ColumnForceScientific>
      <UDMAutomaticPrecision>0</UDMAutomaticPrecision>
      <ColumnMatrixStyleNum>0</ColumnMatrixStyleNum>
      <ColumnPPStyle>8</ColumnPPStyle>
      <DataObjectDataSource>0</DataObjectDataSource>
      <ColumnSensorColumn>0</ColumnSensorColumn>
      <ColumnSensorInputColumn>0</ColumnSensorInputColumn>
      <ColumnShowLiveReadout>0</ColumnShowLiveReadout>
      <DataObjectColor>0x5b5b 0x2c2c 0x6363</DataObjectColor>
      <ColumnCells>
51.479004
6.6864719
5.6556711
4.5284543
5.3590031
35.518162
5.6072216
68.303192
0
0
0
-0.79367054
20.942572
16.557999
27.982666
5.9001274
99.015129
36.041668
0.1168542
47.428333
56.667686
17.51454
93.540611
4.5024476
20.953192
7.8566036
7.336194
-0.23922858
-0.8966468
0
6.3353181
24.851612
5.8135719
5.8403082
63.834938
1.9011329
35.11412
6.5875649
0
26.62578
6.8637557
0
0
2.7961142
38.566868
13.754565
5.604208
5.2523708
60.422329
0.44710565
-0.30656454
3.8240261
-0.08068949
-0.54687417
26.893742
0.015438804
24.777592
-0.62091076
0.40487444
0.22111538
0
26.7453
4.1948013
-0.34815264
0
0
0.46851853
43.615246
4.718698
6.6965904
5.3048167
4.3103189
1.9307054
0.58696997
49.78651
5.5956469
-0.94144565
4.802331
1.1205801
11.820118
0
5.5478888
36.563831
1.1295924
5.3377466
70.339317
34.360165
3.5706487
2.7861626
2.3329206
1.0955939
1.5516655
1.0771171
0.092049427
0
-0.44028959
46.378456
0
51.776657
30.099297
52.46032
0
-2.744767
50.83548
-2.351552
1.1327759
-1.2846109
26.699169
-1.1817099
-2.4806023
106.35607
0
0
-0.044109754
0
0
0
58.575901
4.2583342
0
-0.74138147
-0.89006162
0
-2.000416
-0.65351075
0
-1.9073217
21.842863
34.412277
-0.39169121
-0.44292569
0
54.847939
3.3679955
0
-0.80781257
0
0
0
-0.36719301
49.361183
2.0042548
35.924614
-1.6500857
-1.1144474
0
0.53477579
-0.87878937
0.018315293
0
0
0.082679197
-0.28002405
-1.9574908
-1.3016469
-1.4471066
0
-1.0522109
5.4587374
-2.0088801
-1.2755969
0
-2.1184666
28.309206
-1.4175102
0
-0.13953318
0.55016142
-1.09275
0
-0.76017869
105.15532
4.2789459
48.435577
0
1.8765236
28.338068
1.7049152
80.05481
29.336842
69.990372
-1.1615834
107.65773
-0.1623012
31.399441
-1.0029981
5.596282
0
35.242832
26.526228
30.381006
28.846373
40.242744
0.18042138
33.836109
0
29.254679
56.358337
5.3647947
0.093099184
87.683372
42.84642
0.18038785
0
0
-0.71430755
23.838247
6.3429317
46.451256
6.4411402
48.38768
0
-0.07353428
54.556881
53.794357
85.213516
0
7.1083155
6.8561549
-0.88626462
3.5018001
46.358582
0.43192241
6.4115596
36.380177
70.858032
0
0.037448794
57.620243
0
100.00326
-0.41894537
24.143057
0
24.815758
-0.1843999
0
0.42884919
-0.92289376
-1.137
18.512411
0
102.50357
59.843685
51.185268
31.809763
26.086063
16.640713
-0.14100483
0.02831815
28.490679
10.157978
-0.2465077
-0.76395696
0.14881432
5.9948602
34.093777
6.3561125
0
-0.67631328
-1.4581107
-2.0584519
2.9077277
73.224068
48.875874
21.235559
21.328695
-0.4283534
-0.26400658
0.088622347
39.518383
98.826645
-0.56047034
9.0834436
26.543324
34.198933
11.818131
0
0
5.8101764
0
-0.90869242
3.845264
3.50261
-0.9610917
-0.69232106
58.098637
-1.0597643
0.038318936
53.364929
80.94175
81.071739
-0.68729788
32.2925
-1.0217463
92.858833
0.10583248
54.929798
51.195549
31.517801
-0.92432672
0.016013399
-0.2401311
52.894596
-1.6608441
0.39874852
0.036579352
-1.102723
0.59606802
44.135014
0.066937342
63.291512
0.22205073
5.8025408
8.2020893
-0.96758038
8.7004423
-0.44956553
58.41943
96.693275
28.555471
24.524651
16.586931
1.6978601
11.654
46.353813
0
92.668831
57.556282
0.048132107
54.87994
0
27.658522
29.00528
46.551891
-0.35483527
9.6929131
-0.38772929
5.9733396
22.557503
3.062403
-1.6449758
21.013491
7.410284
-0.1098773
0.55978763
0.72012931
0.18729003
0
95.578835
-0.86473721
-1.0477231
-0.63100737
0.53421646
-0.24680115
58.482502
89.996872
0.39369866
68.858353
0
-0.89963669
20.481857
0.43286771
0
10.260789
14.070678
0.63465786
0
7.4389343
0
0
6.455029
5.4546227
0
0
-0.04301843
68.584724
-0.59645212
69.526192
-0.59599316
0
4.7630558
25.306398
54.82938
0
0
38.551392
89.471222
7.5204439
42.670742
-0.40671042
50.317429
45.866676
49.904423
0
6.2437067
2.910594
0
94.559311
0
</ColumnCells>
    </DataColumn>
    <DataColumn>
      <ID>118</ID>
      <ColumnGroupID>119</ColumnGroupID>
      <UDMVertexID>0</UDMVertexID>
      <BroadcastTo>2 101 120</BroadcastTo>
      <DataObjectName>1796&#13;</DataObjectName>
      <ColumnUnits></ColumnUnits>
      <ColumnProtected>0</ColumnProtected>
      <ColumnUserEditable>1</ColumnUserEditable>
      <ColumnDataType>0</ColumnDataType>
      <StartTime>1566247772</StartTime>
      <ColumnStartCollectTime>1566247772</ColumnStartCollectTime>
      <ColumnUserCreated>1</ColumnUserCreated>
      <ColumnAllowUserDelete>1</ColumnAllowUserDelete>
      <DataObjectPrecisionDecimal>1</DataObjectPrecisionDecimal>
      <DataObjectPrecision>1</DataObjectPrecision>
      <ColumnForceScientific>0</ColumnForceScientific>
      <UDMAutomaticPrecision>0</UDMAutomaticPrecision>
      <ColumnMatrixStyleNum>0</ColumnMatrixStyleNum>
      <ColumnPPStyle>9</ColumnPPStyle>
      <DataObjectDataSource>0</DataObjectDataSource>
      <ColumnSensorColumn>0</ColumnSensorColumn>
      <ColumnSensorInputColumn>0</ColumnSensorInputColumn>
      <ColumnShowLiveReadout>0</ColumnShowLiveReadout>
      <DataObjectColor>0xd8d8 0x2626 0x2f2f</DataObjectColor>
      <ColumnCells>
51.059986
6.4723592
5.4386873
4.1205235
5.1000686
39.90876
5.4506087
71.464386
-0.18774194
-0.17091084
-0.8355298
0
18.704229
14.542006
25.125242
6.3788571
97.271782
34.320358
0.091503397
46.463001
60.086987
15.566143
91.161781
4.9581447
18.858881
7.6160684
7.4892077
0
0
-0.028784489
6.0696287
22.146276
5.8534517
5.5823789
68.537453
2.5893924
33.024902
6.3215599
-1.1568809
27.1332
5.1330457
-0.062423445
-0.37830943
2.3430555
36.626343
11.574419
5.1805997
5.0520358
56.196915
0.64457285
0
3.5589325
0
0
23.983524
0
25.537029
0
0.31843999
0.20712601
-1.3020281
25.905205
3.9265437
0
-0.32779482
-1.5760643
1.3812988
41.880737
4.4101171
6.4005876
4.9432211
3.9642801
2.0209687
0.70085549
49.199818
5.5363855
0
4.4526834
1.3081387
9.607728
-0.49773458
5.2707005
38.936829
0.36654976
5.1804452
66.221741
32.546551
3.2138031
3.5492036
1.1598699
1.2894449
0.69546187
1.0956129
0.21290495
-0.5365932
0
45.4851
-0.60862541
50.744736
27.153622
53.98045
-0.28845686
0
54.931702
0
0.66174239
0
29.37735
0
0
103.39946
-0.43007642
-2.9770513
0
-0.42527997
-1.6740056
-1.1196275
62.194805
2.5000558
-0.60434699
0
0
-1.9599659
0
0
-1.4022897
0
21.335178
38.522717
0
0
-1.5145673
54.716419
3.8517156
-1.9404172
0
-1.3104286
-0.40965587
-2.7155635
0
48.024853
1.8163949
39.6521
0
0
-2.1441166
0.91398609
0
0
-1.0314586
-1.5977143
0.73637259
0
0
0
0
-0.86235905
0
6.0911899
0
0
-0.97140819
0
29.563793
0
-2.0579257
0
0.74765092
0
-1.1567677
0
103.51714
4.3711052
47.310852
-0.93290168
2.3364286
25.006073
0.88047409
75.429955
26.821354
65.550064
0
107.12245
0
29.540802
0
5.2692342
-0.62757319
33.630745
25.481646
31.660265
26.13286
43.047691
0.060487151
31.602827
-0.28547317
26.28442
51.57365
5.0611086
0.14148748
92.029915
40.994873
0.29279941
-0.189638
-0.6236735
0
21.164686
6.1504116
44.531429
6.2837448
46.336399
-0.68073893
0
55.943707
55.499752
81.158417
-0.25599909
6.8387561
7.0431585
0
3.7133839
44.185616
0.49588272
6.2348652
40.404972
75.366302
-0.78983295
0.090414427
56.231831
-0.083780244
102.73629
0
24.908688
-1.0507029
25.81624
0.047616586
-0.17851429
1.0419035
0
0
22.22558
-0.51056999
99.879189
59.744541
53.173763
33.587387
22.95789
14.493809
0
0.027316419
29.552248
7.9655433
0
0
0.26298001
6.4073634
31.44269
6.0608621
-0.64098126
0
0
0
3.386538
68.811081
51.04948
21.443499
21.514343
0
0
0.33210585
37.287243
99.87635
0
6.8463979
29.436708
37.63747
9.6427069
-0.77348894
-0.82733244
5.5331082
-0.64340156
0
2.2870378
3.6087432
0
0
59.01556
0
0.12832019
57.65786
85.77887
76.402466
0
29.318264
0
89.436371
0.12062944
56.152573
49.500862
29.739477
0
0.063155174
0
57.520157
0
0.50050408
0
0
0.67140383
46.822208
0
68.087608
0.32589018
5.5255189
6.7870574
0
7.2325234
0
57.476284
97.03598
26.63941
25.899481
14.153387
1.6886046
12.546045
48.722744
-0.2543394
94.485931
62.342487
0.11886751
52.330574
-0.28818974
25.984707
31.465778
48.966827
0
8.3263283
0
4.6375804
21.49972
4.3155642
0
22.307369
8.5773506
0.037440225
0.59366602
1.9434263
0
-0.79257947
96.918945
0
0
0
0.60894984
0
57.107574
92.221596
0
74.046761
-1.2529821
0
23.933849
0.78807783
-1.4818
9.3621073
14.431968
0.76799476
-0.7858175
9.565444
-2.4003928
-0.38724363
6.1307354
6.7296867
-1.2923857
-0.49418339
0.9509936
63.721001
0
74.695473
0
-0.47499186
5.9609308
27.260942
52.725063
-0.1931151
-0.93124819
34.902302
91.545021
6.637886
38.679661
0
48.699566
44.377136
48.08527
-0.04004471
8.0177956
3.8306956
-0.70036215
93.052155
-1.090909
</ColumnCells>
    </DataColumn>
  </DataSet>
</Document>
